-2.0217,-2.0083,-2.018,-2.0247,-2.0213,-2.0164,-2.017,-2.0176,-2.0276,-2.0291,-2.0197,-2.0226,-2.0195,-2.0292,-2.0254,-2.0232,-2.0134,-2.0084,-2.0179,-2.0219,-2.0102,-2.0061,-2.0019,-1.9949,-1.9831,-1.9709,-1.9437,-1.9443,-1.9505,-1.9635,-1.9525,-1.9461,-1.9442,-1.9588,-1.9614,-1.9682,-1.9671,-1.9934,-2.0146,-2.0255,-2.052,-2.0357,-2.0324,-2.0265,-2.0324,-2.038,-2.0295,-2.0316,-2.0453,-2.045,-2.0446,-2.0385,-2.0302,-1.9675,-1.8996,-1.7459,-1.5896,-1.4337,-1.256,-1.1481,-1.3242,-1.7175,-2.2866,-2.5284,-2.3906,-2.2845,-2.1702,-2.0766,-1.9824,-1.9794,-1.9572,-1.9628,-1.9567,-1.9735,-1.9592,-1.9591,-1.9499,-1.9479,-1.9372,-1.9418,-1.9362,-1.9272,-1.9187,-1.9145,-1.9053,-1.9082,-1.8975,-1.893,-1.8907,-1.8836,-1.8859,-1.8812,-1.8518,-1.8482,-1.8535,-1.85,-1.8423,-1.8402,-1.8213,-1.8168,-1.8084,-1.8026,-1.7734,-1.7677,-1.7559,-1.7523,-1.7405,-1.7223,-1.7004,-1.6858,-1.6785,-1.6675,-1.6387,-1.6228,-1.6161,-1.6099,-1.5913,-1.5691,-1.5714,-1.5573,-1.5561,-1.5473,-1.5325,-1.5318,-1.5247,-1.5305,-1.5422,-1.5641,-1.5927,-1.6301,-1.6719,-1.7244,-1.7779,-1.79,-1.8238,-1.8711,-1.9221,-1.9484,-1.9737,-1.9953,-2.0215,-2.0302,-2.0422,-2.0555,-2.0637,-2.0582,-2.0607,-2.0671,-2.0708,-2.0598,-2.0589,-2.0585,-2.0686,-2.0509,-2.0485,-2.0499,-2.0554,-2.0556,-2.0576,-2.0406,-2.0461,-2.0519,-2.0554,-2.0526,-2.0433,-2.0329,-2.0423,-2.0573,-2.0558,-2.0433,-2.0554,-2.0587,-2.0675,-2.0727,-2.0667,-2.0649,-2.0663,-2.0754,-2.0764,-2.0643,-2.0683,-2.0811,-2.0816,-2.0833,-2.0777,-2.0872,-2.0908,-2.0846,-2.0974,-2.0958,-2.091,-2.0985,-2.1126,-2.1136,-2.106,-2.0994,-2.0882,-2.1041,-2.1142,-2.1211,-2.1018,-2.0991,-2.1051,-2.1109,-2.1197,-2.1045,-2.093,-2.1082,-2.1109,-2.1023,-2.0998,-2.1025,-2.0973,-2.0976,-2.0952,-2.092,-2.1003,-2.0949,-2.1005,-2.1021,-2.0995,-2.0944,-2.0971,-2.1028,-2.1111,-2.0949,-2.101,-2.1036,-2.1085,-2.1068,-2.0956,-2.104,-2.1024,-2.097,-2.0948,-2.0814,-2.0793,-2.069,-2.0698,-2.0635,-2.0346,-2.0273,-2.0246,-2.0296,-2.0435,-2.034,-2.0347,-2.0485,-2.062,-2.0761,-2.0706,-2.0909,-2.1089,-2.1155,-2.128,-2.1236,-2.1225,-2.1257,-2.1264,-2.133,-2.1288,-2.1251,-2.1291,-2.1252,-2.1371,-2.1324,-2.1162,-2.0758,-1.9471,-1.7912,-1.6308,-1.4554,-1.2758,-1.1885,-1.2579,-1.6465,-2.1979,-2.6139,-2.5356,-2.3791,-2.3143,-2.1661,-2.0871,-2.0498,-2.0413,-2.034,-2.0299,-2.0313,-2.0376,-2.0292,-2.0302,-2.0166,-2.0124,-2.0015,-2.0141,-2.0145,-2.0131,-2.0012,-2.002,-1.9946,-1.996,-1.986,-1.9946,-1.9902,-1.9699,-1.9641,-1.9607,-1.9533,-1.9372,-1.9362,-1.9644,-1.9333,-1.9167,-1.9262,-1.9147,-1.8941,-1.8877,-1.8638,-1.8688,-1.879,-1.8147,-1.7888,-1.8088,-1.8134,-1.7758,-1.7499,-1.7294,-1.7146,-1.7041,-1.7034,-1.6861,-1.6607,-1.6366,-1.6355,-1.6309,-1.6412,-1.6232,-1.6063,-1.6034,-1.6003,-1.6121,-1.6278,-1.6563,-1.6788,-1.7112,-1.7516,-1.8073,-1.8525,-1.902,-1.9311,-1.9572,-2.0076,-2.042,-2.0584,-2.0759,-2.0909,-2.1041,-2.1238,-2.1191,-2.1169,-2.1107,-2.1192,-2.1242,-2.1253,-2.1161,-2.1139,-2.1122,-2.1096,-2.1121,-2.1032,-2.0896,-2.1094,-2.1091,-2.1072,-2.0898,-2.0898,-2.0922,-2.0901,-2.089,-2.0846,-2.0875,-2.0899,-2.0858,-2.0857,-2.079,-2.0758,-2.0866,-2.1006,-2.0926,-2.0856,-2.0919,-2.0979,-2.111,-2.1092,-2.0897,-2.0943,-2.1041,-2.1193,-2.1163,-2.1045,-2.1036,-2.1165,-2.1228,-2.1231,-2.1203,-2.106,-2.1072,-2.1246,-2.1288,-2.1181,-2.1184,-2.1243,-2.1268,-2.1253,-2.1219,-2.1188,-2.1232,-2.1282,-2.1382,-2.1374,-2.1208,-2.1187,-2.1209,-2.1202,-2.1249,-2.109,-2.113,-2.1228,-2.1315,-2.1209,-2.1149,-2.1196,-2.1278,-2.1181,-2.1192,-2.1156,-2.1181,-2.1175,-2.1231,-2.1231,-2.123,-2.1153,-2.1205,-2.1255,-2.1273,-2.1225,-2.1167,-2.1126,-2.1207,-2.1205,-2.1189,-2.1044,-2.1002,-2.1,-2.0967,-2.0779,-2.0742,-2.0698,-2.0301,-2.0392,-2.042,-2.0413,-2.0367,-2.038,-2.0545,-2.0544,-2.059,-2.064,-2.0814,-2.101,-2.1174,-2.1184,-2.1137,-2.1178,-2.1273,-2.1326,-2.1251,-2.1249,-2.1304,-2.1343,-2.1394,-2.1255,-2.117,-2.1281,-2.1275,-2.0899,-1.9577,-1.7903,-1.6305,-1.4629,-1.2797,-1.1529,-1.225,-1.6097,-2.1742,-2.5895,-2.5201,-2.3583,-2.2887,-2.1345,-2.0697,-2.0356,-2.0114,-2.0224,-2.0255,-2.0058,-2.0027,-1.9822,-1.984,-1.9848,-2.0247,-2.0084,-1.9988,-1.9915,-1.9889,-1.9862,-1.9746,-1.9667,-1.961,-1.9546,-1.9597,-1.962,-1.9418,-1.9312,-1.9365,-1.9392,-1.9147,-1.9092,-1.8959,-1.8917,-1.8901,-1.8744,-1.8672,-1.8431,-1.8362,-1.8432,-1.8274,-1.8155,-1.7958,-1.7754,-1.7732,-1.7617,-1.7359,-1.7157,-1.6998,-1.6812,-1.6749,-1.6725,-1.6422,-1.6205,-1.6184,-1.6106,-1.5979,-1.5866,-1.5848,-1.5782,-1.5715,-1.5778,-1.5645,-1.5741,-1.5942,-1.6449,-1.6764,-1.7196,-1.7576,-1.7981,-1.845,-1.8955,-1.9268,-1.9576,-1.9843,-2.0143,-2.0193,-2.0324,-2.0484,-2.0655,-2.0666,-2.0687,-2.0705,-2.0745,-2.0765,-2.0769,-2.0709,-2.0695,-2.068,-2.0616,-2.0647,-2.0706,-2.0661,-2.0534,-2.0689,-2.0603,-2.0625,-2.0576,-2.0472,-2.0392,-2.0531,-2.0485,-2.0311,-2.0547,-2.0528,-2.05,-2.0548,-2.0611,-2.0446,-2.0495,-2.0439,-2.054,-2.0524,-2.0515,-2.05,-2.0496,-2.0486,-2.0597,-2.0614,-2.0425,-2.055,-2.0662,-2.0667,-2.0615,-2.0717,-2.0653,-2.076,-2.0766,-2.0745,-2.0689,-2.0779,-2.0738,-2.0794,-2.0876,-2.0748,-2.0881,-2.072,-2.0748,-2.0891,-2.0922,-2.0845,-2.0959,-2.0804,-2.0878,-2.0774,-2.0864,-2.0852,-2.0881,-2.0918,-2.086,-2.0849,-2.0925,-2.1109,-2.0954,-2.088,-2.0832,-2.1002,-2.1065,-2.118,-2.1102,-2.1113,-2.1178,-2.1026,-2.1008,-2.1128,-2.1053,-2.1162,-2.1223,-2.1146,-2.111,-2.1034,-2.1029,-2.1071,-2.1057,-2.1057,-2.0829,-2.0743,-2.0749,-2.0802,-2.0451,-2.0418,-2.0408,-2.0562,-2.0555,-2.0574,-2.049,-2.0646,-2.0657,-2.0865,-2.1084,-2.1371,-2.1224,-2.1407,-2.1374,-2.1463,-2.143,-2.1332,-2.1463,-2.1485,-2.1508,-2.1432,-2.1342,-2.1337,-2.1542,-2.154,-2.124,-2.0314,-1.9002,-1.7436,-1.6083,-1.4267,-1.2716,-1.3716,-1.7631,-2.3625,-2.6225,-2.6079,-2.465,-2.3468,-2.2605,-2.1377,-2.0722,-2.0326,-2.0568,-2.0527,-2.0588,-2.0483,-2.0551,-2.0369,-2.0407,-2.0407,-2.0439,-2.0292,-2.0326,-2.0362,-2.0311,-1.9984,-2.0029,-2.0063,-2.0104,-1.9908,-1.9953,-1.9844,-1.9788,-1.9661,-1.9786,-1.9594,-1.9427,-1.9495,-1.9618,-1.9449,-1.9206,-1.9054,-1.9215,-1.8992,-1.8858,-1.8733,-1.8649,-1.8674,-1.8559,-1.8387,-1.8144,-1.8047,-1.7888,-1.7636,-1.7662,-1.7529,-1.7119,-1.6901,-1.694,-1.6935,-1.6797,-1.6596,-1.6571,-1.6488,-1.6518,-1.6539,-1.6554,-1.6428,-1.6471,-1.6656,-1.7038,-1.7324,-1.7797,-1.814,-1.8576,-1.9108,-1.9353,-1.9812,-2.0056,-2.0533,-2.0695,-2.0869,-2.1061,-2.1257,-2.1327,-2.1621,-2.1556,-2.1528,-2.1447,-2.1616,-2.1646,-2.1574,-2.1687,-2.1502,-2.1654,-2.1678,-2.1552,-2.1324,-2.1295,-2.137,-2.1363,-2.133,-2.1281,-2.1354,-2.1331,-2.1394,-2.1329,-2.1247,-2.1215,-2.13,-2.1326,-2.1383,-2.1248,-2.1275,-2.1135,-2.1381,-2.1371,-2.139,-2.1305,-2.1432,-2.1512,-2.1488,-2.1476,-2.1544,-2.1561,-2.156,-2.1651,-2.1709,-2.166,-2.1524,-2.17,-2.1731,-2.1624,-2.1569,-2.1694,-2.1687,-2.1789,-2.1793,-2.1665,-2.1641,-2.1739,-2.1845,-2.185,-2.1833,-2.1778,-2.1777,-2.1776,-2.1764,-2.1637,-2.1776,-2.1887,-2.1955,-2.1961,-2.188,-2.1835,-2.1791,-2.1913,-2.1886,-2.1752,-2.1817,-2.1827,-2.1844,-2.1699,-2.1663,-2.1542,-2.1606,-2.1349,-2.1167,-2.1186,-2.1118,-2.111,-2.0974,-2.1238,-2.1325,-2.1278,-2.1393,-2.1513,-2.1779,-2.1812,-2.1765,-2.1966,-2.1921,-2.2041,-2.1961,-2.1922,-2.1933,-2.1861,-2.1999,-2.2036,-2.1937,-2.2005,-2.1944,-2.2083,-2.1901,-2.1067,-1.964,-1.8124,-1.6813,-1.5103,-1.338,-1.383,-1.7108,-2.2566,-2.5653,-2.655,-2.5032,-2.4022,-2.3273,-2.2095,-2.1415,-2.1067,-2.1156,-2.1045,-2.1187,-2.0937,-2.105,-2.0913,-2.0976,-2.0993,-2.0933,-2.0811,-2.0896,-2.0714,-2.0853,-2.0738,-2.0791,-2.053,-2.0623,-2.0595,-2.0627,-2.0446,-2.0368,-2.0285,-2.0306,-2.0211,-2.0104,-1.9964,-1.9936,-1.9813,-1.9789,-1.9645,-1.9536,-1.9438,-1.9392,-1.9366,-1.916,-1.9068,-1.8943,-1.8802,-1.8673,-1.8436,-1.8191,-1.8109,-1.8005,-1.7788,-1.7629,-1.7458,-1.7227,-1.7266,-1.7155,-1.708,-1.6882,-1.6753,-1.6761,-1.6802,-1.6769,-1.6801,-1.6953,-1.7254,-1.753,-1.7938,-1.8416,-1.8879,-1.9348,-1.986,-2.0157,-2.0508,-2.0723,-2.0998,-2.1284,-2.1501,-2.1591,-2.1685,-2.1673,-2.1867,-2.1946,-2.1936,-2.1858,-2.1955,-2.2031,-2.193,-2.1795,-2.1829,-2.1813,-2.1832,-2.1793,-2.1759,-2.1764,-2.1758,-2.171,-2.1751,-2.1581,-2.1605,-2.1609,-2.1664,-2.1729,-2.1807,-2.1611,-2.1678,-2.1744,-2.1758,-2.1721,-2.1656,-2.1699,-2.1708,-2.1866,-2.1787,-2.1813,-2.1829,-2.1883,-2.1945,-2.1896,-2.1838,-2.1846,-2.1931,-2.2105,-2.2069,-2.1951,-2.1987,-2.2027,-2.1886,-2.2066,-2.2068,-2.2012,-2.1992,-2.2184,-2.2121,-2.2115,-2.2023,-2.2011,-2.21,-2.2054,-2.2098,-2.2044,-2.2102,-2.207,-2.2179,-2.2085,-2.2128,-2.2085,-2.2092,-2.2152,-2.2172,-2.2088,-2.21,-2.2109,-2.2239,-2.2113,-2.2097,-2.2151,-2.2338,-2.2311,-2.2265,-2.2133,-2.2088,-2.2184,-2.2171,-2.2197,-2.2122,-2.2014,-2.2011,-2.2061,-2.184,-2.1786,-2.165,-2.1435,-2.1468,-2.1441,-2.1321,-2.1343,-2.1376,-2.1442,-2.1478,-2.1486,-2.1519,-2.1625,-2.1851,-2.2074,-2.2256,-2.223,-2.2214,-2.2335,-2.2302,-2.2286,-2.2261,-2.2343,-2.2373,-2.2419,-2.2373,-2.2352,-2.2406,-2.2301,-2.1986,-2.0775,-1.9103,-1.7472,-1.5921,-1.4306,-1.3219,-1.5595,-1.9922,-2.5612,-2.7118,-2.5649,-2.4697,-2.3618,-2.2448,-2.1874,-2.1606,-2.1447,-2.1538,-2.1385,-2.1501,-2.1511,-2.159,-2.1281,-2.1283,-2.1327,-2.1377,-2.1224,-2.1181,-2.1102,-2.1104,-2.1102,-2.0995,-2.0938,-2.092,-2.0963,-2.0906,-2.0871,-2.0671,-2.0622,-2.0674,-2.0657,-2.0519,-2.0348,-2.0286,-2.0251,-2.0097,-1.9966,-1.9816,-1.969,-1.9608,-1.951,-1.9385,-1.9241,-1.901,-1.8955,-1.8897,-1.8631,-1.8449,-1.825,-1.8273,-1.8138,-1.7989,-1.7789,-1.7663,-1.7471,-1.744,-1.7399,-1.7308,-1.7168,-1.7124,-1.7083,-1.7225,-1.7228,-1.7283,-1.7591,-1.8035,-1.84,-1.8814,-1.9235,-1.945,-1.9936,-2.0329,-2.0712,-2.0869,-2.1051,-2.1417,-2.1557,-2.1667,-2.1756,-2.1756,-2.1808,-2.1934,-2.197,-2.1971,-2.1884,-2.1942,-2.1971,-2.1907,-2.1819,-2.176,-2.1767,-2.1804,-2.1843,-2.1725,-2.1673,-2.1692,-2.1723,-2.1786,-2.1648,-2.1681,-2.1662,-2.168,-2.173,-2.1608,-2.1579,-2.1668,-2.1805,-2.1819,-2.1779,-2.1731,-2.1703,-2.1766,-2.1837,-2.1869,-2.1819,-2.181,-2.19,-2.1942,-2.1967,-2.1882,-2.1855,-2.1881,-2.2021,-2.2102,-2.1986,-2.2008,-2.2053,-2.2107,-2.2102,-2.2042,-2.2094,-2.2098,-2.2215,-2.217,-2.2209,-2.2184,-2.2095,-2.2155,-2.2231,-2.2173,-2.2168,-2.2162,-2.2243,-2.2221,-2.2274,-2.2182,-2.2155,-2.2266,-2.23,-2.2268,-2.2235,-2.2105,-2.2177,-2.2259,-2.2299,-2.2221,-2.2214,-2.2199,-2.2203,-2.2256,-2.216,-2.223,-2.2243,-2.2316,-2.2268,-2.2215,-2.2216,-2.2099,-2.2107,-2.2072,-2.203,-2.1783,-2.1712,-2.1752,-2.1519,-2.1474,-2.1359,-2.1491,-2.1462,-2.1488,-2.155,-2.1518,-2.1517,-2.1642,-2.1846,-2.2094,-2.2097,-2.2194,-2.2279,-2.2223,-2.2289,-2.2192,-2.2285,-2.2308,-2.2332,-2.233,-2.2236,-2.2237,-2.2288,-2.2313,-2.1989,-2.1141,-1.9594,-1.8055,-1.6589,-1.4797,-1.3199,-1.3713,-1.5562,-2.0037,-2.5729,-2.6715,-2.513,-2.4186,-2.3161,-2.1934,-2.1301,-2.1029,-2.1074,-2.1135,-2.113,-2.1111,-2.111,-2.1101,-2.0995,-2.0956,-2.0875,-2.0785,-2.081,-2.0793,-2.0786,-2.0741,-2.0642,-2.0566,-2.0553,-2.0532,-2.0478,-2.0413,-2.0376,-2.0402,-2.0332,-2.0214,-2.0005,-1.996,-1.9905,-1.9785,-1.968,-1.9546,-1.9522,-1.9462,-1.9381,-1.936,-1.9225,-1.9078,-1.8937,-1.8875,-1.8644,-1.8455,-1.8355,-1.821,-1.8089,-1.7965,-1.7878,-1.7508,-1.7477,-1.7543,-1.742,-1.7195,-1.7098,-1.7073,-1.7127,-1.7155,-1.7065,-1.7106,-1.7204,-1.7417,-1.7723,-1.7993,-1.8336,-1.88,-1.9182,-1.9741,-2.0151,-2.0488,-2.0802,-2.1127,-2.1348,-2.1581,-2.1601,-2.1726,-2.1752,-2.2023,-2.207,-2.2078,-2.206,-2.2085,-2.2084,-2.2135,-2.2035,-2.1885,-2.1854,-2.2017,-2.1924,-2.1843,-2.1896,-2.182,-2.1895,-2.1804,-2.1814,-2.1775,-2.1786,-2.1818,-2.1819,-2.1852,-2.1818,-2.1848,-2.1841,-2.1894,-2.1935,-2.18,-2.184,-2.1963,-2.206,-2.1942,-2.1992,-2.1928,-2.2041,-2.2102,-2.2115,-2.1975,-2.2029,-2.1991,-2.205,-2.2174,-2.207,-2.2136,-2.211,-2.2212,-2.2444,-2.2143,-2.2083,-2.221,-2.2303,-2.2257,-2.2184,-2.2254,-2.217,-2.2184,-2.22,-2.2175,-2.2128,-2.221,-2.2299,-2.2227,-2.2152,-2.2105,-2.211,-2.2232,-2.2311,-2.2228,-2.2169,-2.2156,-2.2293,-2.2352,-2.2272,-2.2209,-2.2265,-2.2269,-2.2385,-2.2487,-2.2322,-2.2177,-2.2219,-2.224,-2.2225,-2.2062,-2.1936,-2.2038,-2.1961,-2.1721,-2.161,-2.1637,-2.1808,-2.1804,-2.1645,-2.1723,-2.1931,-2.1988,-2.197,-2.205,-2.2405,-2.2598,-2.2476,-2.2424,-2.2669,-2.2874,-2.2888,-2.2947,-2.2737,-2.2404,-2.2564,-2.2967,-2.2712,-2.2432,-2.2446,-2.2047,-2.0981,-2.0276,-1.86,-1.7022,-1.5245,-1.352,-1.3615,-1.722,-2.3091,-2.7502,-2.659,-2.4941,-2.4271,-2.2933,-2.2068,-2.1691,-2.1527,-2.1623,-2.1634,-2.1491,-2.1587,-2.1359,-2.155,-2.1545,-2.1583,-2.1264,-2.1291,-2.1242,-2.1285,-2.1232,-2.1193,-2.1137,-2.1132,-2.0978,-2.0964,-2.0714,-2.0803,-2.0655,-2.0671,-2.0613,-2.042,-2.0236,-2.031,-2.0275,-2.0344,-2.0032,-1.9841,-1.9739,-1.9721,-1.9612,-1.955,-1.9289,-1.9179,-1.8985,-1.8891,-1.8818,-1.8607,-1.8326,-1.829,-1.812,-1.7808,-1.7821,-1.776,-1.7623,-1.7543,-1.7439,-1.7255,-1.714,-1.7114,-1.7125,-1.7019,-1.713,-1.6859,-1.7067,-1.7405,-1.7736,-1.8034,-1.8498,-1.9038,-1.9594,-2.0019,-2.0151,-2.0417,-2.0825,-2.0926,-2.1264,-2.1492,-2.1667,-2.1825,-2.1941,-2.2077,-2.1987,-2.1993,-2.1959,-2.2006,-2.2096,-2.1947,-2.1783,-2.1904,-2.1926,-2.1807,-2.1766,-2.1779,-2.1851,-2.1757,-2.1815,-2.1786,-2.1802,-2.1749,-2.1721,-2.1782,-2.1866,-2.1785,-2.1713,-2.173,-2.1839,-2.1767,-2.1804,-2.1679,-2.1845,-2.1887,-2.1937,-2.1951,-2.1944,-2.1915,-2.1898,-2.1898,-2.2045,-2.197,-2.1975,-2.2084,-2.2069,-2.2069,-2.2116,-2.199,-2.2025,-2.2094,-2.2243,-2.2015,-2.194,-2.1972,-2.2045,-2.1999,-2.1888,-2.1914,-2.1919,-2.1986,-2.2031,-2.1888,-2.1918,-2.1965,-2.1949,-2.2013,-2.1952,-2.1967,-2.1989,-2.2145,-2.2118,-2.2054,-2.2032,-2.2029,-2.2082,-2.2088,-2.2155,-2.212,-2.2108,-2.2192,-2.2202,-2.219,-2.2095,-2.2183,-2.2214,-2.2247,-2.2254,-2.2227,-2.2206,-2.2195,-2.2254,-2.2256,-2.2214,-2.2179,-2.209,-2.2171,-2.2049,-2.1925,-2.1774,-2.1763,-2.1498,-2.1547,-2.1436,-2.1405,-2.1508,-2.1511,-2.1618,-2.1569,-2.156,-2.1737,-2.1935,-2.2266,-2.2307,-2.232,-2.241,-2.2401,-2.2477,-2.2422,-2.2386,-2.2452,-2.2517,-2.2615,-2.2539,-2.2444,-2.2509,-2.2593,-2.2597,-2.204,-2.0574,-1.8981,-1.7465,-1.5655,-1.3616,-1.2685,-1.3883,-1.8471,-2.4465,-2.7064,-2.5958,-2.4662,-2.3669,-2.2399,-2.1964,-2.1553,-2.1492,-2.1583,-2.1658,-2.1628,-2.1558,-2.1475,-2.1504,-2.1568,-2.1471,-2.1443,-2.1416,-2.1404,-2.1344,-2.1343,-2.1333,-2.112,-2.1209,-2.12,-2.1106,-2.1142,-2.1012,-2.1003,-2.1028,-2.094,-2.0839,-2.0744,-2.0644,-2.0573,-2.0547,-2.0475,-2.0308,-2.0233,-2.0201,-2.015,-2.0029,-1.9792,-1.9683,-1.9505,-1.9452,-1.9373,-1.9122,-1.8993,-1.8862,-1.8793,-1.8604,-1.847,-1.8264,-1.8256,-1.8183,-1.8146,-1.7985,-1.7955,-1.7836,-1.7884,-1.7888,-1.7826,-1.777,-1.7866,-1.8207,-1.8517,-1.8816,-1.9258,-1.9728,-2.021,-2.0669,-2.1027,-2.1352,-2.1646,-2.2048,-2.2212,-2.2422,-2.2436,-2.2513,-2.2576,-2.2715,-2.2864,-2.284,-2.2785,-2.286,-2.294,-2.2812,-2.2706,-2.2684,-2.2784,-2.2874,-2.2797,-2.2745,-2.2771,-2.2816,-2.2915,-2.2812,-2.28,-2.274,-2.2766,-2.2814,-2.2751,-2.2839,-2.2852,-2.2738,-2.2758,-2.2896,-2.2809,-2.2774,-2.2876,-2.2955,-2.2956,-2.2932,-2.2912,-2.2948,-2.2986,-2.3034,-2.3052,-2.309,-2.3088,-2.3194,-2.3215,-2.3149,-2.3202,-2.3169,-2.3184,-2.3217,-2.329,-2.3255,-2.315,-2.3212,-2.331,-2.3341,-2.3278,-2.325,-2.3263,-2.3342,-2.3381,-2.3356,-2.3301,-2.3386,-2.3427,-2.3441,-2.3414,-2.3324,-2.3366,-2.3468,-2.3523,-2.3508,-2.3444,-2.3462,-2.3541,-2.3554,-2.349,-2.3475,-2.3438,-2.3521,-2.3577,-2.3552,-2.3609,-2.3542,-2.3577,-2.3568,-2.3599,-2.3516,-2.3512,-2.3365,-2.3467,-2.3439,-2.3362,-2.3265,-2.3268,-2.3208,-2.2924,-2.2819,-2.2772,-2.286,-2.2878,-2.2951,-2.2841,-2.297,-2.2997,-2.3211,-2.3378,-2.3485,-2.3734,-2.3774,-2.3803,-2.386,-2.3793,-2.3772,-2.3873,-2.3898,-2.3901,-2.3919,-2.3789,-2.3815,-2.3812,-2.3928,-2.3801,-2.3323,-2.2045,-2.0567,-1.9203,-1.755,-1.5856,-1.5233,-1.7996,-2.2917,-2.8475,-2.8737,-2.6919,-2.5974,-2.4989,-2.4552,-2.3314,-2.2901,-2.2867,-2.2965,-2.2995,-2.2772,-2.2742,-2.2879,-2.2817,-2.2716,-2.2661,-2.2688,-2.2566,-2.2694,-2.2651,-2.2555,-2.2345,-2.235,-2.2403,-2.2438,-2.2257,-2.2175,-2.212,-2.225,-2.2122,-2.2009,-2.1937,-2.1829,-2.1884,-2.1761,-2.1606,-2.145,-2.1364,-2.1297,-2.1199,-2.1105,-2.089,-2.087,-2.0727,-2.0696,-2.0537,-2.0345,-2.0214,-2.0151,-1.9939,-1.9859,-1.9665,-1.9514,-1.932,-1.9265,-1.9235,-1.9095,-1.8914,-1.8927,-1.8947,-1.884,-1.8824,-1.8851,-1.8918,-1.8955,-1.9161,-1.9491,-1.9899,-2.0243,-2.0651,-2.1135,-2.1582,-2.1961,-2.2274,-2.2551,-2.2922,-2.311,-2.3033,-2.3195,-2.3405,-2.3525,-2.3599,-2.3615,-2.3515,-2.3492,-2.3552,-2.3604,-2.3421,-2.3327,-2.3488,-2.3605,-2.3684,-2.3307,-2.3273,-2.3328,-2.3432,-2.3404,-2.3372,-2.3426,-2.3349,-2.3364,-2.345,-2.3298,-2.3292,-2.3284,-2.344,-2.3397,-2.3494,-2.3306,-2.3347,-2.3484,-2.3573,-2.343,-2.3466,-2.3412,-2.3464,-2.354,-2.3604,-2.3481,-2.3562,-2.3546,-2.3652,-2.3561,-2.3569,-2.3587,-2.3647,-2.3743,-2.3668,-2.3666,-2.3735,-2.3666,-2.3708,-2.3734,-2.3649,-2.3692,-2.3641,-2.3749,-2.3817,-2.3717,-2.373,-2.3798,-2.3843,-2.3897,-2.3813,-2.3728,-2.3759,-2.3861,-2.3782,-2.372,-2.3543,-2.3615,-2.3649,-2.3628,-2.3582,-2.3396,-2.3022,-2.3085,-2.3189,-2.3138,-2.3131,-2.3065,-2.3115,-2.3304,-2.3295,-2.3342,-2.34,-2.3567,-2.374,-2.3951,-2.396,-2.3908,-2.4027,-2.4078,-2.3966,-2.3964,-2.3998,-2.4086,-2.4089,-2.4057,-2.3951,-2.3988,-2.4012,-2.379,-2.332,-2.1938,-2.0467,-1.9108,-1.752,-1.588,-1.5977,-1.9063,-2.4313,-2.9102,-2.8325,-2.6725,-2.5831,-2.471,-2.3798,-2.319,-2.3179,-2.3013,-2.3091,-2.3,-2.3089,-2.2883,-2.2915,-2.283,-2.2855,-2.2836,-2.2843,-2.2566,-2.2636,-2.2657,-2.2651,-2.2612,-2.2523,-2.2285,-2.2392,-2.2297,-2.2288,-2.2143,-2.2141,-2.2196,-2.2122,-2.1982,-2.1942,-2.1813,-2.1774,-2.1768,-2.1534,-2.1419,-2.128,-2.1253,-2.1172,-2.105,-2.0807,-2.0601,-2.0547,-2.0496,-2.023,-2.0132,-1.991,-1.983,-1.9694,-1.9568,-1.9415,-1.933,-1.9162,-1.913,-1.9142,-1.9063,-1.8872,-1.878,-1.8736,-1.8895,-1.8827,-1.8997,-1.9316,-1.974,-2.0179,-2.0499,-2.0931,-2.1445,-2.1654,-2.2071,-2.2465,-2.2635,-2.2854,-2.305,-2.3336,-2.3568,-2.346,-2.3454,-2.3536,-2.3688,-2.3712,-2.3614,-2.3521,-2.3696,-2.3656,-2.3565,-2.3515,-2.344,-2.3445,-2.3441,-2.3555,-2.3536,-2.3406,-2.3399,-2.3389,-2.3411,-2.3455,-2.3249,-2.3336,-2.3473,-2.3455,-2.3477,-2.3363,-2.3398,-2.3428,-2.353,-2.3466,-2.3411,-2.3551,-2.3493,-2.355,-2.3582,-2.3546,-2.353,-2.3519,-2.3548,-2.362,-2.3531,-2.3584,-2.3657,-2.3751,-2.3733,-2.3662,-2.3632,-2.3654,-2.3699,-2.3746,-2.3731,-2.3712,-2.3601,-2.3738,-2.3796,-2.3818,-2.3779,-2.3676,-2.3694,-2.3715,-2.373,-2.3801,-2.3721,-2.3751,-2.3869,-2.382,-2.3768,-2.3839,-2.3839,-2.386,-2.3861,-2.3813,-2.3735,-2.3828,-2.3818,-2.3914,-2.3828,-2.3768,-2.3766,-2.3919,-2.3884,-2.3721,-2.3659,-2.3752,-2.3827,-2.3731,-2.3703,-2.3543,-2.3562,-2.3473,-2.3408,-2.3393,-2.3238,-2.2957,-2.295,-2.3132,-2.3071,-2.2966,-2.3006,-2.3101,-2.3184,-2.3224,-2.3345,-2.3428,-2.3722,-2.3915,-2.3799,-2.3797,-2.3841,-2.3914,-2.3953,-2.3944,-2.3863,-2.3809,-2.3881,-2.4046,-2.3957,-2.3925,-2.3921,-2.382,-2.3196,-2.1607,-1.994,-1.8467,-1.6764,-1.4981,-1.4953,-1.8437,-2.3933,-2.8497,-2.8466,-2.706,-2.6013,-2.4849,-2.3544,-2.3084,-2.3076,-2.2906,-2.3013,-2.2838,-2.2889,-2.2873,-2.2804,-2.2571,-2.2797,-2.2543,-2.2779,-2.2588,-2.2482,-2.2472,-2.2517,-2.2406,-2.2385,-2.222,-2.2232,-2.2207,-2.2249,-2.2226,-2.2062,-2.1998,-2.2002,-2.1992,-2.1791,-2.1615,-2.1603,-2.1524,-2.1502,-2.1347,-2.1248,-2.0994,-2.0962,-2.0989,-2.0845,-2.0674,-2.0501,-2.0356,-2.0243,-2.0157,-1.9855,-1.9708,-1.9584,-1.9496,-1.9363,-1.9227,-1.9081,-1.8916,-1.8887,-1.8859,-1.8819,-1.8637,-1.8578,-1.8573,-1.868,-1.8652,-1.8736,-1.8974,-1.9228,-1.9639,-2.0179,-2.0604,-2.1,-2.1481,-2.1805,-2.2117,-2.2332,-2.2683,-2.2932,-2.3115,-2.3177,-2.3228,-2.3284,-2.3327,-2.335,-2.344,-2.3377,-2.3265,-2.3286,-2.3376,-2.3378,-2.3338,-2.3212,-2.3259,-2.3247,-2.3236,-2.3252,-2.3222,-2.3195,-2.3237,-2.3103,-2.3168,-2.3142,-2.3162,-2.3195,-2.3306,-2.3249,-2.3158,-2.3256,-2.3386,-2.3288,-2.3263,-2.3235,-2.3274,-2.3325,-2.338,-2.3327,-2.3364,-2.3373,-2.3417,-2.3397,-2.3449,-2.3324,-2.3372,-2.3481,-2.3449,-2.3538,-2.3547,-2.3468,-2.3453,-2.3524,-2.3607,-2.3522,-2.3557,-2.356,-2.3595,-2.3705,-2.3432,-2.3542,-2.3732,-2.3588,-2.3599,-2.3613,-2.3554,-2.3651,-2.3601,-2.3649,-2.3612,-2.3523,-2.3495,-2.3655,-2.3745,-2.3605,-2.3601,-2.3611,-2.3614,-2.367,-2.3615,-2.3589,-2.359,-2.3692,-2.3754,-2.3684,-2.355,-2.3614,-2.3714,-2.37,-2.3715,-2.3617,-2.3567,-2.3544,-2.3684,-2.371,-2.3579,-2.337,-2.3395,-2.3398,-2.3323,-2.3182,-2.3144,-2.2907,-2.2739,-2.2762,-2.2785,-2.2766,-2.2797,-2.2898,-2.2913,-2.2876,-2.2918,-2.3065,-2.3208,-2.3583,-2.3698,-2.363,-2.3596,-2.3685,-2.3733,-2.3676,-2.3596,-2.361,-2.3651,-2.3777,-2.3735,-2.3689,-2.3641,-2.3665,-2.3643,-2.2765,-2.122,-1.9643,-1.8195,-1.6444,-1.4376,-1.4424,-1.8267,-2.3793,-2.7958,-2.7404,-2.5707,-2.4927,-2.4207,-2.3232,-2.2705,-2.2435,-2.2326,-2.2434,-2.2394,-2.2521,-2.2332,-2.236,-2.2133,-2.2231,-2.2219,-2.2189,-2.1998,-2.2063,-2.1953,-2.1986,-2.1806,-2.1734,-2.1677,-2.165,-2.1544,-2.1543,-2.1406,-2.1375,-2.1201,-2.1136,-2.099,-2.0967,-2.0779,-2.0777,-2.0676,-2.0618,-2.0446,-2.0319,-2.0233,-2.0268,-2.0103,-1.9939,-1.9839,-1.9729,-1.9672,-1.9549,-1.9323,-1.921,-1.9046,-1.9056,-1.8886,-1.8684,-1.8597,-1.8437,-1.8387,-1.8326,-1.8265,-1.8115,-1.8117,-1.807,-1.814,-1.8065,-1.8052,-1.8216,-1.8488,-1.8839,-1.9299,-1.9645,-2.0028,-2.0518,-2.1065,-2.1351,-2.1648,-2.1939,-2.2275,-2.2456,-2.2653,-2.2729,-2.2806,-2.2882,-2.2989,-2.2987,-2.303,-2.2926,-2.2893,-2.2917,-2.2995,-2.2949,-2.2898,-2.2856,-2.2919,-2.2862,-2.2831,-2.2783,-2.2799,-2.2931,-2.2903,-2.2749,-2.2744,-2.2857,-2.2899,-2.2936,-2.2959,-2.2885,-2.286,-2.29,-2.2965,-2.2946,-2.2935,-2.2819,-2.2894,-2.3097,-2.3111,-2.2959,-2.3064,-2.3258,-2.3195,-2.3122,-2.3163,-2.3133,-2.3267,-2.3293,-2.3242,-2.3207,-2.3048,-2.2958,-2.3056,-2.3031,-2.3037,-2.2968,-2.301,-2.3017,-2.3036,-2.3058,-2.2927,-2.2885,-2.2983,-2.2974,-2.2824,-2.2751,-2.277,-2.2777,-2.2873,-2.2844,-2.2789,-2.2717,-2.2826,-2.287,-2.2925,-2.2884,-2.2945,-2.2883,-2.2844,-2.3065,-2.2942,-2.2969,-2.3034,-2.3082,-2.3168,-2.3101,-2.3015,-2.3036,-2.3155,-2.323,-2.307,-2.3076,-2.3188,-2.3307,-2.3283,-2.3211,-2.3208,-2.321,-2.3326,-2.3277,-2.3209,-2.3226,-2.3122,-2.3089,-2.3161,-2.3,-2.2773,-2.2811,-2.2704,-2.2751,-2.2624,-2.2502,-2.2589,-2.2612,-2.2762,-2.2791,-2.2819,-2.3008,-2.3106,-2.3375,-2.3359,-2.3476,-2.3463,-2.3603,-2.3702,-2.3596,-2.3609,-2.3565,-2.3548,-2.3547,-2.3688,-2.3663,-2.3613,-2.3571,-2.3538,-2.3078,-2.1569,-1.9938,-1.8536,-1.676,-1.4977,-1.4395,-1.79,-2.3348,-2.8295,-2.7919,-2.5983,-2.5637,-2.4573,-2.3529,-2.292,-2.2685,-2.2466,-2.2598,-2.2543,-2.2613,-2.2529,-2.2448,-2.2253,-2.2569,-2.2415,-2.2346,-2.2244,-2.2177,-2.2174,-2.2331,-2.2166,-2.2056,-2.1931,-2.2026,-2.1977,-2.1972,-2.1773,-2.1709,-2.1653,-2.1681,-2.1577,-2.138,-2.1305,-2.1219,-2.1233,-2.107,-2.0999,-2.0872,-2.0719,-2.0663,-2.0495,-2.0388,-2.0229,-2.0184,-2.0139,-2.0001,-1.9717,-1.9519,-1.9316,-1.9369,-1.9292,-1.9083,-1.898,-1.8917,-1.8815,-1.8658,-1.8546,-1.8456,-1.8386,-1.8396,-1.8438,-1.8434,-1.8461,-1.8416,-1.872,-1.9091,-1.9478,-1.9762,-2.0202,-2.07,-2.1079,-2.1487,-2.1657,-2.2077,-2.2317,-2.2532,-2.28,-2.2912,-2.3067,-2.3067,-2.3142,-2.3057,-2.3107,-2.3126,-2.3112,-2.3122,-2.3186,-2.3182,-2.3,-2.2987,-2.2954,-2.311,-2.3122,-2.2966,-2.2987,-2.3007,-2.3186,-2.2951,-2.2932,-2.2944,-2.2939,-2.2998,-2.2994,-2.299,-2.2977,-2.3007,-2.3092,-2.2947,-2.2969,-2.2977,-2.3121,-2.3063,-2.2976,-2.3023,-2.3091,-2.3109,-2.3247,-2.3161,-2.3098,-2.3118,-2.3129,-2.3209,-2.3199,-2.3221,-2.3125,-2.3133,-2.3248,-2.3261,-2.3232,-2.3087,-2.3164,-2.3204,-2.325,-2.3191,-2.3035,-2.3053,-2.3222,-2.3199,-2.3284,-2.321,-2.322,-2.3266,-2.3349,-2.3269,-2.3199,-2.3361,-2.3242,-2.3272,-2.3254,-2.3282,-2.3339,-2.3227,-2.3342,-2.3353,-2.3389,-2.3278,-2.3386,-2.3334,-2.3328,-2.3373,-2.3316,-2.3364,-2.3416,-2.3451,-2.3282,-2.3403,-2.3315,-2.3383,-2.3313,-2.3443,-2.3334,-2.3254,-2.323,-2.3071,-2.3,-2.2812,-2.2704,-2.2754,-2.2742,-2.2761,-2.2722,-2.2771,-2.2818,-2.2906,-2.301,-2.3023,-2.3253,-2.3555,-2.3672,-2.3646,-2.3626,-2.3574,-2.3622,-2.3791,-2.3785,-2.3745,-2.3711,-2.377,-2.3804,-2.3787,-2.3741,-2.3739,-2.3501,-2.2629,-2.1151,-1.9645,-1.8194,-1.6497,-1.5589,-1.7,-2.0724,-2.6695,-2.9175,-2.7567,-2.6284,-2.5191,-2.421,-2.3227,-2.2875,-2.2984,-2.2887,-2.2772,-2.2779,-2.283,-2.2795,-2.2623,-2.2749,-2.2819,-2.2649,-2.27,-2.2563,-2.2479,-2.2636,-2.2422,-2.2394,-2.2294,-2.2175,-2.2129,-2.2227,-2.2185,-2.2172,-2.1878,-2.1855,-2.1801,-2.18,-2.1849,-2.1628,-2.1554,-2.1523,-2.1527,-2.1342,-2.1138,-2.1057,-2.097,-2.0914,-2.0812,-2.0679,-2.0424,-2.033,-2.0321,-2.0181,-1.9959,-1.9794,-1.9772,-1.9679,-1.9609,-1.9404,-1.9355,-1.9245,-1.9172,-1.916,-1.8969,-1.8871,-1.8916,-1.8925,-1.9068,-1.9172,-1.919,-1.951,-1.9847,-2.0304,-2.0808,-2.0994,-2.1506,-2.1921,-2.2447,-2.271,-2.2924,-2.3025,-2.3236,-2.3408,-2.355,-2.3593,-2.3627,-2.355,-2.3641,-2.3606,-2.3523,-2.3572,-2.3634,-2.3742,-2.3791,-2.359,-2.35,-2.3571,-2.3606,-2.3684,-2.3524,-2.3542,-2.3503,-2.3561,-2.3553,-2.3554,-2.3443,-2.353,-2.3524,-2.3559,-2.3479,-2.3482,-2.359,-2.3558,-2.3665,-2.3663,-2.3573,-2.3627,-2.3744,-2.3748,-2.3744,-2.3613,-2.3712,-2.3639,-2.3848,-2.3885,-2.3795,-2.3779,-2.3904,-2.3913,-2.3899,-2.3873,-2.3819,-2.391,-2.3982,-2.3878,-2.3937,-2.3951,-2.3796,-2.3987,-2.3936,-2.3982,-2.3867,-2.3797,-2.3954,-2.3961,-2.3978,-2.3891,-2.3821,-2.4091,-2.402,-2.3929,-2.3808,-2.3841,-2.3895,-2.3899,-2.3887,-2.3896,-2.3828,-2.3959,-2.3967,-2.4043,-2.3852,-2.3962,-2.3873,-2.3902,-2.3957,-2.3869,-2.3814,-2.3723,-2.3702,-2.3671,-2.3577,-2.3433,-2.3238,-2.3261,-2.33,-2.3262,-2.3185,-2.3199,-2.3423,-2.3479,-2.3444,-2.3363,-2.3638,-2.391,-2.4112,-2.4166,-2.4071,-2.4091,-2.4139,-2.4177,-2.4257,-2.4094,-2.4159,-2.4311,-2.4276,-2.4129,-2.4164,-2.4219,-2.4139,-2.3445,-2.2068,-2.056,-1.9324,-1.7632,-1.6003,-1.6057,-1.9121,-2.4185,-2.9158,-2.8581,-2.7594,-2.6624,-2.5336,-2.4448,-2.3517,-2.3556,-2.3246,-2.3422,-2.3282,-2.3329,-2.3265,-2.3257,-2.3084,-2.3228,-2.2975,-2.2999,-2.3026,-2.3019,-2.2756,-2.2959,-2.2886,-2.2768,-2.2587,-2.2633,-2.246,-2.2504,-2.2443,-2.2394,-2.218,-2.2232,-2.2189,-2.2112,-2.1946,-2.1883,-2.1821,-2.1812,-2.1581,-2.1417,-2.1191,-2.1116,-2.1293,-2.1179,-2.0806,-2.0686,-2.0515,-2.0505,-2.0341,-2.0085,-1.9861,-1.973,-1.9559,-1.9429,-1.9402,-1.9134,-1.9186,-1.9206,-1.9132,-1.8855,-1.8771,-1.8846,-1.8861,-1.8928,-1.8907,-1.8899,-1.9386,-1.9809,-2.0305,-2.0696,-2.1051,-2.1516,-2.1945,-2.2263,-2.2577,-2.2824,-2.3083,-2.324,-2.3588,-2.3532,-2.3586,-2.3563,-2.3679,-2.3728,-2.3756,-2.3659,-2.3644,-2.3673,-2.367,-2.3598,-2.3703,-2.355,-2.3522,-2.3451,-2.3576,-2.3423,-2.349,-2.351,-2.3432,-2.3471,-2.3401,-2.3391,-2.3465,-2.3471,-2.3422,-2.3381,-2.3406,-2.3462,-2.3411,-2.3441,-2.3494,-2.3496,-2.3532,-2.3526,-2.3741,-2.3615,-2.3549,-2.3565,-2.3612,-2.3693,-2.3746,-2.369,-2.3607,-2.3681,-2.3832,-2.3896,-2.36,-2.3593,-2.3829,-2.3763,-2.3812,-2.3758,-2.3755,-2.3783,-2.3791,-2.3851,-2.3677,-2.3547,-2.3893,-2.3959,-2.3904,-2.3791,-2.3715,-2.3837,-2.3846,-2.3864,-2.3756,-2.3784,-2.3736,-2.3814,-2.3903,-2.385,-2.3737,-2.378,-2.3933,-2.3952,-2.3862,-2.3793,-2.3688,-2.3817,-2.3755,-2.3746,-2.3774,-2.3823,-2.3838,-2.3852,-2.378,-2.3744,-2.3715,-2.3826,-2.3884,-2.3923,-2.3847,-2.3758,-2.3731,-2.3928,-2.3865,-2.3729,-2.3771,-2.3683,-2.3725,-2.3712,-2.3664,-2.3435,-2.3346,-2.3373,-2.3138,-2.3055,-2.2995,-2.3049,-2.3065,-2.3074,-2.3184,-2.3181,-2.3284,-2.3431,-2.3465,-2.3707,-2.381,-2.3771,-2.397,-2.4017,-2.3975,-2.3874,-2.397,-2.3984,-2.4073,-2.4024,-2.3928,-2.3971,-2.4057,-2.4148,-2.3854,-2.291,-2.1453,-1.9848,-1.8482,-1.6719,-1.4977,-1.5604,-1.9275,-2.217,-2.7554,-2.872,-2.6854,-2.6131,-2.4895,-2.3917,-2.3108,-2.3081,-2.2873,-2.3075,-2.2866,-2.3054,-2.2839,-2.3067,-2.2894,-2.3007,-2.271,-2.2754,-2.2682,-2.2791,-2.2638,-2.2688,-2.2417,-2.25,-2.2409,-2.2487,-2.2382,-2.2248,-2.2136,-2.2218,-2.2022,-2.2024,-2.1802,-2.1775,-2.1758,-2.1778,-2.1558,-2.1417,-2.1363,-2.1334,-2.1187,-2.1157,-2.0988,-2.0793,-2.0728,-2.0561,-2.0418,-2.0085,-2.0048,-2.0005,-1.9827,-1.9713,-1.9359,-1.93,-1.9274,-1.9126,-1.9077,-1.8911,-1.8825,-1.8783,-1.8758,-1.8771,-1.8723,-1.8578,-1.8636,-1.8847,-1.9136,-1.9471,-1.9866,-2.0154,-2.0658,-2.1114,-2.1499,-2.1855,-2.2124,-2.2512,-2.2707,-2.2853,-2.2992,-2.2981,-2.3151,-2.3391,-2.3522,-2.3413,-2.3399,-2.3302,-2.3401,-2.3388,-2.3397,-2.3263,-2.3295,-2.3235,-2.3356,-2.3157,-2.3168,-2.318,-2.3173,-2.3068,-2.3195,-2.3129,-2.3037,-2.3082,-2.3209,-2.3025,-2.3073,-2.3057,-2.3179,-2.3178,-2.3153,-2.2991,-2.3105,-2.3131,-2.3205,-2.3152,-2.3232,-2.3137,-2.3274,-2.3231,-2.3306,-2.3385,-2.3305,-2.3298,-2.3344,-2.3381,-2.3362,-2.3353,-2.3397,-2.3464,-2.3513,-2.339,-2.3367,-2.3364,-2.3458,-2.3523,-2.3455,-2.3338,-2.3382,-2.3534,-2.349,-2.3373,-2.3457,-2.3497,-2.3499,-2.3466,-2.3441,-2.3422,-2.3406,-2.3462,-2.353,-2.3488,-2.3364,-2.3411,-2.3533,-2.3461,-2.3532,-2.3412,-2.3323,-2.3399,-2.3491,-2.3511,-2.3461,-2.3456,-2.3533,-2.3517,-2.3554,-2.3509,-2.3321,-2.3409,-2.3471,-2.3505,-2.3416,-2.3394,-2.3447,-2.3526,-2.3433,-2.3439,-2.339,-2.3514,-2.3514,-2.355,-2.3403,-2.3354,-2.3331,-2.3523,-2.3437,-2.3444,-2.3233,-2.3227,-2.3231,-2.3186,-2.301,-2.2901,-2.27,-2.2656,-2.2671,-2.2617,-2.2618,-2.2629,-2.2702,-2.2732,-2.2775,-2.2845,-2.2793,-2.2971,-2.3314,-2.3363,-2.3471,-2.3492,-2.3529,-2.3527,-2.3534,-2.3469,-2.3393,-2.3442,-2.3518,-2.3565,-2.3442,-2.3478,-2.3495,-2.3308,-2.241,-2.0824,-1.9123,-1.7723,-1.5849,-1.4041,-1.4882,-1.8998,-2.4592,-2.8091,-2.7071,-2.5668,-2.4748,-2.3344,-2.277,-2.2597,-2.248,-2.2397,-2.237,-2.241,-2.2422,-2.2411,-2.2275,-2.2181,-2.2278,-2.2227,-2.2168,-2.2041,-2.1972,-2.2013,-2.1974,-2.1937,-2.1825,-2.1771,-2.1787,-2.1823,-2.1717,-2.1683,-2.1581,-2.1491,-2.1537,-2.1436,-2.1177,-2.1077,-2.1065,-2.1072,-2.095,-2.0733,-2.0639,-2.0451,-2.0351,-2.0335,-2.0137,-1.9913,-1.9827,-1.9723,-1.9586,-1.9515,-1.9368,-1.9178,-1.9122,-1.8918,-1.8771,-1.8608,-1.8545,-1.842,-1.8405,-1.8289,-1.8185,-1.8079,-1.8087,-1.8202,-1.8092,-1.8059,-1.8375,-1.8802,-1.9062,-1.93,-1.973,-2.0151,-2.0494,-2.0987,-2.1307,-2.1623,-2.1911,-2.2111,-2.2339,-2.2522,-2.2667,-2.2782,-2.2842,-2.2966,-2.2885,-2.2857,-2.2907,-2.2882,-2.2946,-2.2964,-2.2869,-2.2775,-2.2715,-2.289,-2.2826,-2.2705,-2.2658,-2.2764,-2.2799,-2.2784,-2.2754,-2.2519,-2.2476,-2.2706,-2.271,-2.2597,-2.2618,-2.2642,-2.2776,-2.2751,-2.2722,-2.2655,-2.2592,-2.2748,-2.2851,-2.2739,-2.2756,-2.276,-2.2769,-2.2935,-2.2882,-2.2828,-2.2774,-2.2833,-2.2978,-2.2937,-2.2885,-2.2878,-2.2929,-2.2949,-2.3,-2.2955,-2.2897,-2.2887,-2.297,-2.2999,-2.3023,-2.2972,-2.2913,-2.2895,-2.2937,-2.2984,-2.304,-2.3009,-2.3043,-2.3066,-2.3017,-2.292,-2.2928,-2.2949,-2.3168,-2.3124,-2.2961,-2.2965,-2.2978,-2.2948,-2.3013,-2.2986,-2.2869,-2.3016,-2.3051,-2.2997,-2.2876,-2.2921,-2.2939,-2.3047,-2.3027,-2.2928,-2.2955,-2.2895,-2.3018,-2.3051,-2.302,-2.2939,-2.2918,-2.3003,-2.3028,-2.3027,-2.2929,-2.2872,-2.2925,-2.3015,-2.2982,-2.2901,-2.2929,-2.3007,-2.3112,-2.292,-2.2884,-2.2896,-2.2849,-2.2848,-2.2845,-2.2716,-2.2679,-2.2622,-2.2625,-2.2537,-2.2318,-2.2078,-2.222,-2.2316,-2.213,-2.2032,-2.2033,-2.2196,-2.2346,-2.2451,-2.2469,-2.2487,-2.2732,-2.2999,-2.301,-2.2884,-2.2928,-2.3031,-2.3087,-2.3214,-2.3021,-2.3006,-2.3123,-2.309,-2.3141,-2.3108,-2.3023,-2.2655,-2.1527,-2.0077,-1.8527,-1.7658,-1.5793,-1.3723,-1.3815,-1.7689,-2.3274,-2.7344,-2.683,-2.5326,-2.4649,-2.3051,-2.2397,-2.2088,-2.2142,-2.2041,-2.1981,-2.1895,-2.2029,-2.201,-2.2095,-2.1836,-2.182,-2.1829,-2.1925,-2.1841,-2.1659,-2.1602,-2.1717,-2.1629,-2.1731,-2.1415,-2.1355,-2.1305,-2.1418,-2.1286,-2.1214,-2.1115,-2.1031,-2.1011,-2.0996,-2.0825,-2.068,-2.0505,-2.0376,-2.0252,-2.0313,-2.0164,-2.0175,-2.0183,-2.0026,-1.9818,-1.96,-1.9458,-1.9323,-1.9316,-1.9122,-1.8952,-1.869,-1.8594,-1.8546,-1.8357,-1.8248,-1.8229,-1.8168,-1.816,-1.7958,-1.7878,-1.7778,-1.7801,-1.7911,-1.8037,-1.8079,-1.8337,-1.8592,-1.908,-1.9462,-1.9997,-2.0366,-2.0837,-2.1,-2.1369,-2.1723,-2.1918,-2.2062,-2.2356,-2.2489,-2.2633,-2.258,-2.2825,-2.2745,-2.2817,-2.2765,-2.2709,-2.2715,-2.2744,-2.2718,-2.2737,-2.2627,-2.2597,-2.2533,-2.2646,-2.2663,-2.2562,-2.2533,-2.2645,-2.2652,-2.2583,-2.2528,-2.2547,-2.271,-2.2607,-2.258,-2.2583,-2.256,-2.2701,-2.2651,-2.2639,-2.2558,-2.2582,-2.256,-2.277,-2.2869,-2.2647,-2.2667,-2.2703,-2.2693,-2.2925,-2.2696,-2.2695,-2.2698,-2.2849,-2.2806,-2.2701,-2.2774,-2.2642,-2.2689,-2.3128,-2.2782,-2.2879,-2.2812,-2.2921,-2.2701,-2.2367,-2.2924,-2.2834,-2.2597,-2.2745,-2.2926,-2.2599,-2.2628,-2.269,-2.2796,-2.2819,-2.2861,-2.312,-2.3039,-2.2868,-2.3101,-2.275,-2.2903,-2.3142,-2.2891,-2.2589,-2.3248,-2.3506,-2.3123,-2.3291,-2.3428,-2.31,-2.33,-2.3196,-2.3028,-2.3038,-2.3301,-2.3109,-2.3005,-2.3543,-2.3558,-2.3206,-2.3194,-2.3206,-2.3327,-2.3093,-2.3337,-2.3496,-2.3448,-2.3445,-2.3625,-2.3322,-2.3398,-2.3576,-2.3739,-2.3708,-2.3664,-2.3455,-2.3295,-2.3259,-2.349,-2.3399,-2.3269,-2.3057,-2.2868,-2.2905,-2.2914,-2.287,-2.2707,-2.298,-2.3037,-2.2947,-2.3085,-2.3069,-2.3139,-2.3564,-2.3783,-2.3762,-2.3691,-2.3864,-2.3813,-2.3826,-2.3764,-2.3673,-2.3798,-2.3785,-2.3829,-2.3864,-2.3887,-2.3932,-2.3664,-2.2591,-2.1199,-1.9689,-1.8134,-1.6637,-1.5498,-1.6864,-2.0458,-2.6507,-2.9369,-2.8647,-2.6759,-2.572,-2.4855,-2.3618,-2.3225,-2.3059,-2.2937,-2.2897,-2.2932,-2.2943,-2.296,-2.2884,-2.2786,-2.2528,-2.2562,-2.2722,-2.2554,-2.2462,-2.2513,-2.2302,-2.2439,-2.2254,-2.2262,-2.2226,-2.2056,-2.1991,-2.1962,-2.191,-2.1748,-2.1701,-2.1687,-2.1626,-2.1427,-2.124,-2.1333,-2.142,-2.13,-2.1017,-2.0811,-2.0849,-2.0777,-2.0551,-2.0467,-2.0325,-2.0112,-2.0085,-1.9858,-1.9564,-1.9553,-1.9224,-1.9128,-1.9053,-1.8892,-1.8971,-1.8876,-1.8699,-1.8735,-1.8477,-1.8323,-1.8356,-1.851,-1.8584,-1.8538,-1.8692,-1.89,-1.8939,-1.9136,-1.9776,-2.0584,-2.0909,-2.1348,-2.1875,-2.2172,-2.2073,-2.2226,-2.2546,-2.2885,-2.3083,-2.3095,-2.286,-2.2978,-2.3076,-2.3131,-2.3058,-2.3022,-2.2957,-2.3069,-2.3059,-2.2932,-2.3014,-2.2883,-2.288,-2.3004,-2.2947,-2.285,-2.2837,-2.2783,-2.2832,-2.2735,-2.2819,-2.2781,-2.2918,-2.2906,-2.2858,-2.265,-2.2745,-2.2951,-2.3191,-2.2987,-2.2841,-2.2811,-2.286,-2.3012,-2.3075,-2.2938,-2.3043,-2.2907,-2.2959,-2.3046,-2.309,-2.3092,-2.317,-2.305,-2.3065,-2.301,-2.3079,-2.3061,-2.3284,-2.3192,-2.3056,-2.3084,-2.312,-2.3111,-2.3336,-2.3251,-2.3196,-2.3161,-2.3114,-2.3273,-2.3162,-2.3018,-2.2962,-2.3337,-2.328,-2.3239,-2.3204,-2.3136,-2.3294,-2.3308,-2.3129,-2.3049,-2.3192,-2.3245,-2.3172,-2.3262,-2.3162,-2.3141,-2.3277,-2.3232,-2.3243,-2.3204,-2.2968,-2.3148,-2.3239,-2.3081,-2.2919,-2.2784,-2.2805,-2.2965,-2.2888,-2.2515,-2.2386,-2.2375,-2.2444,-2.247,-2.2378,-2.2319,-2.2454,-2.2422,-2.2549,-2.2584,-2.2865,-2.2961,-2.3083,-2.3212,-2.3189,-2.3261,-2.3242,-2.3215,-2.3313,-2.3272,-2.309,-2.3295,-2.3121,-2.3307,-2.3093,-2.2796,-2.2073,-2.1516,-2.0118,-1.8476,-1.7004,-1.5417,-1.498,-1.774,-2.2131,-2.775,-2.7676,-2.5879,-2.5199,-2.4052,-2.3133,-2.2291,-2.2348,-2.2178,-2.2352,-2.2055,-2.2127,-2.1926,-2.209,-2.2075,-2.2063,-2.1879,-2.1763,-2.1721,-2.1738,-2.1737,-2.1809,-2.1573,-2.17,-2.1556,-2.144,-2.1263,-2.1275,-2.114,-2.1302,-2.1231,-2.0941,-2.0966,-2.109,-2.092,-2.0828,-2.0572,-2.0436,-2.0421,-2.0437,-2.0377,-2.0219,-1.9959,-1.9859,-1.9734,-1.959,-1.9344,-1.9075,-1.9132,-1.9062,-1.882,-1.838,-1.8347,-1.8424,-1.8254,-1.809,-1.7925,-1.7773,-1.7719,-1.7696,-1.7738,-1.7548,-1.7493,-1.7642,-1.7898,-1.8202,-1.8501,-1.8789,-1.9223,-1.9797,-2.0201,-2.053,-2.0677,-2.109,-2.1663,-2.187,-2.206,-2.2107,-2.2212,-2.2521,-2.2713,-2.2625,-2.2627,-2.2752,-2.2914,-2.2898,-2.2928,-2.2912,-2.275,-2.2876,-2.301,-2.2607,-2.2537,-2.2572,-2.2737,-2.2815,-2.2814,-2.2498,-2.2491,-2.2448,-2.256,-2.2527,-2.2452,-2.2285,-2.2297,-2.2486,-2.2441,-2.2353,-2.2354,-2.2431,-2.2489,-2.2525,-2.2415,-2.2375,-2.2348,-2.2533,-2.2554,-2.2464,-2.2585,-2.2603,-2.2586,-2.2749,-2.2637,-2.2538,-2.2594,-2.2715,-2.2804,-2.2716,-2.276,-2.276,-2.2841,-2.2727,-2.2675,-2.2811,-2.284,-2.2728,-2.2799,-2.2869,-2.2927,-2.2855,-2.2776,-2.2886,-2.2938,-2.2847,-2.2804,-2.2763,-2.281,-2.2861,-2.2935,-2.2994,-2.2903,-2.2919,-2.2923,-2.2999,-2.2924,-2.2974,-2.294,-2.3024,-2.2927,-2.301,-2.2915,-2.297,-2.2938,-2.2826,-2.2504,-2.2461,-2.2658,-2.2592,-2.2584,-2.2443,-2.2095,-2.2026,-2.1965,-2.2048,-2.2175,-2.214,-2.2182,-2.2379,-2.2482,-2.2535,-2.2644,-2.2875,-2.3029,-2.3131,-2.3152,-2.3133,-2.3234,-2.3362,-2.3284,-2.3323,-2.3195,-2.3195,-2.3311,-2.3239,-2.3266,-2.3321,-2.3183,-2.2863,-2.1798,-2.0187,-1.8607,-1.7037,-1.5404,-1.4361,-1.6115,-2.0131,-2.5894,-2.812,-2.6571,-2.5435,-2.4464,-2.3978,-2.2908,-2.2434,-2.2526,-2.2326,-2.219,-2.2161,-2.2127,-2.2327,-2.222,-2.2122,-2.2054,-2.2021,-2.1991,-2.1963,-2.1872,-2.1884,-2.1856,-2.174,-2.1679,-2.16,-2.167,-2.1646,-2.1655,-2.1442,-2.1313,-2.1325,-2.1239,-2.1235,-2.1097,-2.0902,-2.093,-2.0788,-2.083,-2.0496,-2.0431,-2.0389,-2.0173,-2.0005,-1.9946,-1.9883,-1.962,-1.9549,-1.946,-1.9297,-1.895,-1.8806,-1.8777,-1.8574,-1.8362,-1.8121,-1.8002,-1.8043,-1.8022,-1.7842,-1.7725,-1.7663,-1.7679,-1.7809,-1.7873,-1.7903,-1.8223,-1.8518,-1.897,-1.9517,-1.9907,-2.024,-2.0666,-2.1131,-2.1453,-2.1705,-2.1962,-2.2262,-2.2499,-2.2576,-2.2721,-2.2728,-2.2756,-2.2852,-2.2834,-2.278,-2.2755,-2.2854,-2.2828,-2.2886,-2.2839,-2.2791,-2.2791,-2.2768,-2.2722,-2.2616,-2.2581,-2.253,-2.263,-2.2626,-2.2592,-2.2451,-2.2471,-2.2549,-2.2585,-2.2624,-2.2498,-2.241,-2.2509,-2.2513,-2.2611,-2.2519,-2.2503,-2.2578,-2.2627,-2.2737,-2.2636,-2.2688,-2.2663,-2.2815,-2.2802,-2.2745,-2.2813,-2.2825,-2.2872,-2.2933,-2.2891,-2.2797,-2.295,-2.2965,-2.3068,-2.2987,-2.289,-2.2938,-2.2965,-2.2926,-2.3061,-2.2996,-2.2957,-2.2998,-2.2968,-2.3113,-2.2955,-2.2974,-2.2918,-2.2914,-2.3061,-2.2952,-2.282,-2.2954,-2.3038,-2.3141,-2.3,-2.3036,-2.3004,-2.2986,-2.2912,-2.288,-2.3018,-2.303,-2.3148,-2.3056,-2.2902,-2.2921,-2.3065,-2.3061,-2.3085,-2.2963,-2.3006,-2.2959,-2.2985,-2.3065,-2.2984,-2.2913,-2.2946,-2.2974,-2.2872,-2.2699,-2.2454,-2.2375,-2.2368,-2.2418,-2.2502,-2.2316,-2.2174,-2.1964,-2.1842,-2.2072,-2.2016,-2.1942,-2.2122,-2.2289,-2.2423,-2.236,-2.2428,-2.2746,-2.2909,-2.2983,-2.2895,-2.2942,-2.2945,-2.3064,-2.3171,-2.2996,-2.296,-2.3044,-2.3081,-2.3108,-2.3125,-2.3075,-2.2753,-2.2094,-2.067,-1.9073,-1.75,-1.5527,-1.3621,-1.3734,-1.7353,-2.2792,-2.7488,-2.7106,-2.5521,-2.4674,-2.4036,-2.2749,-2.2206,-2.2149,-2.1995,-2.2026,-2.1883,-2.2028,-2.1885,-2.2005,-2.179,-2.1808,-2.156,-2.1656,-2.1655,-2.1661,-2.1505,-2.158,-2.1442,-2.1544,-2.1403,-2.1398,-2.1254,-2.1288,-2.1243,-2.1227,-2.094,-2.0985,-2.0957,-2.0942,-2.0693,-2.0653,-2.0502,-2.0435,-2.0442,-2.0195,-2.0051,-1.9877,-1.977,-1.9708,-1.9659,-1.9476,-1.9268,-1.9045,-1.8952,-1.885,-1.8569,-1.843,-1.8332,-1.8253,-1.8014,-1.7776,-1.7714,-1.7676,-1.7651,-1.7574,-1.7475,-1.7376,-1.7352,-1.7509,-1.7566,-1.762,-1.7889,-1.823,-1.8608,-1.9149,-1.9657,-2.0064,-2.0454,-2.0888,-2.1289,-2.147,-2.1631,-2.1883,-2.2205,-2.233,-2.2458,-2.2438,-2.2474,-2.2502,-2.2541,-2.2578,-2.2492,-2.252,-2.2571,-2.2607,-2.2593,-2.2403,-2.2412,-2.2313,-2.2429,-2.2342,-2.237,-2.231,-2.2386,-2.2384,-2.2406,-2.2277,-2.2235,-2.2258,-2.2359,-2.2306,-2.228,-2.2255,-2.2359,-2.2391,-2.2383,-2.236,-2.2376,-2.2259,-2.2367,-2.2358,-2.2445,-2.2383,-2.2494,-2.252,-2.2478,-2.2503,-2.2504,-2.2461,-2.2517,-2.2527,-2.2591,-2.2525,-2.2588,-2.2636,-2.2642,-2.2592,-2.2562,-2.2505,-2.2618,-2.2729,-2.2568,-2.2558,-2.2698,-2.2592,-2.2634,-2.2628,-2.2549,-2.2665,-2.2674,-2.2737,-2.2719,-2.265,-2.2636,-2.2638,-2.2652,-2.2733,-2.268,-2.2536,-2.2638,-2.2674,-2.2764,-2.2655,-2.2685,-2.2662,-2.268,-2.2835,-2.278,-2.2688,-2.2629,-2.2798,-2.2751,-2.2809,-2.2697,-2.2597,-2.2688,-2.2822,-2.2708,-2.2604,-2.2593,-2.2745,-2.2728,-2.2732,-2.2648,-2.2739,-2.2755,-2.2761,-2.2644,-2.2591,-2.2652,-2.2659,-2.2717,-2.285,-2.2764,-2.2834,-2.2776,-2.2687,-2.2775,-2.2777,-2.2699,-2.281,-2.2829,-2.2882,-2.2705,-2.2651,-2.2586,-2.2855,-2.2687,-2.2508,-2.2278,-2.2272,-2.2287,-2.2326,-2.2374,-2.2198,-2.1851,-2.1762,-2.1714,-2.1856,-2.184,-2.1834,-2.1825,-2.208,-2.2139,-2.2097,-2.2431,-2.2442,-2.2768,-2.2753,-2.2622,-2.2692,-2.2744,-2.2768,-2.285,-2.2935,-2.2875,-2.2775,-2.2907
