-6.5898,-6.5843,-6.5814,-6.5846,-6.5848,-6.5898,-6.5819,-6.5822,-6.5945,-6.5966,-6.5933,-6.601,-6.5981,-6.5947,-6.6008,-6.6101,-6.6136,-6.6136,-6.6014,-6.6044,-6.6097,-6.6088,-6.619,-6.6235,-6.6122,-6.6085,-6.6219,-6.6166,-6.6098,-6.6147,-6.6216,-6.6206,-6.6209,-6.6195,-6.6171,-6.6142,-6.6156,-6.6138,-6.6167,-6.6139,-6.6191,-6.6115,-6.6205,-6.6146,-6.6097,-6.6088,-6.6248,-6.625,-6.6161,-6.6195,-6.6205,-6.6258,-6.6247,-6.6251,-6.618,-6.6207,-6.617,-6.6195,-6.6255,-6.6202,-6.6266,-6.6328,-6.6298,-6.6276,-6.63,-6.6273,-6.6226,-6.6292,-6.6273,-6.6207,-6.6135,-6.5989,-6.5906,-6.6037,-6.5959,-6.5981,-6.6005,-6.599,-6.5954,-6.5996,-6.5994,-6.6036,-6.615,-6.6031,-6.605,-6.6019,-6.6098,-6.6067,-6.607,-6.6135,-6.6103,-6.617,-6.6125,-6.6228,-6.615,-6.6109,-6.6121,-6.6113,-6.5956,-6.5935,-6.5989,-6.5909,-6.5874,-6.5888,-6.5691,-6.5542,-6.5401,-6.5296,-6.541,-6.5471,-6.5443,-6.5683,-6.5816,-6.5757,-6.5838,-6.5919,-6.6271,-6.6481,-6.6554,-6.665,-6.667,-6.6644,-6.6609,-6.6567,-6.6656,-6.659,-6.6675,-6.6756,-6.6716,-6.6737,-6.6731,-6.6691,-6.6892,-6.7292,-6.7677,-6.7344,-6.5794,-6.3332,-6.1143,-5.8726,-5.8512,-6.2118,-6.3411,-6.4159,-6.6877,-6.7586,-6.7911,-6.8423,-6.81,-6.7312,-6.6901,-6.6525,-6.631,-6.6316,-6.6207,-6.6221,-6.6108,-6.6012,-6.6048,-6.6011,-6.5904,-6.5815,-6.5768,-6.5735,-6.5608,-6.5603,-6.5571,-6.5467,-6.5389,-6.539,-6.5314,-6.5226,-6.5087,-6.4976,-6.4915,-6.4811,-6.4718,-6.4527,-6.4441,-6.4289,-6.4023,-6.3905,-6.3854,-6.3621,-6.3425,-6.3306,-6.318,-6.2924,-6.2682,-6.2543,-6.2398,-6.215,-6.1959,-6.1742,-6.16,-6.1543,-6.1449,-6.1396,-6.1333,-6.1299,-6.1374,-6.1554,-6.1617,-6.1948,-6.2428,-6.2675,-6.302,-6.3397,-6.385,-6.4266,-6.4675,-6.4958,-6.5256,-6.554,-6.5814,-6.6004,-6.6138,-6.6216,-6.6405,-6.6546,-6.6607,-6.6658,-6.6676,-6.6785,-6.6742,-6.6885,-6.6894,-6.6872,-6.6805,-6.6918,-6.6943,-6.6877,-6.6847,-6.6879,-6.6875,-6.6927,-6.6811,-6.6836,-6.6834,-6.6889,-6.6852,-6.6692,-6.6807,-6.6835,-6.6804,-6.6821,-6.6837,-6.6801,-6.6607,-6.6646,-6.6757,-6.6715,-6.6769,-6.6693,-6.6672,-6.6728,-6.6714,-6.6703,-6.6707,-6.6677,-6.6653,-6.676,-6.6708,-6.6837,-6.6875,-6.6908,-6.684,-6.6949,-6.6908,-6.6874,-6.6932,-6.7085,-6.7046,-6.6996,-6.6958,-6.7028,-6.7158,-6.7083,-6.7128,-6.7116,-6.7147,-6.7164,-6.7222,-6.7214,-6.7123,-6.7069,-6.7245,-6.7176,-6.7337,-6.7338,-6.7267,-6.7268,-6.7306,-6.7261,-6.7304,-6.7352,-6.7313,-6.7209,-6.7319,-6.7346,-6.7419,-6.7433,-6.7439,-6.7499,-6.7363,-6.735,-6.7459,-6.7397,-6.7444,-6.7497,-6.7553,-6.7557,-6.7508,-6.7568,-6.7482,-6.7573,-6.7565,-6.7482,-6.7684,-6.7628,-6.7616,-6.7635,-6.7592,-6.7623,-6.7794,-6.7817,-6.7688,-6.7794,-6.7718,-6.7729,-6.7792,-6.7725,-6.7784,-6.7756,-6.7686,-6.7853,-6.7696,-6.7757,-6.775,-6.7768,-6.7766,-6.7746,-6.7714,-6.7823,-6.7765,-6.7756,-6.7795,-6.7705,-6.7874,-6.7863,-6.7781,-6.7714,-6.768,-6.7763,-6.7781,-6.7704,-6.7766,-6.7815,-6.7779,-6.7788,-6.7724,-6.7703,-6.768,-6.7614,-6.7563,-6.7411,-6.7366,-6.7446,-6.7253,-6.6976,-6.6901,-6.6741,-6.6822,-6.6972,-6.6946,-6.7083,-6.7231,-6.7212,-6.7157,-6.7325,-6.7826,-6.7886,-6.7939,-6.7956,-6.7955,-6.8039,-6.8034,-6.8025,-6.7928,-6.8005,-6.8036,-6.8002,-6.79,-6.7915,-6.7829,-6.8085,-6.8288,-6.8649,-6.8998,-6.8663,-6.7208,-6.4702,-6.2315,-5.9782,-6.0082,-6.2258,-6.4189,-6.5255,-6.6712,-6.8776,-6.8913,-6.95,-6.9293,-6.8518,-6.8116,-6.7675,-6.7617,-6.749,-6.7315,-6.7356,-6.7344,-6.7329,-6.7171,-6.704,-6.7108,-6.7049,-6.699,-6.693,-6.6881,-6.6789,-6.6657,-6.665,-6.6638,-6.6628,-6.6442,-6.637,-6.6284,-6.6088,-6.6077,-6.5917,-6.5882,-6.571,-6.5589,-6.5414,-6.5308,-6.5165,-6.5105,-6.471,-6.4707,-6.4504,-6.4213,-6.4049,-6.3918,-6.3733,-6.3404,-6.3092,-6.303,-6.2913,-6.2724,-6.2721,-6.2524,-6.2441,-6.2427,-6.242,-6.2507,-6.2564,-6.2681,-6.301,-6.3167,-6.3624,-6.3975,-6.4388,-6.4847,-6.514,-6.5544,-6.5976,-6.6269,-6.6503,-6.6527,-6.6555,-6.6726,-6.686,-6.6954,-6.7024,-6.7116,-6.7171,-6.7197,-6.7145,-6.7134,-6.7201,-6.7271,-6.727,-6.7199,-6.7361,-6.7334,-6.7232,-6.7208,-6.7286,-6.732,-6.7289,-6.724,-6.7189,-6.7241,-6.729,-6.734,-6.7288,-6.7269,-6.7281,-6.7252,-6.7202,-6.7127,-6.7047,-6.7024,-6.6931,-6.6904,-6.6889,-6.6998,-6.6929,-6.6879,-6.7045,-6.6966,-6.6891,-6.6941,-6.7012,-6.71,-6.7133,-6.7076,-6.7072,-6.7181,-6.7238,-6.7202,-6.7255,-6.7253,-6.7251,-6.7275,-6.7181,-6.7172,-6.7357,-6.7352,-6.7361,-6.7434,-6.7381,-6.7358,-6.7392,-6.7461,-6.7548,-6.7565,-6.748,-6.7482,-6.744,-6.7559,-6.743,-6.7524,-6.7454,-6.7502,-6.7454,-6.7419,-6.7363,-6.7439,-6.7542,-6.7471,-6.7458,-6.7458,-6.75,-6.7466,-6.7559,-6.7417,-6.7558,-6.7528,-6.7514,-6.7558,-6.7518,-6.7543,-6.7649,-6.7623,-6.7611,-6.7659,-6.7641,-6.7654,-6.7651,-6.7586,-6.7664,-6.7685,-6.7731,-6.7703,-6.7689,-6.777,-6.7665,-6.7774,-6.7812,-6.7732,-6.7633,-6.7604,-6.7601,-6.7478,-6.7372,-6.733,-6.746,-6.7262,-6.7103,-6.6876,-6.6776,-6.6801,-6.6916,-6.685,-6.6943,-6.7106,-6.718,-6.7187,-6.7234,-6.7539,-6.7804,-6.7862,-6.7874,-6.7856,-6.7924,-6.8012,-6.7919,-6.7971,-6.7926,-6.7978,-6.7979,-6.7956,-6.8027,-6.7907,-6.7958,-6.801,-6.8289,-6.8566,-6.8932,-6.8317,-6.6416,-6.3895,-6.1325,-5.9461,-6.109,-6.373,-6.5243,-6.6416,-6.8081,-6.8348,-6.8572,-6.9418,-6.8721,-6.8218,-6.8683,-6.7714,-6.735,-6.7376,-6.7166,-6.736,-6.7065,-6.7157,-6.6841,-6.6963,-6.6748,-6.6777,-6.6624,-6.6629,-6.6397,-6.6472,-6.6313,-6.6329,-6.6146,-6.6123,-6.5935,-6.5942,-6.5816,-6.5794,-6.5665,-6.5595,-6.5374,-6.5302,-6.5077,-6.4963,-6.4785,-6.4663,-6.4394,-6.4255,-6.4106,-6.3903,-6.3635,-6.3535,-6.3321,-6.3052,-6.2834,-6.2697,-6.2551,-6.2303,-6.2248,-6.2233,-6.2115,-6.2017,-6.2138,-6.2112,-6.2253,-6.2441,-6.2666,-6.3001,-6.3396,-6.3794,-6.4323,-6.4689,-6.5183,-6.5521,-6.5858,-6.6045,-6.6316,-6.6554,-6.6694,-6.6947,-6.71,-6.7183,-6.7372,-6.7374,-6.7477,-6.7413,-6.7548,-6.7531,-6.7581,-6.7628,-6.7649,-6.7679,-6.7687,-6.7631,-6.7717,-6.7816,-6.7732,-6.7657,-6.7755,-6.7747,-6.775,-6.777,-6.7803,-6.7724,-6.7708,-6.7737,-6.77,-6.7727,-6.7681,-6.7684,-6.7622,-6.7625,-6.7629,-6.769,-6.7691,-6.7678,-6.7632,-6.7635,-6.7631,-6.7627,-6.7589,-6.7596,-6.7714,-6.7676,-6.7781,-6.7805,-6.7791,-6.7772,-6.7865,-6.7888,-6.7872,-6.7912,-6.7913,-6.7917,-6.812,-6.808,-6.8124,-6.8044,-6.8088,-6.8084,-6.8084,-6.8191,-6.8139,-6.8189,-6.8163,-6.8144,-6.8222,-6.8161,-6.8231,-6.8253,-6.8236,-6.8261,-6.8159,-6.8209,-6.8272,-6.828,-6.8295,-6.8176,-6.8274,-6.8286,-6.8356,-6.8323,-6.83,-6.8263,-6.823,-6.8266,-6.8358,-6.8316,-6.8312,-6.8329,-6.8281,-6.8428,-6.8317,-6.8334,-6.8338,-6.8366,-6.8375,-6.8347,-6.8422,-6.8456,-6.8438,-6.8457,-6.8394,-6.8491,-6.8421,-6.8506,-6.8464,-6.8516,-6.8478,-6.8431,-6.8527,-6.8543,-6.8501,-6.8424,-6.842,-6.8382,-6.8341,-6.8238,-6.811,-6.8164,-6.828,-6.8129,-6.7901,-6.7829,-6.7553,-6.7515,-6.7648,-6.7652,-6.7668,-6.7848,-6.8004,-6.7987,-6.806,-6.822,-6.851,-6.8629,-6.8701,-6.8675,-6.8717,-6.8799,-6.8785,-6.877,-6.8851,-6.8756,-6.8665,-6.8846,-6.8882,-6.8802,-6.8816,-6.8883,-6.9102,-6.9582,-6.9728,-6.8676,-6.6426,-6.5253,-6.3137,-6.0479,-6.0819,-6.4255,-6.5596,-6.6267,-6.895,-6.9928,-7.0248,-7.0467,-6.9768,-6.8928,-6.8432,-6.8096,-6.8043,-6.8543,-6.8483,-6.8161,-6.8082,-6.8031,-6.8075,-6.7925,-6.7902,-6.761,-6.7571,-6.7392,-6.7566,-6.7453,-6.7382,-6.7276,-6.72,-6.7128,-6.7141,-6.6936,-6.6752,-6.6571,-6.6574,-6.6579,-6.6272,-6.6172,-6.6153,-6.6029,-6.6031,-6.5641,-6.5347,-6.5293,-6.5073,-6.4852,-6.4632,-6.4272,-6.4244,-6.4025,-6.3662,-6.3645,-6.3497,-6.3348,-6.3197,-6.3117,-6.2701,-6.2527,-6.2727,-6.2895,-6.2932,-6.3123,-6.3232,-6.3211,-6.374,-6.4337,-6.4725,-6.5154,-6.5437,-6.579,-6.6479,-6.6464,-6.6669,-6.689,-6.683,-6.7236,-6.7289,-6.7468,-6.7314,-6.7398,-6.738,-6.7435,-6.7355,-6.694,-6.7191,-6.8131,-6.8269,-6.7902,-6.7797,-6.7916,-6.7647,-6.7713,-6.8125,-6.7863,-6.767,-6.7947,-6.7642,-6.7857,-6.7827,-6.7314,-6.8009,-6.7676,-6.777,-6.7813,-6.7945,-6.792,-6.7645,-6.7795,-6.7786,-6.6418,-6.7845,-6.8522,-6.7817,-6.8081,-6.8197,-6.8083,-6.7881,-6.8502,-6.8048,-6.8121,-6.8623,-6.8739,-6.852,-6.8425,-6.852,-6.883,-6.8609,-6.8967,-6.8956,-6.8808,-6.9202,-6.8951,-6.8645,-6.9185,-6.9148,-6.9553,-6.9306,-6.9415,-6.8779,-6.8755,-6.9226,-6.9554,-6.888,-6.9393,-6.9653,-6.9586,-6.9346,-6.8404,-6.9533,-6.9637,-6.9507,-6.9408,-6.933,-6.9367,-6.9559,-6.9557,-6.9321,-6.9531,-6.9336,-6.9743,-6.9125,-6.9479,-6.9563,-6.9471,-6.9383,-6.9662,-6.9541,-6.9458,-6.919,-6.9472,-6.923,-6.8821,-6.9581,-6.9548,-6.9441,-6.9063,-6.9055,-6.8776,-6.9357,-6.9459,-6.9258,-6.9418,-6.9424,-6.9358,-6.8975,-6.9032,-6.9839,-6.9338,-6.9522,-6.9624,-6.9617,-6.9622,-6.9493,-6.9576,-6.9294,-6.9708,-6.9796,-6.9667,-6.9643,-6.9695,-6.9713,-6.9523,-6.9545,-6.9326,-6.9397,-6.9153,-6.9208,-6.9081,-6.8881,-6.8727,-6.8562,-6.8779,-6.9137,-6.9068,-6.9245,-6.9342,-6.9282,-6.9226,-6.9795,-7.0057,-7.0026,-7.0283,-7.0421,-7.0389,-7.0588,-7.0542,-7.0592,-7.0451,-7.0647,-7.0782,-7.0861,-7.0827,-7.0879,-7.0942,-7.1161,-7.1506,-7.1925,-7.188,-7.1161,-6.8945,-6.6624,-6.4202,-6.2476,-6.5002,-6.7622,-6.8811,-7.0353,-7.2284,-7.2707,-7.3049,-7.2926,-7.2004,-7.1744,-7.1198,-7.1152,-7.1118,-7.1336,-7.115,-7.1245,-7.0985,-7.1153,-7.1058,-7.1014,-7.0996,-7.1165,-7.1069,-7.1064,-7.0845,-7.1013,-7.0919,-7.0894,-7.1036,-7.0923,-7.0696,-7.0693,-7.063,-7.045,-7.0349,-7.0239,-7.0148,-7.0087,-6.9857,-6.9737,-6.9457,-6.9382,-6.9096,-6.8907,-6.8835,-6.8413,-6.8317,-6.8015,-6.7802,-6.762,-6.7322,-6.7114,-6.6971,-6.6783,-6.6801,-6.667,-6.6647,-6.6536,-6.6553,-6.6683,-6.677,-6.6929,-6.723,-6.7477,-6.7938,-6.8256,-6.8735,-6.9139,-6.9653,-6.9926,-7.0236,-7.0423,-7.0948,-7.1152,-7.1288,-7.1347,-7.1434,-7.1479,-7.1779,-7.1658,-7.1729,-7.1775,-7.1809,-7.1668,-7.1841,-7.1837,-7.1883,-7.1842,-7.1788,-7.1744,-7.1949,-7.176,-7.1747,-7.1828,-7.1828,-7.1745,-7.181,-7.1763,-7.1805,-7.1763,-7.1687,-7.1759,-7.1777,-7.1647,-7.1705,-7.1704,-7.1692,-7.1565,-7.1517,-7.1515,-7.1554,-7.1517,-7.1432,-7.1411,-7.1435,-7.1439,-7.1439,-7.1393,-7.1447,-7.1458,-7.1421,-7.1446,-7.1553,-7.1506,-7.1549,-7.1504,-7.16,-7.1572,-7.1542,-7.163,-7.1509,-7.1468,-7.1399,-7.1492,-7.1484,-7.1367,-7.1362,-7.1337,-7.1326,-7.1348,-7.129,-7.1152,-7.1039,-7.0853,-7.0711,-7.0577,-7.0317,-7.0122,-7.0082,-6.9908,-6.9776,-6.966,-6.9526,-6.945,-6.9436,-6.9447,-6.9422,-6.9432,-6.9451,-6.9456,-6.959,-6.9609,-6.9641,-6.9692,-6.9791,-6.9872,-6.9936,-7.0096,-7.0068,-7.0057,-7.0126,-7.0194,-7.0246,-7.0266,-7.0269,-7.0334,-7.0374,-7.0457,-7.0464,-7.0513,-7.0521,-7.0626,-7.0586,-7.0642,-7.0691,-7.0788,-7.079,-7.0781,-7.0811,-7.0796,-7.0859,-7.0921,-7.0949,-7.1023,-7.101,-7.1081,-7.1094,-7.1149,-7.1116,-7.1093,-7.103,-7.1068,-7.0928,-7.0992,-7.1004,-7.0781,-7.0685,-7.0516,-7.0416,-7.0557,-7.0557,-7.0658,-7.0817,-7.0991,-7.0973,-7.1014,-7.1058,-7.1499,-7.1785,-7.1881,-7.1832,-7.1909,-7.1887,-7.1937,-7.1876,-7.196,-7.2059,-7.2038,-7.2012,-7.2051,-7.1985,-7.2034,-7.2065,-7.2289,-7.2452,-7.2758,-7.2839,-7.1782,-6.9482,-6.7135,-6.4639,-6.3405,-6.6628,-6.8629,-6.9637,-7.1633,-7.3245,-7.351,-7.3782,-7.3481,-7.2556,-7.2276,-7.1835,-7.1824,-7.1595,-7.1727,-7.1639,-7.1668,-7.146,-7.1475,-7.1396,-7.1593,-7.1338,-7.1333,-7.1184,-7.1237,-7.1117,-7.108,-7.097,-7.0961,-7.0885,-7.0869,-7.0748,-7.0744,-7.0692,-7.0622,-7.0383,-7.0321,-7.0225,-7.006,-6.9909,-6.9906,-6.968,-6.9485,-6.9355,-6.9111,-6.8955,-6.8714,-6.8527,-6.8292,-6.8047,-6.7886,-6.7736,-6.7486,-6.7499,-6.7345,-6.727,-6.7098,-6.7071,-6.704,-6.704,-6.706,-6.7234,-6.7402,-6.7718,-6.8006,-6.8501,-6.8883,-6.9404,-6.9813,-7.0163,-7.0562,-7.1024,-7.121,-7.141,-7.1662,-7.1911,-7.2036,-7.2288,-7.2377,-7.2498,-7.2533,-7.2646,-7.2563,-7.2612,-7.2611,-7.283,-7.2826,-7.2856,-7.2836,-7.2867,-7.2876,-7.2859,-7.2835,-7.2846,-7.2804,-7.2854,-7.2771,-7.2855,-7.284,-7.2744,-7.2799,-7.2841,-7.277,-7.2741,-7.27,-7.2686,-7.2612,-7.268,-7.2509,-7.2598,-7.2616,-7.2645,-7.259,-7.2568,-7.254,-7.2647,-7.2552,-7.2608,-7.2558,-7.2629,-7.2639,-7.2627,-7.2684,-7.2749,-7.2714,-7.2741,-7.2756,-7.2798,-7.2841,-7.2843,-7.2833,-7.2867,-7.2867,-7.2852,-7.283,-7.2829,-7.2833,-7.2828,-7.2751,-7.271,-7.2705,-7.2797,-7.2742,-7.2625,-7.2676,-7.2714,-7.2719,-7.2577,-7.271,-7.2669,-7.2729,-7.2797,-7.2822,-7.2738,-7.2782,-7.2808,-7.2855,-7.2826,-7.2765,-7.285,-7.286,-7.2833,-7.2891,-7.2816,-7.2875,-7.2809,-7.2805,-7.2712,-7.2739,-7.2777,-7.2714,-7.274,-7.2765,-7.2699,-7.273,-7.2697,-7.2744,-7.2768,-7.2769,-7.2794,-7.2846,-7.2888,-7.2937,-7.2917,-7.2986,-7.3001,-7.2982,-7.2978,-7.3047,-7.2971,-7.3148,-7.319,-7.3159,-7.317,-7.3165,-7.314,-7.3111,-7.3102,-7.3098,-7.3027,-7.3012,-7.3027,-7.302,-7.2873,-7.2867,-7.2787,-7.275,-7.2669,-7.249,-7.2491,-7.2501,-7.2274,-7.1997,-7.1919,-7.1786,-7.184,-7.195,-7.1946,-7.2097,-7.2183,-7.2203,-7.2208,-7.2383,-7.2622,-7.2844,-7.2894,-7.2841,-7.2875,-7.2895,-7.2919,-7.2913,-7.2783,-7.2827,-7.2803,-7.2793,-7.273,-7.2781,-7.2637,-7.2747,-7.2767,-7.3157,-7.35,-7.3251,-7.1731,-6.9142,-6.6721,-6.425,-6.4524,-6.783,-6.9402,-7.0456,-7.2336,-7.2876,-7.2712,-7.3129,-7.3527,-7.2928,-7.2418,-7.1964,-7.172,-7.1611,-7.1433,-7.1551,-7.1454,-7.1375,-7.1258,-7.116,-7.107,-7.0964,-7.0947,-7.0847,-7.0711,-7.0608,-7.0571,-7.0544,-7.0402,-7.0288,-7.0161,-6.9942,-6.9905,-6.9692,-6.963,-6.9494,-6.9337,-6.912,-6.9009,-6.8742,-6.8537,-6.8358,-6.8153,-6.7935,-6.7632,-6.7383,-6.724,-6.7002,-6.6887,-6.6642,-6.6298,-6.6087,-6.5885,-6.5714,-6.5491,-6.5377,-6.5238,-6.5065,-6.5051,-6.5034,-6.5008,-6.5156,-6.5323,-6.5414,-6.5677,-6.5992,-6.6196,-6.6559,-6.6893,-6.7115,-6.7455,-6.7777,-6.8145,-6.8316,-6.8518,-6.8619,-6.8782,-6.8923,-6.9053,-6.9059,-6.9087,-6.9063,-6.9187,-6.9285,-6.9171,-6.9256,-6.921,-6.92,-6.9265,-6.9261,-6.9215,-6.9174,-6.9139,-6.9104,-6.9117,-6.9045,-6.905,-6.8935,-6.894,-6.9012,-6.8781,-6.8751,-6.8701,-6.8708,-6.8698,-6.8646,-6.8664,-6.8598,-6.8572,-6.8551,-6.855,-6.8449,-6.8417,-6.8337,-6.8375,-6.8341,-6.8333,-6.8258,-6.8203,-6.8255,-6.8247,-6.823,-6.8262,-6.8286,-6.8214,-6.8245,-6.8197,-6.822,-6.8168,-6.8162,-6.8198,-6.8178,-6.8157,-6.8174,-6.8164,-6.8092,-6.8129,-6.8129,-6.8089,-6.8219,-6.8181,-6.8074,-6.8099,-6.8105,-6.8066,-6.8154,-6.8189,-6.8077,-6.8115,-6.8011,-6.8104,-6.8149,-6.8048,-6.801,-6.7984,-6.8009,-6.8036,-6.8063,-6.8064,-6.8013,-6.7914,-6.7887,-6.7758,-6.7714,-6.7649,-6.7561,-6.7505,-6.7555,-6.7436,-6.7344,-6.7098,-6.6877,-6.6993,-6.6982,-6.6886,-6.6991,-6.7106,-6.7171,-6.7182,-6.7355,-6.7589,-6.7857,-6.7933,-6.7977,-6.7887,-6.7894,-6.7966,-6.7873,-6.7893,-6.7889,-6.785,-6.7922,-6.7952,-6.7879,-6.7851,-6.7901,-6.8014,-6.8282,-6.8627,-6.8505,-6.7399,-6.4995,-6.2576,-5.9993,-5.9267,-6.2403,-6.3574,-6.5001,-6.6292,-6.7975,-6.8241,-6.8372,-6.9362,-6.8664,-6.8123,-6.7476,-6.7408,-6.7127,-6.7227,-6.7085,-6.7032,-6.6849,-6.702,-6.6802,-6.6779,-6.6557,-6.661,-6.6462,-6.6421,-6.6316,-6.6259,-6.6094,-6.6132,-6.5983,-6.5931,-6.5759,-6.574,-6.5672,-6.5568,-6.5446,-6.5342,-6.5185,-6.508,-6.4872,-6.4753,-6.4517,-6.4429,-6.4273,-6.4034,-6.3876,-6.3713,-6.3467,-6.3194,-6.3071,-6.2856,-6.2696,-6.2492,-6.2355,-6.227,-6.2149,-6.2151,-6.2072,-6.2031,-6.2101,-6.2194,-6.2399,-6.2512,-6.2838,-6.3182,-6.3629,-6.3983,-6.4608,-6.4987,-6.5427,-6.5833,-6.6176,-6.6462,-6.6685,-6.687,-6.707,-6.7242,-6.7387,-6.7448,-6.759,-6.757,-6.7651,-6.7725,-6.7696,-6.7701,-6.7881,-6.7908,-6.7901,-6.7951,-6.789,-6.8028,-6.8017,-6.7988,-6.8004,-6.8035,-6.8027,-6.8022,-6.8045,-6.8056,-6.8042,-6.8003,-6.7991,-6.802,-6.8041,-6.801,-6.8013,-6.7926,-6.8017,-6.7958,-6.7988,-6.7943,-6.7985,-6.794,-6.7925,-6.7863,-6.7902,-6.7842,-6.7939,-6.7979,-6.8006,-6.8027,-6.8107,-6.8067,-6.813,-6.8104,-6.8185,-6.8172,-6.8246,-6.8264,-6.8243,-6.8323,-6.8387,-6.8395,-6.8411,-6.8431,-6.8433,-6.8524,-6.8431,-6.8462,-6.8535,-6.8561,-6.8561,-6.8551,-6.8568,-6.8605,-6.8559,-6.8612,-6.8725,-6.8653,-6.8655,-6.8657,-6.8679,-6.8693,-6.8734,-6.8703,-6.8689,-6.8732,-6.8766,-6.8747,-6.876,-6.8817,-6.8808,-6.8816,-6.8824,-6.8853,-6.8846,-6.888,-6.8872,-6.8885,-6.8847,-6.8858,-6.881,-6.8745,-6.8726,-6.8684,-6.8545,-6.8645,-6.8727,-6.8545,-6.8435,-6.8351,-6.8132,-6.808,-6.8104,-6.8194,-6.8247,-6.8304,-6.8443,-6.8474,-6.8524,-6.8687,-6.8902,-6.9181,-6.9265,-6.9311,-6.9335,-6.9381,-6.9445,-6.9402,-6.9431,-6.9446,-6.9395,-6.9459,-6.948,-6.9431,-6.9482,-6.9508,-6.9719,-7.0073,-7.0317,-6.9799,-6.8158,-6.5674,-6.3285,-6.1025,-6.1807,-6.5089,-6.6314,-6.7379,-7.0042,-7.0861,-7.1052,-7.1214,-7.0736,-7.0065,-6.9566,-6.9362,-6.9114,-6.922,-6.9068,-6.9087,-6.8931,-6.8965,-6.8951,-6.8914,-6.8733,-6.8777,-6.8715,-6.8629,-6.8466,-6.8525,-6.839,-6.8373,-6.8305,-6.8225,-6.8138,-6.8109,-6.7982,-6.7904,-6.7769,-6.7687,-6.7588,-6.7423,-6.7266,-6.7154,-6.7032,-6.6873,-6.6655,-6.6481,-6.6233,-6.603,-6.5811,-6.561,-6.5466,-6.5307,-6.5073,-6.4898,-6.4684,-6.454,-6.4445,-6.4377,-6.4207,-6.4246,-6.4248,-6.4328,-6.4454,-6.4655,-6.4949,-6.5369,-6.5754,-6.6237,-6.6654,-6.7088,-6.7342,-6.7713,-6.8125,-6.8479,-6.8778,-6.9011,-6.9255,-6.9403,-6.9604,-6.9667,-6.9796,-6.984,-6.991,-6.9921,-7.0036,-7.0049,-7.0092,-7.0127,-7.0143,-7.0182,-7.0208,-7.0215,-7.0255,-7.024,-7.0269,-7.0205,-7.0195,-7.0264,-7.032,-7.0314,-7.0278,-7.0279,-7.031,-7.0227,-7.0277,-7.0178,-7.0213,-7.0208,-7.0179,-7.0222,-7.0195,-7.0212,-7.0269,-7.019,-7.0218,-7.0202,-7.0171,-7.0173,-7.0246,-7.0254,-7.0269,-7.0268,-7.0329,-7.0348,-7.0421,-7.0491,-7.048,-7.0519,-7.0563,-7.0576,-7.0617,-7.0696,-7.0751,-7.0769,-7.0776,-7.0786,-7.0928,-7.0832,-7.0879,-7.0931,-7.094,-7.0948,-7.0979,-7.0976,-7.0985,-7.0984,-7.1031,-7.1008,-7.1045,-7.1086,-7.1152,-7.1094,-7.1144,-7.1115,-7.1179,-7.1186,-7.122,-7.1185,-7.122,-7.1207,-7.1317,-7.1357,-7.1357,-7.1322,-7.1371,-7.1458,-7.1386,-7.1409,-7.142,-7.146,-7.1469,-7.1503,-7.1502,-7.1551,-7.1532,-7.1539,-7.1511,-7.1492,-7.1425,-7.1328,-7.1201,-7.1295,-7.1352,-7.1209,-7.1078,-7.0961,-7.0729,-7.0655,-7.0732,-7.0764,-7.0806,-7.0983,-7.1097,-7.113,-7.1136,-7.1289,-7.1588,-7.1792,-7.1851,-7.1922,-7.1996,-7.1997,-7.2005,-7.1949,-7.1977,-7.2007,-7.2014,-7.202,-7.2053,-7.2035,-7.2024,-7.2073,-7.2164,-7.2455,-7.2826,-7.2785,-7.1716,-6.9343,-6.7029,-6.452,-6.3252,-6.6504,-6.843,-6.9493,-7.1579,-7.318,-7.3504,-7.3802,-7.3436,-7.2518,-7.2388,-7.1866,-7.1775,-7.156,-7.1632,-7.1497,-7.1444,-7.1363,-7.136,-7.1193,-7.1237,-7.1155,-7.1053,-7.0925,-7.0894,-7.0825,-7.0739,-7.0659,-7.0589,-7.0514,-7.0487,-7.0407,-7.0326,-7.0154,-6.9995,-6.986,-6.9832,-6.966,-6.9491,-6.9336,-6.9153,-6.9044,-6.8787,-6.8533,-6.839,-6.8151,-6.7884,-6.767,-6.7434,-6.7201,-6.7083,-6.6864,-6.6665,-6.6558,-6.6341,-6.6236,-6.6076,-6.6109,-6.5976,-6.5987,-6.6106,-6.6212,-6.6493,-6.6838,-6.7169,-6.7576,-6.8,-6.8481,-6.8857,-6.9223,-6.9322,-6.9715,-7.0012,-7.0328,-7.0518,-7.0685,-7.0795,-7.0927,-7.1047,-7.1084,-7.1117,-7.1197,-7.1195,-7.1224,-7.1215,-7.1256,-7.1368,-7.1286,-7.1227,-7.1274,-7.1253,-7.1261,-7.1208,-7.1235,-7.1191,-7.1161,-7.1211,-7.1203,-7.1118,-7.1104,-7.1052,-7.106,-7.0963,-7.1054,-7.1001,-7.1029,-7.0993,-7.0935,-7.0903,-7.0961,-7.0961,-7.0914,-7.0875,-7.0895,-7.0847,-7.0853,-7.0825,-7.0875,-7.0843,-7.0892,-7.0933,-7.0866,-7.0889,-7.0898,-7.0886,-7.0895,-7.0841,-7.0738,-7.0864,-7.0914,-7.0907,-7.0905,-7.089,-7.091,-7.0953,-7.0923,-7.0905,-7.0917,-7.0893,-7.0823,-7.094,-7.0937,-7.0869,-7.0818,-7.0812,-7.0802,-7.0827,-7.0756,-7.0724,-7.0759,-7.0723,-7.069,-7.063,-7.0585,-7.0555,-7.0544,-7.0522,-7.0539,-7.0528,-7.0453,-7.052,-7.0434,-7.0431,-7.0395,-7.0376,-7.0357,-7.0351,-7.0284,-7.0261,-7.031,-7.0263,-7.0221,-7.021,-7.0222,-7.0208,-7.0141,-7.0141,-7.0036,-7.009,-7.0053,-7.001,-6.9912,-6.9834,-6.9751,-6.9683,-6.9554,-6.9615,-6.9596,-6.9435,-6.9224,-6.9066,-6.8865,-6.8761,-6.8852,-6.8932,-6.8851,-6.8979,-6.9067,-6.9121,-6.9123,-6.9232,-6.9538,-6.9633,-6.9606,-6.9634,-6.961,-6.9614,-6.9549,-6.9567,-6.9525,-6.9479,-6.95,-6.9445,-6.9533,-6.9498,-6.9465,-6.9492,-6.9581,-6.9856,-7.0154,-7.0123,-6.8868,-6.6359,-6.4081,-6.1386,-6.0819,-6.4047,-6.584,-6.7278,-6.8982,-6.9498,-6.9434,-6.9738,-7.0634,-7.0342,-6.9648,-6.923,-6.8895,-6.881,-6.8631,-6.856,-6.8459,-6.8412,-6.8359,-6.8225,-6.8124,-6.8036,-6.7953,-6.7876,-6.7824,-6.7731,-6.7737,-6.7642,-6.758,-6.7506,-6.7367,-6.731,-6.7272,-6.7126,-6.7002,-6.6854,-6.6789,-6.6656,-6.649,-6.6384,-6.6198,-6.5999,-6.5816,-6.56,-6.543,-6.5314,-6.5066,-6.4826,-6.4612,-6.444,-6.4153,-6.3971,-6.3826,-6.3701,-6.3572,-6.338,-6.3303,-6.3194,-6.3217,-6.3207,-6.33,-6.344,-6.3715,-6.4039,-6.4396,-6.4595,-6.5003,-6.5407,-6.5863,-6.6268,-6.6599,-6.6912,-6.7196,-6.7437,-6.7731,-6.7863,-6.7951,-6.8045,-6.8144,-6.8243,-6.8319,-6.8356,-6.837,-6.8415,-6.8487,-6.8511,-6.8537,-6.8513,-6.8503,-6.8528,-6.8513,-6.8485,-6.8473,-6.8424,-6.8435,-6.8407,-6.8379,-6.8385,-6.8383,-6.8394,-6.8308,-6.8332,-6.83,-6.8235,-6.8226,-6.8261,-6.8224,-6.8246,-6.818,-6.8198,-6.8169,-6.8156,-6.81,-6.8078,-6.8119,-6.8137,-6.8168,-6.8148,-6.8197,-6.8194,-6.8276,-6.8309,-6.8328,-6.8394,-6.839,-6.8412,-6.8477,-6.855,-6.8585,-6.8608,-6.8631,-6.8678,-6.874,-6.8686,-6.8756,-6.8852,-6.8855,-6.8909,-6.8897,-6.8959,-6.9012,-6.9038,-6.9048,-6.9062,-6.9124,-6.914,-6.9153,-6.9191,-6.9215,-6.9198,-6.9242,-6.926,-6.9282,-6.9305,-6.9344,-6.9306,-6.9373,-6.946,-6.9439,-6.9426,-6.9493,-6.9527,-6.9522,-6.9517,-6.9507,-6.9533,-6.9595,-6.9605,-6.9623,-6.9611,-6.9573,-6.9708,-6.9734,-6.9716,-6.9742,-6.9754,-6.9829,-6.9845,-6.9873,-6.9841,-6.9826,-6.9827,-6.9833,-6.973,-6.9601,-6.9516,-6.964,-6.9651,-6.9462,-6.9383,-6.9109,-6.9007,-6.9175,-6.9225,-6.927,-6.9397,-6.9533,-6.9562,-6.9607,-6.9782,-7.0026,-7.0256,-7.0299,-7.035,-7.0318,-7.0415,-7.0377,-7.0455,-7.0459,-7.0463,-7.0443,-7.0439,-7.0496,-7.0497,-7.0471,-7.0474,-7.0599,-7.0933,-7.1357,-7.1157,-6.99,-6.7474,-6.5196,-6.2749,-6.1968,-6.3672,-6.6247,-6.7491,-6.8758,-7.1349,-7.1853,-7.2228,-7.2105,-7.1226,-7.0806,-7.0384,-7.0307,-7.0233,-7.0242,-7.0159,-7.0108,-7.0103,-7.0019,-7.0002,-6.9995,-6.9944,-6.9842,-6.9732,-6.9673,-6.9587,-6.9579,-6.9562,-6.9473,-6.9387,-6.9317,-6.9278,-6.9155,-6.9041,-6.89,-6.8825,-6.8684,-6.8575,-6.8435,-6.8281,-6.8169,-6.8086,-6.7882,-6.7729,-6.7521,-6.734,-6.7138,-6.6866,-6.6664,-6.6485,-6.6274,-6.6088,-6.5921,-6.5732,-6.5605,-6.5493,-6.5403,-6.5361,-6.5307,-6.5343,-6.5472,-6.5558,-6.5788,-6.6059,-6.6453,-6.6939,-6.7388,-6.7821,-6.8247,-6.8609,-6.9004,-6.9332,-6.9697,-6.9936,-7.0172,-7.0329,-7.0573,-7.0666,-7.0705,-7.0833,-7.0876,-7.0949,-7.0991,-7.0957,-7.1038,-7.1141,-7.1103,-7.1186,-7.1142,-7.1171,-7.1137,-7.1199,-7.1169,-7.1196,-7.1157,-7.118,-7.1277,-7.1254,-7.1212,-7.125,-7.1264,-7.1277,-7.1307,-7.1215,-7.1203,-7.1168,-7.1142,-7.1224,-7.1179,-7.1187,-7.1186,-7.121,-7.1218,-7.1216,-7.1227,-7.1238,-7.1229,-7.1237,-7.1292,-7.1299,-7.1322,-7.1319,-7.1384,-7.1447,-7.1513,-7.1482,-7.1552,-7.1545,-7.1602,-7.1595,-7.1628,-7.1709,-7.1771,-7.176,-7.1767,-7.1798,-7.1861,-7.1817,-7.1892,-7.19,-7.1893,-7.1911,-7.1953,-7.196,-7.2017,-7.2006,-7.2007,-7.2072,-7.2085,-7.2092,-7.2106,-7.2136,-7.2164,-7.2193,-7.2197,-7.2221,-7.2207,-7.2249,-7.23,-7.2344,-7.235,-7.2357,-7.2345,-7.2358,-7.2423,-7.2383,-7.2445,-7.2464,-7.2464,-7.251,-7.2488,-7.2512,-7.2548,-7.256,-7.2589,-7.2594,-7.2556,-7.2581,-7.2621,-7.2658,-7.2676,-7.2687,-7.2633,-7.2659,-7.273,-7.2751,-7.2743,-7.2726,-7.2706,-7.2792,-7.2732,-7.2749,-7.2812,-7.2871,-7.2828,-7.2864,-7.2851,-7.2852,-7.2926,-7.2938,-7.2914,-7.2952,-7.2973,-7.2975,-7.3004,-7.3027,-7.3048,-7.3082,-7.3078,-7.3055,-7.3102,-7.3088,-7.3148,-7.3129,-7.3122,-7.3063,-7.2959,-7.2884,-7.2801,-7.2868,-7.2804,-7.2705,-7.2545,-7.2328,-7.2253,-7.2248,-7.2355,-7.2383,-7.2569,-7.2691,-7.2713,-7.2719,-7.2807,-7.3098,-7.3366,-7.3471,-7.3498,-7.3483,-7.3498,-7.3522,-7.355,-7.3585,-7.3572,-7.3559,-7.3559,-7.3549,-7.3596,-7.3574,-7.3562,-7.3608,-7.3854,-7.4243,-7.4405,-7.3762,-7.1809,-6.9359,-6.6948,-6.4878,-6.6827,-6.9586,-7.048,-7.0963,-7.3485,-7.5006,-7.4999,-7.5361,-7.4498,-7.4055,-7.3477,-7.3309,-7.314,-7.3131,-7.3023,-7.3026,-7.2883,-7.2877,-7.2812,-7.2752,-7.2678,-7.2555,-7.2467,-7.2477,-7.2362,-7.2369,-7.2232,-7.2174,-7.2135,-7.2023,-7.1947,-7.1896,-7.1738,-7.1634,-7.1492,-7.1461,-7.1251,-7.1144,-7.1,-7.0872,-7.0655,-7.053,-7.0308,-7.0233,-7.0037,-6.9822,-6.9646,-6.9419,-6.9214,-6.9019,-6.8792,-6.8561,-6.8441,-6.8263,-6.8198,-6.8066,-6.7974,-6.7865,-6.7893,-6.7944,-6.8034,-6.8172,-6.8479,-6.8592,-6.896,-6.942,-6.9818,-7.0218,-7.0624,-7.0991,-7.1424,-7.1734,-7.2034,-7.2269,-7.2536,-7.2683,-7.2829,-7.2958,-7.3041,-7.3122,-7.3176,-7.3193,-7.3281,-7.3285,-7.3319,-7.336,-7.3348,-7.3361,-7.3373,-7.3344,-7.3348,-7.3361,-7.3329,-7.3335,-7.3346,-7.3329,-7.3364,-7.3285,-7.3331,-7.3303,-7.3269,-7.3206,-7.3131,-7.3117,-7.3134,-7.3079,-7.307,-7.3048,-7.3033,-7.299,-7.3016,-7.2959,-7.2929,-7.2901,-7.2964,-7.2959,-7.2928,-7.2905,-7.3,-7.2971,-7.2996,-7.3032,-7.305,-7.3034,-7.3051,-7.3081,-7.3126,-7.3141,-7.3167,-7.3132,-7.3188,-7.321,-7.3179,-7.3207,-7.3211,-7.3283,-7.328,-7.3249,-7.3306,-7.3294,-7.3272,-7.33,-7.3292,-7.3314,-7.3277,-7.3312,-7.329,-7.3292,-7.3327,-7.3305,-7.3245,-7.3303,-7.3285,-7.3319,-7.331,-7.3321,-7.3275,-7.3293,-7.334,-7.3289,-7.328,-7.3334,-7.3259,-7.326,-7.3291,-7.3252,-7.3265,-7.3288,-7.3253,-7.3279,-7.3341,-7.3287,-7.3265,-7.3316,-7.3299,-7.3266,-7.3301,-7.3293,-7.33,-7.3306,-7.3307,-7.3311,-7.3312,-7.3332,-7.3297,-7.3283,-7.3257,-7.3296,-7.3286,-7.3321,-7.3262,-7.3309,-7.3274,-7.3302,-7.3239,-7.3201,-7.3129,-7.3232,-7.3242,-7.3197,-7.3217,-7.3241,-7.3225,-7.3211,-7.3213,-7.3121,-7.3172,-7.317,-7.3141,-7.32,-7.3124,-7.3007,-7.3107,-7.3142,-7.3071,-7.2993,-7.3036,-7.3048,-7.2991,-7.2944,-7.2927,-7.2962,-7.2874,-7.277,-7.2743,-7.262,-7.2564,-7.2565,-7.2472,-7.2353,-7.216,-7.1918,-7.1848,-7.1983,-7.2051,-7.2113,-7.2137,-7.2201,-7.2292,-7.2299,-7.2578,-7.2859,-7.2936,-7.2966,-7.3043,-7.2974,-7.2969,-7.3014,-7.3016,-7.2975,-7.297,-7.2986,-7.299,-7.2949,-7.3006,-7.3,-7.3078,-7.3118,-7.3482,-7.3847,-7.3454,-7.185,-6.9327,-6.8257,-6.5845,-6.4195,-6.7228,-6.9156,-7.0334,-7.1877,-7.3649,-7.3774,-7.4143,-7.4197,-7.3342,-7.3092,-7.2507,-7.2405,-7.213,-7.2224,-7.2067,-7.2031,-7.1891,-7.1929,-7.177,-7.1728,-7.159,-7.1566,-7.1399,-7.1332,-7.1278,-7.1175,-7.1052,-7.0926,-7.0816,-7.073,-7.0511,-7.0461,-7.0278,-7.0258,-7.0028,-6.9802,-6.9704,-6.9604,-6.943,-6.9291,-6.9162,-6.8885,-6.863,-6.8328,-6.8142,-6.7886,-6.766,-6.7354,-6.7155,-6.686,-6.6641,-6.6421,-6.631,-6.6138,-6.5953,-6.5899,-6.5724,-6.5712,-6.5618,-6.5708,-6.5674,-6.5866,-6.6043,-6.6331,-6.6672,-6.7033,-6.7437,-6.7837,-6.8148,-6.8418,-6.8764,-6.9067,-6.9231,-6.9421,-6.963,-6.9785,-6.9833,-6.9895,-6.9924,-6.9912,-6.9945,-6.9956,-7.0057,-6.9968,-6.9952,-6.9941,-6.9957,-6.9838,-6.9862,-6.9763,-6.9735,-6.9717,-6.9651,-6.9542,-6.9582,-6.9548,-6.9523,-6.9457,-6.9428,-6.9314,-6.9359,-6.9309,-6.9237,-6.9277,-6.9174,-6.9072,-6.9031,-6.8957,-6.8892,-6.8847,-6.8857,-6.8845,-6.8801,-6.8712,-6.8683,-6.8649,-6.8673,-6.8636,-6.8707,-6.865,-6.8595,-6.8678,-6.8626,-6.8596,-6.8694,-6.8623,-6.8672,-6.8589,-6.866,-6.8645,-6.8688,-6.8626,-6.8627,-6.862,-6.864,-6.8617,-6.8584,-6.8641,-6.8653,-6.8593,-6.8568,-6.855,-6.8583,-6.8572,-6.8558,-6.852,-6.8481,-6.8472,-6.8464,-6.8481,-6.8368,-6.8321,-6.8352,-6.8393,-6.8368,-6.8354,-6.8284,-6.8277,-6.8219,-6.8333,-6.8327,-6.829,-6.823,-6.8298,-6.8284,-6.8243,-6.8157,-6.8175,-6.8172,-6.8162,-6.8166,-6.8128,-6.8162,-6.8111,-6.814,-6.8154,-6.8126,-6.8111,-6.8093,-6.8094,-6.7992,-6.7954,-6.7884,-6.7782,-6.7647,-6.7709,-6.7752,-6.7512,-6.7486,-6.7229,-6.6971,-6.698,-6.7143,-6.7128,-6.7195,-6.7309,-6.7387,-6.7355,-6.7386,-6.76,-6.7865,-6.799,-6.8035,-6.8051,-6.8081,-6.809,-6.8076,-6.8099,-6.8058,-6.8112,-6.8079,-6.8062,-6.8075,-6.8117,-6.8111,-6.8176,-6.8406,-6.8663,-6.8967,-6.8714,-6.7118,-6.4635,-6.2256,-5.9988,-6.0187,-6.3509,-6.4953,-6.5888,-6.8143,-6.8838,-6.8928,-6.9591,-6.9053,-6.854,-6.8066,-6.7782,-6.767,-6.7609,-6.7566,-6.7506,-6.7438,-6.7401,-6.7337,-6.7303,-6.7249,-6.7113,-6.7012,-6.6942,-6.686,-6.6819,-6.6823,-6.6748,-6.6673,-6.6629,-6.6627,-6.6509,-6.6462,-6.6434,-6.629,-6.6154,-6.6103,-6.6047,-6.5869,-6.5752,-6.562,-6.5473,-6.536,-6.513,-6.4904,-6.4724,-6.4509,-6.4297,-6.4043,-6.3817,-6.3625,-6.3436,-6.3325,-6.3261,-6.3087,-6.2982,-6.2918,-6.2823,-6.2856,-6.2893,-6.2997,-6.3183,-6.3556,-6.3857,-6.4225,-6.4722,-6.514,-6.5598,-6.5997,-6.6405,-6.6755,-6.7048,-6.7348,-6.7482,-6.7726,-6.7891,-6.8014,-6.8187,-6.8257,-6.8319,-6.8437,-6.846,-6.8528,-6.8543,-6.8574,-6.8591,-6.859,-6.866,-6.8672,-6.8642,-6.8622,-6.8631,-6.8609,-6.8551,-6.8631,-6.861,-6.8592,-6.8567,-6.8536,-6.8546,-6.857,-6.8518,-6.8481,-6.846,-6.8516,-6.8457,-6.8395,-6.8316,-6.8342,-6.8377,-6.8314,-6.8278,-6.8216,-6.822,-6.8235,-6.8261,-6.8185,-6.8214,-6.8232,-6.8304,-6.8284,-6.8307,-6.8352,-6.8368,-6.8388,-6.8392,-6.8456,-6.8481,-6.8502,-6.8546,-6.8645,-6.8635,-6.8637,-6.8664,-6.873,-6.8717,-6.8723,-6.877,-6.8772,-6.8815,-6.8869,-6.8852,-6.8876,-6.8855,-6.8906,-6.8902,-6.8931,-6.8917,-6.8925,-6.8976,-6.9013,-6.9069,-6.9077,-6.9069,-6.9129,-6.9107,-6.9191,-6.9219,-6.9166,-6.9209,-6.9239,-6.9243,-6.925,-6.9218,-6.9227,-6.9209,-6.9246,-6.9331,-6.9305,-6.9311,-6.9302,-6.9288,-6.9307,-6.9332,-6.9328,-6.9335,-6.9328,-6.9439,-6.9419,-6.9413,-6.9445,-6.941,-6.9452,-6.9455,-6.9501,-6.9501,-6.9532,-6.9574,-6.9561,-6.9578,-6.9588,-6.9595,-6.9598,-6.964,-6.9649,-6.967,-6.9655,-6.9653,-6.9668,-6.9639,-6.964,-6.9651,-6.9671,-6.9687,-6.9693,-6.9694,-6.9686,-6.9579,-6.951,-6.94,-6.9424,-6.9467,-6.9276,-6.921,-6.9148,-6.8957,-6.8871,-6.9031,-6.9044,-6.9179,-6.9284,-6.9449,-6.9401,-6.9397,-6.9697,-6.9987,-7.0147,-7.0213,-7.0203,-7.0231,-7.0279,-7.0287,-7.0318,-7.0302,-7.0322,-7.0345,-7.0395,-7.0388,-7.0371,-7.0412,-7.0493,-7.0687,-7.1084,-7.1309,-7.0536,-6.8605,-6.6199,-6.3862,-6.1906,-6.38,-6.6535,-6.7468,-6.878,-7.126,-7.1794,-7.1733,-7.2206,-7.1457,-7.0978,-7.0397,-7.0258,-7.0079,-7.0066,-6.9987,-6.9978,-6.9882,-6.9864,-6.9829,-6.9871,-6.9685,-6.962,-6.9483,-6.9418,-6.9377,-6.9401,-6.9276,-6.922,-6.9127,-6.9088,-6.9002,-6.8921,-6.8782,-6.8722,-6.8627,-6.8509,-6.8364,-6.8332,-6.813,-6.7986,-6.7848,-6.7642,-6.749,-6.7358,-6.715,-6.7025,-6.6851,-6.6585,-6.6392,-6.6262,-6.6075,-6.5864,-6.5744,-6.5559,-6.5465,-6.5304,-6.5305,-6.5176,-6.5202,-6.5243,-6.5376,-6.5564,-6.5763,-6.6129,-6.6541,-6.6749,-6.722,-6.7617,-6.8034,-6.8427,-6.8844,-6.9113,-6.9415,-6.9702,-6.9923,-7.0146,-7.0314,-7.0464,-7.0549,-7.0663,-7.0765,-7.0793,-7.082,-7.0859,-7.0865,-7.088,-7.0979,-7.1,-7.101,-7.1019,-7.1061,-7.1026,-7.1055,-7.1007,-7.1006,-7.1016,-7.1052,-7.1052,-7.1054,-7.1066,-7.1071,-7.0999,-7.1021,-7.0985,-7.0964,-7.0975,-7.0975,-7.0969,-7.0975,-7.0964,-7.0991,-7.0983,-7.1008,-7.0973,-7.0982,-7.1058,-7.102,-7.1054,-7.11,-7.107,-7.1074,-7.1209,-7.1247,-7.1257,-7.1268,-7.1263,-7.1325,-7.1337,-7.1428,-7.1444,-7.1469,-7.1515,-7.1557,-7.1592,-7.1631,-7.1649,-7.1675,-7.1728,-7.1758,-7.1782,-7.1772,-7.1868,-7.1865,-7.1874,-7.1893,-7.1898,-7.1907,-7.1931,-7.1944,-7.1934,-7.2027,-7.2024,-7.2064,-7.2068,-7.2068,-7.2092,-7.2106,-7.2108,-7.2186,-7.2185,-7.217,-7.2206,-7.2218,-7.2257,-7.2254,-7.2281,-7.2286,-7.2306,-7.2302,-7.2332,-7.2296,-7.2318,-7.2359,-7.2378,-7.2402,-7.2425,-7.2432,-7.2509,-7.2499,-7.2501,-7.2481,-7.2527,-7.2541,-7.2538,-7.2582,-7.2591,-7.2598,-7.2586,-7.2651,-7.2655,-7.2619,-7.2627,-7.2654,-7.2721,-7.272,-7.2766,-7.2743,-7.2734,-7.2745,-7.2847,-7.2808,-7.2863,-7.2833,-7.2879,-7.2915,-7.2874,-7.2891,-7.2875,-7.2886,-7.2957,-7.2946,-7.2959,-7.2977,-7.2997,-7.2982,-7.2935,-7.2822,-7.2786,-7.2728,-7.2666,-7.2697,-7.2567,-7.2393,-7.2263,-7.2071,-7.2048,-7.2215,-7.2248,-7.2327,-7.2445,-7.2527,-7.2572,-7.2579,-7.2842,-7.314,-7.3269,-7.3405,-7.3426,-7.3382,-7.3434,-7.348,-7.344,-7.348,-7.3479,-7.3497,-7.3531,-7.3534,-7.3528,-7.3504,-7.3609,-7.3804,-7.4189,-7.4406,-7.3805,-7.2096,-6.9616,-6.7395,-6.5193,-6.6287,-6.9571,-7.0636,-7.1529,-7.4206,-7.4969,-7.5126,-7.5422,-7.4842,-7.4234,-7.3675,-7.3467,-7.3275,-7.3224,-7.3153,-7.3227,-7.3119,-7.3124,-7.296,-7.2992,-7.2843,-7.2831,-7.2717,-7.2676,-7.2592,-7.2538,-7.2451,-7.2475,-7.2381,-7.2353,-7.2201,-7.2131,-7.2016,-7.1939,-7.186,-7.1719,-7.1624,-7.1561,-7.1428,-7.1348,-7.1113,-7.0962,-7.0753,-7.0565,-7.0425,-7.0207,-7,-6.9902,-6.9691,-6.9493,-6.9255,-6.9075,-6.8924,-6.8818,-6.8655,-6.8515,-6.8447,-6.8388,-6.8381,-6.8418,-6.8492,-6.861,-6.886,-6.9105,-6.9579,-6.9961,-7.0371,-7.0574,-7.1002,-7.1369,-7.1775,-7.2117,-7.2446,-7.2691,-7.2921,-7.3121,-7.3333,-7.3451,-7.3581,-7.3648,-7.3733,-7.3767,-7.3813,-7.3845,-7.3872,-7.389,-7.3943,-7.3916,-7.3955,-7.3984,-7.4009,-7.3996,-7.4023,-7.3953,-7.3958,-7.3921,-7.3914,-7.3991,-7.3994,-7.3969,-7.3941,-7.3914,-7.386,-7.3873,-7.3852,-7.3763,-7.3772,-7.3729,-7.3822,-7.3748,-7.3782,-7.3783,-7.3779,-7.3719,-7.3712,-7.3688,-7.3723,-7.374,-7.374,-7.3785,-7.3789,-7.3838,-7.389,-7.3898,-7.3925,-7.3955,-7.3982,-7.3977,-7.4039,-7.4046,-7.4079,-7.4126,-7.4101,-7.4089,-7.4128,-7.4129,-7.4106,-7.4137,-7.4189,-7.4132,-7.4167,-7.4175,-7.4231,-7.421,-7.4201,-7.4227,-7.4203,-7.4191,-7.4218,-7.4257,-7.4251,-7.4242,-7.4251,-7.43,-7.4258,-7.4308,-7.4309,-7.4301,-7.4321,-7.4325,-7.4328,-7.4326,-7.4353,-7.437,-7.4367,-7.4364,-7.4353,-7.4378,-7.4363,-7.4433,-7.4365,-7.4398,-7.4407,-7.4496,-7.446,-7.4487,-7.4487,-7.4464,-7.4496,-7.4466,-7.4498,-7.4555,-7.4501,-7.4536,-7.4557,-7.4606,-7.4599,-7.4574,-7.4599,-7.4577,-7.4588,-7.4588,-7.4596,-7.4582,-7.4568,-7.4583,-7.4539,-7.4622,-7.4572,-7.4524,-7.4506,-7.4584,-7.4586,-7.4609,-7.4538,-7.4542,-7.4548,-7.4568,-7.4536,-7.4541,-7.447,-7.447,-7.4377,-7.4325,-7.423,-7.4125,-7.4167,-7.4072,-7.3904,-7.3708,-7.3516,-7.3472,-7.3614,-7.3579,-7.3623,-7.3757,-7.3889,-7.3922,-7.3912,-7.4063,-7.4313,-7.4465,-7.4501,-7.4574,-7.4529,-7.4515,-7.4529,-7.4552,-7.4499,-7.4522,-7.4541,-7.4561,-7.449,-7.4468,-7.4508,-7.4571,-7.4816,-7.5053,-7.5382,-7.495,-7.3353,-7.0808,-6.8468,-6.6207,-6.6855,-7.0158,-7.1539,-7.2404,-7.4791,-7.5455,-7.5438,-7.587,-7.5203,-7.4691,-7.4211,-7.388,-7.3754,-7.3709,-7.3594,-7.3561,-7.3487,-7.3416,-7.3319,-7.3303,-7.3199,-7.3131,-7.3038,-7.2884,-7.2825,-7.2748,-7.2767,-7.2659,-7.2569,-7.2456,-7.2402,-7.2266,-7.2189,-7.2099,-7.1982,-7.1913,-7.1741,-7.1573,-7.1393,-7.131,-7.1034,-7.0822,-7.0606,-7.0454,-7.0217,-6.9989,-6.9748,-6.9441,-6.9181,-6.894,-6.8661,-6.8424,-6.8202,-6.8136,-6.7969,-6.7827,-6.7694,-6.762,-6.7492,-6.7371,-6.7428,-6.7591,-6.7787,-6.7998,-6.8401,-6.8812,-6.9179,-6.9489,-6.9894,-7.0211,-7.0557,-7.0855,-7.115,-7.1255,-7.1391,-7.1572,-7.174,-7.1843,-7.1967,-7.1958,-7.1954,-7.1942,-7.2106,-7.2015,-7.1987,-7.1981,-7.1913,-7.191,-7.1866,-7.1782,-7.1804,-7.1761,-7.1754,-7.1716,-7.173,-7.1664,-7.1636,-7.1594,-7.1463,-7.1538,-7.1455,-7.1401,-7.1284,-7.122,-7.1136,-7.1092,-7.1071,-7.1028,-7.0995,-7.0834,-7.0828,-7.0727,-7.0645,-7.0607,-7.0623,-7.0555,-7.0505,-7.0528,-7.046,-7.0477,-7.0398,-7.0434,-7.0449,-7.0429,-7.038,-7.041,-7.0363,-7.03,-7.0307,-7.0236,-7.0235,-7.0188,-7.0246,-7.0257,-7.0255,-7.0196,-7.0182,-7.0125,-7.0163,-7.0158,-7.0101,-7.0135,-7.0076,-7.0105,-7.0084,-7.0024,-6.9973,-6.9949,-6.9909,-6.9925,-6.9922,-6.9944,-6.9826,-6.9852,-6.9857,-6.9824,-6.9818,-6.9812,-6.9805,-6.9763,-6.9808,-6.9741,-6.975,-6.9718,-6.9706,-6.9734,-6.9703,-6.9653,-6.967,-6.9648,-6.9637,-6.9655,-6.9646,-6.9626,-6.9598,-6.9618,-6.9556,-6.9483,-6.9411,-6.9387,-6.9294,-6.9193,-6.9229,-6.9238,-6.9027,-6.8928,-6.8744,-6.8541,-6.8636,-6.8668,-6.8616,-6.8713,-6.8857,-6.8961,-6.8963,-6.9098,-6.9264,-6.9515,-6.9607,-6.9681,-6.971,-6.9669,-6.9657,-6.967,-6.9682,-6.9656,-6.9658,-6.9613,-6.9589,-6.9665,-6.9663,-6.964,-6.9778,-6.9974,-7.0319,-7.0506,-6.9477,-6.723,-6.4827,-6.2178,-6.0992,-6.3678,-6.5826,-6.7307,-6.8853,-7.0049,-7.0007,-7.0546,-7.1048,-7.0245,-6.9805,-6.9343,-6.9192,-6.9066,-6.9029,-6.8923,-6.8941,-6.8825,-6.8811,-6.8663,-6.868,-6.8576,-6.8459,-6.8335,-6.826,-6.8161,-6.8145,-6.8075,-6.8007,-6.7922,-6.7881,-6.7769,-6.7691,-6.7647,-6.7603,-6.7472,-6.7395,-6.725,-6.7148,-6.6968,-6.6841,-6.664,-6.655,-6.6359,-6.6185,-6.5993,-6.5834,-6.5535,-6.5371,-6.5141,-6.4964,-6.4796,-6.4658,-6.4555,-6.4469,-6.4309,-6.4254,-6.4201,-6.4218,-6.4199,-6.4278,-6.4402,-6.4672,-6.5002,-6.5379,-6.5815,-6.6263,-6.6718,-6.7122,-6.7531,-6.7884,-6.8224,-6.8513,-6.8632,-6.8876,-6.9096,-6.9278,-6.9423,-6.9514,-6.9599,-6.9663,-6.9795,-6.9852,-6.9927,-6.9939,-6.9992,-7.001,-7.0064,-7.01,-7.0144,-7.0096,-7.0125,-7.0098,-7.0094,-7.0082,-7.0083,-7.008,-7.0149,-7.0129,-7.0192,-7.0147,-7.0149,-7.0167,-7.0197,-7.0108,-7.0171,-7.0118,-7.0128,-7.0138,-7.0098,-7.0072,-7.007,-7.0054,-7.0053,-7.0052,-7.0067,-7.0031,-7.0018,-7.0026,-7.0065,-7.0075,-7.0055,-7.0065,-7.0156,-7.0185,-7.0224,-7.0242,-7.0282,-7.0317,-7.0366,-7.034,-7.037,-7.0414,-7.0449,-7.0412,-7.0438,-7.0454,-7.05,-7.0501,-7.0552,-7.0513,-7.0496,-7.053,-7.0558,-7.0525,-7.0609,-7.0608,-7.0574,-7.0599,-7.0657,-7.0662,-7.0675,-7.0635,-7.0639,-7.072,-7.0734,-7.0743,-7.0707,-7.0752,-7.0736,-7.0769,-7.0775,-7.0785,-7.079,-7.084,-7.0809,-7.0809,-7.081,-7.0833,-7.0896,-7.0902,-7.0902,-7.0915,-7.0895,-7.0914,-7.0942,-7.0951,-7.0944,-7.0967,-7.1008,-7.0972,-7.0926,-7.0856,-7.0772,-7.0712,-7.0736,-7.082,-7.0691,-7.0559,-7.0521,-7.0298,-7.0204,-7.0219,-7.0245,-7.0326,-7.0382,-7.0569,-7.0639,-7.0662,-7.0708,-7.099,-7.1335,-7.1477,-7.1456,-7.1488,-7.1513,-7.1563,-7.1581,-7.164,-7.1587,-7.1614,-7.1604,-7.1634,-7.1626,-7.1679,-7.1649,-7.1831,-7.2153,-7.2499,-7.2275,-7.0963,-6.8498,-6.6244,-6.3819,-6.3158,-6.6766,-6.8376,-6.9201,-7.1699,-7.2914,-7.3125,-7.3491,-7.291,-7.2397,-7.2101,-7.1587,-7.155,-7.142,-7.1432,-7.1304,-7.1277,-7.1197,-7.1244,-7.1138,-7.1136,-7.0979,-7.095,-7.0853,-7.0859,-7.0705,-7.0715,-7.065,-7.0609,-7.0547,-7.0504,-7.0392,-7.0341,-7.0179,-7.0086,-7.0024,-6.9915,-6.9737,-6.964,-6.9516,-6.9377,-6.9263,-6.9102,-6.8932,-6.8699,-6.8537,-6.8322,-6.8124,-6.7938,-6.7826,-6.7642,-6.7425,-6.7258,-6.7139,-6.6975,-6.6901,-6.6804,-6.6762,-6.671,-6.6753,-6.6861,-6.7038,-6.7289,-6.7656,-6.8024,-6.8488,-6.9005,-6.9441,-6.9867,-7.0086,-7.0427,-7.08,-7.1091,-7.14,-7.1632,-7.1862,-7.1949,-7.2123,-7.2241,-7.2363,-7.2397,-7.2465,-7.2506,-7.2557,-7.265,-7.2725,-7.2711,-7.2765,-7.2774,-7.281,-7.2774,-7.2867,-7.286,-7.2849,-7.2859,-7.2902,-7.2921,-7.3019,-7.2994,-7.3021,-7.3,-7.3018,-7.2987,-7.2966,-7.297,-7.299,-7.3005,-7.2974,-7.2947,-7.2999,-7.2956,-7.297,-7.2952,-7.2978,-7.2956,-7.2979,-7.301,-7.3021,-7.3049,-7.3096,-7.3125,-7.3174,-7.3196,-7.3217,-7.3276,-7.3311,-7.3404,-7.3429,-7.3423,-7.3421,-7.3461,-7.3516,-7.3521,-7.3571,-7.3593,-7.3632,-7.368,-7.3699,-7.3674,-7.3755,-7.3824,-7.3809,-7.3835,-7.3854,-7.3846,-7.3884,-7.393,-7.3935,-7.3953,-7.3955,-7.399,-7.4017,-7.4031,-7.4077,-7.4075,-7.4125,-7.4146,-7.4136,-7.4188,-7.4176,-7.419,-7.4276,-7.4304,-7.43,-7.4292,-7.4318,-7.4361,-7.4418,-7.4437,-7.4428,-7.4435,-7.4461,-7.4478,-7.452,-7.4577,-7.4551,-7.4555,-7.4575,-7.463,-7.4652,-7.4666,-7.4699,-7.4699,-7.4645,-7.475,-7.4818,-7.4799,-7.4811,-7.4831,-7.4811,-7.4887,-7.4844,-7.4909,-7.4922,-7.4975,-7.4904,-7.4885,-7.485,-7.474,-7.47,-7.4612,-7.468,-7.4674,-7.4478,-7.4338,-7.4154,-7.3953,-7.4095,-7.4183,-7.4197,-7.4291,-7.4408,-7.4535,-7.4524,-7.4673,-7.4876,-7.5207,-7.5337,-7.5424,-7.541,-7.5402,-7.5426,-7.545,-7.5472,-7.5486,-7.5466,-7.5489,-7.5517,-7.5562,-7.5508,-7.5493,-7.5573,-7.5774,-7.613,-7.6377,-7.571,-7.3921,-7.1422,-6.9086,-6.7049,-6.8414,-7.1497,-7.2735,-7.3816,-7.6345,-7.6944,-7.711,-7.7203,-7.6295,-7.6113,-7.5569,-7.5374,-7.5268,-7.5226,-7.5091,-7.5098,-7.497,-7.5016,-7.4939,-7.4923,-7.4832,-7.4801,-7.4661,-7.4647,-7.4576,-7.4559,-7.4488,-7.4437,-7.432,-7.4362,-7.4232,-7.4162,-7.4066,-7.4003,-7.3861,-7.3768,-7.3681,-7.3572,-7.3427,-7.3291,-7.3146,-7.3005,-7.2848,-7.2605,-7.2402,-7.2212,-7.1986,-7.1814,-7.16,-7.1511,-7.1272,-7.1075,-7.0899,-7.0751,-7.0642,-7.0522,-7.0465,-7.0396,-7.0375,-7.0386,-7.0531,-7.069,-7.0932,-7.1284,-7.1689,-7.2067,-7.2499,-7.292,-7.3369,-7.3569,-7.3942,-7.4271,-7.4533,-7.4807,-7.5008,-7.524,-7.5345,-7.549,-7.5572,-7.5638,-7.5726,-7.5749,-7.5712,-7.5759,-7.581,-7.5829,-7.5857,-7.5806,-7.5826,-7.5812,-7.5824,-7.5776,-7.5791,-7.5759,-7.5737,-7.5696,-7.5739,-7.5783,-7.5741,-7.571,-7.573,-7.5642,-7.5657,-7.5564,-7.5584,-7.557,-7.5583,-7.5538,-7.5485,-7.5496,-7.5506,-7.5494,-7.5457,-7.5415,-7.5409,-7.5383,-7.5409,-7.5404,-7.541,-7.5443,-7.5474
