-19.613,-19.619,-19.608,-19.615,-19.605,-19.603,-19.605,-19.613,-19.595,-19.588,-19.591,-19.605,-19.613,-19.603,-19.595,-19.6,-19.601,-19.603,-19.591,-19.583,-19.581,-19.6,-19.599,-19.574,-19.559,-19.546,-19.555,-19.558,-19.57,-19.531,-19.513,-19.492,-19.49,-19.521,-19.524,-19.538,-19.545,-19.56,-19.572,-19.559,-19.572,-19.609,-19.627,-19.631,-19.623,-19.618,-19.625,-19.621,-19.638,-19.629,-19.608,-19.615,-19.629,-19.641,-19.637,-19.613,-19.624,-19.627,-19.631,-19.63,-19.624,-19.618,-19.638,-19.651,-19.705,-19.731,-19.71,-19.594,-19.409,-19.156,-18.849,-18.472,-18.307,-18.485,-18.894,-19.27,-19.621,-19.708,-19.667,-19.621,-19.559,-19.554,-19.554,-19.585,-19.568,-19.559,-19.555,-19.561,-19.566,-19.578,-19.558,-19.558,-19.56,-19.569,-19.551,-19.559,-19.539,-19.546,-19.536,-19.543,-19.531,-19.515,-19.522,-19.516,-19.524,-19.517,-19.49,-19.494,-19.484,-19.493,-19.484,-19.469,-19.461,-19.457,-19.453,-19.436,-19.425,-19.422,-19.41,-19.413,-19.399,-19.378,-19.355,-19.347,-19.331,-19.321,-19.297,-19.281,-19.261,-19.257,-19.237,-19.223,-19.197,-19.193,-19.185,-19.181,-19.164,-19.141,-19.15,-19.15,-19.166,-19.164,-19.189,-19.211,-19.257,-19.294,-19.327,-19.339,-19.367,-19.403,-19.455,-19.478,-19.504,-19.513,-19.538,-19.552,-19.553,-19.563,-19.559,-19.569,-19.577,-19.585,-19.581,-19.567,-19.581,-19.589,-19.58,-19.58,-19.573,-19.559,-19.585,-19.591,-19.577,-19.572,-19.563,-19.577,-19.573,-19.58,-19.573,-19.557,-19.573,-19.566,-19.569,-19.548,-19.557,-19.567,-19.57,-19.563,-19.557,-19.544,-19.564,-19.581,-19.579,-19.557,-19.569,-19.569,-19.592,-19.575,-19.566,-19.564,-19.576,-19.584,-19.575,-19.582,-19.577,-19.594,-19.596,-19.601,-19.592,-19.588,-19.583,-19.605,-19.601,-19.588,-19.584,-19.595,-19.594,-19.603,-19.595,-19.579,-19.589,-19.593,-19.606,-19.6,-19.584,-19.593,-19.591,-19.606,-19.596,-19.593,-19.592,-19.606,-19.609,-19.595,-19.593,-19.594,-19.6,-19.612,-19.613,-19.601,-19.593,-19.593,-19.598,-19.606,-19.59,-19.61,-19.599,-19.6,-19.593,-19.599,-19.586,-19.598,-19.61,-19.619,-19.611,-19.594,-19.599,-19.588,-19.606,-19.602,-19.597,-19.604,-19.607,-19.611,-19.607,-19.596,-19.592,-19.604,-19.608,-19.612,-19.602,-19.602,-19.59,-19.609,-19.605,-19.595,-19.583,-19.586,-19.593,-19.573,-19.56,-19.55,-19.564,-19.561,-19.516,-19.496,-19.496,-19.513,-19.536,-19.554,-19.564,-19.547,-19.56,-19.579,-19.591,-19.596,-19.606,-19.597,-19.62,-19.637,-19.636,-19.61,-19.614,-19.633,-19.638,-19.635,-19.621,-19.622,-19.623,-19.633,-19.642,-19.627,-19.618,-19.627,-19.643,-19.642,-19.631,-19.63,-19.671,-19.73,-19.719,-19.608,-19.419,-19.19,-18.929,-18.533,-18.32,-18.451,-18.641,-19.057,-19.471,-19.699,-19.7,-19.617,-19.588,-19.559,-19.555,-19.532,-19.554,-19.565,-19.582,-19.568,-19.57,-19.548,-19.578,-19.557,-19.559,-19.538,-19.536,-19.548,-19.562,-19.541,-19.543,-19.528,-19.528,-19.528,-19.526,-19.522,-19.498,-19.508,-19.518,-19.511,-19.492,-19.477,-19.487,-19.495,-19.478,-19.46,-19.451,-19.455,-19.442,-19.451,-19.428,-19.404,-19.386,-19.407,-19.381,-19.356,-19.345,-19.33,-19.327,-19.31,-19.291,-19.265,-19.256,-19.241,-19.23,-19.219,-19.207,-19.182,-19.165,-19.183,-19.161,-19.156,-19.154,-19.154,-19.185,-19.202,-19.226,-19.239,-19.273,-19.325,-19.357,-19.389,-19.423,-19.45,-19.481,-19.509,-19.517,-19.529,-19.538,-19.566,-19.577,-19.57,-19.575,-19.583,-19.586,-19.603,-19.583,-19.593,-19.579,-19.594,-19.596,-19.585,-19.586,-19.586,-19.595,-19.596,-19.591,-19.59,-19.577,-19.58,-19.59,-19.592,-19.569,-19.58,-19.571,-19.591,-19.587,-19.565,-19.567,-19.576,-19.595,-19.578,-19.575,-19.578,-19.588,-19.596,-19.595,-19.579,-19.57,-19.583,-19.595,-19.591,-19.594,-19.589,-19.588,-19.595,-19.606,-19.608,-19.603,-19.603,-19.61,-19.614,-19.619,-19.599,-19.614,-19.61,-19.607,-19.598,-19.613,-19.604,-19.608,-19.619,-19.618,-19.592,-19.597,-19.604,-19.609,-19.625,-19.601,-19.612,-19.605,-19.612,-19.63,-19.611,-19.6,-19.617,-19.622,-19.619,-19.605,-19.597,-19.593,-19.612,-19.609,-19.62,-19.589,-19.609,-19.616,-19.609,-19.623,-19.599,-19.612,-19.606,-19.608,-19.614,-19.601,-19.614,-19.611,-19.613,-19.621,-19.61,-19.609,-19.621,-19.613,-19.608,-19.608,-19.607,-19.607,-19.622,-19.626,-19.609,-19.598,-19.614,-19.622,-19.617,-19.616,-19.594,-19.617,-19.619,-19.611,-19.608,-19.596,-19.595,-19.595,-19.591,-19.59,-19.563,-19.561,-19.578,-19.568,-19.528,-19.504,-19.508,-19.53,-19.556,-19.567,-19.543,-19.559,-19.581,-19.591,-19.6,-19.599,-19.612,-19.632,-19.646,-19.645,-19.626,-19.625,-19.633,-19.649,-19.638,-19.635,-19.635,-19.635,-19.653,-19.652,-19.627,-19.631,-19.649,-19.644,-19.649,-19.646,-19.619,-19.641,-19.693,-19.744,-19.712,-19.573,-19.387,-19.14,-18.869,-18.483,-18.358,-18.551,-18.986,-19.365,-19.682,-19.732,-19.655,-19.632,-19.586,-19.572,-19.554,-19.571,-19.576,-19.603,-19.574,-19.587,-19.567,-19.572,-19.577,-19.582,-19.561,-19.559,-19.558,-19.56,-19.566,-19.546,-19.534,-19.535,-19.538,-19.551,-19.535,-19.532,-19.534,-19.522,-19.527,-19.528,-19.512,-19.504,-19.496,-19.498,-19.481,-19.467,-19.464,-19.47,-19.473,-19.445,-19.427,-19.414,-19.404,-19.423,-19.398,-19.379,-19.351,-19.34,-19.334,-19.323,-19.284,-19.279,-19.258,-19.258,-19.24,-19.21,-19.214,-19.184,-19.199,-19.177,-19.17,-19.164,-19.154,-19.165,-19.188,-19.214,-19.222,-19.254,-19.303,-19.325,-19.372,-19.381,-19.438,-19.471,-19.504,-19.526,-19.523,-19.531,-19.561,-19.588,-19.591,-19.581,-19.589,-19.59,-19.599,-19.603,-19.597,-19.597,-19.6,-19.619,-19.594,-19.599,-19.596,-19.601,-19.601,-19.6,-19.598,-19.586,-19.591,-19.595,-19.597,-19.588,-19.592,-19.58,-19.583,-19.6,-19.603,-19.577,-19.587,-19.589,-19.597,-19.592,-19.571,-19.574,-19.582,-19.598,-19.598,-19.583,-19.584,-19.595,-19.605,-19.603,-19.595,-19.586,-19.596,-19.61,-19.614,-19.599,-19.591,-19.601,-19.61,-19.608,-19.6,-19.602,-19.615,-19.62,-19.623,-19.62,-19.6,-19.609,-19.62,-19.613,-19.615,-19.594,-19.616,-19.612,-19.619,-19.614,-19.614,-19.614,-19.621,-19.631,-19.607,-19.602,-19.589,-19.614,-19.624,-19.617,-19.609,-19.605,-19.617,-19.618,-19.623,-19.617,-19.608,-19.615,-19.628,-19.634,-19.612,-19.613,-19.619,-19.633,-19.63,-19.619,-19.609,-19.61,-19.624,-19.625,-19.62,-19.615,-19.605,-19.638,-19.634,-19.63,-19.622,-19.611,-19.624,-19.642,-19.624,-19.619,-19.614,-19.622,-19.628,-19.629,-19.613,-19.605,-19.627,-19.623,-19.617,-19.601,-19.59,-19.599,-19.599,-19.591,-19.577,-19.569,-19.546,-19.519,-19.528,-19.533,-19.534,-19.56,-19.577,-19.597,-19.584,-19.588,-19.615,-19.65,-19.649,-19.641,-19.636,-19.641,-19.646,-19.658,-19.644,-19.63,-19.644,-19.646,-19.663,-19.655,-19.64,-19.645,-19.651,-19.647,-19.65,-19.65,-19.635,-19.64,-19.672,-19.703,-19.732,-19.735,-19.679,-19.525,-19.317,-19.031,-18.694,-18.44,-18.409,-18.74,-19.127,-19.518,-19.743,-19.733,-19.677,-19.623,-19.575,-19.571,-19.589,-19.591,-19.588,-19.565,-19.584,-19.595,-19.601,-19.585,-19.572,-19.573,-19.586,-19.576,-19.575,-19.556,-19.564,-19.575,-19.571,-19.555,-19.532,-19.545,-19.541,-19.546,-19.545,-19.53,-19.523,-19.511,-19.527,-19.518,-19.507,-19.497,-19.494,-19.498,-19.484,-19.473,-19.457,-19.452,-19.457,-19.45,-19.417,-19.399,-19.39,-19.389,-19.362,-19.355,-19.322,-19.317,-19.326,-19.289,-19.286,-19.266,-19.25,-19.235,-19.235,-19.222,-19.202,-19.192,-19.192,-19.191,-19.19,-19.201,-19.209,-19.237,-19.289,-19.306,-19.342,-19.346,-19.387,-19.436,-19.464,-19.484,-19.524,-19.541,-19.555,-19.579,-19.579,-19.574,-19.587,-19.611,-19.617,-19.612,-19.602,-19.609,-19.627,-19.61,-19.619,-19.622,-19.602,-19.605,-19.624,-19.605,-19.597,-19.599,-19.6,-19.619,-19.611,-19.598,-19.604,-19.601,-19.606,-19.608,-19.595,-19.59,-19.601,-19.609,-19.601,-19.603,-19.599,-19.6,-19.608,-19.603,-19.601,-19.607,-19.6,-19.624,-19.621,-19.619,-19.607,-19.617,-19.634,-19.616,-19.622,-19.623,-19.616,-19.632,-19.641,-19.634,-19.629,-19.636,-19.619,-19.643,-19.636,-19.623,-19.627,-19.638,-19.634,-19.645,-19.634,-19.624,-19.625,-19.64,-19.644,-19.624,-19.636,-19.634,-19.644,-19.642,-19.626,-19.635,-19.635,-19.634,-19.643,-19.631,-19.627,-19.634,-19.642,-19.637,-19.636,-19.63,-19.641,-19.636,-19.64,-19.64,-19.629,-19.622,-19.632,-19.641,-19.642,-19.628,-19.627,-19.635,-19.633,-19.644,-19.637,-19.64,-19.641,-19.632,-19.638,-19.63,-19.636,-19.638,-19.644,-19.642,-19.626,-19.627,-19.63,-19.652,-19.65,-19.631,-19.624,-19.624,-19.643,-19.624,-19.613,-19.588,-19.591,-19.607,-19.587,-19.549,-19.51,-19.536,-19.548,-19.573,-19.576,-19.572,-19.597,-19.613,-19.606,-19.625,-19.617,-19.636,-19.642,-19.669,-19.67,-19.65,-19.646,-19.664,-19.672,-19.658,-19.651,-19.658,-19.669,-19.669,-19.674,-19.663,-19.647,-19.653,-19.656,-19.662,-19.66,-19.665,-19.707,-19.768,-19.752,-19.609,-19.385,-19.122,-18.825,-18.549,-18.439,-18.644,-19.031,-19.402,-19.682,-19.677,-19.685,-19.684,-19.671,-19.626,-19.577,-19.59,-19.576,-19.587,-19.602,-19.594,-19.589,-19.573,-19.568,-19.597,-19.58,-19.579,-19.585,-19.566,-19.571,-19.554,-19.55,-19.572,-19.552,-19.573,-19.557,-19.546,-19.523,-19.533,-19.538,-19.557,-19.537,-19.509,-19.501,-19.514,-19.506,-19.472,-19.467,-19.471,-19.468,-19.468,-19.452,-19.429,-19.42,-19.422,-19.411,-19.412,-19.386,-19.364,-19.359,-19.332,-19.33,-19.278,-19.269,-19.262,-19.272,-19.258,-19.225,-19.207,-19.224,-19.225,-19.203,-19.191,-19.186,-19.197,-19.182,-19.24,-19.247,-19.269,-19.309,-19.343,-19.397,-19.418,-19.443,-19.461,-19.499,-19.536,-19.546,-19.544,-19.57,-19.567,-19.601,-19.605,-19.596,-19.592,-19.611,-19.635,-19.605,-19.612,-19.586,-19.605,-19.619,-19.605,-19.61,-19.589,-19.613,-19.605,-19.587,-19.596,-19.592,-19.601,-19.626,-19.6,-19.607,-19.598,-19.606,-19.607,-19.609,-19.61,-19.598,-19.611,-19.602,-19.63,-19.628,-19.607,-19.622,-19.613,-19.629,-19.6,-19.606,-19.606,-19.639,-19.621,-19.625,-19.618,-19.62,-19.631,-19.644,-19.625,-19.616,-19.63,-19.63,-19.637,-19.63,-19.616,-19.628,-19.627,-19.644,-19.647,-19.641,-19.629,-19.641,-19.641,-19.635,-19.636,-19.626,-19.623,-19.645,-19.653,-19.636,-19.642,-19.639,-19.653,-19.639,-19.651,-19.628,-19.64,-19.639,-19.643,-19.645,-19.636,-19.637,-19.632,-19.629,-19.619,-19.601,-19.587,-19.594,-19.601,-19.586,-19.544,-19.522,-19.524,-19.546,-19.564,-19.561,-19.582,-19.568,-19.608,-19.619,-19.636,-19.638,-19.655,-19.665,-19.654,-19.66,-19.644,-19.65,-19.673,-19.679,-19.655,-19.672,-19.669,-19.681,-19.674,-19.671,-19.666,-19.661,-19.697,-19.698,-19.697,-19.691,-19.718,-19.766,-19.809,-19.751,-19.628,-19.387,-19.12,-18.827,-18.506,-18.412,-18.649,-19.056,-19.459,-19.748,-19.769,-19.739,-19.707,-19.646,-19.618,-19.583,-19.61,-19.595,-19.613,-19.608,-19.607,-19.594,-19.597,-19.603,-19.616,-19.578,-19.594,-19.569,-19.573,-19.582,-19.57,-19.562,-19.556,-19.571,-19.557,-19.536,-19.528,-19.522,-19.527,-19.528,-19.542,-19.515,-19.504,-19.5,-19.5,-19.481,-19.477,-19.466,-19.463,-19.466,-19.457,-19.428,-19.405,-19.421,-19.399,-19.388,-19.363,-19.353,-19.341,-19.34,-19.327,-19.308,-19.267,-19.276,-19.256,-19.261,-19.23,-19.212,-19.203,-19.196,-19.196,-19.18,-19.164,-19.182,-19.198,-19.22,-19.233,-19.263,-19.301,-19.314,-19.355,-19.395,-19.415,-19.445,-19.478,-19.532,-19.54,-19.556,-19.566,-19.579,-19.594,-19.605,-19.598,-19.597,-19.612,-19.612,-19.622,-19.61,-19.616,-19.619,-19.62,-19.632,-19.609,-19.599,-19.607,-19.61,-19.615,-19.613,-19.601,-19.596,-19.621,-19.612,-19.611,-19.599,-19.597,-19.622,-19.616,-19.61,-19.604,-19.604,-19.599,-19.623,-19.622,-19.608,-19.605,-19.605,-19.62,-19.616,-19.612,-19.612,-19.604,-19.625,-19.611,-19.613,-19.612,-19.609,-19.625,-19.625,-19.607,-19.601,-19.612,-19.617,-19.622,-19.622,-19.607,-19.626,-19.628,-19.646,-19.628,-19.62,-19.618,-19.63,-19.632,-19.629,-19.627,-19.638,-19.636,-19.636,-19.649,-19.648,-19.636,-19.656,-19.668,-19.68,-19.661,-19.647,-19.647,-19.665,-19.662,-19.658,-19.655,-19.655,-19.661,-19.654,-19.629,-19.611,-19.614,-19.618,-19.604,-19.602,-19.583,-19.556,-19.534,-19.542,-19.541,-19.54,-19.568,-19.566,-19.586,-19.589,-19.595,-19.609,-19.651,-19.671,-19.652,-19.639,-19.654,-19.644,-19.649,-19.651,-19.647,-19.623,-19.639,-19.658,-19.66,-19.634,-19.637,-19.634,-19.656,-19.654,-19.645,-19.637,-19.644,-19.693,-19.729,-19.696,-19.564,-19.358,-19.132,-18.817,-18.614,-18.397,-18.364,-18.716,-19.129,-19.513,-19.717,-19.719,-19.666,-19.622,-19.577,-19.542,-19.549,-19.565,-19.572,-19.556,-19.557,-19.564,-19.565,-19.564,-19.574,-19.546,-19.56,-19.548,-19.557,-19.532,-19.548,-19.541,-19.534,-19.542,-19.521,-19.521,-19.494,-19.516,-19.502,-19.494,-19.484,-19.476,-19.466,-19.468,-19.479,-19.45,-19.424,-19.429,-19.431,-19.433,-19.408,-19.381,-19.38,-19.361,-19.375,-19.333,-19.33,-19.309,-19.304,-19.283,-19.267,-19.254,-19.23,-19.229,-19.215,-19.185,-19.172,-19.157,-19.148,-19.147,-19.135,-19.104,-19.092,-19.112,-19.122,-19.141,-19.128,-19.159,-19.209,-19.263,-19.283,-19.312,-19.328,-19.373,-19.397,-19.436,-19.445,-19.454,-19.485,-19.513,-19.512,-19.532,-19.515,-19.52,-19.532,-19.54,-19.545,-19.532,-19.544,-19.527,-19.548,-19.55,-19.53,-19.533,-19.533,-19.543,-19.544,-19.526,-19.522,-19.539,-19.536,-19.522,-19.522,-19.522,-19.53,-19.547,-19.537,-19.539,-19.5,-19.535,-19.538,-19.544,-19.537,-19.528,-19.535,-19.543,-19.546,-19.546,-19.545,-19.535,-19.548,-19.562,-19.569,-19.559,-19.556,-19.574,-19.576,-19.584,-19.582,-19.579,-19.574,-19.603,-19.591,-19.577,-19.587,-19.579,-19.604,-19.603,-19.593,-19.593,-19.603,-19.605,-19.603,-19.591,-19.584,-19.596,-19.624,-19.613,-19.578,-19.593,-19.592,-19.607,-19.611,-19.596,-19.593,-19.595,-19.609,-19.608,-19.604,-19.605,-19.602,-19.611,-19.61,-19.603,-19.613,-19.594,-19.597,-19.598,-19.582,-19.56,-19.566,-19.565,-19.566,-19.549,-19.508,-19.485,-19.494,-19.485,-19.516,-19.529,-19.523,-19.544,-19.561,-19.557,-19.568,-19.589,-19.605,-19.627,-19.6,-19.588,-19.602,-19.597,-19.629,-19.621,-19.62,-19.621,-19.613,-19.623,-19.637,-19.629,-19.638,-19.641,-19.643,-19.651,-19.64,-19.639,-19.658,-19.725,-19.758,-19.692,-19.521,-19.304,-19.035,-18.713,-18.433,-18.376,-18.455,-18.857,-19.276,-19.656,-19.766,-19.725,-19.669,-19.627,-19.61,-19.575,-19.6,-19.572,-19.633,-19.601,-19.61,-19.577,-19.604,-19.61,-19.622,-19.597,-19.608,-19.592,-19.609,-19.606,-19.594,-19.584,-19.594,-19.593,-19.595,-19.586,-19.591,-19.563,-19.568,-19.561,-19.572,-19.534,-19.539,-19.541,-19.533,-19.528,-19.507,-19.499,-19.491,-19.483,-19.465,-19.449,-19.427,-19.395,-19.409,-19.387,-19.373,-19.318,-19.316,-19.3,-19.284,-19.254,-19.198,-19.223,-19.194,-19.188,-19.166,-19.156,-19.138,-19.141,-19.121,-19.146,-19.113,-19.127,-19.142,-19.163,-19.178,-19.184,-19.24,-19.296,-19.319,-19.351,-19.375,-19.418,-19.446,-19.482,-19.467,-19.499,-19.515,-19.518,-19.54,-19.556,-19.551,-19.537,-19.548,-19.575,-19.57,-19.56,-19.528,-19.552,-19.562,-19.566,-19.551,-19.548,-19.544,-19.548,-19.537,-19.534,-19.535,-19.535,-19.539,-19.543,-19.528,-19.529,-19.538,-19.542,-19.543,-19.549,-19.53,-19.535,-19.53,-19.537,-19.53,-19.527,-19.524,-19.533,-19.539,-19.546,-19.542,-19.538,-19.524,-19.544,-19.549,-19.542,-19.548,-19.543,-19.559,-19.55,-19.55,-19.535,-19.55,-19.565,-19.564,-19.555,-19.542,-19.546,-19.551,-19.559,-19.572,-19.564,-19.556,-19.538,-19.563,-19.547,-19.519,-19.533,-19.514,-19.54,-19.49,-19.475,-19.472,-19.444,-19.455,-19.462,-19.466,-19.468,-19.492,-19.51,-19.516,-19.509,-19.533,-19.57,-19.594,-19.588,-19.594,-19.57,-19.583,-19.578,-19.609,-19.589,-19.587,-19.577,-19.604,-19.615,-19.602,-19.595,-19.592,-19.619,-19.599,-19.612,-19.589,-19.581,-19.587,-19.618,-19.664,-19.707,-19.687,-19.547,-19.327,-19.078,-18.778,-18.464,-18.383,-18.544,-19.004,-19.373,-19.556,-19.719,-19.723,-19.682,-19.635,-19.591,-19.569,-19.594,-19.569,-19.564,-19.576,-19.592,-19.614,-19.582,-19.578,-19.552,-19.563,-19.578,-19.579,-19.564,-19.567,-19.545,-19.558,-19.552,-19.547,-19.527,-19.516,-19.521,-19.522,-19.516,-19.485,-19.491,-19.485,-19.478,-19.461,-19.444,-19.429,-19.424,-19.415,-19.395,-19.38,-19.374,-19.374,-19.359,-19.334,-19.316,-19.3,-19.285,-19.283,-19.271,-19.245,-19.221,-19.207,-19.192,-19.193,-19.165,-19.153,-19.132,-19.135,-19.127,-19.114,-19.109,-19.111,-19.127,-19.116,-19.13,-19.157,-19.185,-19.212,-19.245,-19.285,-19.309,-19.337,-19.377,-19.411,-19.449,-19.47,-19.482,-19.502,-19.516,-19.536,-19.533,-19.543,-19.539,-19.573,-19.573,-19.56,-19.567,-19.56,-19.594,-19.592,-19.586,-19.569,-19.587,-19.581,-19.583,-19.569,-19.558,-19.575,-19.561,-19.552,-19.552,-19.539,-19.535,-19.537,-19.534,-19.539,-19.516,-19.519,-19.526,-19.529,-19.536,-19.516,-19.524,-19.542,-19.554,-19.563,-19.564,-19.55,-19.576,-19.579,-19.567,-19.573,-19.566,-19.566,-19.592,-19.585,-19.584,-19.577,-19.57,-19.578,-19.579,-19.555,-19.537,-19.528,-19.538,-19.526,-19.507,-19.481,-19.457,-19.44,-19.45,-19.45,-19.459,-19.478,-19.479,-19.503,-19.501,-19.5,-19.523,-19.556,-19.577,-19.572,-19.558,-19.549,-19.571,-19.585,-19.567,-19.574,-19.569,-19.575,-19.58,-19.586,-19.585,-19.576,-19.584,-19.583,-19.592,-19.585,-19.58,-19.587,-19.603,-19.607,-19.626,-19.664,-19.684,-19.597,-19.42,-19.178,-18.892,-18.547,-18.352,-18.323,-18.507,-18.925,-19.297,-19.639,-19.686,-19.669,-19.592,-19.525,-19.532,-19.493,-19.514,-19.502,-19.511,-19.493,-19.506,-19.501,-19.49,-19.493,-19.491,-19.484,-19.485,-19.485,-19.462,-19.468,-19.469,-19.463,-19.475,-19.448,-19.433,-19.443,-19.449,-19.437,-19.428,-19.426,-19.431,-19.419,-19.402,-19.386,-19.395,-19.393,-19.394,-19.38,-19.349,-19.343,-19.333,-19.31,-19.32,-19.285,-19.265,-19.269,-19.271,-19.247,-19.218,-19.205,-19.189,-19.184,-19.166,-19.142,-19.111,-19.1,-19.105,-19.097,-19.081,-19.073,-19.067,-19.088,-19.072,-19.089,-19.104,-19.135,-19.172,-19.206,-19.234,-19.265,-19.29,-19.338,-19.374,-19.392,-19.409,-19.427,-19.453,-19.483,-19.486,-19.485,-19.483,-19.498,-19.511,-19.496,-19.495,-19.495,-19.499,-19.524,-19.519,-19.517,-19.502,-19.509,-19.523,-19.52,-19.501,-19.494,-19.496,-19.515,-19.508,-19.501,-19.485,-19.491,-19.495,-19.501,-19.496,-19.49,-19.483,-19.504,-19.498,-19.494,-19.484,-19.488,-19.493,-19.494,-19.502,-19.487,-19.498,-19.5,-19.517,-19.512,-19.503,-19.505,-19.504,-19.517,-19.523,-19.502,-19.51,-19.521,-19.538,-19.523,-19.516,-19.513,-19.512,-19.537,-19.529,-19.512,-19.517,-19.517,-19.524,-19.524,-19.518,-19.513,-19.512,-19.527,-19.541,-19.523,-19.514,-19.522,-19.53,-19.532,-19.532,-19.515,-19.529,-19.536,-19.538,-19.515,-19.496,-19.482,-19.487,-19.498,-19.485,-19.474,-19.446,-19.416,-19.417,-19.437,-19.451,-19.455,-19.472,-19.49,-19.493,-19.49,-19.5,-19.52,-19.556,-19.572,-19.57,-19.559,-19.548,-19.568,-19.564,-19.567,-19.555,-19.55,-19.566,-19.568,-19.564,-19.558,-19.566,-19.564,-19.585,-19.579,-19.56,-19.563,-19.566,-19.581,-19.59,-19.589,-19.631,-19.637,-19.541,-19.364,-19.135,-18.871,-18.512,-18.303,-18.359,-18.719,-19.138,-19.504,-19.667,-19.663,-19.59,-19.516,-19.497,-19.495,-19.501,-19.496,-19.501,-19.487,-19.493,-19.502,-19.501,-19.484,-19.479,-19.487,-19.496,-19.48,-19.473,-19.464,-19.481,-19.472,-19.475,-19.457,-19.441,-19.455,-19.471,-19.449,-19.452,-19.419,-19.425,-19.438,-19.429,-19.403,-19.393,-19.386,-19.401,-19.39,-19.364,-19.344,-19.338,-19.346,-19.327,-19.307,-19.296,-19.278,-19.276,-19.26,-19.244,-19.215,-19.195,-19.189,-19.168,-19.153,-19.12,-19.109,-19.102,-19.104,-19.07,-19.053,-19.035,-19.051,-19.061,-19.058,-19.074,-19.083,-19.094,-19.137,-19.18,-19.201,-19.244,-19.282,-19.324,-19.351,-19.38,-19.403,-19.433,-19.467,-19.47,-19.47,-19.469,-19.492,-19.501,-19.511,-19.506,-19.499,-19.498,-19.513,-19.52,-19.514,-19.504,-19.508,-19.508,-19.518,-19.512,-19.499,-19.506,-19.5,-19.523,-19.513,-19.489,-19.501,-19.495,-19.506,-19.5,-19.492,-19.494,-19.492,-19.512,-19.494,-19.483,-19.494,-19.506,-19.505,-19.505,-19.507,-19.482,-19.491,-19.51,-19.511,-19.505,-19.494,-19.499,-19.512,-19.515,-19.516,-19.51,-19.511,-19.528,-19.528,-19.519,-19.514,-19.521,-19.532,-19.542,-19.529,-19.507,-19.528,-19.525,-19.538,-19.53,-19.524,-19.518,-19.521,-19.542,-19.529,-19.519,-19.529,-19.525,-19.538,-19.539,-19.526,-19.521,-19.529,-19.543,-19.541,-19.53,-19.52,-19.531,-19.545,-19.543,-19.53,-19.527,-19.535,-19.542,-19.542,-19.524,-19.522,-19.528,-19.538,-19.53,-19.532,-19.521,-19.534,-19.54,-19.552,-19.542,-19.517,-19.533,-19.531,-19.544,-19.54,-19.525,-19.526,-19.537,-19.551,-19.548,-19.534,-19.537,-19.538,-19.547,-19.544,-19.543,-19.532,-19.539,-19.553,-19.54,-19.529,-19.524,-19.529,-19.548,-19.552,-19.554,-19.538,-19.541,-19.544,-19.545,-19.546,-19.535,-19.516,-19.511,-19.512,-19.509,-19.474,-19.495,-19.487,-19.458,-19.435,-19.433,-19.455,-19.469,-19.493,-19.489,-19.487,-19.496,-19.51,-19.545,-19.555,-19.572,-19.563,-19.563,-19.584,-19.576,-19.574,-19.569,-19.569,-19.592,-19.588,-19.565,-19.579,-19.586,-19.596,-19.59,-19.583,-19.571,-19.567,-19.6,-19.594,-19.594,-19.58,-19.572,-19.582,-19.592,-19.637,-19.653,-19.607,-19.471,-19.284,-19.052,-18.744,-18.395,-18.315,-18.538,-18.95,-19.322,-19.622,-19.69,-19.638,-19.612,-19.529,-19.497,-19.477,-19.52,-19.519,-19.524,-19.523,-19.525,-19.525,-19.524,-19.507,-19.498,-19.491,-19.505,-19.499,-19.502,-19.495,-19.489,-19.504,-19.51,-19.487,-19.463,-19.468,-19.469,-19.484,-19.466,-19.448,-19.461,-19.446,-19.453,-19.429,-19.408,-19.426,-19.41,-19.405,-19.393,-19.377,-19.364,-19.354,-19.359,-19.351,-19.321,-19.294,-19.289,-19.278,-19.287,-19.255,-19.227,-19.212,-19.189,-19.193,-19.143,-19.143,-19.136,-19.117,-19.115,-19.099,-19.078,-19.086,-19.089,-19.089,-19.084,-19.072,-19.104,-19.145,-19.175,-19.205,-19.236,-19.275,-19.326,-19.363,-19.396,-19.407,-19.445,-19.449,-19.471,-19.514,-19.509,-19.507,-19.51,-19.539,-19.538,-19.534,-19.526,-19.537,-19.551,-19.537,-19.539,-19.528,-19.528,-19.548,-19.538,-19.54,-19.519,-19.526,-19.527,-19.533,-19.535,-19.52,-19.51,-19.523,-19.51,-19.523,-19.51,-19.516,-19.524,-19.527,-19.526,-19.506,-19.507,-19.514,-19.529,-19.522,-19.519,-19.518,-19.521,-19.525,-19.528,-19.516,-19.517,-19.527,-19.545,-19.545,-19.526,-19.533,-19.541,-19.537,-19.553,-19.55,-19.533,-19.54,-19.545,-19.556,-19.557,-19.553,-19.548,-19.56,-19.558,-19.549,-19.541,-19.541,-19.549,-19.558,-19.564,-19.553,-19.542,-19.559,-19.569,-19.559,-19.557,-19.541,-19.566,-19.572,-19.553,-19.541,-19.542,-19.555,-19.577,-19.566,-19.544,-19.537,-19.548,-19.566,-19.575,-19.554,-19.543,-19.539,-19.567,-19.567,-19.551,-19.543,-19.558,-19.568,-19.561,-19.565,-19.545,-19.556,-19.563,-19.56,-19.544,-19.535,-19.528,-19.526,-19.527,-19.509,-19.511,-19.506,-19.492,-19.467,-19.448,-19.448,-19.468,-19.495,-19.51,-19.504,-19.504,-19.508,-19.531,-19.556,-19.565,-19.562,-19.558,-19.567,-19.59,-19.604,-19.587,-19.563,-19.575,-19.582,-19.586,-19.582,-19.573,-19.593,-19.592,-19.6,-19.591,-19.579,-19.578,-19.591,-19.6,-19.591,-19.585,-19.604,-19.655,-19.687,-19.59,-19.389,-19.161,-18.891,-18.54,-18.343,-18.37,-18.748,-19.145,-19.515,-19.677,-19.644,-19.596,-19.538,-19.53,-19.503,-19.507,-19.498,-19.521,-19.514,-19.532,-19.507,-19.508,-19.499,-19.516,-19.51,-19.506,-19.48,-19.493,-19.488,-19.483,-19.486,-19.469,-19.473,-19.485,-19.476,-19.484,-19.454,-19.46,-19.458,-19.453,-19.446,-19.434,-19.422,-19.422,-19.43,-19.415,-19.4,-19.383,-19.38,-19.386,-19.374,-19.343,-19.328,-19.331,-19.322,-19.308,-19.281,-19.249,-19.233,-19.239,-19.214,-19.205,-19.18,-19.17,-19.162,-19.133,-19.119,-19.096,-19.095,-19.103,-19.096,-19.083,-19.081,-19.095,-19.103,-19.125,-19.157,-19.177,-19.216,-19.261,-19.318,-19.336,-19.361,-19.386,-19.432,-19.469,-19.48,-19.485,-19.496,-19.523,-19.543,-19.546,-19.532,-19.53,-19.548,-19.549,-19.559,-19.544,-19.545,-19.536,-19.559,-19.551,-19.552,-19.537,-19.543,-19.558,-19.547,-19.55,-19.535,-19.528,-19.555,-19.532,-19.535,-19.518,-19.537,-19.539,-19.546,-19.543,-19.53,-19.513,-19.525,-19.539,-19.535,-19.525,-19.532,-19.54,-19.537,-19.542,-19.526,-19.528,-19.546,-19.556,-19.546,-19.544,-19.543,-19.55,-19.557,-19.552,-19.542,-19.546,-19.551,-19.562,-19.574,-19.557,-19.557,-19.546,-19.553,-19.573,-19.563,-19.549,-19.544,-19.574,-19.572,-19.556,-19.552,-19.548,-19.559,-19.573,-19.572,-19.56,-19.554,-19.552,-19.561,-19.563,-19.558,-19.56,-19.554,-19.574,-19.574,-19.548,-19.555,-19.555,-19.574,-19.57,-19.557,-19.561,-19.549,-19.56,-19.545,-19.523,-19.512,-19.515,-19.514,-19.522,-19.516,-19.482,-19.453,-19.463,-19.484,-19.5,-19.493,-19.515,-19.518,-19.535,-19.527,-19.531,-19.564,-19.582,-19.605,-19.597,-19.578,-19.6,-19.604,-19.619,-19.62,-19.596,-19.596,-19.607,-19.615,-19.603,-19.591,-19.601,-19.612,-19.622,-19.608,-19.603,-19.593,-19.592,-19.616,-19.644,-19.688,-19.677,-19.57,-19.392,-19.168,-18.904,-18.52,-18.324,-18.402,-18.797,-19.209,-19.551,-19.691,-19.683,-19.627,-19.583,-19.536,-19.509,-19.551,-19.538,-19.552,-19.533,-19.529,-19.542,-19.538,-19.539,-19.526,-19.505,-19.517,-19.522,-19.536,-19.509,-19.502,-19.503,-19.517,-19.503,-19.497,-19.474,-19.487,-19.483,-19.486,-19.477,-19.467,-19.458,-19.461,-19.468,-19.449,-19.427,-19.414,-19.412,-19.422,-19.404,-19.389,-19.365,-19.375,-19.35,-19.353,-19.32,-19.306,-19.298,-19.277,-19.267,-19.236,-19.2,-19.203,-19.198,-19.174,-19.152,-19.126,-19.121,-19.125,-19.11,-19.093,-19.084,-19.086,-19.106,-19.103,-19.127,-19.13,-19.169,-19.216,-19.255,-19.289,-19.314,-19.357,-19.401,-19.436,-19.452,-19.472,-19.487,-19.521,-19.536,-19.543,-19.529,-19.538,-19.569,-19.576,-19.577,-19.567,-19.57,-19.554,-19.588,-19.578,-19.57,-19.565,-19.573,-19.582,-19.58,-19.561,-19.56,-19.565,-19.578,-19.579,-19.562,-19.555,-19.557,-19.568,-19.564,-19.567,-19.546,-19.547,-19.566,-19.57,-19.561,-19.536,-19.56,-19.556,-19.57,-19.56,-19.549,-19.557,-19.558,-19.57,-19.564,-19.552,-19.549,-19.559,-19.558,-19.585,-19.558,-19.552,-19.562,-19.584,-19.584,-19.566,-19.58,-19.564,-19.585,-19.574,-19.565,-19.569,-19.571,-19.592,-19.595,-19.576,-19.584,-19.574,-19.587,-19.584,-19.591,-19.579,-19.569,-19.601,-19.594,-19.585,-19.587,-19.58,-19.583,-19.586,-19.582,-19.564,-19.575,-19.591,-19.592,-19.586,-19.566,-19.569,-19.58,-19.596,-19.598,-19.565,-19.579,-19.58,-19.583,-19.589,-19.571,-19.571,-19.583,-19.589,-19.594,-19.592,-19.571,-19.602,-19.594,-19.595,-19.577,-19.584,-19.585,-19.582,-19.598,-19.598,-19.564,-19.576,-19.576,-19.552,-19.558,-19.534,-19.525,-19.539,-19.535,-19.504,-19.469,-19.454,-19.476,-19.516,-19.525,-19.522,-19.525,-19.534,-19.556,-19.554,-19.572,-19.58,-19.601,-19.609,-19.616,-19.616,-19.604,-19.617,-19.622,-19.609,-19.609,-19.608,-19.616,-19.631,-19.612,-19.621,-19.61,-19.624,-19.622,-19.631,-19.621,-19.61,-19.619,-19.657,-19.693,-19.693,-19.57,-19.389,-19.177,-18.946,-18.561,-18.326,-18.421,-18.828,-19.247,-19.576,-19.69,-19.693,-19.646,-19.579,-19.541,-19.53,-19.533,-19.539,-19.565,-19.551,-19.557,-19.537,-19.549,-19.546,-19.554,-19.534,-19.532,-19.511,-19.528,-19.525,-19.524,-19.494,-19.495,-19.5,-19.494,-19.475,-19.473,-19.461,-19.484,-19.474,-19.461,-19.453,-19.446,-19.447,-19.443,-19.423,-19.414,-19.399,-19.402,-19.391,-19.378,-19.373,-19.348,-19.355,-19.35,-19.335,-19.314,-19.278,-19.251,-19.244,-19.23,-19.187,-19.172,-19.164,-19.157,-19.126,-19.105,-19.088,-19.066,-19.087,-19.089,-19.059,-19.051,-19.045,-19.064,-19.084,-19.096,-19.098,-19.146,-19.191,-19.234,-19.277,-19.296,-19.352,-19.4,-19.432,-19.449,-19.47,-19.493,-19.503,-19.535,-19.538,-19.534,-19.529,-19.545,-19.557,-19.562,-19.55,-19.548,-19.564,-19.574,-19.57,-19.563,-19.553,-19.563,-19.57,-19.574,-19.563,-19.556,-19.565,-19.568,-19.566,-19.562,-19.548,-19.548,-19.55,-19.565,-19.56,-19.543,-19.554,-19.549,-19.554,-19.55,-19.542,-19.549,-19.564,-19.56,-19.553,-19.546,-19.552,-19.557,-19.568,-19.575,-19.56,-19.555,-19.554,-19.566,-19.579,-19.56,-19.551,-19.566,-19.584,-19.58,-19.576,-19.58,-19.572,-19.581,-19.601,-19.573,-19.573,-19.571,-19.586,-19.588,-19.59,-19.574,-19.582,-19.577,-19.589,-19.596,-19.588,-19.58,-19.596,-19.592,-19.604,-19.58,-19.573,-19.58,-19.595,-19.586,-19.581,-19.583,-19.591,-19.601,-19.593,-19.588,-19.572,-19.584,-19.596,-19.592,-19.601,-19.571,-19.578,-19.587,-19.6,-19.592,-19.579,-19.591,-19.598,-19.595,-19.572,-19.579,-19.583,-19.59,-19.603,-19.599,-19.575,-19.56,-19.554,-19.557,-19.557,-19.536,-19.54,-19.526,-19.511,-19.481,-19.453,-19.495,-19.519,-19.525,-19.534,-19.536,-19.538,-19.543,-19.574,-19.599,-19.601,-19.602,-19.614,-19.638,-19.617,-19.605,-19.595,-19.616,-19.617,-19.618,-19.608,-19.607,-19.617,-19.62,-19.618,-19.624,-19.619,-19.61,-19.625,-19.635,-19.626,-19.603,-19.649,-19.718,-19.711,-19.573,-19.362,-19.122,-18.868,-18.492,-18.374,-18.493,-18.902,-19.303,-19.646,-19.736,-19.681,-19.663,-19.581,-19.56,-19.531,-19.556,-19.524,-19.56,-19.563,-19.59,-19.546,-19.555,-19.537,-19.557,-19.538,-19.55,-19.526,-19.542,-19.528,-19.547,-19.51,-19.509,-19.505,-19.529,-19.525,-19.512,-19.491,-19.49,-19.475,-19.497,-19.501,-19.475,-19.479,-19.45,-19.46,-19.452,-19.435,-19.429,-19.415,-19.408,-19.41,-19.398,-19.371,-19.362,-19.36,-19.331,-19.321,-19.294,-19.281,-19.276,-19.262,-19.232,-19.215,-19.2,-19.195,-19.179,-19.157,-19.134,-19.128,-19.137,-19.136,-19.126,-19.118,-19.122,-19.149,-19.175,-19.198,-19.22,-19.256,-19.306,-19.342,-19.38,-19.405,-19.433,-19.476,-19.492,-19.525,-19.531,-19.553,-19.558,-19.575,-19.568,-19.573,-19.567,-19.586,-19.574,-19.596,-19.594,-19.564,-19.562,-19.585,-19.589,-19.583,-19.563,-19.583,-19.579,-19.578,-19.571,-19.568,-19.571,-19.568,-19.568,-19.573,-19.56,-19.548,-19.56,-19.574,-19.575,-19.563,-19.553,-19.557,-19.57,-19.575,-19.554,-19.56,-19.574,-19.577,-19.575,-19.553,-19.57,-19.569,-19.573,-19.582,-19.578,-19.559,-19.576,-19.599,-19.598,-19.607,-19.57,-19.574,-19.593,-19.605,-19.592,-19.578,-19.579,-19.596,-19.592,-19.597,-19.594,-19.59,-19.591,-19.61,-19.599,-19.585,-19.57,-19.586,-19.594,-19.579,-19.566,-19.555,-19.553,-19.555,-19.543,-19.531,-19.506,-19.486,-19.49,-19.497,-19.507,-19.511,-19.53,-19.534,-19.569,-19.55,-19.557,-19.566,-19.607,-19.616,-19.618,-19.607,-19.61,-19.625,-19.626,-19.613,-19.606,-19.603,-19.625,-19.619,-19.607,-19.598,-19.597,-19.605,-19.621,-19.622,-19.604,-19.597,-19.6,-19.619,-19.647,-19.681,-19.674,-19.577,-19.414,-19.165,-18.878,-18.526,-18.353,-18.412,-18.812,-19.191,-19.573,-19.683,-19.691,-19.681,-19.604,-19.552,-19.52,-19.55,-19.55,-19.569,-19.545,-19.572,-19.562,-19.574,-19.542,-19.554,-19.535,-19.543,-19.552,-19.546,-19.52,-19.534,-19.533,-19.545,-19.535,-19.537,-19.514,-19.514,-19.505,-19.512,-19.496,-19.492,-19.482,-19.489,-19.493,-19.465,-19.457,-19.463,-19.451,-19.437,-19.43,-19.423,-19.395,-19.407,-19.391,-19.365,-19.337,-19.328,-19.319,-19.306,-19.281,-19.257,-19.244,-19.234,-19.226,-19.204,-19.174,-19.157,-19.16,-19.161,-19.126,-19.102,-19.121,-19.114,-19.128,-19.141,-19.146,-19.169,-19.214,-19.247,-19.289,-19.316,-19.351,-19.4,-19.431,-19.461,-19.476,-19.493,-19.51,-19.546,-19.548,-19.54,-19.554,-19.555,-19.581,-19.57,-19.578,-19.566,-19.57,-19.584,-19.584,-19.578,-19.58,-19.574,-19.589,-19.589,-19.589,-19.568,-19.568,-19.571,-19.57,-19.559,-19.555,-19.56,-19.567,-19.57,-19.58,-19.564,-19.564,-19.564,-19.579,-19.574,-19.573,-19.558,-19.563,-19.575,-19.573,-19.563,-19.545,-19.563,-19.594,-19.588,-19.582,-19.566,-19.573,-19.584,-19.597,-19.586,-19.58,-19.589,-19.585,-19.602,-19.591,-19.579,-19.585,-19.604,-19.605,-19.605,-19.593,-19.596,-19.605,-19.605,-19.607,-19.588,-19.587,-19.603,-19.611,-19.602,-19.603,-19.596,-19.597,-19.614,-19.608,-19.607,-19.603,-19.607,-19.622,-19.615,-19.591,-19.598,-19.597,-19.609,-19.599,-19.581,-19.561,-19.566,-19.554,-19.564,-19.546,-19.517,-19.497,-19.492,-19.532,-19.541,-19.534,-19.551,-19.558,-19.572,-19.58,-19.589,-19.614,-19.638,-19.661,-19.65,-19.636,-19.632,-19.632,-19.647,-19.649,-19.645,-19.637,-19.629,-19.655,-19.657,-19.638,-19.621,-19.644,-19.653,-19.659,-19.643,-19.638,-19.648,-19.645,-19.693,-19.727,-19.665,-19.533,-19.333,-19.099,-18.812,-18.427,-18.335,-18.556,-19.002,-19.401,-19.711,-19.75,-19.706,-19.653,-19.57,-19.555,-19.555,-19.574,-19.567,-19.584,-19.57,-19.573,-19.562,-19.582,-19.569,-19.561,-19.553,-19.557,-19.561,-19.568,-19.53,-19.536,-19.533,-19.544,-19.54,-19.53,-19.512,-19.514,-19.518,-19.522,-19.513,-19.492,-19.489,-19.484,-19.478,-19.486,-19.456,-19.448,-19.457,-19.428,-19.438,-19.407,-19.383,-19.393,-19.382,-19.366,-19.326,-19.322,-19.31,-19.303,-19.289,-19.262,-19.237,-19.227,-19.23,-19.191,-19.172,-19.156,-19.146,-19.146,-19.142,-19.113,-19.105,-19.106,-19.131,-19.14,-19.148,-19.19,-19.206,-19.242,-19.28,-19.303,-19.342,-19.381,-19.418,-19.466,-19.486,-19.498,-19.513,-19.54,-19.569,-19.561,-19.573,-19.581,-19.585,-19.599,-19.601,-19.595,-19.601,-19.603,-19.619,-19.6,-19.594,-19.588,-19.582,-19.604,-19.611,-19.595,-19.58,-19.577,-19.589,-19.586,-19.582,-19.574,-19.57,-19.585,-19.577,-19.573,-19.566,-19.553,-19.578,-19.574,-19.573,-19.569,-19.562,-19.576,-19.597,-19.574,-19.564,-19.564,-19.563,-19.592,-19.589,-19.574,-19.569,-19.586,-19.593,-19.589,-19.592,-19.579,-19.58,-19.597,-19.604,-19.583,-19.579,-19.585,-19.602,-19.598,-19.589,-19.584,-19.597,-19.604,-19.593,-19.589,-19.578,-19.588,-19.612,-19.604,-19.606,-19.595,-19.59,-19.603,-19.608,-19.6,-19.585,-19.592,-19.597,-19.6,-19.604,-19.592,-19.596,-19.6,-19.599,-19.602,-19.586,-19.596,-19.586,-19.6,-19.603,-19.594,-19.596,-19.588,-19.602,-19.605,-19.584,-19.576,-19.595,-19.601,-19.612,-19.596,-19.589,-19.596,-19.585,-19.572,-19.559,-19.551,-19.569,-19.607,-19.614,-19.599,-19.579,-19.551,-19.553,-19.554,-19.556,-19.535,-19.534,-19.516,-19.495,-19.472,-19.471,-19.492,-19.505,-19.538,-19.536,-19.529,-19.541,-19.568,-19.542,-19.602,-19.606,-19.607,-19.621,-19.62,-19.631,-19.627,-19.601,-19.617,-19.618,-19.623,-19.635,-19.622,-19.62,-19.625,-19.622,-19.594,-19.609,-19.641,-19.646,-19.651,-19.626,-19.618,-19.604,-19.644,-19.685,-19.662,-19.534,-19.327,-19.107,-18.863,-18.485,-18.338,-18.478,-18.908,-19.328,-19.655,-19.75,-19.677,-19.63,-19.584,-19.548,-19.53,-19.543,-19.535,-19.564,-19.547,-19.55,-19.546,-19.55,-19.544,-19.551,-19.538,-19.508,-19.506,-19.526,-19.529,-19.535,-19.51,-19.53,-19.516,-19.527,-19.502,-19.487,-19.454,-19.48,-19.5,-19.494,-19.465,-19.453,-19.453,-19.456,-19.434,-19.424,-19.399,-19.387,-19.386,-19.404,-19.378,-19.379,-19.366,-19.349,-19.336,-19.309,-19.276,-19.273,-19.256,-19.239,-19.191,-19.173,-19.181,-19.174,-19.146,-19.142,-19.108,-19.09,-19.093,-19.088,-19.057,-19.049,-19.056,-19.061,-19.083,-19.107,-19.118,-19.155,-19.204,-19.256,-19.286,-19.308,-19.349,-19.393,-19.45,-19.474,-19.485,-19.486,-19.52,-19.527,-19.547,-19.522,-19.524,-19.529,-19.543,-19.564,-19.57,-19.531,-19.548,-19.545,-19.552,-19.549,-19.556,-19.558,-19.558,-19.552,-19.575,-19.546,-19.55,-19.552,-19.556,-19.543,-19.54,-19.538,-19.54,-19.558,-19.544,-19.53,-19.539,-19.536,-19.539,-19.534,-19.525,-19.539,-19.542,-19.557,-19.559,-19.545,-19.543,-19.544,-19.548,-19.542,-19.531,-19.516,-19.546,-19.563,-19.57,-19.56,-19.547,-19.548,-19.558,-19.574,-19.553,-19.538,-19.552,-19.556,-19.564,-19.554,-19.558,-19.562,-19.563,-19.573,-19.574,-19.564,-19.543,-19.542,-19.555,-19.571,-19.564,-19.56,-19.564,-19.567,-19.584,-19.556,-19.567,-19.559,-19.566,-19.573,-19.573,-19.56,-19.562,-19.575,-19.575,-19.569,-19.545,-19.564,-19.568,-19.577,-19.572,-19.571,-19.571,-19.587,-19.571,-19.561,-19.548,-19.54,-19.541,-19.555,-19.545,-19.508,-19.498,-19.483,-19.463,-19.464,-19.446,-19.473,-19.501,-19.519,-19.515,-19.521,-19.525,-19.538,-19.571,-19.587,-19.574,-19.584,-19.594,-19.605,-19.613,-19.592,-19.572,-19.595,-19.61,-19.615,-19.608,-19.594,-19.592,-19.598,-19.596,-19.592,-19.584,-19.584,-19.596,-19.612,-19.598,-19.582,-19.583,-19.616,-19.659,-19.662,-19.575,-19.393,-19.172,-19.039,-18.734,-18.361,-18.247,-18.473,-18.944,-19.343,-19.659,-19.682,-19.634,-19.595,-19.52,-19.501,-19.48,-19.505,-19.526,-19.517,-19.507,-19.514,-19.504,-19.51,-19.515,-19.507,-19.5,-19.501,-19.497,-19.514,-19.499,-19.474,-19.465,-19.471,-19.471,-19.473,-19.463,-19.481,-19.474,-19.464,-19.444,-19.437,-19.429,-19.435,-19.446,-19.427,-19.406,-19.4,-19.379,-19.381,-19.38,-19.362,-19.34,-19.315,-19.331,-19.301,-19.282,-19.267,-19.257,-19.255,-19.241,-19.202,-19.181,-19.163,-19.157,-19.154,-19.138,-19.107,-19.101,-19.084,-19.086,-19.075,-19.052,-19.063,-19.072,-19.1,-19.11,-19.12,-19.152,-19.191,-19.252,-19.284,-19.295,-19.316,-19.371,-19.392,-19.439,-19.46,-19.459,-19.487,-19.514,-19.503,-19.514,-19.509,-19.519,-19.545,-19.542,-19.537,-19.533,-19.547,-19.55,-19.547,-19.542,-19.527,-19.528,-19.537,-19.54,-19.543,-19.517,-19.495,-19.519,-19.541,-19.527,-19.515,-19.53,-19.535,-19.538,-19.527,-19.511,-19.506,-19.519,-19.535,-19.521,-19.498,-19.524,-19.517,-19.545,-19.548,-19.521,-19.502,-19.511,-19.541,-19.54,-19.539,-19.539,-19.544,-19.556,-19.554,-19.521,-19.516,-19.521,-19.549,-19.557,-19.539,-19.533,-19.536,-19.565,-19.563,-19.562,-19.537,-19.533,-19.55,-19.571,-19.574,-19.546,-19.54,-19.554,-19.552,-19.552,-19.543,-19.549,-19.559,-19.551,-19.557,-19.557,-19.551,-19.547,-19.571,-19.562,-19.552,-19.532,-19.52,-19.534,-19.531,-19.516,-19.5,-19.482,-19.475,-19.435,-19.457,-19.471,-19.498,-19.496,-19.509,-19.515,-19.503,-19.524,-19.543,-19.573,-19.57,-19.591,-19.579,-19.588,-19.602,-19.595,-19.584,-19.578,-19.587,-19.609,-19.603,-19.607,-19.599,-19.603,-19.605,-19.608,-19.591,-19.598,-19.595,-19.603,-19.615,-19.602,-19.606,-19.627,-19.676,-19.685,-19.583,-19.39,-19.158,-18.88,-18.535,-18.299,-18.311,-18.703,-19.156,-19.553,-19.683,-19.671,-19.662,-19.589,-19.563,-19.507,-19.517,-19.511,-19.52,-19.517,-19.523,-19.515,-19.506,-19.515,-19.539,-19.519,-19.509,-19.504,-19.517,-19.505,-19.518,-19.49,-19.484,-19.476,-19.498,-19.492,-19.471,-19.461,-19.473,-19.462,-19.471,-19.447,-19.437,-19.442,-19.438,-19.424,-19.408,-19.388,-19.393,-19.391,-19.393,-19.376,-19.345,-19.341,-19.336,-19.329,-19.308,-19.27,-19.263,-19.239,-19.233,-19.221,-19.187,-19.169,-19.15,-19.15,-19.125,-19.114,-19.105,-19.098,-19.101,-19.089,-19.084,-19.064,-19.084,-19.118,-19.129,-19.156,-19.184,-19.222,-19.268,-19.303,-19.342,-19.368,-19.412,-19.447,-19.456,-19.475,-19.486,-19.513,-19.522,-19.536,-19.545,-19.526,-19.532,-19.544,-19.552,-19.553,-19.549,-19.547,-19.543,-19.56,-19.561,-19.547,-19.549,-19.549,-19.549,-19.564,-19.532,-19.553,-19.545,-19.54,-19.543,-19.543,-19.519,-19.529,-19.539,-19.54,-19.547,-19.521,-19.528,-19.546,-19.543,-19.544,-19.532,-19.525,-19.531,-19.543,-19.54,-19.536,-19.533,-19.542,-19.555,-19.559,-19.536,-19.552,-19.545,-19.566,-19.563,-19.565,-19.546,-19.561,-19.573,-19.568,-19.557,-19.558,-19.568,-19.567,-19.567,-19.568,-19.552,-19.558,-19.577,-19.576,-19.563,-19.556,-19.556,-19.575,-19.564,-19.562,-19.566,-19.562,-19.578,-19.582,-19.573,-19.562,-19.559,-19.582,-19.578,-19.575,-19.566,-19.566,-19.566,-19.579,-19.582,-19.576,-19.57,-19.575,-19.593,-19.575,-19.563,-19.55,-19.546,-19.558,-19.533,-19.528,-19.522,-19.524,-19.529,-19.48,-19.453,-19.444,-19.471,-19.505,-19.531,-19.526,-19.533,-19.523,-19.553,-19.563,-19.571,-19.58,-19.599,-19.604,-19.616,-19.61,-19.612,-19.604,-19.615,-19.612,-19.604,-19.603,-19.618,-19.616,-19.625,-19.616,-19.601,-19.597,-19.612,-19.619,-19.619,-19.618,-19.614,-19.642,-19.696,-19.7,-19.568,-19.395,-19.183,-18.932,-18.57,-18.394,-18.292,-18.519,-18.988,-19.374,-19.677,-19.706,-19.671,-19.611,-19.564,-19.517,-19.536,-19.537,-19.558,-19.548,-19.552,-19.532,-19.543,-19.542,-19.553,-19.555,-19.537,-19.528,-19.534,-19.546,-19.534,-19.508,-19.498,-19.506,-19.513,-19.509,-19.489,-19.492,-19.502,-19.501,-19.476,-19.472,-19.465,-19.472,-19.481,-19.461,-19.443,-19.426,-19.415,-19.421,-19.404,-19.389,-19.38,-19.376,-19.352,-19.353,-19.328,-19.298,-19.286,-19.279,-19.256,-19.233,-19.213,-19.186,-19.19,-19.191,-19.156,-19.149,-19.124,-19.127,-19.127,-19.112,-19.093,-19.094,-19.109,-19.141,-19.158,-19.173,-19.204,-19.238,-19.284,-19.324,-19.359,-19.395,-19.426,-19.453,-19.472,-19.49,-19.5,-19.516,-19.535,-19.566,-19.553,-19.57,-19.552,-19.567,-19.584,-19.571,-19.568,-19.567,-19.574,-19.588,-19.576,-19.562,-19.573,-19.58,-19.58,-19.576,-19.568,-19.562,-19.56,-19.573,-19.575,-19.564,-19.56,-19.552,-19.577,-19.558,-19.56,-19.556,-19.546,-19.565,-19.57,-19.566,-19.566,-19.562,-19.575,-19.57
