1.8213,1.8173,1.8317,1.8272,1.8218,1.8157,1.8226,1.8295,1.8288,1.8275,1.8243,1.8259,1.8306,1.8252,1.8232,1.822,1.8272,1.8349,1.833,1.8317,1.8247,1.8182,1.8221,1.826,1.8246,1.8148,1.8145,1.8194,1.8175,1.8202,1.8181,1.8171,1.8212,1.8257,1.8254,1.8224,1.8231,1.8284,1.8305,1.8338,1.8355,1.8341,1.8296,1.8312,1.8321,1.8378,1.8302,1.8418,1.8541,1.8628,1.8647,1.8714,1.8737,1.8847,1.8927,1.9047,1.9027,1.912,1.9203,1.9291,1.9295,1.9279,1.9238,1.9146,1.9199,1.9154,1.9144,1.9171,1.9149,1.9295,1.9301,1.9262,1.9318,1.9354,1.9416,1.9439,1.9491,1.9505,1.9464,1.9635,1.9641,1.9689,1.9696,1.9711,1.9759,1.9805,1.9806,1.9782,1.9781,1.9773,1.9884,1.9872,1.9813,1.989,1.9825,1.9884,1.9818,1.9774,1.9816,1.9758,1.9817,1.9781,1.9642,1.9572,1.9573,1.9614,1.9497,1.948,1.9465,1.9354,1.9421,1.9477,1.9419,1.9338,1.9296,1.9357,1.9673,1.9536,1.9345,1.934,1.94,1.9349,1.9403,1.9305,1.9267,1.9195,1.9287,1.9402,1.9297,1.9227,1.9082,1.8886,1.8944,1.8977,1.8987,1.9032,1.9077,1.9148,1.8962,1.8955,1.8916,1.9148,1.94,1.9364,1.8982,1.9209,1.9377,1.9124,1.8926,1.8931,1.9213,1.9112,1.885,1.8839,1.8747,1.8812,1.8904,1.8999,1.9062,1.8938,1.879,1.8853,1.9005,1.9,1.901,1.909,1.9184,1.9346,1.943,1.9487,1.9451,1.9641,1.98,1.9947,2.0131,2.0058,1.9995,2.0176,2.0059,2.0114,2.0235,2.0219,2.0034,1.9902,1.9809,1.9471,1.9258,1.9136,1.8927,1.9014,1.9011,1.8717,1.8679,1.8781,1.8828,1.861,1.872,1.8809,1.8732,1.8767,1.8728,1.8549,1.8563,1.8676,1.9497,2.0962,2.3638,2.6478,2.8857,3.0247,3.0359,2.9647,2.8166,2.4894,1.9275,1.6524,1.6383,1.6744,1.7499,1.7963,1.837,1.8325,1.8257,1.8202,1.8521,1.8424,1.8445,1.8378,1.8387,1.8643,1.8725,1.8551,1.8444,1.8371,1.8452,1.8515,1.8601,1.8588,1.8581,1.8676,1.8664,1.8619,1.85,1.8418,1.8516,1.8508,1.8529,1.851,1.8543,1.8673,1.8821,1.8762,1.8595,1.8481,1.8533,1.8688,1.8728,1.8553,1.8474,1.8533,1.8571,1.855,1.8521,1.8505,1.8599,1.8587,1.8506,1.8497,1.8501,1.8527,1.8615,1.8543,1.8535,1.8468,1.8465,1.8602,1.855,1.8552,1.8569,1.861,1.8568,1.8677,1.8726,1.8641,1.8664,1.8587,1.8781,1.8781,1.8737,1.8753,1.8881,1.9098,1.9087,1.9161,1.9431,1.9514,1.9394,1.9353,1.9523,1.9694,1.942,1.9393,1.9392,1.9502,1.9546,1.9517,1.9516,1.9392,1.9502,1.948,1.9339,1.9547,1.9605,1.9521,1.939,1.9609,1.9576,1.9768,1.9878,1.9589,1.9566,1.9898,2.0093,2.0232,2.0017,1.9856,1.9859,2.0022,2.0174,2.0128,2.019,2.0308,2.0282,2.0107,2.021,2.01,2.0052,1.9829,1.9918,2.0247,2.0673,2.0775,2.0657,1.9868,1.9349,2.0006,2.0271,2.0178,1.9963,2.0115,1.9811,1.9326,1.9582,1.9684,1.9111,1.9177,1.9278,1.9613,1.9504,1.9136,1.9133,1.9308,1.9351,1.956,1.9752,1.9573,1.9665,1.9696,1.9337,1.924,1.9437,1.959,1.935,1.8934,1.9553,1.9548,1.9029,1.9297,1.9462,1.8956,1.8776,1.9237,1.9226,1.8713,1.8698,1.9122,1.9243,1.9365,1.953,1.9902,1.9733,2.0001,1.9992,2.0428,2.0845,2.008,2.0339,2.0436,2.0115,2.067,2.0608,2.0185,1.992,1.9688,1.9605,1.9886,1.9468,1.8855,1.8686,1.8728,1.9038,1.8784,1.8837,1.8752,1.8721,1.8793,1.8855,1.8784,1.8839,1.907,1.9089,1.8848,1.8723,1.8644,1.8945,1.9981,2.2244,2.5085,2.7415,2.9319,3.0542,2.9921,2.9198,2.6918,2.24,1.713,1.606,1.6501,1.7095,1.7389,1.7638,1.8211,1.8177,1.8313,1.8275,1.8354,1.8471,1.8598,1.8541,1.8555,1.8363,1.8567,1.8366,1.8408,1.8736,1.8806,1.8308,1.8457,1.8241,1.8289,1.8254,1.8522,1.8583,1.8617,1.8439,1.8375,1.8457,1.8641,1.8579,1.8366,1.8319,1.8343,1.8415,1.8466,1.8623,1.8809,1.854,1.8508,1.8597,1.8648,1.8831,1.8456,1.8366,1.8401,1.8446,1.8354,1.8316,1.8365,1.8674,1.8712,1.8224,1.8235,1.8335,1.8385,1.8286,1.8171,1.8396,1.8699,1.85,1.8347,1.8332,1.8322,1.8767,1.8823,1.8709,1.8529,1.8864,1.8787,1.8563,1.859,1.8669,1.8776,1.885,1.8936,1.8986,1.9076,1.9138,1.9155,1.9323,1.9361,1.9152,1.9055,1.9168,1.926,1.9171,1.9099,1.9022,1.9084,1.9068,1.9044,1.9095,1.9057,1.8998,1.9121,1.9167,1.9261,1.9227,1.9238,1.9408,1.9374,1.9503,1.9366,1.9486,1.9579,1.9581,1.9518,1.971,1.9828,1.9774,1.9796,1.9638,1.9557,1.9535,1.9557,1.9661,1.9686,1.9723,1.9683,1.9696,1.9606,1.9489,1.9449,1.9352,1.9385,1.9454,1.9458,1.9378,1.919,1.9206,1.9217,1.9233,1.9199,1.9067,1.9008,1.9023,1.9088,1.9018,1.8952,1.8921,1.8884,1.8931,1.8864,1.8841,1.8823,1.8779,1.884,1.8807,1.8791,1.8725,1.8737,1.8698,1.8685,1.8685,1.8653,1.8642,1.8611,1.8668,1.8629,1.859,1.8584,1.8591,1.8642,1.8608,1.8643,1.8637,1.8556,1.8683,1.8794,1.8847,1.8963,1.9035,1.922,1.922,1.9296,1.9367,1.9567,1.9827,1.9784,1.9619,1.9634,1.9619,1.9748,1.9798,1.9722,1.956,1.945,1.9286,1.9076,1.8833,1.8622,1.8563,1.8491,1.856,1.8425,1.8335,1.8386,1.8311,1.842,1.8409,1.8309,1.8286,1.8303,1.8299,1.8293,1.8141,1.8101,1.8574,1.976,2.184,2.4565,2.7267,2.9347,3.018,2.9577,2.8744,2.6109,2.1693,1.6783,1.5767,1.6123,1.6635,1.7189,1.748,1.7877,1.7845,1.7967,1.7884,1.8019,1.8015,1.8151,1.7947,1.8064,1.8007,1.8148,1.8111,1.8177,1.807,1.8115,1.8122,1.8181,1.8077,1.8066,1.808,1.8224,1.8161,1.8202,1.8093,1.814,1.8109,1.8146,1.8152,1.812,1.8139,1.8193,1.8191,1.8192,1.8112,1.8174,1.8176,1.8186,1.8247,1.8111,1.8139,1.8155,1.8181,1.8191,1.8151,1.8103,1.8076,1.819,1.8142,1.8059,1.8007,1.8022,1.808,1.8059,1.8141,1.8097,1.8085,1.8192,1.8208,1.8162,1.8126,1.8124,1.8213,1.8235,1.8269,1.8239,1.8203,1.825,1.8385,1.8406,1.8554,1.8513,1.8552,1.8694,1.8779,1.8784,1.8849,1.8925,1.904,1.9027,1.8962,1.8939,1.8921,1.8922,1.8848,1.8849,1.8851,1.8813,1.8934,1.8859,1.8897,1.8829,1.8833,1.8932,1.8997,1.9068,1.9074,1.9059,1.911,1.9173,1.9192,1.9163,1.925,1.9345,1.947,1.9427,1.9361,1.9417,1.946,1.9524,1.9551,1.9497,1.9486,1.9481,1.956,1.952,1.9476,1.9448,1.9388,1.9388,1.944,1.933,1.9347,1.9251,1.9388,1.9461,1.9331,1.9146,1.9057,1.9061,1.9156,1.91,1.9113,1.9061,1.8979,1.8998,1.9068,1.8925,1.8956,1.9082,1.8879,1.8771,1.8699,1.8673,1.8648,1.8874,1.8923,1.8717,1.8563,1.8658,1.8716,1.8733,1.8847,1.8655,1.8625,1.8592,1.8526,1.87,1.8491,1.8483,1.8542,1.8615,1.8595,1.8494,1.851,1.857,1.8597,1.8523,1.8438,1.853,1.8501,1.8527,1.859,1.8471,1.8414,1.8509,1.8561,1.8543,1.854,1.8488,1.8465,1.8542,1.8489,1.846,1.845,1.8543,1.8631,1.8811,1.8875,1.8907,1.8994,1.9161,1.9272,1.9384,1.9493,1.9471,1.9398,1.9554,1.9526,1.9457,1.9506,1.9453,1.9382,1.921,1.8963,1.8749,1.8518,1.857,1.8368,1.8345,1.8222,1.8218,1.8306,1.817,1.8227,1.8066,1.8076,1.8112,1.8029,1.8099,1.8052,1.7949,1.8034,1.8644,1.9996,2.0962,2.3622,2.6487,2.888,3.0139,2.9705,2.9004,2.6909,2.336,1.7814,1.5594,1.5691,1.6318,1.7007,1.7308,1.763,1.7671,1.7816,1.7791,1.7924,1.7874,1.782,1.779,1.7888,1.787,1.7964,1.7831,1.785,1.79,1.802,1.7939,1.7957,1.7883,1.7919,1.7889,1.7983,1.7923,1.7939,1.8019,1.8045,1.8,1.8075,1.7947,1.7957,1.8081,1.8088,1.8029,1.8017,1.8008,1.8131,1.8016,1.8004,1.8013,1.7982,1.7991,1.7963,1.7982,1.7977,1.7959,1.803,1.7964,1.8032,1.7906,1.7803,1.7894,1.7984,1.799,1.7898,1.7919,1.8043,1.8096,1.7995,1.7953,1.7961,1.7987,1.8087,1.8086,1.8029,1.8092,1.8092,1.8178,1.8132,1.8193,1.817,1.8264,1.8395,1.8507,1.8555,1.8562,1.8568,1.8704,1.8775,1.8811,1.8842,1.8882,1.8846,1.8949,1.8903,1.8782,1.8769,1.878,1.8856,1.8892,1.8856,1.8779,1.8773,1.8854,1.8822,1.8849,1.8905,1.9004,1.8993,1.9047,1.9067,1.9128,1.9165,1.927,1.9295,1.9335,1.9365,1.9388,1.9425,1.9523,1.9524,1.9388,1.9475,1.9517,1.9523,1.9543,1.9424,1.9404,1.9401,1.9474,1.9403,1.9295,1.9281,1.9292,1.9303,1.9282,1.9174,1.9202,1.9156,1.908,1.9002,1.9057,1.892,1.8902,1.892,1.8859,1.8829,1.8796,1.877,1.8785,1.8789,1.8744,1.8721,1.8677,1.864,1.8648,1.8692,1.8587,1.8576,1.8609,1.8641,1.8693,1.8622,1.8604,1.8709,1.8894,1.8961,1.8973,1.9071,1.9076,1.9238,1.9323,1.9429,1.9571,1.9636,1.9499,1.9541,1.9624,1.9615,1.9675,1.9683,1.9651,1.9538,1.9345,1.9094,1.8809,1.8686,1.8557,1.8441,1.8419,1.835,1.8303,1.8266,1.8168,1.8199,1.8155,1.8293,1.8262,1.817,1.8096,1.8103,1.8145,1.8023,1.8032,1.8347,1.9502,2.1409,2.4287,2.7036,2.9093,3.0224,2.9792,2.8916,2.6378,2.2025,1.6608,1.5596,1.5627,1.6075,1.6619,1.7,1.7557,1.7742,1.7943,1.7787,1.7987,1.7805,1.8072,1.7924,1.8049,1.7896,1.8022,1.8065,1.8195,1.8099,1.8153,1.7999,1.8129,1.8063,1.8122,1.7947,1.8066,1.812,1.8151,1.8064,1.8093,1.8074,1.8133,1.8128,1.8185,1.8081,1.8127,1.8134,1.8162,1.8184,1.8119,1.8181,1.8109,1.8112,1.8094,1.8151,1.8152,1.8106,1.8129,1.8176,1.8149,1.8076,1.8069,1.8158,1.8174,1.8071,1.8056,1.8019,1.8097,1.816,1.8129,1.8167,1.8208,1.8272,1.827,1.8277,1.8174,1.8216,1.8215,1.8294,1.8269,1.8315,1.8359,1.8379,1.8465,1.8557,1.8552,1.8658,1.8716,1.8881,1.894,1.8916,1.8976,1.9012,1.9007,1.9036,1.8999,1.8894,1.8924,1.8964,1.893,1.893,1.8772,1.8882,1.8845,1.8875,1.884,1.8834,1.8891,1.8986,1.896,1.9087,1.9009,1.9127,1.9194,1.9276,1.9306,1.9369,1.9367,1.9391,1.9479,1.9504,1.9504,1.951,1.9577,1.9636,1.9605,1.9613,1.9561,1.9589,1.962,1.9618,1.9579,1.9478,1.9474,1.9503,1.9468,1.9455,1.9337,1.9337,1.9316,1.9288,1.9244,1.9143,1.9065,1.9072,1.908,1.9029,1.8971,1.8897,1.8973,1.8943,1.8925,1.8781,1.8831,1.8776,1.8843,1.8802,1.881,1.8701,1.8724,1.8805,1.8743,1.8731,1.866,1.8663,1.8671,1.868,1.8659,1.8759,1.8886,1.902,1.9135,1.9154,1.9176,1.9252,1.9357,1.9534,1.9691,1.9689,1.9534,1.9586,1.966,1.9616,1.9655,1.9546,1.9423,1.9345,1.9169,1.8811,1.8644,1.8512,1.8491,1.8387,1.834,1.8235,1.8205,1.8186,1.8226,1.8205,1.8106,1.8083,1.814,1.8145,1.8045,1.8021,1.7905,1.7889,1.8274,1.934,2.1188,2.4029,2.6823,2.9038,3.006,2.9422,2.9099,2.7478,2.4326,1.8927,1.547,1.5159,1.5688,1.666,1.7002,1.7367,1.7384,1.7485,1.7603,1.7662,1.7586,1.7588,1.7583,1.7711,1.7675,1.7738,1.7621,1.7584,1.7613,1.7721,1.7673,1.7637,1.7636,1.7715,1.7753,1.7694,1.7634,1.7644,1.7604,1.777,1.7746,1.7701,1.7669,1.7794,1.7965,1.7856,1.7852,1.7774,1.8141,1.8043,1.7666,1.7885,1.8238,1.8128,1.7835,1.7835,1.776,1.7836,1.801,1.8017,1.7572,1.7483,1.7607,1.7596,1.7543,1.7525,1.7598,1.7559,1.7554,1.7484,1.7614,1.7582,1.7732,1.7927,1.7842,1.7708,1.7825,1.7967,1.7906,1.7634,1.7904,1.8051,1.8164,1.7895,1.814,1.8161,1.8156,1.8343,1.8178,1.807,1.7975,1.8202,1.8152,1.8048,1.8077,1.8178,1.8163,1.8172,1.8091,1.8284,1.8229,1.8185,1.8429,1.8604,1.8528,1.8177,1.7821,1.797,1.8389,1.809,1.7962,1.809,1.8046,1.8174,1.8274,1.8813,1.8756,1.839,1.8777,1.892,1.8398,1.8196,1.8279,1.8677,1.8696,1.8561,1.8628,1.8655,1.8705,1.8671,1.8569,1.8595,1.8784,1.8848,1.8799,1.8469,1.8369,1.8514,1.8459,1.8406,1.823,1.8262,1.8369,1.8312,1.8229,1.8123,1.8133,1.8023,1.8003,1.7963,1.794,1.8052,1.8118,1.7894,1.7728,1.7717,1.7729,1.7746,1.7814,1.7888,1.7787,1.7676,1.7749,1.7888,1.7806,1.7582,1.7532,1.7566,1.7705,1.7714,1.7785,1.774,1.7486,1.7529,1.7485,1.7637,1.7591,1.7532,1.7547,1.7543,1.756,1.7423,1.7357,1.7447,1.7483,1.7469,1.7411,1.7425,1.7411,1.7483,1.754,1.745,1.7593,1.7689,1.7885,1.7988,1.8014,1.8139,1.8146,1.8222,1.851,1.8502,1.8363,1.8374,1.8393,1.8473,1.8484,1.8402,1.8304,1.8214,1.8113,1.7894,1.758,1.7444,1.7385,1.7327,1.7273,1.712,1.7118,1.7067,1.7136,1.7112,1.6986,1.7137,1.6989,1.7073,1.7019,1.6846,1.6793,1.6823,1.7101,1.8196,1.9903,2.2507,2.5314,2.759,2.8807,2.8333,2.7636,2.5433,2.1813,1.6298,1.4159,1.4212,1.4907,1.577,1.6083,1.64,1.633,1.6576,1.6576,1.6673,1.6601,1.6711,1.6652,1.6701,1.6698,1.6825,1.6694,1.6758,1.6709,1.6844,1.6814,1.6795,1.6709,1.6728,1.6792,1.6806,1.675,1.6711,1.6743,1.6787,1.6703,1.6736,1.6686,1.6706,1.6728,1.6783,1.6802,1.6704,1.6741,1.6811,1.6781,1.6792,1.6709,1.6719,1.671,1.6747,1.6716,1.6794,1.6712,1.667,1.6694,1.6772,1.668,1.6622,1.6724,1.6783,1.6765,1.6746,1.67,1.6777,1.6879,1.6863,1.6807,1.6802,1.6812,1.6849,1.6882,1.6893,1.6819,1.684,1.6864,1.6987,1.705,1.7009,1.7045,1.7125,1.7274,1.7347,1.7409,1.7368,1.7467,1.7581,1.7677,1.7581,1.7563,1.7541,1.7607,1.7526,1.7488,1.7361,1.743,1.7413,1.7382,1.7407,1.734,1.7312,1.7432,1.7409,1.7425,1.7423,1.743,1.7567,1.7598,1.7608,1.762,1.7615,1.7761,1.7782,1.7831,1.787,1.7888,1.7859,1.798,1.8026,1.7999,1.801,1.802,1.8125,1.8091,1.8076,1.8034,1.7977,1.8083,1.8069,1.799,1.8026,1.8001,1.7954,1.7926,1.7829,1.7746,1.7711,1.7661,1.7667,1.7698,1.7537,1.7524,1.7491,1.7491,1.7425,1.7373,1.7371,1.7327,1.736,1.7329,1.7219,1.7187,1.7233,1.7286,1.7362,1.7294,1.7165,1.7131,1.7171,1.7233,1.7168,1.716,1.7153,1.7098,1.7092,1.7081,1.7056,1.708,1.7133,1.7095,1.6999,1.6934,1.6944,1.6899,1.7078,1.7145,1.712,1.71,1.7052,1.7006,1.7048,1.6984,1.6989,1.6922,1.7061,1.6991,1.6912,1.691,1.6905,1.6994,1.7021,1.6969,1.6869,1.6891,1.6944,1.7025,1.6979,1.6842,1.6809,1.6862,1.6843,1.7017,1.6824,1.6902,1.6892,1.6938,1.6863,1.6747,1.6797,1.6834,1.681,1.6807,1.6821,1.6868,1.6878,1.6932,1.6921,1.6833,1.6869,1.6818,1.6888,1.7024,1.7151,1.7021,1.687,1.6851,1.7043,1.7242,1.7332,1.7284,1.6812,1.6885,1.7244,1.7527,1.7795,1.7761,1.7492,1.7751,1.8111,1.8225,1.7883,1.7759,1.7883,1.7864,1.7928,1.7891,1.7723,1.7536,1.7523,1.7267,1.7327,1.7549,1.7208,1.6915,1.6552,1.655,1.6774,1.7055,1.6868,1.5961,1.6108,1.6284,1.6415,1.6487,1.6342,1.6261,1.6481,1.6558,1.725,1.8859,2.1738,2.4522,2.6926,2.766,2.7972,2.7314,2.6201,2.3779,1.9457,1.4886,1.3597,1.4445,1.5065,1.5489,1.5717,1.5906,1.5827,1.6519,1.6721,1.6007,1.5579,1.6075,1.6185,1.6237,1.592,1.5709,1.57,1.5814,1.5749,1.5967,1.6127,1.6266,1.5777,1.5836,1.5869,1.592,1.591,1.5901,1.6004,1.6036,1.5979,1.6041,1.6106,1.6115,1.6085,1.6123,1.6293,1.6041,1.5927,1.6037,1.6055,1.5935,1.5866,1.6033,1.6121,1.5972,1.5897,1.5902,1.5846,1.6266,1.5955,1.5583,1.5636,1.5809,1.5972,1.5997,1.6052,1.5859,1.5751,1.5807,1.5835,1.5943,1.6256,1.6088,1.5851,1.5851,1.5998,1.6179,1.6034,1.5974,1.6151,1.6531,1.6317,1.5796,1.5868,1.6169,1.6415,1.6283,1.6498,1.6673,1.6584,1.6596,1.6559,1.6655,1.6779,1.6686,1.6733,1.6736,1.6794,1.6677,1.6591,1.6635,1.6512,1.646,1.6422,1.6571,1.6685,1.6661,1.6842,1.6999,1.6793,1.6614,1.6825,1.672,1.6933,1.695,1.716,1.7188,1.6965,1.7076,1.7111,1.706,1.7203,1.7153,1.7141,1.7237,1.7307,1.7287,1.7182,1.7368,1.747,1.7269,1.7026,1.7098,1.7182,1.7187,1.7283,1.7246,1.702,1.6988,1.6963,1.6922,1.6984,1.6883,1.6749,1.675,1.6795,1.6942,1.6868,1.6632,1.6437,1.6568,1.6639,1.6588,1.6635,1.6507,1.6348,1.6302,1.6451,1.6463,1.638,1.6394,1.6372,1.6389,1.6322,1.6338,1.6345,1.6404,1.6338,1.6213,1.6268,1.6204,1.6254,1.6208,1.63,1.6278,1.6477,1.6753,1.6634,1.6747,1.6936,1.6881,1.7062,1.7184,1.7205,1.7149,1.7103,1.717,1.7183,1.7242,1.7274,1.715,1.7119,1.7052,1.6844,1.6625,1.6363,1.627,1.6187,1.6087,1.6069,1.6019,1.5868,1.6003,1.5989,1.5922,1.5849,1.5785,1.5837,1.5778,1.5817,1.5815,1.5695,1.5533,1.5893,1.695,1.8494,2.1271,2.4213,2.6459,2.7588,2.73,2.6729,2.46,2.094,1.8097,1.4056,1.3492,1.3801,1.429,1.4931,1.5019,1.551,1.5352,1.5483,1.5592,1.5665,1.5377,1.5639,1.583,1.5913,1.5466,1.5537,1.5598,1.5713,1.5491,1.5568,1.5569,1.5721,1.5617,1.5742,1.5597,1.5508,1.5528,1.568,1.5739,1.5818,1.5669,1.5729,1.5745,1.5716,1.5709,1.5713,1.5703,1.5692,1.5809,1.5877,1.5782,1.5767,1.5784,1.5758,1.5699,1.5779,1.57,1.5693,1.5616,1.5627,1.5575,1.5598,1.5882,1.5937,1.5744,1.5608,1.5524,1.5557,1.5707,1.5795,1.5923,1.5701,1.574,1.5758,1.5877,1.5876,1.5811,1.5824,1.5913,1.5945,1.6025,1.5946,1.6107,1.6201,1.6432,1.6461,1.6487,1.6378,1.6546,1.6566,1.6599,1.654,1.6537,1.6708,1.676,1.6691,1.6578,1.6446,1.6399,1.6465,1.652,1.6433,1.6394,1.6383,1.644,1.6424,1.6579,1.6573,1.6378,1.6337,1.6564,1.6566,1.6583,1.6617,1.6759,1.6748,1.6847,1.6879,1.6901,1.695,1.7076,1.709,1.7205,1.7112,1.7143,1.7212,1.72,1.7198,1.7148,1.7185,1.7202,1.7272,1.7291,1.7228,1.725,1.7221,1.72,1.7186,1.6987,1.6891,1.6958,1.7004,1.694,1.6897,1.6905,1.6833,1.6785,1.6715,1.6687,1.6694,1.6644,1.6693,1.6736,1.6872,1.6937,1.6995,1.7079,1.7142,1.7178,1.7212,1.7396,1.7683,1.7663,1.7543,1.7506,1.7489,1.7509,1.7656,1.7557,1.7303,1.7231,1.7213,1.7041,1.6587,1.6492,1.6518,1.626,1.6298,1.6198,1.6136,1.6074,1.6098,1.6195,1.6228,1.6074,1.6071,1.6044,1.6155,1.6068,1.6016,1.5885,1.5936,1.6174,1.7275,1.9059,2.1722,2.4488,2.6734,2.8007,2.7683,2.6863,2.4573,2.0722,1.5104,1.3516,1.3542,1.4127,1.4998,1.5246,1.5737,1.5611,1.5818,1.5775,1.5958,1.5865,1.5996,1.5792,1.598,1.5982,1.6164,1.6011,1.5954,1.5907,1.6063,1.6059,1.612,1.5923,1.6079,1.6057,1.6149,1.6137,1.6143,1.6062,1.607,1.6161,1.6214,1.6186,1.6163,1.6107,1.6216,1.6174,1.6172,1.6177,1.6173,1.625,1.6277,1.6192,1.6229,1.6188,1.6262,1.6262,1.6249,1.616,1.6146,1.6188,1.6204,1.6201,1.6099,1.6173,1.615,1.6234,1.6387,1.637,1.6213,1.6304,1.6305,1.6444,1.6315,1.6371,1.6444,1.648,1.647,1.6473,1.6522,1.662,1.6623,1.6609,1.6649,1.6713,1.678,1.6943,1.7052,1.7105,1.7012,1.7108,1.7174,1.7147,1.7168,1.7086,1.7047,1.711,1.7099,1.7054,1.696,1.6913,1.6957,1.7004,1.6907,1.6878,1.6802,1.6917,1.6929,1.6937,1.6927,1.6969,1.6996,1.7097,1.7095,1.7144,1.7146,1.7267,1.7336,1.7458,1.7449,1.742,1.7478,1.757,1.7613,1.7725,1.7616,1.7584,1.7686,1.7751,1.7698,1.7664,1.7603,1.7688,1.7618,1.7607,1.754,1.7515,1.7511,1.758,1.7499,1.74,1.7335,1.7314,1.7344,1.7323,1.7253,1.7178,1.7138,1.7223,1.7186,1.7113,1.7044,1.7021,1.7084,1.704,1.6965,1.6921,1.6913,1.6911,1.6989,1.6934,1.6863,1.687,1.6814,1.6927,1.6859,1.6852,1.6836,1.6821,1.6893,1.691,1.684,1.6777,1.6772,1.6838,1.6847,1.6802,1.6797,1.6772,1.6829,1.6845,1.6825,1.6723,1.6776,1.68,1.6869,1.6748,1.6737,1.6775,1.6853,1.6884,1.6819,1.6734,1.6745,1.6772,1.6869,1.6832,1.681,1.681,1.6784,1.6834,1.6853,1.6757,1.6826,1.6804,1.684,1.6818,1.6858,1.6793,1.6746,1.682,1.6841,1.6749,1.6766,1.6745,1.6841,1.685,1.6772,1.6701,1.6731,1.681,1.6823,1.6786,1.6708,1.6746,1.679,1.6818,1.685,1.6787,1.6755,1.6752,1.6852,1.6825,1.6836,1.6768,1.6777,1.683,1.6869,1.6857,1.6744,1.6731,1.6839,1.6835,1.6811,1.6747,1.6708,1.6839,1.6881,1.6847,1.676,1.6792,1.6839,1.6837,1.6885,1.6795,1.6822,1.6963,1.7179,1.7184,1.7266,1.7386,1.747,1.7612,1.774,1.7723,1.7849,1.7853,1.7963,1.7897,1.7944,1.791,1.7833,1.7741,1.7526,1.7289,1.7135,1.7135,1.6983,1.6944,1.6868,1.6733,1.6657,1.6734,1.668,1.6687,1.6608,1.6588,1.6622,1.6627,1.6586,1.6486,1.6547,1.7306,1.8668,2.0825,2.3507,2.6071,2.7864,2.8315,2.7783,2.7212,2.5229,2.1763,1.6722,1.4327,1.4626,1.5254,1.5681,1.6018,1.6222,1.6273,1.6325,1.6268,1.6373,1.6293,1.6321,1.6275,1.6273,1.6336,1.64,1.6339,1.6362,1.632,1.6372,1.648,1.6452,1.6311,1.6334,1.6307,1.6465,1.6418,1.6423,1.6317,1.6332,1.6435,1.646,1.6399,1.6397,1.6413,1.6464,1.6376,1.6435,1.64,1.6434,1.6479,1.6501,1.6443,1.6369,1.6388,1.6474,1.6492,1.6459,1.6369,1.6392,1.6478,1.6494,1.643,1.6345,1.6431,1.6471,1.6505,1.6532,1.6492,1.6507,1.6489,1.6566,1.6621,1.6581,1.6622,1.6592,1.6714,1.6709,1.6631,1.6617,1.6625,1.6759,1.6892,1.686,1.6886,1.6902,1.6971,1.7086,1.7181,1.72,1.7327,1.7366,1.7481,1.749,1.7427,1.7461,1.7472,1.7481,1.7495,1.7399,1.7364,1.7362,1.7448,1.7422,1.7333,1.7334,1.7382,1.7476,1.7467,1.7419,1.7423,1.748,1.7548,1.7637,1.7693,1.7697,1.7759,1.7816,1.787,1.7913,1.7843,1.7925,1.8015,1.8012,1.8096,1.8068,1.8072,1.8036,1.8125,1.8123,1.8103,1.8056,1.8138,1.8121,1.8088,1.8063,1.806,1.8066,1.8063,1.7993,1.7903,1.7858,1.7826,1.7919,1.7882,1.7722,1.7615,1.7621,1.7624,1.7638,1.7634,1.7491,1.748,1.7508,1.7531,1.7536,1.7359,1.737,1.7375,1.7385,1.7406,1.7345,1.7355,1.7377,1.7388,1.7393,1.7331,1.7263,1.7256,1.7364,1.7319,1.7283,1.7207,1.7217,1.731,1.7273,1.7275,1.7196,1.7207,1.7276,1.722,1.7185,1.716,1.7204,1.7225,1.7218,1.7217,1.7192,1.7152,1.7182,1.7231,1.7203,1.7193,1.7096,1.7138,1.7212,1.7185,1.7127,1.7152,1.7175,1.7244,1.7222,1.716,1.7138,1.7116,1.7269,1.7201,1.7186,1.7124,1.7116,1.714,1.7214,1.7187,1.7111,1.7114,1.7185,1.719,1.7215,1.7181,1.7122,1.7161,1.7221,1.7202,1.7152,1.7172,1.7198,1.726,1.7296,1.7433,1.7534,1.7613,1.7862,1.7908,1.792,1.8042,1.8092,1.8269,1.8345,1.8289,1.8227,1.8249,1.8304,1.8219,1.8065,1.7912,1.7717,1.7591,1.7584,1.7411,1.7169,1.7103,1.7012,1.7078,1.703,1.6879,1.6886,1.6887,1.6999,1.6915,1.6818,1.6836,1.6799,1.6823,1.6862,1.7502,1.8951,2.1197,2.2728,2.5387,2.7643,2.8524,2.8205,2.7518,2.5479,2.1655,1.641,1.4094,1.451,1.5077,1.5873,1.5971,1.6386,1.6318,1.6549,1.6442,1.6497,1.6446,1.6579,1.6515,1.6621,1.6453,1.6609,1.6527,1.6677,1.6613,1.6668,1.6594,1.6667,1.6651,1.6728,1.657,1.6578,1.6547,1.6678,1.6703,1.666,1.6575,1.6663,1.6683,1.6688,1.6693,1.6601,1.6626,1.6652,1.6729,1.6779,1.6637,1.6628,1.6658,1.6694,1.6666,1.6609,1.6693,1.6727,1.6772,1.6678,1.6583,1.6599,1.6662,1.6678,1.6697,1.6688,1.66,1.6652,1.6771,1.676,1.6744,1.6693,1.6732,1.6794,1.6819,1.6782,1.6775,1.6793,1.6909,1.6845,1.6981,1.6888,1.6976,1.7069,1.7144,1.7128,1.7164,1.7197,1.7301,1.738,1.7491,1.7543,1.7557,1.7578,1.7616,1.7593,1.7562,1.7471,1.7478,1.7478,1.7431,1.7319,1.7276,1.7222,1.7329,1.7305,1.7382,1.7307,1.7252,1.7363,1.7436,1.742,1.7449,1.7401,1.7511,1.7583,1.7709,1.7604,1.7634,1.7723,1.7797,1.7822,1.7856,1.7917,1.7996,1.8022,1.8018,1.7913,1.7945,1.7989,1.8098,1.8072,1.8013,1.7976,1.7929,1.8027,1.8014,1.7861,1.7839,1.7821,1.7908,1.7829,1.7789,1.7724,1.7726,1.7666,1.7663,1.7744,1.7645,1.7662,1.7466,1.7435,1.7572,1.7386,1.7313,1.7424,1.7477,1.7516,1.7463,1.7309,1.7186,1.7264,1.7367,1.7341,1.7157,1.7114,1.731,1.7268,1.7305,1.7225,1.7139,1.7215,1.7374,1.7281,1.707,1.703,1.6975,1.719,1.7363,1.7209,1.6907,1.717,1.7265,1.7052,1.6911,1.7143,1.7084,1.7065,1.6999,1.6878,1.687,1.7077,1.7091,1.6965,1.6868,1.6862,1.6946,1.7033,1.7203,1.7241,1.7207,1.7381,1.7529,1.764,1.7619,1.7657,1.7738,1.7926,1.8067,1.8041,1.7855,1.7898,1.7956,1.7905,1.7784,1.7616,1.739,1.7121,1.7087,1.6953,1.6755,1.6729,1.6743,1.6699,1.6718,1.6658,1.6596,1.6638,1.6631,1.6635,1.6559,1.6473,1.653,1.6515,1.6483,1.6557,1.738,1.9022,2.1786,2.4521,2.6882,2.82,2.8152,2.7933,2.7272,2.4517,1.9815,1.5134,1.4398,1.4577,1.509,1.5532,1.5805,1.6156,1.6117,1.6347,1.6212,1.6273,1.6279,1.6489,1.6328,1.6395,1.6233,1.6309,1.6316,1.6418,1.6338,1.6352,1.6361,1.6528,1.6468,1.6485,1.6371,1.6407,1.6433,1.6526,1.6505,1.6509,1.6396,1.6553,1.6515,1.66,1.6482,1.6547,1.6455,1.6662,1.6608,1.6608,1.6569,1.6576,1.6627,1.6554,1.6527,1.6474,1.6481,1.656,1.6555,1.652,1.6493,1.6455,1.6539,1.6549,1.6521,1.6453,1.6536,1.6576,1.6635,1.6614,1.6562,1.6533,1.6608,1.6682,1.6662,1.6642,1.6695,1.6653,1.6774,1.6786,1.6799,1.6817,1.6863,1.6962,1.7026,1.7041,1.7097,1.7128,1.7286,1.7332,1.7372,1.7363,1.7449,1.7494,1.7528,1.7473,1.7405,1.738,1.7408,1.7373,1.7326,1.7222,1.7216,1.7272,1.7277,1.7205,1.7179,1.7214,1.7281,1.7393,1.7425,1.731,1.7408,1.7459,1.7522,1.7515,1.7592,1.7614,1.7738,1.7769,1.7875,1.7827,1.7881,1.7941,1.7999,1.807,1.8069,1.8009,1.811,1.8083,1.8148,1.8139,1.8056,1.8096,1.8101,1.8159,1.8145,1.7982,1.7989,1.7958,1.8002,1.7965,1.7817,1.7809,1.7799,1.7765,1.7789,1.7669,1.7626,1.7651,1.7672,1.7606,1.7608,1.7512,1.7559,1.7601,1.7518,1.7484,1.7412,1.738,1.7381,1.7379,1.7357,1.7303,1.7354,1.7393,1.7382,1.7353,1.7292,1.7247,1.7253,1.7311,1.7279,1.7212,1.7258,1.7236,1.732,1.7286,1.723,1.7186,1.7207,1.726,1.7243,1.7224,1.7171,1.7168,1.7212,1.7164,1.7192,1.7141,1.7134,1.7214,1.7357,1.7556,1.7588,1.7718,1.7788,1.7932,1.8002,1.8019,1.8152,1.8355,1.8279,1.833,1.8191,1.823,1.8291,1.8331,1.8123,1.7948,1.7649,1.7519,1.7508,1.7317,1.7172,1.7039,1.6986,1.7054,1.7024,1.6947,1.6831,1.6885,1.6937,1.6879,1.6834,1.6776,1.6724,1.6723,1.6732,1.6775,1.7409,1.8883,2.1276,2.4113,2.6658,2.8304,2.8543,2.7932,2.6702,2.3713,1.8565,1.4593,1.4017,1.4736,1.543,1.585,1.6104,1.622,1.6326,1.6491,1.6431,1.645,1.6427,1.6529,1.6536,1.6577,1.6499,1.6531,1.6582,1.6615,1.6618,1.6567,1.6555,1.6661,1.6677,1.6641,1.6516,1.6542,1.6637,1.6721,1.6753,1.6694,1.6715,1.6666,1.683,1.6793,1.6736,1.6759,1.6699,1.6842,1.6812,1.6792,1.6782,1.6746,1.6818,1.6809,1.6762,1.6697,1.6722,1.6717,1.68,1.6765,1.6714,1.6758,1.6727,1.6739,1.6812,1.6713,1.677,1.6797,1.69,1.6918,1.6824,1.6878,1.6906,1.7,1.6997,1.6952,1.6919,1.6944,1.7007,1.7108,1.7065,1.7029,1.7121,1.7211,1.7297,1.735,1.7319,1.7422,1.7498,1.7562,1.7586,1.755,1.7619,1.7636,1.761,1.762,1.7524,1.746,1.7409,1.7449,1.743,1.7273,1.7236,1.7261,1.7306,1.7331,1.7269,1.7234,1.7227,1.7306,1.7358,1.7313,1.7295,1.7373,1.7494,1.7526,1.7532,1.7474,1.7588,1.765,1.771,1.7787,1.7749,1.7749,1.7877,1.7881,1.7955,1.7878,1.7931,1.8002,1.8,1.7991,1.7942,1.7975,1.7954,1.7919,1.7941,1.789,1.7806,1.7818,1.7861,1.7739,1.775,1.7597,1.7596,1.7642,1.756,1.7545,1.7431,1.7408,1.7492,1.7427,1.7367,1.7303,1.7252,1.73,1.7293,1.7304,1.7236,1.7209,1.717,1.7179,1.7156,1.7071,1.7062,1.7088,1.7146,1.7129,1.7053,1.7052,1.7039,1.7106,1.7061,1.6972,1.6992,1.6966,1.7041,1.7021,1.7005,1.6956,1.6912,1.6984,1.6954,1.6962,1.6915,1.688,1.6974,1.6969,1.6948,1.6843,1.6832,1.6947,1.696,1.689,1.6855,1.6842,1.6901,1.6991,1.6957,1.6896,1.6856,1.6813,1.6953,1.6902,1.6906,1.6889,1.6878,1.6957,1.6929,1.6911,1.6896,1.6903,1.6903,1.6915,1.6874,1.6787,1.6811,1.6844,1.693,1.6914,1.6797,1.683,1.6856,1.6921,1.6896,1.6791,1.6828,1.6821,1.6879,1.6899,1.6814,1.6828,1.6802,1.6917,1.6924,1.6893,1.7044,1.7101,1.7261,1.7434,1.7432,1.7522,1.7631,1.7706,1.7855,1.7893,1.7771,1.7898,1.7891,1.7993,1.7918,1.7721,1.7647,1.7493,1.7277,1.7188,1.6919,1.6885,1.6764,1.6783,1.6705,1.6583,1.6528,1.6509,1.6638,1.6633,1.6525,1.6489,1.6519,1.6523,1.6477,1.64,1.681,1.8043,2.0001,2.2698,2.5413,2.6499,2.8017,2.8057,2.7356,2.5947,2.2716,1.7839,1.4146,1.3751,1.4488,1.5197,1.5558,1.5895,1.6003,1.6155,1.6032,1.61,1.6052,1.6196,1.619,1.6214,1.6135,1.6173,1.6262,1.6275,1.6225,1.6208,1.6163,1.6248,1.6224,1.6188,1.6194,1.623,1.6266,1.63,1.6291,1.6229,1.6237,1.6295,1.6302,1.6329,1.6242,1.6227,1.6235,1.626,1.6308,1.6279,1.6221,1.6278,1.6323,1.6358,1.6278,1.6291,1.6268,1.6332,1.6331,1.6265,1.623,1.6252,1.635,1.6303,1.6297,1.6209,1.6235,1.6354,1.6336,1.6387,1.6304,1.634,1.6441,1.6392,1.6398,1.6383,1.6411,1.6453,1.6515,1.6538,1.653,1.6542,1.664,1.6652,1.6687,1.6693,1.6674,1.6728,1.6895,1.6971,1.7059,1.7116,1.7135,1.7169,1.7172,1.7089,1.7073,1.701,1.7143,1.7054,1.7008,1.6969,1.691,1.6967,1.6951,1.6896,1.6861,1.6824,1.6881,1.6987,1.697,1.6971,1.7079,1.6984,1.7104,1.7089,1.7087,1.7178,1.7231,1.7327,1.7372,1.7299,1.7397,1.7408,1.7438,1.7521,1.7481,1.7501,1.7495,1.7595,1.7662,1.7624,1.752,1.7526,1.7616,1.7603,1.7467,1.748,1.7471,1.7452,1.7447,1.7372,1.7197,1.7229,1.722,1.7242,1.7261,1.7096,1.7127,1.7031,1.7144,1.7064,1.7,1.6955,1.689,1.6933,1.6928,1.6788,1.6751,1.6777,1.6792,1.6762,1.6695,1.6673,1.667,1.6683,1.671,1.6666,1.6561,1.6621,1.6607,1.6637,1.6605,1.6491,1.6511,1.6522,1.6551,1.6548,1.644,1.651,1.6493,1.6504,1.6544,1.6474,1.6498,1.6483,1.6537,1.6507,1.6452,1.6406,1.6379,1.6525,1.6526,1.6516,1.6406,1.633,1.6484,1.6526,1.6456,1.6401,1.6355,1.6475,1.6462,1.6411,1.6349,1.6347,1.6461,1.6429,1.6535,1.6463,1.6388,1.6431,1.6414,1.6579,1.6515,1.655,1.6733,1.6804,1.6908,1.6905,1.706,1.7199,1.7395,1.742,1.7388,1.7343,1.729,1.7536,1.7545,1.7598,1.74,1.7311,1.7271,1.7106,1.6784,1.6616,1.6517,1.647,1.6431,1.6328,1.6177,1.6102,1.615,1.617,1.6263,1.6248,1.6113,1.6105,1.6182,1.6151,1.6046,1.5896,1.595,1.691,1.8477,2.0914,2.3632,2.6021,2.7684,2.7738,2.7163,2.5669,2.2517,1.7315,1.4214,1.3922,1.3921,1.4604,1.5066,1.5481,1.5703,1.5695,1.5743,1.5838,1.5777,1.5881,1.5793,1.5781,1.5828,1.5969,1.5942,1.579,1.5798,1.5833,1.5919,1.5899,1.594,1.5797,1.5956,1.6029,1.5964,1.5928,1.5868,1.5785,1.5963,1.6016,1.5911,1.5938,1.6004,1.6194,1.6198,1.6094,1.6178,1.6025,1.5963,1.6045,1.6034,1.5946,1.5849,1.5844,1.5908,1.5918,1.5906,1.5937,1.5808,1.5809,1.5751,1.5791,1.5896,1.5933,1.5926,1.5911,1.599,1.6097,1.6019,1.6116,1.6141,1.6098,1.6068,1.6021,1.5997,1.622,1.6333,1.6091,1.6039,1.6084,1.6143,1.6269,1.626,1.6411,1.6452,1.6578,1.6667,1.6596,1.6671,1.6706,1.6954,1.6975,1.6712,1.6722,1.6897,1.6864,1.6902,1.6782,1.6697,1.6634,1.6711,1.6846,1.6706,1.6442,1.6448,1.6552,1.6538,1.6481,1.6633,1.6737,1.6731,1.6752,1.6795,1.6716,1.6829,1.6825,1.6913,1.7063,1.7033,1.7184,1.714,1.7069,1.7016,1.7105,1.7324,1.7458,1.7506,1.7375,1.7186,1.7236,1.7296,1.7345,1.7335,1.7356,1.7352,1.7394,1.7408,1.7291,1.7299,1.7213,1.7207,1.7201,1.7199,1.7176,1.7042,1.6995,1.6999,1.6981,1.6971,1.6887,1.6896,1.6892,1.6876,1.6947,1.6855,1.6762,1.6687,1.6831,1.6861,1.6811,1.671,1.6662,1.6775,1.675,1.6689,1.6615,1.6671,1.6742,1.6646,1.6585,1.6602,1.6582,1.6609,1.6663,1.6648,1.659,1.661,1.6538,1.6718,1.6823,1.6894,1.7077,1.7241,1.7293,1.7405,1.7399,1.7488,1.7675,1.767,1.7677,1.7549,1.7564,1.7574,1.7652,1.756,1.7422,1.7172,1.6919,1.6876,1.6711,1.6583,1.6383,1.6399,1.6392,1.6351,1.6322,1.6291,1.628,1.6338,1.6319,1.6282,1.6206,1.6215,1.6204,1.6206,1.6107,1.6294,1.7307,1.9089,2.19,2.4659,2.6929,2.8235,2.7896,2.7354,2.5078,2.124,1.5638,1.3742,1.3913,1.4494,1.502,1.5299,1.5825,1.5843,1.6119,1.5996,1.607,1.5901,1.6123,1.6053,1.6213,1.6078,1.6162,1.6157,1.634,1.6242,1.6289,1.6177,1.6334,1.6346,1.6352,1.621,1.628,1.6258,1.6433,1.6396,1.639,1.628,1.6391,1.6431,1.6531,1.6434,1.6407,1.6417,1.6548,1.6442,1.6476,1.6403,1.6485,1.645,1.6491,1.6463,1.6394,1.6383,1.6447,1.6534,1.6512,1.6485,1.6502,1.6491,1.6526,1.6494,1.6445,1.6547,1.6582,1.6653,1.6694,1.669,1.6668,1.67,1.6774,1.6819,1.6833,1.6777,1.6748,1.6862,1.6854,1.6939,1.6887,1.6943,1.701,1.71,1.7149,1.7153,1.7247,1.7349,1.74,1.7459,1.7373,1.7427,1.7464,1.7554,1.7518,1.7497,1.7403,1.7366,1.7369,1.7373,1.7261,1.7151,1.7118,1.7216,1.717,1.7159,1.7084,1.7139,1.7174,1.7212,1.7176,1.7197,1.7259,1.7356,1.7364,1.7467,1.7383,1.7483,1.7556,1.765,1.7672,1.7714,1.7716,1.7814,1.7855,1.7912,1.7835,1.7845,1.7911,1.7977,1.7937,1.7928,1.7881,1.7912,1.7914,1.7916,1.7873,1.7813,1.777,1.7814,1.7758,1.7677,1.7637,1.7569,1.761,1.7549,1.7545,1.7486,1.7349,1.7473,1.7382,1.7426,1.7361,1.7275,1.7262,1.7332,1.7283,1.7209,1.7194,1.7217,1.721,1.7164,1.7136,1.7121,1.7154,1.7219,1.7144,1.708,1.7115,1.7065,1.7129,1.711,1.7086,1.7077,1.704,1.7091,1.71,1.7073,1.7038,1.7038,1.7063,1.7042,1.7073,1.7,1.7004,1.702,1.7102,1.7026,1.6993,1.6998,1.7049,1.7115,1.7063,1.7045,1.7053,1.6981,1.7146,1.7109,1.7124,1.7063,1.7088,1.7161,1.715,1.7034,1.7024,1.7012,1.7105,1.7137,1.7104,1.707,1.7058,1.7173,1.7195,1.7128,1.7073,1.7089,1.7129,1.7171,1.722,1.7095,1.7192,1.7342,1.7546,1.7671,1.7711,1.7784,1.7882,1.8066,1.8116,1.8209,1.8168,1.8177,1.8293,1.8298,1.8298,1.8152,1.8126,1.8029,1.7871,1.7615,1.7496,1.7366,1.7238,1.714,1.7084,1.6991,1.6991,1.6969,1.6981,1.6963,1.6869,1.686,1.6897,1.693,1.691,1.6823,1.6751,1.6893,1.779,1.9345,2.1713,2.4457,2.6961,2.8558,2.8578,2.7976,2.6483,2.3334,1.8318,1.4757,1.4255,1.4995,1.573,1.6195,1.6443,1.6487,1.6553,1.6594,1.6676,1.6709,1.6731,1.6666,1.6725,1.6768,1.6796,1.6859,1.6804,1.6771,1.6826,1.6869,1.6908,1.677,1.6758,1.6826,1.689,1.6908,1.6926,1.6832,1.6866,1.6991,1.6974,1.7002,1.6928,1.6894,1.7017,1.6995,1.7008,1.6977,1.6993,1.7035,1.7056,1.7059,1.6966,1.6974,1.7044,1.7077,1.7072,1.7073,1.7016,1.7047,1.7146,1.7164,1.7085,1.7064,1.7099,1.7166,1.717,1.7193,1.7205,1.7247,1.7368,1.7378,1.7287,1.73,1.732,1.7379,1.7381,1.7399,1.7366,1.743,1.7516,1.7621,1.757,1.7587,1.7661,1.7787,1.7881,1.7912,1.7955,1.8004,1.8081,1.816,1.8212,1.8195,1.8154,1.8157,1.8185,1.8134,1.8079,1.8023,1.7964,1.8033,1.7956,1.7985,1.7914,1.7925,1.8006,1.8002,1.796,1.7982,1.8033,1.8113,1.8096,1.8107,1.8173,1.8203,1.8249,1.8349,1.837,1.8386,1.8427,1.844,1.8582,1.8581,1.8575,1.8593,1.862,1.874,1.873,1.87,1.8719,1.8696,1.8743,1.8748,1.8673,1.863,1.8622,1.8704,1.8704,1.8664,1.8678,1.8666,1.8789,1.8636,1.8368,1.8233,1.8314,1.8368,1.8395,1.8363,1.8247,1.8288,1.8258,1.8237,1.8085,1.81,1.8128,1.7997,1.8077,1.8083,1.7931,1.785,1.7864,1.7899,1.795,1.7892,1.7887,1.7871,1.7851,1.7868,1.7761,1.7754,1.7808,1.7806,1.7812,1.7767,1.7684,1.7718,1.7743,1.7734,1.776,1.762,1.7644,1.7698,1.7767,1.779,1.7608,1.7641,1.7663,1.7829,1.7782,1.7573,1.7586,1.7658,1.7761,1.7682,1.7705,1.7723,1.7685,1.7565,1.7594,1.7648,1.7685,1.7571,1.7551,1.7634,1.7652,1.7635,1.7649,1.7709,1.7636,1.7656,1.749,1.757,1.7745,1.776,1.7767,1.7634,1.7623,1.7527,1.77,1.7697,1.7654,1.7542,1.7556,1.76,1.7649,1.7807,1.7906,1.8042,1.8168,1.8294,1.845,1.8514,1.8501,1.8711,1.8679,1.8693,1.8749,1.8615,1.8784,1.8682,1.8573,1.839,1.8193,1.805,1.7872,1.7762,1.7532,1.7433,1.745,1.7448,1.7373,1.732,1.7377,1.736,1.7286,1.7344,1.7228,1.7265,1.7239,1.7236,1.7249,1.7567,1.8593,2.0449,2.3304,2.6064,2.8214,2.9123,2.8625,2.8153,2.5954,2.2159,1.6907,1.4673,1.5066,1.5425,1.6073,1.6329,1.6635,1.6759,1.7002,1.6946,1.6902,1.6897,1.6929,1.6997,1.7046,1.7028,1.7052,1.7028,1.7139,1.7084,1.7128,1.7087,1.7117,1.7128,1.7167,1.7119,1.7032,1.7072,1.7175,1.7217,1.7223,1.7196,1.7216,1.7246,1.7272,1.7254,1.7214,1.7245,1.7218,1.7248,1.7271,1.722,1.7247,1.7254,1.7356,1.7296,1.7247,1.726,1.7228,1.7325,1.7338,1.7222,1.7186,1.7222,1.7231,1.7278,1.7244,1.7243,1.7275,1.737,1.7398,1.7346,1.7331,1.7394,1.7426,1.7446,1.7483,1.7354,1.741,1.7436,1.7509,1.743,1.7432,1.749,1.757,1.7688,1.7747,1.7758,1.7816,1.7903,1.7968,1.8041,1.8053,1.8123,1.8125,1.823,1.8181,1.8163,1.8008,1.8021,1.8052,1.8012,1.7937,1.7828,1.7853,1.7875,1.7883,1.788,1.7874,1.7885,1.7971,1.7961,1.7969,1.7877,1.7941,1.7979,1.804,1.8077,1.81,1.811,1.8163,1.8333,1.8346,1.8273,1.8318,1.8361,1.8507,1.8526,1.8482,1.8497,1.8515,1.8615,1.8593,1.8499,1.8464,1.8508,1.8557,1.8489,1.8478,1.8455,1.8404,1.8355,1.8253,1.824,1.8181,1.8212,1.8186,1.8197,1.8168,1.8022,1.7987,1.8039,1.8019,1.8048,1.798,1.7893,1.7791,1.7897,1.7822,1.7848,1.7798,1.7766,1.7823,1.7783,1.7718,1.7707,1.7684,1.7745,1.7695,1.7708,1.7589,1.7572,1.7641,1.7658,1.7694,1.7585,1.7576,1.7535,1.7624,1.764,1.7578,1.7532,1.7569,1.7605,1.755,1.7536,1.7496,1.7534,1.7619,1.7536,1.7449,1.7482,1.7557,1.7619,1.7562,1.7536,1.7416,1.7422,1.7617,1.7722,1.7879,1.7919,1.7994,1.807,1.8255,1.8363,1.8365,1.848,1.8503,1.856,1.8522,1.8519,1.847,1.8437,1.8344,1.8271,1.8029,1.7726,1.7659,1.7635,1.7531,1.7332,1.7258,1.7201,1.7224,1.7212,1.7072,1.7074,1.7123,1.717,1.7167,1.7078,1.7087,1.6874,1.6977,1.7066,1.7923,1.9349,2.1862,2.4683,2.726,2.8902,2.8994,2.8387,2.7058,2.3939,1.8531,1.507,1.4704,1.5131,1.5909,1.632,1.6511,1.6754,1.6735,1.6815,1.6888,1.6842,1.6797,1.6834,1.6858,1.6889,1.6889,1.6878,1.6857,1.6968,1.6968,1.6963,1.6968,1.6955,1.6994,1.6988,1.6976,1.6832,1.6989,1.698,1.704,1.7074,1.6968,1.6912,1.7008,1.7067,1.7031,1.6978,1.6954,1.693,1.7003,1.7026,1.6973,1.6984,1.6954,1.7061,1.701,1.6934,1.6837,1.6844,1.689,1.6953,1.7005,1.6898,1.6887,1.693,1.6917,1.7009,1.6918,1.6916,1.6978,1.6974,1.7012,1.7006,1.7037,1.7075,1.7116,1.7131,1.7044,1.7056,1.7067,1.7258,1.727,1.7273,1.7258,1.7351,1.7479,1.7549,1.76,1.7559,1.7627,1.7823,1.78,1.7815,1.781,1.7806,1.7914,1.7844,1.7858,1.7737,1.7712,1.7741,1.7718,1.7701,1.7575,1.7536,1.7574,1.7606,1.7571,1.754,1.7519,1.7537,1.7618,1.7672,1.7677,1.769,1.777,1.7892,1.7912,1.7928,1.7904,1.7912,1.8033,1.8109,1.8124,1.809,1.8125,1.8207,1.8252,1.8306,1.8252,1.826,1.8312,1.8317,1.8316,1.8232,1.8212,1.8255,1.8273,1.8237,1.8208,1.8168,1.8133,1.8227,1.8108,1.8039,1.7995,1.7956,1.8029,1.796,1.7896,1.7852,1.7841,1.7869,1.7801,1.7776,1.7727,1.7738,1.7787,1.7709,1.7687,1.7643,1.7618,1.7593,1.7666,1.765,1.7624,1.7769,1.7907,1.8112,1.8194,1.8222,1.8331,1.8369,1.8532,1.854,1.8516,1.8567,1.8521,1.8604,1.864,1.8557,1.8435,1.8303,1.8184,1.7931,1.7785,1.7534,1.741,1.7367,1.7288,1.7282,1.7183,1.7167,1.715,1.7162,1.7121,1.7029,1.7088,1.7099,1.7085,1.7065,1.7004,1.6884,1.6849,1.743,1.869,2.079,2.3649,2.6386,2.8462,2.9213,2.8572,2.7488,2.4651,1.9872,1.5245,1.4383,1.481,1.5495,1.6348,1.6512,1.6979,1.6922,1.7024,1.6943,1.698,1.6798,1.6733,1.6591,1.6668,1.6644,1.6702,1.6576,1.6691,1.6742,1.6836,1.6797
