5.754,5.7436,5.8045,5.8732,5.806,5.7849,5.7546,5.749,5.7641,5.8041,5.7974,5.7909,5.7892,5.8276,5.7913,5.711,5.7334,5.7271,5.7674,5.7386,5.764,5.7801,5.8164,5.8777,5.8886,5.86,5.8351,5.8475,5.8662,5.9159,5.9443,5.952,5.9199,5.9404,5.9358,5.9023,5.8471,5.7821,5.7406,5.835,5.8529,5.7879,5.7199,5.751,5.7715,5.7922,5.7933,5.7761,5.755,5.7506,5.7488,5.7625,5.7626,5.702,5.6589,5.6342,5.6683,5.7706,6.0024,6.347,6.6281,6.5921,6.0547,5.5985,5.4911,5.5617,5.6475,5.6822,5.7585,5.7918,5.7555,5.681,5.6786,5.6976,5.7357,5.7469,5.7144,5.6414,5.6312,5.6961,5.6614,5.6734,5.6562,5.6208,5.637,5.6284,5.6496,5.6419,5.6473,5.6639,5.6557,5.5728,5.5313,5.5455,5.6004,5.6212,5.5935,5.5544,5.5708,5.6342,5.6962,5.6478,5.6705,5.6983,5.7215,5.7588,5.7504,5.7317,5.7486,5.7472,5.7658,5.7925,5.7592,5.7187,5.7334,5.7773,5.7772,5.735,5.6724,5.6357,5.6662,5.6852,5.6386,5.6232,5.6392,5.6094,5.6677,5.6264,5.6047,5.6078,5.6047,5.6095,5.604,5.609,5.5717,5.5701,5.5976,5.59,5.5622,5.5956,5.6126,5.6373,5.6026,5.5726,5.5557,5.6208,5.5565,5.5136,5.5623,5.5486,5.5095,5.482,5.4981,5.5135,5.4958,5.555,5.647,5.5725,5.5285,5.5397,5.6104,5.7154,5.7735,5.791,5.7949,5.7686,5.7666,5.7878,5.7696,5.7661,5.741,5.6741,5.6624,5.6343,5.6468,5.6086,5.5743,5.6353,5.6008,5.6327,5.6384,5.6383,5.6476,5.6158,5.6161,5.6104,5.5883,5.5346,5.467,5.4734,5.5509,5.7534,6.1076,6.4969,6.714,6.402,5.7395,5.4816,5.5765,5.6378,5.627,5.6815,5.7336,5.716,5.6673,5.6722,5.713,5.7946,5.7378,5.7217,5.7398,5.7718,5.8085,5.7977,5.7798,5.7629,5.757,5.7723,5.8225,5.7608,5.7355,5.7295,5.7529,5.7772,5.7683,5.7558,5.751,5.7187,5.7683,5.8286,5.8156,5.7983,5.8168,5.9252,5.9185,5.8062,5.8423,5.9339,5.9494,5.9615,5.9555,5.9647,5.9968,5.9676,5.9799,5.9978,6.0258,6.0676,6.0955,6.0866,6.0693,6.0755,6.0677,6.0382,6.0534,6.0626,6.051,6.0404,6.012,6.0279,6.0059,5.9762,6.0001,6.0105,5.9775,5.9883,6.0332,6.0436,6.0315,6.089,6.1736,6.1617,6.1855,6.1547,6.22,6.3049,6.3035,6.2555,6.2491,6.2874,6.3155,6.2883,6.266,6.3303,6.3419,6.3085,6.3243,6.4013,6.4529,6.4437,6.4068,6.4282,6.4155,6.4133,6.4645,6.5062,6.4944,6.4286,6.4179,6.4133,6.4012,6.3107,6.2499,6.177,6.2157,6.2174,6.1656,6.1134,6.127,6.148,6.142,6.1462,6.128,6.1003,6.1095,6.157,6.1221,6.1301,6.0859,6.0496,6.0243,5.989,5.9967,6.3307,6.639,7.072,7.2015,6.7119,6.1168,5.908,6.0433,6.0458,6.0177,6.0387,6.0084,6.0374,6.0415,6.0581,6.0144,5.9973,5.9411,5.9466,5.9697,5.9306,5.8908,5.9182,5.932,5.8775,5.8221,5.7961,5.8234,5.8248,5.8523,5.8367,5.8089,5.8363,5.8444,5.8082,5.8076,5.8303,5.8488,5.8444,5.8711,5.8739,5.8735,5.8919,5.9035,5.8838,5.8704,5.8517,5.8815,5.8821,5.8731,5.8432,5.8627,5.8663,5.8744,5.9189,5.8741,5.838,5.8352,5.8577,5.8163,5.7774,5.7747,5.6801,5.7243,5.7005,5.6317,5.6113,5.5908,5.5867,5.5445,5.5052,5.4923,5.4589,5.4808,5.4647,5.4471,5.4099,5.4252,5.4864,5.5049,5.5413,5.5477,5.5544,5.5383,5.5351,5.5431,5.5561,5.5797,5.5814,5.5732,5.5958,5.6123,5.6264,5.6207,5.6822,5.6986,5.7095,5.7019,5.6886,5.7099,5.6877,5.6579,5.6595,5.6434,5.64,5.5915,5.5252,5.5073,5.4676,5.4543,5.4504,5.4514,5.4524,5.4554,5.4849,5.5024,5.498,5.5013,5.5428,5.4892,5.5588,5.581,5.5636,5.5796,5.5575,5.5163,5.4425,5.4581,5.5499,5.8239,6.258,6.4689,6.6375,6.3752,5.7756,5.473,5.4314,5.5059,5.5529,5.6795,5.6881,5.6851,5.6411,5.6873,5.7092,5.7018,5.7159,5.7397,5.7337,5.8229,5.8074,5.8379,5.8078,5.8426,5.8738,5.8999,5.8776,5.9156,5.8825,5.9117,5.9228,5.9338,5.8906,5.8825,5.88,5.8905,5.916,5.8979,5.9169,5.9601,6.0049,6.0385,6.0295,6.0409,6.0736,6.0508,6.121,6.1424,6.1079,6.1184,6.1448,6.2013,6.1724,6.1639,6.1828,6.1937,6.2093,6.1511,6.1123,6.1112,6.1354,6.1526,6.1032,6.0643,6.0304,6.015,6.0876,6.0357,6.0552,6.0285,6.0602,6.0386,6.072,6.0458,6.0601,6.0435,6.0881,6.0619,6.0344,6.0318,6.0852,6.0866,6.0914,6.0598,6.0537,6.0869,6.115,6.145,6.1913,6.1855,6.1782,6.2147,6.2495,6.2643,6.2535,6.2759,6.3161,6.3538,6.3596,6.3213,6.3266,6.3401,6.3387,6.2785,6.2803,6.2549,6.1788,6.1785,6.1833,6.1517,6.1479,6.1417,6.1652,6.1825,6.1111,6.0884,6.1169,6.1349,6.1315,6.1103,6.106,6.102,6.0934,6.0081,5.9738,5.977,6.0436,6.2576,6.6434,7.0283,7.2844,7.0568,6.4611,6.0924,6.0887,6.1035,6.1547,6.2204,6.2481,6.2204,6.1561,6.1765,6.154,6.1888,6.1902,6.1564,6.1305,6.1528,6.1934,6.2003,6.1775,6.1765,6.2012,6.2318,6.2252,6.2239,6.2301,6.234,6.2764,6.2687,6.2346,6.2002,6.2226,6.2516,6.2665,6.2523,6.2213,6.2534,6.2812,6.3157,6.292,6.2942,6.3213,6.369,6.3785,6.3701,6.3827,6.3976,6.4357,6.4583,6.4318,6.4162,6.4577,6.4715,6.4705,6.4806,6.4283,6.4001,6.393,6.404,6.3867,6.3375,6.319,6.3155,6.341,6.338,6.2867,6.2957,6.2886,6.3118,6.3054,6.2935,6.2559,6.2564,6.2762,6.291,6.2615,6.2748,6.2757,6.3278,6.3309,6.2917,6.2899,6.2978,6.3292,6.3828,6.337,6.3166,6.3353,6.3821,6.3817,6.3793,6.374,6.4253,6.4645,6.4405,6.4136,6.4253,6.4078,6.4686,6.4949,6.4793,6.4243,6.4219,6.4329,6.4419,6.3883,6.3394,6.3086,6.2878,6.2952,6.2854,6.2628,6.2739,6.3051,6.3346,6.3355,6.2987,6.3014,6.2991,6.3357,6.3372,6.3365,6.3015,6.3164,6.2986,6.258,6.2275,6.2463,6.4038,6.7581,7.2016,7.5367,7.2858,6.6723,6.2327,6.2508,6.2621,6.2396,6.2993,6.3418,6.3557,6.351,6.3227,6.3378,6.3596,6.3879,6.388,6.3578,6.3544,6.3712,6.4175,6.3824,6.3556,6.3558,6.4163,6.443,6.4676,6.4434,6.44,6.4596,6.4948,6.5153,6.4835,6.5005,6.509,6.5364,6.5743,6.5395,6.528,6.5404,6.5785,6.588,6.5799,6.576,6.6029,6.6704,6.6967,6.7028,6.6757,6.6989,6.7441,6.7646,6.7739,6.7579,6.7814,6.798,6.8105,6.7775,6.7353,6.7103,6.7346,6.7349,6.699,6.6721,6.6376,6.6603,6.6878,6.7059,6.6694,6.6783,6.6828,6.6921,6.6796,6.6404,6.6235,6.6354,6.6486,6.6561,6.6342,6.6261,6.6105,6.6525,6.6481,6.6237,6.6207,6.673,6.7504,6.7806,6.7828,6.7927,6.824,6.8357,6.8403,6.8044,6.7687,6.7649,6.7689,6.7863,6.7187,6.6987,6.689,6.7195,6.727,6.6977,6.7385,6.7595,6.7922,6.8113,6.8063,6.7838,6.78,6.7914,6.8502,6.8412,6.7997,6.7753,6.786,6.7734,6.7357,6.6912,6.622,6.643,6.6276,6.6291,6.5898,6.5949,6.5939,6.6244,6.6364,6.6167,6.5723,6.5838,6.5955,6.6038,6.5746,6.5452,6.5508,6.553,6.5191,6.4739,6.523,6.6815,6.9901,7.4785,7.8494,7.5969,6.9443,6.5516,6.5255,6.5483,6.5695,6.5874,6.619,6.649,6.6407,6.6144,6.6124,6.6261,6.6393,6.6382,6.6162,6.588,6.5968,6.6168,6.6505,6.6068,6.5936,6.6277,6.6781,6.6848,6.6935,6.6836,6.7058,6.7333,6.7328,6.6831,6.659,6.6721,6.7367,6.7241,6.7133,6.7006,6.6998,6.7136,6.7347,6.7254,6.7189,6.733,6.7903,6.8313,6.845,6.8342,6.8275,6.8627,6.8979,6.9011,6.884,6.9029,6.9294,6.9616,6.9477,6.8888,6.8469,6.8505,6.8486,6.8332,6.7656,6.7247,6.7458,6.7705,6.7584,6.7243,6.6998,6.6921,6.7204,6.7468,6.729,6.7094,6.6785,6.7108,6.7171,6.667,6.6703,6.6621,6.6868,6.7266,6.6715,6.663,6.703,6.7318,6.7359,6.7362,6.7175,6.7077,6.7331,6.7614,6.7337,6.7035,6.6774,6.7083,6.7435,6.7528,6.7196,6.6995,6.7248,6.7521,6.7169,6.6955,6.6915,6.7066,6.7471,6.7763,6.7757,6.8063,6.8276,6.8321,6.8331,6.817,6.8448,6.8493,6.9105,6.9186,6.8928,6.8683,6.851,6.8379,6.8317,6.7519,6.708,6.7091,6.7202,6.7245,6.7112,6.6799,6.6885,6.7197,6.718,6.696,6.6811,6.6784,6.7004,6.7133,6.7242,6.6596,6.584,6.546,6.6129,6.6785,6.9039,7.3069,7.7738,7.9232,7.613,6.9002,6.5133,6.6065,6.6381,6.71,6.6644,6.6566,6.684,6.7368,6.7411,6.7064,6.7132,6.7112,6.7165,6.7061,6.6835,6.6786,6.6867,6.7261,6.7297,6.703,6.6945,6.6938,6.7374,6.7767,6.7611,6.7453,6.7515,6.7542,6.7577,6.752,6.7219,6.7503,6.7607,6.7787,6.7542,6.7407,6.758,6.7898,6.8013,6.8497,6.8344,6.8266,6.8681,6.8996,6.9028,6.8996,6.9045,6.9224,6.9828,6.9947,6.97,6.9435,6.956,6.9769,6.9732,6.8977,6.8771,6.8633,6.8663,6.8703,6.8134,6.7895,6.7588,6.7735,6.7669,6.7561,6.7265,6.7626,6.7756,6.789,6.7725,6.7456,6.7195,6.747,6.7699,6.7659,6.7469,6.7432,6.7652,6.7729,6.7764,6.7528,6.7241,6.7569,6.7839,6.7647,6.7483,6.7202,6.7372,6.7541,6.7389,6.7374,6.7264,6.7506,6.7643,6.7689,6.7252,6.6959,6.7504,6.7466,6.7729,6.7444,6.7193,6.7523,6.7775,6.8218,6.8226,6.8039,6.8111,6.8376,6.8612,6.8662,6.8614,6.8751,6.8923,6.8893,6.8737,6.8406,6.8216,6.794,6.7863,6.7258,6.6679,6.6854,6.6868,6.704,6.6927,6.6503,6.6493,6.6648,6.6758,6.6794,6.6472,6.6286,6.6329,6.6677,6.6268,6.5363,6.5179,6.5513,6.5976,6.7891,7.1221,7.5137,7.8208,7.4789,6.8649,6.5268,6.5327,6.5804,6.6405,6.6757,6.6527,6.6261,6.646,6.6729,6.6779,6.6466,6.6352,6.6737,6.6761,6.6967,6.6736,6.6543,6.6373,6.6625,6.7089,6.7118,6.683,6.6968,6.718,6.7395,6.7359,6.6968,6.6926,6.6934,6.7132,6.7027,6.6747,6.6852,6.7007,6.7176,6.7616,6.7437,6.7232,6.7503,6.7978,6.8309,6.7926,6.7927,6.8289,6.862,6.8927,6.8566,6.8447,6.8798,6.8896,6.9117,6.8822,6.8681,6.8578,6.8627,6.8795,6.8467,6.8021,6.7935,6.7727,6.7596,6.7478,6.7084,6.6942,6.711,6.7155,6.7019,6.6706,6.6611,6.6676,6.6857,6.6715,6.6323,6.6361,6.6484,6.6803,6.684,6.6542,6.6382,6.6411,6.6643,6.6768,6.6507,6.634,6.6602,6.6769,6.7048,6.6577,6.6321,6.641,6.6607,6.6638,6.6261,6.6168,6.6096,6.6284,6.6398,6.6352,6.5874,6.5856,6.6063,6.6225,6.5873,6.5794,6.5563,6.5732,6.5886,6.5844,6.5644,6.5686,6.5694,6.6032,6.6071,6.5961,6.6386,6.6732,6.6823,6.6811,6.6604,6.6669,6.6888,6.7334,6.7347,6.6665,6.6611,6.6495,6.671,6.619,6.573,6.4969,6.4751,6.5213,6.5057,6.4849,6.4687,6.4751,6.4846,6.5235,6.5035,6.4653,6.4808,6.5094,6.5141,6.5011,6.4385,6.3743,6.3683,6.4029,6.4886,6.7004,7.0826,7.5047,7.5594,6.99,6.3941,6.2958,6.3451,6.4019,6.4765,6.4425,6.4346,6.444,6.484,6.5017,6.468,6.4436,6.4868,6.5031,6.518,6.5007,6.4592,6.4726,6.5122,6.5086,6.4925,6.4756,6.4841,6.5266,6.537,6.5256,6.4954,6.4858,6.5282,6.5517,6.5379,6.5279,6.5216,6.5462,6.5708,6.5652,6.5432,6.5593,6.5919,6.6248,6.6631,6.6109,6.6325,6.6431,6.695,6.7256,6.695,6.6768,6.6745,6.7454,6.7334,6.6921,6.688,6.6936,6.7091,6.6981,6.6607,6.6547,6.6539,6.6375,6.6166,6.5295,6.5127,6.5211,6.5364,6.5422,6.5098,6.485,6.4876,6.5015,6.5035,6.4811,6.4328,6.4465,6.4561,6.4705,6.4494,6.4235,6.4345,6.4628,6.4548,6.4367,6.4052,6.4077,6.4522,6.4853,6.4733,6.4722,6.4568,6.4705,6.4813,6.479,6.4467,6.4292,6.4386,6.4576,6.4495,6.4254,6.416,6.4114,6.4408,6.4085,6.3772,6.3645,6.3805,6.4318,6.4751,6.4622,6.4367,6.4569,6.5015,6.527,6.5011,6.5194,6.5307,6.5766,6.5642,6.5215,6.5177,6.4977,6.4775,6.4586,6.399,6.3437,6.3315,6.3311,6.3369,6.3275,6.2883,6.2899,6.3072,6.3245,6.3225,6.2977,6.3024,6.3156,6.326,6.3168,6.2444,6.1621,6.1824,6.2405,6.3635,6.6025,6.9774,7.1479,7.2957,6.8879,6.3012,6.0922,6.1337,6.2248,6.284,6.3037,6.2456,6.2702,6.2903,6.3188,6.2759,6.27,6.2712,6.2981,6.3101,6.2921,6.2567,6.251,6.2787,6.3042,6.2797,6.2566,6.2412,6.2663,6.299,6.2876,6.231,6.2403,6.2517,6.2869,6.2743,6.261,6.2726,6.3107,6.3422,6.355,6.3258,6.3261,6.339,6.396,6.4121,6.3675,6.3543,6.3918,6.44,6.4382,6.4135,6.3929,6.4126,6.4522,6.4728,6.4394,6.4105,6.4195,6.4391,6.4189,6.3729,6.3513,6.3558,6.3471,6.3527,6.3282,6.3048,6.2752,6.2852,6.3062,6.2974,6.2594,6.2627,6.2625,6.2744,6.2435,6.2011,6.2207,6.223,6.2507,6.2339,6.2078,6.2116,6.241,6.2681,6.2678,6.2455,6.2227,6.2425,6.2752,6.2784,6.2728,6.2541,6.2614,6.2795,6.2857,6.2443,6.2282,6.2321,6.2502,6.2816,6.2712,6.2875,6.309,6.3295,6.3309,6.3113,6.3005,6.3292,6.3816,6.404,6.3718,6.3267,6.3114,6.3096,6.3107,6.2765,6.203,6.1498,6.1523,6.1837,6.1741,6.1338,6.1209,6.1477,6.1517,6.1627,6.1237,6.1023,6.1182,6.1569,6.1395,6.1104,6.0484,6.0303,6.0721,6.1198,6.2836,6.6082,7.0142,7.2665,6.8866,6.2381,6.0103,5.9688,6.0568,6.1312,6.1529,6.1247,6.1477,6.1735,6.1813,6.1606,6.1283,6.1327,6.1533,6.1825,6.1572,6.1152,6.107,6.1441,6.17,6.1626,6.137,6.148,6.1583,6.2334,6.2097,6.1936,6.1916,6.2355,6.2566,6.2403,6.2123,6.2163,6.2389,6.2915,6.304,6.2759,6.2571,6.2787,6.3239,6.3134,6.3094,6.3093,6.3243,6.3718,6.4178,6.3788,6.3486,6.3761,6.4197,6.4427,6.4224,6.4109,6.3976,6.4344,6.4345,6.4084,6.3767,6.3678,6.3647,6.3606,6.3044,6.281,6.2991,6.3126,6.3342,6.3202,6.2756,6.258,6.279,6.3067,6.2971,6.2526,6.2498,6.2676,6.2989,6.2704,6.2455,6.2266,6.2714,6.2949,6.3157,6.2721,6.2724,6.2823,6.3088,6.326,6.3162,6.3031,6.3277,6.3518,6.3751,6.3458,6.3521,6.3648,6.4153,6.4665,6.4688,6.4406,6.4206,6.4529,6.4713,6.4507,6.4363,6.4654,6.4794,6.4803,6.4721,6.4595,6.4771,6.5128,6.5449,6.5137,6.4963,6.4647,6.4639,6.4647,6.3964,6.3352,6.3033,6.2943,6.3102,6.3026,6.2604,6.2619,6.267,6.3006,6.2943,6.2564,6.2436,6.2686,6.2918,6.2837,6.2398,6.2034,6.1259,6.1649,6.2402,6.5283,6.9285,7.3739,7.4406,6.8669,6.2728,6.1265,6.1759,6.1933,6.2905,6.2848,6.2499,6.2736,6.288,6.2946,6.2974,6.2486,6.2537,6.27,6.3005,6.2723,6.2505,6.24,6.2798,6.3142,6.2941,6.2846,6.29,6.3204,6.3583,6.374,6.359,6.3284,6.3357,6.342,6.3527,6.339,6.34,6.3571,6.3757,6.3787,6.3527,6.3419,6.3752,6.4193,6.4402,6.43,6.429,6.444,6.4647,6.4865,6.4912,6.4783,6.4839,6.5155,6.5419,6.5392,6.5143,6.5095,6.5312,6.5225,6.5003,6.4539,6.4537,6.4577,6.4691,6.4455,6.4047,6.3836,6.3696,6.4054,6.3868,6.3662,6.3409,6.3537,6.3773,6.374,6.3277,6.3357,6.3376,6.3597,6.354,6.3089,6.2956,6.3083,6.3348,6.3549,6.3294,6.3236,6.313,6.359,6.3773,6.3646,6.3299,6.339,6.3349,6.3838,6.3498,6.3281,6.3253,6.3356,6.3657,6.3546,6.317,6.2968,6.3351,6.3546,6.3423,6.3196,6.3366,6.3766,6.4261,6.4568,6.4083,6.4061,6.4448,6.472,6.5093,6.498,6.4963,6.4682,6.4922,6.4734,6.4009,6.3514,6.3046,6.2818,6.2629,6.2327,6.2226,6.2124,6.227,6.2395,6.23,6.2002,6.2127,6.2326,6.2318,6.2106,6.1972,6.1947,6.1812,6.1565,6.1345,6.1116,6.2666,6.5825,7.0102,7.3966,7.3936,6.8633,6.265,6.1101,6.1556,6.1564,6.1798,6.1823,6.2001,6.2122,6.1842,6.192,6.2207,6.2236,6.2317,6.2015,6.205,6.2133,6.254,6.2429,6.2294,6.2054,6.2176,6.2626,6.2694,6.2642,6.2426,6.2652,6.2822,6.303,6.264,6.2367,6.2378,6.2895,6.2888,6.2589,6.2382,6.2354,6.2538,6.2988,6.3039,6.2975,6.2931,6.3369,6.3593,6.3582,6.3487,6.3431,6.3787,6.3985,6.4057,6.376,6.3662,6.4143,6.4414,6.4221,6.3896,6.3546,6.3781,6.3788,6.3696,6.3432,6.3128,6.3023,6.3028,6.3028,6.2786,6.247,6.2603,6.2978,6.3235,6.3093,6.2447,6.2415,6.251,6.2643,6.2459,6.2047,6.235,6.2548,6.2602,6.2509,6.24,6.255,6.259,6.2865,6.3102,6.2655,6.2792,6.3181,6.3183,6.3308,6.2917,6.2661,6.306,6.3101,6.2997,6.2747,6.2626,6.2679,6.2905,6.2702,6.2493,6.2309,6.2576,6.2611,6.2939,6.2901,6.3061,6.3495,6.3834,6.3978,6.4004,6.408,6.4512,6.5127,6.5206,6.4614,6.4457,6.4465,6.4444,6.4111,6.378,6.3185,6.2583,6.2568,6.2753,6.2813,6.2317,6.2317,6.2322,6.2722,6.2245,6.2283,6.2151,6.2387,6.2818,6.2383,6.2116,6.1502,6.1158,6.1676,6.1919,6.331,6.6219,7.0375,7.3227,7.0117,6.3202,5.991,6.0573,6.1125,6.1948,6.1863,6.1278,6.1359,6.1608,6.155,6.1359,6.1481,6.1332,6.1493,6.1612,6.1509,6.13,6.119,6.1281,6.1546,6.144,6.1218,6.1461,6.1647,6.1761,6.1758,6.145,6.156,6.1893,6.2292,6.1952,6.1709,6.1793,6.205,6.2274,6.2394,6.2168,6.2266,6.2471,6.2856,6.2799,6.2627,6.2546,6.2724,6.3066,6.3234,6.3091,6.3066,6.3164,6.356,6.3775,6.3298,6.3322,6.3519,6.3715,6.3705,6.3321,6.3132,6.3113,6.3125,6.3144,6.2783,6.2252,6.2072,6.212,6.2241,6.2099,6.1667,6.1717,6.1803,6.1988,6.1602,6.1332,6.1327,6.1449,6.1637,6.1654,6.1471,6.1464,6.1624,6.1899,6.1945,6.1603,6.1629,6.1968,6.2272,6.2304,6.1955,6.1843,6.1893,6.189,6.2109,6.1547,6.1369,6.1602,6.1781,6.18,6.1589,6.1484,6.1738,6.2157,6.2484,6.221,6.1952,6.2134,6.2745,6.2947,6.2937,6.2303,6.223,6.2618,6.2516,6.2108,6.1488,6.0911,6.053,6.0745,6.0463,5.9956,5.9659,5.9827,6.0024,6.0152,5.9709,5.9489,5.9585,5.9745,5.9496,5.9286,5.8932,5.872,5.856,5.8789,5.929,6.183,6.5509,6.9154,7.0066,6.7112,6.1247,5.7788,5.8382,5.9362,5.9732,5.9954,6.0018,6.0267,6.0355,6.0183,5.9841,5.9717,6.0193,6.0268,6.0102,5.9742,5.9826,6.0324,6.0271,6.0285,5.9989,5.973,6.0009,6.0242,6.0364,6.0152,6.0145,6.0438,6.065,6.0693,6.0437,6.0448,6.0601,6.099,6.1227,6.1,6.0953,6.1136,6.1344,6.1585,6.1256,6.1041,6.106,6.1583,6.2165,6.1769,6.1649,6.18,6.2124,6.2373,6.2214,6.1987,6.2262,6.2262,6.2318,6.2007,6.1806,6.1702,6.1911,6.1983,6.1495,6.1019,6.079,6.0901,6.1114,6.0981,6.0575,6.055,6.0683,6.0984,6.0913,6.0322,6.0079,6.0613,6.0726,6.0551,6.0316,6.0264,6.0498,6.0766,6.0726,6.0483,6.0505,6.055,6.0875,6.0926,6.0777,6.0461,6.0624,6.0901,6.1193,6.0981,6.0809,6.0964,6.1393,6.1715,6.1455,6.1139,6.144,6.1897,6.1986,6.2116,6.1919,6.1676,6.1745,6.1953,6.1565,6.0902,6.079,6.0679,6.0599,6.0018,5.954,5.9459,5.9637,5.9841,5.983,5.9398,5.9533,5.9793,6.0061,6.0044,5.9662,5.9592,5.9606,5.9789,5.9388,5.8773,5.8735,5.9661,6.227,6.6154,6.9901,7.0103,6.4606,5.9082,5.8216,5.8617,5.8989,5.949,5.9933,6.0182,6.0225,5.9593,5.9835,6.0231,6.0413,6.0399,6.0088,6.0074,6.0287,6.0548,6.0423,6.0175,5.9976,6.0108,6.0282,6.0277,6.0149,6.0149,6.0352,6.0568,6.0597,6.0229,6.032,6.0685,6.0878,6.1299,6.0899,6.0974,6.1167,6.1496,6.1716,6.1422,6.1314,6.1592,6.2108,6.2223,6.2057,6.1883,6.2061,6.241,6.2513,6.2492,6.2335,6.2412,6.258,6.3103,6.2914,6.2303,6.234,6.2488,6.248,6.2411,6.2087,6.1868,6.2056,6.2107,6.1691,6.1393,6.1274,6.1407,6.1563,6.1715,6.1475,6.1084,6.1173,6.1271,6.1291,6.1072,6.0802,6.0999,6.1418,6.1367,6.1268,6.0982,6.1176,6.1696,6.1816,6.1556,6.1399,6.1734,6.1782,6.1893,6.1847,6.1431,6.1245,6.1407,6.1632,6.1351,6.1311,6.157,6.1815,6.236,6.2079,6.1642,6.1808,6.2385,6.2657,6.2575,6.2582,6.2758,6.2903,6.3142,6.2867,6.2381,6.1983,6.185,6.2113,6.2396,6.255,6.2242,6.2091,6.2133,6.2192,6.1573,6.126,6.1402,6.1459,6.1548,6.1071,6.0842,6.0809,6.0603,6.0223,5.9838,5.9827,6.1401,6.2711,6.6651,7.1316,7.0678,6.4304,5.9844,6.018,6.0268,6.0526,6.0752,6.1084,6.1176,6.0997,6.0904,6.1132,6.1132,6.1102,6.1198,6.0774,6.0755,6.0773,6.0977,6.1036,6.0624,6.0826,6.1175,6.1446,6.1595,6.1406,6.1451,6.1667,6.2069,6.1987,6.1639,6.1411,6.1533,6.1798,6.1959,6.1882,6.1735,6.1734,6.1935,6.2357,6.201,6.1954,6.2068,6.2507,6.2788,6.2613,6.2518,6.2711,6.2863,6.3258,6.3212,6.2898,6.2833,6.3074,6.3462,6.3421,6.2844,6.2739,6.2646,6.2743,6.2594,6.2033,6.1875,6.1865,6.2019,6.1821,6.1479,6.1402,6.1594,6.1902,6.1842,6.1368,6.1132,6.1448,6.1587,6.1698,6.1349,6.1054,6.1235,6.1491,6.1714,6.134,6.1219,6.1396,6.1599,6.1966,6.1706,6.1607,6.1574,6.1726,6.1903,6.1326,6.1146,6.1196,6.1307,6.1411,6.1426,6.0992,6.1036,6.1563,6.2001,6.2161,6.2015,6.1832,6.217,6.2525,6.2508,6.2558,6.266,6.286,6.2843,6.2878,6.2343,6.1865,6.1957,6.2089,6.1502,6.0997,6.0548,6.0805,6.106,6.1168,6.0656,6.0347,6.0631,6.0846,6.1012,6.0499,6.0337,6.0225,6.0559,6.0485,5.9908,5.9145,5.9399,5.9491,6.0895,6.3773,6.7769,7.1772,7.0604,6.4378,6.0076,5.9519,5.9943,6.058,6.1124,6.1059,6.0713,6.0737,6.104,6.1181,6.0967,6.059,6.0518,6.0623,6.0739,6.0698,6.047,6.0297,6.0364,6.0762,6.1077,6.0809,6.0834,6.1076,6.1431,6.1789,6.1518,6.1355,6.1683,6.1932,6.2089,6.1797,6.1386,6.162,6.1831,6.1871,6.195,6.1767,6.1776,6.2057,6.2276,6.2172,6.1957,6.2075,6.2423,6.2776,6.2681,6.2587,6.2583,6.2986,6.3307,6.3392,6.296,6.3016,6.2946,6.319,6.3187,6.2697,6.2226,6.2185,6.2075,6.1922,6.1627,6.1453,6.1359,6.1507,6.1553,6.1328,6.116,6.1207,6.1423,6.1338,6.1068,6.1013,6.0931,6.1084,6.1433,6.1479,6.119,6.1361,6.1528,6.1776,6.1504,6.1164,6.1247,6.1469,6.1859,6.1679,6.1315,6.124,6.1349,6.1584,6.1375,6.1165,6.1063,6.1301,6.1537,6.1395,6.0807,6.0721,6.0925,6.1005,6.1236,6.1427,6.1576,6.1722,6.2074,6.2152,6.2126,6.2243,6.2592,6.2929,6.3279,6.2538,6.2447,6.2386,6.2225,6.2058,6.1524,6.0807,6.0583,6.0817,6.0941,6.0498,6.026,6.0079,6.021,6.0476,6.0271,6.0095,5.998,5.995,6.0255,6.0052,5.9863,5.9617,5.939,5.9369,5.9798,6.0513,6.2851,6.7133,7.1246,7.0859,6.4419,5.9324,5.9269,5.9637,6.0145,6.0348,5.9949,6.0117,6.0454,6.057,6.0423,6.0342,6.038,6.0533,6.0579,6.0431,6.0071,6.0223,6.0305,6.0502,6.0416,6.0338,6.0542,6.0729,6.1044,6.0798,6.069,6.0655,6.1138,6.1259,6.0998,6.0957,6.0917,6.1223,6.1657,6.1558,6.1225,6.1212,6.1452,6.1801,6.1666,6.1541,6.1665,6.191,6.2065,6.2303,6.1831,6.1814,6.1913,6.2385,6.2535,6.2306,6.2313,6.2288,6.2345,6.2527,6.2289,6.2254,6.2117,6.2047,6.2222,6.1747,6.1316,6.1349,6.1341,6.1578,6.1372,6.0878,6.0939,6.0583,6.0776,6.052,6.0157,6.0151,6.0134,6.0308,6.0171,5.99,5.9833,6.0054,6.0305,6.0506,6.0085,6.0158,6.0573,6.0849,6.0922,6.0435,6.049,6.0747,6.0774,6.0687,6.0354,6.0249,6.0367,6.0378,6.0385,6.0005,5.9758,5.9964,5.977,6.0051,5.9661,5.9418,5.9806,6.0556,6.1073,6.0694,6.0486,6.0692,6.1247,6.1556,6.1533,6.1633,6.1491,6.1695,6.1912,6.1466,6.0822,6.0143,5.9961,5.9658,5.9512,5.9045,5.8948,5.8902,5.9308,5.9188,5.8934,5.9083,5.92,5.943,5.9477,5.9089,5.8836,5.8934,5.9198,5.8851,5.7925,5.8,5.8811,6.1178,6.4835,6.7796,6.8471,6.3932,5.9074,5.7191,5.7579,5.7904,5.8436,5.9005,5.8926,5.8737,5.8655,5.8563,5.8585,5.9137,5.8833,5.8709,5.8669,5.9195,5.9543,5.9175,5.857,5.8421,5.8493,5.8887,5.8769,5.8641,5.881,5.8917,5.9106,5.9022,5.8774,5.8863,5.9291,5.9684,5.9826,5.9602,5.9579,5.9435,5.9589,6.0264,5.99,5.9706,6.0019,6.0675,6.0752,6.039,6.0132,6.047,6.0866,6.0667,6.0622,6.0509,6.0461,6.098,6.1039,6.106,6.0956,6.0728,6.0947,6.1202,6.0606,6.0237,5.9951,5.9933,6.0142,5.9782,5.9248,5.9355,5.9571,5.9545,5.9326,5.9025,5.8971,5.8858,5.9181,5.9081,5.8868,5.8653,5.8888,5.9332,5.9466,5.916,5.8739,5.9229,5.9514,5.965,5.9569,5.95,5.9549,5.985,5.9927,5.9515,5.9348,5.925,5.9414,5.9653,5.9278,5.8894,5.8814,5.8865,5.9271,5.9201,5.8941,5.9179,5.948,5.9877,5.9983,5.965,5.9722,6.0109,6.06,6.075,6.0656,6.0599,6.0479,6.082,6.0785,6.0028,5.9526,5.9382,5.9379,5.8974,5.8479,5.8253,5.8445,5.8851,5.8918,5.835,5.8388,5.8426,5.8666,5.8624,5.8183,5.8048,5.8083,5.8328,5.8265,5.722,5.6956,5.7443,5.8975,6.21,6.5784,6.858,6.7106,6.1163,5.6916,5.693,5.7423,5.7917,5.8581,5.8822,5.8421,5.8159,5.8253,5.8363,5.876,5.8759,5.8427,5.823,5.8624,5.8754,5.8588,5.8121,5.8175,5.8353,5.8738,5.8705,5.8427,5.8423,5.8546,5.8848,5.899,5.8748,5.8598,5.8978,5.9135,5.9284,5.9024,5.8907,5.9102,5.9476,5.9681,5.9766,5.9473,5.9669,5.9886,5.9889,5.9924,5.9834,6.0066,6.0349,6.0666,6.03,6.0143,6.0471,6.0709,6.0871,6.1075,6.0638,6.0485,6.0611,6.0755,6.0476,5.9919,5.9681,5.981,6.0147,5.9833,5.9142,5.9008,5.9158,5.9308,5.9376,5.9093,5.8987,5.8966,5.9501,5.9381,5.9057,5.8889,5.8842,5.92,5.9523,5.9254,5.9251,5.9298,5.9439,5.9443,5.9401,5.9342,5.9316,5.9729,6.0059,5.9727,5.9414,5.9234,5.9524,5.9966,5.9747,5.9455,5.9275,5.9346,5.9396,5.9438,5.8961,5.9057,5.9089,5.9464,5.9653,5.9419,5.95,6.0132,6.0665,6.0442,6.0412,6.0391,6.0797,6.117,6.1488,6.1067,6.088,6.0745,6.1005,6.0984,6.0526,5.9738,5.9521,5.9615,5.9653,5.9137,5.8918,5.9056,5.9151,5.9355,5.8905,5.8841,5.8965,5.8952,5.9309,5.9149,5.8946,5.855,5.809,5.815,5.8357,5.9404,6.1819,6.6385,7.081,7.0164,6.3617,5.8435,5.8043,5.8988,5.9389,5.9532,5.9275,5.9279,5.9504,5.9601,5.9297,5.9165,5.9412,5.9677,5.9768,5.9396,5.9225,5.9173,5.9388,5.9665,5.9559,5.9555,5.9904,6.0106,6.0496,6.0361,6.0274,6.0277,6.0431,6.0791,6.0631,6.0537,6.0422,6.0792,6.0904,6.0836,6.0518,6.054,6.0726,6.1136,6.0976,6.1026,6.0941,6.1491,6.2298,6.2415,6.2528,6.2981,6.2841,6.3158,6.324,6.2948,6.2803,6.2845,6.3271,6.3118,6.2625,6.2351,6.2124,6.2282,6.2208,6.16,6.1166,6.1311,6.1479,6.1371,6.12,6.082,6.0725,6.0803,6.1054,6.0746,6.0578,6.0508,6.0832,6.1232,6.0901,6.0637,6.0808,6.096,6.1157,6.1091,6.0762,6.0953,6.1215,6.1452,6.1119,6.094,6.0989,6.0998,6.1329,6.1243,6.0872,6.0728,6.1105,6.0925,6.1171,6.0846,6.0801,6.091,6.0966,6.1107,6.0588,6.0535,6.0639,6.0725,6.0785,6.0822,6.081,6.1227,6.1582,6.1729,6.1571,6.1486,6.1693,6.2023,6.2289,6.2085,6.1937,6.192,6.2084,6.1934,6.1297,6.0579,6.0233,6.0137,6.0389,6.0139,5.9947,5.9769,6.0007,6.0161,6.0191,5.9681,5.9604,5.9897,5.9966,5.9985,5.9636,5.9323,5.902,5.8884,5.9043,5.9527,6.1406,6.5471,6.9985,7.1776,6.9892,6.3448,5.8634,5.8941,5.9409,5.9676,5.968,5.9765,5.9929,6.0214,5.9905,5.9684,5.9745,6.0072,6.021,6.0184,5.9808,5.9634,5.9667,6,6.0033,5.9892,6.0097,6.0303,6.0762,6.07,6.0497,6.0518,6.0621,6.1073,6.1088,6.0805,6.0703,6.0726,6.1092,6.1009,6.0901,6.0866,6.0951,6.1456,6.1664,6.1484,6.1134,6.1261,6.1775,6.2168,6.2039,6.1975,6.198,6.2355,6.2575,6.2316,6.2196,6.2423,6.2844,6.2958,6.2518,6.2158,6.2064,6.2008,6.2176,6.1913,6.1405,6.1241,6.1403,6.1474,6.1151,6.0705,6.0591,6.0724,6.1079,6.0926,6.054,6.0374,6.0535,6.0784,6.0786,6.0412,6.0297,6.0512,6.0829,6.0692,6.0675,6.0379,6.0471,6.0748,6.0863,6.0781,6.0502,6.0803,6.0825,6.1177,6.0534,6.0124,6.0367,6.0493,6.0744,6.0342,6.0092,6.0181,6.0478,6.0739,6.0629,6.0117,6.0081,6.0137,6.0319,6.0366,5.9963,5.9894,6.0302,6.0732,6.1018,6.1005,6.1147,6.1437,6.1583,6.2003,6.1793,6.1983,6.2201,6.2007,6.1958,6.1375,6.0945,6.08,6.0731,6.0618,5.9821,5.9281,5.9285,5.96,5.9573,5.9297,5.9317,5.9353,5.9576,5.9736,5.9755,5.9258,5.9417,5.9668,5.9801,5.9606,5.8776,5.8301,5.8556,5.8968,6.0377,6.3361,6.7326,7.0575,6.8069,6.136,5.7256,5.7685,5.844,5.9272,5.9259,5.8753,5.8877,5.9213,5.9594,5.9594,5.9382,5.923,5.925,5.9531,5.9519,5.9096,5.8937,5.8975,5.9321,5.9505,5.9301,5.92,5.9392,5.9742,5.9778,5.9426,5.942,5.939,5.9623,5.9978,6.006,5.9619,5.9671,5.9954,6.0401,6.0353,6.0153,6.028,6.0556,6.0893,6.0975,6.0794,6.0937,6.1198,6.1564,6.1316,6.1156,6.1246,6.1352,6.1724,6.1763,6.1455,6.1388,6.1731,6.1803,6.1712,6.1545,6.1094,6.1052,6.1291,6.1011,6.0742,6.0364,6.0498,6.0338,6.0299,5.9972,5.9763,5.9735,5.9818,5.9897,5.9618,5.9302,5.9299,5.9335,5.9572,5.9416,5.9078,5.9209,5.9572,5.9779,5.9677,5.955,5.982,6.0298,6.0313,5.9918,5.9472,5.9661,5.9874,5.9964,5.9793,5.9344,5.9096,5.9163,5.9349,5.9237,5.9094,5.8933,5.9108,5.9407,5.9401,5.8951,5.8947,5.9075,5.91,5.9187,5.9184,5.9137,5.9603,6.01,6.0103,6.0228,6.0109,5.9914,6.0252,6.052,6.0352,6.0242,6.0017,6.0071,6.0353,5.9767,5.9447,5.9217,5.8931,5.8765,5.833,5.7814,5.7942,5.8349,5.8504,5.8355,5.8107,5.7827,5.7934,5.8277,5.819,5.7801,5.7563,5.7538,5.7708,5.71,5.6183,5.6206,5.7455,5.9919,6.3182,6.6229,6.6764,6.5049,5.9448,5.59,5.5783,5.6135,5.6948,5.7613,5.7917,5.7788,5.7297,5.7268,5.7605,5.7691,5.7541,5.7148,5.7152,5.7446,5.752,5.7177,5.686,5.6914,5.7197,5.7353,5.7312,5.7064,5.7096,5.7413,5.7685,5.7696,5.7285,5.733,5.7606,5.8076,5.7987,5.7653,5.773,5.7942,5.843,5.8412,5.8075,5.8003,5.8331,5.8756,5.8841,5.8621,5.857,5.8669,5.9204,5.9442,5.9359,5.9116,5.9294,5.9731,5.9948,5.9709,5.9538,5.9546,5.9693,5.9788,5.9215,5.8763,5.8555,5.8713,5.8618,5.8263,5.8018,5.766,5.7586,5.8083,5.7955,5.7573,5.7514,5.782,5.7836,5.7927,5.758,5.7405,5.7702,5.7756,5.7709,5.7609,5.779,5.7905,5.8057,5.8201,5.7688,5.757,5.7615,5.7889,5.8211,5.7882,5.7561,5.7701,5.7889,5.8127,5.784,5.7532,5.7648,5.7858,5.7931,5.7594,5.7462,5.7553,5.7996,5.8182,5.8452,5.8455,5.8765,5.8758,5.9187,5.9269,5.8948,5.9151,5.9716,6.0179,5.9873,5.9411,5.9354,5.9403,5.9365,5.8918,5.8232,5.774,5.8071,5.8236,5.8307,5.7774,5.7704,5.794,5.8063,5.8338,5.778,5.7854,5.7857,5.8152,5.8388,5.8065,5.7373,5.692,5.6885,5.7774,5.8948,6.1694,6.5925,6.92,6.8903,6.3576,5.7689,5.6516,5.7394,5.7858,5.8076,5.7897,5.7899,5.8143,5.8489,5.8451,5.8035,5.8014,5.8451,5.8805,5.8508,5.8098,5.81,5.8307,5.8703,5.8728,5.8705,5.8561,5.9136,5.9271,5.9431,5.9108,5.9075,5.9355,5.9633,5.9464,5.9033,5.9085,5.9297,5.9648,5.9898,5.9444,5.9468,5.9743,5.9835,6.0115,6.015,6.0075,6.0251,6.0664,6.1252,6.1653,6.1669,6.1879,6.1855,6.2029,6.1839,6.1616,6.1513,6.1858,6.1759,6.1323,6.0835,6.0701,6.0573,6.0633,6.0597,6.0335,5.997,6.0138,6.0048,5.9969,5.9505,5.9195,5.9723,5.98,5.9714,5.931,5.9101,5.9199,5.9449,5.9396,5.9115,5.9035,5.923,5.9304,5.9399,5.9366,5.9381,5.92,5.9556,6.0013,5.9771,5.9524,5.9678,5.9796,5.9992,5.9898,5.9362,5.9555,5.9557,5.9764,5.9363,5.9013,5.8977,5.9138,5.9209,5.9065,5.8878,5.8807,5.8821,5.9177,5.9257,5.9184,5.9202,5.9755,6.0263,6.0525,6.0299,6.0031,6.0461,6.104,6.1296,6.0955,6.0895,6.083,6.0923,6.0955,6.0616,6.0103,5.9654,5.9348,5.9336,5.8835,5.8589,5.8506,5.8888,5.903,5.881,5.8432,5.8715,5.8756,5.8968,5.8759,5.8555,5.847,5.8527,5.8351,5.7913,5.7554,5.7961,5.9874,6.3397,6.7658,7.0334,6.7066,6.0714,5.7677,5.7791,5.7919,5.8391,5.8788,5.8842,5.8586,5.8335,5.8444,5.8494,5.8701,5.8929,5.9033,5.8519,5.8596,5.8867,5.8823,5.8531,5.8349,5.8655,5.9158,5.9385,5.9076,5.8791,5.9222,5.946,5.9538,5.9293,5.9207,5.9098,5.9294,5.9649,5.958,5.9293,5.9288,5.9584,6.015,6.0106,5.9851,5.9774,6.011,6.0561,6.0714,6.0468,6.0516,6.0762,6.1077,6.1107,6.1021,6.0863,6.093,6.1206,6.1486,6.133,6.097,6.0909,6.1093,6.1176,6.0554,6.0362,6.0292,6.0409,6.0316,6.0011,5.9589,5.9616,5.9821,5.9842,5.9478,5.9275,5.9341,5.9285,5.9489,5.9392,5.9094,5.8661,5.9011,5.9478,5.9423,5.9091,5.9193,5.9491,5.9812,5.9663,5.9477,5.9536,5.972,5.9901,5.9773,5.9682,5.9538,5.9426,5.996,5.9687,5.9289,5.9092,5.9327,5.9404,5.9443,5.8985,5.8655,5.8882,5.8929,5.91,5.8968,5.9023,5.9344,5.9687,6.0003,6.0251,6.0195,6.0389,6.0371,6.0884,6.0798,6.0861,6.0856,6.1232,6.1235,6.0855,6.0429,6.0082,5.9841,5.9653,5.92,5.8733,5.8688,5.889,5.9311,5.8747,5.8519,5.8643,5.8708,5.8994,5.929,5.8929,5.8714,5.8842,5.905,5.9201,5.8364,5.7478,5.7593,5.8249,5.9916,6.307,6.6865,7.0246,6.7603,6.0951,5.7121,5.729,5.7649,5.8299,5.9094,5.8934,5.8791,5.8605,5.9027,5.9462,5.9441,5.8886,5.8907,5.9046,5.941,5.8955,5.872,5.8455,5.8774,5.914,5.9011,5.8848,5.9075,5.9123,5.9313,5.9644,5.9318,5.9174,5.9266,5.9582,5.9598,5.9435,5.9403,5.9519,5.96,5.9925,5.9624,5.9532,5.9751,6.015,6.0248,6.0049,6.0054,6.0151,6.0266,6.0698,6.0699,6.0451,6.0362,6.0826,6.1091,6.0719,6.0636,6.088,6.1069,6.1197,6.0641,6.0206,6.0189,6.0246,6.0501,6.0082,5.9599,5.9474,5.9441,5.947,5.9444,5.9012,5.8849,5.9146,5.9305,5.8966,5.8849,5.859,5.8841,5.9136,5.9052,5.8887,5.8961,5.9085,5.9369,5.9618,5.9374,5.9179,5.9273,5.9549,5.9975,5.9911,5.9683,5.9516,5.9662,5.9619,5.9371,5.9133,5.9301,5.9359,5.9397,5.9312,5.9024,5.8845,5.8925,5.9158,5.8962,5.8647,5.8598,5.8815,5.9069,5.9086,5.889,5.887,5.9262,6.0059,6.0091,5.984,5.9479,5.997,6.0491,6.0389,6.0436,6.0249,6.0243,6.046,6.0311,5.9822,5.9271,5.9116,5.9164,5.8878,5.875,5.8436,5.821,5.8639,5.871,5.8466,5.8273,5.8323,5.848,5.8585,5.8397,5.8078,5.8159,5.817,5.7871,5.701,5.676,5.7048,5.8748,6.1458,6.516,6.8138,6.7208,6.1638,5.7107,5.6798,5.7218,5.7521,5.8191,5.838,5.8517,5.8202,5.8083,5.8514,5.8737,5.8627,5.8169,5.8028,5.8113,5.8662,5.8575,5.8464,5.8134,5.8306,5.8499,5.8535,5.8335,5.8171,5.8348,5.8738,5.9004,5.8845,5.8556,5.8369,5.8857,5.9286,5.8807,5.8819,5.8868,5.9024,5.9308,5.9498,5.9268,5.9286,5.9321,5.9393,5.936,5.9543,5.9645,5.985,6.0165,6.003,5.9632,5.9743,5.986,6.0132,6.0132,5.9887,5.9719,5.9815,5.9641,5.9552,5.9354,5.8999,5.8613,5.8673,5.8619,5.8234,5.7852,5.7602,5.8034,5.8024,5.7801,5.7442,5.7555,5.7616,5.7705,5.7604,5.7557,5.7567,5.7561,5.7579,5.7611,5.745,5.7566,5.7792,5.8029,5.7921,5.7549,5.7728,5.7882,5.7975,5.8056,5.7868,5.7564,5.7835,5.8122,5.8013,5.772,5.7611,5.7573,5.7753,5.7847,5.7634,5.7465,5.7564,5.8026,5.8089,5.8126,5.809,5.8293,5.8639,5.8732,5.875,5.8793,5.9158,5.9357,5.9336,5.8845,5.8742,5.8613,5.8443,5.8538,5.8105,5.7332,5.7159,5.712,5.7244,5.7279,5.6978,5.7017,5.7047,5.7406,5.6989,5.6796,5.6883,5.7088,5.7374,5.7347,5.6751,5.6545,5.6048,5.6102,5.6452,5.7763,6.0487,6.4364,6.7439,6.5735,5.9636,5.5185,5.5217,5.6221,5.6795,5.6912,5.6641,5.718,5.7231,5.7329,5.7211,5.7114,5.7202,5.7428,5.7848,5.7881,5.7373,5.7178,5.764,5.7877,5.7582,5.7201,5.745,5.7719,5.7842,5.7763,5.7643,5.7509,5.7777,5.8229,5.8103,5.7993,5.7871,5.7788,5.8284,5.8418,5.8204,5.8071,5.8408,5.8834,5.8929,5.8973,5.8786,5.9182,5.9369,5.9619,5.938,5.9343,5.9615,5.982,6.0278,6.0093,6.0189,5.976,5.9797,5.9996,5.988,5.9697,5.9456,5.9371,5.9669,5.9389,5.8869,5.8816,5.8686,5.8959,5.8573,5.8339,5.8418,5.8605,5.8828,5.8758,5.8495,5.8314,5.856,5.8736,5.8799,5.847,5.8555,5.866,5.921,5.8949,5.8627,5.8482,5.8304,5.8803,5.9005,5.8629,5.8848,5.9035,5.9173,5.9214,5.8686,5.8532,5.8475,5.8805,5.9074,5.8714,5.8518,5.8666,5.9124,5.8955,5.8596,5.843,5.8489,5.9018,5.929,5.97,5.9651,5.9587,5.9933,6.0238,6.0046,5.9888,6.021,6.0635,6.105,6.0785,6.0403,6.0184,6.0023,5.9799,5.9995,5.9303,5.8967,5.9127,5.9428,5.9707,5.9678,6.0063,6.0313,6.0394,6.041,5.9641,5.9509,5.9669,5.9809,6.0023,5.9349,5.8802,5.8118,5.8459,5.9311,6.128,6.4739,6.9113,7.1127,6.6906,6.0071,5.7244,5.8164,5.875,5.9469,5.9295,5.9019,5.9315,5.9298,5.958,5.9663,5.9489,5.9185,5.9502,5.9614,5.974,5.9417,5.9367,5.9252,5.9742,5.9832,5.9678,5.9463,5.9743,6.0151,6.0097,5.9982,5.9745,5.9769,5.995,5.9892,5.9911,5.9628,5.9842,6.0129,6.0168,6.0044,6.0126,6.0108,6.0447,6.0948,6.0756,6.0768,6.097,6.1462,6.1525,6.1343,6.1326,6.1292,6.16,6.2064,6.217,6.1995,6.1605,6.1942,6.1969,6.1749,6.1315,6.1249,6.1274,6.1197,6.0916,6.0533,6.0258,6.004,6.0247,6.0142,5.9992,5.9908,6.0087,6.0314,6.0228,5.9922,5.961,5.9672,6.0033,6.0096,5.9887,5.9728,5.9811,6.0066,6.0129,5.9798,5.9745,5.9968,6.0235,6.0395,6.0142,6.0063,5.9938,6.0152,6.0271,6.0085,5.9715,5.9945,6.0143,6.0385,6.0042,5.9809,5.9744,5.9821,6.0162,6.016,5.9674,5.9856,6.0018,6.0355,5.9934,5.9837,5.9787,6.0127,6.0697,6.1124,6.0785,6.0778,6.1403,6.1667,6.1731,6.1415,6.1466,6.1655,6.1783,6.1826,6.1165,6.0662,6.0574,6.0357,6.0115,5.9858,5.9325,5.9455,5.9619,6.0043,5.9817,5.9419,5.9432,5.9522,5.9857,5.9525,5.9392,5.9299,5.9616,5.9702,5.9019,5.8115,5.8505,6.0039,6.3083,6.7294,6.9371,7.1517,6.7676,6.1556,5.8882,5.861,5.9242,5.969,6.0285,6.0055,5.9906,5.9676,6.0151,6.0349,6.059,6.0052,6.0236,6.023,6.0448,6.0338,6.0203,5.9995,6.0142,6.0315,6.096,6.0621,6.0517,6.0549,6.089,6.1029,6.1041,6.0863,6.0779,6.1025,6.106,6.0716,6.0653,6.0789,6.1053,6.1191,6.1329,6.1137,6.122,6.1587,6.2262,6.217,6.2237,6.2122,6.2406,6.2621,6.2922,6.2676,6.2776,6.2977,6.3348,6.3258,6.2959,6.2748,6.2885,6.2944,6.2661,6.2392,6.2112,6.1667,6.1667,6.1892,6.1353,6.0994,6.1109,6.1247,6.1216,6.0819,6.0779,6.0836,6.1013,6.1044,6.0777,6.0571,6.0636,6.0758,6.0874,6.0873,6.0477,6.0645,6.0723,6.1243,6.0941,6.0779,6.053,6.074,6.084,6.1021,6.0721,6.0507,6.0576,6.0849,6.0533,6.0207,6.0178,6.0591,6.0792,6.0641,6.0481,6.0481,6.0319,6.0716,6.0683,6.0285,6.0115,6.0282,6.0375,6.035,6.0182,6.0027,6.0098,6.037,6.0903,6.1028,6.0922,6.0966,6.1274,6.154,6.1455,6.1317,6.1351,6.1838,6.1899,6.1583,6.1207,6.1086,6.0927,6.1049,6.0295,5.9754,5.9522,5.9688,5.9657,5.9748,5.9554,5.9177,5.9279,5.9682,5.9779,5.9353,5.9029,5.9218,5.9467,5.9577,5.9147,5.8546,5.8055,5.8482,5.9394,6.1462,6.5078,6.9273,7.1135,6.637,5.9857,5.777,5.852,5.9205,5.963,5.9625,5.9581,5.946,5.963,5.9895,5.9847,5.9495,5.942,5.9735,6.0013,6.0064,5.9814,5.9702,5.9825,6.0081,6.0157,5.9903,5.9828,6.0083,6.0522,6.0633,6.0333,6.018,6.0322,6.0472,6.0771,6.0377,6.0316,6.0573,6.0933,6.1034,6.0763,6.0804,6.1102,6.136,6.1406,6.1165,6.1145,6.1613,6.1984,6.2057,6.1695,6.1802,6.189,6.2223,6.2493,6.2172,6.1945,6.1898,6.1961,6.2125,6.1956,6.1425,6.1369,6.1102,6.1423,6.0641,6.0378,6.0299,6.0264,6.0384,6.0207,5.9685,5.9867,6.0102,6.0202,6.0412,5.9865,5.966,5.9779,6.0093,6.0051,5.9689,5.9494,5.99,6.0135,6.0155,5.9904,5.9634,5.9874,6.0309,6.0424,6.0316,6.0078,5.998,6.0246,6.0458,6.0359,5.9716,5.9645,5.9613,5.978,5.9811,5.9566,5.9626,5.9662,6.0047,5.9833,5.9302,5.9126,5.9441,5.9972,5.9983,5.9809,5.9836,6.0244,6.0647,6.0645,6.0406,6.0379,6.0731,6.1196,6.121,6.0657,6.0299,6.0486,6.065,6.0493,5.9735,5.9319,5.9097,5.9311,5.9388,5.8975,5.873,5.8801,5.9017,5.9284,5.8982,5.8599,5.8642,5.8984,5.9124,5.8827,5.8582,5.8376,5.8155,5.7738,5.7597,5.8219,6.0327,6.3999,6.5918,6.831,6.6735,6.0548,5.6731,5.6419,5.7146,5.7473,5.7949,5.8289,5.8561,5.858,5.8495,5.8319,5.8482,5.8482,5.88,5.8404,5.8339,5.8302,5.8589,5.856,5.8326,5.7913,5.8168,5.8239,5.8381,5.8166,5.8173,5.8175,5.8412,5.8657,5.8181,5.8207,5.8417,5.8784,5.9169,5.8895,5.8809,5.8844
