-0.29631,-0.30415,-0.29571,-0.29776,-0.30019,-0.28618,-0.28345,-0.28377,-0.28507,-0.28234,-0.27829,-0.26498,-0.2669,-0.27285,-0.27393,-0.26805,-0.26258,-0.2605,-0.26466,-0.26922,-0.25478,-0.24294,-0.23869,-0.24816,-0.24794,-0.23297,-0.223,-0.21984,-0.2196,-0.22151,-0.20737,-0.18283,-0.18281,-0.18461,-0.18262,-0.17716,-0.16466,-0.16657,-0.16524,-0.16756,-0.15688,-0.15899,-0.16078,-0.16482,-0.15533,-0.14159,-0.1324,-0.13303,-0.1386,-0.1392,-0.12989,-0.11684,-0.10942,-0.11023,-0.10934,-0.10432,-0.093578,-0.085527,-0.094386,-0.097598,-0.088414,-0.07951,-0.085573,-0.087177,-0.099072,-0.097082,-0.089327,-0.097538,-0.10357,-0.11122,-0.11316,-0.11441,-0.1175,-0.12217,-0.14345,-0.15123,-0.15396,-0.15571,-0.15946,-0.17001,-0.17516,-0.18064,-0.17395,-0.18018,-0.20313,-0.20456,-0.19727,-0.19587,-0.20196,-0.20429,-0.21795,-0.2076,-0.20824,-0.21518,-0.21891,-0.2247,-0.22433,-0.21503,-0.20564,-0.1999,-0.19828,-0.18644,-0.17485,-0.1639,-0.15899,-0.1481,-0.12719,-0.11036,-0.1231,-0.12488,-0.12604,-0.12823,-0.11151,-0.11781,-0.12231,-0.1497,-0.15956,-0.17809,-0.20754,-0.23155,-0.25184,-0.24929,-0.24489,-0.25301,-0.26598,-0.27192,-0.26801,-0.26574,-0.26854,-0.26424,-0.28373,-0.27983,-0.27548,-0.27727,-0.27748,-0.30996,-0.30809,-0.25982,-0.14318,0.068442,0.36754,0.66763,0.92825,1.1053,1.0954,1.0047,0.67924,0.19156,-0.15592,-0.55928,-0.59867,-0.54849,-0.49163,-0.40187,-0.37682,-0.33903,-0.34605,-0.3157,-0.30945,-0.29373,-0.31327,-0.30821,-0.30782,-0.28941,-0.30409,-0.29654,-0.30763,-0.28641,-0.28608,-0.27937,-0.28249,-0.2852,-0.29464,-0.2745,-0.28308,-0.2793,-0.29509,-0.28632,-0.27914,-0.2728,-0.27726,-0.2865,-0.28168,-0.26874,-0.27434,-0.28251,-0.28857,-0.28209,-0.2759,-0.27015,-0.28003,-0.28359,-0.28117,-0.27081,-0.26394,-0.27038,-0.27399,-0.27447,-0.26204,-0.25596,-0.25552,-0.26395,-0.25763,-0.25081,-0.24938,-0.2533,-0.25092,-0.24738,-0.23979,-0.23247,-0.22766,-0.23259,-0.23364,-0.23535,-0.21674,-0.22185,-0.21908,-0.22697,-0.21433,-0.2043,-0.19984,-0.21043,-0.20578,-0.1954,-0.17681,-0.17849,-0.18027,-0.16989,-0.16602,-0.15319,-0.14638,-0.15489,-0.15821,-0.15204,-0.13507,-0.14052,-0.1417,-0.14803,-0.13579,-0.12772,-0.12118,-0.13198,-0.12847,-0.12442,-0.10512,-0.10599,-0.10537,-0.10924,-0.10758,-0.092398,-0.078857,-0.083262,-0.089494,-0.080683,-0.06463,-0.059289,-0.061326,-0.074059,-0.070119,-0.067707,-0.062458,-0.075276,-0.082375,-0.079055,-0.074641,-0.070307,-0.086739,-0.10341,-0.09932,-0.10331,-0.099289,-0.10701,-0.11987,-0.1288,-0.13374,-0.13834,-0.14534,-0.15292,-0.15015,-0.15928,-0.15671,-0.16235,-0.17548,-0.1741,-0.17828,-0.17143,-0.17794,-0.18965,-0.18843,-0.19476,-0.18731,-0.18378,-0.19328,-0.19808,-0.19606,-0.19214,-0.19167,-0.19204,-0.20352,-0.20633,-0.19629,-0.19473,-0.20708,-0.20722,-0.20106,-0.18876,-0.17821,-0.17462,-0.18152,-0.1655,-0.15271,-0.14625,-0.14108,-0.13758,-0.12507,-0.089961,-0.088424,-0.090251,-0.10072,-0.097824,-0.086674,-0.087977,-0.10186,-0.11823,-0.12876,-0.139,-0.17499,-0.19396,-0.20498,-0.21349,-0.21939,-0.21515,-0.22278,-0.23522,-0.2424,-0.23361,-0.23358,-0.23367,-0.24031,-0.24242,-0.23986,-0.23807,-0.24811,-0.27128,-0.27744,-0.20893,-0.076192,0.17224,0.33385,0.62163,0.94706,1.1406,1.1545,1.122,0.86676,0.42613,-0.19945,-0.51742,-0.5051,-0.46405,-0.37671,-0.34002,-0.29346,-0.29665,-0.27427,-0.28336,-0.25009,-0.26721,-0.24947,-0.28031,-0.26501,-0.26244,-0.24392,-0.26,-0.25211,-0.25897,-0.2408,-0.25025,-0.24578,-0.26313,-0.24809,-0.24104,-0.23851,-0.2494,-0.24444,-0.24957,-0.24279,-0.24527,-0.23957,-0.25051,-0.24889,-0.24339,-0.23299,-0.23596,-0.24009,-0.24679,-0.23877,-0.23505,-0.23794,-0.24651,-0.23489,-0.22753,-0.2237,-0.23108,-0.23799,-0.23243,-0.22532,-0.22325,-0.21987,-0.21369,-0.21746,-0.21114,-0.1984,-0.19503,-0.19593,-0.18935,-0.1946,-0.17522,-0.18415,-0.17834,-0.18329,-0.17553,-0.16533,-0.16842,-0.17548,-0.16796,-0.16417,-0.14727,-0.15275,-0.15011,-0.15531,-0.14311,-0.13589,-0.12021,-0.12366,-0.12165,-0.11478,-0.096988,-0.09674,-0.097803,-0.097276,-0.09048,-0.082195,-0.076904,-0.079409,-0.077203,-0.079059,-0.06111,-0.064911,-0.060614,-0.074896,-0.066037,-0.054485,-0.043744,-0.041079,-0.04529,-0.036277,-0.027019,-0.019098,-0.019782,-0.028932,-0.022966,-0.012839,-0.00031153,-0.012915,-0.01972,-0.021168,-0.013365,-0.0098424,-0.012835,-0.02979,-0.032129,-0.032293,-0.025244,-0.033846,-0.04741,-0.054194,-0.051659,-0.055831,-0.062116,-0.080554,-0.083059,-0.081172,-0.076464,-0.083746,-0.10425,-0.11213,-0.1116,-0.10529,-0.10752,-0.11493,-0.12967,-0.12677,-0.12031,-0.12259,-0.13183,-0.14682,-0.14589,-0.13863,-0.13874,-0.1513,-0.15158,-0.15013,-0.14273,-0.14771,-0.15752,-0.1574,-0.15515,-0.15125,-0.15332,-0.15316,-0.16658,-0.1666,-0.1659,-0.16221,-0.16191,-0.17114,-0.16862,-0.15955,-0.16485,-0.16263,-0.17138,-0.16874,-0.15831,-0.16223,-0.16657,-0.17785,-0.17534,-0.15941,-0.15918,-0.15779,-0.17008,-0.17025,-0.16486,-0.15728,-0.16901,-0.17772,-0.17973,-0.16897,-0.16607,-0.16371,-0.17311,-0.17548,-0.16906,-0.1601,-0.16475,-0.17063,-0.16968,-0.16485,-0.15508,-0.15934,-0.16867,-0.16856,-0.16469,-0.15399,-0.16776,-0.16797,-0.17513,-0.16964,-0.16205,-0.16236,-0.1713,-0.17241,-0.16811,-0.14858,-0.16408,-0.16754,-0.17131,-0.16802,-0.16258,-0.1619,-0.16198,-0.1672,-0.1692,-0.16114,-0.16188,-0.16844,-0.17632,-0.16963,-0.161,-0.16311,-0.16551,-0.16468,-0.17037,-0.1615,-0.16239,-0.16284,-0.16907,-0.16645,-0.16069,-0.15246,-0.14986,-0.14793,-0.13956,-0.12343,-0.10231,-0.10031,-0.10399,-0.096697,-0.080476,-0.05283,-0.063239,-0.064834,-0.053109,-0.051484,-0.040513,-0.049894,-0.070125,-0.076207,-0.085792,-0.10552,-0.11585,-0.13814,-0.14886,-0.15361,-0.15232,-0.16939,-0.17124,-0.17468,-0.17214,-0.16723,-0.16796,-0.17975,-0.18845,-0.19128,-0.19337,-0.20577,-0.17222,-0.12532,0.033032,0.32504,0.6491,0.96017,1.0885,1.2096,1.2193,1.0251,0.64506,0.043346,-0.39879,-0.43281,-0.356,-0.30974,-0.27703,-0.255,-0.22344,-0.22538,-0.21734,-0.23299,-0.22504,-0.22584,-0.20978,-0.21415,-0.22662,-0.22499,-0.21582,-0.21578,-0.21525,-0.22522,-0.21667,-0.21883,-0.20503,-0.20654,-0.21699,-0.21623,-0.20915,-0.20709,-0.20771,-0.21672,-0.21418,-0.21225,-0.20302,-0.2072,-0.21139,-0.21365,-0.20943,-0.20266,-0.19956,-0.21051,-0.21434,-0.21437,-0.20008,-0.20347,-0.2085,-0.20837,-0.20762,-0.19763,-0.19606,-0.19767,-0.20799,-0.20183,-0.19023,-0.19217,-0.18281,-0.19292,-0.18481,-0.17649,-0.17212,-0.17626,-0.17917,-0.16806,-0.16064,-0.15797,-0.16534,-0.1682,-0.16592,-0.15199,-0.15074,-0.14871,-0.15706,-0.15388,-0.14156,-0.12684,-0.12753,-0.12853,-0.11942,-0.10644,-0.10088,-0.092645,-0.094356,-0.083899,-0.072413,-0.0631,-0.055222,-0.062833,-0.065756,-0.047814,-0.040657,-0.038279,-0.048798,-0.042381,-0.033936,-0.021471,-0.027798,-0.024034,-0.02596,-0.018514,-0.0063438,-0.0022635,-0.0089696,-0.0069337,0.0017839,0.012686,0.011556,0.0034125,0.0096951,0.017198,0.025654,0.016143,0.012104,0.0030708,0.0050082,0.010168,0.0043978,-0.0027758,-0.0078217,-0.008635,-0.0099204,-0.016321,-0.03079,-0.040872,-0.037745,-0.036511,-0.04615,-0.051951,-0.068497,-0.067722,-0.070341,-0.07638,-0.089295,-0.10128,-0.10333,-0.10012,-0.10389,-0.1088,-0.12118,-0.12919,-0.12626,-0.12672,-0.13242,-0.15026,-0.15133,-0.1375,-0.14192,-0.15062,-0.15558,-0.15931,-0.1564,-0.14668,-0.15366,-0.16452,-0.1647,-0.16837,-0.15682,-0.15724,-0.17413,-0.17571,-0.16954,-0.16039,-0.16962,-0.17968,-0.17447,-0.1723,-0.16978,-0.17133,-0.18443,-0.18334,-0.17659,-0.17222,-0.17545,-0.18119,-0.18186,-0.17804,-0.16972,-0.17488,-0.18474,-0.18716,-0.18424,-0.17763,-0.17723,-0.18416,-0.18766,-0.18438,-0.17534,-0.17398,-0.18063,-0.18654,-0.1851,-0.18018,-0.17406,-0.17684,-0.19325,-0.19354,-0.18021,-0.18216,-0.18273,-0.1892,-0.1868,-0.18297,-0.18069,-0.18814,-0.19365,-0.18844,-0.17981,-0.17757,-0.18902,-0.19039,-0.18503,-0.18338,-0.17731,-0.1823,-0.19364,-0.18961,-0.18067,-0.17682,-0.18362,-0.18805,-0.18494,-0.1841,-0.17435,-0.18095,-0.1862,-0.18417,-0.17965,-0.18037,-0.18465,-0.18985,-0.18248,-0.16503,-0.14765,-0.1391,-0.13941,-0.13094,-0.12064,-0.10138,-0.094807,-0.08704,-0.081522,-0.074066,-0.073329,-0.072333,-0.076817,-0.087468,-0.092256,-0.10018,-0.13013,-0.15668,-0.16179,-0.17614,-0.17997,-0.18563,-0.19348,-0.21319,-0.21025,-0.20133,-0.20192,-0.20978,-0.22306,-0.21923,-0.20368,-0.20671,-0.23217,-0.25582,-0.20767,-0.09081,0.12498,0.4476,0.60504,0.89059,1.1511,1.1948,1.192,1.0064,0.62777,0.041881,-0.42451,-0.49027,-0.42271,-0.37161,-0.32334,-0.29449,-0.26883,-0.28195,-0.2637,-0.26487,-0.25914,-0.25991,-0.25686,-0.27493,-0.26589,-0.2538,-0.25199,-0.26127,-0.25908,-0.24893,-0.2415,-0.25946,-0.25912,-0.26915,-0.25663,-0.24694,-0.25029,-0.2566,-0.25694,-0.25755,-0.23929,-0.25294,-0.25155,-0.25777,-0.25724,-0.2445,-0.25363,-0.25446,-0.25874,-0.25586,-0.24566,-0.24459,-0.24886,-0.25091,-0.24862,-0.23821,-0.23847,-0.24216,-0.24107,-0.24436,-0.23542,-0.22903,-0.23454,-0.23288,-0.23621,-0.22816,-0.22264,-0.22226,-0.23419,-0.22751,-0.21777,-0.20459,-0.2101,-0.21829,-0.21683,-0.20335,-0.20502,-0.2055,-0.21621,-0.20718,-0.19925,-0.18715,-0.18789,-0.18809,-0.18994,-0.17501,-0.16582,-0.16135,-0.16816,-0.15627,-0.13553,-0.12623,-0.12347,-0.12109,-0.12421,-0.1147,-0.10832,-0.10756,-0.11243,-0.10791,-0.10791,-0.09625,-0.099155,-0.099888,-0.11066,-0.092022,-0.083807,-0.080781,-0.085356,-0.07977,-0.073549,-0.05658,-0.050558,-0.055562,-0.059797,-0.05508,-0.049169,-0.049443,-0.048918,-0.052877,-0.049558,-0.037767,-0.038123,-0.051335,-0.058125,-0.053332,-0.05907,-0.059115,-0.06447,-0.08618,-0.083375,-0.083956,-0.083881,-0.09455,-0.11068,-0.11609,-0.11346,-0.11618,-0.12358,-0.14331,-0.1483,-0.13969,-0.14465,-0.14439,-0.15698,-0.1588,-0.1636,-0.16267,-0.16956,-0.17787,-0.18257,-0.18701,-0.17887,-0.18121,-0.19408,-0.19725,-0.19446,-0.19293,-0.18738,-0.20622,-0.20891,-0.2029,-0.20019,-0.18891,-0.20134,-0.21195,-0.21138,-0.1999,-0.20346,-0.2149,-0.21794,-0.21475,-0.20812,-0.20493,-0.21802,-0.22595,-0.21941,-0.21263,-0.20976,-0.21546,-0.22182,-0.21573,-0.20648,-0.21673,-0.219,-0.23007,-0.21788,-0.2194,-0.22163,-0.21975,-0.22585,-0.22958,-0.21549,-0.21957,-0.22409,-0.23524,-0.2272,-0.21298,-0.22196,-0.23034,-0.2323,-0.22646,-0.21915,-0.22296,-0.23001,-0.2399,-0.23088,-0.22498,-0.22371,-0.22717,-0.23247,-0.24217,-0.22698,-0.21777,-0.21018,-0.20671,-0.19542,-0.17275,-0.16583,-0.16935,-0.16279,-0.14775,-0.1449,-0.11649,-0.11251,-0.12303,-0.1204,-0.12599,-0.11407,-0.1189,-0.13953,-0.1647,-0.17351,-0.19186,-0.20467,-0.21914,-0.23163,-0.23468,-0.2272,-0.24463,-0.24192,-0.25434,-0.25334,-0.2469,-0.24828,-0.2511,-0.26275,-0.26642,-0.26516,-0.27468,-0.24111,-0.1304,0.099272,0.43396,0.73336,0.99416,1.1499,1.1268,1.073,0.76419,0.25988,-0.36879,-0.527,-0.53165,-0.49574,-0.40471,-0.38267,-0.32414,-0.32175,-0.29072,-0.29685,-0.2877,-0.2969,-0.27403,-0.28525,-0.26635,-0.28792,-0.27714,-0.28352,-0.26461,-0.28266,-0.28055,-0.28399,-0.26832,-0.26904,-0.25886,-0.27094,-0.26769,-0.27906,-0.25609,-0.26367,-0.26953,-0.2691,-0.2618,-0.26222,-0.25564,-0.26338,-0.2605,-0.26083,-0.24954,-0.25691,-0.26268,-0.2703,-0.26221,-0.25864,-0.25311,-0.26417,-0.25718,-0.25576,-0.241,-0.24229,-0.25446,-0.26107,-0.25043,-0.24082,-0.24338,-0.24996,-0.25187,-0.23721,-0.2264,-0.22818,-0.23207,-0.23725,-0.22842,-0.22371,-0.21475,-0.21167,-0.23191,-0.21627,-0.21336,-0.21327,-0.21149,-0.21319,-0.20987,-0.19795,-0.19259,-0.18887,-0.19895,-0.1791,-0.17118,-0.16098,-0.15595,-0.15062,-0.15557,-0.13811,-0.13141,-0.12637,-0.13369,-0.1299,-0.12237,-0.10838,-0.11182,-0.1166,-0.12012,-0.10652,-0.10438,-0.097432,-0.10326,-0.10013,-0.092154,-0.083514,-0.074927,-0.074998,-0.08463,-0.072392,-0.052722,-0.057126,-0.059604,-0.057475,-0.046612,-0.034957,-0.048583,-0.046446,-0.054235,-0.045901,-0.040075,-0.041219,-0.055324,-0.062617,-0.060613,-0.053375,-0.060777,-0.064271,-0.079241,-0.087029,-0.082986,-0.089309,-0.097647,-0.11882,-0.11834,-0.11995,-0.1213,-0.12422,-0.14189,-0.14199,-0.13847,-0.1374,-0.15147,-0.16371,-0.16214,-0.16219,-0.16244,-0.16887,-0.17472,-0.1782,-0.17658,-0.17511,-0.1773,-0.18213,-0.19759,-0.18764,-0.17975,-0.18127,-0.19051,-0.19313,-0.18706,-0.18697,-0.19077,-0.19618,-0.19435,-0.19014,-0.1827,-0.18813,-0.19545,-0.20388,-0.20018,-0.19636,-0.19262,-0.19612,-0.19828,-0.1998,-0.19277,-0.19197,-0.19623,-0.20428,-0.19651,-0.18897,-0.19265,-0.20019,-0.20738,-0.19896,-0.18436,-0.18977,-0.20055,-0.20984,-0.2069,-0.20189,-0.20169,-0.20132,-0.20622,-0.20592,-0.1971,-0.19737,-0.2029,-0.20914,-0.21182,-0.20304,-0.20291,-0.20494,-0.20925,-0.20646,-0.19579,-0.19593,-0.19932,-0.21439,-0.20882,-0.20804,-0.19389,-0.19932,-0.20314,-0.19038,-0.17006,-0.15456,-0.14544,-0.14991,-0.14745,-0.13397,-0.11814,-0.10579,-0.11045,-0.10374,-0.093483,-0.085377,-0.082898,-0.093206,-0.10681,-0.1184,-0.1283,-0.15621,-0.17595,-0.18389,-0.19696,-0.19522,-0.20826,-0.22044,-0.22124,-0.22651,-0.21449,-0.21941,-0.23381,-0.23305,-0.22846,-0.22497,-0.2329,-0.25001,-0.26559,-0.21879,-0.082547,0.16327,0.47372,0.77808,1.0542,1.1834,1.1625,1.0898,0.75477,0.25792,-0.30953,-0.50297,-0.45322,-0.40758,-0.34651,-0.33632,-0.29097,-0.28503,-0.27997,-0.27863,-0.26518,-0.26896,-0.26393,-0.27432,-0.26648,-0.26528,-0.25167,-0.26177,-0.26888,-0.27033,-0.2542,-0.25014,-0.24978,-0.2632,-0.25603,-0.25309,-0.24477,-0.24632,-0.2485,-0.25061,-0.24611,-0.24281,-0.24558,-0.25354,-0.25388,-0.24807,-0.23714,-0.24104,-0.24031,-0.24821,-0.2407,-0.23819,-0.23982,-0.25104,-0.25353,-0.24455,-0.23403,-0.23683,-0.23562,-0.24041,-0.23463,-0.22329,-0.22594,-0.22237,-0.22989,-0.2249,-0.21845,-0.20951,-0.21025,-0.21742,-0.21473,-0.19376,-0.19719,-0.19955,-0.20861,-0.20198,-0.19673,-0.18912,-0.19125,-0.20004,-0.19521,-0.18023,-0.17746,-0.16825,-0.17398,-0.17109,-0.16427,-0.14997,-0.13905,-0.14145,-0.13355,-0.11909,-0.11401,-0.10999,-0.11353,-0.1133,-0.11003,-0.10218,-0.10186,-0.099623,-0.10566,-0.096415,-0.082079,-0.087051,-0.094914,-0.095754,-0.086712,-0.072088,-0.073532,-0.076949,-0.073434,-0.062975,-0.054791,-0.052161,-0.051526,-0.050606,-0.050815,-0.033594,-0.036233,-0.038476,-0.045158,-0.04379,-0.029458,-0.034675,-0.040008,-0.04296,-0.041836,-0.037046,-0.048059,-0.054731,-0.062195,-0.065912,-0.058998,-0.069705,-0.075081,-0.087486,-0.094501,-0.090232,-0.093986,-0.10519,-0.1178,-0.12185,-0.12137,-0.11992,-0.12974,-0.14148,-0.14112,-0.13743,-0.13799,-0.15026,-0.16264,-0.15504,-0.15288,-0.15124,-0.15345,-0.16627,-0.17064,-0.17311,-0.16525,-0.16732,-0.18018,-0.17179,-0.17279,-0.16657,-0.17402,-0.18305,-0.18281,-0.17806,-0.17067,-0.17867,-0.18651,-0.18851,-0.17829,-0.17791,-0.17786,-0.18029,-0.19176,-0.18996,-0.18038,-0.17708,-0.18332,-0.18473,-0.18618,-0.18256,-0.17929,-0.18598,-0.18847,-0.18906,-0.18188,-0.18404,-0.19163,-0.19669,-0.19723,-0.18881,-0.18774,-0.19343,-0.19786,-0.1977,-0.18379,-0.18442,-0.18484,-0.19298,-0.19071,-0.1808,-0.18247,-0.18729,-0.19049,-0.19545,-0.18768,-0.18156,-0.17957,-0.1922,-0.18856,-0.18271,-0.18318,-0.18528,-0.19339,-0.19198,-0.18635,-0.18043,-0.18119,-0.1933,-0.19014,-0.18482,-0.17524,-0.17693,-0.17483,-0.15991,-0.14144,-0.12483,-0.1259,-0.12866,-0.11994,-0.097268,-0.088327,-0.076855,-0.084127,-0.08207,-0.073456,-0.066515,-0.063702,-0.080563,-0.094679,-0.11989,-0.13231,-0.14215,-0.16025,-0.17996,-0.18623,-0.18471,-0.18933,-0.20052,-0.20557,-0.19933,-0.19959,-0.20121,-0.20582,-0.2139,-0.21452,-0.20837,-0.22625,-0.23438,-0.17521,-0.028704,0.24338,0.55666,0.85971,1.115,1.2121,1.2043,1.0922,0.73159,0.17701,-0.36082,-0.47212,-0.45122,-0.39513,-0.33964,-0.31854,-0.27206,-0.26092,-0.25036,-0.25851,-0.25081,-0.24963,-0.23692,-0.24288,-0.2461,-0.25042,-0.23195,-0.23306,-0.23054,-0.24996,-0.24091,-0.24067,-0.22375,-0.23027,-0.23059,-0.24049,-0.23171,-0.22363,-0.22196,-0.23132,-0.23048,-0.2304,-0.21425,-0.22303,-0.22573,-0.22874,-0.22502,-0.21251,-0.21866,-0.22808,-0.22633,-0.22379,-0.21692,-0.21165,-0.21123,-0.22077,-0.22218,-0.20922,-0.20542,-0.21291,-0.21926,-0.21187,-0.19962,-0.19554,-0.20177,-0.20214,-0.19684,-0.18326,-0.1805,-0.1811,-0.18474,-0.17988,-0.17133,-0.16642,-0.16572,-0.17048,-0.17514,-0.15978,-0.15748,-0.16028,-0.16572,-0.15547,-0.14732,-0.13848,-0.13816,-0.14167,-0.13576,-0.12083,-0.11038,-0.10431,-0.10779,-0.099905,-0.094863,-0.078216,-0.081994,-0.083942,-0.082376,-0.075058,-0.072883,-0.075573,-0.083614,-0.076042,-0.070633,-0.064732,-0.05801,-0.070829,-0.06451,-0.058117,-0.046128,-0.042562,-0.05559,-0.05261,-0.044908,-0.028333,-0.026827,-0.029887,-0.031825,-0.0227,-0.013407,-0.0094481,-0.019608,-0.023603,-0.019697,-0.010047,-0.012668,-0.022129,-0.027468,-0.030669,-0.024675,-0.03061,-0.039356,-0.050192,-0.050171,-0.051433,-0.054551,-0.064133,-0.080954,-0.082219,-0.081308,-0.085123,-0.093921,-0.11014,-0.11319,-0.11463,-0.1158,-0.12002,-0.12898,-0.13046,-0.12964,-0.13541,-0.1376,-0.14286,-0.15041,-0.14662,-0.14099,-0.14584,-0.15706,-0.1571,-0.15549,-0.15561,-0.16276,-0.17203,-0.17251,-0.17187,-0.16428,-0.169,-0.17906,-0.17788,-0.17023,-0.16583,-0.16645,-0.16842,-0.17935,-0.17533,-0.17162,-0.17215,-0.17364,-0.18033,-0.18079,-0.16814,-0.17151,-0.18264,-0.19008,-0.18558,-0.16854,-0.1764,-0.18149,-0.18718,-0.17762,-0.1702,-0.17748,-0.17856,-0.18845,-0.1904,-0.18502,-0.1814,-0.18503,-0.19149,-0.18453,-0.1806,-0.18043,-0.18265,-0.19175,-0.19148,-0.1814,-0.18337,-0.18032,-0.19634,-0.19219,-0.18451,-0.18325,-0.17746,-0.18413,-0.18803,-0.18755,-0.18179,-0.18037,-0.19083,-0.19741,-0.19645,-0.18581,-0.18746,-0.17995,-0.16833,-0.15059,-0.12646,-0.12514,-0.12951,-0.12079,-0.10495,-0.092048,-0.087686,-0.097178,-0.088049,-0.074168,-0.056274,-0.080841,-0.084256,-0.088896,-0.11156,-0.12852,-0.1473,-0.17105,-0.18626,-0.18289,-0.2016,-0.19392,-0.20398,-0.2126,-0.20815,-0.20291,-0.20693,-0.20693,-0.21369,-0.20459,-0.2029,-0.2259,-0.23977,-0.20429,-0.078987,0.16618,0.50146,0.79382,1.0587,1.2082,1.2061,1.1456,0.81386,0.32446,-0.27205,-0.48541,-0.46581,-0.41746,-0.3619,-0.32771,-0.27898,-0.26486,-0.25669,-0.26026,-0.24458,-0.25547,-0.2499,-0.26947,-0.24665,-0.24679,-0.24315,-0.25001,-0.23986,-0.2589,-0.2484,-0.25003,-0.23909,-0.23793,-0.24377,-0.25223,-0.24853,-0.25312,-0.24062,-0.24991,-0.2533,-0.25541,-0.23668,-0.24763,-0.25536,-0.25761,-0.2514,-0.24384,-0.23365,-0.25039,-0.24879,-0.24457,-0.23704,-0.2336,-0.23556,-0.25101,-0.24256,-0.22955,-0.22824,-0.24228,-0.23916,-0.22731,-0.22798,-0.23103,-0.22704,-0.2225,-0.22349,-0.20726,-0.20413,-0.21437,-0.21717,-0.20565,-0.20094,-0.19837,-0.19825,-0.20734,-0.20332,-0.18732,-0.18152,-0.18947,-0.20206,-0.19338,-0.18658,-0.1776,-0.18308,-0.1777,-0.17268,-0.15734,-0.15208,-0.1414,-0.14222,-0.12907,-0.12653,-0.12547,-0.11642,-0.12035,-0.11971,-0.11833,-0.12019,-0.11353,-0.11605,-0.11975,-0.10993,-0.10097,-0.094271,-0.10818,-0.11547,-0.10819,-0.092373,-0.086121,-0.094746,-0.085809,-0.08472,-0.069947,-0.071791,-0.06685,-0.075707,-0.059189,-0.056948,-0.055247,-0.062632,-0.069562,-0.064774,-0.052421,-0.056344,-0.060172,-0.074084,-0.071702,-0.064633,-0.069139,-0.085017,-0.097069,-0.099024,-0.095865,-0.096935,-0.10223,-0.1167,-0.1219,-0.12582,-0.12445,-0.12956,-0.14352,-0.14201,-0.14081,-0.14745,-0.15767,-0.1688,-0.16963,-0.16737,-0.17287,-0.18034,-0.18632,-0.18787,-0.18617,-0.17921,-0.18176,-0.19514,-0.20228,-0.19837,-0.1905,-0.19706,-0.20148,-0.2102,-0.20646,-0.19414,-0.19765,-0.2125,-0.21274,-0.20784,-0.20531,-0.20783,-0.2142,-0.21738,-0.22032,-0.20529,-0.2044,-0.21986,-0.2248,-0.22315,-0.20563,-0.20883,-0.20898,-0.21451,-0.19488,-0.17592,-0.17234,-0.16846,-0.16693,-0.14883,-0.12786,-0.11611,-0.11832,-0.11974,-0.11808,-0.11199,-0.10465,-0.1053,-0.11951,-0.12889,-0.13825,-0.15528,-0.18415,-0.20429,-0.21958,-0.21442,-0.22228,-0.23613,-0.25022,-0.24258,-0.23741,-0.23535,-0.24776,-0.24822,-0.2536,-0.24684,-0.2405,-0.24795,-0.27606,-0.26996,-0.2664,-0.16566,-0.0059009,0.27558,0.58864,0.8754,1.1112,1.1639,1.1197,0.91144,0.50387,-0.12889,-0.5265,-0.5467,-0.54939,-0.48887,-0.40045,-0.36044,-0.33279,-0.31971,-0.30572,-0.29067,-0.28751,-0.29553,-0.29606,-0.29099,-0.28587,-0.28076,-0.28299,-0.2829,-0.27725,-0.27674,-0.27194,-0.27676,-0.28617,-0.27882,-0.27474,-0.26589,-0.26776,-0.2717,-0.26823,-0.26168,-0.26231,-0.26403,-0.27081,-0.27312,-0.26256,-0.2593,-0.26167,-0.27088,-0.26469,-0.2548,-0.25243,-0.25553,-0.26098,-0.26265,-0.25586,-0.23967,-0.24411,-0.25736,-0.25666,-0.25038,-0.24895,-0.24666,-0.25408,-0.25068,-0.24514,-0.23536,-0.23711,-0.24347,-0.23741,-0.22547,-0.21614,-0.2141,-0.22045,-0.22048,-0.21615,-0.21216,-0.21564,-0.21744,-0.22352,-0.20762,-0.19425,-0.1935,-0.20315,-0.20452,-0.19348,-0.17554,-0.16878,-0.17573,-0.16145,-0.15298,-0.14259,-0.13484,-0.13837,-0.14349,-0.13868,-0.12888,-0.13002,-0.12565,-0.12689,-0.12985,-0.113,-0.11665,-0.12203,-0.11849,-0.1124,-0.11,-0.11278,-0.10444,-0.09956,-0.099865,-0.091539,-0.078472,-0.077914,-0.074978,-0.073884,-0.069823,-0.058212,-0.057874,-0.061712,-0.062109,-0.04914,-0.052211,-0.050496,-0.065454,-0.064994,-0.058987,-0.058751,-0.069217,-0.077747,-0.092333,-0.087299,-0.081655,-0.088769,-0.099754,-0.10803,-0.11066,-0.10564,-0.12601,-0.13123,-0.13675,-0.13726,-0.13345,-0.14401,-0.15536,-0.15833,-0.16713,-0.16038,-0.16465,-0.17369,-0.18046,-0.18613,-0.17644,-0.18059,-0.19382,-0.199,-0.19806,-0.1892,-0.19077,-0.19944,-0.20057,-0.19909,-0.19007,-0.19638,-0.20756,-0.20963,-0.20435,-0.18085,-0.1693,-0.17239,-0.16385,-0.16054,-0.154,-0.13928,-0.13429,-0.12265,-0.10142,-0.099793,-0.091587,-0.091528,-0.098131,-0.088446,-0.08577,-0.092257,-0.11546,-0.13892,-0.16605,-0.17968,-0.18729,-0.20359,-0.22248,-0.22422,-0.22614,-0.23234,-0.23045,-0.24046,-0.2447,-0.23657,-0.23013,-0.23978,-0.25083,-0.24925,-0.24434,-0.25556,-0.26612,-0.27835,-0.24309,-0.017867,0.27335,0.55537,0.86429,1.0009,1.1724,1.1648,1.0941,0.77015,0.2547,-0.35717,-0.55355,-0.50735,-0.46158,-0.38377,-0.36938,-0.30623,-0.31227,-0.29542,-0.30598,-0.28406,-0.2918,-0.27295,-0.2926,-0.28314,-0.29295,-0.26951,-0.28147,-0.27605,-0.29486,-0.27793,-0.27804,-0.26061,-0.27634,-0.27524,-0.28116,-0.25929,-0.2677,-0.25869,-0.28075,-0.2641,-0.26294,-0.2565,-0.26275,-0.26874,-0.27162,-0.2637,-0.26073,-0.25956,-0.26586,-0.26953,-0.25971,-0.25283,-0.25791,-0.26479,-0.26362,-0.25562,-0.24789,-0.24624,-0.25444,-0.25406,-0.23947,-0.23456,-0.23505,-0.2447,-0.23951,-0.2284,-0.21248,-0.2193,-0.2138,-0.21887,-0.21052,-0.20622,-0.20725,-0.20179,-0.20174,-0.20007,-0.18869,-0.19866,-0.19822,-0.20148,-0.18704,-0.17478,-0.17095,-0.17649,-0.18188,-0.18307,-0.15662,-0.15451,-0.14844,-0.15582,-0.13731,-0.12953,-0.13024,-0.13452,-0.14293,-0.1377,-0.12618,-0.12975,-0.12875,-0.1363,-0.12917,-0.12448,-0.1173,-0.12163,-0.12079,-0.1219,-0.10666,-0.10412,-0.10073,-0.10146,-0.098889,-0.092141,-0.076269,-0.082751,-0.082937,-0.090602,-0.078919,-0.06815,-0.063468,-0.077511,-0.072464,-0.070411,-0.063865,-0.067542,-0.074895,-0.088535,-0.089382,-0.078426,-0.084326,-0.10127,-0.10496,-0.10844,-0.09478,-0.1143,-0.12765,-0.13487,-0.13862,-0.1293,-0.13843,-0.15618,-0.15698,-0.1586,-0.158,-0.16318,-0.17331,-0.17904,-0.18125,-0.1768,-0.17957,-0.18682,-0.2021,-0.20325,-0.19756,-0.19859,-0.20271,-0.21137,-0.20775,-0.20207,-0.20666,-0.20811,-0.21788,-0.21667,-0.20751,-0.20365,-0.21027,-0.22044,-0.2208,-0.21675,-0.21393,-0.21639,-0.22736,-0.2187,-0.22116,-0.21153,-0.2149,-0.22668,-0.22828,-0.22236,-0.21806,-0.21965,-0.22978,-0.22373,-0.2266,-0.21796,-0.21101,-0.21185,-0.20873,-0.1934,-0.18016,-0.16944,-0.17063,-0.16063,-0.14976,-0.11942,-0.11787,-0.12833,-0.12436,-0.12162,-0.11164,-0.10952,-0.12339,-0.13074,-0.14663,-0.14992,-0.17053,-0.19493,-0.21891,-0.22243,-0.22704,-0.23133,-0.24398,-0.26276,-0.2543,-0.24618,-0.24731,-0.25071,-0.26186,-0.26095,-0.2548,-0.25495,-0.28042,-0.29824,-0.2918,-0.24755,-0.11991,0.10523,0.40622,0.72985,1.0264,1.187,1.1621,1.0954,0.77418,0.27927,-0.33692,-0.54592,-0.51471,-0.45357,-0.37621,-0.35547,-0.3163,-0.32309,-0.29913,-0.30387,-0.27889,-0.28766,-0.28576,-0.29689,-0.28248,-0.28616,-0.2798,-0.29139,-0.28143,-0.28529,-0.27658,-0.28158,-0.2815,-0.28876,-0.27164,-0.26797,-0.26614,-0.27577,-0.27184,-0.27389,-0.26476,-0.26898,-0.26921,-0.28067,-0.26994,-0.26086,-0.26238,-0.26707,-0.27261,-0.27091,-0.25721,-0.26232,-0.2679,-0.27221,-0.26942,-0.25711,-0.25784,-0.26135,-0.26584,-0.25962,-0.25012,-0.24928,-0.25097,-0.25252,-0.25273,-0.23627,-0.2293,-0.22894,-0.23651,-0.22774,-0.22177,-0.21368,-0.21446,-0.22198,-0.21976,-0.20893,-0.20652,-0.20034,-0.21103,-0.21238,-0.20667,-0.19391,-0.19622,-0.1977,-0.18935,-0.17662,-0.16525,-0.16309,-0.16782,-0.16234,-0.15333,-0.13704,-0.13502,-0.13905,-0.14026,-0.1339,-0.12392,-0.12898,-0.13801,-0.13884,-0.13169,-0.11622,-0.11353,-0.11811,-0.1257,-0.11986,-0.1067,-0.10387,-0.10508,-0.102,-0.096763,-0.080922,-0.078,-0.075418,-0.077932,-0.071975,-0.054437,-0.05988,-0.062264,-0.066133,-0.062925,-0.056639,-0.05035,-0.053611,-0.066363,-0.064205,-0.059662,-0.060724,-0.067705,-0.075765,-0.082462,-0.076484,-0.082055,-0.092534,-0.10332,-0.1071,-0.10515,-0.10853,-0.11614,-0.12187,-0.12816,-0.13906,-0.13053,-0.1386,-0.15616,-0.15936,-0.15981,-0.15437,-0.16176,-0.17584,-0.17952,-0.17992,-0.18126,-0.18293,-0.19352,-0.19555,-0.19232,-0.19001,-0.19232,-0.20182,-0.20445,-0.19718,-0.19153,-0.20087,-0.2093,-0.214,-0.21167,-0.20319,-0.20612,-0.21331,-0.21774,-0.21392,-0.21302,-0.20881,-0.21414,-0.21673,-0.21168,-0.20509,-0.20806,-0.21129,-0.22244,-0.21776,-0.20808,-0.21312,-0.21033,-0.22327,-0.22088,-0.21494,-0.21255,-0.21466,-0.22687,-0.22136,-0.20781,-0.21169,-0.21622,-0.22756,-0.22712,-0.21867,-0.21832,-0.21723,-0.22088,-0.22626,-0.22066,-0.21808,-0.21529,-0.22595,-0.22726,-0.21802,-0.21657,-0.21903,-0.22621,-0.22674,-0.22171,-0.22228,-0.21664,-0.2255,-0.22476,-0.21804,-0.21137,-0.20926,-0.19929,-0.19012,-0.17944,-0.16608,-0.15728,-0.15544,-0.14874,-0.1257,-0.1047,-0.11707,-0.11075,-0.11918,-0.11229,-0.099217,-0.098653,-0.1117,-0.13199,-0.15037,-0.16708,-0.17804,-0.1982,-0.21981,-0.2278,-0.2183,-0.22651,-0.22874,-0.24581,-0.24074,-0.23446,-0.23863,-0.24527,-0.25047,-0.25194,-0.24987,-0.26341,-0.27467,-0.19113,-0.026366,0.27011,0.43657,0.74142,1.0348,1.1856,1.1995,1.1417,0.83977,0.5961,0.037631,-0.53885,-0.48448,-0.43202,-0.37506,-0.36587,-0.31554,-0.31167,-0.29006,-0.30431,-0.29391,-0.29499,-0.275,-0.28994,-0.29028,-0.30285,-0.28813,-0.28512,-0.27902,-0.29449,-0.28711,-0.28371,-0.27017,-0.28581,-0.28075,-0.28554,-0.27635,-0.27817,-0.27334,-0.28276,-0.28166,-0.28051,-0.26952,-0.26801,-0.26905,-0.28045,-0.28033,-0.2711,-0.26442,-0.27468,-0.27966,-0.2766,-0.26945,-0.26848,-0.27072,-0.27656,-0.27481,-0.2575,-0.25869,-0.26383,-0.26288,-0.25975,-0.25835,-0.24979,-0.25028,-0.25076,-0.24689,-0.23494,-0.23119,-0.23336,-0.24119,-0.2297,-0.22927,-0.21804,-0.22111,-0.2232,-0.22052,-0.20842,-0.21449,-0.21078,-0.22075,-0.21141,-0.21096,-0.19073,-0.18969,-0.1917,-0.18995,-0.18902,-0.16657,-0.15422,-0.16508,-0.15873,-0.15346,-0.1324,-0.12771,-0.13726,-0.13359,-0.12426,-0.12114,-0.12122,-0.13681,-0.1335,-0.12649,-0.11243,-0.10511,-0.10499,-0.11889,-0.10922,-0.10092,-0.090227,-0.096755,-0.094745,-0.092789,-0.073904,-0.066634,-0.071581,-0.073228,-0.063569,-0.056203,-0.05066,-0.060029,-0.062988,-0.062964,-0.055629,-0.05292,-0.050743,-0.063202,-0.060097,-0.063913,-0.065048,-0.074161,-0.08716,-0.095218,-0.092041,-0.096336,-0.10291,-0.12328,-0.12569,-0.11927,-0.12604,-0.13775,-0.14537,-0.14558,-0.14657,-0.1461,-0.1544,-0.16805,-0.17569,-0.17636,-0.17805,-0.17538,-0.18828,-0.19326,-0.19281,-0.19075,-0.19406,-0.20385,-0.21029,-0.20355,-0.20572,-0.20509,-0.2036,-0.20768,-0.21205,-0.20772,-0.21246,-0.21521,-0.22742,-0.21426,-0.20468,-0.20717,-0.21824,-0.22373,-0.2279,-0.21392,-0.21543,-0.21944,-0.22815,-0.21986,-0.21483,-0.21958,-0.22098,-0.23578,-0.23222,-0.22141,-0.22048,-0.22718,-0.24104,-0.23994,-0.233,-0.22751,-0.22695,-0.23505,-0.23759,-0.22501,-0.23174,-0.22873,-0.24601,-0.23915,-0.22788,-0.22782,-0.23429,-0.24124,-0.24717,-0.24472,-0.23416,-0.23843,-0.24666,-0.24084,-0.23717,-0.2333,-0.23095,-0.24928,-0.24647,-0.23706,-0.23208,-0.23712,-0.24679,-0.25055,-0.24459,-0.2333,-0.23467,-0.23732,-0.24398,-0.24033,-0.23591,-0.23989,-0.24343,-0.24167,-0.23242,-0.20845,-0.19853,-0.19445,-0.18302,-0.18277,-0.16161,-0.15105,-0.1408,-0.14688,-0.14349,-0.13111,-0.13044,-0.12185,-0.13455,-0.13671,-0.14021,-0.1597,-0.18144,-0.21423,-0.23713,-0.23116,-0.23722,-0.24957,-0.26065,-0.26004,-0.25914,-0.25469,-0.25785,-0.26745,-0.27077,-0.26942,-0.26381,-0.26794,-0.29272,-0.2984,-0.2538,-0.12828,0.095959,0.41538,0.72455,1.0127,1.1696,1.1395,1.0817,0.76403,0.26336,-0.33997,-0.54997,-0.53558,-0.47958,-0.39607,-0.38661,-0.33833,-0.34004,-0.32157,-0.32659,-0.29648,-0.31045,-0.30685,-0.31106,-0.30622,-0.31205,-0.2986,-0.31191,-0.31265,-0.30353,-0.29621,-0.30288,-0.30104,-0.31177,-0.29745,-0.30084,-0.29202,-0.30058,-0.31083,-0.30363,-0.28992,-0.2893,-0.29623,-0.30811,-0.29845,-0.29032,-0.28406,-0.2911,-0.29633,-0.29437,-0.28456,-0.28122,-0.28754,-0.29442,-0.29347,-0.28615,-0.28129,-0.27812,-0.28737,-0.28296,-0.28186,-0.2663,-0.26688,-0.28399,-0.2791,-0.26801,-0.25996,-0.25498,-0.26394,-0.25612,-0.2527,-0.24434,-0.2457,-0.25301,-0.25029,-0.24379,-0.24205,-0.23586,-0.2378,-0.24163,-0.2449,-0.2243,-0.21958,-0.2225,-0.2242,-0.21743,-0.20228,-0.20157,-0.20066,-0.19152,-0.18516,-0.16363,-0.1648,-0.16668,-0.16587,-0.1567,-0.15179,-0.15163,-0.15384,-0.15595,-0.1556,-0.14833,-0.14501,-0.1389,-0.15318,-0.14162,-0.13134,-0.13047,-0.12875,-0.12599,-0.12575,-0.10832,-0.10503,-0.092288,-0.10333,-0.10019,-0.092202,-0.08106,-0.084588,-0.090245,-0.087569,-0.075391,-0.073322,-0.069373,-0.085106,-0.083912,-0.077761,-0.06426,-0.074064,-0.079695,-0.091263,-0.091864,-0.095695,-0.10556,-0.11824,-0.11662,-0.11528,-0.11273,-0.12703,-0.14202,-0.15022,-0.15257,-0.15076,-0.16122,-0.16501,-0.17507,-0.17425,-0.16619,-0.18111,-0.20077,-0.19938,-0.20342,-0.19619,-0.20255,-0.20693,-0.21546,-0.2199,-0.20666,-0.21466,-0.22138,-0.224,-0.22039,-0.21075,-0.21544,-0.22107,-0.22635,-0.22418,-0.22272,-0.22393,-0.22833,-0.22717,-0.23445,-0.22583,-0.23141,-0.23108,-0.2419,-0.23501,-0.22849,-0.2235,-0.22594,-0.21878,-0.20888,-0.19817,-0.18498,-0.17954,-0.17259,-0.16453,-0.15388,-0.12727,-0.12598,-0.13873,-0.12934,-0.12026,-0.11919,-0.11356,-0.12218,-0.12655,-0.145,-0.13991,-0.1637,-0.19117,-0.20877,-0.21801,-0.21766,-0.21199,-0.21911,-0.2212,-0.23389,-0.23109,-0.22728,-0.234,-0.23325,-0.24615,-0.236,-0.2421,-0.23881,-0.24546,-0.27616,-0.27151,-0.18365,0.0048,0.29907,0.60252,0.92663,1.1484,1.1545,1.1189,0.881,0.47371,-0.17097,-0.52478,-0.53861,-0.46891,-0.39497,-0.36453,-0.35814,-0.33371,-0.30632,-0.29091,-0.27522,-0.29359,-0.28278,-0.27123,-0.2576,-0.27373,-0.28847,-0.28522,-0.26648,-0.26351,-0.25272,-0.25726,-0.29051,-0.29955,-0.27778,-0.27513,-0.25705,-0.25452,-0.26255,-0.26679,-0.2422,-0.24761,-0.27157,-0.29242,-0.25632,-0.22971,-0.23008,-0.26642,-0.28388,-0.27445,-0.26897,-0.25966,-0.24267,-0.25115,-0.25719,-0.24405,-0.23568,-0.2325,-0.24434,-0.27328,-0.26239,-0.25778,-0.25635,-0.24645,-0.23611,-0.24404,-0.24447,-0.23815,-0.22311,-0.20733,-0.19835,-0.20148,-0.20509,-0.22816,-0.21493,-0.20042,-0.19963,-0.19226,-0.19479,-0.20255,-0.1996,-0.19329,-0.17863,-0.20543,-0.20306,-0.16428,-0.15993,-0.18667,-0.19451,-0.18421,-0.15579,-0.1555,-0.14665,-0.15452,-0.17034,-0.15414,-0.13771,-0.12439,-0.13486,-0.15924,-0.14135,-0.1573,-0.17208,-0.15457,-0.15628,-0.14625,-0.14309,-0.1416,-0.14387,-0.11864,-0.12131,-0.12445,-0.12336,-0.10872,-0.09438,-0.094986,-0.10904,-0.095982,-0.088463,-0.088537,-0.096857,-0.069123,-0.077563,-0.092739,-0.097021,-0.09579,-0.071287,-0.068503,-0.074171,-0.083992,-0.090118,-0.089584,-0.1054,-0.098878,-0.10853,-0.11854,-0.11461,-0.132,-0.13149,-0.10912,-0.14344,-0.16095,-0.13862,-0.15814,-0.18054,-0.18358,-0.19169,-0.17625,-0.1912,-0.1997,-0.20015,-0.19064,-0.19383,-0.20919,-0.21154,-0.21426,-0.21118,-0.19879,-0.18849,-0.1916,-0.21234,-0.23601,-0.21974,-0.19165,-0.19058,-0.20456,-0.22973,-0.21094,-0.2099,-0.24623,-0.23931,-0.22998,-0.20658,-0.21766,-0.24712,-0.2349,-0.2237,-0.21924,-0.22007,-0.21604,-0.23667,-0.23819,-0.22448,-0.2217,-0.22436,-0.24527,-0.24034,-0.23516,-0.23968,-0.24044,-0.2239,-0.21932,-0.22003,-0.23994,-0.23397,-0.23992,-0.24312,-0.23782,-0.22879,-0.23148,-0.23796,-0.24501,-0.21843,-0.19988,-0.20525,-0.21177,-0.19573,-0.17648,-0.16024,-0.14076,-0.13955,-0.14307,-0.13014,-0.12062,-0.13744,-0.13474,-0.12509,-0.12826,-0.11357,-0.10189,-0.15805,-0.20623,-0.20613,-0.20009,-0.20143,-0.21651,-0.23482,-0.23025,-0.23567,-0.25755,-0.28242,-0.25528,-0.23451,-0.23338,-0.24762,-0.27709,-0.27684,-0.27226,-0.29068,-0.29874,-0.22997,-0.089933,0.15991,0.48133,0.81078,1.0857,1.1925,1.1801,1.0775,0.72,0.15709,-0.40736,-0.5389,-0.46819,-0.41965,-0.37379,-0.37691,-0.34473,-0.32502,-0.29505,-0.29065,-0.28426,-0.30321,-0.30219,-0.30475,-0.28837,-0.29186,-0.28052,-0.27462,-0.29036,-0.30718,-0.29875,-0.29232,-0.27547,-0.27014,-0.28063,-0.29991,-0.30835,-0.29828,-0.28943,-0.28362,-0.28817,-0.29349,-0.28302,-0.27679,-0.26965,-0.2767,-0.2859,-0.27377,-0.26518,-0.27202,-0.28735,-0.28499,-0.27426,-0.26834,-0.24306,-0.2326,-0.24708,-0.28905,-0.28478,-0.26751,-0.25644,-0.26102,-0.25261,-0.23878,-0.23366,-0.24033,-0.24285,-0.23446,-0.21399,-0.21603,-0.22127,-0.21872,-0.2205,-0.20932,-0.20774,-0.20564,-0.21502,-0.20083,-0.18457,-0.17103,-0.19506,-0.20547,-0.20986,-0.18374,-0.17773,-0.18997,-0.18522,-0.17616,-0.16622,-0.15688,-0.15604,-0.14791,-0.14565,-0.13207,-0.14477,-0.13361,-0.13708,-0.14179,-0.13494,-0.12636,-0.12834,-0.13962,-0.13304,-0.13206,-0.12968,-0.12638,-0.11373,-0.10866,-0.11828,-0.10883,-0.099933,-0.11388,-0.094295,-0.076809,-0.074835,-0.078703,-0.09354,-0.096815,-0.090885,-0.068238,-0.060824,-0.067114,-0.070063,-0.058243,-0.049692,-0.066779,-0.075051,-0.07809,-0.073716,-0.061334,-0.071888,-0.083867,-0.094363,-0.095015,-0.09359,-0.09072,-0.10638,-0.11844,-0.11943,-0.12376,-0.13655,-0.13959,-0.14652,-0.13969,-0.14541,-0.16374,-0.16763,-0.16094,-0.1641,-0.17287,-0.18119,-0.17894,-0.18219,-0.18867,-0.1912,-0.1855,-0.18606,-0.20014,-0.2075,-0.19989,-0.19477,-0.2046,-0.20826,-0.19512,-0.20244,-0.21374,-0.21264,-0.20921,-0.20582,-0.21935,-0.22616,-0.2147,-0.22646,-0.2242,-0.21642,-0.21081,-0.21235,-0.22198,-0.2274,-0.22869,-0.22661,-0.21505,-0.21517,-0.22717,-0.21929,-0.21507,-0.20333,-0.22273,-0.22996,-0.22813,-0.21119,-0.21821,-0.23678,-0.24196,-0.22975,-0.20454,-0.20618,-0.23014,-0.24847,-0.23796,-0.21535,-0.22014,-0.22653,-0.23292,-0.22615,-0.22188,-0.21788,-0.21364,-0.23218,-0.24146,-0.22203,-0.22512,-0.22372,-0.2329,-0.23072,-0.23017,-0.21858,-0.23055,-0.24181,-0.21887,-0.20472,-0.22755,-0.23782,-0.24021,-0.23001,-0.22185,-0.23153,-0.23494,-0.23261,-0.22943,-0.2164,-0.21739,-0.22125,-0.23438,-0.22742,-0.20927,-0.19324,-0.18524,-0.17652,-0.17323,-0.15927,-0.14913,-0.15221,-0.13915,-0.13538,-0.12596,-0.1063,-0.10322,-0.10297,-0.11339,-0.11782,-0.11453,-0.14354,-0.16776,-0.18194,-0.20389,-0.20369,-0.2128,-0.22795,-0.23746,-0.242,-0.23406,-0.24804,-0.24824,-0.26094,-0.25341,-0.24368,-0.24186,-0.25666,-0.27114,-0.28866,-0.23393,-0.10721,0.12496,0.43697,0.5984,0.90365,1.145,1.1776,1.1667,0.94824,0.55225,-0.041275,-0.46976,-0.52618,-0.45269,-0.40119,-0.35178,-0.3296,-0.32842,-0.32118,-0.30054,-0.304,-0.29775,-0.31156,-0.30752,-0.31095,-0.29359,-0.30233,-0.3094,-0.30148,-0.29298,-0.2879,-0.29991,-0.30597,-0.30252,-0.29779,-0.28149,-0.28785,-0.30599,-0.30559,-0.29349,-0.28108,-0.2786,-0.28376,-0.29006,-0.30108,-0.29367,-0.29001,-0.2977,-0.30057,-0.29188,-0.28311,-0.28022,-0.28459,-0.28299,-0.28128,-0.28263,-0.27698,-0.28283,-0.28415,-0.27849,-0.27015,-0.26837,-0.26937,-0.27853,-0.26884,-0.26717,-0.25972,-0.26072,-0.25587,-0.24307,-0.23442,-0.2442,-0.2472,-0.2528,-0.24634,-0.2388,-0.22887,-0.23973,-0.24908,-0.23896,-0.2338,-0.23254,-0.22606,-0.22741,-0.22726,-0.2279,-0.21108,-0.2106,-0.21344,-0.20511,-0.19296,-0.18201,-0.17804,-0.18569,-0.17885,-0.16548,-0.16315,-0.16133,-0.16944,-0.166,-0.15555,-0.15494,-0.15565,-0.16166,-0.1628,-0.1573,-0.14524,-0.14777,-0.14647,-0.14715,-0.1396,-0.12398,-0.11823,-0.12576,-0.12146,-0.10935,-0.10115,-0.095289,-0.095545,-0.097793,-0.1,-0.09229,-0.093419,-0.091396,-0.097308,-0.091722,-0.085335,-0.090465,-0.096712,-0.10884,-0.1088,-0.1075,-0.11449,-0.11767,-0.12907,-0.13286,-0.12754,-0.13751,-0.14554,-0.1619,-0.17249,-0.16783,-0.16887,-0.17417,-0.19096,-0.19171,-0.18597,-0.1813,-0.19467,-0.21304,-0.21541,-0.21486,-0.21351,-0.21513,-0.22061,-0.22691,-0.2203,-0.22418,-0.22825,-0.24237,-0.24774,-0.23933,-0.23514,-0.23379,-0.24328,-0.24576,-0.24433,-0.23243,-0.23454,-0.24213,-0.24641,-0.24811,-0.24342,-0.24264,-0.253,-0.25497,-0.24647,-0.24106,-0.25012,-0.25609,-0.25183,-0.25215,-0.24269,-0.23586,-0.24604,-0.25782,-0.25959,-0.24451,-0.2351,-0.24478,-0.2618,-0.25747,-0.24218,-0.25124,-0.26029,-0.26363,-0.25241,-0.24679,-0.25225,-0.25982,-0.26195,-0.26103,-0.25717,-0.24974,-0.24529,-0.26061,-0.27028,-0.25185,-0.24788,-0.25195,-0.25663,-0.25627,-0.24694,-0.24339,-0.24824,-0.24497,-0.22732,-0.2103,-0.2069,-0.20223,-0.19252,-0.1889,-0.17799,-0.15157,-0.14977,-0.16013,-0.14862,-0.15046,-0.13181,-0.12614,-0.14632,-0.15137,-0.17104,-0.19233,-0.2205,-0.23629,-0.24284,-0.25059,-0.25126,-0.26067,-0.27311,-0.26732,-0.26794,-0.2642,-0.2635,-0.26865,-0.28988,-0.28808,-0.27899,-0.29371,-0.30054,-0.31323,-0.2169,-0.049369,0.2219,0.53935,0.83599,1.082,1.1619,1.1327,0.95517,0.57151,0.28805,-0.32075,-0.56016,-0.52644,-0.49793,-0.40942,-0.39671,-0.33134,-0.34253,-0.33176,-0.33718,-0.30171,-0.31912,-0.30366,-0.33362,-0.31257,-0.32103,-0.30284,-0.31026,-0.31428,-0.32439,-0.29805,-0.30757,-0.29894,-0.31319,-0.29792,-0.30665,-0.28883,-0.30348,-0.30945,-0.31001,-0.3006,-0.29606,-0.29204,-0.30335,-0.30463,-0.30141,-0.28922,-0.29293,-0.29775,-0.30706,-0.29566,-0.29004,-0.29339,-0.30078,-0.29508,-0.29417,-0.286,-0.28479,-0.28885,-0.29121,-0.29448,-0.28522,-0.28226,-0.27722,-0.28163,-0.27747,-0.26219,-0.26066,-0.26828,-0.26586,-0.25766,-0.23866,-0.24495,-0.24409,-0.25319,-0.2521,-0.24518,-0.23591,-0.23324,-0.23977,-0.24491,-0.23392,-0.2314,-0.22306,-0.23273,-0.22352,-0.211,-0.19855,-0.19177,-0.19284,-0.19717,-0.17981,-0.17537,-0.16826,-0.18127,-0.18209,-0.18253,-0.1645,-0.16585,-0.1713,-0.17408,-0.1557,-0.15189,-0.14479,-0.16349,-0.15613,-0.14937,-0.1385,-0.13692,-0.13512,-0.14447,-0.13399,-0.11909,-0.1104,-0.10941,-0.11426,-0.1178,-0.094773,-0.098964,-0.096378,-0.10223,-0.099791,-0.084851,-0.088166,-0.0922,-0.094104,-0.09621,-0.090587,-0.094077,-0.10124,-0.11298,-0.11819,-0.10905,-0.11355,-0.11908,-0.12788,-0.13857,-0.13729,-0.14056,-0.1478,-0.1644,-0.16938,-0.16464,-0.16487,-0.17097,-0.1845,-0.19186,-0.18361,-0.18769,-0.19158,-0.20331,-0.20873,-0.20792,-0.20242,-0.20564,-0.22338,-0.22179,-0.2184,-0.21786,-0.21994,-0.23487,-0.23358,-0.22989,-0.2301,-0.22982,-0.23299,-0.23413,-0.23465,-0.2204,-0.22228,-0.23095,-0.23813,-0.23597,-0.23565,-0.22826,-0.23804,-0.24616,-0.23949,-0.22746,-0.22831,-0.23721,-0.23505,-0.22804,-0.21476,-0.19867,-0.20074,-0.19221,-0.18398,-0.16464,-0.15897,-0.16279,-0.14857,-0.13041,-0.12801,-0.12963,-0.12477,-0.13667,-0.12914,-0.12311,-0.13204,-0.14478,-0.16677,-0.18199,-0.20781,-0.22004,-0.23332,-0.24852,-0.25068,-0.2462,-0.24831,-0.25033,-0.26451,-0.26972,-0.25726,-0.25184,-0.26454,-0.26865,-0.27625,-0.26793,-0.28233,-0.29706,-0.27741,-0.16503,0.046305,0.3638,0.66726,0.95585,1.1405,1.1356,1.1332,0.99434,0.61983,0.036346,-0.47032,-0.54505,-0.49354,-0.43264,-0.38885,-0.35464,-0.31616,-0.30733,-0.30579,-0.30122,-0.29303,-0.28848,-0.28584,-0.29356,-0.29574,-0.29111,-0.28266,-0.28544,-0.28182,-0.29102,-0.28636,-0.27809,-0.2742,-0.27305,-0.28501,-0.2834,-0.26826,-0.27192,-0.26359,-0.27632,-0.26996,-0.26488,-0.268,-0.26674,-0.27441,-0.26709,-0.26241,-0.26044,-0.26084,-0.27105,-0.27113,-0.26554,-0.25582,-0.25813,-0.26426,-0.26452,-0.25494,-0.24718,-0.25008,-0.25885,-0.25528,-0.24168,-0.23501,-0.23986,-0.2364,-0.23584,-0.23207,-0.21419,-0.21064,-0.21224,-0.21677,-0.20971,-0.19695,-0.19769,-0.20382,-0.20341,-0.19492,-0.18709,-0.18911,-0.18811,-0.193,-0.18878,-0.17621,-0.17557,-0.17369,-0.17631,-0.16953,-0.1546,-0.14625,-0.14177,-0.14715,-0.13694,-0.12257,-0.12405,-0.12622,-0.12887,-0.13134,-0.12376,-0.12049,-0.12314,-0.13113,-0.12748,-0.11567,-0.12101,-0.12425,-0.12788,-0.12221,-0.113,-0.09836,-0.096161,-0.10485,-0.097939,-0.090718,-0.071932,-0.074103,-0.08201,-0.077545,-0.065228,-0.058622,-0.059063,-0.063282,-0.054563,-0.050575,-0.048952,-0.044833,-0.046633,-0.052736,-0.05735,-0.051156,-0.060197,-0.074413,-0.076403,-0.081076,-0.072406,-0.084564,-0.099146,-0.10856,-0.10697,-0.10847,-0.11826,-0.12707,-0.13183,-0.13515,-0.12884,-0.14327,-0.15225,-0.16436,-0.16905,-0.15726,-0.15962,-0.15855,-0.17317,-0.16629,-0.16804,-0.17163,-0.18336,-0.18753,-0.1819,-0.17113,-0.17759,-0.18604,-0.19779,-0.1933,-0.18504,-0.18246,-0.19033,-0.19714,-0.19883,-0.18488,-0.19007,-0.19643,-0.20759,-0.19667,-0.19828,-0.20005,-0.19883,-0.20501,-0.20366,-0.20458,-0.19658,-0.20036,-0.20702,-0.20792,-0.19585,-0.19251,-0.19442,-0.20386,-0.20803,-0.2062,-0.19874,-0.2096,-0.20594,-0.21299,-0.19943,-0.19208,-0.19616,-0.2078,-0.2105,-0.19139,-0.19988,-0.19674,-0.20592,-0.20495,-0.20196,-0.20526,-0.19529,-0.19241,-0.21457,-0.20806,-0.19746,-0.18924,-0.19303,-0.2099,-0.20578,-0.19826,-0.1953,-0.20401,-0.21322,-0.20259,-0.19095,-0.20158,-0.19936,-0.20839,-0.20651,-0.19731,-0.19833,-0.19171,-0.20186,-0.20502,-0.1851,-0.19318,-0.19255,-0.18503,-0.1908,-0.17053,-0.15052,-0.13358,-0.14149,-0.13033,-0.10504,-0.092593,-0.10182,-0.10351,-0.097513,-0.083116,-0.08469,-0.089387,-0.089822,-0.10848,-0.11941,-0.13666,-0.16162,-0.18664,-0.2037,-0.20249,-0.20679,-0.20846,-0.22281,-0.22907,-0.21954,-0.21801,-0.22155,-0.23661,-0.2414,-0.23881,-0.23391,-0.24893,-0.25636,-0.20134,-0.061124,0.1977,0.52502,0.81828,1.0628,1.1659,1.1787,1.0833,0.72434,0.20461,-0.35962,-0.51849,-0.45485,-0.40027,-0.35913,-0.33493,-0.30549,-0.30231,-0.28132,-0.29097,-0.28261,-0.27859,-0.27008,-0.27903,-0.27727,-0.28361,-0.26606,-0.26916,-0.27318,-0.28331,-0.2695,-0.26291,-0.26234,-0.26811,-0.27101,-0.27623,-0.26893,-0.2602,-0.26045,-0.27352,-0.27049,-0.26977,-0.25366,-0.2576,-0.25937,-0.2645,-0.25842,-0.24933,-0.2476,-0.2541,-0.25623,-0.25655,-0.24647,-0.24747,-0.24814,-0.24798,-0.24238,-0.23248,-0.23476,-0.23766,-0.24178,-0.24022,-0.22889,-0.22352,-0.22556,-0.2295,-0.21514,-0.2056,-0.19572,-0.19998,-0.19874,-0.18973,-0.17995,-0.17626,-0.17825,-0.17743,-0.17685,-0.17253,-0.16494,-0.17047,-0.17579,-0.17256,-0.16426,-0.14659,-0.14901,-0.15349,-0.14383,-0.1222,-0.11233,-0.10919,-0.11285,-0.10081,-0.096721,-0.090069,-0.091818,-0.10295,-0.099309,-0.087196,-0.079432,-0.080069,-0.090873,-0.08322,-0.077034,-0.067312,-0.062422,-0.07133,-0.067475,-0.053219,-0.055285,-0.048877,-0.054825,-0.046535,-0.040461,-0.027463,-0.029375,-0.038063,-0.037589,-0.034138,-0.023458,-0.021551,-0.028213,-0.037979,-0.034901,-0.027499,-0.041509,-0.050467,-0.064999,-0.065411,-0.05972,-0.0693,-0.084445,-0.091723,-0.092782,-0.081912,-0.093817,-0.11097,-0.12255,-0.11779,-0.12037,-0.13201,-0.13872,-0.14055,-0.14698,-0.15009,-0.16695,-0.17782,-0.1945,-0.19337,-0.19731,-0.19456,-0.20608,-0.21656,-0.20323,-0.2006,-0.2044,-0.21625,-0.22977,-0.23596,-0.22939,-0.21973,-0.22231,-0.22717,-0.23338,-0.22537,-0.2214,-0.21289,-0.21935,-0.23221,-0.2236,-0.21825,-0.22325,-0.2291,-0.22722,-0.22867,-0.22316,-0.22777,-0.23111,-0.23597,-0.23006,-0.21648,-0.22218,-0.22866,-0.23392,-0.23219,-0.21734,-0.21968,-0.22913,-0.23237,-0.23657,-0.22149,-0.22042,-0.23498,-0.23593,-0.23273,-0.22536,-0.21277,-0.20796,-0.21014,-0.19869,-0.18847,-0.17576,-0.17068,-0.16858,-0.15068,-0.12605,-0.12998,-0.1334,-0.12931,-0.12834,-0.13009,-0.1258,-0.14208,-0.15237,-0.15774,-0.16702,-0.20479,-0.21388,-0.23033,-0.24161,-0.23993,-0.24324,-0.25105,-0.25295,-0.25214,-0.24919,-0.24575,-0.25307,-0.26435,-0.26024,-0.25916,-0.27084,-0.29382,-0.30617,-0.20179,-0.032151,0.26648,0.42936,0.70478,0.98802,1.1428,1.1495,1.0712,0.75114,0.2273,-0.37812,-0.56879,-0.53096,-0.49036,-0.39848,-0.38805,-0.31721,-0.32705,-0.30348,-0.32207,-0.29626,-0.30835,-0.28723,-0.3031,-0.29111,-0.29696,-0.27363,-0.29742,-0.27685,-0.29476,-0.28657,-0.2916,-0.2723,-0.28038,-0.29209,-0.29518,-0.27867,-0.27819,-0.2678,-0.29492,-0.2834,-0.27303,-0.26754,-0.2774,-0.26347,-0.26442,-0.25406,-0.25703,-0.25416,-0.26652,-0.26965,-0.26432,-0.25563,-0.25605,-0.27837,-0.27428,-0.24873,-0.24588,-0.24552,-0.25909,-0.25534,-0.24214,-0.24107,-0.24215,-0.25028,-0.24367,-0.23352,-0.22048,-0.22047,-0.22281,-0.23175,-0.22599,-0.2188,-0.20407,-0.21726,-0.21467,-0.21735,-0.20043,-0.19978,-0.19986,-0.20634,-0.18538,-0.18755,-0.18755,-0.18206,-0.18561,-0.18086,-0.16706,-0.16432,-0.15105,-0.16635,-0.15493,-0.15569,-0.13709,-0.14551,-0.13656,-0.1424,-0.12792,-0.12853,-0.11557,-0.12517,-0.12533,-0.1242,-0.12501,-0.1229,-0.12551,-0.12603,-0.10736,-0.10151,-0.096664,-0.10905,-0.10731,-0.091108,-0.084343,-0.080843,-0.077222,-0.076645,-0.066723,-0.063709,-0.061464,-0.062129,-0.068884,-0.066757,-0.060709,-0.066525,-0.071793,-0.083671,-0.07284,-0.07665,-0.082273,-0.10285,-0.10345,-0.1189,-0.11676,-0.12901,-0.13601,-0.15171,-0.15042,-0.14507,-0.15512,-0.15498,-0.16765,-0.16374,-0.15848,-0.1646,-0.17363,-0.177,-0.18065,-0.17107,-0.17975,-0.17596,-0.1779,-0.17472,-0.15921,-0.16487,-0.15264,-0.15422,-0.15401,-0.11126,-0.11216,-0.11678,-0.12165,-0.11492,-0.10559,-0.098143,-0.099339,-0.11117,-0.12691,-0.1308,-0.14149,-0.18333,-0.22498,-0.23854,-0.23356,-0.23318,-0.24158,-0.25298,-0.2506,-0.24646,-0.24737
