-12.395,-12.395,-12.393,-12.395,-12.388,-12.388,-12.395,-12.4,-12.394,-12.39,-12.36,-12.396,-12.417,-12.398,-12.391,-12.385,-12.389,-12.394,-12.406,-12.383,-12.391,-12.405,-12.401,-12.397,-12.393,-12.395,-12.397,-12.397,-12.399,-12.398,-12.403,-12.397,-12.402,-12.388,-12.385,-12.394,-12.41,-12.402,-12.392,-12.397,-12.392,-12.383,-12.392,-12.391,-12.391,-12.396,-12.384,-12.394,-12.396,-12.382,-12.391,-12.384,-12.395,-12.398,-12.396,-12.386,-12.394,-12.397,-12.395,-12.396,-12.39,-12.394,-12.395,-12.4,-12.395,-12.388,-12.394,-12.399,-12.395,-12.398,-12.4,-12.403,-12.396,-12.403,-12.401,-12.396,-12.404,-12.412,-12.403,-12.393,-12.397,-12.384,-12.374,-12.358,-12.356,-12.363,-12.344,-12.33,-12.299,-12.293,-12.315,-12.311,-12.329,-12.342,-12.347,-12.348,-12.357,-12.397,-12.416,-12.414,-12.424,-12.427,-12.421,-12.436,-12.433,-12.418,-12.409,-12.432,-12.416,-12.422,-12.429,-12.42,-12.415,-12.44,-12.464,-12.491,-12.507,-12.401,-12.189,-11.963,-11.744,-11.643,-11.645,-11.912,-12.059,-12.166,-12.47,-12.523,-12.521,-12.568,-12.511,-12.442,-12.39,-12.367,-12.386,-12.364,-12.379,-12.372,-12.362,-12.355,-12.366,-12.347,-12.362,-12.35,-12.343,-12.327,-12.322,-12.318,-12.319,-12.314,-12.303,-12.292,-12.304,-12.299,-12.279,-12.261,-12.258,-12.258,-12.244,-12.236,-12.226,-12.22,-12.204,-12.187,-12.175,-12.142,-12.124,-12.122,-12.102,-12.083,-12.057,-12.03,-12.013,-12.012,-12,-11.985,-11.973,-11.968,-11.966,-11.958,-11.947,-11.954,-11.987,-11.994,-12.005,-12.028,-12.057,-12.108,-12.135,-12.174,-12.204,-12.232,-12.259,-12.3,-12.322,-12.337,-12.354,-12.383,-12.391,-12.402,-12.403,-12.407,-12.398,-12.415,-12.417,-12.42,-12.419,-12.421,-12.436,-12.428,-12.419,-12.431,-12.429,-12.417,-12.425,-12.413,-12.418,-12.415,-12.412,-12.415,-12.402,-12.392,-12.394,-12.381,-12.399,-12.405,-12.392,-12.393,-12.384,-12.384,-12.371,-12.377,-12.37,-12.362,-12.357,-12.36,-12.384,-12.378,-12.371,-12.37,-12.363,-12.37,-12.369,-12.371,-12.367,-12.369,-12.363,-12.367,-12.366,-12.37,-12.376,-12.37,-12.371,-12.374,-12.376,-12.374,-12.375,-12.379,-12.378,-12.381,-12.379,-12.376,-12.385,-12.387,-12.38,-12.381,-12.387,-12.389,-12.387,-12.385,-12.369,-12.378,-12.397,-12.387,-12.383,-12.385,-12.377,-12.37,-12.389,-12.389,-12.383,-12.395,-12.387,-12.386,-12.385,-12.383,-12.379,-12.377,-12.394,-12.389,-12.378,-12.393,-12.386,-12.39,-12.381,-12.386,-12.391,-12.396,-12.396,-12.386,-12.386,-12.38,-12.394,-12.39,-12.391,-12.384,-12.381,-12.363,-12.36,-12.341,-12.35,-12.348,-12.318,-12.322,-12.291,-12.291,-12.304,-12.295,-12.303,-12.32,-12.324,-12.333,-12.356,-12.353,-12.391,-12.4,-12.403,-12.409,-12.414,-12.408,-12.424,-12.425,-12.423,-12.416,-12.419,-12.417,-12.423,-12.426,-12.421,-12.413,-12.433,-12.464,-12.493,-12.478,-12.393,-12.192,-11.946,-11.707,-11.597,-11.771,-11.966,-12.152,-12.354,-12.484,-12.441,-12.505,-12.543,-12.469,-12.447,-12.405,-12.386,-12.374,-12.378,-12.372,-12.366,-12.374,-12.367,-12.355,-12.368,-12.353,-12.348,-12.336,-12.333,-12.344,-12.327,-12.311,-12.322,-12.317,-12.312,-12.302,-12.293,-12.289,-12.289,-12.274,-12.268,-12.25,-12.247,-12.232,-12.222,-12.204,-12.192,-12.192,-12.167,-12.147,-12.119,-12.107,-12.092,-12.075,-12.057,-12.052,-12.037,-12.025,-12.01,-12.007,-11.992,-11.988,-11.995,-11.994,-11.995,-12.017,-12.029,-12.059,-12.092,-12.133,-12.165,-12.196,-12.232,-12.248,-12.279,-12.311,-12.343,-12.37,-12.391,-12.407,-12.412,-12.435,-12.443,-12.444,-12.442,-12.455,-12.466,-12.463,-12.465,-12.461,-12.48,-12.468,-12.47,-12.483,-12.48,-12.478,-12.476,-12.478,-12.472,-12.468,-12.472,-12.477,-12.473,-12.475,-12.467,-12.461,-12.446,-12.453,-12.46,-12.458,-12.447,-12.457,-12.448,-12.449,-12.446,-12.441,-12.445,-12.442,-12.438,-12.433,-12.452,-12.453,-12.445,-12.462,-12.465,-12.453,-12.457,-12.472,-12.466,-12.468,-12.47,-12.466,-12.466,-12.472,-12.477,-12.478,-12.478,-12.475,-12.482,-12.472,-12.488,-12.491,-12.481,-12.486,-12.488,-12.483,-12.498,-12.491,-12.501,-12.506,-12.498,-12.506,-12.507,-12.511,-12.504,-12.504,-12.511,-12.514,-12.508,-12.508,-12.502,-12.518,-12.525,-12.519,-12.517,-12.516,-12.52,-12.533,-12.522,-12.526,-12.532,-12.524,-12.517,-12.533,-12.54,-12.544,-12.541,-12.541,-12.549,-12.546,-12.536,-12.543,-12.54,-12.539,-12.548,-12.543,-12.543,-12.54,-12.547,-12.547,-12.554,-12.554,-12.559,-12.554,-12.559,-12.561,-12.561,-12.554,-12.553,-12.538,-12.519,-12.505,-12.532,-12.522,-12.515,-12.504,-12.468,-12.461,-12.481,-12.491,-12.469,-12.499,-12.528,-12.524,-12.52,-12.543,-12.564,-12.58,-12.594,-12.602,-12.604,-12.604,-12.6,-12.6,-12.602,-12.607,-12.603,-12.609,-12.605,-12.602,-12.608,-12.607,-12.629,-12.65,-12.686,-12.664,-12.537,-12.318,-12.103,-11.87,-11.772,-12.019,-12.137,-12.246,-12.552,-12.733,-12.753,-12.758,-12.689,-12.613,-12.589,-12.572,-12.585,-12.567,-12.571,-12.568,-12.574,-12.564,-12.564,-12.556,-12.559,-12.56,-12.551,-12.541,-12.541,-12.535,-12.522,-12.506,-12.519,-12.513,-12.502,-12.499,-12.493,-12.476,-12.472,-12.458,-12.464,-12.446,-12.431,-12.413,-12.396,-12.401,-12.378,-12.355,-12.337,-12.319,-12.29,-12.29,-12.269,-12.246,-12.233,-12.228,-12.217,-12.194,-12.182,-12.17,-12.167,-12.164,-12.163,-12.164,-12.18,-12.194,-12.213,-12.244,-12.271,-12.308,-12.348,-12.385,-12.425,-12.46,-12.474,-12.498,-12.532,-12.555,-12.567,-12.586,-12.606,-12.617,-12.625,-12.622,-12.628,-12.639,-12.64,-12.643,-12.649,-12.654,-12.66,-12.647,-12.643,-12.652,-12.659,-12.662,-12.654,-12.649,-12.648,-12.644,-12.65,-12.647,-12.638,-12.641,-12.642,-12.644,-12.637,-12.635,-12.633,-12.632,-12.621,-12.623,-12.625,-12.633,-12.628,-12.627,-12.623,-12.627,-12.624,-12.617,-12.608,-12.612,-12.613,-12.628,-12.629,-12.632,-12.632,-12.631,-12.624,-12.628,-12.632,-12.624,-12.619,-12.634,-12.638,-12.636,-12.641,-12.641,-12.636,-12.638,-12.645,-12.643,-12.642,-12.637,-12.64,-12.648,-12.648,-12.652,-12.65,-12.642,-12.644,-12.65,-12.649,-12.641,-12.647,-12.65,-12.64,-12.653,-12.656,-12.65,-12.652,-12.651,-12.649,-12.651,-12.656,-12.655,-12.658,-12.652,-12.659,-12.656,-12.655,-12.66,-12.653,-12.653,-12.659,-12.648,-12.656,-12.664,-12.664,-12.66,-12.655,-12.662,-12.657,-12.655,-12.664,-12.667,-12.66,-12.66,-12.662,-12.659,-12.664,-12.658,-12.658,-12.665,-12.647,-12.662,-12.669,-12.669,-12.668,-12.664,-12.66,-12.663,-12.659,-12.665,-12.658,-12.656,-12.671,-12.67,-12.658,-12.651,-12.653,-12.64,-12.632,-12.632,-12.621,-12.618,-12.621,-12.598,-12.569,-12.551,-12.554,-12.572,-12.578,-12.59,-12.592,-12.597,-12.611,-12.612,-12.63,-12.672,-12.679,-12.681,-12.679,-12.678,-12.684,-12.677,-12.671,-12.672,-12.683,-12.679,-12.682,-12.676,-12.678,-12.675,-12.686,-12.71,-12.745,-12.746,-12.641,-12.431,-12.198,-11.965,-11.862,-11.868,-12.149,-12.248,-12.368,-12.713,-12.804,-12.811,-12.79,-12.726,-12.672,-12.628,-12.608,-12.609,-12.603,-12.616,-12.61,-12.596,-12.588,-12.6,-12.591,-12.587,-12.578,-12.577,-12.564,-12.564,-12.553,-12.549,-12.53,-12.524,-12.521,-12.523,-12.508,-12.5,-12.487,-12.478,-12.47,-12.457,-12.448,-12.42,-12.413,-12.409,-12.397,-12.371,-12.342,-12.327,-12.322,-12.308,-12.283,-12.26,-12.248,-12.225,-12.202,-12.189,-12.184,-12.169,-12.159,-12.151,-12.156,-12.157,-12.153,-12.156,-12.164,-12.197,-12.225,-12.257,-12.298,-12.322,-12.367,-12.389,-12.429,-12.461,-12.484,-12.513,-12.536,-12.553,-12.565,-12.576,-12.589,-12.594,-12.599,-12.606,-12.607,-12.615,-12.618,-12.621,-12.615,-12.605,-12.61,-12.615,-12.609,-12.599,-12.612,-12.615,-12.606,-12.602,-12.597,-12.594,-12.595,-12.596,-12.588,-12.599,-12.591,-12.586,-12.576,-12.578,-12.581,-12.574,-12.57,-12.566,-12.573,-12.571,-12.563,-12.567,-12.568,-12.566,-12.549,-12.557,-12.571,-12.565,-12.559,-12.543,-12.542,-12.569,-12.575,-12.565,-12.564,-12.562,-12.564,-12.557,-12.553,-12.561,-12.557,-12.548,-12.553,-12.559,-12.548,-12.556,-12.559,-12.551,-12.556,-12.556,-12.564,-12.55,-12.545,-12.548,-12.562,-12.54,-12.546,-12.553,-12.546,-12.543,-12.537,-12.552,-12.547,-12.548,-12.542,-12.542,-12.548,-12.536,-12.539,-12.537,-12.535,-12.537,-12.54,-12.539,-12.54,-12.539,-12.537,-12.533,-12.538,-12.533,-12.535,-12.539,-12.534,-12.529,-12.536,-12.53,-12.539,-12.542,-12.536,-12.539,-12.541,-12.535,-12.531,-12.536,-12.533,-12.535,-12.538,-12.531,-12.537,-12.542,-12.543,-12.542,-12.531,-12.542,-12.541,-12.548,-12.55,-12.544,-12.543,-12.552,-12.545,-12.553,-12.541,-12.55,-12.55,-12.531,-12.519,-12.505,-12.505,-12.51,-12.495,-12.48,-12.455,-12.425,-12.43,-12.446,-12.449,-12.449,-12.458,-12.469,-12.479,-12.488,-12.507,-12.533,-12.539,-12.539,-12.551,-12.553,-12.537,-12.539,-12.549,-12.538,-12.529,-12.548,-12.545,-12.549,-12.54,-12.537,-12.545,-12.56,-12.592,-12.623,-12.559,-12.393,-12.163,-11.943,-11.73,-11.749,-12.042,-12.167,-12.292,-12.581,-12.63,-12.637,-12.658,-12.633,-12.564,-12.512,-12.481,-12.464,-12.468,-12.464,-12.472,-12.466,-12.46,-12.453,-12.453,-12.44,-12.447,-12.427,-12.43,-12.425,-12.417,-12.401,-12.405,-12.405,-12.397,-12.388,-12.383,-12.369,-12.367,-12.353,-12.334,-12.322,-12.302,-12.303,-12.299,-12.272,-12.256,-12.242,-12.219,-12.2,-12.186,-12.163,-12.131,-12.123,-12.129,-12.102,-12.079,-12.059,-12.038,-12.045,-12.04,-12.02,-12.012,-12.003,-12.021,-12.029,-12.04,-12.064,-12.089,-12.119,-12.159,-12.195,-12.213,-12.24,-12.271,-12.298,-12.337,-12.363,-12.383,-12.4,-12.402,-12.428,-12.442,-12.44,-12.458,-12.464,-12.47,-12.464,-12.471,-12.469,-12.472,-12.477,-12.468,-12.46,-12.468,-12.47,-12.465,-12.466,-12.469,-12.459,-12.46,-12.445,-12.451,-12.448,-12.447,-12.447,-12.445,-12.436,-12.438,-12.429,-12.427,-12.43,-12.421,-12.419,-12.425,-12.428,-12.421,-12.426,-12.416,-12.409,-12.415,-12.407,-12.411,-12.417,-12.428,-12.426,-12.413,-12.426,-12.418,-12.422,-12.418,-12.419,-12.419,-12.425,-12.425,-12.426,-12.414,-12.421,-12.432,-12.433,-12.434,-12.434,-12.428,-12.417,-12.426,-12.421,-12.427,-12.426,-12.431,-12.428,-12.429,-12.433,-12.426,-12.429,-12.424,-12.428,-12.423,-12.423,-12.418,-12.423,-12.415,-12.423,-12.416,-12.425,-12.434,-12.423,-12.411,-12.421,-12.42,-12.423,-12.426,-12.433,-12.417,-12.422,-12.433,-12.426,-12.43,-12.423,-12.4,-12.411,-12.411,-12.396,-12.396,-12.378,-12.385,-12.386,-12.36,-12.353,-12.334,-12.316,-12.323,-12.331,-12.337,-12.328,-12.361,-12.373,-12.379,-12.391,-12.405,-12.427,-12.444,-12.448,-12.447,-12.45,-12.453,-12.441,-12.442,-12.46,-12.454,-12.452,-12.454,-12.447,-12.445,-12.449,-12.459,-12.477,-12.515,-12.546,-12.463,-12.258,-12.018,-11.766,-11.635,-11.756,-11.991,-12.177,-12.346,-12.529,-12.488,-12.53,-12.577,-12.564,-12.499,-12.456,-12.424,-12.408,-12.421,-12.4,-12.406,-12.393,-12.406,-12.39,-12.38,-12.39,-12.397,-12.37,-12.374,-12.365,-12.357,-12.351,-12.369,-12.338,-12.352,-12.338,-12.341,-12.327,-12.325,-12.306,-12.303,-12.295,-12.285,-12.272,-12.266,-12.24,-12.231,-12.219,-12.197,-12.183,-12.17,-12.147,-12.145,-12.124,-12.098,-12.081,-12.072,-12.064,-12.025,-12.041,-12.05,-12.038,-12.035,-12.027,-12.036,-12.056,-12.074,-12.103,-12.145,-12.175,-12.214,-12.242,-12.27,-12.307,-12.333,-12.357,-12.389,-12.418,-12.437,-12.442,-12.458,-12.475,-12.48,-12.488,-12.49,-12.5,-12.498,-12.506,-12.498,-12.51,-12.512,-12.511,-12.515,-12.52,-12.512,-12.516,-12.51,-12.51,-12.5,-12.501,-12.506,-12.516,-12.514,-12.508,-12.503,-12.491,-12.497,-12.501,-12.495,-12.501,-12.489,-12.487,-12.494,-12.491,-12.491,-12.484,-12.487,-12.488,-12.489,-12.48,-12.491,-12.498,-12.491,-12.503,-12.504,-12.499,-12.501,-12.513,-12.51,-12.509,-12.51,-12.514,-12.522,-12.524,-12.528,-12.533,-12.523,-12.528,-12.541,-12.532,-12.535,-12.546,-12.542,-12.546,-12.549,-12.541,-12.531,-12.553,-12.558,-12.553,-12.543,-12.546,-12.542,-12.558,-12.571,-12.573,-12.567,-12.568,-12.565,-12.567,-12.565,-12.551,-12.566,-12.574,-12.564,-12.569,-12.573,-12.565,-12.571,-12.581,-12.574,-12.578,-12.572,-12.572,-12.579,-12.586,-12.581,-12.59,-12.58,-12.579,-12.593,-12.592,-12.586,-12.576,-12.6,-12.597,-12.595,-12.596,-12.59,-12.588,-12.591,-12.585,-12.581,-12.57,-12.557,-12.546,-12.563,-12.549,-12.531,-12.52,-12.483,-12.496,-12.517,-12.524,-12.535,-12.539,-12.544,-12.552,-12.565,-12.592,-12.599,-12.623,-12.625,-12.621,-12.636,-12.636,-12.625,-12.62,-12.634,-12.626,-12.632,-12.642,-12.629,-12.628,-12.644,-12.643,-12.682,-12.705,-12.699,-12.593,-12.492,-12.267,-12.028,-11.837,-11.857,-12.099,-12.187,-12.334,-12.677,-12.793,-12.797,-12.777,-12.678,-12.639,-12.595,-12.586,-12.588,-12.602,-12.601,-12.602,-12.592,-12.595,-12.58,-12.585,-12.579,-12.568,-12.567,-12.577,-12.56,-12.551,-12.54,-12.539,-12.538,-12.529,-12.517,-12.514,-12.509,-12.504,-12.492,-12.486,-12.473,-12.471,-12.454,-12.439,-12.429,-12.412,-12.393,-12.373,-12.356,-12.326,-12.315,-12.303,-12.284,-12.261,-12.251,-12.227,-12.217,-12.208,-12.183,-12.173,-12.181,-12.179,-12.173,-12.184,-12.183,-12.203,-12.231,-12.262,-12.309,-12.341,-12.377,-12.411,-12.447,-12.487,-12.51,-12.525,-12.554,-12.584,-12.588,-12.591,-12.615,-12.623,-12.64,-12.634,-12.654,-12.663,-12.649,-12.65,-12.66,-12.659,-12.664,-12.665,-12.658,-12.66,-12.657,-12.66,-12.661,-12.653,-12.661,-12.652,-12.651,-12.649,-12.648,-12.649,-12.66,-12.642,-12.637,-12.65,-12.636,-12.642,-12.647,-12.642,-12.64,-12.635,-12.641,-12.632,-12.635,-12.634,-12.635,-12.625,-12.63,-12.648,-12.638,-12.624,-12.639,-12.638,-12.636,-12.644,-12.65,-12.657,-12.648,-12.644,-12.648,-12.658,-12.658,-12.657,-12.658,-12.658,-12.667,-12.657,-12.662,-12.674,-12.661,-12.671,-12.665,-12.668,-12.679,-12.67,-12.668,-12.669,-12.661,-12.67,-12.676,-12.675,-12.679,-12.678,-12.671,-12.674,-12.683,-12.676,-12.679,-12.673,-12.667,-12.676,-12.677,-12.672,-12.672,-12.675,-12.669,-12.682,-12.679,-12.665,-12.668,-12.679,-12.67,-12.669,-12.684,-12.683,-12.683,-12.678,-12.683,-12.677,-12.681,-12.677,-12.68,-12.683,-12.679,-12.68,-12.68,-12.684,-12.68,-12.679,-12.683,-12.683,-12.678,-12.679,-12.678,-12.675,-12.671,-12.688,-12.691,-12.68,-12.679,-12.683,-12.674,-12.668,-12.665,-12.662,-12.646,-12.636,-12.645,-12.635,-12.616,-12.589,-12.555,-12.585,-12.596,-12.595,-12.597,-12.607,-12.619,-12.619,-12.622,-12.626,-12.686,-12.705,-12.702,-12.703,-12.7,-12.703,-12.702,-12.698,-12.7,-12.705,-12.702,-12.702,-12.698,-12.711,-12.704,-12.708,-12.709,-12.754,-12.789,-12.744,-12.6,-12.366,-12.135,-11.904,-11.861,-12.166,-12.269,-12.39,-12.711,-12.841,-12.842,-12.836,-12.801,-12.728,-12.677,-12.658,-12.642,-12.655,-12.651,-12.65,-12.64,-12.63,-12.634,-12.626,-12.624,-12.621,-12.614,-12.595,-12.592,-12.58,-12.592,-12.588,-12.578,-12.562,-12.547,-12.556,-12.546,-12.539,-12.521,-12.508,-12.507,-12.495,-12.488,-12.47,-12.447,-12.438,-12.416,-12.41,-12.38,-12.361,-12.351,-12.331,-12.321,-12.303,-12.275,-12.261,-12.252,-12.239,-12.199,-12.207,-12.209,-12.199,-12.199,-12.19,-12.214,-12.226,-12.239,-12.277,-12.313,-12.346,-12.391,-12.415,-12.433,-12.467,-12.503,-12.541,-12.562,-12.578,-12.603,-12.601,-12.629,-12.651,-12.653,-12.656,-12.666,-12.677,-12.653,-12.655,-12.685,-12.681,-12.687,-12.681,-12.67,-12.662,-12.679,-12.681,-12.676,-12.674,-12.671,-12.663,-12.656,-12.659,-12.662,-12.657,-12.642,-12.653,-12.65,-12.649,-12.646,-12.638,-12.656,-12.65,-12.65,-12.641,-12.629,-12.637,-12.633,-12.629,-12.643,-12.634,-12.632,-12.629,-12.639,-12.629,-12.621,-12.626,-12.637,-12.627,-12.641,-12.633,-12.627,-12.627,-12.633,-12.622,-12.631,-12.632,-12.631,-12.635,-12.63,-12.621,-12.628,-12.632,-12.623,-12.619,-12.637,-12.631,-12.628,-12.616,-12.615,-12.626,-12.622,-12.625,-12.631,-12.626,-12.619,-12.615,-12.627,-12.627,-12.62,-12.622,-12.621,-12.623,-12.613,-12.626,-12.622,-12.62,-12.62,-12.618,-12.607,-12.615,-12.611,-12.61,-12.61,-12.609,-12.606,-12.608,-12.609,-12.61,-12.609,-12.6,-12.591,-12.6,-12.593,-12.598,-12.597,-12.585,-12.604,-12.603,-12.589,-12.603,-12.595,-12.593,-12.597,-12.594,-12.584,-12.588,-12.6,-12.588,-12.594,-12.595,-12.593,-12.594,-12.604,-12.599,-12.577,-12.595,-12.592,-12.595,-12.608,-12.591,-12.588,-12.594,-12.588,-12.595,-12.592,-12.574,-12.562,-12.557,-12.556,-12.536,-12.527,-12.522,-12.487,-12.503,-12.513,-12.511,-12.53,-12.547,-12.547,-12.548,-12.548,-12.588,-12.615,-12.631,-12.635,-12.637,-12.639,-12.631,-12.626,-12.64,-12.632,-12.639,-12.652,-12.655,-12.655,-12.641,-12.643,-12.647,-12.678,-12.715,-12.727,-12.678,-12.528,-12.284,-12.068,-11.855,-11.853,-12.133,-12.247,-12.377,-12.677,-12.747,-12.756,-12.776,-12.697,-12.648,-12.6,-12.583,-12.579,-12.577,-12.562,-12.561,-12.568,-12.554,-12.561,-12.569,-12.546,-12.54,-12.544,-12.526,-12.523,-12.514,-12.507,-12.509,-12.495,-12.494,-12.484,-12.482,-12.469,-12.463,-12.456,-12.438,-12.425,-12.421,-12.409,-12.392,-12.374,-12.36,-12.343,-12.328,-12.318,-12.282,-12.274,-12.252,-12.233,-12.204,-12.195,-12.177,-12.171,-12.166,-12.15,-12.136,-12.128,-12.131,-12.123,-12.122,-12.13,-12.137,-12.165,-12.192,-12.214,-12.257,-12.294,-12.322,-12.383,-12.402,-12.421,-12.455,-12.474,-12.487,-12.518,-12.53,-12.534,-12.554,-12.564,-12.57,-12.563,-12.56,-12.555,-12.598,-12.585,-12.58,-12.572,-12.58,-12.588,-12.576,-12.587,-12.581,-12.579,-12.573,-12.577,-12.572,-12.567,-12.569,-12.561,-12.563,-12.554,-12.566,-12.547,-12.541,-12.553,-12.553,-12.548,-12.53,-12.551,-12.541,-12.539,-12.535,-12.54,-12.527,-12.533,-12.536,-12.531,-12.527,-12.512,-12.532,-12.538,-12.531,-12.537,-12.54,-12.527,-12.522,-12.525,-12.54,-12.546,-12.544,-12.543,-12.539,-12.541,-12.54,-12.542,-12.548,-12.549,-12.54,-12.541,-12.535,-12.534,-12.546,-12.538,-12.528,-12.532,-12.543,-12.533,-12.539,-12.548,-12.539,-12.547,-12.535,-12.526,-12.534,-12.545,-12.547,-12.551,-12.544,-12.544,-12.547,-12.544,-12.543,-12.534,-12.528,-12.547,-12.545,-12.54,-12.522,-12.531,-12.54,-12.536,-12.539,-12.528,-12.533,-12.542,-12.537,-12.528,-12.544,-12.534,-12.54,-12.543,-12.537,-12.54,-12.535,-12.53,-12.534,-12.528,-12.526,-12.504,-12.497,-12.493,-12.477,-12.484,-12.46,-12.443,-12.453,-12.469,-12.463,-12.47,-12.484,-12.505,-12.51,-12.53,-12.552,-12.562,-12.569,-12.587,-12.585,-12.583,-12.591,-12.586,-12.586,-12.575,-12.591,-12.597,-12.585,-12.59,-12.592,-12.597,-12.607,-12.63,-12.676,-12.674,-12.54,-12.317,-12.086,-11.846,-11.756,-12.006,-12.18,-12.33,-12.428,-12.641,-12.659,-12.662,-12.753,-12.675,-12.634,-12.575,-12.587,-12.557,-12.575,-12.553,-12.57,-12.555,-12.56,-12.543,-12.543,-12.537,-12.548,-12.538,-12.544,-12.526,-12.527,-12.513,-12.506,-12.504,-12.511,-12.499,-12.499,-12.477,-12.478,-12.459,-12.455,-12.439,-12.427,-12.416,-12.399,-12.387,-12.375,-12.374,-12.352,-12.325,-12.313,-12.29,-12.25,-12.229,-12.233,-12.214,-12.208,-12.189,-12.168,-12.155,-12.15,-12.145,-12.14,-12.155,-12.165,-12.181,-12.2,-12.221,-12.244,-12.269,-12.311,-12.354,-12.38,-12.414,-12.457,-12.483,-12.5,-12.535,-12.543,-12.563,-12.571,-12.59,-12.587,-12.6,-12.607,-12.606,-12.603,-12.619,-12.629,-12.625,-12.622,-12.635,-12.626,-12.628,-12.621,-12.619,-12.628,-12.626,-12.611,-12.623,-12.619,-12.63,-12.617,-12.622,-12.619,-12.625,-12.619,-12.607,-12.616,-12.615,-12.607,-12.607,-12.606,-12.6,-12.61,-12.615,-12.602,-12.612,-12.595,-12.599,-12.603,-12.612,-12.607,-12.617,-12.622,-12.619,-12.616,-12.628,-12.625,-12.621,-12.619,-12.64,-12.64,-12.639,-12.64,-12.634,-12.641,-12.642,-12.644,-12.657,-12.65,-12.648,-12.657,-12.657,-12.659,-12.664,-12.663,-12.662,-12.663,-12.664,-12.662,-12.656,-12.686,-12.677,-12.672,-12.683,-12.672,-12.678,-12.688,-12.68,-12.687,-12.689,-12.692,-12.689,-12.699,-12.684,-12.684,-12.699,-12.708,-12.703,-12.7,-12.694,-12.705,-12.702,-12.704,-12.699,-12.698,-12.695,-12.699,-12.72,-12.711,-12.706,-12.702,-12.717,-12.712,-12.711,-12.719,-12.714,-12.717,-12.714,-12.712,-12.726,-12.731,-12.718,-12.716,-12.732,-12.739,-12.726,-12.737,-12.723,-12.723,-12.725,-12.707,-12.683,-12.706,-12.702,-12.685,-12.674,-12.651,-12.628,-12.645,-12.663,-12.673,-12.677,-12.686,-12.695,-12.708,-12.722,-12.753,-12.765,-12.772,-12.776,-12.794,-12.793,-12.789,-12.793,-12.781,-12.788,-12.795,-12.799,-12.79,-12.789,-12.78,-12.789,-12.823,-12.857,-12.876,-12.814,-12.654,-12.427,-12.199,-11.987,-11.993,-12.249,-12.347,-12.415,-12.664,-12.91,-12.925,-12.933,-12.888,-12.815,-12.768,-12.75,-12.749,-12.741,-12.742,-12.741,-12.744,-12.732,-12.738,-12.73,-12.722,-12.716,-12.722,-12.714,-12.703,-12.691,-12.695,-12.679,-12.682,-12.68,-12.671,-12.654,-12.652,-12.648,-12.641,-12.634,-12.618,-12.613,-12.592,-12.575,-12.582,-12.562,-12.556,-12.531,-12.509,-12.491,-12.482,-12.462,-12.449,-12.426,-12.408,-12.393,-12.381,-12.367,-12.356,-12.336,-12.34,-12.338,-12.327,-12.327,-12.339,-12.355,-12.366,-12.396,-12.428,-12.465,-12.491,-12.525,-12.582,-12.615,-12.63,-12.662,-12.69,-12.718,-12.733,-12.739,-12.759,-12.768,-12.772,-12.779,-12.782,-12.794,-12.789,-12.796,-12.804,-12.802,-12.797,-12.795,-12.799,-12.799,-12.799,-12.798,-12.791,-12.79,-12.785,-12.774,-12.775,-12.785,-12.778,-12.783,-12.77,-12.773,-12.772,-12.774,-12.763,-12.765,-12.752,-12.75,-12.749,-12.762,-12.758,-12.751,-12.75,-12.745,-12.743,-12.745,-12.74,-12.747,-12.747,-12.75,-12.746,-12.747,-12.746,-12.743,-12.75,-12.741,-12.743,-12.756,-12.744,-12.752,-12.751,-12.756,-12.756,-12.751,-12.75,-12.745,-12.751,-12.75,-12.747,-12.744,-12.738,-12.742,-12.758,-12.753,-12.748,-12.749,-12.753,-12.751,-12.741,-12.743,-12.752,-12.75,-12.756,-12.75,-12.751,-12.748,-12.741,-12.742,-12.746,-12.739,-12.739,-12.746,-12.737,-12.746,-12.747,-12.742,-12.742,-12.745,-12.743,-12.739,-12.744,-12.742,-12.738,-12.731,-12.728,-12.739,-12.739,-12.739,-12.743,-12.744,-12.733,-12.738,-12.732,-12.74,-12.74,-12.732,-12.739,-12.743,-12.729,-12.728,-12.742,-12.743,-12.736,-12.729,-12.726,-12.734,-12.742,-12.743,-12.737,-12.735,-12.731,-12.727,-12.733,-12.734,-12.728,-12.726,-12.719,-12.707,-12.706,-12.689,-12.695,-12.683,-12.664,-12.64,-12.614,-12.625,-12.646,-12.644,-12.659,-12.671,-12.675,-12.678,-12.681,-12.704,-12.728,-12.742,-12.739,-12.741,-12.751,-12.761,-12.749,-12.748,-12.755,-12.749,-12.75,-12.747,-12.749,-12.744,-12.752,-12.758,-12.771,-12.821,-12.841,-12.749,-12.56,-12.319,-12.096,-11.908,-12.02,-12.265,-12.369,-12.519,-12.819,-12.869,-12.882,-12.882,-12.781,-12.745,-12.696,-12.69,-12.687,-12.686,-12.682,-12.687,-12.675,-12.678,-12.665,-12.674,-12.664,-12.649,-12.641,-12.643,-12.635,-12.629,-12.616,-12.609,-12.607,-12.604,-12.587,-12.581,-12.584,-12.573,-12.553,-12.542,-12.539,-12.525,-12.51,-12.493,-12.478,-12.469,-12.454,-12.436,-12.417,-12.392,-12.383,-12.371,-12.344,-12.318,-12.314,-12.304,-12.286,-12.266,-12.257,-12.247,-12.247,-12.242,-12.236,-12.24,-12.25,-12.267,-12.288,-12.331,-12.351,-12.394,-12.433,-12.468,-12.493,-12.525,-12.556,-12.57,-12.6,-12.623,-12.644,-12.654,-12.67,-12.678,-12.691,-12.696,-12.695,-12.696,-12.705,-12.707,-12.702,-12.713,-12.709,-12.709,-12.715,-12.703,-12.701,-12.697,-12.693,-12.684,-12.702,-12.696,-12.686,-12.687,-12.677,-12.687,-12.693,-12.682,-12.682,-12.677,-12.676,-12.672,-12.672,-12.673,-12.666,-12.653,-12.657,-12.67,-12.662,-12.661,-12.664,-12.661,-12.659,-12.635,-12.658,-12.667,-12.659,-12.669,-12.667,-12.662,-12.661,-12.66,-12.649,-12.667,-12.669,-12.665,-12.662,-12.653,-12.665,-12.671,-12.665,-12.668,-12.66,-12.652,-12.653,-12.678,-12.672,-12.65,-12.659,-12.673,-12.671,-12.657,-12.666,-12.666,-12.657,-12.657,-12.657,-12.656,-12.656,-12.655,-12.657,-12.664,-12.663,-12.664,-12.651,-12.656,-12.655,-12.652,-12.653,-12.654,-12.654,-12.66,-12.651,-12.653,-12.659,-12.66,-12.656,-12.652,-12.645,-12.643,-12.643,-12.651,-12.66,-12.648,-12.65,-12.652,-12.651,-12.644,-12.644,-12.661,-12.656,-12.656,-12.659,-12.66,-12.654,-12.654,-12.649,-12.649,-12.657,-12.661,-12.665,-12.661,-12.657,-12.669,-12.664,-12.662,-12.665,-12.675,-12.671,-12.668,-12.657,-12.664,-12.653,-12.638,-12.644,-12.642,-12.641,-12.626,-12.625,-12.596,-12.581,-12.603,-12.605,-12.615,-12.628,-12.645,-12.651,-12.658,-12.665,-12.697,-12.73,-12.726,-12.729,-12.722,-12.721,-12.714,-12.717,-12.711,-12.726,-12.731,-12.722,-12.723,-12.728,-12.729,-12.727,-12.751,-12.79,-12.81,-12.724,-12.535,-12.291,-12.062,-11.904,-12.046,-12.28,-12.335,-12.457,-12.716,-12.834,-12.825,-12.873,-12.829,-12.756,-12.709,-12.691,-12.686,-12.677,-12.675,-12.691,-12.675,-12.67,-12.665,-12.664,-12.66,-12.653,-12.647,-12.647,-12.651,-12.637,-12.635,-12.63,-12.628,-12.614,-12.607,-12.597,-12.588,-12.585,-12.574,-12.58,-12.558,-12.542,-12.527,-12.514,-12.503,-12.489,-12.478,-12.473,-12.447,-12.429,-12.406,-12.383,-12.368,-12.358,-12.321,-12.31,-12.303,-12.286,-12.279,-12.267,-12.264,-12.258,-12.256,-12.248,-12.272,-12.292,-12.311,-12.329,-12.354,-12.391,-12.427,-12.462,-12.491,-12.525,-12.572,-12.592,-12.614,-12.64,-12.661,-12.672,-12.689,-12.696,-12.689,-12.716,-12.72,-12.725,-12.732,-12.725,-12.728,-12.731,-12.729,-12.737,-12.734,-12.732,-12.737,-12.726,-12.729,-12.718,-12.724,-12.722,-12.724,-12.718,-12.714,-12.711,-12.713,-12.703,-12.705,-12.706,-12.7,-12.698,-12.696,-12.7,-12.695,-12.692,-12.688,-12.686,-12.679,-12.684,-12.682,-12.685,-12.688,-12.687,-12.694,-12.692,-12.681,-12.688,-12.691,-12.687,-12.684,-12.686,-12.687,-12.691,-12.69,-12.687,-12.686,-12.684,-12.685,-12.688,-12.689,-12.688,-12.688,-12.691,-12.684,-12.69,-12.684,-12.686,-12.691,-12.692,-12.689,-12.689,-12.691,-12.685,-12.692,-12.689,-12.689,-12.682,-12.687,-12.689,-12.684,-12.682,-12.684,-12.677,-12.673,-12.68,-12.677,-12.676,-12.681,-12.679,-12.672,-12.668,-12.665,-12.669,-12.671,-12.669,-12.663,-12.648,-12.656,-12.67,-12.667,-12.664,-12.662,-12.66,-12.649,-12.648,-12.645,-12.641,-12.637,-12.615,-12.612,-12.619,-12.601,-12.592,-12.557,-12.546,-12.569,-12.565,-12.563,-12.57,-12.585,-12.582,-12.6,-12.618,-12.657,-12.663,-12.655,-12.656,-12.676,-12.675,-12.671,-12.672,-12.674,-12.663,-12.664,-12.672,-12.677,-12.677,-12.675,-12.663,-12.682,-12.735,-12.757,-12.732,-12.598,-12.477,-12.227,-11.993,-11.871,-11.97,-12.203,-12.378,-12.551,-12.722,-12.701,-12.732,-12.804,-12.743,-12.707,-12.654,-12.641,-12.625,-12.631,-12.623,-12.625,-12.616,-12.623,-12.61,-12.616,-12.612,-12.609,-12.59,-12.594,-12.575,-12.579,-12.582,-12.577,-12.573,-12.564,-12.552,-12.549,-12.539,-12.528,-12.52,-12.518,-12.501,-12.494,-12.479,-12.467,-12.45,-12.441,-12.428,-12.412,-12.394,-12.373,-12.356,-12.338,-12.317,-12.299,-12.288,-12.27,-12.265,-12.244,-12.239,-12.237,-12.229,-12.224,-12.232,-12.236,-12.248,-12.26,-12.292,-12.319,-12.364,-12.393,-12.431,-12.466,-12.5,-12.534,-12.57,-12.59,-12.614,-12.633,-12.654,-12.66,-12.674,-12.686,-12.69,-12.698,-12.706,-12.708,-12.706,-12.717,-12.727,-12.723,-12.733,-12.73,-12.729,-12.734,-12.729,-12.729,-12.727,-12.733,-12.732,-12.73,-12.727,-12.727,-12.725,-12.726,-12.728,-12.725,-12.72,-12.718,-12.72,-12.715,-12.723,-12.721,-12.719,-12.717,-12.716,-12.708,-12.705,-12.719,-12.721,-12.718,-12.723,-12.72,-12.713,-12.728,-12.744,-12.741,-12.742,-12.743,-12.745,-12.743,-12.752,-12.749,-12.757,-12.759,-12.761,-12.762,-12.765,-12.768,-12.776,-12.772,-12.773,-12.781,-12.781,-12.785,-12.789,-12.788,-12.792,-12.781,-12.788,-12.8,-12.8,-12.794,-12.788,-12.796,-12.815,-12.808,-12.808,-12.804,-12.805,-12.807,-12.809,-12.81,-12.811,-12.815,-12.822,-12.818,-12.808,-12.813,-12.835,-12.831,-12.832,-12.833,-12.831,-12.842,-12.84,-12.841,-12.831,-12.843,-12.839,-12.841,-12.841,-12.849,-12.845,-12.843,-12.848,-12.851,-12.832,-12.827,-12.81,-12.82,-12.817,-12.81,-12.799,-12.788,-12.789,-12.77,-12.745,-12.757,-12.769,-12.783,-12.784,-12.791,-12.806,-12.811,-12.814,-12.841,-12.871,-12.885,-12.889,-12.889,-12.884,-12.878,-12.896,-12.907,-12.883,-12.888,-12.904,-12.904,-12.898,-12.89,-12.883,-12.903,-12.945,-12.978,-12.931,-12.808,-12.581,-12.362,-12.141,-12.06,-12.313,-12.419,-12.526,-12.853,-13.028,-13.028,-13.042,-13.02,-12.927,-12.876,-12.846,-12.823,-12.821,-12.848,-12.848,-12.843,-12.838,-12.844,-12.833,-12.823,-12.817,-12.818,-12.812,-12.802,-12.805,-12.797,-12.787,-12.786,-12.78,-12.77,-12.764,-12.755,-12.748,-12.742,-12.739,-12.733,-12.72,-12.709,-12.695,-12.679,-12.664,-12.646,-12.636,-12.615,-12.59,-12.574,-12.54,-12.521,-12.529,-12.502,-12.488,-12.464,-12.449,-12.442,-12.426,-12.416,-12.414,-12.41,-12.414,-12.42,-12.433,-12.454,-12.481,-12.519,-12.547,-12.58,-12.604,-12.641,-12.672,-12.698,-12.732,-12.756,-12.774,-12.796,-12.818,-12.823,-12.845,-12.847,-12.857,-12.856,-12.873,-12.872,-12.88,-12.881,-12.883,-12.884,-12.882,-12.888,-12.891,-12.889,-12.888,-12.89,-12.888,-12.882,-12.884,-12.878,-12.879,-12.877,-12.872,-12.874,-12.865,-12.869,-12.869,-12.864,-12.865,-12.864,-12.863,-12.86,-12.864,-12.865,-12.861,-12.863,-12.862,-12.859,-12.861,-12.862,-12.867,-12.871,-12.873,-12.872,-12.871,-12.877,-12.877,-12.876,-12.88,-12.876,-12.877,-12.882,-12.885,-12.882,-12.89,-12.892,-12.894,-12.895,-12.896,-12.898,-12.898,-12.903,-12.906,-12.905,-12.905,-12.909,-12.909,-12.911,-12.912,-12.912,-12.918,-12.916,-12.914,-12.915,-12.918,-12.917,-12.917,-12.922,-12.918,-12.918,-12.92,-12.92,-12.919,-12.92,-12.916,-12.917,-12.92,-12.929,-12.926,-12.924,-12.924,-12.92,-12.923,-12.924,-12.925,-12.931,-12.928,-12.93,-12.928,-12.929,-12.921,-12.928,-12.929,-12.931,-12.935,-12.934,-12.934,-12.938,-12.939,-12.938,-12.933,-12.933,-12.925,-12.919,-12.909,-12.895,-12.899,-12.9,-12.879,-12.872,-12.837,-12.831,-12.855,-12.86,-12.863,-12.871,-12.888,-12.889,-12.896,-12.897,-12.915,-12.955,-12.965,-12.969,-12.968,-12.966,-12.968,-12.969,-12.969,-12.968,-12.968,-12.969,-12.975,-12.969,-12.966,-12.975,-12.993,-13.032,-13.049,-13.018,-12.89,-12.664,-12.453,-12.22,-12.134,-12.394,-12.517,-12.62,-12.921,-13.107,-13.117,-13.12,-13.052,-12.983,-12.943,-12.919,-12.922,-12.912,-12.919,-12.91,-12.913,-12.897,-12.899,-12.89,-12.887,-12.874,-12.874,-12.857,-12.865,-12.847,-12.841,-12.831,-12.822,-12.809,-12.807,-12.796,-12.792,-12.78,-12.77,-12.758,-12.749,-12.732,-12.726,-12.702,-12.692,-12.68,-12.663,-12.647,-12.624,-12.603,-12.586,-12.569,-12.544,-12.529,-12.509,-12.49,-12.473,-12.466,-12.461,-12.449,-12.438,-12.436,-12.435,-12.435,-12.44,-12.453,-12.473,-12.505,-12.532,-12.569,-12.608,-12.641,-12.679,-12.715,-12.739,-12.768,-12.792,-12.806,-12.825,-12.845,-12.855,-12.869,-12.878,-12.883,-12.89,-12.89,-12.9,-12.902,-12.905,-12.902,-12.903,-12.912,-12.912,-12.91,-12.904,-12.904,-12.902,-12.901,-12.897,-12.895,-12.893,-12.892,-12.883,-12.883,-12.881,-12.879,-12.868,-12.873,-12.863,-12.865,-12.862,-12.864,-12.86,-12.86,-12.857,-12.856,-12.853,-12.852,-12.857,-12.857,-12.851,-12.858,-12.854,-12.855,-12.853,-12.854,-12.855,-12.856,-12.862,-12.858,-12.853,-12.855,-12.857,-12.853,-12.853,-12.86,-12.859,-12.86,-12.858,-12.855,-12.856,-12.859,-12.855,-12.862,-12.864,-12.86,-12.857,-12.857,-12.861,-12.857,-12.858,-12.855,-12.855,-12.855,-12.855,-12.857,-12.857,-12.86,-12.855,-12.858,-12.863,-12.861,-12.861,-12.863,-12.867,-12.865,-12.871,-12.864,-12.866,-12.871,-12.869,-12.867,-12.867,-12.87,-12.878,-12.871,-12.873,-12.875,-12.876,-12.877,-12.875,-12.871,-12.871,-12.873,-12.872,-12.866,-12.867,-12.862,-12.863,-12.863,-12.864,-12.865,-12.864,-12.864,-12.864,-12.863,-12.861,-12.856,-12.857,-12.862,-12.851,-12.85,-12.844,-12.831,-12.82,-12.814,-12.809,-12.793,-12.77,-12.746,-12.755,-12.771,-12.773,-12.783,-12.794,-12.8,-12.8,-12.806,-12.827,-12.852,-12.872,-12.876,-12.878,-12.881,-12.882,-12.88,-12.878,-12.878,-12.881,-12.877,-12.884,-12.881,-12.889,-12.886,-12.897,-12.909,-12.938,-12.968,-12.904,-12.738,-12.491,-12.278,-12.078,-12.129,-12.402,-12.531,-12.662,-12.948,-13.002,-12.999,-13.03,-12.941,-12.894,-12.844,-12.834,-12.825,-12.822,-12.818,-12.818,-12.813,-12.815,-12.809,-12.802,-12.798,-12.793,-12.785,-12.775,-12.775,-12.769,-12.761,-12.754,-12.746,-12.736,-12.728,-12.722,-12.715,-12.714,-12.699,-12.687,-12.679,-12.666,-12.652,-12.645,-12.627,-12.609,-12.593,-12.578,-12.557,-12.54,-12.52,-12.501,-12.483,-12.465,-12.446,-12.433,-12.428,-12.421,-12.401,-12.395,-12.398,-12.389,-12.387,-12.384,-12.402,-12.413,-12.444,-12.464,-12.497,-12.537,-12.566,-12.602,-12.637,-12.667,-12.692,-12.703,-12.734,-12.757,-12.776,-12.79,-12.802,-12.812,-12.819,-12.823,-12.83,-12.834,-12.836,-12.837,-12.843,-12.848,-12.843,-12.844,-12.838,-12.83,-12.83,-12.834,-12.833,-12.83,-12.828,-12.822,-12.82,-12.82,-12.812,-12.818,-12.816,-12.804,-12.798,-12.804,-12.802,-12.787,-12.788,-12.785,-12.787,-12.779,-12.781,-12.783,-12.779,-12.781,-12.771,-12.782,-12.779,-12.774,-12.784,-12.774,-12.779,-12.785,-12.776,-12.777,-12.782,-12.779,-12.782,-12.783,-12.782,-12.782,-12.783,-12.788,-12.782,-12.783,-12.783,-12.784,-12.781,-12.787,-12.788,-12.79,-12.791,-12.788,-12.792,-12.793,-12.788,-12.784,-12.789,-12.785,-12.786,-12.785,-12.788,-12.783,-12.788,-12.779,-12.779,-12.781,-12.779,-12.783,-12.78,-12.779,-12.777,-12.779,-12.778,-12.778,-12.777,-12.778,-12.776,-12.776,-12.774,-12.769,-12.77,-12.764,-12.767,-12.765,-12.753,-12.744,-12.732,-12.719,-12.725,-12.72,-12.7,-12.69,-12.664,-12.66,-12.676,-12.677,-12.682,-12.696,-12.702,-12.712,-12.717,-12.736,-12.767,-12.777,-12.786,-12.789,-12.789,-12.79,-12.792,-12.792,-12.789,-12.792,-12.797,-12.791,-12.799,-12.801,-12.797,-12.805,-12.822,-12.863,-12.876,-12.864,-12.743,-12.508,-12.267,-12.034,-11.963,-12.202,-12.307,-12.477,-12.653,-12.854,-12.837,-12.891,-12.923,-12.833,-12.817,-12.753,-12.758,-12.739,-12.758,-12.742,-12.749,-12.733,-12.754,-12.733,-12.742,-12.73,-12.734,-12.715,-12.716,-12.701,-12.707,-12.689,-12.69,-12.674,-12.678,-12.669,-12.664,-12.65,-12.649,-12.639,-12.634,-12.618,-12.609,-12.591,-12.582,-12.564,-12.552,-12.538,-12.514,-12.501,-12.486,-12.468,-12.45,-12.426,-12.416,-12.401,-12.383,-12.375,-12.373,-12.368,-12.36,-12.358,-12.362,-12.362,-12.374,-12.389,-12.412,-12.437,-12.477,-12.521,-12.554,-12.596,-12.627,-12.664,-12.695,-12.72,-12.747,-12.762,-12.775,-12.789,-12.798,-12.822,-12.823,-12.83,-12.835,-12.845,-12.849,-12.85,-12.85,-12.855,-12.861,-12.865,-12.859,-12.863,-12.858,-12.856,-12.854,-12.855,-12.847,-12.858,-12.853,-12.85,-12.846,-12.845,-12.842,-12.838,-12.833,-12.838,-12.827,-12.832,-12.824,-12.826,-12.826,-12.826,-12.822,-12.827,-12.827,-12.827,-12.823,-12.828,-12.833,-12.835,-12.836,-12.84,-12.836,-12.842,-12.843,-12.846,-12.848,-12.853,-12.852,-12.848,-12.856,-12.859,-12.852,-12.86,-12.862,-12.866,-12.867,-12.867,-12.868,-12.87,-12.87,-12.873,-12.874,-12.876,-12.878,-12.876,-12.883,-12.887,-12.883,-12.89,-12.885,-12.887,-12.887,-12.888,-12.882,-12.89,-12.89,-12.893,-12.894,-12.889,-12.89,-12.891,-12.894,-12.89,-12.888,-12.887,-12.891,-12.895,-12.898,-12.896,-12.9,-12.899,-12.896,-12.902,-12.906,-12.905,-12.905,-12.905,-12.911,-12.908,-12.908,-12.91,-12.907,-12.907,-12.912,-12.909,-12.907,-12.902,-12.896,-12.882,-12.873,-12.875,-12.879,-12.872,-12.859,-12.846,-12.82,-12.816,-12.84,-12.837,-12.854,-12.86,-12.875,-12.873,-12.885,-12.906,-12.939,-12.947,-12.952,-12.958,-12.959,-12.959,-12.958,-12.963,-12.969,-12.964,-12.966,-12.97,-12.968,-12.971,-12.973,-12.977,-13.006,-13.043,-13.044,-12.945,-12.748,-12.518,-12.29,-12.133,-12.301,-12.465,-12.573,-12.648,-12.978,-13.13,-13.115,-13.124,-13.024,-12.988,-12.934,-12.936,-12.927,-12.938,-12.924,-12.931,-12.92,-12.927,-12.914,-12.92,-12.906,-12.907,-12.894,-12.899,-12.886,-12.88,-12.875,-12.874,-12.861,-12.864,-12.848,-12.837,-12.825,-12.826,-12.816,-12.808,-12.795,-12.78,-12.77,-12.763,-12.742,-12.727,-12.713,-12.703,-12.678,-12.661,-12.645,-12.626,-12.607,-12.589,-12.57,-12.552,-12.542,-12.533,-12.517,-12.512,-12.505,-12.503,-12.507,-12.51,-12.529,-12.547,-12.565,-12.587,-12.624,-12.655,-12.695,-12.729,-12.77,-12.796,-12.829,-12.854,-12.879,-12.897,-12.923,-12.936,-12.946,-12.955,-12.963,-12.968,-12.975,-12.971,-12.977,-12.981,-12.984,-12.983,-12.985,-12.98,-12.983,-12.979,-12.982,-12.974,-12.973,-12.971,-12.975,-12.974,-12.973,-12.968,-12.968,-12.964,-12.966,-12.961,-12.96,-12.956,-12.956,-12.952,-12.953,-12.951,-12.952,-12.945,-12.952,-12.952,-12.95,-12.947,-12.951,-12.952,-12.944,-12.944,-12.948,-12.959,-12.955,-12.96,-12.959,-12.959,-12.958,-12.957,-12.962,-12.967,-12.971,-12.963,-12.965,-12.968,-12.968,-12.972,-12.969,-12.972,-12.973,-12.968,-12.972,-12.975,-12.97,-12.973,-12.975,-12.979,-12.974,-12.98,-12.974,-12.98,-12.984,-12.98,-12.98,-12.982,-12.981,-12.983,-12.983,-12.991,-12.989,-12.989,-12.988,-12.99,-12.985,-12.985,-12.992,-12.989,-12.992,-12.987,-12.988,-12.991,-12.993,-12.998,-12.997,-12.993,-12.99,-12.991,-12.991,-12.997,-13.001,-13.001,-12.994,-12.995,-12.994,-12.997,-13.001,-13.001,-13,-12.999,-13,-13.002,-13.003,-13,-12.997,-13.003,-13.006,-13.006,-13.007,-13.003,-13.001,-13.002,-12.986,-12.98,-12.97,-12.971,-12.969,-12.954,-12.939,-12.913,-12.902,-12.923,-12.925,-12.935,-12.936,-12.959,-12.958,-12.965,-12.99,-13.019,-13.032,-13.033,-13.041,-13.039,-13.042,-13.043,-13.042,-13.04,-13.04,-13.041,-13.042,-13.036,-13.039,-13.042,-13.047,-13.059,-13.096,-13.122,-13.073,-12.915,-12.672,-12.452,-12.242,-12.228,-12.404,-12.57,-12.683,-12.895,-13.15,-13.176,-13.203,-13.153,-13.077,-13.031,-13.001,-12.999,-12.995,-12.998,-12.993,-12.987,-12.988,-12.989,-12.978,-12.969,-12.967,-12.958,-12.954,-12.951,-12.941,-12.933,-12.925,-12.921,-12.915,-12.907,-12.895,-12.886,-12.881,-12.872,-12.862,-12.85,-12.838,-12.83,-12.816,-12.809,-12.794,-12.778,-12.761,-12.746,-12.727,-12.706,-12.69,-12.67,-12.65,-12.636,-12.619,-12.604,-12.591,-12.576,-12.574,-12.563,-12.554,-12.556,-12.561,-12.564,-12.575,-12.594,-12.613,-12.647,-12.688,-12.722,-12.758,-12.794,-12.83,-12.863,-12.888,-12.909,-12.934,-12.956,-12.971,-12.985,-12.988,-12.998,-13.01,-13.012,-13.019,-13.021,-13.019,-13.022,-13.03,-13.028,-13.028,-13.029,-13.027,-13.028,-13.03,-13.022,-13.021,-13.015,-13.018,-13.018,-13.015,-13.01,-13.012,-13.014,-13.008,-13.002,-13,-12.998,-12.996,-12.993,-12.991,-12.99,-12.985,-12.985,-12.984,-12.981,-12.982,-12.98,-12.984,-12.988,-12.985,-12.987,-12.985,-12.986,-12.984,-12.988,-12.988,-12.99,-12.991,-12.99,-12.991,-12.989,-12.987,-12.992,-12.994,-12.993,-12.993,-12.996,-12.993,-12.996,-12.999,-12.998,-12.999,-12.996,-12.994,-12.997,-13.003,-12.999,-12.997,-12.997,-13.001,-13.007,-13.006,-13.004,-13.002,-13.006,-13.002,-13.002,-13.004,-12.997,-13.001,-13.003,-13.002,-12.995,-12.996,-12.996,-12.997,-13,-13.002,-12.995,-12.996,-12.993,-12.992,-12.991,-12.99,-12.99,-12.991,-12.986,-12.985,-12.983,-12.979,-12.98,-12.978,-12.977,-12.979,-12.976,-12.973,-12.981,-12.976,-12.977,-12.973,-12.972,-12.972,-12.975,-12.973,-12.97,-12.967,-12.972,-12.971,-12.969,-12.965,-12.966,-12.969,-12.967,-12.967,-12.964,-12.962,-12.957,-12.953,-12.943,-12.928,-12.922,-12.924,-12.903,-12.894,-12.87,-12.844,-12.867,-12.873,-12.878,-12.9,-12.908,-12.917,-12.92,-12.928,-12.958,-12.981,-12.994,-12.989,-12.994,-12.993,-12.996,-12.998,-13.002,-12.999,-13.002,-13.002,-13.007,-13.011,-13.011,-13.012,-13.013,-13.045,-13.082,-13.081,-12.981,-12.781,-12.549,-12.326,-12.174,-12.364,-12.557,-12.667,-12.862,-13.104,-13.129,-13.147,-13.123,-13.027,-12.992,-12.948,-12.957,-12.941,-12.946,-12.937,-12.943,-12.93,-12.94,-12.931,-12.929,-12.91,-12.907,-12.905,-12.906,-12.891,-12.89,-12.878,-12.876,-12.868,-12.865,-12.854,-12.849,-12.846,-12.842,-12.828,-12.817,-12.805,-12.796,-12.781,-12.775,-12.755,-12.738,-12.721,-12.707,-12.685,-12.671,-12.65,-12.635,-12.61,-12.599,-12.589,-12.575,-12.559,-12.557,-12.541,-12.532,-12.522,-12.523,-12.524,-12.525,-12.536,-12.554,-12.587,-12.62,-12.654,-12.682,-12.72,-12.753,-12.786,-12.821,-12.838,-12.866,-12.896,-12.909,-12.931,-12.947,-12.963,-12.972,-12.983,-12.977,-12.986,-12.992,-13.003,-13.003,-13.008,-13.003,-13.009,-13.003,-13.009,-13.009,-13.008,-12.997,-12.998,-12.995,-12.994,-12.992,-12.998,-12.99,-12.999,-12.992,-12.992,-12.989,-12.987,-12.99,-12.993,-12.985,-12.982,-12.978,-12.977,-12.977,-12.973,-12.976,-12.974,-12.97,-12.978,-12.976,-12.975,-12.976,-12.979,-12.974,-12.971,-12.978,-12.984,-12.979,-12.985,-12.985,-12.985,-12.985,-12.982,-12.982,-12.992,-12.987,-12.988,-12.985,-12.991,-13,-13.002,-12.996,-12.994,-12.995,-12.995,-12.992,-12.994,-12.995,-13,-13.001,-12.995,-12.997,-12.996,-12.993,-12.997,-13.001,-13,-13,-12.995,-12.996,-12.998,-12.994,-12.997,-12.99,-12.985,-12.991,-12.991,-12.996,-12.997,-12.992,-12.991,-12.994
