-3.1603,-3.1649,-3.1632,-3.1434,-3.1167,-3.1094,-3.1094,-3.1053,-3.0854,-3.0601,-3.0524,-3.0484,-3.0448,-3.038,-3.0225,-2.9871,-2.9756,-2.9672,-2.9476,-2.9188,-2.8848,-2.8754,-2.8555,-2.8445,-2.8164,-2.8007,-2.793,-2.7881,-2.7808,-2.7657,-2.7688,-2.7647,-2.767,-2.7685,-2.7967,-2.8278,-2.867,-2.9298,-2.9879,-3.0192,-3.065,-3.1153,-3.1652,-3.1981,-3.2228,-3.2335,-3.2469,-3.2666,-3.2879,-3.2943,-3.3002,-3.296,-3.3009,-3.3165,-3.3272,-3.3118,-3.3205,-3.3351,-3.333,-3.3387,-3.3353,-3.3274,-3.33,-3.3268,-3.3234,-3.3208,-3.3214,-3.3227,-3.3205,-3.3136,-3.3095,-3.3032,-3.3192,-3.3144,-3.3104,-3.3059,-3.3104,-3.3016,-3.3022,-3.3116,-3.3115,-3.3035,-3.3025,-3.3,-3.3087,-3.3093,-3.31,-3.3098,-3.3197,-3.3245,-3.3168,-3.3169,-3.3065,-3.3293,-3.3327,-3.3399,-3.3301,-3.3288,-3.3384,-3.3369,-3.3383,-3.334,-3.3353,-3.3437,-3.3396,-3.339,-3.3339,-3.3284,-3.3296,-3.3354,-3.3459,-3.3416,-3.3269,-3.3315,-3.3425,-3.3431,-3.349,-3.3347,-3.3411,-3.346,-3.3462,-3.3382,-3.3314,-3.3464,-3.3507,-3.3397,-3.3421,-3.3467,-3.3483,-3.3536,-3.3504,-3.3511,-3.3453,-3.3424,-3.3463,-3.3528,-3.3551,-3.3495,-3.3331,-3.3436,-3.346,-3.3521,-3.3451,-3.3416,-3.3421,-3.3535,-3.3518,-3.344,-3.3349,-3.3431,-3.3494,-3.3502,-3.3495,-3.3365,-3.3445,-3.3509,-3.3531,-3.3426,-3.3356,-3.3356,-3.3468,-3.3559,-3.3411,-3.3374,-3.3412,-3.3495,-3.3551,-3.3521,-3.3388,-3.3392,-3.3397,-3.3539,-3.3371,-3.3267,-3.3309,-3.3179,-3.3217,-3.324,-3.3073,-3.281,-3.2751,-3.2814,-3.2863,-3.2772,-3.2713,-3.271,-3.2836,-3.3037,-3.3011,-3.298,-3.3048,-3.337,-3.3535,-3.3607,-3.3694,-3.3589,-3.363,-3.3743,-3.3627,-3.3662,-3.3491,-3.3673,-3.3691,-3.3555,-3.3645,-3.3558,-3.3511,-3.2652,-3.1264,-3.0375,-2.893,-2.6754,-2.4243,-2.2692,-2.5281,-3.0094,-3.5801,-3.6504,-3.5418,-3.494,-3.3543,-3.2893,-3.2589,-3.2435,-3.2505,-3.2635,-3.2634,-3.2604,-3.2452,-3.2547,-3.2431,-3.2455,-3.2472,-3.254,-3.2289,-3.2368,-3.2221,-3.2254,-3.2169,-3.21,-3.1933,-3.196,-3.1913,-3.1969,-3.1695,-3.1549,-3.1524,-3.159,-3.15,-3.15,-3.1345,-3.1174,-3.1189,-3.1206,-3.0958,-3.074,-3.0551,-3.05,-3.046,-3.0267,-3.0054,-2.9763,-2.9619,-2.943,-2.9336,-2.9002,-2.8856,-2.8604,-2.8449,-2.8433,-2.8259,-2.797,-2.7826,-2.7854,-2.7657,-2.7658,-2.7637,-2.7423,-2.7441,-2.7643,-2.7834,-2.7955,-2.8392,-2.8952,-2.9457,-2.9814,-3.0334,-3.0735,-3.1052,-3.1433,-3.1828,-3.1958,-3.2214,-3.2447,-3.2649,-3.2796,-3.2839,-3.2751,-3.2911,-3.3126,-3.3165,-3.2975,-3.3027,-3.3089,-3.3184,-3.3083,-3.3059,-3.3136,-3.3114,-3.3237,-3.3152,-3.3137,-3.3059,-3.3056,-3.3054,-3.3091,-3.2946,-3.2873,-3.2926,-3.3009,-3.2989,-3.2889,-3.2929,-3.2891,-3.2865,-3.29,-3.2881,-3.2807,-3.2831,-3.286,-3.2953,-3.2877,-3.2846,-3.2865,-3.2901,-3.2993,-3.3038,-3.2952,-3.2989,-3.2922,-3.3101,-3.3085,-3.2999,-3.3104,-3.3235,-3.3174,-3.3201,-3.3019,-3.3102,-3.3161,-3.3162,-3.3167,-3.315,-3.3287,-3.3186,-3.3297,-3.3274,-3.3196,-3.3216,-3.3181,-3.3188,-3.3339,-3.3337,-3.3266,-3.3231,-3.3272,-3.3275,-3.3339,-3.3364,-3.323,-3.3333,-3.3338,-3.3344,-3.3301,-3.3282,-3.3393,-3.341,-3.3284,-3.3198,-3.3267,-3.33,-3.3461,-3.3447,-3.3341,-3.3345,-3.331,-3.3428,-3.3466,-3.3256,-3.3315,-3.3398,-3.351,-3.3444,-3.3333,-3.3345,-3.3388,-3.3443,-3.3544,-3.346,-3.3464,-3.3446,-3.3512,-3.3452,-3.3322,-3.333,-3.3468,-3.3512,-3.3541,-3.3453,-3.3424,-3.3442,-3.3604,-3.3404,-3.3465,-3.3334,-3.3533,-3.3448,-3.343,-3.3546,-3.3395,-3.3359,-3.3369,-3.34,-3.3309,-3.3258,-3.308,-3.2806,-3.2688,-3.2899,-3.2936,-3.2864,-3.2829,-3.2815,-3.2842,-3.2827,-3.2818,-3.3003,-3.3264,-3.3636,-3.3468,-3.3537,-3.3532,-3.3598,-3.3608,-3.3529,-3.3534,-3.3643,-3.3675,-3.3813,-3.3602,-3.353,-3.3726,-3.3728,-3.3666,-3.2921,-3.1492,-3.0066,-2.8475,-2.6475,-2.4308,-2.4027,-2.7141,-3.2759,-3.7471,-3.6822,-3.5397,-3.5047,-3.4213,-3.3286,-3.2727,-3.2789,-3.2763,-3.2731,-3.2881,-3.2724,-3.2691,-3.2577,-3.2579,-3.2721,-3.2598,-3.2501,-3.2436,-3.2441,-3.2513,-3.2476,-3.2259,-3.23,-3.2261,-3.2255,-3.2101,-3.2071,-3.1914,-3.1987,-3.1928,-3.1849,-3.1745,-3.1753,-3.1514,-3.1517,-3.141,-3.1379,-3.105,-3.0982,-3.0883,-3.0739,-3.0663,-3.057,-3.0471,-3.0227,-3.0187,-3.0058,-2.975,-2.9407,-2.93,-2.9217,-2.8999,-2.8851,-2.8749,-2.8559,-2.8403,-2.8247,-2.8246,-2.8057,-2.797,-2.8036,-2.8094,-2.8003,-2.8089,-2.8287,-2.8859,-2.9319,-2.9774,-3.0322,-3.0723,-3.1201,-3.1682,-3.2088,-3.2328,-3.2626,-3.2922,-3.3016,-3.3219,-3.3229,-3.3291,-3.3487,-3.3521,-3.3595,-3.3655,-3.3633,-3.3636,-3.3742,-3.3642,-3.3662,-3.3694,-3.3671,-3.3871,-3.363,-3.3627,-3.3502,-3.3633,-3.3577,-3.3427,-3.3404,-3.3506,-3.3581,-3.3479,-3.3414,-3.3385,-3.3337,-3.3333,-3.3422,-3.3375,-3.323,-3.3327,-3.3412,-3.3471,-3.3316,-3.341,-3.3478,-3.3434,-3.365,-3.3505,-3.3459,-3.3424,-3.3381,-3.3448,-3.3579,-3.3583,-3.3563,-3.3617,-3.3543,-3.3722,-3.377,-3.3632,-3.3555,-3.3636,-3.3812,-3.3733,-3.3799,-3.3812,-3.377,-3.383,-3.3727,-3.3712,-3.3727,-3.3731,-3.3789,-3.3758,-3.3763,-3.3646,-3.3857,-3.3884,-3.3824,-3.3851,-3.3832,-3.3753,-3.396,-3.3908,-3.3896,-3.3809,-3.3823,-3.3938,-3.3966,-3.383,-3.3724,-3.3706,-3.3938,-3.3945,-3.3969,-3.3893,-3.3713,-3.3816,-3.3903,-3.3864,-3.3852,-3.3845,-3.3859,-3.3842,-3.3785,-3.3833,-3.3773,-3.3961,-3.4,-3.3964,-3.3892,-3.3853,-3.3888,-3.4025,-3.3901,-3.3904,-3.3759,-3.3845,-3.3844,-3.3799,-3.3673,-3.356,-3.35,-3.3554,-3.36,-3.3082,-3.3175,-3.3169,-3.3322,-3.3322,-3.3151,-3.3156,-3.3158,-3.3283,-3.3376,-3.3523,-3.3751,-3.3982,-3.3895,-3.3876,-3.3934,-3.3909,-3.398,-3.4112,-3.4115,-3.4101,-3.4101,-3.3931,-3.4004,-3.4133,-3.4143,-3.4038,-3.394,-3.3487,-3.2171,-3.0806,-2.935,-2.7253,-2.522,-2.5001,-2.7406,-3.2628,-3.7824,-3.7311,-3.5773,-3.5315,-3.4212,-3.3472,-3.3023,-3.3172,-3.313,-3.3279,-3.3006,-3.2968,-3.2914,-3.3059,-3.2829,-3.287,-3.285,-3.3007,-3.2917,-3.2807,-3.2719,-3.2696,-3.2635,-3.2598,-3.2522,-3.2424,-3.2386,-3.2366,-3.2373,-3.2302,-3.2198,-3.2121,-3.1924,-3.193,-3.186,-3.1574,-3.1583,-3.1426,-3.1378,-3.1283,-3.1098,-3.0856,-3.0796,-3.0621,-3.0549,-3.0338,-3.017,-3.0026,-2.9972,-2.981,-2.9471,-2.9271,-2.8994,-2.884,-2.8704,-2.86,-2.8326,-2.8361,-2.8169,-2.804,-2.8059,-2.7908,-2.8083,-2.8158,-2.8396,-2.8685,-2.8884,-2.9332,-3.0044,-3.0545,-3.1067,-3.1356,-3.1813,-3.1905,-3.245,-3.2632,-3.2915,-3.3651,-3.3889,-3.3571,-3.3233,-3.337,-3.3859,-3.3522,-3.3434,-3.37,-3.3526,-3.3585,-3.3571,-3.3615,-3.3593,-3.3785,-3.3265,-3.3669,-3.3765,-3.3905,-3.4572,-3.4197,-3.3864,-3.394,-3.3505,-3.4043,-3.396,-3.3638,-3.415,-3.3604,-3.341,-3.3241,-3.3593,-3.3709,-3.3435,-3.3229,-3.3259,-3.318,-3.3261,-3.3623,-3.3576,-3.307,-3.3199,-3.3271,-3.3432,-3.3356,-3.3409,-3.3318,-3.3115,-3.3128,-3.3317,-3.3266,-3.3278,-3.314,-3.3134,-3.319,-3.2862,-3.3201,-3.3526,-3.3732,-3.3609,-3.2675,-3.2775,-3.2822,-3.3031,-3.3225,-3.3198,-3.3011,-3.2967,-3.3101,-3.3079,-3.3158,-3.3101,-3.3102,-3.3285,-3.4008,-3.359,-3.3321,-3.3037,-3.2972,-3.2937,-3.2889,-3.2964,-3.2838,-3.2893,-3.2927,-3.3016,-3.2921,-3.2845,-3.2974,-3.2964,-3.292,-3.3381,-3.3631,-3.3305,-3.2812,-3.3141,-3.3058,-3.2706,-3.2756,-3.2664,-3.2753,-3.2602,-3.2688,-3.2642,-3.2678,-3.2747,-3.275,-3.2677,-3.2798,-3.2731,-3.3014,-3.3469,-3.2942,-3.2172,-3.2705,-3.3086,-3.2656,-3.2445,-3.1966,-3.2134,-3.2027,-3.1891,-3.1896,-3.1367,-3.1577,-3.16,-3.1588,-3.1437,-3.1444,-3.1488,-3.1767,-3.1701,-3.1714,-3.2006,-3.2228,-3.2396,-3.2782,-3.2799,-3.2491,-3.2444,-3.2956,-3.2755,-3.2534,-3.2515,-3.2229,-3.2133,-3.2301,-3.2238,-3.2301,-3.2356,-3.212,-3.0958,-2.9481,-2.7674,-2.6043,-2.3818,-2.169,-2.2789,-2.7384,-3.3509,-3.5947,-3.4986,-3.3804,-3.2957,-3.2153,-3.1748,-3.1735,-3.1602,-3.1387,-3.1471,-3.1461,-3.1667,-3.1564,-3.131,-3.1351,-3.1146,-3.0858,-3.1006,-3.1059,-3.0948,-3.0935,-3.1111,-3.0884,-3.0662,-3.0839,-3.0815,-3.0923,-3.0897,-3.0785,-3.0753,-3.0685,-3.0848,-3.0558,-3.0551,-3.0179,-2.9929,-2.9854,-2.9668,-2.9615,-2.9319,-2.9215,-2.9012,-2.8863,-2.8671,-2.848,-2.8292,-2.8187,-2.8056,-2.7799,-2.7428,-2.7318,-2.7069,-2.6968,-2.6658,-2.6587,-2.648,-2.6251,-2.6139,-2.6051,-2.588,-2.5763,-2.5849,-2.6105,-2.6341,-2.6557,-2.6802,-2.6947,-2.7168,-2.7798,-2.8415,-2.8894,-2.9072,-2.9609,-3.0096,-3.0266,-3.0859,-3.0596,-3.0994,-3.1164,-3.1587,-3.1829,-3.141,-3.1552,-3.1663,-3.1539,-3.1532,-3.1559,-3.169,-3.1712,-3.1744,-3.1659,-3.1614,-3.1801,-3.1939,-3.181,-3.1699,-3.2081,-3.2515,-3.2618,-3.247,-3.2201,-3.2101,-3.2018,-3.1927,-3.2077,-3.2396,-3.2643,-3.1712,-3.1547,-3.192,-3.1508,-3.1366,-3.1532,-3.1668,-3.1581,-3.1682,-3.165,-3.1837,-3.1857,-3.1935,-3.173,-3.1775,-3.185,-3.1842,-3.1958,-3.203,-3.1921,-3.1943,-3.2051,-3.2118,-3.2173,-3.2141,-3.217,-3.2179,-3.2804,-3.2709,-3.2651,-3.2419,-3.2552,-3.2398,-3.2143,-3.2161,-3.2354,-3.2676,-3.2817,-3.3077,-3.204,-3.1414,-3.171,-3.2043,-3.1448,-3.2013,-3.2049,-3.1833,-3.1942,-3.1911,-3.1924,-3.1984,-3.1999,-3.2096,-3.2166,-3.2046,-3.1968,-3.2008,-3.2098,-3.2167,-3.2083,-3.2199,-3.2308,-3.2033,-3.2221,-3.2173,-3.2292,-3.2233,-3.2723,-3.2188,-3.2156,-3.1749,-3.097,-3.1798,-3.2011,-3.1753,-3.1265,-3.0987,-3.138,-3.1663,-3.169,-3.1991,-3.1438,-3.1639,-3.219,-3.2218,-3.1997,-3.1861,-3.1957,-3.2223,-3.212,-3.1936,-3.2032,-3.2177,-3.2382,-3.2321,-3.2448,-3.2151,-3.1766,-3.1333,-2.9825,-2.8038,-2.6265,-2.4099,-2.1948,-2.197,-2.6211,-3.2528,-3.6644,-3.5614,-3.4333,-3.3303,-3.2146,-3.161,-3.1062,-3.127,-3.1329,-3.1357,-3.1196,-3.1057,-3.1354,-3.1009,-3.1081,-3.1369,-3.0797,-3.0928,-2.996,-3.0185,-3.0044,-3.0456,-3.0133,-3.0094,-2.9966,-2.9846,-2.9948,-2.9772,-2.9812,-2.9387,-2.9474,-2.942,-2.9503,-2.9205,-2.9151,-2.8792,-2.8823,-2.8661,-2.8711,-2.8628,-2.8653,-2.8342,-2.8411,-2.8158,-2.8001,-2.762,-2.7398,-2.7246,-2.7311,-2.7104,-2.6919,-2.648,-2.651,-2.6521,-2.6113,-2.5918,-2.6045,-2.5718,-2.5819,-2.5757,-2.5663,-2.5638,-2.545,-2.5928,-2.6089,-2.6446,-2.6813,-2.7523,-2.7956,-2.7944,-2.8132,-2.9116,-2.942,-2.9505,-3.0175,-3.042,-3.0962,-3.0808,-3.1158,-3.1245,-3.1442,-3.1479,-3.1486,-3.1642,-3.1931,-3.1529,-3.1624,-3.1909,-3.1576,-3.1419,-3.1623,-3.186,-3.1692,-3.1647,-3.132,-3.13,-3.1758,-3.1528,-3.1421,-3.145,-3.1528,-3.1466,-3.1345,-3.1424,-3.1328,-3.1429,-3.1416,-3.1404,-3.1644,-3.1557,-3.1669,-3.1487,-3.1382,-3.1401,-3.1516,-3.1619,-3.1586,-3.1549,-3.1507,-3.1672,-3.1506,-3.1552,-3.1614,-3.1497,-3.1514,-3.1865,-3.1793,-3.1724,-3.1717,-3.1708,-3.157,-3.1831,-3.1749,-3.1676,-3.1667,-3.1736,-3.1793,-3.2044,-3.1657,-3.1779,-3.1788,-3.1713,-3.1349,-3.1512,-3.152,-3.133,-3.1259,-3.0802,-3.0605,-3.0646,-3.068,-3.0699,-3.078,-3.0867,-3.0923,-3.0928,-3.0952,-3.1153,-3.1328,-3.1778,-3.1998,-3.2102,-3.196,-3.1855,-3.1956,-3.2087,-3.2201,-3.2173,-3.2128,-3.215,-3.2319,-3.2395,-3.2277,-3.2181,-3.2258,-3.2054,-3.1487,-2.9933,-2.8242,-2.6748,-2.4817,-2.3076,-2.385,-2.9622,-3.5799,-3.906,-3.7411,-3.543,-3.4706,-3.3117,-3.1968,-3.1227,-3.1185,-3.1199,-3.1067,-3.1001,-3.1102,-3.1095,-3.0975,-3.0844,-3.1011,-3.0973,-3.1041,-3.0832,-3.0672,-3.0553,-3.0605,-3.055,-3.0578,-3.0499,-3.0312,-3.0406,-3.0469,-3.0171,-3.008,-3.0063,-2.9903,-2.9917,-3.005,-2.9636,-2.9531,-2.9572,-2.9295,-2.9221,-2.9198,-2.892,-2.878,-2.8683,-2.8554,-2.8503,-2.8255,-2.8152,-2.7999,-2.7479,-2.7333,-2.7173,-2.6654,-2.6806,-2.6741,-2.6426,-2.6328,-2.6365,-2.6127,-2.6018,-2.589,-2.5936,-2.5906,-2.5893,-2.606,-2.6546,-2.6864,-2.7436,-2.8028,-2.8698,-2.9111,-2.9808,-3.0116,-3.059,-3.1099,-3.1359,-3.1588,-3.1759,-3.1838,-3.1939,-3.2147,-3.2047,-3.2167,-3.2213,-3.2258,-3.2175,-3.2291,-3.2083,-3.2086,-3.2165,-3.2273,-3.2157,-3.208,-3.2258,-3.2396,-3.2162,-3.2042,-3.2107,-3.2076,-3.2156,-3.2578,-3.2078,-3.2041,-3.2131,-3.224,-3.2205,-3.2325,-3.2287,-3.2227,-3.2368,-3.2264,-3.2196,-3.2206,-3.2164,-3.2269,-3.2335,-3.2268,-3.2168,-3.242,-3.2327,-3.2115,-3.2124,-3.217,-3.202,-3.227,-3.2568,-3.282,-3.2889,-3.2544,-3.2749,-3.2604,-3.2661,-3.2756,-3.2639,-3.2627,-3.2794,-3.2537,-3.273,-3.271,-3.2705,-3.2587,-3.2607,-3.25,-3.2388,-3.2403,-3.237,-3.223,-3.1786,-3.1766,-3.1703,-3.2011,-3.2121,-3.1934,-3.1917,-3.2021,-3.2223,-3.2471,-3.256,-3.2583,-3.2789,-3.3052,-3.3225,-3.3231,-3.3299,-3.3337,-3.3351,-3.3592,-3.3471,-3.3355,-3.3376,-3.3425,-3.3737,-3.3783,-3.3423,-3.2977,-3.1821,-3.0324,-2.8813,-2.6826,-2.4997,-2.4609,-2.7861,-3.0269,-3.6049,-3.8469,-3.6726,-3.5469,-3.4302,-3.3457,-3.2338,-3.2453,-3.25,-3.2761,-3.255,-3.2718,-3.2393,-3.2542,-3.2603,-3.2421,-3.2299,-3.2451,-3.2308,-3.2541,-3.2321,-3.2344,-3.2185,-3.2236,-3.1965,-3.2132,-3.2,-3.204,-3.1906,-3.179,-3.1522,-3.1495,-3.1384,-3.1242,-3.0992,-3.0904,-3.0749,-3.0542,-3.0381,-3.0342,-2.9981,-2.9803,-2.9534,-2.9485,-2.9444,-2.9152,-2.8896,-2.8568,-2.8325,-2.8104,-2.8072,-2.7699,-2.7617,-2.7388,-2.7305,-2.7088,-2.676,-2.7028,-2.6995,-2.6834,-2.6771,-2.671,-2.6731,-2.676,-2.6995,-2.7364,-2.7913,-2.8366,-2.9043,-2.9476,-2.9867,-3.0369,-3.0781,-3.1169,-3.1421,-3.1625,-3.1896,-3.2064,-3.2063,-3.2234,-3.227,-3.245,-3.2475,-3.2414,-3.248,-3.2574,-3.2541,-3.2439,-3.2511,-3.2443,-3.2545,-3.2524,-3.2559,-3.2363,-3.2364,-3.2435,-3.2503,-3.2493,-3.2421,-3.2186,-3.2279,-3.2388,-3.2339,-3.2305,-3.2475,-3.2454,-3.2521,-3.245,-3.2388,-3.2439,-3.2528,-3.2419,-3.2425,-3.2479,-3.2564,-3.2564,-3.2652,-3.2691,-3.2756,-3.2856,-3.2835,-3.2803,-3.2838,-3.2753,-3.2898,-3.2765,-3.2685,-3.2522,-3.2493,-3.2249,-3.2428,-3.2555,-3.2411,-3.2028,-3.1597,-3.147,-3.1639,-3.1697,-3.1865,-3.187,-3.1945,-3.2326,-3.2481,-3.2598,-3.2443,-3.2625,-3.2904,-3.295,-3.3015,-3.2969,-3.3057,-3.2826,-3.3063,-3.3021,-3.301,-3.3098,-3.3252,-3.3195,-3.3057,-3.3031,-3.3019,-3.2914,-3.2016,-3.0478,-2.9018,-2.7414,-2.5208,-2.3569,-2.4752,-2.89,-3.5319,-3.7957,-3.638,-3.5305,-3.4362,-3.3323,-3.2538,-3.2476,-3.2492,-3.249,-3.2453,-3.255,-3.2405,-3.259,-3.2465,-3.2532,-3.2448,-3.2456,-3.2223,-3.2175,-3.226,-3.2338,-3.2192,-3.2113,-3.1949,-3.2042,-3.1942,-3.1818,-3.1904,-3.1922,-3.169,-3.1553,-3.1546,-3.1479,-3.1453,-3.1186,-3.0864,-3.0891,-3.0876,-3.0768,-3.0721,-3.0557,-3.0342,-3.0146,-3.0069,-2.9695,-2.9484,-2.9436,-2.9243,-2.9041,-2.8815,-2.8644,-2.8446,-2.8283,-2.8135,-2.7888,-2.7712,-2.778,-2.7604,-2.7472,-2.746,-2.743,-2.7555,-2.7877,-2.8238,-2.8817,-2.9024,-2.9569,-3.0001,-3.0551,-3.1046,-3.1408,-3.178,-3.2223,-3.2412,-3.2593,-3.2742,-3.2908,-3.2964,-3.3112,-3.3199,-3.3111,-3.3226,-3.3172,-3.3382,-3.3405,-3.3359,-3.3225,-3.3264,-3.3244,-3.3293,-3.3284,-3.3127,-3.3244,-3.3235,-3.3124,-3.3011,-3.3049,-3.3079,-3.3175,-3.3192,-3.3168,-3.3006,-3.2965,-3.3076,-3.3106,-3.3083,-3.3033,-3.2966,-3.2971,-3.2967,-3.3093,-3.3095,-3.3174,-3.3227,-3.3211,-3.3145,-3.2935,-3.2827,-3.2769,-3.2815,-3.2797,-3.2712,-3.2547,-3.2229,-3.2208,-3.2163,-3.1947,-3.1972,-3.2129,-3.2473,-3.2524,-3.2773,-3.2962,-3.3062,-3.3228,-3.3346,-3.3505,-3.3495,-3.3332,-3.3386,-3.3404,-3.3512,-3.3695,-3.368,-3.3658,-3.3643,-3.3794,-3.3668,-3.3594,-3.3607,-3.375,-3.3637,-3.2842,-3.156,-3.0041,-2.871,-2.66,-2.4278,-2.4193,-2.7705,-3.3724,-3.7664,-3.6676,-3.5661,-3.5373,-3.4528,-3.3447,-3.3114,-3.298,-3.3094,-3.3094,-3.3148,-3.3015,-3.3038,-3.2979,-3.2959,-3.3015,-3.2987,-3.29,-3.2701,-3.2748,-3.2667,-3.2698,-3.2743,-3.2573,-3.2554,-3.2461,-3.2375,-3.224,-3.2079,-3.2127,-3.2041,-3.1922,-3.1882,-3.1846,-3.1581,-3.1497,-3.1408,-3.1269,-3.1053,-3.0893,-3.0757,-3.0622,-3.0528,-3.0263,-3.0032,-2.9915,-2.975,-2.9492,-2.9241,-2.9003,-2.8743,-2.866,-2.8345,-2.8141,-2.8007,-2.7787,-2.785,-2.7658,-2.7523,-2.7563,-2.7752,-2.7983,-2.8051,-2.8424,-2.8665,-2.9255,-2.9806,-3.0294,-3.0745,-3.1197,-3.1534,-3.1975,-3.2296,-3.2463,-3.2592,-3.2806,-3.3038,-3.3073,-3.2983,-3.3087,-3.3205,-3.3229,-3.3288,-3.3174,-3.3129,-3.3249,-3.327,-3.3166,-3.3141,-3.3082,-3.3079,-3.3109,-3.3108,-3.3092,-3.2993,-3.2991,-3.3114,-3.3017,-3.2869,-3.2986,-3.302,-3.3046,-3.2965,-3.2997,-3.2959,-3.2928,-3.2916,-3.3007,-3.2934,-3.2961,-3.3052,-3.3049,-3.297,-3.2986,-3.3012,-3.3187,-3.3259,-3.3128,-3.3055,-3.304,-3.3183,-3.3224,-3.327,-3.3179,-3.3156,-3.33,-3.3251,-3.3283,-3.3261,-3.315,-3.3265,-3.3051,-3.31,-3.3388,-3.3352,-3.3209,-3.3121,-3.3186,-3.3236,-3.3077,-3.2823,-3.2718,-3.2825,-3.2934,-3.3005,-3.2869,-3.251,-3.2413,-3.2231,-3.2328,-3.2467,-3.2578,-3.2668,-3.2905,-3.2745,-3.2902,-3.3292,-3.3211,-3.3422,-3.3627,-3.3614,-3.345,-3.3515,-3.3605,-3.3649,-3.3615,-3.3777,-3.3684,-3.3836,-3.3648,-3.3595,-3.3532,-3.3648,-3.37,-3.3641,-3.3136,-3.1993,-3.0681,-2.9309,-2.719,-2.6034,-2.3709,-2.3728,-2.7264,-3.3178,-3.6909,-3.6103,-3.5173,-3.4353,-3.3235,-3.2668,-3.2743,-3.2589,-3.2813,-3.2616,-3.2677,-3.2557,-3.2677,-3.2597,-3.268,-3.2578,-3.2656,-3.2458,-3.2415,-3.2416,-3.2368,-3.2181,-3.2178,-3.2003,-3.2067,-3.2126,-3.2032,-3.1872,-3.1811,-3.1772,-3.1677,-3.1602,-3.1406,-3.1303,-3.1343,-3.1229,-3.1251,-3.0967,-3.0793,-3.0856,-3.065,-3.0396,-3.0196,-3.0059,-2.9955,-2.981,-2.9635,-2.9226,-2.916,-2.9109,-2.8879,-2.8525,-2.8325,-2.8182,-2.8097,-2.8048,-2.7918,-2.7663,-2.7509,-2.7482,-2.758,-2.755,-2.7647,-2.796,-2.8367,-2.8911,-2.9426,-2.983,-3.0357,-3.0832,-3.1275,-3.1706,-3.1908,-3.2171,-3.2257,-3.2541,-3.2683,-3.2877,-3.2926,-3.2927,-3.2963,-3.3167,-3.3004,-3.3007,-3.3016,-3.3119,-3.3163,-3.3119,-3.2957,-3.2968,-3.3072,-3.294,-3.2933,-3.2885,-3.2862,-3.2918,-3.2914,-3.2853,-3.2709,-3.2718,-3.276,-3.2787,-3.279,-3.2845,-3.2886,-3.2849,-3.2855,-3.286,-3.2612,-3.2676,-3.28,-3.2875,-3.2818,-3.2707,-3.274,-3.2927,-3.2901,-3.2964,-3.2854,-3.2896,-3.2949,-3.3032,-3.3033,-3.2949,-3.2983,-3.2996,-3.3045,-3.3235,-3.3127,-3.3078,-3.311,-3.3212,-3.3314,-3.3181,-3.3176,-3.3139,-3.3078,-3.3115,-3.3183,-3.3242,-3.3152,-3.3242,-3.3329,-3.3215,-3.3191,-3.3273,-3.3261,-3.329,-3.3288,-3.3214,-3.3278,-3.3287,-3.3248,-3.329,-3.3359,-3.3282,-3.3333,-3.324,-3.3384,-3.3303,-3.3226,-3.3039,-3.3039,-3.3034,-3.2913,-3.2873,-3.2843,-3.2966,-3.2919,-3.2579,-3.246,-3.2343,-3.2529,-3.2629,-3.2629,-3.2548,-3.2681,-3.2895,-3.2901,-3.3057,-3.3095,-3.3358,-3.3449,-3.3491,-3.3361,-3.333,-3.344,-3.3554,-3.354,-3.3636,-3.3426,-3.3343,-3.3415,-3.3543,-3.3521,-3.3495,-3.3423,-3.3209,-3.2393,-3.1063,-2.9619,-2.8,-2.5767,-2.3465,-2.4149,-2.7832,-3.3749,-3.6781,-3.5982,-3.5086,-3.4166,-3.304,-3.2607,-3.2695,-3.2588,-3.2554,-3.2504,-3.2498,-3.2536,-3.2597,-3.257,-3.2408,-3.246,-3.245,-3.242,-3.2405,-3.2202,-3.2186,-3.2167,-3.2155,-3.2041,-3.2008,-3.1963,-3.1889,-3.1926,-3.1886,-3.1681,-3.1497,-3.1561,-3.1569,-3.1433,-3.1177,-3.1128,-3.1003,-3.1004,-3.0942,-3.0746,-3.0386,-3.0239,-3.0205,-3.0109,-2.9952,-2.9632,-2.9555,-2.9454,-2.9264,-2.8988,-2.8763,-2.8525,-2.8376,-2.8265,-2.8045,-2.7794,-2.763,-2.7607,-2.7533,-2.7547,-2.7366,-2.7361,-2.7685,-2.7949,-2.8221,-2.8377,-2.8868,-2.9342,-2.9994,-3.0508,-3.0727,-3.1278,-3.151,-3.1827,-3.2112,-3.225,-3.244,-3.2527,-3.2725,-3.2818,-3.2783,-3.2823,-3.2749,-3.2964,-3.2987,-3.2888,-3.2902,-3.2945,-3.2928,-3.3033,-3.3087,-3.2986,-3.2868,-3.2814,-3.2757,-3.2751,-3.2749,-3.2822,-3.2929,-3.2817,-3.2671,-3.2712,-3.2761,-3.2716,-3.2852,-3.2799,-3.2654,-3.2729,-3.2721,-3.272,-3.2809,-3.2706,-3.2684,-3.264,-3.2775,-3.286,-3.2761,-3.2856,-3.2878,-3.2893,-3.293,-3.2804,-3.2874,-3.2881,-3.2983,-3.3102,-3.296,-3.2944,-3.2942,-3.2964,-3.3067,-3.3014,-3.2995,-3.2892,-3.3066,-3.3082,-3.3052,-3.3028,-3.2954,-3.2995,-3.3122,-3.3098,-3.2959,-3.2925,-3.2932,-3.3009,-3.3058,-3.3006,-3.2903,-3.2938,-3.2886,-3.3083,-3.2918,-3.2931,-3.2978,-3.297,-3.3051,-3.303,-3.3111,-3.3072,-3.3039,-3.3032,-3.2976,-3.2962,-3.2998,-3.3002,-3.2982,-3.3063,-3.3042,-3.3118,-3.3101,-3.3093,-3.3015,-3.3002,-3.299,-3.287,-3.2799,-3.2773,-3.2651,-3.2595,-3.2828,-3.2558,-3.2332,-3.2267,-3.2189,-3.2307,-3.2464,-3.2376,-3.2273,-3.2409,-3.2634,-3.274,-3.2958,-3.2849,-3.3016,-3.3178,-3.3261,-3.3174,-3.3167,-3.3136,-3.3229,-3.3241,-3.3138,-3.3043,-3.3023,-3.3135,-3.3133,-3.3162,-3.309,-3.3109,-3.2893,-3.1957,-3.0562,-2.8951,-2.7186,-2.4735,-2.2995,-2.4201,-2.8394,-3.4526,-3.6248,-3.5326,-3.4549,-3.4055,-3.3178,-3.2322,-3.2362,-3.2162,-3.234,-3.2158,-3.2473,-3.2157,-3.226,-3.2334,-3.2299,-3.2158,-3.2168,-3.213,-3.2027,-3.199,-3.2071,-3.1976,-3.1969,-3.19,-3.1904,-3.1818,-3.1639,-3.1616,-3.1511,-3.1442,-3.1368,-3.1273,-3.1268,-3.1196,-3.0917,-3.0955,-3.0926,-3.0741,-3.0647,-3.038,-3.0196,-3.0096,-3.0179,-3.0044,-2.9791,-2.9493,-2.9393,-2.9247,-2.9104,-2.8886,-2.8569,-2.847,-2.819,-2.8096,-2.7812,-2.7667,-2.7549,-2.752,-2.7467,-2.7339,-2.7185,-2.7348,-2.7365,-2.7609,-2.805,-2.8323,-2.8795,-2.9348,-2.9898,-3.0367,-3.0776,-3.1141,-3.1479,-3.1704,-3.1976,-3.2201,-3.2285,-3.2535,-3.2631,-3.287,-3.2716,-3.2706,-3.2678,-3.286,-3.2856,-3.2874,-3.2889,-3.2923,-3.2929,-3.2914,-3.2856,-3.2828,-3.2843,-3.2836,-3.2847,-3.2797,-3.2741,-3.27,-3.2706,-3.2703,-3.2684,-3.2566,-3.2569,-3.2796,-3.2616,-3.2592,-3.2568,-3.2559,-3.248,-3.2537,-3.2627,-3.2622,-3.2605,-3.2584,-3.2675,-3.2674,-3.2616,-3.2598,-3.2606,-3.2745,-3.2768,-3.2755,-3.2741,-3.2746,-3.2958,-3.2804,-3.2872,-3.2797,-3.2756,-3.2841,-3.2974,-3.2875,-3.2859,-3.2915,-3.297,-3.2904,-3.2935,-3.2928,-3.2866,-3.2887,-3.3013,-3.3042,-3.2906,-3.2871,-3.3022,-3.2992,-3.3015,-3.298,-3.2991,-3.2925,-3.2939,-3.3029,-3.289,-3.2992,-3.2905,-3.3078,-3.2942,-3.2962,-3.2865,-3.2902,-3.2995,-3.2962,-3.2817,-3.2889,-3.2966,-3.2982,-3.303,-3.2908,-3.2725,-3.2662,-3.2525,-3.2825,-3.3032,-3.259,-3.2367,-3.2306,-3.221,-3.2536,-3.249,-3.2601,-3.2794,-3.299,-3.3939,-3.3411,-3.3171,-3.2904,-3.2897,-3.2951,-3.2985,-3.2854,-3.2565,-3.2699,-3.231,-3.2265,-3.2389,-3.2448,-3.236,-3.2161,-3.2058,-3.2151,-3.2359,-3.2796,-3.2512,-3.2613,-3.2995,-3.2952,-3.3285,-3.3331,-3.3372,-3.289,-3.2999,-3.3285,-3.3144,-3.3193,-3.317,-3.321,-3.326,-3.3211,-3.3237,-3.3252,-3.3294,-3.3362,-3.2839,-3.1589,-3.0221,-2.8838,-2.7103,-2.4843,-2.331,-2.4722,-2.8685,-3.5005,-3.6625,-3.5251,-3.4489,-3.3566,-3.2802,-3.2374,-3.2415,-3.218,-3.2222,-3.2188,-3.237,-3.2088,-3.2236,-3.2018,-3.2248,-3.2217,-3.2091,-3.1916,-3.211,-3.1978,-3.2177,-3.1955,-3.1921,-3.1817,-3.1677,-3.1751,-3.167,-3.1623,-3.1305,-3.1379,-3.1484,-3.1385,-3.1222,-3.1035,-3.0988,-3.0905,-3.0925,-3.0682,-3.0536,-3.0343,-3.0289,-3.0264,-3.0131,-2.9742,-2.9706,-2.9573,-2.943,-2.9264,-2.8821,-2.8757,-2.8597,-2.8291,-2.8254,-2.8097,-2.7932,-2.7786,-2.7684,-2.7514,-2.7371,-2.7183,-2.7134,-2.73,-2.7549,-2.7833,-2.7983,-2.8593,-2.9103,-2.9383,-2.9786,-3.0215,-3.0657,-3.0944,-3.1214,-3.157,-3.1812,-3.2101,-3.2212,-3.2357,-3.2643,-3.2843,-3.2637,-3.2668,-3.3017,-3.3014,-3.2902,-3.3035,-3.3006,-3.3026,-3.2877,-3.2977,-3.2782,-3.2918,-3.296,-3.2909,-3.2766,-3.2791,-3.2846,-3.2965,-3.2755,-3.2749,-3.2583,-3.2656,-3.2614,-3.2708,-3.2565,-3.2549,-3.253,-3.2673,-3.2729,-3.2545,-3.2567,-3.2511,-3.2536,-3.2715,-3.284,-3.2846,-3.2735,-3.2767,-3.2636,-3.2697,-3.2779,-3.2864,-3.2876,-3.2872,-3.2934,-3.2845,-3.2828,-3.281,-3.3059,-3.3078,-3.3006,-3.2984,-3.2913,-3.2918,-3.3072,-3.3016,-3.2985,-3.2966,-3.3086,-3.3153,-3.2984,-3.2909,-3.2955,-3.3202,-3.31,-3.3067,-3.2996,-3.3094,-3.3092,-3.3122,-3.3122,-3.2966,-3.2989,-3.3042,-3.3175,-3.3075,-3.3148,-3.2851,-3.3049,-3.3121,-3.2879,-3.2972,-3.3106,-3.3194,-3.3097,-3.3106,-3.311,-3.3065,-3.2985,-3.3039,-3.3015,-3.3022,-3.3153,-3.3032,-3.3151,-3.3091,-3.3024,-3.3142,-3.3122,-3.323,-3.3242,-3.3109,-3.316,-3.3275,-3.3187,-3.3215,-3.3187,-3.3163,-3.3131,-3.3134,-3.325,-3.317,-3.3075,-3.3201,-3.3195,-3.3156,-3.3155,-3.3019,-3.3151,-3.3101,-3.2993,-3.2967,-3.2843,-3.2531,-3.2669,-3.261,-3.2647,-3.2563,-3.2527,-3.2636,-3.2594,-3.2567,-3.2704,-3.2795,-3.293,-3.3151,-3.3302,-3.3268,-3.3313,-3.3293,-3.3257,-3.3337,-3.3293,-3.3482,-3.336,-3.3331,-3.3365,-3.3248,-3.3342,-3.339,-3.3397,-3.3282,-3.3032,-3.2026,-3.0669,-2.9204,-2.7488,-2.5122,-2.3282,-2.4679,-2.8613,-3.4671,-3.6638,-3.5498,-3.4549,-3.4014,-3.3418,-3.2568,-3.2389,-3.2345,-3.2391,-3.2339,-3.253,-3.2327,-3.2427,-3.2351,-3.2466,-3.2357,-3.231,-3.2188,-3.2222,-3.2071,-3.2102,-3.2026,-3.2054,-3.1899,-3.1885,-3.188,-3.1709,-3.1557,-3.1693,-3.1589,-3.1567,-3.1352,-3.1277,-3.1275,-3.1252,-3.1067,-3.0912,-3.0776,-3.0697,-3.0648,-3.0533,-3.0309,-3.0183,-2.9969,-2.9986,-2.9833,-2.9617,-2.9389,-2.911,-2.8907,-2.8799,-2.8568,-2.8306,-2.8222,-2.8065,-2.7915,-2.7738,-2.763,-2.7431,-2.7459,-2.7552,-2.7321,-2.7194,-2.7604,-2.7877,-2.8252,-2.8662,-2.924,-2.9839,-3.033,-3.0808,-3.1142,-3.156,-3.166,-3.1939,-3.2226,-3.2509,-3.259,-3.2515,-3.2756,-3.2681,-3.2922,-3.2915,-3.3138,-3.3101,-3.2856,-3.302,-3.3152,-3.3121,-3.326,-3.3029,-3.3094,-3.2939,-3.2972,-3.3086,-3.2977,-3.2655,-3.3006,-3.2909,-3.2702,-3.2745,-3.2771,-3.2857,-3.2989,-3.286,-3.2939,-3.2886,-3.2801,-3.2924,-3.286,-3.2613,-3.2848,-3.2645,-3.2678,-3.3254,-3.3208,-3.2986,-3.317,-3.3131,-3.3007,-3.3114,-3.3276,-3.3271,-3.3358,-3.3523,-3.3485,-3.3594,-3.3671,-3.3582,-3.3865,-3.3645,-3.3441,-3.3769,-3.3818,-3.3642,-3.3603,-3.3952,-3.3888,-3.3977,-3.3739,-3.3861,-3.3773,-3.3881,-3.3917,-3.3926,-3.4155,-3.4059,-3.4084,-3.4294,-3.4623,-3.3962,-3.4026,-3.4416,-3.4511,-3.4753,-3.4517,-3.4405,-3.4952,-3.4788,-3.4473,-3.4356,-3.4314,-3.4657,-3.4724,-3.4224,-3.4157,-3.4705,-3.4416,-3.4478,-3.4227,-3.4271,-3.4489,-3.4415,-3.4313,-3.4599,-3.4597,-3.4533,-3.4553,-3.426,-3.434,-3.4437,-3.4406,-3.4596,-3.4392,-3.4519,-3.439,-3.4338,-3.429,-3.4324,-3.3888,-3.4071,-3.4508,-3.4379,-3.3961,-3.3639,-3.3857,-3.3894,-3.4055,-3.3948,-3.3912,-3.3858,-3.3516,-3.3904,-3.3843,-3.4146,-3.4457,-3.4419,-3.4592,-3.4421,-3.4613,-3.439,-3.4514,-3.4207,-3.4628,-3.4705,-3.457,-3.4626,-3.4638,-3.4183,-3.4293,-3.4808,-3.4919,-3.4052,-3.2698,-3.124,-3.0061,-2.7828,-2.5063,-2.4612,-2.7025,-3.2121,-3.7285,-3.7554,-3.6369,-3.6069,-3.4555,-3.3616,-3.3584,-3.4091,-3.3947,-3.3934,-3.3658,-3.3751,-3.3932,-3.3799,-3.3692,-3.3662,-3.3612,-3.3444,-3.3453,-3.3603,-3.3599,-3.3526,-3.2895,-3.3515,-3.3362,-3.3484,-3.3199,-3.2906,-3.3112,-3.3156,-3.2914,-3.2969,-3.2763,-3.253,-3.2729,-3.2553,-3.2364,-3.2175,-3.2393,-3.2158,-3.1914,-3.1783,-3.1705,-3.1272,-3.1384,-3.1508,-3.1108,-3.0815,-3.049,-3.0295,-3.0442,-3.011,-2.9983,-2.9406,-2.9061,-2.9514,-2.9135,-2.9033,-2.8917,-2.8833,-2.8828,-2.871,-2.8943,-2.9163,-2.9357,-2.9892,-3.0485,-3.0645,-3.1135,-3.186,-3.2191,-3.2519,-3.3022,-3.3339,-3.38,-3.3804,-3.4101,-3.4271,-3.4204,-3.4378,-3.4696,-3.4597,-3.4726,-3.4723,-3.4683,-3.4617,-3.4873,-3.5024,-3.5053,-3.4876,-3.4767,-3.4544,-3.4166,-3.4596,-3.493,-3.496,-3.4942,-3.4528,-3.4513,-3.468,-3.4836,-3.4787,-3.4528,-3.4689,-3.4724,-3.4625,-3.4402,-3.4484,-3.4277,-3.4192,-3.4739,-3.4912,-3.4633,-3.4219,-3.4462,-3.4871,-3.4537,-3.4709,-3.4547,-3.4625,-3.4755,-3.4991,-3.4987,-3.4746,-3.4454,-3.4596,-3.4931,-3.4937,-3.4888,-3.4606,-3.4826,-3.5129,-3.4609,-3.4429,-3.5103,-3.5183,-3.4797,-3.4698,-3.5181,-3.5114,-3.4993,-3.4833,-3.4682,-3.4987,-3.5009,-3.5095,-3.5029,-3.4833,-3.4894,-3.5192,-3.5014,-3.4992,-3.5159,-3.5018,-3.4768,-3.4735,-3.4994,-3.5029,-3.5248,-3.5124,-3.4987,-3.5019,-3.5146,-3.51,-3.5006,-3.4761,-3.5046,-3.5202,-3.5122,-3.5025,-3.4933,-3.5122,-3.512,-3.5135,-3.4948,-3.4886,-3.5091,-3.4967,-3.5098,-3.5155,-3.5043,-3.4975,-3.5004,-3.5091,-3.4934,-3.5101,-3.5127,-3.4995,-3.4845,-3.4853,-3.494,-3.4901,-3.4663,-3.4398,-3.4069,-3.4113,-3.4579,-3.4518,-3.4587,-3.4361,-3.4121,-3.4323,-3.4508,-3.4196,-3.3449,-3.4048,-3.5191,-3.561,-3.5007,-3.4973,-3.5404,-3.532,-3.5098,-3.4699,-3.4454,-3.51,-3.5492,-3.534,-3.536,-3.4852,-3.439,-3.4477,-3.3501,-3.1811,-3.0657,-2.8515,-2.7194,-2.5193,-2.5944,-2.9812,-3.5498,-3.7951,-3.7199,-3.6454,-3.5768,-3.4964,-3.418,-3.4152,-3.4025,-3.4285,-3.43,-3.4576,-3.4266,-3.4299,-3.4148,-3.4289,-3.4211,-3.4313,-3.4002,-3.429,-3.4026,-3.4041,-3.3738,-3.3946,-3.3955,-3.42,-3.361,-3.3668,-3.3743,-3.37,-3.3645,-3.347,-3.3842,-3.3572,-3.3141,-3.2992,-3.2918,-3.3017,-3.2945,-3.2937,-3.3021,-3.2401,-3.2394,-3.2123,-3.1989,-3.1925,-3.19,-3.1562,-3.1269,-3.1187,-3.0943,-3.0959,-3.0694,-3.0275,-3.0004,-2.996,-2.9936,-2.9719,-2.9605,-2.9338,-2.9393,-2.9412,-2.9386,-2.9408,-2.9751,-3.0307,-3.0499,-3.0976,-3.1555,-3.2085,-3.2766,-3.3003,-3.3245,-3.3503,-3.397,-3.3876,-3.4052,-3.466,-3.4776,-3.4681,-3.4798,-3.4703,-3.4845,-3.4777,-3.4701,-3.4995,-3.5061,-3.5045,-3.5006,-3.4881,-3.4963,-3.486,-3.4785,-3.4875,-3.4984,-3.4856,-3.4822,-3.4866,-3.4797,-3.4575,-3.4564,-3.4915,-3.486,-3.4673,-3.4564,-3.4748,-3.4805,-3.4613,-3.4682,-3.4539,-3.4655,-3.461,-3.4628,-3.4549,-3.4762,-3.4758,-3.4702,-3.4816,-3.4701,-3.4626,-3.473,-3.489,-3.4952,-3.4747,-3.4539,-3.4809,-3.5022,-3.49,-3.4882,-3.4806,-3.5018,-3.4933,-3.4842,-3.488,-3.4904,-3.479,-3.4901,-3.4936,-3.4933,-3.4843,-3.4598,-3.4847,-3.5046,-3.4988,-3.4881,-3.4831,-3.4902,-3.4846,-3.4962,-3.4946,-3.4718,-3.4748,-3.4973,-3.5048,-3.5037,-3.4815,-3.4849,-3.5077,-3.4977,-3.4905,-3.4883,-3.4754,-3.4842,-3.5051,-3.4534,-3.4559,-3.4974,-3.5,-3.4982,-3.4832,-3.4662,-3.4652,-3.4816,-3.4868,-3.4828,-3.4735,-3.4619,-3.4964,-3.4951,-3.4811,-3.4413,-3.463,-3.5113,-3.4974,-3.4894,-3.4893,-3.4978,-3.4962,-3.4816,-3.4622,-3.4668,-3.4754,-3.4668,-3.468,-3.4573,-3.4635,-3.4601,-3.4577,-3.4474,-3.4401,-3.4337,-3.4458,-3.4432,-3.4297,-3.4391,-3.4266,-3.394,-3.3924,-3.4057,-3.4089,-3.4011,-3.4087,-3.4048,-3.4127,-3.4335,-3.4396,-3.4613,-3.4714,-3.4646,-3.4758,-3.4828,-3.4759,-3.4665,-3.4672,-3.4743,-3.4782,-3.4737,-3.4638,-3.4719,-3.4801,-3.4635,-3.3625,-3.248,-3.2,-3.0649,-2.8577,-2.5651,-2.3973,-2.5699,-2.9822,-3.565,-3.682,-3.6217,-3.6072,-3.4629,-3.3905,-3.3665,-3.3632,-3.3556,-3.3752,-3.3696,-3.3792,-3.3592,-3.3617,-3.3586,-3.3663,-3.3546,-3.3551,-3.3461,-3.3552,-3.3379,-3.3303,-3.3366,-3.3201,-3.3024,-3.3295,-3.2977,-3.2955,-3.2991,-3.3112,-3.2938,-3.2674,-3.2539,-3.2531,-3.2447,-3.2495,-3.2321,-3.2206,-3.1955,-3.195,-3.1876,-3.1736,-3.1647,-3.1473,-3.1329,-3.1098,-3.1005,-3.0858,-3.0533,-3.0346,-3.0135,-2.9767,-2.9772,-2.9667,-2.9239,-2.9185,-2.9109,-2.901,-2.8966,-2.8549,-2.8647,-2.8542,-2.8552,-2.8633,-2.8847,-2.9311,-2.9686,-3.0059,-3.0671,-3.0884,-3.1468,-3.2017,-3.2253,-3.2413,-3.2784,-3.3026,-3.3278,-3.3309,-3.3447,-3.3546,-3.3682,-3.38,-3.3834,-3.3723,-3.3854,-3.3907,-3.3912,-3.3751,-3.3864,-3.3855,-3.3935,-3.4029,-3.3938,-3.3776,-3.3615,-3.3673,-3.3896,-3.3886,-3.3745,-3.3792,-3.3864,-3.3661,-3.3717,-3.3596,-3.3512,-3.3614,-3.3693,-3.3579,-3.3457,-3.3557,-3.3606,-3.358,-3.3568,-3.3513,-3.3588,-3.3515,-3.3413,-3.3686,-3.3735,-3.3637,-3.3642,-3.3568,-3.3781,-3.3764,-3.3727,-3.3607,-3.3437,-3.3657,-3.3874,-3.3756,-3.3712,-3.3683,-3.3721,-3.3703,-3.3786,-3.3633,-3.3676,-3.3764,-3.3605,-3.3572,-3.3606,-3.366,-3.3768,-3.3848,-3.3715,-3.3559,-3.37,-3.3454,-3.3693,-3.3743,-3.361,-3.3569,-3.3723,-3.3746,-3.3702,-3.3725,-3.3559,-3.3674,-3.3667,-3.3763,-3.3684,-3.3629,-3.3532,-3.3796,-3.3811,-3.3702,-3.3653,-3.371,-3.3674,-3.3686,-3.3792,-3.3735,-3.362,-3.378,-3.3856,-3.3699,-3.3585,-3.3635,-3.3666,-3.3908,-3.3741,-3.3647,-3.3631,-3.3696,-3.3666,-3.3619,-3.3674,-3.37,-3.3693,-3.3678,-3.3695,-3.3623,-3.3693,-3.3635,-3.3666,-3.3704,-3.3482,-3.3747,-3.3755,-3.3574,-3.3723,-3.3548,-3.3568,-3.3634,-3.3553,-3.3571,-3.3359,-3.3228,-3.3364,-3.3257,-3.3108,-3.2979,-3.2979,-3.293,-3.2968,-3.2884,-3.2811,-3.2964,-3.3003,-3.3175,-3.3058,-3.3248,-3.3547,-3.3467,-3.3583,-3.3706,-3.3662,-3.3633,-3.3537,-3.3622,-3.3576,-3.3453,-3.363,-3.3653,-3.3587,-3.3602,-3.3525,-3.3182,-3.1853,-3.0664,-2.9326,-2.7065,-2.4444,-2.3162,-2.5134,-3.0096,-3.5675,-3.6025,-3.5059,-3.4786,-3.4172,-3.3056,-3.257,-3.2726,-3.2607,-3.2742,-3.2354,-3.2518,-3.2441,-3.2604,-3.2503,-3.2538,-3.2215,-3.2302,-3.2359,-3.2426,-3.2424,-3.2328,-3.2094,-3.2187,-3.2108,-3.2121,-3.204,-3.1977,-3.1934,-3.2093,-3.168,-3.173,-3.1494,-3.1446,-3.1521,-3.1234,-3.1102,-3.1182,-3.0929,-3.0938,-3.0843,-3.0612,-3.0419,-3.046,-3.0282,-3.0241,-3.0153,-2.9706,-2.953,-2.9522,-2.9337,-2.9086,-2.8981,-2.8713,-2.843,-2.8483,-2.8338,-2.8051,-2.779,-2.7718,-2.7867,-2.7807,-2.7737,-2.7796,-2.8041,-2.7989,-2.8433,-2.8992,-2.9371,-2.9869,-3.0311,-3.0616,-3.1146,-3.1464,-3.1841,-3.2179,-3.2454,-3.2509,-3.2719,-3.2735,-3.2865,-3.298,-3.3031,-3.299,-3.3092,-3.31,-3.3167,-3.3043,-3.3016,-3.3012,-3.3223,-3.3137,-3.3072,-3.3035,-3.2948,-3.2933,-3.31,-3.2953,-3.2912,-3.2898,-3.3031,-3.2829,-3.2882,-3.2688,-3.2825,-3.2807,-3.2995,-3.3014,-3.2928,-3.2592,-3.2724,-3.2805,-3.2869,-3.2899,-3.2963,-3.2921,-3.2969,-3.2978,-3.2925,-3.2909,-3.2906,-3.3112,-3.3091,-3.2962,-3.2914,-3.3035,-3.3033,-3.3131,-3.3088,-3.296,-3.2818,-3.3503,-3.3408,-3.3373,-3.3289,-3.3108,-3.3359,-3.3219,-3.3139,-3.3133,-3.3495,-3.322,-3.3105,-3.3016,-3.2781,-3.2637,-3.2631,-3.3034,-3.3014,-3.2863,-3.2877,-3.3085,-3.3371,-3.3201,-3.3435,-3.3076,-3.301,-3.2972,-3.2743,-3.2598,-3.2445,-3.2515,-3.2627,-3.2604,-3.2492,-3.2544,-3.2615,-3.2908,-3.275,-3.2859,-3.278,-3.272,-3.2784,-3.2874,-3.279,-3.2952,-3.2982,-3.3144,-3.3208,-3.322,-3.3047,-3.3129,-3.3213,-3.3164,-3.3121,-3.2958,-3.317,-3.3209,-3.2991,-3.2993,-3.2869,-3.2822,-3.2963,-3.2517,-3.2231,-3.2236,-3.2186,-3.2227,-3.2113,-3.2359,-3.224,-3.2263,-3.2421,-3.2635,-3.2642,-3.3032,-3.3127,-3.3262,-3.3404,-3.3597,-3.3481,-3.3515,-3.3483,-3.3465,-3.3384,-3.3297,-3.313,-3.3302,-3.3329,-3.3223,-3.2109,-3.1216,-2.9689,-2.818,-2.6171,-2.3569,-2.2801,-2.5737,-3.1287,-3.6162,-3.5953,-3.4584,-3.3946,-3.2478,-3.2362,-3.2044,-3.2039,-3.192,-3.2033,-3.1941,-3.2029,-3.2158,-3.218,-3.2051,-3.2029,-3.1924,-3.2044,-3.1949,-3.1936,-3.1896,-3.1857,-3.1643,-3.1675,-3.1577,-3.1668,-3.1559,-3.1495,-3.1278,-3.1151,-3.1116,-3.1117,-3.1031,-3.0944,-3.0812,-3.0511,-3.0504,-3.0488,-3.0288,-3.0177,-2.9982,-2.9679,-2.9482,-2.9418,-2.9267,-2.9074,-2.8814,-2.8677,-2.8462,-2.825,-2.8001,-2.8007,-2.7758,-2.7541,-2.7092,-2.7096,-2.6997,-2.713,-2.6812,-2.6716,-2.6682,-2.6612,-2.6716,-2.6785,-2.7068,-2.745,-2.7976,-2.8683,-2.9091,-2.9319,-2.9799,-3.004,-3.0626,-3.1077,-3.1434,-3.1655,-3.1836,-3.2072,-3.2183,-3.2277,-3.2476,-3.2527,-3.2723,-3.2746,-3.2664,-3.2659,-3.2715,-3.2947,-3.2848,-3.2733,-3.2703,-3.2683,-3.2759,-3.2838,-3.2747,-3.263,-3.2659,-3.2698,-3.2782,-3.2746,-3.2686,-3.2565,-3.2693,-3.2622,-3.2471,-3.2393,-3.2542,-3.2612,-3.2696,-3.2552,-3.2541,-3.2559,-3.26,-3.2633,-3.2657,-3.2598,-3.2555,-3.2638,-3.2854,-3.2619,-3.263,-3.2789,-3.274,-3.2769,-3.2817,-3.2808,-3.2783,-3.2693,-3.2845,-3.2813,-3.2772,-3.2705,-3.2797,-3.2816,-3.2943,-3.2925,-3.2924,-3.2929,-3.2942,-3.2955,-3.2837,-3.2778,-3.2815,-3.2877,-3.2964,-3.2883,-3.2815,-3.2818,-3.2895,-3.2926,-3.2919,-3.2836,-3.2777,-3.2814,-3.2822,-3.2801,-3.2667,-3.2551,-3.2522,-3.2515,-3.2306,-3.2139,-3.2009,-3.1907,-3.2026,-3.1953,-3.1912,-3.1994,-3.2194,-3.2374,-3.2219,-3.2415,-3.2451,-3.2751,-3.294,-3.3094,-3.2906,-3.2919,-3.306,-3.3113,-3.3353,-3.3307,-3.3308,-3.3307,-3.3322,-3.3431,-3.3473,-3.3305,-3.2429,-3.1823,-3.0244,-2.8629,-2.6724,-2.4971,-2.4797,-2.8334,-3.3884,-3.8645,-3.81,-3.6348,-3.5267,-3.3886,-3.2981,-3.2447,-3.266,-3.268,-3.2906,-3.2732,-3.267,-3.2543,-3.2536,-3.2609,-3.2625,-3.2552,-3.2529,-3.2418,-3.2395,-3.2182,-3.2281,-3.2085,-3.213,-3.1966,-3.1937,-3.171,-3.1781,-3.1642,-3.1655,-3.1323,-3.1384,-3.1298,-3.1321,-3.1166,-3.0924,-3.0774,-3.0717,-3.0652,-3.0612,-3.0373,-3.0059,-2.9899,-2.9878,-2.9748,-2.9536,-2.9168,-2.9027,-2.9003,-2.8689,-2.8297,-2.8187,-2.7963,-2.815,-2.8029,-2.7526,-2.7547,-2.7355,-2.7195,-2.7231,-2.7288,-2.7187,-2.7262,-2.7632,-2.7955,-2.8287,-2.8693,-2.9431,-2.9858,-3.0421,-3.0773,-3.0984,-3.1584,-3.1843,-3.2166,-3.2537,-3.2778,-3.2764,-3.2993,-3.3127,-3.3187,-3.3247,-3.326,-3.3378,-3.336,-3.3289,-3.3462,-3.3282,-3.3086,-3.3277,-3.3312,-3.3184,-3.3216,-3.3025,-3.3088,-3.2957,-3.2966,-3.2942,-3.2887,-3.2751,-3.2796,-3.2957,-3.2971,-3.2782,-3.2916,-3.2855,-3.2992,-3.298,-3.2957,-3.3,-3.3093,-3.3104,-3.3309,-3.31,-3.3097,-3.3333,-3.3407,-3.3284,-3.3311,-3.3314,-3.3396,-3.335,-3.3285,-3.3185,-3.3202,-3.317,-3.3161,-3.3142,-3.315,-3.3111,-3.3046,-3.314,-3.3099,-3.2949,-3.2971,-3.3096,-3.3045,-3.3153,-3.2918,-3.2982,-3.2981,-3.284,-3.2978,-3.2987,-3.274,-3.2649,-3.256,-3.2332,-3.2209,-3.2235,-3.2183,-3.2191,-3.2259,-3.2281,-3.2346,-3.2343,-3.2617,-3.2782,-3.2865,-3.3044,-3.3014,-3.3042,-3.3061,-3.3084,-3.3045,-3.315,-3.3154,-3.3119,-3.292,-3.3004,-3.3013,-3.3033,-3.3009,-3.302,-3.2771,-3.2018,-3.065,-2.9034,-2.7323,-2.5253,-2.3362,-2.4412,-2.8514,-3.4735,-3.7428,-3.6239,-3.4804,-3.3828,-3.2843,-3.1838,-3.1663,-3.1655,-3.186,-3.1862,-3.1774,-3.1657,-3.1641,-3.1716,-3.1702,-3.1603,-3.1727,-3.1631,-3.1517,-3.1452,-3.1485,-3.1297,-3.1409,-3.1336,-3.1203,-3.1205,-3.1091,-3.1032,-3.1059,-3.0999,-3.0836,-3.0653,-3.0571,-3.0508,-3.036,-3.0272,-3.0244,-3.0064,-2.9937,-2.9789,-2.9626,-2.9462,-2.9273,-2.922,-2.8933,-2.8851,-2.8633,-2.838,-2.8223,-2.8118,-2.784,-2.764,-2.7457,-2.7078,-2.7096,-2.6999,-2.6867,-2.672,-2.6646,-2.6618,-2.6416,-2.6444,-2.6761,-2.6958,-2.7476,-2.7788,-2.8258,-2.859,-2.912,-2.9741,-3.0302,-3.0713,-3.0944,-3.1339,-3.1409,-3.1662,-3.1944,-3.1951,-3.1995,-3.2214,-3.2242,-3.2191,-3.1994,-3.2095,-3.2343,-3.2473,-3.2424,-3.2085,-3.2058,-3.2263,-3.2387,-3.2451,-3.2417,-3.2324,-3.2386,-3.2515,-3.2232,-3.2225,-3.2383,-3.2304,-3.2319,-3.2452,-3.2259,-3.2113,-3.216,-3.2289,-3.2232,-3.2473,-3.2351,-3.2256,-3.244,-3.2522,-3.2477,-3.2308,-3.2516,-3.2444,-3.2578,-3.2533,-3.2619,-3.2498,-3.2646,-3.2727,-3.2633,-3.2605,-3.2596,-3.2588,-3.2547,-3.2656,-3.2622,-3.275,-3.281,-3.2847,-3.2717,-3.2762,-3.2626,-3.2813,-3.2874,-3.2909,-3.2785,-3.2773,-3.2888,-3.2961,-3.3099,-3.2944,-3.2873,-3.2847,-3.2767,-3.2838,-3.2808,-3.2654,-3.2539,-3.2369,-3.2239,-3.2298,-3.2124,-3.2252,-3.2271,-3.2296,-3.2225,-3.2302,-3.2473,-3.2559,-3.2758,-3.3093,-3.3105,-3.2963,-3.3101,-3.3077,-3.3181,-3.2994,-3.3123,-3.3215,-3.3222,-3.3125,-3.3111,-3.3239,-3.3104,-3.3255,-3.3255,-3.2121,-3.0653,-2.9114,-2.7562,-2.638,-2.4165,-2.3482,-2.6235,-3.1321,-3.6889,-3.6731,-3.5269,-3.4493,-3.3677,-3.2776,-3.2228,-3.2279,-3.2196,-3.2133,-3.2289,-3.2338,-3.2248,-3.2368,-3.2245,-3.2268,-3.2167,-3.2116,-3.185,-3.2175,-3.1952,-3.202,-3.1908,-3.1803,-3.1727,-3.1803,-3.1763,-3.1598,-3.1664,-3.1418,-3.14,-3.1501,-3.1282,-3.1104,-3.0921,-3.0943,-3.1065,-3.0877,-3.0524,-3.0481,-3.0349,-3.0066,-3.0084,-2.9812,-2.9526,-2.9416,-2.9392,-2.9086,-2.8818,-2.8864,-2.8599,-2.7764,-2.8082,-2.8348,-2.8021,-2.7837,-2.771,-2.7875,-2.757,-2.6976,-2.6592,-2.6801,-2.6985,-2.7302,-2.7643,-2.7604,-2.7944,-2.9742,-3.0931,-3.1376,-3.1748,-3.116,-3.1686,-3.2013,-3.1747,-3.3236,-3.3565,-3.3606,-3.3848,-3.3497,-3.3846,-3.4105,-3.3566,-3.3986,-3.4173,-3.375,-3.3712,-3.4315,-3.4214,-3.346,-3.4247,-3.3979,-3.4788,-3.4693,-3.4504,-3.4153,-3.3897,-3.4538,-3.4097,-3.4105,-3.389,-3.3692,-3.4447,-3.4172,-3.4048,-3.406,-3.3734,-3.4191,-3.4189,-3.4119,-3.4175,-3.4286,-3.4009,-3.4445,-3.4585,-3.4406,-3.4024,-3.4558,-3.4165,-3.3608,-3.4089,-3.4812,-3.4691,-3.4586,-3.4245,-3.3797,-3.4412,-3.4643,-3.5126,-3.4655,-3.4454,-3.3974,-3.4034,-3.4449,-3.4152,-3.4048,-3.4496,-3.4634,-3.3689,-3.3679,-3.407,-3.3357,-3.4319,-3.4708,-3.444,-3.4456,-3.4599,-3.4557,-3.4687,-3.4933,-3.4817,-3.5027,-3.5144,-3.5035,-3.525,-3.5701,-3.515,-3.4941,-3.541,-3.5488,-3.557,-3.5266,-3.5238,-3.5455,-3.5393,-3.5427,-3.4224,-3.3125,-3.2198,-3.0715,-2.8351,-2.5758,-2.6427,-2.7927,-3.209,-3.825,-3.8488,-3.7298,-3.6375,-3.6063,-3.5131,-3.4547,-3.4859,-3.4744,-3.4552,-3.4642,-3.4974,-3.4451,-3.4286,-3.4438,-3.4808,-3.4807,-3.4624,-3.4687,-3.4524,-3.4295,-3.4423,-3.4266,-3.4174,-3.4366,-3.4331,-3.412,-3.3914,-3.3705,-3.4216,-3.4225,-3.3816,-3.3203,-3.343,-3.306,-3.3441,-3.3703,-3.3295,-3.3498,-3.3094,-3.2999,-3.2571,-3.2516,-3.2355,-3.2235,-3.2216,-3.1672,-3.1616,-3.1576,-3.1041,-3.0587,-3.0298,-3.0957,-3.0987,-3.0726,-3.0208,-3.011,-3.0003,-2.9636,-2.9858,-2.9967,-2.9818,-3.0091,-3.0518,-3.0927,-3.1492,-3.1983,-3.2635,-3.3015,-3.3246,-3.3925,-3.4471,-3.4285,-3.4398,-3.4582,-3.5485,-3.5279,-3.5421,-3.5142,-3.4961,-3.5467,-3.5576,-3.5461,-3.5968,-3.5725,-3.5913,-3.6184,-3.551,-3.5598,-3.5483,-3.5822,-3.5548,-3.5725,-3.5755,-3.5029,-3.5706,-3.6078,-3.568,-3.5285,-3.596,-3.5804,-3.5098,-3.5413,-3.5344,-3.5069,-3.5279,-3.577,-3.5371,-3.5324,-3.575,-3.6029,-3.567,-3.543,-3.5193,-3.555,-3.5622,-3.562,-3.5187,-3.5639,-3.56,-3.5999,-3.5709,-3.5419,-3.6034,-3.5871,-3.5308,-3.5537,-3.5157,-3.4878,-3.6041,-3.6247,-3.527,-3.4887,-3.4793,-3.4819,-3.4155,-3.4521,-3.577,-3.5751,-3.4871,-3.5462,-3.5904,-3.5734,-3.5989,-3.6098,-3.6246,-3.6077,-3.5941
