1.4615,1.4627,1.48,1.482,1.4647,1.4706,1.4589,1.4654,1.4769,1.4331,1.4451,1.4245,1.424,1.4424,1.4513,1.4494,1.4068,1.4223,1.42,1.4055,1.4084,1.4235,1.4069,1.4214,1.4001,1.4021,1.3876,1.4085,1.365,1.414,1.4315,1.4136,1.3766,1.4109,1.449,1.4216,1.3999,1.3973,1.4088,1.4072,1.3958,1.4008,1.4061,1.3787,1.4061,1.4089,1.4069,1.396,1.4245,1.4114,1.3946,1.3771,1.4076,1.3959,1.3913,1.4174,1.3936,1.4137,1.4119,1.3844,1.3765,1.3742,1.3612,1.3754,1.4054,1.4016,1.3729,1.3941,1.4037,1.3917,1.3953,1.3707,1.3683,1.3661,1.3933,1.3947,1.38,1.4002,1.3757,1.3818,1.3808,1.3896,1.3845,1.3633,1.4087,1.4038,1.3913,1.3811,1.3638,1.3555,1.3961,1.3941,1.383,1.3871,1.4053,1.3641,1.3607,1.3983,1.3854,1.3965,1.3852,1.3899,1.3725,1.3731,1.3667,1.3798,1.3761,1.3784,1.3891,1.3956,1.3901,1.3762,1.3776,1.3644,1.392,1.3827,1.3894,1.3527,1.3737,1.3958,1.3863,1.3819,1.3931,1.4114,1.4317,1.433,1.4368,1.4083,1.4319,1.4753,1.474,1.4848,1.442,1.4535,1.4556,1.4152,1.4043,1.3991,1.3727,1.3275,1.3948,1.3362,1.3553,1.3745,1.3699,1.3638,1.3812,1.364,1.3568,1.3634,1.3573,1.3712,1.3513,1.3407,1.341,1.3103,1.2374,1.2151,1.2724,1.4165,1.7477,2.2088,2.5357,2.6419,2.7679,2.9615,2.5226,1.9235,1.3342,1.0477,0.95321,0.86905,0.95464,1.0592,1.1455,1.2459,1.3466,1.3663,1.369,1.3535,1.3656,1.3695,1.3624,1.3636,1.3617,1.3614,1.4031,1.4028,1.3967,1.3735,1.3841,1.3971,1.3785,1.4086,1.3934,1.3914,1.4,1.4025,1.4044,1.4053,1.3638,1.418,1.4058,1.3984,1.3718,1.3957,1.4153,1.398,1.411,1.3842,1.3941,1.3822,1.3875,1.3811,1.3958,1.3999,1.4088,1.4134,1.4091,1.4067,1.4057,1.3934,1.3832,1.4038,1.404,1.3983,1.4209,1.4418,1.4088,1.424,1.4178,1.4045,1.4232,1.4457,1.4527,1.4553,1.4693,1.4682,1.4819,1.474,1.4778,1.4712,1.4934,1.5016,1.5035,1.4847,1.475,1.4952,1.4761,1.4676,1.443,1.4591,1.4765,1.4679,1.4526,1.4488,1.4228,1.4371,1.4509,1.4336,1.436,1.41,1.4143,1.4113,1.4237,1.406,1.4289,1.4401,1.4254,1.4288,1.4217,1.3994,1.4204,1.4197,1.3901,1.4137,1.3967,1.4201,1.422,1.3794,1.3813,1.4065,1.4139,1.4213,1.4115,1.3988,1.4123,1.4068,1.4142,1.3994,1.399,1.3801,1.3751,1.3928,1.3907,1.356,1.377,1.3899,1.4092,1.3967,1.375,1.3651,1.3567,1.3633,1.4216,1.3859,1.3684,1.3756,1.3497,1.3886,1.3569,1.3704,1.3711,1.3474,1.3548,1.3754,1.3786,1.3475,1.3672,1.3686,1.3565,1.3479,1.3357,1.397,1.3658,1.37,1.3781,1.3709,1.3717,1.3599,1.3888,1.3676,1.3401,1.3619,1.3569,1.3572,1.3687,1.3679,1.3729,1.3745,1.377,1.3499,1.361,1.3405,1.3529,1.3518,1.3786,1.3516,1.3393,1.3376,1.3671,1.3662,1.3653,1.3613,1.3719,1.3561,1.3835,1.3915,1.3981,1.416,1.4014,1.4003,1.41,1.4461,1.4416,1.4481,1.4486,1.4461,1.4381,1.4372,1.3907,1.4127,1.3705,1.3483,1.3334,1.3457,1.335,1.3252,1.3289,1.3183,1.3695,1.3741,1.3435,1.3491,1.3293,1.3594,1.3536,1.354,1.3142,1.2698,1.2332,1.2049,1.184,1.3369,1.6059,2.0164,2.4137,2.6148,2.7297,2.7555,2.5852,2.0331,1.4386,1.0871,0.93818,0.86301,0.87799,0.90652,1.0547,1.1972,1.2554,1.2987,1.3135,1.3655,1.3381,1.3399,1.3452,1.3497,1.3313,1.3366,1.3435,1.3808,1.3715,1.3758,1.3779,1.3781,1.3726,1.3688,1.365,1.3621,1.3653,1.3658,1.3793,1.3868,1.3533,1.361,1.4027,1.4007,1.38,1.3929,1.3935,1.3926,1.3956,1.377,1.392,1.3577,1.3851,1.3768,1.4111,1.3768,1.3936,1.3803,1.3853,1.4007,1.4159,1.3949,1.3776,1.3994,1.4003,1.4028,1.3853,1.4004,1.3938,1.4082,1.3975,1.4275,1.4122,1.4321,1.4343,1.4137,1.4098,1.4332,1.4643,1.4856,1.4642,1.4618,1.4546,1.4722,1.4794,1.461,1.4689,1.4673,1.4535,1.4622,1.4548,1.439,1.4326,1.4399,1.4438,1.4177,1.3867,1.3971,1.4259,1.4023,1.4107,1.3997,1.414,1.3789,1.4165,1.413,1.4242,1.4133,1.4119,1.3968,1.4093,1.4069,1.408,1.4105,1.4123,1.4278,1.4055,1.4053,1.4135,1.4198,1.4164,1.4117,1.4118,1.3995,1.4164,1.4278,1.4322,1.3966,1.4325,1.4111,1.4072,1.4075,1.3972,1.3867,1.3676,1.4165,1.4266,1.395,1.407,1.3962,1.3907,1.3919,1.3728,1.3604,1.382,1.4022,1.3973,1.3744,1.3997,1.3896,1.3753,1.3762,1.3743,1.3683,1.37,1.3994,1.3731,1.3897,1.3472,1.3814,1.3738,1.386,1.3564,1.3766,1.3753,1.3677,1.3559,1.372,1.3553,1.3665,1.3814,1.3836,1.3739,1.344,1.3596,1.377,1.3718,1.382,1.3662,1.3471,1.3637,1.3405,1.3518,1.3752,1.3909,1.3739,1.385,1.405,1.4076,1.432,1.4239,1.4191,1.4396,1.4184,1.4193,1.4456,1.4342,1.4058,1.396,1.3701,1.3446,1.3171,1.3199,1.3313,1.3336,1.3156,1.3386,1.3267,1.3217,1.3086,1.3011,1.3321,1.3231,1.3145,1.3012,1.2975,1.3257,1.2901,1.233,1.1919,1.232,1.3069,1.5299,1.9359,2.1238,2.4524,2.6224,2.8083,2.7186,2.1296,1.5495,1.1508,0.94911,0.86354,0.84923,0.92119,1.0513,1.1872,1.2766,1.2917,1.3289,1.327,1.3279,1.3395,1.337,1.3261,1.3241,1.3535,1.3662,1.3467,1.3393,1.3433,1.3596,1.342,1.3512,1.3366,1.356,1.3678,1.3956,1.3594,1.339,1.3598,1.3739,1.362,1.3621,1.3588,1.3929,1.362,1.3536,1.3885,1.3483,1.3608,1.3797,1.3746,1.3667,1.3433,1.3412,1.3765,1.3421,1.3735,1.3889,1.3644,1.3837,1.3699,1.3698,1.3845,1.3621,1.3521,1.3935,1.3773,1.3909,1.3666,1.3736,1.4052,1.4065,1.4041,1.3921,1.3978,1.426,1.4207,1.42,1.4292,1.4441,1.4561,1.4451,1.4451,1.4434,1.4453,1.4376,1.428,1.4488,1.3878,1.4194,1.4118,1.4085,1.4179,1.4049,1.406,1.3919,1.395,1.3701,1.3788,1.3711,1.4015,1.4064,1.3772,1.3739,1.3701,1.3608,1.3841,1.3836,1.3749,1.3941,1.3898,1.3978,1.4104,1.3837,1.371,1.3747,1.3774,1.3873,1.4078,1.3945,1.3804,1.3793,1.3776,1.3859,1.3763,1.3666,1.3765,1.3913,1.3884,1.37,1.3796,1.3754,1.3605,1.3619,1.3843,1.3637,1.3861,1.3659,1.3763,1.3606,1.3601,1.3707,1.3837,1.345,1.3683,1.3573,1.355,1.3587,1.362,1.3561,1.3713,1.3545,1.3728,1.395,1.362,1.3551,1.3541,1.3918,1.3887,1.365,1.3628,1.3463,1.3671,1.3693,1.3642,1.3914,1.3819,1.3662,1.3707,1.3572,1.3437,1.3889,1.3933,1.3843,1.3576,1.3938,1.3633,1.368,1.3656,1.3672,1.3683,1.3703,1.3801,1.3612,1.3738,1.3528,1.3923,1.366,1.3449,1.3517,1.3454,1.3683,1.3783,1.377,1.3689,1.4084,1.3801,1.3583,1.3756,1.3954,1.3727,1.3999,1.4207,1.4351,1.446,1.4191,1.4022,1.4552,1.4509,1.476,1.4669,1.4751,1.4596,1.4471,1.4563,1.413,1.3882,1.3486,1.3509,1.3538,1.3551,1.3328,1.3517,1.3454,1.3517,1.37,1.3449,1.3435,1.362,1.3517,1.3651,1.3611,1.343,1.3318,1.2505,1.2096,1.209,1.3597,1.4778,1.8518,2.2624,2.5507,2.7134,2.9443,2.6676,2.0179,1.4703,1.0435,0.9833,0.86668,0.91361,1.0024,1.1442,1.2444,1.3342,1.3298,1.342,1.3429,1.3435,1.345,1.3594,1.3384,1.3652,1.3465,1.3629,1.3574,1.3733,1.3647,1.3709,1.3856,1.3707,1.3738,1.3658,1.3683,1.3896,1.3716,1.3843,1.3747,1.3573,1.3748,1.3924,1.3823,1.3552,1.3573,1.3829,1.3991,1.3855,1.3755,1.3707,1.3941,1.3898,1.3712,1.367,1.3623,1.3713,1.394,1.3711,1.3677,1.3671,1.3729,1.3786,1.3902,1.3852,1.39,1.3644,1.3884,1.4061,1.4113,1.3988,1.3898,1.4072,1.4155,1.4264,1.416,1.3989,1.4396,1.453,1.446,1.449,1.4721,1.473,1.4786,1.4654,1.45,1.4446,1.4555,1.46,1.43,1.4298,1.4706,1.4363,1.4352,1.4447,1.4278,1.4178,1.3973,1.4152,1.4267,1.4286,1.4251,1.3891,1.3888,1.3966,1.4072,1.4144,1.4055,1.4118,1.4129,1.4036,1.3761,1.3844,1.4112,1.4066,1.4036,1.4117,1.3949,1.3668,1.3975,1.4352,1.4081,1.3893,1.4099,1.3878,1.4062,1.3695,1.407,1.3964,1.409,1.3991,1.4022,1.3813,1.3674,1.401,1.3937,1.3961,1.4112,1.4024,1.3754,1.3793,1.381,1.3911,1.3858,1.3711,1.4229,1.3855,1.3829,1.3991,1.3953,1.3792,1.4018,1.3634,1.3663,1.3897,1.4018,1.389,1.365,1.3827,1.3811,1.3967,1.396,1.386,1.369,1.3971,1.3753,1.3658,1.3619,1.3887,1.354,1.3641,1.3669,1.3702,1.3796,1.3983,1.3649,1.3834,1.3459,1.378,1.3625,1.3836,1.3829,1.3747,1.3617,1.3701,1.3706,1.3464,1.3625,1.3523,1.3882,1.3811,1.3831,1.3719,1.3437,1.3497,1.3503,1.3877,1.3733,1.3816,1.3659,1.3833,1.4053,1.4327,1.4068,1.4087,1.4477,1.4448,1.4732,1.4352,1.4258,1.4594,1.4271,1.4112,1.3809,1.3569,1.3631,1.3331,1.3358,1.3136,1.3458,1.3583,1.3709,1.3629,1.3295,1.346,1.3443,1.3456,1.3372,1.3409,1.3362,1.3127,1.2507,1.2135,1.2203,1.2835,1.463,1.8625,2.0764,2.4084,2.6494,2.7356,2.7567,2.2443,1.7026,1.2246,1.0217,0.92892,0.88163,0.87242,0.9814,1.1483,1.2424,1.3072,1.3258,1.3342,1.3616,1.3622,1.3474,1.3631,1.3437,1.3932,1.3747,1.3707,1.373,1.3536,1.3835,1.4175,1.3987,1.3747,1.3982,1.371,1.3646,1.4014,1.4011,1.39,1.3904,1.3655,1.4021,1.4056,1.3835,1.4104,1.3888,1.3708,1.41,1.4056,1.3847,1.4287,1.4202,1.4075,1.3697,1.4027,1.4278,1.4145,1.4062,1.3947,1.3857,1.3869,1.3941,1.4042,1.4081,1.3637,1.409,1.4144,1.4224,1.414,1.374,1.4039,1.4351,1.3951,1.4095,1.4102,1.436,1.4292,1.472,1.4381,1.4517,1.4657,1.464,1.4775,1.462,1.4817,1.4668,1.4626,1.4715,1.4393,1.4742,1.4266,1.433,1.4767,1.4162,1.4201,1.4095,1.4358,1.452,1.4378,1.3984,1.4136,1.3911,1.4039,1.4229,1.4006,1.3954,1.3965,1.3942,1.433,1.4208,1.4072,1.417,1.4119,1.4327,1.4384,1.4203,1.417,1.4219,1.3903,1.3978,1.4065,1.4146,1.4269,1.4195,1.4349,1.4016,1.3939,1.4268,1.4203,1.3873,1.3957,1.4207,1.4232,1.4119,1.3905,1.3849,1.3731,1.3961,1.4244,1.4112,1.4178,1.4,1.3752,1.3792,1.3698,1.3714,1.4207,1.4035,1.3845,1.3804,1.3927,1.3731,1.3746,1.3745,1.3913,1.4123,1.3913,1.3854,1.3603,1.3661,1.3919,1.3545,1.372,1.394,1.3707,1.3748,1.3955,1.3732,1.3914,1.3981,1.3652,1.3873,1.3781,1.3773,1.3877,1.3958,1.3749,1.3852,1.3978,1.4368,1.4599,1.4604,1.4275,1.4327,1.4828,1.48,1.4833,1.4934,1.4507,1.4853,1.4792,1.4485,1.4305,1.3829,1.3723,1.3778,1.3684,1.3647,1.3414,1.3593,1.3622,1.3447,1.3444,1.3694,1.3604,1.3414,1.3459,1.341,1.3612,1.3579,1.3045,1.2281,1.2216,1.2781,1.4107,1.7359,2.1185,2.4554,2.5752,2.683,2.8764,2.5453,1.9379,1.3883,1.0546,0.96902,0.87367,0.87329,0.99339,1.1414,1.244,1.335,1.3348,1.3419,1.338,1.3558,1.3648,1.3734,1.3662,1.3627,1.3709,1.3781,1.3934,1.3711,1.383,1.3809,1.3832,1.4089,1.4033,1.3878,1.4013,1.4163,1.3946,1.3536,1.3848,1.3876,1.3878,1.4023,1.3962,1.389,1.4222,1.4129,1.4077,1.3923,1.4055,1.3954,1.4098,1.422,1.3996,1.3642,1.3896,1.4227,1.451,1.4193,1.4206,1.4029,1.4144,1.4085,1.4019,1.4105,1.4021,1.4407,1.4306,1.4301,1.4365,1.4352,1.4453,1.4615,1.4441,1.4486,1.4425,1.4599,1.4592,1.4759,1.4664,1.4804,1.4946,1.5028,1.4902,1.4809,1.4781,1.498,1.4701,1.4944,1.4834,1.4697,1.4953,1.4728,1.4512,1.4435,1.4582,1.4557,1.4533,1.4437,1.4529,1.4428,1.4227,1.4262,1.4215,1.4385,1.4682,1.4465,1.4589,1.4155,1.4571,1.4658,1.458,1.4655,1.4389,1.4381,1.4453,1.444,1.4264,1.4231,1.4651,1.4228,1.4444,1.462,1.4398,1.4393,1.4341,1.4087,1.4286,1.434,1.4562,1.4324,1.412,1.4311,1.4113,1.4232,1.4058,1.4266,1.4333,1.4388,1.4234,1.417,1.4231,1.4189,1.4315,1.423,1.3957,1.4035,1.4337,1.4338,1.4183,1.3904,1.3934,1.4321,1.4183,1.4097,1.4263,1.4382,1.4128,1.4111,1.3975,1.3804,1.3899,1.4218,1.42,1.4366,1.4154,1.3946,1.394,1.397,1.4203,1.4314,1.4052,1.4077,1.408,1.4243,1.4426,1.4303,1.4741,1.4774,1.4755,1.4945,1.4993,1.5009,1.47,1.5112,1.495,1.5104,1.5003,1.4795,1.4754,1.4343,1.3883,1.3892,1.3868,1.3725,1.4032,1.4006,1.3836,1.3948,1.3967,1.3951,1.397,1.373,1.3691,1.3839,1.404,1.3924,1.3571,1.2947,1.2717,1.2618,1.363,1.5683,1.9596,2.3795,2.6429,2.7735,2.9648,2.5666,1.9388,1.6798,1.218,1.0042,0.94472,0.92348,1.005,1.1581,1.2849,1.3598,1.3923,1.3979,1.3847,1.3931,1.4052,1.4007,1.4367,1.4249,1.414,1.4182,1.4199,1.4025,1.43,1.4442,1.4563,1.4471,1.4491,1.442,1.452,1.4335,1.4351,1.4524,1.4557,1.4547,1.4369,1.3941,1.4697,1.4608,1.4604,1.4607,1.4404,1.4421,1.4438,1.4372,1.4413,1.4193,1.4624,1.4598,1.4439,1.4592,1.4282,1.4171,1.4487,1.46,1.4269,1.4338,1.4638,1.4533,1.4304,1.4183,1.443,1.4949,1.4641,1.4772,1.4628,1.475,1.4596,1.4862,1.4918,1.486,1.4954,1.4951,1.515,1.5162,1.4984,1.5277,1.5166,1.5327,1.529,1.4915,1.486,1.5019,1.4848,1.5099,1.5022,1.497,1.4856,1.452,1.4499,1.4937,1.4599,1.4482,1.4657,1.4721,1.4472,1.4524,1.4709,1.468,1.4718,1.4612,1.4526,1.4614,1.4747,1.4859,1.4679,1.4458,1.4355,1.431,1.4536,1.4621,1.4449,1.4544,1.4884,1.4543,1.4462,1.4293,1.4212,1.4601,1.468,1.4539,1.4547,1.4269,1.4346,1.441,1.4285,1.4245,1.4139,1.4113,1.4428,1.4423,1.4302,1.4263,1.4289,1.4219,1.4309,1.4446,1.4125,1.442,1.4332,1.4552,1.4396,1.4146,1.4168,1.3927,1.4283,1.4225,1.4252,1.41,1.4038,1.436,1.4276,1.418,1.4302,1.444,1.4377,1.4201,1.4416,1.4877,1.4925,1.4787,1.4865,1.474,1.5088,1.5244,1.533,1.5294,1.5337,1.5033,1.4723,1.4813,1.467,1.4761,1.4075,1.4126,1.3978,1.4002,1.4009,1.3948,1.4335,1.426,1.4223,1.4076,1.3954,1.4119,1.385,1.4022,1.4237,1.4116,1.398,1.3171,1.2713,1.2735,1.3195,1.4913,1.8907,2.2893,2.599,2.7117,2.8427,2.7898,2.324,1.7509,1.2843,1.0303,0.93944,0.93871,0.95104,1.0133,1.1479,1.2608,1.3428,1.3774,1.3834,1.3839,1.3843,1.392,1.4032,1.3988,1.4143,1.3988,1.4186,1.4142,1.4127,1.4085,1.4332,1.4213,1.4301,1.4281,1.4405,1.4294,1.4122,1.4305,1.4398,1.4438,1.437,1.4371,1.4216,1.4343,1.4403,1.4334,1.4259,1.432,1.4283,1.4247,1.4493,1.434,1.4358,1.4242,1.4333,1.4436,1.4175,1.4488,1.4539,1.4361,1.4021,1.4189,1.4494,1.46,1.4677,1.4322,1.4199,1.4538,1.4678,1.4709,1.4389,1.4559,1.4596,1.4794,1.4707,1.4748,1.501,1.5206,1.4996,1.5329,1.5002,1.4912,1.5058,1.5419,1.5581,1.5277,1.5368,1.5225,1.519,1.4864,1.4983,1.5094,1.4957,1.4679,1.4872,1.4623,1.4609,1.4776,1.4876,1.4839,1.452,1.4572,1.4826,1.4564,1.4722,1.4844,1.4848,1.4737,1.4819,1.4667,1.4558,1.4739,1.4835,1.4912,1.4595,1.4694,1.4537,1.506,1.4854,1.4764,1.4987,1.4754,1.4596,1.4942,1.4797,1.4819,1.5221,1.5021,1.4608,1.484,1.4977,1.4663,1.4669,1.474,1.4559,1.4668,1.4572,1.461,1.4464,1.4745,1.4747,1.4691,1.4532,1.476,1.5132,1.513,1.5103,1.4782,1.5084,1.5343,1.5062,1.5201,1.5252,1.559,1.5652,1.5462,1.5468,1.5089,1.5024,1.4824,1.4651,1.4262,1.3787,1.3961,1.4366,1.4334,1.3976,1.4093,1.3993,1.4067,1.4212,1.3994,1.4206,1.3926,1.4162,1.4269,1.4116,1.3888,1.3394,1.2667,1.2671,1.2999,1.4422,1.5718,1.9345,2.3701,2.6139,2.7502,2.8955,2.533,1.9715,1.4343,1.0892,0.95475,0.89671,0.94169,0.99542,1.1804,1.2677,1.3697,1.3747,1.3896,1.3828,1.3947,1.3943,1.3965,1.4096,1.4178,1.412,1.4099,1.4133,1.4337,1.4262,1.4089,1.4047,1.4428,1.4286,1.4263,1.4262,1.4287,1.4143,1.4481,1.4403,1.4307,1.4439,1.4238,1.4497,1.4518,1.4443,1.4476,1.4456,1.4573,1.4484,1.4378,1.4409,1.4293,1.4389,1.4523,1.4579,1.4377,1.4485,1.4707,1.4362,1.4298,1.4428,1.4511,1.4532,1.4764,1.4508,1.4425,1.461,1.4745,1.4665,1.4554,1.4493,1.4472,1.4789,1.4808,1.5006,1.4787,1.4848,1.5367,1.529,1.5266,1.5193,1.5138,1.5001,1.5255,1.5151,1.5028,1.4816,1.5104,1.4986,1.4711,1.4732,1.4676,1.4741,1.4568,1.4532,1.4575,1.4394,1.452,1.4553,1.4681,1.4551,1.4333,1.4524,1.446,1.4652,1.4662,1.4635,1.4487,1.4809,1.4504,1.4411,1.4612,1.493,1.4617,1.4594,1.4474,1.482,1.4654,1.4577,1.4451,1.4736,1.4232,1.4209,1.4692,1.4877,1.4588,1.4287,1.4305,1.4603,1.475,1.4566,1.457,1.4136,1.4355,1.4564,1.4416,1.4329,1.425,1.4332,1.4241,1.4132,1.4301,1.4269,1.4558,1.4566,1.4545,1.4831,1.4835,1.4818,1.5139,1.4955,1.4916,1.5129,1.5029,1.5501,1.5389,1.5162,1.4808,1.5088,1.5111,1.4992,1.4778,1.4449,1.3976,1.416,1.408,1.4331,1.4005,1.3796,1.403,1.4111,1.4009,1.4096,1.4118,1.4142,1.43,1.4122,1.4293,1.4011,1.3698,1.3825,1.2986,1.2774,1.2931,1.4176,1.7717,2.1597,2.5376,2.7021,2.8958,2.8741,2.3258,1.721,1.2431,0.99057,0.94481,0.89919,0.97205,1.0507,1.2273,1.3419,1.3941,1.4269,1.4323,1.3991,1.3948,1.4268,1.4545,1.4105,1.4401,1.4177,1.4607,1.4458,1.4352,1.4115,1.4155,1.4637,1.4915,1.4769,1.457,1.464,1.474,1.4816,1.4578,1.4549,1.4624,1.471,1.4773,1.4673,1.4268,1.4569,1.4926,1.485,1.4832,1.462,1.4632,1.4838,1.4564,1.4694,1.4834,1.4611,1.4592,1.4415,1.4624,1.4467,1.479,1.4609,1.4709,1.475,1.4763,1.4806,1.4657,1.4854,1.4985,1.4731,1.4952,1.506,1.5062,1.5018,1.5075,1.4974,1.5174,1.5456,1.5546,1.5362,1.5548,1.5739,1.5518,1.5628,1.5737,1.5616,1.537,1.5567,1.5543,1.5335,1.5101,1.5131,1.5411,1.5046,1.5186,1.5132,1.4977,1.5177,1.4967,1.5363,1.5144,1.5269,1.4831,1.5194,1.5041,1.523,1.5168,1.5108,1.4793,1.518,1.5119,1.5224,1.5073,1.5303,1.5031,1.4594,1.4814,1.51,1.5236,1.5086,1.4733,1.4924,1.4769,1.4611,1.4891,1.5058,1.4959,1.4808,1.4851,1.4629,1.4461,1.4477,1.4646,1.5136,1.4816,1.492,1.4618,1.4633,1.4635,1.4535,1.5053,1.4718,1.4699,1.4751,1.4875,1.4446,1.4526,1.4631,1.486,1.4787,1.4953,1.4711,1.4657,1.4702,1.4362,1.4992,1.4824,1.4785,1.4764,1.4612,1.4484,1.4829,1.4796,1.5048,1.536,1.5214,1.516,1.5475,1.5481,1.5657,1.5743,1.5298,1.5474,1.5374,1.5338,1.477,1.5074,1.4814,1.4345,1.4345,1.4288,1.4285,1.4221,1.4081,1.4126,1.4368,1.4494,1.4117,1.428,1.4202,1.4357,1.413,1.411,1.4414,1.4183,1.3705,1.284,1.2886,1.3329,1.4279,1.7531,2.1496,2.5248,2.7116,2.9025,2.8997,2.3468,1.761,1.2664,1.1052,1.0267,0.92372,0.95806,1.0621,1.2292,1.3489,1.4131,1.3966,1.4165,1.4045,1.4265,1.4237,1.4535,1.4408,1.4393,1.4476,1.4388,1.4056,1.4181,1.4543,1.4709,1.4723,1.4638,1.4553,1.4677,1.4634,1.4526,1.4416,1.4598,1.4775,1.4535,1.4775,1.48,1.4336,1.4855,1.4812,1.4594,1.478,1.4623,1.4622,1.4768,1.4673,1.4754,1.4697,1.4899,1.484,1.4664,1.4798,1.4634,1.4708,1.4526,1.4667,1.4803,1.4819,1.4669,1.4725,1.4811,1.4945,1.5036,1.4759,1.4578,1.5009,1.4996,1.4998,1.5416,1.514,1.5105,1.5384,1.5427,1.5343,1.5474,1.5561,1.5594,1.5809,1.5415,1.5625,1.5682,1.5506,1.535,1.5311,1.5284,1.5464,1.5351,1.515,1.5394,1.5271,1.5227,1.5182,1.5119,1.5223,1.4993,1.5037,1.4949,1.5353,1.5091,1.5146,1.5152,1.5097,1.5119,1.5189,1.5229,1.4923,1.5043,1.5131,1.5323,1.5206,1.4877,1.4965,1.5288,1.5152,1.4849,1.492,1.502,1.5124,1.4861,1.4954,1.483,1.4983,1.5192,1.4946,1.4786,1.5085,1.4894,1.4863,1.4667,1.4651,1.4854,1.4846,1.4989,1.5094,1.4843,1.4539,1.4847,1.4519,1.4672,1.4847,1.4647,1.4677,1.4807,1.4856,1.4545,1.4724,1.4652,1.4843,1.4601,1.4692,1.4646,1.4607,1.4576,1.4545,1.4604,1.4484,1.4612,1.4598,1.4849,1.4681,1.4765,1.5016,1.5176,1.511,1.5017,1.5062,1.526,1.5414,1.57,1.5586,1.525,1.5177,1.5131,1.5086,1.5047,1.4831,1.4576,1.424,1.4454,1.4244,1.4162,1.4213,1.427,1.4384,1.4184,1.4218,1.4333,1.4095,1.4219,1.443,1.4248,1.3998,1.4181,1.4213,1.3489,1.3069,1.3181,1.3317,1.5418,1.9379,2.1494,2.4933,2.7069,2.8291,2.8654,2.3331,1.737,1.3077,1.0641,0.9479,0.93889,0.957,1.0823,1.2466,1.3588,1.3855,1.4082,1.4288,1.4094,1.4135,1.4516,1.4331,1.4282,1.4328,1.4418,1.4324,1.431,1.44,1.4457,1.4528,1.4438,1.4167,1.4509,1.4432,1.4391,1.4678,1.4429,1.452,1.4517,1.4346,1.4232,1.4316,1.4481,1.4603,1.4727,1.4539,1.4496,1.4303,1.4392,1.4366,1.4328,1.4541,1.444,1.4216,1.424,1.4031,1.3974,1.4602,1.4493,1.4291,1.4232,1.4303,1.4116,1.3864,1.4168,1.4314,1.4358,1.4075,1.4112,1.4137,1.4376,1.4413,1.4076,1.4311,1.4338,1.4742,1.4969,1.47,1.4827,1.4946,1.5087,1.5101,1.4947,1.4998,1.4899,1.47,1.4632,1.4821,1.4785,1.456,1.4459,1.4465,1.4732,1.4902,1.4436,1.4754,1.4352,1.4302,1.4526,1.4449,1.4387,1.451,1.4387,1.4384,1.4382,1.4422,1.4451,1.4442,1.4517,1.4338,1.4199,1.4653,1.4657,1.4559,1.4525,1.435,1.4589,1.4422,1.4319,1.4265,1.4196,1.4526,1.4543,1.4539,1.4363,1.4227,1.4499,1.4272,1.4446,1.4268,1.4241,1.4456,1.4456,1.4384,1.407,1.4329,1.4158,1.4271,1.4187,1.4142,1.4245,1.3993,1.4178,1.4388,1.429,1.4082,1.4134,1.4168,1.4166,1.4437,1.4599,1.4646,1.4627,1.4641,1.4486,1.4602,1.5026,1.5122,1.5069,1.5083,1.5076,1.5096,1.5131,1.4724,1.4596,1.4654,1.4328,1.3912,1.4108,1.3978,1.3727,1.3753,1.3918,1.4047,1.3771,1.402,1.3958,1.3847,1.3898,1.3969,1.3687,1.3866,1.4219,1.403,1.3952,1.32,1.2738,1.2578,1.2897,1.4098,1.7318,2.1517,2.4979,2.659,2.8061,2.7249,2.2227,1.6455,1.3943,1.1242,0.95625,0.88761,0.9047,1.005,1.112,1.2553,1.3264,1.375,1.3928,1.3648,1.3577,1.3868,1.4134,1.4433,1.4042,1.3984,1.3904,1.4319,1.4059,1.4345,1.4126,1.4302,1.4205,1.4211,1.4362,1.4433,1.4158,1.4343,1.4304,1.4361,1.4592,1.4146,1.4332,1.4326,1.4559,1.4503,1.4386,1.4661,1.4397,1.4543,1.4094,1.4317,1.4315,1.447,1.4676,1.4596,1.4263,1.442,1.4391,1.4511,1.4445,1.4421,1.4473,1.4418,1.4432,1.462,1.446,1.429,1.4391,1.4616,1.4666,1.4579,1.4729,1.4563,1.4671,1.4692,1.49,1.514,1.4955,1.5074,1.5251,1.5199,1.5281,1.5071,1.5229,1.5115,1.5375,1.5179,1.4978,1.4892,1.4996,1.4876,1.4845,1.4779,1.4921,1.4673,1.4457,1.4581,1.4869,1.4688,1.4754,1.4564,1.4752,1.4541,1.4596,1.4765,1.4701,1.4665,1.4722,1.4423,1.4841,1.4711,1.4625,1.4937,1.4994,1.4773,1.463,1.467,1.4623,1.4588,1.4657,1.4888,1.4519,1.4579,1.4755,1.4657,1.4567,1.4765,1.4445,1.4417,1.4552,1.4578,1.4495,1.4581,1.4615,1.4674,1.4518,1.4557,1.4564,1.4267,1.4587,1.4763,1.4445,1.4306,1.4256,1.4262,1.4367,1.4427,1.4693,1.4619,1.4473,1.4408,1.4446,1.4217,1.4351,1.4475,1.4566,1.4524,1.4527,1.449,1.4334,1.4196,1.4426,1.438,1.4272,1.4522,1.454,1.4474,1.4394,1.4205,1.433,1.4509,1.4481,1.43,1.4454,1.422,1.4392,1.4486,1.4355,1.4364,1.4296,1.4262,1.4766,1.4808,1.4773,1.5027,1.4876,1.4956,1.5119,1.5337,1.5227,1.5301,1.535,1.5236,1.5068,1.4965,1.4864,1.4552,1.392,1.4309,1.4053,1.424,1.4155,1.4115,1.4143,1.4115,1.4073,1.4144,1.4083,1.4143,1.413,1.4152,1.4359,1.4142,1.4092,1.3534,1.2975,1.288,1.3044,1.4018,1.7189,2.1387,2.505,2.7115,2.8579,2.9842,2.6992,2.103,1.5166,1.1586,0.98815,0.91427,0.95138,1.0775,1.2048,1.3095,1.3897,1.4067,1.4028,1.4141,1.4435,1.4486,1.4518,1.4524,1.4285,1.4248,1.4264,1.4425,1.4243,1.4812,1.4633,1.4679,1.449,1.453,1.4472,1.4941,1.4709,1.4523,1.4849,1.4733,1.4807,1.4661,1.4675,1.4603,1.4773,1.4906,1.4806,1.4702,1.4759,1.468,1.4854,1.4719,1.466,1.4808,1.4734,1.485,1.5043,1.469,1.4783,1.4762,1.4751,1.459,1.4791,1.4561,1.4835,1.4622,1.4971,1.4837,1.4762,1.4763,1.5087,1.4989,1.4838,1.5133,1.5086,1.5099,1.4966,1.5272,1.5435,1.5669,1.5334,1.5544,1.5784,1.5596,1.5511,1.5393,1.6006,1.5764,1.557,1.5616,1.5467,1.5503,1.5106,1.5135,1.5393,1.5421,1.541,1.5266,1.5228,1.5123,1.5116,1.5294,1.5117,1.4888,1.5034,1.5177,1.5107,1.5335,1.524,1.5267,1.5278,1.5157,1.5079,1.5086,1.4964,1.5153,1.5276,1.5046,1.5188,1.533,1.5318,1.5263,1.5251,1.5086,1.4995,1.5044,1.5007,1.4977,1.4794,1.4895,1.4968,1.5039,1.5172,1.4874,1.4787,1.4909,1.4822,1.5063,1.4783,1.4767,1.4992,1.4834,1.4838,1.4921,1.4868,1.4872,1.4967,1.4804,1.4796,1.4872,1.4755,1.4624,1.4889,1.49,1.4708,1.4852,1.456,1.4736,1.4834,1.4943,1.488,1.4655,1.4805,1.5034,1.4614,1.4663,1.4708,1.457,1.4687,1.459,1.4659,1.47,1.4864,1.4745,1.4698,1.4756,1.4798,1.4793,1.4879,1.4757,1.4546,1.468,1.4672,1.4832,1.4701,1.4956,1.4809,1.4716,1.477,1.4709,1.4942,1.4778,1.4577,1.4805,1.4735,1.4705,1.4883,1.4882,1.4809,1.4629,1.4829,1.4672,1.4571,1.4733,1.4979,1.4835,1.4754,1.4757,1.4811,1.4642,1.4572,1.473,1.4818,1.4837,1.4801,1.4722,1.5078,1.5167,1.5195,1.5441,1.5304,1.4925,1.5389,1.548,1.5448,1.5628,1.574,1.5855,1.5515,1.526,1.5276,1.5112,1.4539,1.4596,1.479,1.4587,1.42,1.4419,1.4902,1.4847,1.4417,1.4441,1.4503,1.4639,1.4655,1.4403,1.4607,1.4661,1.4441,1.3866,1.3424,1.3273,1.3957,1.5609,1.9379,2.3402,2.6427,2.7448,2.9377,2.7358,2.1193,1.5585,1.3282,1.1217,1.0053,1.0165,1.0214,1.1136,1.2085,1.3493,1.4249,1.4412,1.4372,1.4453,1.4332,1.4757,1.4457,1.4726,1.4494,1.4827,1.488,1.4915,1.4807,1.4881,1.4872,1.4857,1.4941,1.4857,1.4815,1.5083,1.4919,1.4894,1.4868,1.4869,1.4818,1.4982,1.4955,1.4729,1.4923,1.4967,1.4962,1.5038,1.4887,1.4972,1.4946,1.4874,1.4801,1.4747,1.4823,1.4935,1.4861,1.5012,1.4857,1.4766,1.488,1.4857,1.4762,1.4523,1.4763,1.4819,1.4844,1.4876,1.4759,1.4889,1.4742,1.4871,1.4856,1.4985,1.4856,1.4817,1.5053,1.5152,1.5142,1.5344,1.5392,1.558,1.5631,1.5515,1.5517,1.5603,1.5561,1.5386,1.5365,1.5719,1.5758,1.5429,1.512,1.5581,1.5343,1.4956,1.5055,1.5099,1.5126,1.485,1.5332,1.5108,1.5246,1.518,1.5085,1.4944,1.5006,1.5045,1.5387,1.5317,1.5302,1.5087,1.5289,1.5218,1.5155,1.4988,1.5082,1.5131,1.5124,1.5274,1.5213,1.5102,1.5146,1.5163,1.4996,1.5038,1.5101,1.5059,1.5062,1.4943,1.5235,1.4993,1.4694,1.4786,1.4976,1.4755,1.4842,1.5114,1.4931,1.4729,1.4918,1.4921,1.4787,1.4755,1.4817,1.4621,1.4512,1.473,1.4803,1.4691,1.4482,1.4476,1.4642,1.4441,1.48,1.4828,1.4708,1.4795,1.5005,1.4749,1.4581,1.4459,1.4546,1.4688,1.4525,1.4693,1.4562,1.4686,1.4644,1.4907,1.4653,1.4533,1.4758,1.4794,1.4666,1.4725,1.4732,1.4666,1.4765,1.4666,1.4488,1.4434,1.4859,1.475,1.4355,1.4694,1.4572,1.481,1.462,1.4625,1.4413,1.4764,1.4933,1.4704,1.4915,1.5109,1.5102,1.5137,1.4967,1.5308,1.5662,1.5646,1.5438,1.5548,1.5595,1.5477,1.5319,1.5143,1.4882,1.4778,1.4512,1.4493,1.4457,1.4359,1.4386,1.4478,1.4179,1.4405,1.4353,1.4631,1.4441,1.4449,1.4619,1.4385,1.451,1.4227,1.382,1.293,1.2946,1.3557,1.5274,1.8407,2.2275,2.5498,2.7279,2.9233,2.8521,2.2516,1.6612,1.2395,1.0362,0.97419,0.96954,1.0416,1.1579,1.2439,1.3432,1.4275,1.4351,1.4336,1.4467,1.4522,1.4356,1.4495,1.4637,1.4879,1.4901,1.4572,1.4789,1.4887,1.4776,1.4687,1.481,1.4841,1.479,1.4859,1.497,1.5011,1.4939,1.4954,1.4925,1.513,1.4922,1.476,1.4833,1.5086,1.4962,1.4873,1.5138,1.4935,1.5135,1.5096,1.4953,1.4929,1.49,1.4906,1.5124,1.4934,1.5072,1.4956,1.4738,1.5031,1.494,1.4861,1.499,1.5205,1.5056,1.4908,1.5021,1.5106,1.5125,1.5073,1.5081,1.4913,1.5067,1.5094,1.5306,1.555,1.5592,1.5257,1.5744,1.5721,1.5656,1.5845,1.5666,1.6028,1.5775,1.5964,1.5728,1.5581,1.5395,1.5393,1.5075,1.5616,1.5464,1.5475,1.5268,1.5015,1.5225,1.5033,1.5193,1.5008,1.5144,1.5273,1.508,1.5199,1.5298,1.5239,1.5051,1.5085,1.5002,1.5201,1.5061,1.4876,1.4971,1.4965,1.5145,1.5246,1.5264,1.4973,1.491,1.5294,1.5138,1.5008,1.5185,1.5072,1.5041,1.4995,1.5237,1.5061,1.4983,1.4836,1.4999,1.5004,1.5033,1.4924,1.4903,1.472,1.5156,1.5202,1.472,1.4579,1.4751,1.4587,1.5149,1.4849,1.4719,1.4802,1.4695,1.4591,1.4401,1.4933,1.4757,1.4831,1.4848,1.4832,1.4708,1.4828,1.4818,1.4813,1.4725,1.4563,1.4623,1.4883,1.4736,1.4734,1.4789,1.4599,1.4445,1.4787,1.5191,1.4887,1.4624,1.4779,1.4808,1.4843,1.451,1.4594,1.485,1.4674,1.457,1.472,1.455,1.4888,1.4716,1.4663,1.4609,1.4569,1.4824,1.4841,1.4751,1.4563,1.4647,1.4568,1.4944,1.4823,1.4613,1.4598,1.4563,1.5025,1.5207,1.5137,1.5433,1.5104,1.5115,1.5336,1.5641,1.5829,1.5684,1.5556,1.541,1.5335,1.5138,1.5014,1.4875,1.4504,1.4224,1.4329,1.4319,1.4484,1.4247,1.4245,1.4436,1.4669,1.4412,1.4346,1.4202,1.4146,1.4224,1.4497,1.4168,1.3525,1.3092,1.2933,1.3423,1.4606,1.7093,2.1043,2.5277,2.7116,2.8977,2.9563,2.446,1.8553,1.3187,1.0576,0.98026,0.91944,1.0454,1.1594,1.3115,1.3922,1.4193,1.4171,1.4376,1.4077,1.4561,1.449,1.4364,1.4426,1.4621,1.4505,1.4399,1.4603,1.4619,1.4778,1.4801,1.4444,1.4689,1.465,1.4774,1.4724,1.4832,1.4462,1.454,1.4753,1.4692,1.4988,1.4815,1.48,1.4689,1.4593,1.486,1.4725,1.4845,1.4697,1.4976,1.463,1.4609,1.478,1.4821,1.4704,1.457,1.4647,1.4643,1.5011,1.4859,1.4729,1.494,1.4848,1.4619,1.4874,1.4818,1.4904,1.4848,1.495,1.489,1.4881,1.499,1.5025,1.4987,1.4972,1.4923,1.5278,1.5103,1.5207,1.5302,1.565,1.5665,1.5714,1.5398,1.5603,1.5434,1.5326,1.5387,1.5352,1.5186,1.5165,1.5322,1.5025,1.4996,1.4937,1.5109,1.5249,1.5071,1.4852,1.4967,1.5017,1.487,1.4954,1.5079,1.5061,1.5305,1.5085,1.4856,1.5079,1.4834,1.478,1.5144,1.5,1.4947,1.5022,1.5066,1.5104,1.4754,1.4959,1.4901,1.4876,1.5141,1.4884,1.493,1.4937,1.4888,1.4975,1.4904,1.4767,1.4853,1.4942,1.4913,1.4852,1.4953,1.4866,1.4633,1.4714,1.4697,1.4825,1.454,1.4701,1.4784,1.4769,1.4968,1.4833,1.4664,1.4529,1.4664,1.4807,1.4833,1.4588,1.4367,1.4822,1.4743,1.4667,1.4553,1.4567,1.4616,1.4792,1.4572,1.4453,1.4411,1.4555,1.4731,1.4354,1.4557,1.4504,1.4617,1.4753,1.4644,1.4665,1.4433,1.4438,1.4557,1.4514,1.4819,1.4557,1.4335,1.4244,1.4643,1.4617,1.4377,1.4531,1.4504,1.4478,1.4481,1.4386,1.4352,1.4431,1.4292,1.4437,1.4429,1.4419,1.4523,1.4479,1.4545,1.4573,1.5043,1.479,1.4773,1.4598,1.4799,1.5414,1.5473,1.5192,1.5229,1.5519,1.4942,1.4921,1.474,1.4393,1.417,1.3958,1.4018,1.4171,1.4139,1.3984,1.407,1.4052,1.4146,1.3589,1.4037,1.4095,1.4286,1.4162,1.388,1.383,1.3389,1.2879,1.2512,1.3125,1.4028,1.5528,1.921,2.3621,2.6314,2.7113,2.8521,2.5472,1.9325,1.4245,1.1069,1.0064,0.92818,0.9645,0.96835,1.1065,1.1996,1.3343,1.3729,1.4118,1.3744,1.3808,1.3896,1.4108,1.3952,1.3793,1.3986,1.4086,1.4164,1.418,1.4054,1.4227,1.4169,1.4172,1.4517,1.4032,1.4147,1.4483,1.4465,1.4257,1.4178,1.4157,1.417,1.4474,1.4394,1.455,1.4215,1.4192,1.451,1.4281,1.4347,1.4424,1.4443,1.4423,1.4402,1.4287,1.4446,1.4373,1.4467,1.4426,1.4458,1.4244,1.4295,1.4451,1.4401,1.4569,1.435,1.4306,1.4278,1.461,1.4771,1.445,1.4608,1.4432,1.4738,1.4569,1.4711,1.4962,1.5012,1.5064,1.5149,1.5096,1.5006,1.5116,1.5246,1.5269,1.512,1.5076,1.5221,1.5301,1.5188,1.5066,1.5105,1.484,1.4899,1.4779,1.4672,1.4852,1.4781,1.4753,1.4755,1.48,1.4486,1.4606,1.4661,1.4737,1.4703,1.4462,1.4529,1.4673,1.4912,1.4705,1.4829,1.4751,1.4677,1.4663,1.4807,1.4754,1.4746,1.4846,1.4832,1.4707,1.4688,1.4778,1.481,1.4701,1.4596,1.469,1.4825,1.4855,1.4855,1.4734,1.4643,1.4479,1.4401,1.4759,1.4895,1.4397,1.4328,1.4758,1.4665,1.4448,1.4534,1.439,1.4261,1.463,1.4487,1.4466,1.4477,1.4331,1.4458,1.4485,1.4423,1.4146,1.4519,1.4524,1.4505,1.4367,1.4308,1.4217,1.4262,1.4535,1.4374,1.4475,1.4576,1.4246,1.4187,1.434,1.4403,1.4219,1.4438,1.4736,1.5079,1.506,1.4862,1.4789,1.4998,1.5186,1.5184,1.5142,1.5197,1.524,1.5122,1.5145,1.4762,1.481,1.4681,1.3918,1.4106,1.3942,1.4012,1.4232,1.4031,1.4065,1.3985,1.407,1.3901,1.3906,1.4219,1.3962,1.3894,1.4103,1.4038,1.3627,1.2925,1.2712,1.3066,1.4025,1.6281,2.0199,2.4162,2.6402,2.764,2.9361,2.4986,1.8685,1.3594,1.106,0.98397,0.92978,0.93044,1.0111,1.1551,1.2694,1.3725,1.4152,1.4115,1.431,1.4295,1.4081,1.4143,1.4172,1.4339,1.4151,1.4597,1.4622,1.456,1.4414,1.4508,1.4485,1.4652,1.4517,1.4504,1.4632,1.4554,1.4611,1.4699,1.4449,1.4624,1.4651,1.4527,1.4613,1.4667,1.4699,1.4806,1.4581,1.4757,1.4625,1.4824,1.4793,1.4602,1.4704,1.4703,1.4597,1.4621,1.4735,1.4678,1.4904,1.4547,1.4715,1.4582,1.4713,1.4836,1.4678,1.4708,1.4862,1.4794,1.4915,1.4854,1.4931,1.4874,1.4825,1.4885,1.4939,1.504,1.517,1.509,1.5185,1.5386,1.5327,1.5169,1.5101,1.5661,1.5442,1.529,1.5543,1.5194,1.5153,1.5152,1.5084,1.4879,1.4948,1.5015,1.4815,1.4789,1.4751,1.4689,1.4686,1.4791,1.5124,1.4901,1.47,1.4612,1.4947,1.4824,1.4926,1.48,1.4862,1.4702,1.4721,1.4576,1.4699,1.4793,1.4834,1.4877,1.4781,1.473,1.471,1.4854,1.4945,1.4847,1.4941,1.4685,1.4689,1.4798,1.484,1.4798,1.4579,1.4536,1.4497,1.4643,1.4719,1.4724,1.428,1.4434,1.4811,1.4944,1.4685,1.4562,1.4692,1.4842,1.4527,1.4598,1.4678,1.4684,1.4581,1.4719,1.4605,1.4414,1.4543,1.4903,1.4664,1.446,1.463,1.4732,1.4577,1.5026,1.4586,1.454,1.444,1.467,1.4685,1.4746,1.4362,1.4571,1.4614,1.4686,1.4512,1.4323,1.4453,1.4878,1.4705,1.4481,1.4596,1.4513,1.4598,1.4844,1.4966,1.506,1.5254,1.4896,1.5243,1.5326,1.5429,1.5473,1.5327,1.5277,1.524,1.5041,1.4968,1.5035,1.4924,1.4491,1.4158,1.4249,1.4004,1.4284,1.4259,1.4215,1.4383,1.4098,1.4178,1.3931,1.4092,1.4416,1.415,1.4143,1.4266,1.3791,1.3022,1.2751,1.3008,1.3982,1.6183,1.9986,2.3872,2.6866,2.7947,2.9801,2.5688,1.9619,1.3941,1.0904,0.98052,0.90229,0.9809,1.0197,1.1919,1.3082,1.3942,1.4066,1.4149,1.419,1.4287,1.4239,1.4264,1.4236,1.4698,1.4218,1.4446,1.4391,1.4308,1.4514,1.4552,1.4478,1.4558,1.445,1.4422,1.4505,1.4719,1.4513,1.4791,1.4585,1.4729,1.4599,1.4581,1.4548,1.4489,1.4984,1.4714,1.4592,1.4708,1.4743,1.4712,1.4656,1.4708,1.4527,1.4646,1.4884,1.4791,1.4624,1.4709,1.4789,1.4758,1.4537,1.4912,1.4599,1.4666,1.4882,1.4892,1.4708,1.4816,1.4856,1.4796,1.4775,1.4947,1.4927,1.4956,1.4977,1.5257,1.5222,1.5278,1.5403,1.535,1.5423,1.5593,1.5404,1.5401,1.5575,1.5503,1.5556,1.5275,1.5353,1.5316,1.5102,1.518,1.5188,1.5305,1.4963,1.5053,1.5015,1.515,1.4849,1.4887,1.5053,1.5056,1.4859,1.4982,1.5045,1.4958,1.4966,1.512,1.5273,1.5043,1.4973,1.4869,1.5087,1.5143,1.4877,1.5068,1.5136,1.4904,1.495,1.474,1.4828,1.5049,1.49,1.4946,1.5051,1.4931,1.4939,1.4806,1.4984,1.4869,1.4825,1.4725,1.4893,1.4741,1.4778,1.4671,1.502,1.4643,1.4886,1.4802,1.4768,1.4848,1.4752,1.464,1.4475,1.476,1.4705,1.4547,1.4591,1.4548,1.4761,1.4783,1.4634,1.4789,1.4409,1.4343,1.486,1.4787,1.4739,1.4422,1.4481,1.4677,1.4686,1.4478,1.4571,1.4178,1.4404,1.4943,1.4615,1.4431,1.4554,1.4317,1.4763,1.4568,1.4553,1.4573,1.4379,1.4341,1.4805,1.4358,1.4484,1.4517,1.4777,1.4801,1.4413,1.4762,1.4815,1.5178,1.5109,1.4741,1.4788,1.5077,1.5127,1.5497,1.5443,1.5259,1.5431,1.5166,1.4869,1.4911,1.4544,1.4163,1.4288,1.4263,1.4197,1.4225,1.3908,1.4159,1.4308,1.4297,1.4245,1.4066,1.4076,1.4303,1.4173,1.4274,1.4086,1.4047,1.3223,1.2864,1.2948,1.3739,1.5712,2.0043,2.4149,2.6549,2.7392,2.9096,2.5506,2.2498,1.6889,1.2061,1.0606,0.92841,0.96423,0.99338,1.127,1.233,1.3655,1.3789,1.4349,1.3927,1.388,1.3911,1.3988,1.4591,1.4988,1.451,1.4769,1.4556,1.4684,1.4395,1.4538,1.4677,1.4627,1.4644,1.4731,1.4474,1.4807,1.463,1.4498,1.4495,1.4061,1.4188,1.5252,1.4704,1.463,1.4446,1.4796,1.4802,1.4854,1.4816,1.4502,1.4617,1.4552,1.4594,1.4524,1.4376,1.4667,1.465,1.4466,1.4859,1.4682,1.4728,1.4641,1.4581,1.4715,1.455,1.4533,1.4835,1.4732,1.4722,1.4495,1.4562,1.4935,1.5187,1.5,1.4969,1.4913,1.5013,1.5092,1.5313,1.5187,1.5295,1.5413,1.5431,1.5368,1.5309,1.5345,1.5427,1.5368,1.5232,1.4609,1.5253,1.5258,1.4997,1.5017,1.5021,1.4858,1.4658,1.4864,1.4839,1.4594,1.4884,1.4824,1.4833,1.4936,1.4783,1.4817,1.4842,1.493,1.4651,1.4811,1.5002,1.4948,1.4835,1.4766,1.4864,1.4714,1.4909,1.4782,1.4726,1.4823,1.4814,1.4707,1.4865,1.4861,1.4616,1.4696,1.4914,1.4798,1.4676,1.487,1.4517,1.4748,1.4429,1.449,1.4417,1.4399,1.496,1.4789,1.4699,1.4516,1.4286,1.4397,1.46,1.4521,1.4663,1.4548,1.4157,1.4471,1.4804,1.4511,1.4522,1.4503,1.4429,1.4539,1.4699,1.5037,1.4896,1.4861,1.4893,1.5091,1.5263,1.5356,1.5399,1.5473,1.5444,1.5239,1.5254,1.5224,1.5016,1.4579,1.4815,1.4049,1.4163,1.4154,1.4193,1.43,1.4268,1.4152,1.4062,1.4414,1.4298,1.4102,1.4055,1.4657,1.454,1.448,1.419,1.3919,1.342,1.3083,1.3033,1.3663,1.5393,1.9157,2.3639,2.6179,2.7157,2.8505,2.5951,2.0244,1.4743,1.171,1.0252,0.94117,0.95382,0.9546,1.0915,1.2118,1.3168,1.3775,1.4158,1.4353,1.4275,1.4324,1.4318,1.4248,1.4646,1.4468,1.4463,1.4512,1.4458,1.4496,1.4473,1.439,1.445,1.4817,1.4661,1.4477,1.4812,1.4678,1.4376,1.4724,1.4813,1.4772,1.4677,1.487,1.4617,1.4495,1.4671,1.4513,1.4812,1.473,1.4892,1.4831,1.4478,1.4853,1.49,1.4877,1.4655,1.4675,1.5015,1.486,1.4856,1.4727,1.4805,1.4902,1.479,1.4945,1.4841,1.4988,1.5156,1.4804,1.4666,1.5057,1.5069,1.5209,1.5375,1.5213,1.504,1.5483,1.5543,1.5547,1.5432,1.5386,1.547,1.5559,1.5446,1.5676,1.5762,1.5404,1.5274,1.5254,1.5228,1.5096,1.5083,1.4867,1.5049,1.4771,1.4593,1.5058,1.4912,1.4801,1.4769,1.4754,1.4737,1.4511,1.4904,1.4921,1.4861,1.4988,1.4887,1.4867,1.4706,1.4618,1.4668,1.4824,1.4865,1.4794,1.5057,1.4654,1.5008,1.4883,1.4698,1.4853,1.469,1.4822,1.4936,1.4767,1.4713,1.4562,1.4778,1.4846,1.4741,1.4822,1.4644,1.4875,1.4617,1.4762,1.4892,1.4727,1.4512,1.4371,1.4599,1.4784,1.4702,1.4513,1.458,1.4698,1.4645,1.4676,1.4485,1.428,1.4245,1.4753,1.4652,1.4601,1.4412,1.429,1.4589,1.5043,1.4966,1.5144,1.5017,1.4966,1.4948,1.5082,1.5256,1.5763,1.5666,1.5324,1.532,1.4986,1.4907,1.4809,1.4809,1.4466,1.439,1.4171,1.4197,1.4437,1.4448,1.3936,1.4042,1.4373,1.45,1.4208,1.402,1.4381,1.4252,1.4203,1.4187,1.4023,1.3916,1.3111,1.2757,1.3059,1.4412,1.682,2.1042,2.4926,2.7143,2.8608,2.9462,2.4065,1.7982,1.3147,1.0594,0.96768,0.91441,1.0159,1.1386,1.2839,1.3069,1.4084,1.4142,1.4273,1.4307,1.4268,1.4405,1.4527,1.4475,1.4361,1.4444,1.4387,1.4547,1.4895,1.4585,1.4757,1.4391,1.433,1.4717,1.4652,1.4614,1.4734,1.4762,1.4798,1.4653,1.4172,1.4734,1.4723,1.4668,1.4917,1.4809,1.4712,1.4481,1.4684,1.4508,1.4889,1.4816,1.4816,1.4727,1.4649,1.4608,1.4285,1.4808,1.4847,1.499,1.4951,1.4701,1.4505,1.4539,1.4914,1.4684,1.4646,1.4807,1.4821,1.4636,1.4771,1.4906,1.492,1.5105,1.5099,1.5152,1.529,1.5017,1.526,1.5187,1.5221,1.5249,1.5369,1.5559,1.5351,1.4856,1.5473,1.5175,1.5263,1.5256,1.4994,1.4831,1.5018,1.4923,1.4657,1.4879,1.4834,1.4783,1.4715,1.477,1.4634,1.4829,1.4843,1.4789,1.4843,1.4737,1.4711,1.488,1.4828,1.4808
