-0.43404,-0.41214,-0.41286,-0.39206,-0.382,-0.3718,-0.37134,-0.35242,-0.3662,-0.36851,-0.38233,-0.40801,-0.45349,-0.49409,-0.53928,-0.58144,-0.63454,-0.6789,-0.71981,-0.7463,-0.7684,-0.78588,-0.8077,-0.82512,-0.83512,-0.83928,-0.83963,-0.86326,-0.8689,-0.85756,-0.86399,-0.85279,-0.85852,-0.85764,-0.85192,-0.85487,-0.85065,-0.83833,-0.8307,-0.83144,-0.84728,-0.84305,-0.8356,-0.82656,-0.8295,-0.83001,-0.81887,-0.82568,-0.81503,-0.81486,-0.84124,-0.82879,-0.82432,-0.82223,-0.8252,-0.83165,-0.82365,-0.82399,-0.84867,-0.85062,-0.8529,-0.83791,-0.84409,-0.84283,-0.84289,-0.85466,-0.84929,-0.84305,-0.85229,-0.85594,-0.86299,-0.87269,-0.8668,-0.86804,-0.87756,-0.86853,-0.86157,-0.86116,-0.85993,-0.86369,-0.85498,-0.86683,-0.86782,-0.84945,-0.82772,-0.82608,-0.8303,-0.82226,-0.83363,-0.82125,-0.79449,-0.77036,-0.75315,-0.77254,-0.79295,-0.79956,-0.82247,-0.82479,-0.83754,-0.83556,-0.85443,-0.87191,-0.8778,-0.88531,-0.88844,-0.88888,-0.88731,-0.89717,-0.89412,-0.89963,-0.90527,-0.89932,-0.89702,-0.89632,-0.90408,-0.89746,-0.90432,-0.86226,-0.74083,-0.85382,-0.54647,-0.39533,-0.25044,-0.035803,-0.14825,-0.44873,-1.0501,-1.3332,-1.2282,-1.1175,-1.0352,-0.90935,-0.85294,-0.81406,-0.82267,-0.81154,-0.81866,-0.80548,-0.80979,-0.80608,-0.81784,-0.7998,-0.81439,-0.79641,-0.79001,-0.77539,-0.78076,-0.77504,-0.76962,-0.7782,-0.76872,-0.75867,-0.75622,-0.74414,-0.74928,-0.73173,-0.74865,-0.7364,-0.72916,-0.72423,-0.71458,-0.69694,-0.68441,-0.66669,-0.6558,-0.64863,-0.64332,-0.63804,-0.61443,-0.60289,-0.58182,-0.5711,-0.55619,-0.54465,-0.52208,-0.50824,-0.48987,-0.47413,-0.45685,-0.45027,-0.42368,-0.4185,-0.41041,-0.40687,-0.39485,-0.38588,-0.38558,-0.37072,-0.3839,-0.42173,-0.43085,-0.46869,-0.51631,-0.56287,-0.60687,-0.65365,-0.68837,-0.72575,-0.75254,-0.7698,-0.79566,-0.82092,-0.82829,-0.85,-0.85079,-0.85415,-0.84609,-0.85423,-0.85616,-0.8646,-0.85501,-0.85002,-0.86014,-0.87084,-0.87157,-0.85489,-0.84769,-0.8722,-0.86837,-0.8703,-0.81632,-0.83923,-0.8387,-0.81516,-0.81042,-0.80613,-0.79512,-0.77744,-0.80533,-0.79525,-0.78225,-0.78981,-0.77814,-0.77721,-0.79856,-0.77437,-0.75877,-0.77032,-0.76755,-0.78103,-0.76703,-0.7533,-0.73402,-0.73673,-0.75808,-0.75694,-0.73408,-0.72488,-0.71269,-0.74608,-0.70946,-0.72178,-0.72677,-0.72085,-0.71176,-0.69909,-0.69736,-0.70507,-0.69889,-0.71031,-0.70278,-0.69097,-0.67585,-0.67135,-0.67917,-0.68389,-0.68816,-0.67967,-0.69921,-0.70359,-0.70444,-0.70752,-0.70867,-0.68959,-0.67667,-0.65626,-0.66007,-0.66072,-0.66037,-0.6684,-0.67388,-0.65291,-0.63311,-0.60125,-0.60928,-0.6542,-0.65117,-0.64223,-0.66667,-0.65867,-0.71081,-0.70622,-0.70624,-0.74367,-0.73317,-0.72852,-0.74632,-0.73249,-0.73964,-0.74217,-0.74724,-0.74822,-0.77059,-0.78311,-0.76504,-0.75392,-0.75479,-0.7486,-0.7176,-0.56595,-0.43172,-0.28222,-0.095718,0.15134,0.27443,0.0046206,-0.48259,-0.99392,-1.0032,-0.94681,-0.86506,-0.74413,-0.64999,-0.61967,-0.63688,-0.62283,-0.63489,-0.63236,-0.65782,-0.63594,-0.63712,-0.6211,-0.64533,-0.6299,-0.62709,-0.62057,-0.62349,-0.58554,-0.59706,-0.58884,-0.5913,-0.58958,-0.59499,-0.56754,-0.58016,-0.55671,-0.56354,-0.5523,-0.55042,-0.56047,-0.53439,-0.51072,-0.51033,-0.49213,-0.49206,-0.46364,-0.47523,-0.4723,-0.45567,-0.46191,-0.42385,-0.41691,-0.44029,-0.36564,-0.32709,-0.30284,-0.28587,-0.27761,-0.25652,-0.26765,-0.24211,-0.21403,-0.20751,-0.19425,-0.1682,-0.17862,-0.15285,-0.14467,-0.15218,-0.17395,-0.19738,-0.21186,-0.27244,-0.31421,-0.38612,-0.40822,-0.44662,-0.52704,-0.55189,-0.56957,-0.59148,-0.61659,-0.63141,-0.65298,-0.6536,-0.68866,-0.68839,-0.70617,-0.72268,-0.71386,-0.72833,-0.71935,-0.7195,-0.72904,-0.71864,-0.72464,-0.70533,-0.71451,-0.72033,-0.75066,-0.71866,-0.68416,-0.68324,-0.68488,-0.72042,-0.7013,-0.65189,-0.66258,-0.67964,-0.67538,-0.64913,-0.65546,-0.65944,-0.66299,-0.64604,-0.66822,-0.68033,-0.68233,-0.67653,-0.66981,-0.69164,-0.68165,-0.69721,-0.6931,-0.70262,-0.7184,-0.70983,-0.6838,-0.69583,-0.71238,-0.72062,-0.73021,-0.73264,-0.74468,-0.74331,-0.74661,-0.74169,-0.74226,-0.74678,-0.74953,-0.76005,-0.76755,-0.76831,-0.75754,-0.75593,-0.75863,-0.75276,-0.75645,-0.77184,-0.77534,-0.77291,-0.77691,-0.76168,-0.77083,-0.76843,-0.76444,-0.71724,-0.7148,-0.70632,-0.73598,-0.7269,-0.69362,-0.66981,-0.63746,-0.62664,-0.66412,-0.67676,-0.68165,-0.69299,-0.70105,-0.72446,-0.73722,-0.75018,-0.76093,-0.80307,-0.8039,-0.79791,-0.81179,-0.8001,-0.81023,-0.81416,-0.78243,-0.75382,-0.81508,-0.8383,-0.83812,-0.85213,-0.82051,-0.82687,-0.82581,-0.75351,-0.51723,-0.36753,-0.18384,-0.0010657,0.098752,-0.19388,-0.80461,-1.3021,-1.3497,-1.1577,-1.0239,-0.88113,-0.77901,-0.75285,-0.74962,-0.73027,-0.76023,-0.74798,-0.75815,-0.74904,-0.74928,-0.73231,-0.74049,-0.72566,-0.72542,-0.73239,-0.72819,-0.71647,-0.72071,-0.72265,-0.71326,-0.7074,-0.70308,-0.6931,-0.68537,-0.68689,-0.67762,-0.65657,-0.65669,-0.6486,-0.66534,-0.65688,-0.64067,-0.6176,-0.61513,-0.60668,-0.60151,-0.57903,-0.55016,-0.54073,-0.52887,-0.51505,-0.50218,-0.48096,-0.47492,-0.45578,-0.43307,-0.41483,-0.39946,-0.39491,-0.38452,-0.37028,-0.35671,-0.34381,-0.34329,-0.3328,-0.3278,-0.32421,-0.31921,-0.34559,-0.3638,-0.39874,-0.43566,-0.4757,-0.53149,-0.59212,-0.62938,-0.6815,-0.69855,-0.72504,-0.76103,-0.7971,-0.81755,-0.83893,-0.84587,-0.85169,-0.85613,-0.85862,-0.85637,-0.87304,-0.86598,-0.87302,-0.8609,-0.85573,-0.8489,-0.86762,-0.87198,-0.87238,-0.86995,-0.86213,-0.85171,-0.8534,-0.86512,-0.85859,-0.86323,-0.86937,-0.87113,-0.87121,-0.87937,-0.86245,-0.86107,-0.86473,-0.86566,-0.87382,-0.88238,-0.87846,-0.88931,-0.89563,-0.88633,-0.8885,-0.89185,-0.90272,-0.89586,-0.89149,-0.90028,-0.89324,-0.90159,-0.91561,-0.90157,-0.91451,-0.9051,-0.91388,-0.89878,-0.91482,-0.9174,-0.92212,-0.91266,-0.9161,-0.91306,-0.91395,-0.9157,-0.92343,-0.92234,-0.93682,-0.92477,-0.92364,-0.93023,-0.91725,-0.91531,-0.89769,-0.87523,-0.86591,-0.88357,-0.87604,-0.87068,-0.85256,-0.82288,-0.79929,-0.78202,-0.79354,-0.81903,-0.83107,-0.8477,-0.86012,-0.87389,-0.87216,-0.89726,-0.91828,-0.92999,-0.94716,-0.95075,-0.95567,-0.95059,-0.96526,-0.96283,-0.96367,-0.96856,-0.96464,-0.96804,-0.97425,-0.97303,-0.95327,-0.97379,-0.95922,-0.87867,-0.71461,-0.55587,-0.40507,-0.24675,-0.08865,-0.21444,-0.73427,-1.3365,-1.5908,-1.3974,-1.2076,-1.0837,-0.94777,-0.91138,-0.87648,-0.86939,-0.87623,-0.87701,-0.87251,-0.86505,-0.87833,-0.88273,-0.86362,-0.8603,-0.85245,-0.85541,-0.85364,-0.83847,-0.84302,-0.83441,-0.82563,-0.83051,-0.82133,-0.81678,-0.79935,-0.80637,-0.80265,-0.79949,-0.78657,-0.7707,-0.76995,-0.7583,-0.73689,-0.73113,-0.73444,-0.71501,-0.70988,-0.67431,-0.66094,-0.65327,-0.64014,-0.62817,-0.61483,-0.61524,-0.58137,-0.56183,-0.55442,-0.53088,-0.50868,-0.48274,-0.47549,-0.4647,-0.45253,-0.43741,-0.42936,-0.42215,-0.41759,-0.41487,-0.40087,-0.41244,-0.43593,-0.46757,-0.50128,-0.52982,-0.56406,-0.62639,-0.66637,-0.71993,-0.77343,-0.80448,-0.82864,-0.84921,-0.8659,-0.874,-0.88139,-0.9098,-0.89876,-0.90021,-0.90237,-0.89766,-0.8967,-0.90704,-0.89805,-0.89305,-0.89801,-0.8859,-0.88216,-0.88335,-0.88096,-0.87761,-0.87384,-0.87096,-0.87543,-0.88731,-0.8805,-0.87468,-0.87881,-0.87851,-0.87431,-0.88096,-0.88732,-0.8739,-0.88527,-0.88728,-0.88684,-0.88721,-0.89095,-0.90503,-0.90208,-0.88912,-0.89108,-0.90838,-0.91315,-0.90977,-0.90861,-0.91482,-0.91287,-0.91446,-0.91377,-0.9082,-0.91604,-0.91647,-0.91471,-0.91498,-0.91467,-0.91342,-0.91313,-0.91418,-0.926,-0.92092,-0.92897,-0.92179,-0.91395,-0.91212,-0.92225,-0.92565,-0.93559,-0.94627,-0.93935,-0.93743,-0.93592,-0.92649,-0.93311,-0.95101,-0.95483,-0.94123,-0.92969,-0.91039,-0.90126,-0.89241,-0.89209,-0.8865,-0.90241,-0.88379,-0.85754,-0.83966,-0.81786,-0.84916,-0.85901,-0.86306,-0.87984,-0.89226,-0.8982,-0.90698,-0.92756,-0.94851,-0.95777,-0.97852,-0.97776,-0.98036,-0.98277,-0.98242,-0.98935,-0.99771,-1.0023,-0.99772,-1.0042,-1.0016,-1.0195,-1.0185,-1.0042,-0.92723,-0.85506,-0.70465,-0.55548,-0.39719,-0.22303,-0.10188,-0.38999,-0.93193,-1.4517,-1.4683,-1.2763,-1.1728,-1.0407,-0.95904,-0.92454,-0.93134,-0.94441,-0.96797,-0.9397,-0.95124,-0.93198,-0.93723,-0.93111,-0.93981,-0.92842,-0.93481,-0.92163,-0.93247,-0.91346,-0.9194,-0.89781,-0.90949,-0.89468,-0.90267,-0.90018,-0.89827,-0.88465,-0.8754,-0.87314,-0.86234,-0.84908,-0.85342,-0.84073,-0.83371,-0.81516,-0.81005,-0.79188,-0.79034,-0.77859,-0.76308,-0.74354,-0.72124,-0.71181,-0.69509,-0.68215,-0.66139,-0.64406,-0.6246,-0.6182,-0.60774,-0.60524,-0.59064,-0.56974,-0.55934,-0.53376,-0.54886,-0.53566,-0.51556,-0.51581,-0.51406,-0.52284,-0.5377,-0.5626,-0.60436,-0.65593,-0.69449,-0.7366,-0.78159,-0.82163,-0.87333,-0.88705,-0.91273,-0.9305,-0.94104,-0.9706,-0.98975,-0.99684,-0.99765,-1.0074,-0.99834,-1.0081,-0.98915,-1.0102,-1.0108,-0.9944,-0.99506,-1.0026,-1.001,-1.0038,-1.0055,-0.99544,-0.98354,-0.99452,-0.99211,-0.99972,-0.99532,-0.98775,-0.98884,-0.99087,-0.99022,-1.0053,-0.98836,-0.98515,-0.99366,-1.0026,-0.99889,-0.99583,-0.99504,-0.99732,-1.0022,-1.0102,-1.0089,-1.0072,-1.0083,-1.0164,-1.0068,-1.0155,-1.0135,-1.0119,-1.0113,-1.0178,-1.016,-1.019,-1.0097,-1.006,-1.0186,-1.0174,-1.0052,-1.0082,-1.0114,-1.0001,-1.0028,-1.0255,-1.0148,-1.015,-1.0262,-1.0209,-1.0278,-1.0044,-0.97705,-0.98132,-0.97347,-0.97594,-0.97411,-0.94308,-0.92898,-0.90503,-0.9076,-0.92887,-0.9326,-0.92839,-0.95534,-0.9663,-0.96639,-0.97198,-0.98958,-1.0191,-1.0236,-1.0232,-1.0301,-1.0409,-1.0383,-1.042,-1.0405,-1.0423,-1.0471,-1.038,-1.0371,-1.033,-1.0334,-1.0271,-1.0307,-0.96716,-0.83605,-0.67829,-0.55546,-0.3878,-0.18356,-0.21949,-0.5446,-1.1141,-1.4656,-1.336,-1.2173,-1.1246,-1.0258,-0.9548,-0.93252,-0.92929,-0.93229,-0.93029,-0.92189,-0.93368,-0.9348,-0.93068,-0.91956,-0.92236,-0.91869,-0.90733,-0.8991,-0.89217,-0.89156,-0.89301,-0.89169,-0.88237,-0.86636,-0.85508,-0.85847,-0.85192,-0.83802,-0.83704,-0.83475,-0.8286,-0.81782,-0.80686,-0.79562,-0.78825,-0.77309,-0.76855,-0.76069,-0.74639,-0.72573,-0.71007,-0.69016,-0.67967,-0.66482,-0.6457,-0.63808,-0.61731,-0.60562,-0.58856,-0.57421,-0.56798,-0.55181,-0.54303,-0.52908,-0.51325,-0.50468,-0.50331,-0.48753,-0.4724,-0.4702,-0.48759,-0.50534,-0.54235,-0.57695,-0.61654,-0.67381,-0.7153,-0.76075,-0.78134,-0.81678,-0.84715,-0.88562,-0.90671,-0.9203,-0.94081,-0.94699,-0.96215,-0.96993,-0.9692,-0.96503,-0.96127,-0.96868,-0.97159,-0.97185,-0.96732,-0.95978,-0.94921,-0.95069,-0.9543,-0.95319,-0.9472,-0.95579,-0.95778,-0.95126,-0.94597,-0.94259,-0.94514,-0.94852,-0.94571,-0.94411,-0.94365,-0.94342,-0.94868,-0.95615,-0.94586,-0.95029,-0.95178,-0.954,-0.95359,-0.96223,-0.95796,-0.96264,-0.96893,-0.96768,-0.96368,-0.96246,-0.96854,-0.96595,-0.97531,-0.9722,-0.97442,-0.97706,-0.98125,-0.97708,-0.98031,-0.98359,-0.98268,-0.98574,-0.98675,-0.97405,-0.98257,-0.97772,-0.98126,-0.97439,-0.97377,-0.97834,-0.97863,-0.97861,-0.96519,-0.94291,-0.93115,-0.93295,-0.93253,-0.95139,-0.9126,-0.8876,-0.87186,-0.86908,-0.89298,-0.89679,-0.90286,-0.90448,-0.92278,-0.93104,-0.92876,-0.94846,-0.97039,-0.98346,-0.99229,-0.99903,-1.0061,-1.0023,-1.0077,-1.0044,-1.0059,-1.0009,-1.0051,-1.009,-1.0071,-1,-1.0086,-0.9984,-0.96815,-0.84931,-0.71454,-0.5797,-0.39796,-0.21481,-0.11094,-0.36606,-0.86725,-1.3981,-1.3824,-1.2308,-1.1644,-1.0272,-0.93222,-0.90088,-0.91239,-0.91216,-0.92301,-0.90664,-0.92443,-0.90397,-0.91093,-0.89563,-0.89329,-0.8783,-0.89823,-0.8868,-0.88127,-0.87734,-0.87949,-0.8575,-0.86075,-0.86779,-0.865,-0.83628,-0.83706,-0.84718,-0.84479,-0.84034,-0.83114,-0.80904,-0.8026,-0.79203,-0.78932,-0.78383,-0.77196,-0.75206,-0.73573,-0.72183,-0.71936,-0.69855,-0.67849,-0.66721,-0.65795,-0.62598,-0.61462,-0.60474,-0.59223,-0.5765,-0.55853,-0.54104,-0.52744,-0.52858,-0.50832,-0.49734,-0.48861,-0.47931,-0.47844,-0.47636,-0.46277,-0.46983,-0.49468,-0.53835,-0.57845,-0.63523,-0.65322,-0.69166,-0.73765,-0.77774,-0.81369,-0.84177,-0.87224,-0.89311,-0.90598,-0.9227,-0.92486,-0.93074,-0.93913,-0.93842,-0.94801,-0.93833,-0.93857,-0.94259,-0.94052,-0.93333,-0.92612,-0.93607,-0.93257,-0.93341,-0.9346,-0.9315,-0.92075,-0.92958,-0.93268,-0.92315,-0.92378,-0.92361,-0.92119,-0.92152,-0.92222,-0.92624,-0.92431,-0.92499,-0.93758,-0.93727,-0.93504,-0.93525,-0.93463,-0.93187,-0.93094,-0.94616,-0.94363,-0.95196,-0.95036,-0.95574,-0.94626,-0.95648,-0.94828,-0.95569,-0.9618,-0.96024,-0.95077,-0.95653,-0.95369,-0.95722,-0.95378,-0.95235,-0.9454,-0.95561,-0.96,-0.95953,-0.95847,-0.95859,-0.96162,-0.9653,-0.9632,-0.96643,-0.9541,-0.95789,-0.9591,-0.96482,-0.96007,-0.95534,-0.95212,-0.96238,-0.96692,-0.96221,-0.96412,-0.96563,-0.95444,-0.9396,-0.92777,-0.91113,-0.91109,-0.90755,-0.92552,-0.90063,-0.86566,-0.84674,-0.8345,-0.87279,-0.88203,-0.87223,-0.88201,-0.8899,-0.90468,-0.90592,-0.93449,-0.94201,-0.9516,-0.9506,-0.96111,-0.96661,-0.97245,-0.97896,-0.97065,-0.96482,-0.96571,-0.96445,-0.97388,-0.96399,-0.9682,-0.96091,-0.93515,-0.82412,-0.74629,-0.60913,-0.48261,-0.29757,-0.079258,-0.082133,-0.40792,-0.96047,-1.3576,-1.2863,-1.1542,-1.1373,-0.93617,-0.86298,-0.84583,-0.82314,-0.85565,-0.86543,-0.85117,-0.8443,-0.84566,-0.84895,-0.83397,-0.83133,-0.8162,-0.80173,-0.81052,-0.82089,-0.81273,-0.79095,-0.77496,-0.76959,-0.77218,-0.76791,-0.75957,-0.7386,-0.76095,-0.7672,-0.74423,-0.72529,-0.71075,-0.7248,-0.70784,-0.68077,-0.69104,-0.69533,-0.66341,-0.65493,-0.64895,-0.62638,-0.60918,-0.59836,-0.56486,-0.57426,-0.55169,-0.53761,-0.53272,-0.51014,-0.50181,-0.4724,-0.47772,-0.46995,-0.44487,-0.43137,-0.43661,-0.42339,-0.40661,-0.40392,-0.39995,-0.42158,-0.42191,-0.42905,-0.47214,-0.50103,-0.54361,-0.57552,-0.61888,-0.64869,-0.69122,-0.74818,-0.76061,-0.77543,-0.77633,-0.83792,-0.86218,-0.83979,-0.85802,-0.85676,-0.87782,-0.85035,-0.8315,-0.84454,-0.85493,-0.86321,-0.85524,-0.86134,-0.85175,-0.81753,-0.85233,-0.85906,-0.83838,-0.84475,-0.856,-0.84275,-0.85905,-0.84292,-0.83964,-0.83084,-0.83552,-0.84197,-0.85617,-0.84415,-0.81097,-0.84123,-0.85784,-0.84057,-0.83008,-0.83497,-0.8517,-0.87641,-0.86655,-0.84339,-0.8471,-0.86506,-0.85525,-0.86635,-0.82464,-0.83549,-0.89233,-0.89324,-0.84295,-0.84911,-0.8876,-0.86728,-0.87867,-0.867,-0.85611,-0.86744,-0.87458,-0.86258,-0.84474,-0.88096,-0.87534,-0.85465,-0.85884,-0.86237,-0.87044,-0.87661,-0.86455,-0.85528,-0.86222,-0.86898,-0.86354,-0.8366,-0.85408,-0.89074,-0.87224,-0.83716,-0.84814,-0.84703,-0.85644,-0.87492,-0.8516,-0.86823,-0.87311,-0.8413,-0.8209,-0.81616,-0.81809,-0.78417,-0.81208,-0.8318,-0.76505,-0.75214,-0.7398,-0.77492,-0.7755,-0.76931,-0.80739,-0.80624,-0.78637,-0.81205,-0.84918,-0.84587,-0.84702,-0.85686,-0.86528,-0.88408,-0.86953,-0.86084,-0.85245,-0.85261,-0.86624,-0.88942,-0.88777,-0.85973,-0.87867,-0.88015,-0.85688,-0.79927,-0.64266,-0.49186,-0.39474,-0.20755,-0.00056353,-0.04734,-0.41254,-0.97886,-1.2963,-1.1755,-1.0675,-0.9613,-0.81827,-0.80305,-0.78716,-0.77345,-0.77127,-0.77018,-0.80211,-0.79402,-0.78901,-0.80383,-0.79401,-0.77532,-0.78299,-0.76632,-0.75744,-0.76242,-0.75398,-0.75076,-0.75161,-0.74971,-0.74427,-0.70987,-0.72863,-0.72173,-0.71015,-0.69444,-0.68305,-0.69149,-0.68738,-0.67132,-0.65508,-0.64554,-0.63354,-0.63265,-0.63284,-0.61066,-0.57817,-0.57463,-0.57548,-0.56524,-0.54662,-0.51906,-0.49461,-0.49665,-0.48177,-0.47071,-0.45345,-0.45058,-0.4407,-0.41728,-0.40529,-0.39401,-0.38732,-0.36762,-0.35795,-0.36039,-0.36844,-0.36091,-0.33415,-0.41117,-0.42416,-0.45458,-0.5001,-0.536,-0.56625,-0.61332,-0.64118,-0.65851,-0.6979,-0.72766,-0.75037,-0.77367,-0.78693,-0.77433,-0.77724,-0.7974,-0.80212,-0.80121,-0.81545,-0.79298,-0.79254,-0.79225,-0.78554,-0.78949,-0.79901,-0.78275,-0.79132,-0.79709,-0.78074,-0.78345,-0.77782,-0.78264,-0.76697,-0.78194,-0.78513,-0.78119,-0.79424,-0.77789,-0.78604,-0.76964,-0.78069,-0.78202,-0.78758,-0.80881,-0.80072,-0.79235,-0.78799,-0.78589,-0.79083,-0.79812,-0.79286,-0.79085,-0.79834,-0.79857,-0.7924,-0.7872,-0.80398,-0.80423,-0.81436,-0.81773,-0.81339,-0.80606,-0.79007,-0.81503,-0.81226,-0.8128,-0.8062,-0.81366,-0.812,-0.79657,-0.79816,-0.80273,-0.81822,-0.80828,-0.82555,-0.8032,-0.80312,-0.8045,-0.81159,-0.81093,-0.79694,-0.81176,-0.8144,-0.79817,-0.81428,-0.7939,-0.80348,-0.80207,-0.79503,-0.76351,-0.75657,-0.80789,-0.84494,-0.83118,-0.81154,-0.80677,-0.76709,-0.76322,-0.75874,-0.75791,-0.76448,-0.75147,-0.72169,-0.70626,-0.67136,-0.70021,-0.72153,-0.72169,-0.72485,-0.73231,-0.72291,-0.69548,-0.76367,-0.81354,-0.79675,-0.79771,-0.80644,-0.81149,-0.82417,-0.83285,-0.82425,-0.82322,-0.82259,-0.82371,-0.82447,-0.82051,-0.82486,-0.82987,-0.80072,-0.75137,-0.61408,-0.462,-0.33914,-0.15821,0.05902,0.071136,-0.286,-0.83745,-1.2245,-1.1357,-0.98724,-0.90008,-0.74627,-0.69099,-0.67341,-0.69865,-0.68169,-0.67691,-0.68595,-0.69969,-0.70795,-0.68678,-0.68937,-0.67711,-0.69256,-0.69555,-0.6753,-0.66338,-0.68082,-0.68528,-0.66918,-0.64714,-0.64729,-0.66187,-0.67032,-0.65449,-0.63815,-0.63947,-0.62495,-0.62626,-0.6239,-0.62734,-0.60821,-0.59203,-0.58561,-0.57204,-0.55253,-0.54159,-0.53516,-0.52691,-0.50883,-0.51816,-0.49334,-0.47673,-0.46071,-0.45272,-0.41795,-0.41405,-0.40429,-0.39737,-0.36585,-0.3508,-0.35347,-0.32548,-0.32154,-0.33831,-0.29504,-0.2849,-0.29707,-0.30043,-0.30667,-0.2906,-0.37221,-0.40601,-0.44379,-0.48062,-0.52638,-0.54658,-0.58353,-0.62832,-0.66801,-0.69514,-0.71179,-0.7149,-0.73709,-0.74317,-0.7643,-0.79026,-0.78069,-0.81099,-0.78683,-0.75734,-0.78962,-0.79187,-0.77794,-0.79273,-0.78154,-0.78504,-0.79357,-0.79365,-0.77752,-0.78527,-0.7922,-0.77765,-0.77727,-0.77136,-0.75841,-0.74654,-0.78294,-0.78684,-0.78587,-0.77889,-0.75696,-0.7641,-0.76817,-0.7885,-0.77874,-0.78559,-0.76828,-0.76659,-0.79262,-0.7761,-0.78615,-0.80431,-0.79787,-0.7795,-0.78445,-0.79433,-0.80122,-0.80062,-0.80608,-0.803,-0.80497,-0.79955,-0.8215,-0.80927,-0.81892,-0.82788,-0.809,-0.80123,-0.80463,-0.79852,-0.81729,-0.81789,-0.78632,-0.81342,-0.81668,-0.80555,-0.79586,-0.7977,-0.81455,-0.82422,-0.81731,-0.80302,-0.80837,-0.80221,-0.80448,-0.80427,-0.7874,-0.78402,-0.76125,-0.76115,-0.74819,-0.75243,-0.76161,-0.72508,-0.69395,-0.69853,-0.70232,-0.71854,-0.71369,-0.72454,-0.73666,-0.7433,-0.76434,-0.77945,-0.77555,-0.78609,-0.79824,-0.79383,-0.78076,-0.79647,-0.80071,-0.80598,-0.77671,-0.76955,-0.80605,-0.78237,-0.78693,-0.76675,-0.75302,-0.72911,-0.64104,-0.52724,-0.39364,-0.22399,-0.034366,0.06403,-0.024298,-0.35184,-0.95892,-1.1945,-1.0548,-0.97228,-0.88013,-0.80659,-0.69441,-0.66857,-0.70025,-0.66182,-0.6961,-0.67436,-0.66183,-0.66918,-0.65407,-0.65724,-0.6503,-0.64841,-0.61982,-0.63958,-0.63119,-0.63918,-0.61513,-0.61155,-0.63569,-0.6083,-0.5969,-0.6003,-0.6125,-0.58205,-0.57822,-0.57436,-0.55438,-0.55628,-0.56275,-0.54757,-0.51808,-0.51504,-0.5359,-0.49868,-0.50034,-0.45852,-0.47115,-0.47644,-0.44757,-0.44736,-0.4167,-0.40946,-0.36415,-0.39143,-0.37741,-0.33709,-0.34234,-0.32912,-0.32259,-0.30581,-0.30078,-0.28779,-0.29901,-0.29441,-0.25651,-0.29822,-0.30091,-0.28407,-0.30447,-0.33996,-0.36961,-0.39146,-0.41799,-0.45905,-0.49385,-0.51369,-0.49936,-0.51037,-0.51925,-0.52852,-0.52674,-0.51591,-0.5303,-0.5454,-0.5388,-0.49875,-0.59999,-0.64015,-0.72804,-0.86081,-0.90394,-0.96262,-0.96535,-1.0414,-1.0714,-1.0641,-1.1359,-1.1191,-1.1604,-1.2743,-1.3656,-1.3895,-1.3161,-1.2812,-1.2697,-1.2155,-1.1494,-1.1081,-1.1147,-1.1256,-1.0989,-1.0988,-1.0898,-1.0727,-1.0524,-1.0678,-1.0665,-1.0938,-1.0701,-1.0712,-1.0538,-1.0667,-1.05,-1.0546,-1.0767,-1.0813,-1.0976,-1.0647,-1.055,-1.0412,-1.0547,-1.0636,-1.0517,-1.0066,-1.0083,-1.0127,-0.99797,-0.96065,-0.9615,-0.93302,-0.94547,-0.97115,-0.90841,-0.88912,-0.89903,-0.89586,-0.87472,-0.85371,-0.86867,-0.9178,-0.88028,-0.89687,-0.89567,-0.88755,-0.92346,-0.8975,-0.90533,-0.89644,-0.88118,-0.8953,-0.87967,-0.8768,-0.87813,-0.89396,-0.88572,-0.86178,-0.88479,-0.88212,-0.8574,-0.81025,-0.71846,-0.58715,-0.45964,-0.32997,-0.1526,-0.083085,-0.31866,-0.77469,-1.2059,-1.1211,-1.008,-1.0133,-0.89544,-0.82038,-0.75734,-0.73359,-0.72479,-0.71715,-0.69582,-0.70471,-0.69277,-0.70877,-0.71533,-0.72233,-0.68551,-0.67367,-0.69125,-0.69202,-0.66812,-0.68993,-0.67235,-0.66967,-0.65854,-0.66801,-0.63837,-0.62701,-0.60008,-0.5845,-0.57007,-0.57784,-0.57828,-0.52277,-0.48952,-0.45873,-0.47989,-0.44718,-0.4238,-0.41409,-0.41646,-0.40749,-0.40706,-0.39011,-0.37937,-0.33388,-0.32583,-0.3041,-0.28381,-0.28833,-0.29973,-0.2584,-0.25229,-0.26699,-0.21129,-0.21124,-0.22811,-0.22429,-0.22243,-0.21103,-0.23398,-0.22142,-0.25208,-0.25976,-0.27169,-0.32649,-0.35472,-0.37021,-0.41274,-0.47173,-0.48149,-0.50666,-0.5515,-0.54939,-0.5511,-0.54928,-0.55186,-0.58984,-0.60528,-0.5916,-0.59989,-0.60709,-0.59482,-0.60395,-0.58451,-0.60699,-0.57586,-0.60559,-0.60239,-0.59201,-0.58443,-0.5545,-0.57572,-0.58263,-0.59002,-0.58102,-0.58096,-0.58271,-0.58744,-0.59321,-0.58018,-0.57379,-0.59911,-0.57259,-0.59005,-0.61558,-0.60051,-0.59766,-0.59342,-0.59308,-0.60684,-0.60661,-0.62183,-0.60528,-0.60647,-0.58622,-0.62385,-0.62462,-0.62254,-0.62925,-0.6042,-0.61028,-0.61028,-0.61085,-0.59677,-0.5848,-0.60252,-0.57227,-0.55743,-0.55774,-0.57325,-0.51999,-0.55808,-0.54155,-0.52654,-0.49598,-0.51579,-0.52128,-0.5422,-0.52297,-0.5423,-0.54496,-0.52597,-0.55571,-0.61382,-0.61354,-0.58029,-0.63261,-0.6122,-0.60085,-0.60909,-0.65119,-0.60842,-0.62911,-0.61775,-0.60895,-0.64386,-0.59843,-0.65088,-0.61906,-0.53131,-0.4113,-0.33194,-0.2625,-0.08951,0.012036,0.16685,-0.037912,-0.45372,-0.96453,-0.9365,-0.82447,-0.79986,-0.70733,-0.57791,-0.5104,-0.49911,-0.49364,-0.49821,-0.53213,-0.54211,-0.51223,-0.51551,-0.5294,-0.53536,-0.46756,-0.48964,-0.53942,-0.55355,-0.57272,-0.49029,-0.50155,-0.51371,-0.49933,-0.48361,-0.53154,-0.48785,-0.49317,-0.48154,-0.43891,-0.49148,-0.44735,-0.43857,-0.44591,-0.44158,-0.44351,-0.40646,-0.40508,-0.41768,-0.40475,-0.3741,-0.37804,-0.38252,-0.36916,-0.36646,-0.32258,-0.3402,-0.32497,-0.30208,-0.31247,-0.31455,-0.31943,-0.34024,-0.29111,-0.30547,-0.20967,-0.30421,-0.28097,-0.23531,-0.26727,-0.26485,-0.24909,-0.29189,-0.28812,-0.30147,-0.39529,-0.4347,-0.44238,-0.45734,-0.5461,-0.57627,-0.62039,-0.59561,-0.61331,-0.64222,-0.60134,-0.5952,-0.58594,-0.6036,-0.58725,-0.58014,-0.59783,-0.59689,-0.56598,-0.59747,-0.57892,-0.58389,-0.55209,-0.5854,-0.55951,-0.56325,-0.53731,-0.5417,-0.58017,-0.60042,-0.56444,-0.5911,-0.60447,-0.58973,-0.59717,-0.54832,-0.59482,-0.59758,-0.56753,-0.5799,-0.62261,-0.61268,-0.59131,-0.59983,-0.57843,-0.60292,-0.59476,-0.60418,-0.60566,-0.66029,-0.61516,-0.59026,-0.62404,-0.63349,-0.63764,-0.63405,-0.66492,-0.6186,-0.6084,-0.59686,-0.65304,-0.6191,-0.63855,-0.60337,-0.55601,-0.57768,-0.58249,-0.58446,-0.63489,-0.58423,-0.53701,-0.5555,-0.57355,-0.58047,-0.58091,-0.59531,-0.62475,-0.6236,-0.62069,-0.65683,-0.67126,-0.6778,-0.68917,-0.67674,-0.6838,-0.67337,-0.67934,-0.67756,-0.71297,-0.71558,-0.68535,-0.67767,-0.71321,-0.70043,-0.70776,-0.64266,-0.60325,-0.49951,-0.3982,-0.28244,-0.1872,-0.066333,0.016149,-0.12898,-0.60463,-1.0117,-0.94205,-0.89654,-0.8725,-0.78852,-0.66744,-0.56741,-0.57596,-0.58296,-0.58564,-0.53503,-0.57488,-0.56474,-0.56031,-0.55047,-0.55133,-0.5302,-0.55639,-0.52849,-0.52506,-0.52098,-0.50095,-0.50925,-0.50694,-0.50226,-0.48031,-0.47705,-0.46657,-0.46832,-0.4678,-0.45884,-0.43481,-0.45617,-0.43709,-0.45887,-0.46086,-0.44671,-0.43372,-0.43649,-0.432,-0.41673,-0.41983,-0.41471,-0.39524,-0.40218,-0.40049,-0.38624,-0.38216,-0.3803,-0.35337,-0.352,-0.34857,-0.34412,-0.33393,-0.3093,-0.30389,-0.31697,-0.2934,-0.2914,-0.29203,-0.28806,-0.28235,-0.29334,-0.29389,-0.32436,-0.35752,-0.40121,-0.42494,-0.46791,-0.46684,-0.48756,-0.50708,-0.52597,-0.53699,-0.55529,-0.55473,-0.57489,-0.56434,-0.56039,-0.58088,-0.57472,-0.58788,-0.60359,-0.60032,-0.62189,-0.62572,-0.60504,-0.60923,-0.61567,-0.6171,-0.62947,-0.63587,-0.63104,-0.6306,-0.64909,-0.64811,-0.64236,-0.64358,-0.63347,-0.62772,-0.64773,-0.64747,-0.64883,-0.64702,-0.65537,-0.63406,-0.65561,-0.66833,-0.66775,-0.67457,-0.66972,-0.6784,-0.66913,-0.6728,-0.66889,-0.67051,-0.66121,-0.67346,-0.6673,-0.64531,-0.6598,-0.66899,-0.66656,-0.65653,-0.6768,-0.67903,-0.68585,-0.6614,-0.6563,-0.65828,-0.66056,-0.66526,-0.6839,-0.67855,-0.67015,-0.68309,-0.68811,-0.69558,-0.70096,-0.69362,-0.69298,-0.68404,-0.67132,-0.66229,-0.65191,-0.63917,-0.62774,-0.6294,-0.60483,-0.60151,-0.58736,-0.60073,-0.60677,-0.58641,-0.57745,-0.60212,-0.58839,-0.60726,-0.60296,-0.60082,-0.60199,-0.60621,-0.60842,-0.60876,-0.59791,-0.60439,-0.60763,-0.60715,-0.6134,-0.60959,-0.6153,-0.61705,-0.61451,-0.61344,-0.61011,-0.61196,-0.61087,-0.61512,-0.61868,-0.605,-0.6306,-0.62369,-0.61117,-0.60682,-0.57749,-0.56469,-0.56379,-0.55879,-0.57535,-0.5732,-0.52926,-0.52394,-0.51689,-0.506,-0.46909,-0.42874,-0.45661,-0.4802,-0.50162,-0.45371,-0.48983,-0.61149,-0.67788,-0.75252,-0.68971,-0.65534,-0.64272,-0.65198,-0.6575,-0.66764,-0.63819,-0.62876,-0.62905,-0.62407,-0.63504,-0.62423,-0.54083,-0.42201,-0.31162,-0.18772,-0.029732,0.12765,0.08594,-0.19989,-0.72087,-1.1256,-1.0071,-0.92027,-0.84211,-0.75583,-0.70617,-0.67863,-0.67571,-0.66244,-0.67514,-0.64775,-0.65093,-0.64813,-0.644,-0.62113,-0.6148,-0.59579,-0.59813,-0.58709,-0.59173,-0.5775,-0.57867,-0.55626,-0.55392,-0.5476,-0.54601,-0.5265,-0.51846,-0.51368,-0.49315,-0.48767,-0.49352,-0.47806,-0.48152,-0.47055,-0.46304,-0.45342,-0.44998,-0.43965,-0.43943,-0.42933,-0.41533,-0.40842,-0.39725,-0.37888,-0.37156,-0.38127,-0.36881,-0.36181,-0.36105,-0.34012,-0.33534,-0.31478,-0.30821,-0.30752,-0.28999,-0.28238,-0.2783,-0.2707,-0.2656,-0.26123,-0.24768,-0.24315,-0.23744,-0.24178,-0.25743,-0.27787,-0.30099,-0.31002,-0.38154,-0.42251,-0.43176,-0.42982,-0.45364,-0.47019,-0.48116,-0.49648,-0.41091,-0.49441,-0.64131,-0.66336,-0.63307,-0.6165,-0.6293,-0.63641,-0.59913,-0.57999,-0.56859,-0.56166,-0.56869,-0.57874,-0.57943,-0.5645,-0.56266,-0.54848,-0.54914,-0.55237,-0.54796,-0.53251,-0.53548,-0.55302,-0.54792,-0.55596,-0.55205,-0.54706,-0.53629,-0.56366,-0.58349,-0.59394,-0.59145,-0.60031,-0.58951,-0.58462,-0.62157,-0.66884,-0.69585,-0.69791,-0.69524,-0.69245,-0.69806,-0.70543,-0.70687,-0.72203,-0.72298,-0.7212,-0.72761,-0.73364,-0.75523,-0.75119,-0.74256,-0.74118,-0.74127,-0.73654,-0.72262,-0.7166,-0.71382,-0.71702,-0.71149,-0.6959,-0.69719,-0.69481,-0.69367,-0.69345,-0.68847,-0.68892,-0.68239,-0.69129,-0.69072,-0.67797,-0.68556,-0.68523,-0.69118,-0.688,-0.68418,-0.67657,-0.67414,-0.68413,-0.69141,-0.68859,-0.68342,-0.68105,-0.6753,-0.67527,-0.65595,-0.65469,-0.63221,-0.62109,-0.62957,-0.61786,-0.64181,-0.61826,-0.58742,-0.57341,-0.57806,-0.57813,-0.58772,-0.58819,-0.5947,-0.59935,-0.60837,-0.61629,-0.62582,-0.63974,-0.65781,-0.65134,-0.65381,-0.56958,-0.5699,-0.63824,-0.67146,-0.6841,-0.65412,-0.66249,-0.68727,-0.67307,-0.63657,-0.63994,-0.61057,-0.49794,-0.37106,-0.23934,-0.025566,0.19595,0.094398,-0.15408,-0.69753,-1.0477,-0.88742,-0.82259,-0.7076,-0.57268,-0.54761,-0.54358,-0.54044,-0.53836,-0.4975,-0.48037,-0.48,-0.5081,-0.50686,-0.4862,-0.46898,-0.47751,-0.46863,-0.46901,-0.45268,-0.4578,-0.45558,-0.4599,-0.44793,-0.45252,-0.43954,-0.4462,-0.43228,-0.41959,-0.43569,-0.43562,-0.42627,-0.42152,-0.41897,-0.39059,-0.39789,-0.39638,-0.37806,-0.36894,-0.35759,-0.33888,-0.32499,-0.34223,-0.31666,-0.29536,-0.27736,-0.27199,-0.25708,-0.24354,-0.23482,-0.23355,-0.22345,-0.21562,-0.21118,-0.20322,-0.19052,-0.18366,-0.17671,-0.17194,-0.16165,-0.15875,-0.15205,-0.15577,-0.16937,-0.1943,-0.2263,-0.25807,-0.29466,-0.33664,-0.37667,-0.39728,-0.41589,-0.44055,-0.46544,-0.49385,-0.51662,-0.51762,-0.52682,-0.53055,-0.53324,-0.54768,-0.54444,-0.53779,-0.5459,-0.54605,-0.54769,-0.54401,-0.54336,-0.54497,-0.54247,-0.53716,-0.53954,-0.5323,-0.52658,-0.53927,-0.54532,-0.53885,-0.54062,-0.53376,-0.55178,-0.56923,-0.57695,-0.59665,-0.59476,-0.5706,-0.56468,-0.58723,-0.60026,-0.59196,-0.6014,-0.57752,-0.56462,-0.56142,-0.59206,-0.58267,-0.56105,-0.55223,-0.56108,-0.57435,-0.59021,-0.58705,-0.59801,-0.59825,-0.59829,-0.61862,-0.6267,-0.63043,-0.64808,-0.63117,-0.61902,-0.62559,-0.63502,-0.62735,-0.62943,-0.62243,-0.62665,-0.61916,-0.62574,-0.61901,-0.61215,-0.61196,-0.61844,-0.61353,-0.61535,-0.5977,-0.59933,-0.60427,-0.59927,-0.60756,-0.59466,-0.59873,-0.5954,-0.58986,-0.59126,-0.59317,-0.59072,-0.58132,-0.55347,-0.54001,-0.52599,-0.52889,-0.55294,-0.53493,-0.50398,-0.48357,-0.49343,-0.51361,-0.51356,-0.52061,-0.52515,-0.52672,-0.53213,-0.54452,-0.56238,-0.57013,-0.57884,-0.59151,-0.59495,-0.59082,-0.58791,-0.5997,-0.60083,-0.59847,-0.58311,-0.58494,-0.58912,-0.59873,-0.59485,-0.57426,-0.48499,-0.42744,-0.31744,-0.21622,-0.043281,0.21914,0.28244,0.033947,-0.48188,-0.9274,-0.8747,-0.77913,-0.69943,-0.57332,-0.54184,-0.53481,-0.53749,-0.52633,-0.53011,-0.50778,-0.48373,-0.47991,-0.49669,-0.50185,-0.49747,-0.47697,-0.47278,-0.47962,-0.50654,-0.49749,-0.46856,-0.43956,-0.4548,-0.46365,-0.46477,-0.45163,-0.45077,-0.4457,-0.44903,-0.43636,-0.43392,-0.43358,-0.43254,-0.41521,-0.40955,-0.40502,-0.39381,-0.40114,-0.37124,-0.36244,-0.34777,-0.3236,-0.31372,-0.308,-0.29908,-0.27906,-0.2639,-0.25328,-0.25613,-0.23276,-0.2131,-0.20541,-0.19376,-0.18609,-0.17683,-0.17807,-0.17539,-0.15029,-0.14426,-0.15521,-0.15787,-0.16569,-0.19176,-0.2104,-0.23872,-0.28123,-0.31603,-0.3576,-0.39276,-0.43674,-0.46742,-0.47995,-0.49451,-0.51777,-0.53437,-0.55235,-0.56363,-0.57681,-0.57725,-0.583,-0.57074,-0.57657,-0.58077,-0.58791,-0.57869,-0.57271,-0.56634,-0.5695,-0.56192,-0.56653,-0.56985,-0.57461,-0.5628,-0.56907,-0.57051,-0.56938,-0.56274,-0.5643,-0.56813,-0.57854,-0.58616,-0.57204,-0.5754,-0.57625,-0.58498,-0.58457,-0.59074,-0.5961,-0.5829,-0.58753,-0.59093,-0.59589,-0.59638,-0.6,-0.59553,-0.60326,-0.61026,-0.60911,-0.61428,-0.60882,-0.61547,-0.6182,-0.62178,-0.62009,-0.61073,-0.61275,-0.6244,-0.62284,-0.61872,-0.61615,-0.62571,-0.62508,-0.61893,-0.62657,-0.62063,-0.62643,-0.6269,-0.62988,-0.62964,-0.62931,-0.62621,-0.62361,-0.62828,-0.63127,-0.62634,-0.62261,-0.63245,-0.63508,-0.62837,-0.63068,-0.63623,-0.63388,-0.63022,-0.63633,-0.63381,-0.63781,-0.63129,-0.63575,-0.63967,-0.62351,-0.61797,-0.59577,-0.59646,-0.58592,-0.58755,-0.59288,-0.58116,-0.56266,-0.54763,-0.54626,-0.56373,-0.56315,-0.5724,-0.57055,-0.58864,-0.58939,-0.60406,-0.62793,-0.64259,-0.64515,-0.64766,-0.65043,-0.66818,-0.66417,-0.66439,-0.66443,-0.67111,-0.6687,-0.67784,-0.66705,-0.66807,-0.66748,-0.67529,-0.62896,-0.52191,-0.40386,-0.29726,-0.13256,0.12278,0.20124,-0.039655,-0.5481,-1,-0.9538,-0.85812,-0.76872,-0.62756,-0.59123,-0.57141,-0.58459,-0.58019,-0.58476,-0.56313,-0.56966,-0.5676,-0.5782,-0.57328,-0.56646,-0.55747,-0.56564,-0.56392,-0.56061,-0.55283,-0.55978,-0.5498,-0.54536,-0.53941,-0.5356,-0.53064,-0.53102,-0.52506,-0.52284,-0.51343,-0.51217,-0.51169,-0.49277,-0.48576,-0.48353,-0.47704,-0.471,-0.4572,-0.44195,-0.42597,-0.41921,-0.41671,-0.39853,-0.37642,-0.3658,-0.35603,-0.34436,-0.3405,-0.3363,-0.31289,-0.29469,-0.29386,-0.28864,-0.27794,-0.2631,-0.25422,-0.25427,-0.25287,-0.2417,-0.22749,-0.23106,-0.2453,-0.26041,-0.28326,-0.31632,-0.35717,-0.40248,-0.43813,-0.45921,-0.49528,-0.52929,-0.55545,-0.58054,-0.60307,-0.61998,-0.6318,-0.63898,-0.64694,-0.64641,-0.65373,-0.66053,-0.65658,-0.66699,-0.65623,-0.65483,-0.65168,-0.6562,-0.6525,-0.65101,-0.65632,-0.65495,-0.65412,-0.65369,-0.65665,-0.65454,-0.6572,-0.65598,-0.66449,-0.66129,-0.66086,-0.66425,-0.6608,-0.66381,-0.6659,-0.66449,-0.65929,-0.65922,-0.67101,-0.67277,-0.67507,-0.6757,-0.67161,-0.67992,-0.6811,-0.68821,-0.68394,-0.68722,-0.692,-0.69911,-0.70173,-0.69388,-0.7008,-0.69874,-0.70052,-0.69896,-0.70049,-0.69305,-0.69908,-0.6998,-0.70716,-0.70559,-0.70344,-0.70985,-0.71327,-0.71118,-0.71502,-0.70365,-0.70461,-0.71074,-0.71472,-0.71497,-0.70994,-0.7098,-0.71712,-0.71588,-0.71163,-0.71778,-0.71475,-0.71609,-0.72252,-0.71861,-0.71702,-0.71545,-0.71297,-0.72234,-0.71559,-0.71589,-0.71589,-0.71067,-0.68911,-0.67125,-0.66483,-0.67056,-0.68056,-0.67633,-0.64734,-0.63533,-0.61154,-0.61846,-0.63603,-0.65409,-0.65169,-0.66528,-0.67962,-0.684,-0.70799,-0.71303,-0.72697,-0.73708,-0.74219,-0.73868,-0.74003,-0.74435,-0.74064,-0.75038,-0.76028,-0.75731,-0.75107,-0.75783,-0.76118,-0.76662,-0.76064,-0.66741,-0.54555,-0.43642,-0.31148,-0.10422,0.11269,-0.0079076,-0.43928,-1.0095,-1.1071,-0.98451,-0.92257,-0.77498,-0.6968,-0.65135,-0.65256,-0.64274,-0.66855,-0.65318,-0.65206,-0.64588,-0.64419,-0.6421,-0.6492,-0.63894,-0.64049,-0.62416,-0.62429,-0.62278,-0.62456,-0.61318,-0.60171,-0.59382,-0.59678,-0.5932,-0.58629,-0.5748,-0.57252,-0.56771,-0.56721,-0.56048,-0.54073,-0.52642,-0.5166,-0.5092,-0.50456,-0.48571,-0.47893,-0.46586,-0.46094,-0.44807,-0.43456,-0.42507,-0.41649,-0.40674,-0.3994,-0.38975,-0.37723,-0.36464,-0.36504,-0.35373,-0.33482,-0.33144,-0.31822,-0.31844,-0.31292,-0.30252,-0.29637,-0.28799,-0.2997,-0.29414,-0.30214,-0.31622,-0.35109,-0.39669,-0.44281,-0.46197,-0.49373,-0.53379,-0.56562,-0.60219,-0.62648,-0.65158,-0.66876,-0.69201,-0.70326,-0.71615,-0.71078,-0.72369,-0.7287,-0.73016,-0.72514,-0.72403,-0.72594,-0.73211,-0.73367,-0.73807,-0.7289,-0.72899,-0.72485,-0.73366,-0.73288,-0.73227,-0.72922,-0.73115,-0.73083,-0.73282,-0.72499,-0.72581,-0.7248,-0.72975,-0.7271,-0.73241,-0.72231,-0.72783,-0.72849,-0.72952,-0.72883,-0.73039,-0.73193,-0.74149,-0.74291,-0.75156,-0.73906,-0.73935,-0.74767,-0.75174,-0.74934,-0.74611,-0.75127,-0.74906,-0.75617,-0.75686,-0.74439,-0.73809,-0.7581,-0.76473,-0.7528,-0.7562,-0.7541,-0.75439,-0.7584,-0.76094,-0.75603,-0.75895,-0.75434,-0.76385,-0.76213,-0.75555,-0.75467,-0.7579,-0.76098,-0.75832,-0.75808,-0.75845,-0.76179,-0.75948,-0.76027,-0.75815,-0.76168,-0.75684,-0.75816,-0.75581,-0.75295,-0.75591,-0.75134,-0.75343,-0.75265,-0.75795,-0.75493,-0.7458,-0.7433,-0.73438,-0.71093,-0.70074,-0.7041,-0.70617,-0.71432,-0.70673,-0.6757,-0.65517,-0.64401,-0.65899,-0.6773,-0.66736,-0.67794,-0.68453,-0.70032,-0.71362,-0.73162,-0.73954,-0.74683,-0.75106,-0.75922,-0.75396,-0.74716,-0.7509,-0.75276,-0.75612,-0.75884,-0.75245,-0.74937,-0.75486,-0.76298,-0.75577,-0.68508,-0.57294,-0.45844,-0.34163,-0.17244,0.077713,0.061346,-0.28668,-0.87275,-1.1147,-1.061,-0.9616,-0.87173,-0.76486,-0.66942,-0.66344,-0.66095,-0.6653,-0.65805,-0.65752,-0.64348,-0.65136,-0.64961,-0.65723,-0.65526,-0.64699,-0.63091,-0.63646,-0.63701,-0.63208,-0.6266,-0.626,-0.61705,-0.61715,-0.61798,-0.61229,-0.60304,-0.59904,-0.58235,-0.5908,-0.57351,-0.56368,-0.54819,-0.54706,-0.54581,-0.53289,-0.51308,-0.50412,-0.49579,-0.4911,-0.46858,-0.45949,-0.45888,-0.44879,-0.43494,-0.41402,-0.39325,-0.38444,-0.37387,-0.36682,-0.36189,-0.35551,-0.34207,-0.32258,-0.31649,-0.30699,-0.30444,-0.29089,-0.28345,-0.28163,-0.28114,-0.29094,-0.29731,-0.31797,-0.34881,-0.37903,-0.42638,-0.45505,-0.48636,-0.51626,-0.55252,-0.57358,-0.59743,-0.59735,-0.61491,-0.6282,-0.60998,-0.61099,-0.61066,-0.61533,-0.62761,-0.63201,-0.63509,-0.6223,-0.61874,-0.60795,-0.62483,-0.61996,-0.62763,-0.62656,-0.62816,-0.63307,-0.64069,-0.63277,-0.63224,-0.63437,-0.64401,-0.63917,-0.62979,-0.62236,-0.6269,-0.65098,-0.64896,-0.65063,-0.64128,-0.64822,-0.65332,-0.66208,-0.65394,-0.65797,-0.64984,-0.67263,-0.68204,-0.67896,-0.67868,-0.67969,-0.67967,-0.68854,-0.66856,-0.66915,-0.67492,-0.67633,-0.68888,-0.68337,-0.69595,-0.69811,-0.69858,-0.69688,-0.6888,-0.68941,-0.68699,-0.68604,-0.69962,-0.70497,-0.7,-0.6949,-0.70828,-0.69982,-0.69077,-0.69146,-0.69674,-0.7012,-0.7085,-0.70617,-0.70257,-0.69784,-0.6988,-0.7074,-0.70877,-0.70522,-0.69806,-0.69406,-0.67977,-0.66541,-0.67457,-0.66025,-0.66517,-0.6694,-0.63937,-0.62108,-0.60459,-0.6158,-0.63378,-0.63749,-0.63281,-0.6497,-0.65892,-0.66887,-0.68508,-0.7067,-0.71108,-0.71733,-0.7219,-0.73434,-0.73876,-0.74009,-0.73505,-0.74199,-0.73531,-0.73582,-0.73532,-0.73024,-0.7468,-0.75397,-0.72605,-0.62004,-0.50001,-0.3931,-0.25091,-0.041619,0.060387,-0.10797,-0.5879,-1.1269,-1.0765,-0.94365,-0.88172,-0.7881,-0.718,-0.6703,-0.6788,-0.65716,-0.65926,-0.65329,-0.65534,-0.6385,-0.63528,-0.63399,-0.64606,-0.64684,-0.6347,-0.62023,-0.62934,-0.61786,-0.63249,-0.61353,-0.60916,-0.59526,-0.59848,-0.59708,-0.59369,-0.58524,-0.57921,-0.57017,-0.57722,-0.57316,-0.56127,-0.5368,-0.53076,-0.5249,-0.52001,-0.49697,-0.48882,-0.4761,-0.46427,-0.46472,-0.44236,-0.43037,-0.42049,-0.40022,-0.39373,-0.38156,-0.36759,-0.34929,-0.33404,-0.32294,-0.31899,-0.30748,-0.29688,-0.29035,-0.28219,-0.26386,-0.24752,-0.25668,-0.25843,-0.28045,-0.29473,-0.32366,-0.36467,-0.41418,-0.43733,-0.48573,-0.53238,-0.56123,-0.59267,-0.62383,-0.64487,-0.66582,-0.68495,-0.69091,-0.70191,-0.7151,-0.71404,-0.71031,-0.71709,-0.72349,-0.71371,-0.70839,-0.70841,-0.71329,-0.72602,-0.72504,-0.71874,-0.70989,-0.71528,-0.71837,-0.71194,-0.71103,-0.70781,-0.71493,-0.71721,-0.71656,-0.71134,-0.70758,-0.71385,-0.71629,-0.71584,-0.72053,-0.72609,-0.73009,-0.72541,-0.73392,-0.73356,-0.74185,-0.73722,-0.74323,-0.7497,-0.74959,-0.75662,-0.75538,-0.74747,-0.75048,-0.76223,-0.75608,-0.75933,-0.76115,-0.76223,-0.76903,-0.76515,-0.7709,-0.7718,-0.76978,-0.7649,-0.77202,-0.77815,-0.77001,-0.77311,-0.77386,-0.77429,-0.77392,-0.78064,-0.78601,-0.78888,-0.78235,-0.77118,-0.77305,-0.76882,-0.75527,-0.74174,-0.73181,-0.72779,-0.74353,-0.7554,-0.72812,-0.69348,-0.67883,-0.68025,-0.7084,-0.71235,-0.71144,-0.72601,-0.73901,-0.73837,-0.76212,-0.77238,-0.78136,-0.79483,-0.81216,-0.81045,-0.81483,-0.81435,-0.81291,-0.81262,-0.81579,-0.81468,-0.80821,-0.81787,-0.82185,-0.82793,-0.81376,-0.74853,-0.64789,-0.52452,-0.40617,-0.24174,-0.024688,-0.064433,-0.37988,-0.96491,-1.2252,-1.1436,-1.0377,-0.95269,-0.88737,-0.78544,-0.74432,-0.73273,-0.73849,-0.73553,-0.73205,-0.71991,-0.72457,-0.72156,-0.73114,-0.72263,-0.71745,-0.70649,-0.71141,-0.70141,-0.70174,-0.69716,-0.69135,-0.68998,-0.68915,-0.68322,-0.67905,-0.66927,-0.66385,-0.65814,-0.65882,-0.64968,-0.64472,-0.63149,-0.62467,-0.61688,-0.60338,-0.5923,-0.57697,-0.56661,-0.55882,-0.55071,-0.53627,-0.52116,-0.51343,-0.49829,-0.48246,-0.46073,-0.44676,-0.43527,-0.42193,-0.40345,-0.38564,-0.38591,-0.37163,-0.36806,-0.3541,-0.34263,-0.3328,-0.33492,-0.33729,-0.34761,-0.36266,-0.38865,-0.42159,-0.46661,-0.51801,-0.56514,-0.59508,-0.63483,-0.68147,-0.71158,-0.73838,-0.75394,-0.77354,-0.79084,-0.7964,-0.80782,-0.80195,-0.81203,-0.81645,-0.8173,-0.81594,-0.81189,-0.80488,-0.81096,-0.81679,-0.8144,-0.81417,-0.80731,-0.80618,-0.81095,-0.81021,-0.80372,-0.79699,-0.80339,-0.81102,-0.81247,-0.80521,-0.80234,-0.7996,-0.80972,-0.80505,-0.80801,-0.80073,-0.80708,-0.80805,-0.81668,-0.81427,-0.81864,-0.82195,-0.82347,-0.83469,-0.82973,-0.83024,-0.83074,-0.83407,-0.84277,-0.84144,-0.83371,-0.83117,-0.83634,-0.8383,-0.84355,-0.84104,-0.83595,-0.84048,-0.8473,-0.84952,-0.85291,-0.84723,-0.85248,-0.86108,-0.8535,-0.84909,-0.84673,-0.85145,-0.85849,-0.85531,-0.85231,-0.85226,-0.8507,-0.86252,-0.85867,-0.8599,-0.85892,-0.85983,-0.8594,-0.86262,-0.85667,-0.84657,-0.83634,-0.81555,-0.80905,-0.81481,-0.80735,-0.8169,-0.79269,-0.7713,-0.75388,-0.75856,-0.77354,-0.77823,-0.78746,-0.79535,-0.8039,-0.80923,-0.82105,-0.84165,-0.8555,-0.86539,-0.86912,-0.86587,-0.86849,-0.87656,-0.87787,-0.87486,-0.87799,-0.88064,-0.8858,-0.87491,-0.87538,-0.88131,-0.88178,-0.83388,-0.72824,-0.59614,-0.47152,-0.31445,-0.098181,-0.01629,-0.25001,-0.76094,-1.2461,-1.1882,-1.0557,-0.99074,-0.88211,-0.8015,-0.78191,-0.79046,-0.78406,-0.7945,-0.77576,-0.78497,-0.76917,-0.77457,-0.76476,-0.76825,-0.75937,-0.7697,-0.75207,-0.75642,-0.74513,-0.75555,-0.73971,-0.73516,-0.72235,-0.72658,-0.72945,-0.72791,-0.72472,-0.72013,-0.70357,-0.70279,-0.68891,-0.68679,-0.67695,-0.66742,-0.65532,-0.64608,-0.63297,-0.62149,-0.60532,-0.59416,-0.58822,-0.5705,-0.54966,-0.52827,-0.52132,-0.50817,-0.49692,-0.48017,-0.46419,-0.45301,-0.44905,-0.43286,-0.40925,-0.40106,-0.39037,-0.38381,-0.37778,-0.36181,-0.35759,-0.36806,-0.38871,-0.41077,-0.4395,-0.48502,-0.52871,-0.57455,-0.60023,-0.62952,-0.66869,-0.69915,-0.73359,-0.76347,-0.77577,-0.78252,-0.79727,-0.80995,-0.82507,-0.8236,-0.82611,-0.82316,-0.83041,-0.82978,-0.82745,-0.82024,-0.81631,-0.82778,-0.83141,-0.82354,-0.82362,-0.81659,-0.81912,-0.81477,-0.81927,-0.80733,-0.81107,-0.81233,-0.81745,-0.8072,-0.80759,-0.80542,-0.81035,-0.81208,-0.8196,-0.81236,-0.80914,-0.81319,-0.81237,-0.81261,-0.81702,-0.81692,-0.82174,-0.83025,-0.83652,-0.83122,-0.83418,-0.82913,-0.83924,-0.84101,-0.84548,-0.83518,-0.8434,-0.84344,-0.84441,-0.84567,-0.83648,-0.83852,-0.84012,-0.84732,-0.84151,-0.84663,-0.84529,-0.84225,-0.84758,-0.85268,-0.84588,-0.84347,-0.85192,-0.85012,-0.85413,-0.85405,-0.84637,-0.84916,-0.85357,-0.84783,-0.84366,-0.84835,-0.84868,-0.85634,-0.84812,-0.85191,-0.84484,-0.84875,-0.85697,-0.86013,-0.85074,-0.85053,-0.85347,-0.86504,-0.852,-0.83934,-0.8164,-0.80674,-0.81645,-0.81767,-0.82753,-0.82123,-0.78277,-0.76514,-0.7538,-0.76289,-0.77739,-0.77343,-0.78409,-0.80211,-0.81192,-0.81686,-0.82917,-0.84357,-0.86085,-0.87542,-0.87305,-0.86455,-0.87007,-0.87892,-0.881,-0.87386,-0.87782,-0.87457,-0.87702,-0.87926,-0.88317,-0.88106,-0.85424,-0.75794,-0.63124,-0.5054,-0.34841,-0.14841,0.026752,-0.14059,-0.57294,-1.1168,-1.1957,-1.074,-1.0178,-0.96301,-0.85179,-0.78575,-0.79418,-0.78212,-0.80397,-0.77834,-0.78596,-0.77605,-0.79232,-0.77768,-0.78437,-0.76171,-0.76616,-0.75933,-0.77758,-0.75688,-0.75639,-0.7447,-0.74884,-0.74398,-0.74415,-0.72752,-0.73128,-0.72458,-0.7269,-0.71478,-0.70596,-0.69591,-0.69403,-0.68542,-0.67771,-0.66183,-0.65596,-0.64696,-0.63829,-0.62276,-0.6058,-0.58616,-0.57497,-0.57365,-0.55804,-0.54637,-0.52961,-0.51536,-0.49815,-0.48703,-0.46955,-0.45251,-0.43806,-0.4382,-0.42439,-0.41294,-0.39714,-0.38921,-0.38963,-0.38009,-0.37426,-0.38114,-0.39987,-0.4198,-0.45474,-0.49598,-0.53248,-0.57603,-0.62382,-0.67253,-0.69085,-0.72184,-0.75625,-0.78654,-0.79588,-0.80862,-0.81957,-0.83342,-0.84407,-0.85528,-0.84779,-0.84805,-0.84659,-0.85484,-0.8517,-0.8531,-0.84591,-0.84185,-0.84096,-0.84527,-0.83966,-0.832,-0.83797,-0.84451,-0.8405,-0.83849,-0.83399,-0.83589,-0.83252,-0.84041,-0.82899,-0.83076,-0.83067,-0.83393,-0.8326,-0.83126,-0.82952,-0.83701,-0.83062,-0.83444,-0.8428,-0.84424,-0.83876,-0.84207,-0.84002,-0.85522,-0.85364,-0.85068,-0.85427,-0.85956,-0.86937,-0.86609,-0.85796,-0.85908,-0.86209,-0.87125,-0.86359,-0.84892,-0.8634,-0.86566,-0.84577,-0.8548,-0.8717,-0.87281,-0.87784,-0.87925,-0.87491,-0.86508,-0.85377,-0.87707,-0.88467,-0.88434,-0.88066,-0.86851,-0.87762,-0.87577,-0.88676,-0.88231,-0.87624,-0.87584,-0.87994,-0.873,-0.88449,-0.87979,-0.88205,-0.89054,-0.88271,-0.8857,-0.88538,-0.88328,-0.89303,-0.8902,-0.8879,-0.88335,-0.87952,-0.88658,-0.89299,-0.89013,-0.89007,-0.87524,-0.89046,-0.89795,-0.89881,-0.89049,-0.88555,-0.88152,-0.88561,-0.8925,-0.89573,-0.89336,-0.88706,-0.8838,-0.86912,-0.85523,-0.84416,-0.84654,-0.84311,-0.86368,-0.84203,-0.80882,-0.79807,-0.78751,-0.8166,-0.81647,-0.81007,-0.82291,-0.83294,-0.84576,-0.85906,-0.87265,-0.87856,-0.89803,-0.9103,-0.907,-0.90109,-0.90237,-0.90313,-0.90955,-0.9113,-0.903,-0.91616,-0.90988,-0.9231,-0.90968,-0.88185,-0.77589,-0.71338,-0.60277,-0.38446,-0.16672,0.0080217,-0.17141,-0.61186,-0.89813,-1.2355,-1.1662,-1.0538,-1.0075,-0.86991,-0.84348,-0.81918,-0.8195,-0.8136,-0.83231,-0.81601,-0.82032,-0.81232,-0.83057,-0.81118,-0.81186,-0.79818,-0.80465,-0.80302,-0.80946,-0.7997,-0.79674,-0.78444,-0.78855,-0.7793,-0.7804,-0.76219,-0.76493,-0.76493,-0.76106,-0.75173,-0.73547,-0.72053,-0.72537,-0.71548,-0.7129,-0.69521,-0.68718,-0.67725,-0.67424,-0.6553,-0.6457,-0.62673,-0.6132,-0.60636,-0.59457,-0.57908,-0.56258,-0.54313,-0.52617,-0.51621,-0.49519,-0.49232,-0.47792,-0.46852,-0.46571,-0.45403,-0.441,-0.43035,-0.43021,-0.43257,-0.42633,-0.42931,-0.43783,-0.4782,-0.51742,-0.5496,-0.57664,-0.62464,-0.68191,-0.71647,-0.75014,-0.76967,-0.79475,-0.82649,-0.83472,-0.85089,-0.85335,-0.86665,-0.87218,-0.87944,-0.89059,-0.8847,-0.89268,-0.88664,-0.88323,-0.88381,-0.88356,-0.86799,-0.87877,-0.88333,-0.87385,-0.88163,-0.86136,-0.86183,-0.87621,-0.88276,-0.86874,-0.86763,-0.86025,-0.87273,-0.86815,-0.87183,-0.86531,-0.86319,-0.85974,-0.86982,-0.86824,-0.86733,-0.86618,-0.87086,-0.87338,-0.87463,-0.87736,-0.87187,-0.87636,-0.88516,-0.89341,-0.88184,-0.88277,-0.88983,-0.8949,-0.894,-0.89254,-0.89441,-0.88712,-0.90612,-0.90608,-0.90659,-0.90144,-0.90586,-0.90722,-0.91026,-0.91155,-0.912,-0.9123,-0.9113,-0.91309,-0.91363,-0.91026,-0.90808,-0.91536,-0.92064,-0.92348,-0.91823,-0.91489,-0.9218,-0.92442,-0.92062,-0.9148,-0.92009,-0.92401,-0.93056,-0.93035,-0.91644,-0.91911,-0.92493,-0.92821,-0.92697,-0.92947,-0.92371,-0.91774,-0.92706,-0.93685,-0.93494,-0.93237,-0.92933,-0.93185,-0.93549,-0.93618,-0.92891,-0.93115,-0.93735,-0.93855,-0.93485,-0.93193,-0.92983,-0.93472,-0.9358,-0.93223,-0.93258,-0.92935,-0.9301,-0.9395,-0.93205,-0.92942,-0.91196,-0.89763,-0.89273,-0.89478,-0.88178,-0.89437,-0.88651,-0.85672,-0.84049,-0.82524,-0.84675,-0.85697,-0.8584,-0.86625,-0.87639,-0.88337,-0.8828,-0.91811,-0.92466,-0.93309
