2.6177,2.6083,2.559,2.5827,2.5951,2.5535,2.5308,2.5459,2.5799,2.6033,2.6086,2.6218,2.643,2.6776,2.6661,2.6599,2.661,2.6823,2.7261,2.7284,2.76,2.7557,2.7558,2.7704,2.7618,2.7903,2.7894,2.7925,2.8124,2.7526,2.7449,2.7411,2.7214,2.6991,2.6475,2.5986,2.6262,2.6274,2.5778,2.5199,2.5549,2.5368,2.5493,2.5565,2.5525,2.5574,2.5657,2.599,2.5966,2.6047,2.5687,2.5383,2.5485,2.5513,2.5408,2.5651,2.559,2.5684,2.5726,2.5549,2.5427,2.5534,2.5319,2.5389,2.5994,2.6149,2.5474,2.536,2.5742,2.6112,2.5835,2.5644,2.5672,2.562,2.5683,2.5645,2.5536,2.5451,2.5468,2.5235,2.5247,2.5388,2.5507,2.5652,2.555,2.5441,2.5537,2.5477,2.5567,2.5584,2.569,2.5752,2.571,2.5776,2.5782,2.5922,2.6032,2.5955,2.5846,2.6142,2.6244,2.6168,2.6119,2.6118,2.6285,2.6212,2.6203,2.6207,2.6005,2.5907,2.5647,2.5516,2.5303,2.522,2.5233,2.5288,2.5264,2.5287,2.5227,2.5282,2.523,2.5156,2.5186,2.5229,2.5158,2.519,2.5099,2.4892,2.401,2.3617,2.3579,2.5046,2.7848,3.2057,3.6589,4.0072,4.1332,4.0099,3.6044,3.0866,2.8059,2.6923,2.6257,2.603,2.5708,2.5377,2.5264,2.5265,2.5447,2.528,2.5096,2.4875,2.4887,2.5019,2.5172,2.5164,2.5203,2.5397,2.5333,2.5284,2.5294,2.5165,2.5379,2.543,2.5462,2.5586,2.5716,2.5245,2.5231,2.5347,2.5412,2.5562,2.5718,2.5805,2.6025,2.5977,2.5857,2.6042,2.6159,2.6189,2.6334,2.6414,2.6605,2.6676,2.6829,2.7169,2.7367,2.7383,2.7517,2.7612,2.7734,2.7962,2.8152,2.8339,2.8414,2.8285,2.8218,2.8271,2.8129,2.8023,2.7797,2.7468,2.7176,2.7088,2.6803,2.664,2.6492,2.6362,2.6091,2.5803,2.5896,2.5722,2.5616,2.5639,2.5801,2.5967,2.5867,2.5809,2.5747,2.5633,2.5546,2.5643,2.5727,2.586,2.601,2.6144,2.6006,2.5954,2.596,2.5845,2.5799,2.5726,2.5678,2.5768,2.5794,2.5823,2.5719,2.567,2.5877,2.5883,2.5797,2.5731,2.5667,2.5673,2.5674,2.568,2.5651,2.558,2.5605,2.5594,2.5802,2.5802,2.5745,2.5607,2.575,2.5682,2.569,2.5733,2.5671,2.5515,2.5459,2.5571,2.5775,2.5901,2.5864,2.5899,2.5948,2.6016,2.6045,2.6031,2.6132,2.6432,2.6718,2.6962,2.6671,2.6559,2.652,2.6716,2.6775,2.6561,2.6175,2.5943,2.5835,2.576,2.5711,2.5615,2.5654,2.5582,2.5544,2.5466,2.5427,2.5413,2.5497,2.5507,2.5489,2.5502,2.5512,2.546,2.5172,2.4163,2.3748,2.4151,2.6284,2.9679,3.1728,3.6123,4.0327,4.2337,4.1488,3.7727,3.2555,2.8741,2.7439,2.6693,2.6257,2.597,2.5773,2.5741,2.5775,2.5657,2.5729,2.5703,2.5777,2.5641,2.5624,2.5537,2.5735,2.5726,2.5829,2.5701,2.5659,2.5537,2.5535,2.5662,2.6011,2.6114,2.6122,2.6115,2.6089,2.597,2.5943,2.6003,2.6148,2.6349,2.6327,2.6294,2.634,2.6518,2.6638,2.6654,2.6753,2.6916,2.7092,2.7208,2.7296,2.7396,2.7594,2.779,2.7938,2.81,2.8305,2.8429,2.8554,2.8683,2.8536,2.8542,2.8656,2.8884,2.8885,2.8626,2.8407,2.8204,2.7949,2.7605,2.7324,2.7192,2.7173,2.7102,2.692,2.6831,2.6613,2.6516,2.6419,2.6302,2.6314,2.6301,2.6264,2.6377,2.6402,2.6367,2.6323,2.6355,2.6411,2.6327,2.6324,2.6402,2.6328,2.6349,2.6339,2.6413,2.6421,2.6406,2.6333,2.6196,2.6175,2.6189,2.6323,2.6342,2.6514,2.6509,2.6253,2.6113,2.6232,2.644,2.6495,2.6508,2.644,2.642,2.6354,2.6402,2.6342,2.6306,2.6246,2.6317,2.6336,2.6398,2.6462,2.6513,2.6575,2.6702,2.6795,2.6742,2.6854,2.707,2.7293,2.7451,2.7437,2.7437,2.7449,2.7429,2.7277,2.6995,2.6678,2.6496,2.6404,2.631,2.6255,2.6225,2.6194,2.6166,2.6207,2.6192,2.612,2.6142,2.6074,2.6121,2.6041,2.6121,2.6143,2.617,2.5563,2.447,2.4407,2.5185,2.7761,3.1578,3.3788,3.8211,4.2043,4.2908,4.1206,3.6473,3.174,2.8914,2.8018,2.7206,2.6965,2.673,2.6557,2.6398,2.6437,2.6289,2.6237,2.6257,2.6237,2.6124,2.5978,2.5933,2.5978,2.6184,2.6431,2.641,2.6518,2.6563,2.6624,2.6575,2.6603,2.6627,2.6756,2.6777,2.6814,2.6831,2.6894,2.6925,2.7027,2.6885,2.6864,2.7025,2.7203,2.7344,2.7435,2.7499,2.7605,2.7732,2.7833,2.7971,2.8117,2.8286,2.8482,2.8565,2.8662,2.8874,2.8969,2.9039,2.9102,2.9305,2.9432,2.9414,2.9328,2.9195,2.9192,2.9233,2.9039,2.8785,2.8567,2.8311,2.8057,2.7685,2.7489,2.7369,2.7151,2.6987,2.6855,2.6875,2.6841,2.6812,2.6652,2.6598,2.6744,2.6887,2.7037,2.7142,2.7071,2.6983,2.6858,2.693,2.6954,2.6945,2.6924,2.6872,2.6854,2.6925,2.687,2.6872,2.6818,2.6784,2.6757,2.6737,2.6733,2.6746,2.6823,2.6714,2.6777,2.6811,2.6854,2.6769,2.6748,2.6777,2.6908,2.7068,2.6965,2.7008,2.7079,2.7188,2.7179,2.7366,2.7566,2.7671,2.7862,2.7781,2.7692,2.7596,2.7696,2.7805,2.7579,2.7371,2.6937,2.6667,2.6416,2.6386,2.644,2.6523,2.649,2.646,2.6522,2.6442,2.6495,2.6306,2.6186,2.5924,2.6049,2.6412,2.6477,2.6299,2.5332,2.4747,2.4861,2.6241,2.9062,3.3203,3.7471,4.0787,4.2185,4.1038,3.6781,3.1807,2.9199,2.8214,2.7819,2.6977,2.6694,2.6761,2.6755,2.6696,2.6477,2.6386,2.6392,2.6351,2.6345,2.6284,2.6334,2.639,2.6343,2.6353,2.63,2.6419,2.6507,2.6434,2.6383,2.6359,2.6554,2.6636,2.6603,2.6587,2.6598,2.6513,2.6637,2.6764,2.6934,2.6945,2.6865,2.6871,2.6948,2.7257,2.7435,2.7382,2.7221,2.7564,2.7719,2.796,2.8155,2.8221,2.8405,2.8479,2.8525,2.8616,2.8711,2.8767,2.8881,2.8908,2.89,2.8906,2.8978,2.8974,2.8824,2.8515,2.8327,2.8135,2.8075,2.7772,2.7609,2.7344,2.7055,2.6903,2.684,2.6701,2.6606,2.6519,2.6472,2.6372,2.6353,2.6291,2.6231,2.6505,2.6588,2.6582,2.6558,2.6427,2.637,2.6365,2.6572,2.6672,2.6689,2.6607,2.6356,2.6285,2.6321,2.658,2.6682,2.6769,2.6642,2.6517,2.6437,2.6345,2.6396,2.6701,2.6983,2.7046,2.7026,2.7013,2.7068,2.7065,2.7174,2.7298,2.7481,2.759,2.7444,2.725,2.7003,2.6929,2.6868,2.6647,2.656,2.6257,2.6107,2.6184,2.616,2.6164,2.6215,2.615,2.6075,2.6033,2.6015,2.6003,2.5986,2.5934,2.5795,2.5808,2.5664,2.481,2.4303,2.4546,2.6292,2.9381,3.3515,3.8147,4.1698,4.2525,4.0659,3.8572,3.3306,2.9512,2.8089,2.7197,2.6774,2.638,2.6243,2.601,2.6033,2.6011,2.6016,2.5863,2.5808,2.5719,2.5769,2.5796,2.5908,2.5871,2.5923,2.5913,2.5929,2.5955,2.5954,2.5866,2.5966,2.5959,2.5972,2.5923,2.6163,2.6336,2.6411,2.6333,2.6241,2.6288,2.6359,2.6495,2.6528,2.6569,2.6569,2.6621,2.6721,2.6876,2.7085,2.7274,2.7433,2.7507,2.7659,2.7703,2.7828,2.7967,2.8142,2.8163,2.8299,2.8345,2.8352,2.8341,2.8426,2.8447,2.8243,2.8182,2.7994,2.7834,2.7641,2.7272,2.6906,2.6786,2.6838,2.6718,2.6499,2.6216,2.6202,2.628,2.6308,2.6248,2.6073,2.5955,2.5985,2.5945,2.6026,2.6258,2.6368,2.6416,2.6245,2.6062,2.5982,2.6144,2.6236,2.6282,2.6335,2.6205,2.6078,2.6059,2.606,2.595,2.5825,2.5949,2.6162,2.6482,2.657,2.6517,2.6439,2.6394,2.6399,2.6605,2.6662,2.6762,2.6896,2.7024,2.717,2.7319,2.714,2.7071,2.6963,2.6712,2.6453,2.6235,2.6132,2.5964,2.5859,2.5796,2.5735,2.5707,2.5835,2.5819,2.578,2.5704,2.558,2.5639,2.5579,2.567,2.5755,2.5708,2.5479,2.4484,2.3999,2.4097,2.5981,2.9365,3.3704,3.8293,4.1742,4.249,4.1446,3.7711,3.2483,2.9027,2.767,2.6933,2.6274,2.597,2.5734,2.5776,2.5718,2.5856,2.5665,2.5612,2.5374,2.5454,2.5501,2.5485,2.5464,2.5634,2.5639,2.5619,2.5447,2.5544,2.5517,2.554,2.5579,2.5845,2.5827,2.5836,2.5889,2.5858,2.5823,2.5831,2.5923,2.6139,2.6145,2.6202,2.6233,2.6302,2.6248,2.6413,2.6552,2.6613,2.6699,2.6783,2.6835,2.7047,2.733,2.7395,2.7636,2.7834,2.8002,2.8103,2.8095,2.8039,2.7873,2.789,2.8144,2.8176,2.8128,2.7868,2.7639,2.7339,2.7169,2.7007,2.6857,2.657,2.6346,2.6194,2.6057,2.5767,2.5774,2.5842,2.6055,2.6168,2.6021,2.5818,2.5853,2.5871,2.5911,2.5802,2.5858,2.585,2.5838,2.5726,2.5618,2.565,2.5838,2.6001,2.6003,2.5863,2.5879,2.5811,2.5769,2.5755,2.5836,2.5859,2.5788,2.5659,2.5727,2.5815,2.6004,2.6131,2.6147,2.6202,2.6131,2.6213,2.6317,2.645,2.6733,2.6865,2.6906,2.6747,2.6712,2.6757,2.6619,2.6277,2.5816,2.5719,2.5746,2.572,2.5481,2.5345,2.5463,2.5438,2.5163,2.5067,2.5332,2.5584,2.5598,2.5287,2.5195,2.5335,2.5455,2.5281,2.4485,2.3711,2.3795,2.4808,2.6095,2.9255,3.3732,3.8118,4.1531,4.182,3.9548,3.4318,2.9815,2.768,2.6865,2.6338,2.6172,2.5972,2.5689,2.5505,2.5245,2.534,2.5262,2.5232,2.521,2.5275,2.5188,2.538,2.5381,2.5334,2.5235,2.5378,2.5447,2.5491,2.5417,2.5467,2.5584,2.5619,2.557,2.5554,2.5606,2.5593,2.5585,2.5716,2.5766,2.5804,2.5926,2.6094,2.6194,2.615,2.6066,2.6144,2.6322,2.6573,2.6775,2.6949,2.7071,2.7075,2.7209,2.7373,2.7467,2.7537,2.7295,2.7436,2.7833,2.7985,2.8065,2.7735,2.7651,2.7862,2.7861,2.7532,2.7308,2.7265,2.7048,2.6801,2.6516,2.6375,2.622,2.6011,2.5821,2.564,2.5601,2.5757,2.5842,2.5875,2.5871,2.5825,2.5638,2.5767,2.5678,2.5728,2.5753,2.582,2.5833,2.5878,2.5851,2.5808,2.5873,2.571,2.5671,2.573,2.5976,2.611,2.6206,2.6243,2.6182,2.6327,2.6399,2.6559,2.6501,2.6559,2.673,2.6783,2.6765,2.6655,2.6827,2.6895,2.6637,2.614,2.5766,2.5572,2.5578,2.5614,2.5417,2.5427,2.5547,2.5632,2.5724,2.5652,2.5519,2.5399,2.5367,2.5377,2.5407,2.5567,2.5545,2.527,2.4385,2.3694,2.3886,2.5368,2.8522,3.2717,3.7163,4.0629,4.1723,4.1294,3.8558,3.3274,2.9478,2.7672,2.69,2.6247,2.5988,2.5808,2.5644,2.5711,2.5577,2.5385,2.5351,2.5274,2.5349,2.5543,2.5701,2.5633,2.5591,2.5558,2.5608,2.5532,2.5524,2.5643,2.5711,2.5626,2.5566,2.5637,2.5711,2.5696,2.5735,2.582,2.5872,2.5804,2.573,2.6009,2.6213,2.6182,2.6214,2.6394,2.6575,2.6597,2.655,2.6655,2.6949,2.7144,2.708,2.7031,2.7228,2.7436,2.7609,2.7847,2.7909,2.792,2.7971,2.8034,2.7911,2.7813,2.7761,2.774,2.7776,2.7521,2.7269,2.7069,2.6813,2.6571,2.6298,2.6156,2.6225,2.6253,2.6185,2.5991,2.5787,2.5896,2.609,2.6171,2.606,2.5922,2.5912,2.599,2.6035,2.6041,2.6034,2.5941,2.596,2.5996,2.6052,2.6094,2.6063,2.6144,2.6155,2.6119,2.6048,2.6066,2.6057,2.6101,2.6088,2.6172,2.6252,2.6308,2.6391,2.6716,2.6861,2.7028,2.7057,2.707,2.7266,2.7199,2.7127,2.6951,2.6653,2.6534,2.6431,2.608,2.5756,2.5747,2.5775,2.5824,2.58,2.5768,2.5707,2.5782,2.5962,2.5749,2.5546,2.5562,2.5472,2.5672,2.5704,2.553,2.5006,2.4109,2.4172,2.4531,2.6794,3.055,3.5176,3.9412,4.2102,4.225,4.0606,3.6079,3.1159,2.8431,2.7469,2.6923,2.639,2.6225,2.5961,2.6044,2.5678,2.5659,2.5449,2.5679,2.5714,2.5841,2.5739,2.5681,2.5665,2.5748,2.5588,2.5682,2.5826,2.596,2.5861,2.5805,2.5822,2.5858,2.6014,2.6177,2.6141,2.5911,2.5919,2.6125,2.6346,2.6371,2.6344,2.6337,2.6334,2.6402,2.6556,2.6798,2.6776,2.6786,2.6938,2.7179,2.7248,2.7276,2.7339,2.7605,2.7879,2.7886,2.7746,2.7763,2.8056,2.8314,2.8236,2.8222,2.8218,2.7977,2.7882,2.7584,2.7531,2.7468,2.7322,2.7032,2.6788,2.6476,2.6421,2.6416,2.6364,2.6274,2.6237,2.6176,2.6117,2.6038,2.6023,2.5893,2.5923,2.6168,2.624,2.6232,2.6065,2.6051,2.61,2.6207,2.6159,2.5969,2.604,2.6131,2.6339,2.6077,2.5907,2.5834,2.5806,2.5835,2.5983,2.6277,2.6441,2.623,2.6111,2.5875,2.5769,2.6045,2.6093,2.6107,2.5918,2.5978,2.6011,2.6148,2.621,2.6187,2.6233,2.605,2.6029,2.6024,2.5957,2.5924,2.5916,2.5901,2.5823,2.5792,2.5941,2.6018,2.619,2.6303,2.6277,2.6415,2.648,2.6681,2.705,2.716,2.7198,2.7063,2.7107,2.6853,2.6627,2.6338,2.6003,2.5759,2.5651,2.5745,2.5782,2.5818,2.5692,2.5598,2.5629,2.5605,2.5532,2.5608,2.5629,2.5491,2.5544,2.5471,2.541,2.5415,2.4629,2.3989,2.4004,2.5088,2.7864,2.9942,3.4475,3.8846,4.1735,4.193,3.9189,3.4201,2.9842,2.8111,2.7033,2.6432,2.6081,2.6166,2.5901,2.5883,2.567,2.5691,2.5458,2.559,2.5487,2.5589,2.5487,2.5736,2.5585,2.5461,2.543,2.565,2.5628,2.5798,2.5757,2.5843,2.5686,2.5792,2.585,2.6028,2.6094,2.6086,2.5998,2.6101,2.6124,2.6164,2.6237,2.6228,2.6295,2.6399,2.6419,2.6541,2.6703,2.6911,2.6973,2.7056,2.7198,2.7273,2.7422,2.748,2.7502,2.7572,2.7354,2.75,2.7958,2.8204,2.8264,2.7881,2.8122,2.8572,2.8631,2.8405,2.8019,2.7636,2.7326,2.7057,2.686,2.6809,2.6746,2.664,2.6396,2.6278,2.6127,2.6076,2.6108,2.5909,2.5918,2.5899,2.5959,2.5977,2.6005,2.6036,2.5898,2.5759,2.5999,2.6281,2.6313,2.6293,2.6265,2.6137,2.6153,2.6108,2.6114,2.6051,2.5972,2.6143,2.6177,2.6126,2.6055,2.5989,2.6141,2.6113,2.6084,2.5853,2.5765,2.5851,2.6099,2.6039,2.6002,2.6019,2.6133,2.6044,2.5955,2.5766,2.5791,2.5971,2.6055,2.6067,2.597,2.5865,2.5871,2.5855,2.6004,2.6045,2.5928,2.5867,2.5919,2.5882,2.5759,2.5631,2.5836,2.5973,2.5927,2.5946,2.6093,2.5975,2.5954,2.5997,2.6249,2.6366,2.6298,2.6233,2.6305,2.644,2.674,2.6904,2.689,2.681,2.6931,2.7006,2.6947,2.6737,2.6423,2.6047,2.5971,2.604,2.5996,2.5708,2.5566,2.5691,2.5733,2.5886,2.5838,2.5626,2.5615,2.5554,2.5448,2.56,2.5746,2.5818,2.5554,2.4663,2.3917,2.3829,2.5337,2.8421,3.2678,3.5097,3.9252,4.2276,4.2195,3.9381,3.3976,3.0048,2.7882,2.706,2.6407,2.6338,2.6109,2.5975,2.5675,2.57,2.5542,2.5575,2.5328,2.5538,2.576,2.5955,2.5893,2.5732,2.561,2.5736,2.5817,2.5833,2.5734,2.5763,2.5668,2.5821,2.5784,2.6027,2.596,2.6058,2.5843,2.5885,2.5882,2.6046,2.6186,2.6275,2.6421,2.6235,2.6116,2.6497,2.6698,2.6813,2.6927,2.7032,2.7146,2.7217,2.74,2.7604,2.7723,2.7668,2.7778,2.7957,2.8005,2.8179,2.8279,2.8285,2.8396,2.8316,2.8196,2.8014,2.7906,2.779,2.7722,2.7545,2.7222,2.701,2.6887,2.6707,2.6595,2.6336,2.611,2.5936,2.5949,2.6053,2.6185,2.6153,2.6089,2.5989,2.5881,2.5892,2.5944,2.5984,2.5779,2.5608,2.5778,2.5945,2.5907,2.5939,2.5981,2.6003,2.6186,2.612,2.6192,2.6043,2.596,2.5839,2.5838,2.5852,2.5992,2.577,2.5752,2.5647,2.5656,2.5739,2.5949,2.6231,2.6096,2.5868,2.5835,2.5843,2.5821,2.5962,2.5738,2.5544,2.566,2.596,2.6068,2.5977,2.5902,2.5786,2.5704,2.5623,2.5534,2.5609,2.581,2.5908,2.5906,2.5857,2.5741,2.5686,2.5706,2.574,2.5768,2.5796,2.5785,2.5808,2.5828,2.5697,2.558,2.5688,2.58,2.5912,2.6007,2.6061,2.6139,2.6258,2.6339,2.6513,2.6679,2.6701,2.6638,2.6611,2.6719,2.6808,2.6806,2.6578,2.647,2.6247,2.6034,2.5802,2.5746,2.5696,2.5683,2.5658,2.5566,2.5521,2.5494,2.5441,2.548,2.5405,2.5359,2.5415,2.5329,2.5452,2.5379,2.4582,2.3994,2.3798,2.4089,2.6352,2.9691,3.389,3.8383,4.1804,4.216,4.0018,3.515,3.0509,2.8064,2.7094,2.6493,2.6118,2.6072,2.5823,2.5707,2.5546,2.5581,2.553,2.5538,2.5507,2.553,2.5494,2.5539,2.5523,2.5542,2.549,2.5548,2.5562,2.5629,2.5633,2.5699,2.5646,2.5745,2.5655,2.5741,2.58,2.5834,2.5822,2.5937,2.5953,2.5995,2.6001,2.6036,2.6212,2.6256,2.6336,2.6379,2.6492,2.6693,2.6779,2.6939,2.698,2.7215,2.728,2.7504,2.7651,2.7783,2.7875,2.7885,2.8032,2.8113,2.8199,2.8172,2.819,2.8251,2.8217,2.8016,2.7798,2.7616,2.74,2.7329,2.7084,2.6671,2.632,2.617,2.6256,2.6395,2.6356,2.6203,2.6158,2.5999,2.5901,2.5801,2.5832,2.5889,2.5834,2.5721,2.5836,2.5794,2.5825,2.5764,2.5883,2.59,2.5953,2.592,2.5889,2.5953,2.5996,2.5997,2.5907,2.5846,2.5806,2.576,2.5838,2.5908,2.5916,2.5847,2.5831,2.5757,2.575,2.5773,2.5801,2.5725,2.5657,2.5763,2.5712,2.5682,2.5663,2.5604,2.5587,2.5548,2.5803,2.5681,2.5695,2.5682,2.5537,2.5464,2.556,2.5854,2.6022,2.5993,2.6146,2.6194,2.6141,2.6226,2.6383,2.6602,2.6806,2.6773,2.6653,2.6596,2.6582,2.6339,2.6209,2.6048,2.5804,2.5607,2.5501,2.5526,2.5591,2.5513,2.5365,2.5282,2.5137,2.5166,2.5252,2.4995,2.4949,2.4896,2.4898,2.487,2.4754,2.477,2.4004,2.3917,2.4221,2.638,2.9599,3.3731,3.7505,4.0695,4.148,3.8876,3.3501,2.909,2.7696,2.7091,2.6369,2.5762,2.5269,2.5004,2.5557,2.5749,2.5697,2.5321,2.5627,2.588,2.6145,2.5797,2.5666,2.5471,2.544,2.5351,2.556,2.5684,2.5741,2.5659,2.5639,2.5614,2.5652,2.5672,2.571,2.5772,2.5904,2.598,2.5942,2.5982,2.6075,2.603,2.6031,2.6147,2.6167,2.616,2.5937,2.6107,2.6484,2.6756,2.7001,2.6905,2.7045,2.7494,2.7747,2.7883,2.7931,2.7981,2.7899,2.8059,2.8068,2.8271,2.8407,2.8425,2.8374,2.8271,2.7973,2.7636,2.7296,2.7214,2.6874,2.655,2.6452,2.6241,2.5932,2.58,2.5993,2.6259,2.6067,2.5667,2.5619,2.5778,2.5894,2.5895,2.5723,2.5696,2.5726,2.5839,2.5705,2.5602,2.5533,2.551,2.5493,2.5532,2.5366,2.5472,2.5699,2.5945,2.5933,2.5824,2.5727,2.5855,2.5923,2.5748,2.5635,2.5375,2.5443,2.577,2.5924,2.6145,2.6155,2.6123,2.6192,2.6165,2.625,2.6365,2.6518,2.6696,2.6734,2.6689,2.666,2.6495,2.6656,2.6668,2.6503,2.6159,2.6056,2.6005,2.5803,2.5546,2.5471,2.5419,2.5313,2.5269,2.513,2.5253,2.5394,2.5523,2.5482,2.5357,2.52,2.5169,2.5161,2.5147,2.4353,2.3758,2.3889,2.5142,2.8222,3.2488,3.7002,4.0612,4.1883,4.1482,3.8591,3.3208,2.9337,2.7622,2.6812,2.6151,2.5866,2.5628,2.5546,2.5534,2.5425,2.5248,2.5121,2.5017,2.5032,2.5224,2.5465,2.5573,2.5471,2.5379,2.5176,2.5112,2.5293,2.532,2.5506,2.5703,2.579,2.5551,2.5396,2.5249,2.5444,2.5595,2.5476,2.5662,2.5673,2.5235,2.5337,2.6341,2.6869,2.6784,2.632,2.6322,2.6587,2.6782,2.6632,2.6885,2.7335,2.7596,2.7698,2.7537,2.7415,2.7418,2.7896,2.8299,2.8336,2.8182,2.8154,2.8057,2.7981,2.7873,2.7774,2.7547,2.7321,2.7027,2.6745,2.6326,2.5853,2.5848,2.6073,2.6111,2.6241,2.599,2.5801,2.5582,2.5316,2.5433,2.5715,2.5843,2.5778,2.56,2.5693,2.5949,2.5977,2.5984,2.5964,2.5742,2.5699,2.5721,2.5774,2.5803,2.5903,2.5836,2.5738,2.5693,2.5646,2.5496,2.5503,2.5633,2.5852,2.5816,2.5804,2.5927,2.5853,2.5852,2.5845,2.5677,2.5789,2.5693,2.5939,2.636,2.6536,2.6701,2.6752,2.6785,2.6721,2.6623,2.6531,2.6595,2.6513,2.6159,2.5983,2.564,2.527,2.5234,2.5416,2.5779,2.5696,2.5638,2.5503,2.5413,2.5261,2.5362,2.5325,2.5287,2.5263,2.5353,2.5268,2.4855,2.3961,2.363,2.3588,2.4353,2.72,3.1174,3.5384,3.9554,4.213,4.1403,3.7891,3.2662,2.8907,2.7367,2.6249,2.5746,2.581,2.5961,2.5538,2.5351,2.5261,2.5487,2.5595,2.5575,2.5537,2.5429,2.5314,2.5281,2.5191,2.5138,2.5291,2.5337,2.5499,2.5531,2.5382,2.5257,2.5377,2.5484,2.539,2.5272,2.5272,2.5622,2.5951,2.6061,2.6006,2.5881,2.5835,2.5826,2.5968,2.6094,2.6217,2.6218,2.6285,2.6437,2.6612,2.68,2.6779,2.6676,2.6892,2.7381,2.7682,2.7555,2.7601,2.7719,2.7874,2.8114,2.8073,2.803,2.7883,2.7679,2.7499,2.7323,2.7101,2.6869,2.6554,2.5947,2.5735,2.5913,2.6041,2.6007,2.5915,2.5794,2.5517,2.5448,2.5463,2.5558,2.5623,2.5669,2.5655,2.5694,2.5582,2.5556,2.5363,2.5309,2.555,2.569,2.5618,2.5375,2.5105,2.5158,2.5354,2.5574,2.561,2.5519,2.5414,2.5057,2.5589,2.6055,2.6159,2.5747,2.5235,2.5271,2.537,2.5506,2.56,2.5912,2.5783,2.5797,2.5981,2.5893,2.5761,2.5588,2.6012,2.6319,2.6725,2.688,2.6723,2.6481,2.657,2.6624,2.6435,2.6085,2.5762,2.5511,2.5398,2.5362,2.533,2.5322,2.5315,2.5339,2.5229,2.5009,2.5005,2.5016,2.5114,2.5237,2.5316,2.5268,2.4964,2.4276,2.3369,2.3429,2.4195,2.6557,3.0167,3.4379,3.8768,4.1728,4.153,3.8862,3.3783,2.9483,2.7596,2.6708,2.6372,2.5872,2.5688,2.5436,2.5395,2.5244,2.5157,2.4944,2.4988,2.5144,2.5207,2.5016,2.4966,2.4525,2.4477,2.4987,2.553,2.5621,2.5335,2.497,2.5006,2.5197,2.5445,2.5479,2.5321,2.5166,2.5431,2.5682,2.5765,2.5733,2.5549,2.5391,2.56,2.5812,2.5945,2.6112,2.6281,2.6423,2.6461,2.651,2.653,2.6448,2.6715,2.6979,2.7113,2.7277,2.745,2.7536,2.7446,2.7492,2.7382,2.7508,2.7616,2.781,2.7669,2.7515,2.7311,2.7073,2.6883,2.6614,2.6277,2.6255,2.6007,2.5885,2.5835,2.5814,2.5787,2.5626,2.5544,2.5412,2.5328,2.5346,2.5399,2.5423,2.5483,2.5547,2.5545,2.5563,2.5543,2.549,2.5217,2.5115,2.5232,2.564,2.578,2.5701,2.5607,2.5524,2.5358,2.5268,2.5285,2.5475,2.5607,2.5628,2.5569,2.5399,2.5114,2.5184,2.5302,2.5242,2.4907,2.4911,2.5355,2.5755,2.6139,2.6203,2.6094,2.6159,2.6204,2.5955,2.6019,2.631,2.6087,2.5702,2.5642,2.6087,2.6756,2.6819,2.6099,2.5463,2.4973,2.4797,2.5172,2.5611,2.5806,2.5482,2.5159,2.5267,2.5486,2.5631,2.5306,2.5003,2.5097,2.5101,2.5345,2.5347,2.4836,2.3837,2.361,2.4249,2.655,2.819,3.2004,3.6615,4.0145,4.1565,3.9849,3.556,3.035,2.7855,2.7007,2.6892,2.6499,2.6162,2.5735,2.5892,2.6073,2.6495,2.6043,2.5384,2.514,2.5188,2.5083,2.5195,2.5249,2.5747,2.5842,2.5508,2.5195,2.5416,2.5835,2.587,2.606,2.5873,2.5896,2.6228,2.5966,2.6309,2.6164,2.6037,2.6142,2.6326,2.6247,2.6274,2.6183,2.6342,2.673,2.6687,2.6337,2.6868,2.7493,2.7079,2.7114,2.7473,2.791,2.7581,2.7382,2.7586,2.7785,2.8118,2.8234,2.834,2.8532,2.8456,2.795,2.7603,2.8046,2.8266,2.8027,2.7593,2.6926,2.6012,2.6318,2.6278,2.6608,2.6592,2.6755,2.6592,2.5918,2.5622,2.5093,2.5292,2.5509,2.5963,2.582,2.5888,2.595,2.5754,2.6076,2.5731,2.5817,2.6498,2.6057,2.6,2.6131,2.5764,2.5924,2.6756,2.6687,2.5371,2.5365,2.5637,2.5715,2.5623,2.6098,2.6144,2.635,2.6039,2.6487,2.6581,2.6147,2.6237,2.6536,2.6716,2.6363,2.6429,2.6453,2.6786,2.7223,2.6834,2.5907,2.5599,2.5678,2.6077,2.6666,2.5886,2.4795,2.4956,2.5637,2.5726,2.5922,2.5568,2.5396,2.5624,2.5361,2.53,2.5038,2.5288,2.5209,2.4411,2.371,2.3873,2.5023,2.5906,2.8438,3.2577,3.6789,4.0366,4.1621,4.0098,3.519,3.0305,2.7893,2.7031,2.6369,2.5835,2.5831,2.6126,2.5922,2.479,2.5001,2.5508,2.5978,2.6235,2.5658,2.4628,2.4485,2.5059,2.5404,2.5645,2.5374,2.5502,2.5645,2.5497,2.5204,2.5294,2.5473,2.5574,2.5423,2.5517,2.5431,2.5894,2.5917,2.584,2.5831,2.5751,2.5905,2.5993,2.6366,2.615,2.6389,2.6597,2.665,2.6642,2.6864,2.7101,2.6978,2.7297,2.7393,2.7637,2.7714,2.7862,2.8178,2.8126,2.78,2.7652,2.7781,2.752,2.7503,2.8052,2.7917,2.6878,2.6263,2.6735,2.6877,2.7275,2.6936,2.5154,2.4909,2.5462,2.5518,2.5714,2.5747,2.5584,2.5548,2.5688,2.5749,2.5898,2.5769,2.544,2.5294,2.5508,2.5504,2.5559,2.5669,2.581,2.5857,2.6052,2.6011,2.5902,2.5765,2.5674,2.5555,2.5759,2.5663,2.5973,2.5981,2.5997,2.6086,2.6151,2.6144,2.6416,2.642,2.6316,2.6503,2.6171,2.6275,2.6669,2.6672,2.6797,2.7077,2.7064,2.6874,2.6122,2.5953,2.5605,2.5674,2.5727,2.5556,2.5421,2.5531,2.541,2.5407,2.5341,2.55,2.5279,2.5488,2.5498,2.5427,2.5396,2.5148,2.447,2.3819,2.3864,2.4264,2.6645,3.0303,3.5159,3.9815,4.3107,4.2532,3.9211,3.3875,2.933,2.7488,2.621,2.5914,2.6047,2.575,2.5547,2.5512,2.547,2.5371,2.5204,2.5305,2.5384,2.5463,2.5275,2.5442,2.5474,2.578,2.5542,2.5384,2.5238,2.5431,2.5383,2.5531,2.5562,2.5469,2.5734,2.5758,2.5593,2.579,2.5798,2.5793,2.5777,2.5853,2.602,2.6115,2.6164,2.6269,2.6419,2.6476,2.653,2.6654,2.6769,2.7,2.7112,2.7232,2.735,2.7395,2.7495,2.7488,2.7552,2.7913,2.8026,2.7971,2.7889,2.7726,2.7691,2.7708,2.7687,2.7362,2.7205,2.686,2.6609,2.6382,2.628,2.6292,2.6168,2.6055,2.5822,2.5451,2.5152,2.5351,2.553,2.5629,2.5976,2.6003,2.5963,2.5802,2.5867,2.5862,2.5652,2.5685,2.5795,2.568,2.5764,2.5746,2.5293,2.5195,2.5475,2.5697,2.6054,2.5961,2.601,2.5959,2.5904,2.5772,2.5656,2.5554,2.5625,2.5978,2.612,2.5886,2.5772,2.5693,2.5747,2.5802,2.5813,2.5902,2.6036,2.6047,2.6213,2.6078,2.6098,2.6206,2.6306,2.6578,2.6805,2.6727,2.683,2.6745,2.6724,2.6679,2.6345,2.602,2.5715,2.5628,2.5373,2.5235,2.5301,2.5352,2.5526,2.5613,2.5405,2.5338,2.5271,2.5105,2.5161,2.5324,2.5454,2.5425,2.5277,2.5126,2.4412,2.3583,2.3575,2.4464,2.7089,3.1192,3.5848,4.0301,4.2759,4.1615,3.789,3.5096,3.0684,2.7994,2.7106,2.6236,2.6016,2.5531,2.5555,2.5524,2.5454,2.5176,2.5174,2.5184,2.5263,2.5394,2.5355,2.5269,2.5263,2.5286,2.5304,2.5291,2.5314,2.5309,2.5369,2.5277,2.5403,2.5323,2.5307,2.5364,2.5523,2.555,2.545,2.5575,2.5825,2.6131,2.6141,2.5912,2.5852,2.5924,2.6068,2.6376,2.6395,2.6401,2.6537,2.6542,2.668,2.6693,2.7239,2.7535,2.766,2.7684,2.7726,2.8002,2.7882,2.789,2.7865,2.7672,2.7635,2.7607,2.7598,2.7533,2.7258,2.7073,2.6783,2.6769,2.6692,2.654,2.6274,2.602,2.5891,2.5829,2.5888,2.5866,2.5852,2.5857,2.5811,2.5647,2.5654,2.5706,2.5633,2.5671,2.5726,2.5795,2.5712,2.5702,2.5651,2.5657,2.572,2.5721,2.57,2.5769,2.5691,2.5759,2.5715,2.5598,2.5683,2.5696,2.5689,2.5667,2.5655,2.5593,2.5592,2.5589,2.57,2.5877,2.5593,2.5526,2.5389,2.5336,2.5682,2.5817,2.5924,2.5906,2.5993,2.5951,2.5936,2.5999,2.6038,2.6005,2.6191,2.6385,2.6491,2.6564,2.6507,2.6687,2.6771,2.6674,2.6437,2.5868,2.5748,2.5825,2.5863,2.5871,2.5683,2.5626,2.5376,2.5385,2.5447,2.5472,2.5367,2.5353,2.5358,2.5293,2.5042,2.499,2.5044,2.5208,2.479,2.4046,2.3419,2.3591,2.4969,2.7853,3.1795,3.6382,4.0259,4.2108,4.0878,3.6775,3.1452,2.8432,2.7267,2.6834,2.6392,2.6055,2.5845,2.5568,2.5573,2.5485,2.5356,2.5185,2.53,2.5406,2.5374,2.5311,2.546,2.538,2.5562,2.5404,2.5204,2.4992,2.5154,2.5277,2.5475,2.5439,2.5585,2.5669,2.57,2.5824,2.5904,2.5998,2.6081,2.6007,2.5971,2.6012,2.6153,2.6211,2.631,2.631,2.6279,2.6437,2.6598,2.6602,2.6746,2.7021,2.6965,2.7078,2.7498,2.7754,2.7771,2.7792,2.8016,2.8075,2.8027,2.7867,2.7921,2.7842,2.7879,2.7661,2.7521,2.7326,2.709,2.6837,2.6523,2.6373,2.6153,2.5664,2.58,2.6034,2.6236,2.6074,2.5827,2.5905,2.5814,2.5794,2.5822,2.5735,2.5626,2.5575,2.5734,2.5879,2.5827,2.5695,2.5475,2.5521,2.5619,2.5711,2.5684,2.5733,2.5625,2.5853,2.6128,2.6161,2.6108,2.5944,2.5873,2.5892,2.5876,2.5841,2.5718,2.573,2.5796,2.5896,2.5855,2.5814,2.5687,2.5546,2.5692,2.5975,2.6213,2.6389,2.6396,2.6303,2.6269,2.6485,2.6748,2.6904,2.6897,2.681,2.6565,2.6594,2.6522,2.6204,2.6133,2.5944,2.5766,2.5579,2.5454,2.5405,2.5353,2.5291,2.5328,2.5376,2.5374,2.5436,2.542,2.5486,2.5303,2.5277,2.5262,2.5268,2.5019,2.4014,2.3705,2.3689,2.4527,2.7349,3.1363,3.589,3.9692,4.1812,4.115,3.7552,3.1941,2.8694,2.7521,2.6594,2.6239,2.6024,2.5921,2.5861,2.5714,2.5544,2.5404,2.5317,2.5258,2.5251,2.5439,2.5552,2.5669,2.5589,2.5364,2.5802,2.614,2.6511,2.6786,2.6124,2.6314,2.5865,2.5142,2.5446,2.6173,2.6309,2.61,2.6126,2.5984,2.6106,2.6045,2.6288,2.6257,2.6047,2.6112,2.6212,2.6532,2.6475,2.6523,2.6844,2.6869,2.7066,2.7266,2.737,2.7603,2.7616,2.7673,2.7775,2.7817,2.8045,2.7705,2.778,2.7928,2.776,2.7656,2.7358,2.7197,2.6993,2.6834,2.6694,2.6434,2.6174,2.6217,2.6113,2.5855,2.5606,2.5668,2.5787,2.5973,2.5818,2.5774,2.557,2.5709,2.6036,2.5866,2.5738,2.5686,2.5554,2.5694,2.5549,2.5526,2.5549,2.5504,2.5681,2.5751,2.5819,2.5749,2.5745,2.5722,2.5661,2.5729,2.5785,2.5689,2.5583,2.5516,2.5621,2.5775,2.5828,2.5847,2.5709,2.5552,2.5356,2.5357,2.5531,2.5648,2.5624,2.547,2.5486,2.5436,2.5627,2.5832,2.5936,2.588,2.5972,2.5927,2.6009,2.6145,2.6472,2.7036,2.7172,2.7003,2.7023,2.669,2.6083,2.5684,2.5513,2.5462,2.5442,2.5305,2.5349,2.5291,2.5049,2.505,2.5169,2.5233,2.5269,2.509,2.495,2.4928,2.4929,2.5157,2.5104,2.5023,2.4959,2.3958,2.3307,2.363,2.5201,2.6634,3.041,3.4931,3.937,4.222,4.1538,3.8619,3.3038,2.8947,2.7059,2.6284,2.604,2.5747,2.5509,2.5547,2.5365,2.518,2.5068,2.4778,2.5095,2.5264,2.5098,2.5339,2.5366,2.541,2.5462,2.5353,2.5357,2.5671,2.5526,2.5121,2.491,2.5715,2.5602,2.5438,2.5046,2.5539,2.5141,2.5365,2.5659,2.5416,2.5696,2.5878,2.609,2.6,2.5522,2.5713,2.6273,2.6523,2.6842,2.6898,2.7132,2.6747,2.7019,2.738,2.724,2.7586,2.7693,2.7828,2.7818,2.7729,2.7903,2.7994,2.7736,2.782,2.7609,2.7332,2.7616,2.7262,2.685,2.6922,2.6424,2.6398,2.6088,2.5891,2.5614,2.5429,2.582,2.5491,2.552,2.5587,2.6106,2.6165,2.5284,2.6065,2.5149,2.5049,2.5839,2.547,2.5922,2.5169,2.5583,2.5472,2.5859,2.5045,2.5123,2.5401,2.5059,2.5531,2.5373,2.5739,2.5965,2.5189,2.5114,2.5811,2.56,2.53,2.5426,2.5464,2.5665,2.5347,2.5374,2.5411,2.5577,2.5527,2.5946,2.5299,2.5579,2.5575,2.5295,2.5531,2.571,2.5789,2.5729,2.5661,2.5917,2.6051,2.5836,2.5376,2.5671,2.5327,2.5552,2.5452,2.5076,2.5262,2.5466,2.5809,2.5312,2.511,2.5187,2.5952,2.5648,2.5591,2.5753,2.5889,2.5836,2.5978,2.5849,2.5669,2.594,2.6362,2.6176,2.6473,2.6338,2.6061,2.6563,2.5932,2.5533,2.5459,2.5151,2.5021,2.5007,2.5103,2.5085,2.5517,2.5344,2.5123,2.4806,2.4918,2.5382,2.5315,2.4671,2.4891,2.4805,2.4994,2.4707,2.3157,2.2872,2.3725,2.5969,2.9967,3.1949,3.6415,3.9951,4.1626,4.1184,3.6647,3.0971,2.7808,2.7079,2.621,2.5669,2.5574,2.5422,2.5409,2.5258,2.4976,2.508,2.5288,2.4672,2.4698,2.516,2.497,2.4903,2.4984,2.5233,2.5158,2.5403,2.4988,2.5225,2.5683,2.4854,2.4978,2.5244,2.5329,2.55,2.5596,2.5842,2.5321,2.5006,2.5325,2.5622,2.5812,2.6284,2.5727,2.5888,2.602,2.6043,2.6014,2.6663,2.6582,2.6836,2.6703,2.6753,2.7051,2.7105,2.7378,2.7393,2.745,2.76,2.7311,2.7373,2.7419,2.781,2.7805,2.8056,2.7608,2.7662,2.7083,2.6884,2.6661,2.6302,2.6385,2.5986,2.5984,2.6484,2.5739,2.5521,2.5559,2.5665,2.5646,2.524,2.5348,2.5311,2.5292,2.5259,2.5425,2.5326,2.5708,2.5496,2.5637,2.5395,2.5627,2.573,2.5645,2.5504,2.5484,2.5411,2.5533,2.5711,2.5421,2.531,2.5404,2.5393,2.5601,2.569,2.5631,2.5101,2.5231,2.5113,2.5198,2.5391,2.5532,2.5531,2.5289,2.578,2.51,2.5223,2.5434,2.5513,2.5763,2.5126,2.5642,2.5834,2.5289,2.563,2.5194,2.5437,2.562,2.5658,2.5305,2.4937,2.549,2.5687,2.5575,2.5496,2.5671,2.5123,2.5581,2.4987,2.54,2.566,2.586,2.577,2.5018,2.5208,2.6323,2.4934,2.454,2.5437,2.5701,2.5088,2.5404,2.5499,2.6049,2.666,2.6076,2.6083,2.6762,2.6718,2.6485,2.6331,2.6238,2.5901,2.6347,2.5662,2.5424,2.5607,2.5777,2.4761,2.4782,2.5446,2.5227,2.5298,2.5188,2.5157,2.4744,2.5077,2.5512,2.4984,2.527,2.5302,2.4257,2.4134,2.2521,2.3079,2.4726,2.8145,3.176,3.6576,4.0731,4.1999,4.0513,3.6339,3.1174,2.8187,2.6904,2.6191,2.5564,2.6068,2.5,2.5114,2.4773,2.4844,2.4833,2.4918,2.5178,2.4858,2.4977,2.548,2.5115,2.4434,2.5213,2.5506,2.4957,2.5527,2.4924,2.5021,2.5722,2.4745,2.5278,2.5111,2.5065,2.5529,2.5441,2.5198,2.5354,2.5511,2.5269,2.5796,2.5585,2.5792,2.6161,2.597,2.6038,2.6439,2.6569,2.607,2.6529,2.6667,2.668,2.6839,2.7152,2.7195,2.7386,2.7874,2.7371,2.7504,2.7435,2.7609,2.8092,2.7129,2.7515,2.7573,2.7568,2.7448,2.717,2.76,2.6058,2.5991,2.59,2.5756,2.5877,2.5618,2.5628,2.5546,2.5436,2.5583,2.5423,2.5568,2.5709,2.5099,2.5339,2.4909,2.5304,2.5529,2.5495,2.5988,2.5844,2.5226,2.5305,2.5299,2.6034,2.5322,2.4968,2.5099,2.5279,2.5418,2.544,2.4871,2.5364,2.5681,2.6046,2.5033,2.5251,2.5484,2.519,2.5447,2.5435,2.5528,2.5403,2.528,2.5205,2.561,2.5168,2.5211,2.5232,2.5819,2.5139,2.5235,2.5839,2.518,2.5025,2.5528,2.4947,2.5138,2.54,2.5553,2.5158,2.5183,2.5347,2.5374,2.5119,2.561,2.55,2.5156,2.5152,2.5682,2.583,2.5561,2.6029,2.5689,2.6174,2.5827,2.625,2.6716,2.6042,2.6094,2.6671,2.6337,2.6031,2.5994,2.5719,2.5362,2.5303,2.5364,2.5045,2.4774,2.5173,2.5351,2.5424,2.4558,2.4863,2.5415,2.4769,2.4615,2.5667,2.4648,2.5005,2.4927,2.3684,2.3575,2.3959,2.4907,2.7326,2.9821,3.4368,3.9312,4.1429,4.1402,3.884,3.2854,2.911,2.7216,2.6846,2.6206,2.5287,2.5721,2.5717,2.5656,2.5147,2.5374,2.4928,2.5356,2.4586,2.5097,2.5501,2.5417,2.4938,2.5002,2.5143,2.5309,2.5196,2.5443,2.4839,2.5784,2.5395,2.5346,2.5988,2.5698,2.5247,2.5849,2.5562,2.5024,2.6006,2.585,2.5525,2.5934,2.614,2.6046,2.6151,2.624,2.6326,2.7003,2.6503,2.6405,2.7265,2.6616,2.6795,2.709,2.7385,2.7745,2.7796,2.8029,2.7891,2.7578,2.7835,2.7839,2.8158,2.8405,2.8174,2.7274,2.7192,2.7028,2.6912,2.6623,2.6301,2.648,2.6463,2.567,2.5783,2.6116,2.603,2.5718,2.5292,2.5829,2.5678,2.5922,2.5474,2.5788,2.5315,2.5251,2.5447,2.6185,2.5329,2.5295,2.5617,2.5656,2.5811,2.5413,2.5836,2.619,2.5288,2.5404,2.5606,2.6093,2.5816,2.5394,2.6088,2.5468,2.5724,2.5839,2.5865,2.6165,2.5195,2.5386,2.5993,2.5939,2.5611,2.565,2.5738,2.5646,2.5694,2.5627,2.582,2.5282,2.5521,2.5927,2.569,2.514,2.569,2.584,2.5586,2.5392,2.5343,2.5196,2.5517,2.5613,2.6194,2.5762,2.5926,2.5885,2.6129,2.6458,2.6591,2.6546,2.676,2.6727,2.6629,2.6327,2.6471,2.6397,2.6755,2.6083,2.5932,2.6016,2.5532,2.525,2.5454,2.5352,2.5459,2.5637,2.538,2.5204,2.5411,2.5473,2.5175,2.4927,2.5179,2.5166,2.5345,2.5116,2.408,2.3496,2.3763,2.6154,2.9657,3.4102,3.8683,4.1808,4.2517,3.9947,3.4241,2.9934,2.7549,2.6642,2.5984,2.5677,2.5944,2.5537,2.5728,2.56,2.5626,2.5479,2.5231,2.5332,2.551,2.5475,2.5448,2.5594,2.5402,2.5138,2.519,2.5165,2.543,2.5719,2.6044,2.5583,2.5554,2.5398,2.5751,2.5896,2.5818,2.5889,2.5908,2.5541,2.5699,2.6059,2.6002,2.6237,2.6537,2.6345,2.6474,2.6432,2.643,2.6744,2.6942,2.7307,2.7268,2.7372,2.7241,2.7589,2.7468,2.7771,2.7786,2.7927,2.7928,2.8143,2.813,2.8046,2.8081,2.8136,2.7714,2.7602,2.7302,2.7232,2.7007,2.6857,2.6606,2.6415,2.638,2.6309,2.5912,2.5769,2.5759,2.6007,2.6037,2.6109,2.5856,2.5917,2.5876,2.5917,2.6002,2.6052,2.5826,2.5815,2.5737,2.5726,2.57,2.59,2.6024,2.609,2.6093,2.6182,2.5894,2.6061,2.5904,2.6042,2.6046,2.573,2.5726,2.5956,2.5969,2.5812,2.5828,2.6218,2.5999,2.5811,2.5748,2.5673,2.5894,2.5949,2.5916,2.5951,2.583,2.5834,2.58,2.5966,2.5933,2.5966,2.5949,2.6158,2.6158,2.6126,2.6486,2.6491,2.6844,2.6991,2.6943,2.7037,2.705,2.7154,2.7115,2.6692,2.615,2.5767,2.5909,2.5829,2.5592,2.5637,2.555,2.5632,2.5529,2.5466,2.5552,2.5407,2.5495,2.5382,2.548,2.5495,2.5542,2.5498,2.5312,2.426,2.362,2.3748,2.5664,2.8879,3.3188,3.7404,4.078,4.1526,3.9409,3.4705,3.0301,2.821,2.7247,2.6567,2.6151,2.6033,2.5831,2.5721,2.5719,2.5564,2.5401,2.5359,2.5471,2.5311,2.5364,2.5416,2.5577,2.5518,2.5411,2.5516,2.5478,2.5362,2.5449,2.548,2.5666,2.5704,2.5869,2.5895,2.5879,2.5778,2.5693,2.5764,2.5788,2.6015,2.6194,2.6242,2.6329,2.6319,2.6322,2.6386,2.655,2.6707,2.6695,2.6935,2.6942,2.6944,2.7093,2.7201,2.7436,2.7564,2.77,2.7697,2.7742,2.7851,2.7929,2.7821,2.7999,2.7858,2.7783,2.7522,2.7354,2.7141,2.6945,2.6719,2.6472,2.6312,2.6089,2.6004,2.5895,2.5666,2.5675,2.564,2.5549,2.5495,2.5487,2.5552,2.553,2.5604,2.5539,2.5515,2.5484,2.5505,2.548,2.5474,2.5545,2.5576,2.5553,2.5472,2.5444,2.5474,2.5452,2.5517,2.5322,2.5105,2.5198,2.5554,2.5655,2.5485,2.5516,2.5587,2.5559,2.5528,2.5441,2.5566,2.5307,2.5142,2.5249,2.5365,2.5772,2.5936,2.6071,2.6167,2.6508,2.6546,2.6562,2.6553,2.6345,2.6308,2.6056,2.5961,2.5529,2.5416,2.5317,2.5073,2.5009,2.4907,2.4914,2.4891,2.4845,2.4836,2.4819,2.4828,2.4904,2.4779,2.4715,2.4733,2.4806,2.4898,2.4658,2.3609,2.3215,2.3444,2.516,2.8436,3.2571,3.6577,3.8237,4.0299,3.9891,3.6221,3.0847,2.7721,2.6579,2.576,2.5632,2.5451,2.5139,2.4916,2.4984,2.4945,2.5096,2.5118,2.5132,2.4865,2.4912,2.4979,2.4952,2.489,2.4952,2.4941,2.4886,2.4871,2.4991,2.5075,2.5014,2.4987,2.5076,2.5138,2.5282,2.5333,2.5431,2.556,2.5575,2.5606,2.555,2.5429,2.5499,2.5522,2.5456,2.5627,2.5759,2.5841,2.6149,2.6468,2.6513,2.6467,2.6559,2.6783,2.6971,2.7226,2.7375,2.7402,2.7235,2.7202,2.7505,2.7395,2.7467,2.7635,2.7788,2.7403,2.7081,2.6864,2.677,2.6794,2.6332,2.6081,2.6288,2.6051,2.567,2.6,2.6058,2.5844,2.5392,2.5794,2.611,2.5941,2.5055,2.508,2.525,2.5103,2.5306,2.5222,2.5111,2.5178,2.5254,2.5353,2.5388,2.5425,2.535,2.541,2.5295,2.5082,2.541,2.561,2.5549,2.5419,2.5566,2.5665,2.562,2.573,2.6027,2.6512,2.7283,2.6734,2.6014,2.5952,2.6087,2.6381,2.6635,2.6115,2.5974,2.5737,2.5729,2.5827,2.5465,2.5192,2.4952,2.4936,2.4747,2.4722,2.465,2.4615,2.4843,2.509,2.4859,2.4697,2.4386,2.4207,2.4298,2.4588,2.3843,2.2851,2.2726,2.4061,2.729,3.1676,3.5959,3.8185,4.1743,4.1359,3.7558,3.2644,2.8112,2.6605,2.6017,2.6266,2.593,2.5326,2.4512,2.4107,2.4422,2.5239,2.4993,2.4904,2.4894,2.4886,2.416,2.4189,2.4269,2.49,2.4934,2.4612,2.4534,2.5526,2.5499,2.4719,2.497,2.4792,2.4438,2.5371,2.5417,2.5227,2.5736,2.5884,2.4392,2.4679,2.6023,2.6219,2.6927,2.7038,2.521,2.4255,2.5516,2.6479,2.6501,2.5779,2.6499,2.733,2.716,2.6459,2.7717,2.7797,2.7666,2.6451,2.658,2.7465,2.7597,2.8467,2.8367,2.6702,2.5578,2.5264,2.5166,2.6124,2.5355,2.4806,2.4604,2.456,2.5201,2.4905,2.4392,2.3997,2.4439,2.4952,2.4944,2.4689,2.4399,2.4599,2.4759,2.4602,2.437,2.435,2.4675,2.521,2.5341,2.4996,2.449,2.3683,2.4403,2.5451,2.5458,2.4986,2.4693,2.4451,2.4853,2.5379,2.6298,2.6157,2.5964,2.5393,2.5522,2.6365,2.7357,2.6355,2.4376,2.4614,2.5589,2.6223,2.6699,2.5613,2.5091,2.5234,2.458,2.4915,2.5454,2.4984,2.5087,2.4905,2.4105,2.3922,2.4012,2.493,2.5704,2.5323,2.5941,2.5059,2.3056,2.4508,2.363,2.1653,2.1783,2.2412,2.3125,2.5041,2.8839,3.3171,3.7641,4.0744,3.9693,3.8349,3.3628,2.9023,2.7287,2.6241,2.5179,2.4327,2.4443,2.4337,2.4329,2.3988,2.4417,2.4364,2.3474,2.3474,2.3993,2.4346,2.4565,2.3656,2.3889,2.3644,2.3594,2.3762,2.3766,2.4548,2.4128,2.4311,2.4601,2.3251,2.3354,2.3467,2.3732,2.3834,2.4101,2.447,2.4899,2.4661,2.4229,2.3966,2.4223,2.4464,2.4737,2.4937,2.5312,2.5724,2.5192,2.5013,2.5368,2.5443,2.5557,2.5756,2.5743,2.6034,2.6504,2.6414,2.6634,2.6484,2.5761,2.5938,2.6165,2.6467,2.7235,2.7,2.5264,2.5444,2.5184,2.5008,2.511,2.4979,2.5054,2.6341,2.5496,2.4658,2.447,2.4589,2.5643,2.5231,2.4141,2.4876,2.5603,2.5681,2.561,2.4843,2.4666,2.5596,2.5298,2.423,2.4658,2.483,2.4994,2.4954,2.4544,2.4186,2.446,2.5083,2.5347,2.5196,2.5729,2.4979,2.3557,2.4141,2.4009,2.4665,2.5293,2.4899,2.4916,2.5246,2.42,2.4703,2.4994,2.5527,2.6392,2.5426,2.4677,2.5274,2.5957,2.6015,2.562,2.5202,2.4815,2.47,2.4431,2.38,2.3833,2.3594,2.4366,2.4882,2.5127,2.3757,2.2868,2.3118,2.4036,2.4692,2.3325,2.3081,2.3083,2.3368,2.2632,2.2484,2.2754,2.4874,2.6364,2.9671,3.375,3.7157,3.9717,3.8764,3.559,3.0589
