1.7855,1.7724,1.764,1.7595,1.7549,1.7652,1.7667,1.7617,1.7562,1.7429,1.7576,1.7574,1.7544,1.7506,1.7609,1.7415,1.7536,1.7561,1.7531,1.7497,1.7548,1.7683,1.7941,1.795,1.7889,1.7967,1.8047,1.8367,1.8214,1.8368,1.847,1.8661,1.8769,1.8508,1.8575,1.8609,1.8471,1.8494,1.8377,1.8052,1.7676,1.7665,1.7657,1.7453,1.7284,1.7149,1.7116,1.7139,1.7268,1.7426,1.7243,1.686,1.6915,1.7084,1.6985,1.6988,1.6956,1.7273,1.7772,1.885,2.1103,2.4,2.6871,2.9068,2.959,2.9086,2.7875,2.4926,2.0111,1.5421,1.4612,1.4771,1.539,1.593,1.6214,1.6557,1.6658,1.6715,1.6653,1.6795,1.6607,1.6612,1.6711,1.6846,1.6868,1.6824,1.6724,1.6887,1.6852,1.6829,1.6645,1.6695,1.6832,1.6897,1.6942,1.6866,1.6806,1.6869,1.6831,1.6875,1.6817,1.6837,1.6844,1.6929,1.6868,1.6804,1.6806,1.682,1.6986,1.6952,1.6872,1.683,1.6873,1.6876,1.6773,1.6893,1.6946,1.6863,1.6788,1.6763,1.679,1.6649,1.6677,1.6719,1.6705,1.6747,1.6668,1.6704,1.6896,1.6988,1.6964,1.6709,1.6691,1.6889,1.6968,1.702,1.6928,1.689,1.6941,1.7018,1.7035,1.7049,1.7155,1.7154,1.7272,1.7285,1.7289,1.7399,1.7436,1.7564,1.7598,1.7704,1.7797,1.7831,1.7889,1.789,1.7789,1.7738,1.7641,1.7662,1.7755,1.7742,1.7678,1.7645,1.7673,1.7741,1.7656,1.76,1.7635,1.7651,1.7802,1.7848,1.7783,1.7823,1.7947,1.7984,1.7996,1.7951,1.8067,1.8206,1.8272,1.8277,1.8211,1.8213,1.8319,1.8376,1.8346,1.8275,1.8333,1.8287,1.8375,1.8393,1.832,1.8285,1.8232,1.8232,1.8225,1.8056,1.8015,1.8036,1.799,1.7984,1.79,1.7773,1.7783,1.7828,1.7817,1.7782,1.7603,1.759,1.7616,1.7681,1.7614,1.7526,1.7491,1.7553,1.7585,1.7469,1.7459,1.7421,1.7439,1.7536,1.7512,1.7441,1.743,1.7577,1.7756,1.7858,1.7889,1.7965,1.8062,1.8146,1.8376,1.8532,1.8452,1.8429,1.8518,1.8533,1.8548,1.8379,1.8363,1.8323,1.8161,1.8108,1.7648,1.74,1.7315,1.7176,1.7212,1.7128,1.7007,1.7001,1.6995,1.699,1.6908,1.6937,1.6942,1.6921,1.6939,1.681,1.6773,1.6752,1.6746,1.6993,1.7954,1.9507,2.2331,2.5285,2.773,2.923,2.9188,2.8545,2.6427,2.2692,1.6993,1.458,1.45,1.4897,1.5675,1.5996,1.6321,1.6318,1.6558,1.6584,1.676,1.6585,1.6611,1.6611,1.6763,1.6682,1.6714,1.669,1.6849,1.6859,1.6876,1.6747,1.6765,1.6784,1.6901,1.686,1.6792,1.669,1.6746,1.6854,1.6899,1.6888,1.6889,1.6808,1.6997,1.6911,1.6924,1.6846,1.6873,1.7004,1.6978,1.6898,1.6886,1.6921,1.7002,1.6937,1.6891,1.6859,1.6868,1.6875,1.6955,1.6938,1.6845,1.6883,1.686,1.6904,1.6893,1.6857,1.6853,1.6942,1.7024,1.7085,1.7021,1.7031,1.7029,1.7162,1.715,1.7109,1.7097,1.7145,1.7228,1.7287,1.7269,1.7272,1.7272,1.7437,1.7488,1.7552,1.7545,1.7585,1.7739,1.7886,1.7877,1.7906,1.7913,1.8042,1.8049,1.8004,1.7881,1.7933,1.7912,1.8012,1.7923,1.7829,1.7806,1.7813,1.7838,1.788,1.7799,1.7807,1.7772,1.7935,1.7966,1.7927,1.7981,1.8044,1.8161,1.8253,1.8162,1.8185,1.8245,1.8412,1.8468,1.8453,1.8358,1.8452,1.8481,1.861,1.8568,1.8512,1.8524,1.853,1.8576,1.8529,1.8425,1.8405,1.8437,1.842,1.8346,1.8276,1.8218,1.8196,1.8228,1.8188,1.8056,1.802,1.8002,1.8029,1.7993,1.791,1.7884,1.7819,1.7898,1.7867,1.7734,1.772,1.776,1.7796,1.7791,1.7739,1.7711,1.7733,1.7934,1.8051,1.8126,1.8058,1.8151,1.8316,1.8407,1.8579,1.8681,1.8759,1.8703,1.8748,1.8811,1.8752,1.8784,1.8748,1.855,1.8369,1.8328,1.8041,1.783,1.7705,1.7547,1.7337,1.7307,1.7319,1.7317,1.7248,1.7209,1.7181,1.7206,1.7245,1.7216,1.7088,1.7058,1.7054,1.7069,1.6949,1.7039,1.7337,1.8551,2.0661,2.3675,2.6602,2.8821,2.9918,2.9507,2.8734,2.593,2.1329,1.6039,1.4625,1.4915,1.5429,1.6012,1.6241,1.6614,1.6583,1.6827,1.6673,1.675,1.6742,1.6957,1.6858,1.693,1.6823,1.6862,1.6886,1.6963,1.6855,1.6952,1.6881,1.703,1.6903,1.694,1.6903,1.6999,1.7014,1.7011,1.695,1.696,1.6948,1.7106,1.708,1.7035,1.701,1.6969,1.7035,1.7121,1.7084,1.6996,1.7028,1.702,1.7045,1.708,1.692,1.6969,1.7006,1.703,1.7002,1.6972,1.7031,1.699,1.7097,1.7054,1.6984,1.7007,1.7023,1.7117,1.7116,1.705,1.7124,1.7142,1.725,1.7295,1.7187,1.723,1.7295,1.7348,1.7377,1.7337,1.7374,1.7397,1.7474,1.7531,1.7609,1.7578,1.7678,1.7783,1.7956,1.7978,1.7967,1.8046,1.8129,1.8154,1.8164,1.8032,1.8098,1.8056,1.8081,1.8078,1.8001,1.793,1.7961,1.8068,1.8093,1.7907,1.7925,1.7985,1.808,1.813,1.8098,1.8077,1.8137,1.8266,1.8348,1.8292,1.8353,1.8377,1.8464,1.8526,1.8553,1.8438,1.8541,1.8601,1.8624,1.8659,1.8565,1.859,1.8598,1.8562,1.8637,1.8545,1.854,1.853,1.8521,1.8543,1.8429,1.832,1.8329,1.8317,1.8334,1.8254,1.816,1.8115,1.8164,1.8097,1.7999,1.7961,1.7999,1.8022,1.7941,1.7863,1.7796,1.7853,1.7914,1.775,1.7739,1.771,1.7702,1.7762,1.7749,1.7713,1.7622,1.7621,1.7672,1.765,1.7664,1.76,1.7574,1.7618,1.7644,1.7627,1.7588,1.761,1.7626,1.7615,1.7594,1.7519,1.7499,1.756,1.7633,1.7562,1.7571,1.7536,1.7565,1.764,1.7576,1.7599,1.7515,1.7537,1.7661,1.7615,1.7561,1.7552,1.7519,1.765,1.7576,1.7579,1.7477,1.7467,1.7602,1.7607,1.7599,1.7614,1.7737,1.7953,1.8072,1.815,1.8212,1.8395,1.8483,1.8744,1.882,1.8666,1.8727,1.8768,1.8819,1.8788,1.8701,1.8565,1.8512,1.849,1.8272,1.8042,1.7748,1.7639,1.7593,1.7524,1.7408,1.7373,1.7318,1.7394,1.739,1.7312,1.7236,1.7234,1.7289,1.7269,1.7129,1.7073,1.7241,1.8374,1.918,2.1322,2.4214,2.6963,2.9212,2.9894,2.9349,2.8266,2.5453,2.0797,1.6001,1.4462,1.4932,1.5584,1.6252,1.6515,1.6772,1.6646,1.6801,1.6702,1.6837,1.6786,1.6863,1.675,1.6838,1.6755,1.7047,1.6954,1.6839,1.6834,1.6908,1.686,1.6861,1.6779,1.6875,1.6897,1.6946,1.6867,1.6851,1.6829,1.6906,1.6933,1.6946,1.6828,1.6867,1.6856,1.6997,1.6986,1.6865,1.6861,1.6978,1.6944,1.6938,1.6874,1.6899,1.6935,1.6961,1.6973,1.6858,1.6856,1.6914,1.6935,1.6908,1.6865,1.6745,1.6804,1.6863,1.6935,1.6931,1.6933,1.6901,1.7028,1.7058,1.7114,1.7001,1.7051,1.7104,1.7199,1.722,1.7169,1.7168,1.7189,1.7249,1.7297,1.7262,1.7441,1.7423,1.7547,1.7675,1.7672,1.765,1.7774,1.7879,1.797,1.7974,1.8027,1.8026,1.8083,1.8076,1.8015,1.7922,1.8015,1.8068,1.8023,1.7938,1.7916,1.7903,1.7993,1.7907,1.8008,1.7987,1.8026,1.8156,1.8203,1.8253,1.8206,1.82,1.8327,1.8356,1.844,1.8369,1.8386,1.8441,1.8514,1.8486,1.8471,1.8559,1.8529,1.8595,1.8553,1.8461,1.8443,1.8461,1.8536,1.8473,1.8339,1.829,1.8252,1.829,1.819,1.8078,1.8026,1.7994,1.808,1.8063,1.7944,1.7874,1.7778,1.7795,1.7797,1.7831,1.7743,1.77,1.7748,1.7565,1.7584,1.7576,1.7516,1.757,1.7533,1.7458,1.7447,1.7517,1.7618,1.7844,1.7826,1.7924,1.7928,1.7923,1.8211,1.8421,1.8463,1.8588,1.8535,1.8575,1.8318,1.8364,1.8607,1.8563,1.8478,1.8292,1.8109,1.8048,1.7996,1.7672,1.7505,1.7375,1.7148,1.7073,1.7235,1.7288,1.7171,1.709,1.6894,1.7069,1.7116,1.7048,1.7006,1.7016,1.7102,1.6821,1.6717,1.6743,1.6986,1.7787,1.9381,2.2172,2.4855,2.7478,2.9212,2.9465,2.8774,2.68,2.3099,1.7297,1.4442,1.4477,1.4713,1.5382,1.5896,1.6499,1.6558,1.6707,1.6629,1.6622,1.6464,1.6394,1.6453,1.6407,1.6575,1.6585,1.6678,1.6697,1.6585,1.6652,1.6644,1.6616,1.6633,1.6624,1.6697,1.6824,1.6809,1.6839,1.6687,1.6704,1.6771,1.6966,1.6978,1.6692,1.6628,1.6653,1.6831,1.6879,1.6786,1.6739,1.6698,1.6772,1.6833,1.6841,1.676,1.6734,1.6765,1.6713,1.6659,1.6547,1.6553,1.6582,1.6673,1.6686,1.6653,1.6647,1.6671,1.6651,1.6703,1.666,1.6706,1.6852,1.6864,1.6901,1.6845,1.6836,1.6866,1.684,1.6852,1.6857,1.6956,1.699,1.7059,1.7031,1.7044,1.7146,1.7247,1.7362,1.7412,1.7459,1.7526,1.76,1.778,1.7763,1.7733,1.7724,1.7738,1.7786,1.7741,1.7701,1.7647,1.7591,1.7639,1.7626,1.7603,1.7514,1.7511,1.7613,1.7706,1.7747,1.7718,1.7728,1.7797,1.7872,1.7907,1.791,1.7974,1.8139,1.823,1.8218,1.8222,1.824,1.8283,1.844,1.8466,1.8417,1.8399,1.8393,1.8509,1.8438,1.8372,1.833,1.8255,1.8362,1.8348,1.8256,1.8219,1.8104,1.8157,1.8104,1.8002,1.7911,1.7883,1.7891,1.7993,1.8108,1.8111,1.8249,1.8246,1.8348,1.8419,1.8416,1.8651,1.884,1.888,1.8764,1.8689,1.8739,1.8749,1.8778,1.8656,1.853,1.8401,1.8295,1.7981,1.7722,1.7534,1.7352,1.7385,1.7386,1.7366,1.7213,1.717,1.716,1.7161,1.7149,1.7094,1.7048,1.7047,1.7136,1.7102,1.7073,1.6883,1.6843,1.6985,1.7901,1.9465,2.2112,2.5056,2.7698,2.9513,2.9719,2.9022,2.6996,2.3463,1.7677,1.4886,1.4519,1.4877,1.5708,1.6132,1.6506,1.6518,1.6634,1.6674,1.6808,1.6731,1.6777,1.6728,1.6809,1.6899,1.6903,1.6828,1.6828,1.6905,1.6981,1.6927,1.6964,1.6875,1.6906,1.6985,1.6959,1.696,1.6894,1.6918,1.7024,1.7012,1.704,1.6951,1.7037,1.7028,1.7119,1.7089,1.704,1.7117,1.7182,1.705,1.706,1.7027,1.7072,1.7058,1.7104,1.7056,1.7078,1.6977,1.6959,1.7055,1.7054,1.7055,1.6955,1.7001,1.7043,1.7008,1.7083,1.7041,1.7084,1.7218,1.7244,1.7284,1.7216,1.7261,1.7372,1.7325,1.7316,1.7288,1.7306,1.743,1.752,1.7602,1.7557,1.7645,1.7724,1.7869,1.7888,1.7912,1.7981,1.8092,1.8193,1.8214,1.8175,1.8194,1.8163,1.823,1.8176,1.8124,1.8075,1.8021,1.8109,1.8093,1.8075,1.8036,1.797,1.8134,1.814,1.8145,1.8072,1.8119,1.8224,1.8291,1.831,1.8334,1.8333,1.8497,1.8563,1.8566,1.8474,1.8551,1.8635,1.8738,1.8738,1.8652,1.8719,1.8741,1.8827,1.8793,1.8758,1.8771,1.8717,1.8737,1.87,1.8618,1.8607,1.8499,1.8552,1.8542,1.8439,1.8371,1.8351,1.834,1.8337,1.8278,1.8181,1.8177,1.817,1.8197,1.8111,1.7987,1.8007,1.8045,1.803,1.7976,1.7886,1.7936,1.7965,1.8006,1.8002,1.7877,1.7815,1.7839,1.7901,1.7886,1.7786,1.7817,1.7816,1.7856,1.7875,1.7796,1.7798,1.777,1.7813,1.7852,1.7786,1.7728,1.7763,1.7794,1.7783,1.7736,1.7671,1.7709,1.7723,1.7789,1.7775,1.7635,1.7714,1.7817,1.8015,1.8105,1.8095,1.8221,1.8408,1.8523,1.8603,1.8632,1.8843,1.8871,1.8827,1.8897,1.8808,1.8784,1.8865,1.8854,1.8796,1.8543,1.8319,1.8177,1.8102,1.7867,1.7641,1.7492,1.7536,1.7549,1.7516,1.7463,1.7422,1.7394,1.7437,1.741,1.7385,1.7326,1.7317,1.7419,1.7203,1.7211,1.7429,1.8587,2.0548,2.3449,2.639,2.8685,2.9963,2.9592,2.8921,2.6446,2.2209,1.6876,1.4752,1.4818,1.5263,1.5995,1.6249,1.6732,1.6834,1.6984,1.6943,1.6981,1.6909,1.7054,1.7048,1.706,1.7026,1.7123,1.7184,1.7231,1.7127,1.7132,1.7085,1.7197,1.7145,1.7147,1.7098,1.7144,1.7129,1.719,1.7187,1.7185,1.7195,1.7269,1.7235,1.7192,1.7187,1.7169,1.7223,1.7261,1.7236,1.718,1.7158,1.7166,1.7295,1.7258,1.72,1.72,1.7163,1.7245,1.7249,1.7245,1.717,1.7138,1.7199,1.7184,1.7119,1.7163,1.7196,1.7309,1.7341,1.724,1.7328,1.7335,1.7365,1.7417,1.742,1.7339,1.7375,1.7493,1.7515,1.7521,1.7504,1.752,1.7591,1.7697,1.7779,1.7761,1.787,1.7937,1.8097,1.8174,1.8155,1.8296,1.83,1.84,1.844,1.8341,1.8318,1.8303,1.837,1.8376,1.8348,1.8316,1.8289,1.8324,1.8334,1.8241,1.832,1.8282,1.8393,1.8407,1.8383,1.8409,1.8446,1.8483,1.8542,1.8546,1.8538,1.8611,1.8687,1.873,1.8796,1.8697,1.8799,1.8785,1.8854,1.8887,1.8818,1.8841,1.8887,1.8837,1.8864,1.8768,1.8762,1.8794,1.8892,1.8819,1.8721,1.8604,1.8573,1.8607,1.8535,1.8473,1.8398,1.8393,1.8392,1.8361,1.8209,1.815,1.8157,1.8192,1.8161,1.8094,1.8033,1.8007,1.8023,1.8005,1.7971,1.7908,1.7937,1.7957,1.7962,1.7944,1.7821,1.7875,1.7848,1.7884,1.7856,1.7806,1.7793,1.7817,1.7792,1.7807,1.7725,1.77,1.7752,1.783,1.784,1.7783,1.771,1.7691,1.7797,1.7745,1.7737,1.7676,1.7691,1.7784,1.772,1.773,1.7659,1.7745,1.7779,1.7734,1.7715,1.7625,1.7629,1.7681,1.7686,1.7712,1.7641,1.7592,1.7626,1.7678,1.7652,1.7576,1.7582,1.7593,1.7608,1.7655,1.7571,1.7572,1.7611,1.7662,1.7624,1.7593,1.7578,1.7574,1.7685,1.7664,1.7572,1.7551,1.7525,1.763,1.7565,1.7512,1.7551,1.7522,1.7575,1.7511,1.7505,1.7557,1.7444,1.7539,1.7566,1.7528,1.7517,1.7512,1.7506,1.7491,1.7516,1.7446,1.7445,1.7481,1.7493,1.7501,1.7461,1.7511,1.751,1.7556,1.7489,1.7365,1.7411,1.7537,1.7755,1.7832,1.7886,1.7961,1.8111,1.8348,1.8389,1.837,1.84,1.8444,1.856,1.8533,1.8562,1.8472,1.8333,1.8292,1.8093,1.7806,1.7692,1.7567,1.7506,1.744,1.7271,1.7204,1.7209,1.7195,1.717,1.713,1.7051,1.7096,1.7092,1.711,1.709,1.7,1.7004,1.7771,1.9208,2.1512,2.4351,2.6984,2.9076,2.9413,2.888,2.7601,2.6144,2.2309,1.707,1.4712,1.4752,1.5507,1.6031,1.6439,1.6662,1.6688,1.6679,1.6727,1.674,1.6761,1.6773,1.6706,1.6745,1.6869,1.6882,1.6787,1.6764,1.6844,1.6874,1.6893,1.6826,1.6765,1.6811,1.6836,1.6869,1.688,1.6752,1.6757,1.6888,1.694,1.6885,1.6816,1.6788,1.6855,1.6836,1.6932,1.694,1.6844,1.6908,1.6954,1.6904,1.6941,1.6845,1.6802,1.6919,1.6896,1.6914,1.675,1.6786,1.6879,1.6837,1.6833,1.6782,1.6715,1.6858,1.6837,1.6847,1.6808,1.6795,1.6926,1.6961,1.6931,1.6909,1.6994,1.7004,1.7133,1.7085,1.7108,1.7071,1.7175,1.7259,1.7194,1.7212,1.7215,1.732,1.7468,1.7516,1.7509,1.7547,1.7648,1.7817,1.7903,1.7911,1.7919,1.7926,1.7993,1.7986,1.8044,1.7998,1.7945,1.8045,1.8034,1.7996,1.7944,1.7941,1.8023,1.8053,1.8061,1.8079,1.8116,1.8142,1.8227,1.8309,1.8246,1.8318,1.8313,1.8481,1.8451,1.8452,1.8598,1.8518,1.8648,1.8652,1.8605,1.864,1.8645,1.8776,1.873,1.8668,1.8626,1.8597,1.8684,1.8624,1.861,1.8576,1.8416,1.8433,1.8416,1.8355,1.823,1.8143,1.8201,1.823,1.817,1.8049,1.809,1.805,1.8013,1.7972,1.7881,1.7941,1.7865,1.7891,1.7876,1.7785,1.7833,1.7785,1.7757,1.7727,1.7641,1.766,1.7672,1.7729,1.7783,1.763,1.7655,1.7646,1.7658,1.7704,1.7642,1.7505,1.7563,1.7624,1.7563,1.756,1.7566,1.7589,1.7544,1.756,1.7523,1.7451,1.7564,1.7671,1.7629,1.7549,1.7472,1.7511,1.7569,1.7564,1.7621,1.7551,1.7552,1.7586,1.7617,1.758,1.7594,1.7744,1.7854,1.8081,1.8132,1.82,1.8295,1.8468,1.8636,1.8761,1.8709,1.8705,1.8651,1.8769,1.8764,1.8764,1.8603,1.8407,1.8404,1.8091,1.7894,1.7664,1.7597,1.7559,1.7526,1.7388,1.7331,1.7346,1.7365,1.7372,1.7344,1.729,1.7342,1.7398,1.7375,1.7225,1.7098,1.7115,1.782,1.9239,2.1506,2.4458,2.7106,2.9186,2.9874,2.9335,2.8075,2.4988,1.9975,1.5726,1.4989,1.5197,1.5842,1.6466,1.6801,1.6952,1.6954,1.7029,1.6995,1.712,1.7138,1.7178,1.7071,1.7133,1.7133,1.7214,1.7179,1.7174,1.7114,1.7214,1.7211,1.7263,1.7171,1.7194,1.7201,1.7292,1.7292,1.7266,1.7255,1.7225,1.7335,1.7371,1.7267,1.7338,1.7307,1.7409,1.7338,1.7304,1.728,1.7313,1.7373,1.7322,1.7292,1.7299,1.7254,1.7364,1.7323,1.7273,1.7216,1.7206,1.7224,1.729,1.7229,1.7152,1.7181,1.7189,1.7232,1.7252,1.7254,1.7235,1.7347,1.7443,1.7403,1.7309,1.7399,1.7442,1.7522,1.7493,1.7468,1.7469,1.7498,1.7651,1.7657,1.7622,1.7652,1.7732,1.7909,1.796,1.7936,1.8015,1.8121,1.8249,1.8346,1.8316,1.829,1.8327,1.8369,1.8409,1.8389,1.82,1.8231,1.8259,1.829,1.8234,1.818,1.8188,1.824,1.8278,1.8334,1.8217,1.8334,1.838,1.8525,1.8507,1.8449,1.8562,1.8703,1.8785,1.8816,1.8754,1.8791,1.8868,1.8977,1.9025,1.9013,1.8993,1.9015,1.9048,1.9062,1.9047,1.901,1.8989,1.9049,1.9017,1.8898,1.8812,1.8838,1.8818,1.8762,1.8755,1.857,1.8556,1.8575,1.8559,1.8553,1.8396,1.8349,1.8381,1.843,1.8393,1.824,1.8216,1.8253,1.825,1.8219,1.8102,1.8154,1.8201,1.8223,1.8158,1.8138,1.8074,1.8067,1.8132,1.811,1.806,1.7989,1.8035,1.8105,1.808,1.8003,1.798,1.8003,1.8044,1.799,1.8015,1.7888,1.7921,1.7958,1.8027,1.8025,1.7898,1.7918,1.7963,1.8013,1.8022,1.7912,1.7879,1.7909,1.7977,1.7996,1.7926,1.7899,1.7929,1.7976,1.7936,1.7865,1.7836,1.7879,1.8004,1.7965,1.7947,1.7892,1.7872,1.7987,1.7935,1.7889,1.7862,1.7903,1.7989,1.7991,1.79,1.7879,1.7858,1.7959,1.7963,1.7935,1.7926,1.7915,1.79,1.7958,1.7958,1.7856,1.7912,1.7902,1.8039,1.8129,1.8189,1.8378,1.8482,1.8621,1.8761,1.8792,1.8875,1.9016,1.9087,1.908,1.903,1.9058,1.9078,1.9098,1.8946,1.8754,1.8577,1.8311,1.8334,1.814,1.7997,1.7901,1.7814,1.785,1.7872,1.7769,1.767,1.7663,1.7731,1.7712,1.766,1.7612,1.7644,1.7522,1.7589,1.7967,1.9136,2.1177,2.4026,2.6998,2.9232,3.0062,2.9679,2.902,2.6402,2.2062,1.6933,1.5201,1.5654,1.6293,1.6878,1.7168,1.7418,1.7377,1.7555,1.7543,1.7415,1.7257,1.7474,1.7493,1.7497,1.744,1.7398,1.7417,1.7439,1.7447,1.7531,1.7408,1.7476,1.7418,1.7501,1.7444,1.7401,1.7371,1.7413,1.7427,1.753,1.7431,1.7438,1.746,1.7545,1.7511,1.744,1.7442,1.752,1.7541,1.7539,1.7462,1.7482,1.7523,1.7587,1.7533,1.7479,1.7453,1.7494,1.7554,1.7543,1.7519,1.7427,1.7452,1.7511,1.7479,1.7525,1.7468,1.753,1.761,1.7527,1.7628,1.7558,1.7634,1.7701,1.7718,1.7703,1.7661,1.7682,1.7743,1.7879,1.7846,1.7839,1.7893,1.7917,1.8036,1.8094,1.8102,1.8075,1.8277,1.8343,1.8467,1.8396,1.8458,1.8581,1.8713,1.8685,1.865,1.8641,1.8632,1.8662,1.8623,1.8583,1.8577,1.8564,1.8708,1.8632,1.8624,1.8586,1.8632,1.8789,1.8749,1.881,1.8836,1.875,1.8908,1.8973,1.9008,1.9016,1.907,1.9181,1.9265,1.927,1.9145,1.9196,1.9251,1.9322,1.9318,1.9239,1.9291,1.9323,1.9374,1.9288,1.9248,1.9235,1.9174,1.9223,1.9191,1.9087,1.9026,1.899,1.9037,1.8957,1.8861,1.877,1.877,1.8785,1.8753,1.8662,1.8605,1.8616,1.8686,1.865,1.8596,1.8524,1.8492,1.8527,1.8588,1.8486,1.8428,1.8472,1.8468,1.8549,1.8482,1.8356,1.8335,1.8275,1.8339,1.8349,1.8269,1.8211,1.8234,1.833,1.8265,1.8192,1.8246,1.8239,1.826,1.8242,1.8214,1.814,1.8135,1.8187,1.8192,1.8156,1.8072,1.8143,1.818,1.8159,1.8174,1.8053,1.8111,1.8135,1.8141,1.8155,1.8012,1.8063,1.8066,1.8079,1.8033,1.7983,1.8052,1.8064,1.8108,1.8065,1.7999,1.7974,1.7979,1.8067,1.8079,1.8029,1.8031,1.8278,1.8367,1.8571,1.8596,1.8702,1.8893,1.898,1.9061,1.9088,1.9027,1.9115,1.9143,1.9154,1.9106,1.891,1.8828,1.8798,1.8557,1.841,1.8073,1.7902,1.7937,1.7856,1.7782,1.7658,1.7644,1.7662,1.7704,1.7712,1.7587,1.7534,1.754,1.764,1.7554,1.7406,1.743,1.8206,1.9716,2.2054,2.4921,2.7657,2.9637,3.0189,2.9646,2.8304,2.5137,2.0182,1.5924,1.5003,1.5137,1.574,1.6423,1.6756,1.7145,1.7169,1.7211,1.7208,1.7324,1.7238,1.7319,1.7215,1.7324,1.7366,1.7469,1.7395,1.7334,1.7301,1.7378,1.7388,1.7393,1.7363,1.73,1.7384,1.7542,1.7453,1.7392,1.7349,1.7371,1.7491,1.7498,1.744,1.7436,1.7403,1.7528,1.7461,1.7432,1.7356,1.7393,1.7479,1.7515,1.7505,1.7392,1.7418,1.7444,1.7429,1.7417,1.7316,1.7337,1.7418,1.7416,1.7337,1.7274,1.7353,1.736,1.7383,1.7417,1.7312,1.7328,1.7454,1.7535,1.759,1.7458,1.753,1.7528,1.7685,1.7648,1.755,1.7607,1.7636,1.7791,1.7854,1.7772,1.7798,1.7843,1.8,1.8086,1.8124,1.8215,1.8229,1.8356,1.8402,1.8469,1.8453,1.8522,1.8513,1.8481,1.8455,1.8384,1.8343,1.8332,1.8396,1.8382,1.8272,1.8305,1.8366,1.8361,1.8417,1.836,1.8484,1.8465,1.8565,1.8637,1.8645,1.8645,1.8685,1.871,1.8842,1.8787,1.8834,1.8948,1.8914,1.8982,1.8992,1.8977,1.9043,1.9038,1.9002,1.8958,1.8876,1.8819,1.8976,1.894,1.8799,1.8743,1.8696,1.8718,1.8659,1.8709,1.8509,1.8499,1.8517,1.8403,1.8466,1.8287,1.8263,1.8283,1.8316,1.8308,1.8185,1.8128,1.8187,1.8233,1.8189,1.8097,1.8001,1.8075,1.8088,1.8065,1.8038,1.7901,1.7978,1.8056,1.8027,1.7987,1.7934,1.7967,1.8019,1.7959,1.797,1.7871,1.7908,1.7943,1.7962,1.7984,1.7996,1.8051,1.8259,1.8447,1.8499,1.8553,1.8688,1.8874,1.8914,1.9092,1.9033,1.8965,1.8995,1.9067,1.9038,1.8846,1.8696,1.8531,1.8452,1.8234,1.8053,1.7961,1.7811,1.7859,1.7745,1.765,1.7651,1.7655,1.7691,1.7662,1.7544,1.7532,1.7485,1.7563,1.7473,1.7377,1.7406,1.7737,1.8255,1.9649,2.2007,2.4833,2.7671,2.9705,3.0218,2.9657,2.8188,2.5054,1.9849,1.5693,1.5183,1.5277,1.5995,1.6694,1.7121,1.7313,1.7218,1.729,1.7314,1.7473,1.7323,1.7349,1.7326,1.7345,1.7388,1.7462,1.7403,1.7513,1.7435,1.7535,1.7606,1.7561,1.7508,1.7581,1.7631,1.7622,1.7532,1.7509,1.7524,1.753,1.7593,1.7637,1.7552,1.7616,1.7622,1.7671,1.7677,1.7643,1.7615,1.7639,1.7767,1.7762,1.7609,1.7559,1.7653,1.7637,1.7617,1.7517,1.7543,1.7501,1.7588,1.7583,1.7534,1.7508,1.7504,1.7582,1.7574,1.7598,1.7547,1.7618,1.7663,1.7728,1.7675,1.7668,1.776,1.781,1.7918,1.7779,1.7747,1.7863,1.7894,1.7919,1.799,1.7956,1.8053,1.8147,1.8262,1.8359,1.8367,1.8468,1.863,1.8644,1.8714,1.8649,1.8677,1.8731,1.8795,1.8762,1.8617,1.8572,1.8658,1.8738,1.8704,1.8615,1.8574,1.8679,1.877,1.8683,1.8775,1.8663,1.8734,1.8902,1.8938,1.8987,1.8983,1.9028,1.9179,1.9146,1.9256,1.9221,1.9242,1.9298,1.9402,1.9387,1.9347,1.9397,1.9395,1.9429,1.9427,1.9339,1.9264,1.9286,1.9342,1.9296,1.9232,1.9177,1.9102,1.9136,1.9111,1.8958,1.8869,1.8886,1.8946,1.8918,1.8867,1.8791,1.8726,1.8829,1.8748,1.8722,1.8605,1.8575,1.8707,1.8634,1.8591,1.8526,1.8479,1.8616,1.8563,1.8551,1.8505,1.848,1.8487,1.8463,1.8459,1.8403,1.8388,1.8451,1.85,1.8452,1.8331,1.8363,1.8391,1.8593,1.87,1.8709,1.889,1.8918,1.914,1.9237,1.9273,1.9392,1.9503,1.9601,1.9551,1.9617,1.9555,1.9571,1.9595,1.9505,1.9355,1.9204,1.8931,1.8714,1.8556,1.8376,1.8285,1.8276,1.8232,1.8224,1.8123,1.8073,1.8084,1.8095,1.8149,1.8103,1.7973,1.8005,1.7998,1.7994,1.7852,1.7875,1.8842,2.0444,2.3178,2.6112,2.8719,3.0501,3.0634,3.016,2.8236,2.4676,2.2022,1.6952,1.5499,1.5953,1.6327,1.7119,1.7228,1.774,1.7592,1.7766,1.7634,1.7771,1.7694,1.7882,1.7701,1.779,1.7788,1.8007,1.7893,1.7956,1.776,1.7898,1.7847,1.8034,1.7921,1.7888,1.7815,1.8002,1.7938,1.7997,1.7837,1.793,1.7948,1.8057,1.7997,1.7957,1.7964,1.8023,1.8078,1.8092,1.8021,1.801,1.8011,1.8104,1.8013,1.8002,1.7941,1.795,1.808,1.7996,1.8038,1.7915,1.7931,1.8026,1.7951,1.7934,1.79,1.7941,1.8107,1.7997,1.8103,1.8078,1.8076,1.8109,1.8213,1.8121,1.8129,1.8154,1.8218,1.8271,1.8316,1.8224,1.8292,1.8369,1.8479,1.8503,1.8561,1.8555,1.8677,1.8784,1.885,1.8831,1.8896,1.8938,1.9141,1.9099,1.9122,1.8999,1.9032,1.9056,1.9046,1.899,1.9007,1.8923,1.9016,1.8934,1.8935,1.8873,1.8925,1.8998,1.9076,1.9034,1.9006,1.9058,1.9175,1.9268,1.9304,1.9248,1.9279,1.9337,1.9471,1.9423,1.9395,1.9478,1.952,1.9611,1.9578,1.9548,1.9583,1.9529,1.9662,1.954,1.9509,1.9461,1.9395,1.9452,1.9493,1.9413,1.9268,1.9206,1.9289,1.9175,1.9145,1.9074,1.9028,1.9028,1.9043,1.8914,1.8877,1.8841,1.8818,1.8854,1.884,1.8747,1.872,1.8725,1.8751,1.8758,1.8615,1.862,1.8564,1.867,1.8651,1.8601,1.8545,1.8611,1.8647,1.8635,1.8556,1.8622,1.8736,1.8962,1.8984,1.8976,1.8953,1.9155,1.93,1.9447,1.9598,1.9627,1.9598,1.9631,1.9699,1.9703,1.9592,1.9643,1.9598,1.9448,1.9307,1.8961,1.8725,1.8581,1.8458,1.8425,1.8284,1.8254,1.8205,1.8258,1.8234,1.8106,1.8087,1.8089,1.8144,1.8101,1.8048,1.8024,1.7988,1.7983,1.7997,1.8655,2.009,2.2561,2.554,2.8348,2.9491,3.0631,3.0409,2.9681,2.7298,2.318,1.7611,1.5406,1.562,1.6076,1.6952,1.7042,1.7536,1.7513,1.7731,1.765,1.7714,1.7656,1.7867,1.7734,1.788,1.7722,1.7803,1.7808,1.8001,1.7891,1.7951,1.7907,1.7982,1.7963,1.8031,1.7956,1.7928,1.7939,1.8067,1.8055,1.8071,1.7958,1.7981,1.807,1.8078,1.802,1.7985,1.7922,1.8048,1.8017,1.8009,1.7936,1.7973,1.8034,1.8032,1.8055,1.796,1.7938,1.7989,1.799,1.8013,1.7944,1.7891,1.7995,1.7942,1.7945,1.7891,1.7877,1.7885,1.8002,1.8036,1.7968,1.7994,1.8071,1.8218,1.8205,1.8068,1.8045,1.8065,1.8231,1.8211,1.8179,1.8131,1.8243,1.8386,1.8437,1.8476,1.8489,1.8517,1.8679,1.8759,1.8819,1.8782,1.8874,1.8947,1.9023,1.8961,1.8977,1.8888,1.885,1.8818,1.881,1.8754,1.8812,1.8834,1.888,1.884,1.8838,1.8832,1.8825,1.8911,1.8984,1.8928,1.8978,1.8987,1.9157,1.9105,1.9152,1.9178,1.9173,1.9255,1.9261,1.92,1.9264,1.9202,1.94,1.9381,1.9423,1.9269,1.9192,1.9311,1.9295,1.919,1.9111,1.9053,1.9068,1.9079,1.8975,1.8899,1.8873,1.8915,1.8892,1.8826,1.8689,1.86,1.8617,1.8673,1.862,1.8522,1.845,1.8486,1.8456,1.8466,1.8455,1.8523,1.866,1.8757,1.8871,1.8882,1.8901,1.9073,1.9305,1.9494,1.9405,1.9344,1.9413,1.9385,1.943,1.9464,1.9303,1.9217,1.9072,1.9023,1.8682,1.8319,1.8155,1.7989,1.7971,1.7938,1.7804,1.7768,1.7737,1.7806,1.774,1.7633,1.7653,1.7725,1.7785,1.7783,1.7663,1.7574,1.7523,1.7584,1.7792,1.8774,2.044,2.3329,2.6281,2.8698,3.0158,3.0167,2.9329,2.6965,2.3057,1.7273,1.4965,1.4938,1.5015,1.5858,1.6422,1.6818,1.6931,1.7204,1.7234,1.7295,1.7178,1.73,1.7316,1.7457,1.7378,1.7383,1.7427,1.7519,1.7469,1.752,1.7443,1.7407,1.7366,1.7519,1.7442,1.7508,1.7412,1.7398,1.7552,1.7539,1.7463,1.7486,1.7431,1.7559,1.7593,1.7571,1.7482,1.7446,1.7571,1.7573,1.7453,1.7462,1.7477,1.747,1.7479,1.7526,1.7467,1.7494,1.7397,1.7412,1.7482,1.741,1.7288,1.735,1.7439,1.7408,1.7368,1.7366,1.7449,1.7426,1.748,1.7429,1.7455,1.7409,1.7614,1.7644,1.755,1.7573,1.7609,1.7711,1.7744,1.7702,1.7745,1.7819,1.8025,1.8018,1.8045,1.8063,1.8144,1.8338,1.8468,1.8475,1.8433,1.8444,1.8403,1.8488,1.8581,1.8458,1.8473,1.8423,1.8321,1.8348,1.8335,1.8318,1.8363,1.8434,1.8404,1.8428,1.8506,1.8439,1.8602,1.8663,1.8607,1.8734,1.876,1.8788,1.8861,1.8822,1.8838,1.8947,1.9053,1.9061,1.9101,1.9012,1.9039,1.9082,1.9067,1.8945,1.8925,1.8907,1.9039,1.8989,1.8873,1.8752,1.8725,1.8763,1.8841,1.8831,1.8861,1.8908,1.8964,1.9024,1.9158,1.9192,1.9291,1.9489,1.9639,1.9569,1.9376,1.9475,1.9482,1.9498,1.9449,1.922,1.9166,1.9048,1.8851,1.8549,1.8251,1.8049,1.7997,1.8009,1.7849,1.7776,1.7688,1.7682,1.7733,1.7703,1.7658,1.7563,1.7565,1.7627,1.7646,1.7624,1.7532,1.7444,1.7422,1.7437,1.823,1.9458,2.1855,2.4895,2.7603,2.9623,3.0225,2.9621,2.8067,2.4789,1.933,1.5444,1.5042,1.5209,1.5907,1.6578,1.6798,1.7026,1.7118,1.7256,1.7247,1.7324,1.7218,1.7279,1.737,1.7446,1.7448,1.7413,1.7398,1.7533,1.7509,1.7508,1.7471,1.7497,1.7578,1.7567,1.7484,1.7488,1.7468,1.7548,1.7617,1.758,1.7472,1.7503,1.7535,1.765,1.7608,1.7555,1.7527,1.7577,1.7651,1.7674,1.7551,1.756,1.7539,1.7571,1.7557,1.7441,1.7422,1.745,1.7493,1.7487,1.7422,1.74,1.7387,1.7494,1.7491,1.745,1.7442,1.7442,1.7565,1.7567,1.7533,1.7564,1.7549,1.768,1.7666,1.7627,1.7608,1.7623,1.7676,1.777,1.7817,1.7798,1.7892,1.7965,1.8093,1.8178,1.8166,1.8259,1.8377,1.8542,1.8612,1.858,1.8646,1.8636,1.8694,1.8642,1.8534,1.8518,1.8577,1.8563,1.8601,1.8484,1.8393,1.8398,1.8439,1.8505,1.8552,1.8497,1.8509,1.8581,1.858,1.8621,1.8644,1.8743,1.8873,1.8917,1.8934,1.8849,1.8917,1.8952,1.9053,1.908,1.8987,1.9015,1.9074,1.9119,1.9116,1.9018,1.8994,1.9015,1.8983,1.8996,1.8856,1.8779,1.8762,1.8746,1.8725,1.8663,1.8582,1.8513,1.8555,1.8491,1.8451,1.8323,1.835,1.8407,1.8344,1.8323,1.8238,1.8262,1.8479,1.8575,1.8676,1.8674,1.872,1.8907,1.8945,1.9008,1.9039,1.9247,1.93,1.9245,1.9318,1.9254,1.9286,1.9247,1.9204,1.9031,1.8879,1.8681,1.8354,1.8163,1.8004,1.7856,1.7842,1.7815,1.7767,1.7725,1.7714,1.7603,1.7614,1.7693,1.7655,1.7603,1.7515,1.7502,1.758,1.7478,1.7417,1.7444,1.83,1.9969,2.2524,2.5356,2.8082,2.982,2.9988,2.9378,2.8811,2.6137,2.1537,1.6333,1.5238,1.5103,1.5746,1.6616,1.6684,1.7187,1.7012,1.7201,1.7039,1.7278,1.7243,1.7384,1.7179,1.7317,1.7199,1.7431,1.731,1.7362,1.717,1.726,1.7269,1.7428,1.7225,1.7294,1.7183,1.7409,1.7331,1.7387,1.73,1.7342,1.736,1.7384,1.733,1.7358,1.7339,1.7457,1.7437,1.7473,1.7335,1.7343,1.7321,1.7381,1.7388,1.7283,1.7289,1.7259,1.7338,1.726,1.7217,1.7194,1.7219,1.7305,1.7265,1.7184,1.721,1.715,1.7289,1.7289,1.7325,1.7285,1.7331,1.7422,1.7494,1.7452,1.7411,1.7432,1.7565,1.7589,1.7594,1.7553,1.7609,1.7693,1.7821,1.7828,1.7864,1.7939,1.81,1.8154,1.8243,1.8191,1.8295,1.8326,1.8475,1.8421,1.834,1.8302,1.8346,1.8386,1.8442,1.8257,1.8306,1.8306,1.839,1.8324,1.8274,1.8275,1.8333,1.8408,1.843,1.8422,1.8421,1.8439,1.8614,1.8607,1.868,1.8606,1.8671,1.8752,1.8763,1.879,1.8746,1.8808,1.8895,1.8857,1.8913,1.8788,1.8828,1.8835,1.8864,1.8861,1.8753,1.8697,1.8737,1.874,1.8684,1.8584,1.8538,1.8533,1.8594,1.8496,1.8368,1.8267,1.825,1.8302,1.8425,1.8448,1.8563,1.8682,1.8744,1.8738,1.8834,1.8864,1.9006,1.9304,1.9288,1.9205,1.9153,1.9183,1.9295,1.9236,1.9089,1.8857,1.8775,1.8591,1.817,1.7987,1.7767,1.7726,1.7725,1.7749,1.7645,1.757,1.7508,1.7518,1.7598,1.7583,1.7474,1.7441,1.7435,1.7503,1.7394,1.7315,1.7165,1.7201,1.7933,1.9286,2.1558,2.449,2.7439,2.9593,3.0081,2.9806,2.901,2.6602,2.2712,1.7166,1.4891,1.4945,1.5551,1.6421,1.6628,1.6911,1.6832,1.7026,1.7093,1.7235,1.7124,1.717,1.7154,1.7291,1.7228,1.7344,1.7318,1.7378,1.724,1.7462,1.727,1.7351,1.7302,1.737,1.7376,1.7447,1.7286,1.7367,1.7321,1.7482,1.7446,1.7471,1.7442,1.7397,1.747,1.7551,1.7501,1.7453,1.747,1.7497,1.7586,1.7506,1.744,1.7429,1.7502,1.7477,1.7483,1.7376,1.7401,1.7461,1.7454,1.7427,1.7411,1.7414,1.7466,1.7474,1.7528,1.7483,1.7543,1.7601,1.7652,1.7643,1.7647,1.7685,1.7754,1.7829,1.7895,1.783,1.7907,1.7909,1.8032,1.8062,1.8028,1.8143,1.8252,1.8284,1.8408,1.8506,1.8489,1.8613,1.8691,1.8687,1.8777,1.8665,1.8733,1.8743,1.8765,1.8685,1.8609,1.8588,1.8699,1.8659,1.8703,1.8599,1.8606,1.8661,1.875,1.8814,1.879,1.8788,1.8817,1.8887,1.8981,1.8935,1.8993,1.9076,1.9114,1.9142,1.906,1.9074,1.914,1.9252,1.9236,1.9176,1.918,1.9203,1.9239,1.9205,1.9202,1.9096,1.9118,1.9227,1.9111,1.9111,1.8961,1.8914,1.8981,1.8914,1.8895,1.8753,1.8698,1.8752,1.8753,1.8738,1.8607,1.8561,1.859,1.8665,1.8765,1.8687,1.8766,1.89,1.9083,1.903,1.9105,1.9203,1.934,1.9684,1.971,1.9575,1.962,1.9535,1.9663,1.9635,1.9549,1.9389,1.9258,1.9242,1.8899,1.8543,1.8346,1.8225,1.8239,1.8242,1.8093,1.802,1.7939,1.7995,1.799,1.7957,1.789,1.7883,1.7943,1.7942,1.7865,1.7809,1.7692,1.7656,1.7812,1.8411,1.9728,2.2091,2.4991,2.7939,2.9853,3.0432,2.9708,2.8203,2.5134,2.012,1.5796,1.5047,1.5494,1.634,1.6857,1.7083,1.7331,1.7269,1.748,1.7471,1.752,1.7442,1.7548,1.7564,1.7686,1.764,1.762,1.765,1.7751,1.7764,1.78,1.764,1.7724,1.7746,1.784,1.7751,1.7694,1.7704,1.7723,1.782,1.7832,1.7778,1.779,1.7801,1.7924,1.7888,1.7846,1.7876,1.7843,1.7903,1.7893,1.7798,1.779,1.7811,1.7831,1.7843,1.7792,1.7776,1.7765,1.775,1.7813,1.7767,1.7617,1.7655,1.7721,1.7699,1.7762,1.7688,1.7744,1.7861,1.7903,1.7922,1.7835,1.7894,1.7998,1.8056,1.8072,1.7988,1.8033,1.8141,1.8251,1.8331,1.8238,1.8293,1.8397,1.8606,1.8686,1.8698,1.8758,1.8879,1.8988,1.9042,1.9007,1.9027,1.9083,1.909,1.9085,1.9048,1.8935,1.8989,1.9009,1.9006,1.9035,1.897,1.8961,1.9088,1.9045,1.9095,1.8995,1.9056,1.9149,1.9199,1.9192,1.9187,1.9252,1.9349,1.9388,1.9431,1.9337,1.9399,1.9427,1.9538,1.9546,1.9538,1.9442,1.9467,1.948,1.9453,1.9442,1.9394,1.9309,1.935,1.9351,1.9213,1.913,1.9131,1.9244,1.91,1.9027,1.8935,1.8924,1.8878,1.8818,1.8785,1.8696,1.8664,1.8682,1.8718,1.8664,1.8567,1.8539,1.8508,1.8566,1.8558,1.8434,1.8384,1.8499,1.8495,1.8441,1.8364,1.8354,1.8388,1.8466,1.8468,1.8396,1.8355,1.8314,1.8429,1.8397,1.8289,1.8279,1.8286,1.8355,1.83,1.8307,1.8283,1.8215,1.83,1.8313,1.8268,1.8223,1.8208,1.8229,1.8258,1.8215,1.8179,1.8206,1.8215,1.8231,1.8142,1.8118,1.8115,1.8179,1.823,1.8256,1.8136,1.8116,1.8106,1.8178,1.8157,1.8102,1.812,1.807,1.8176,1.8192,1.814,1.8078,1.8044,1.8187,1.8137,1.8052,1.8095,1.8179,1.8164,1.8059,1.8028,1.8029,1.8005,1.8105,1.8062,1.8026,1.7973,1.8044,1.8071,1.818,1.814,1.8003,1.8061,1.8099,1.8157,1.8087,1.7978,1.8065,1.81,1.8062,1.8025,1.7918,1.7943,1.797,1.8071,1.8149,1.8062,1.799,1.8061,1.8102,1.8204,1.8281,1.8271,1.8468,1.8596,1.8697,1.8832,1.885,1.9031,1.9122,1.9131,1.905,1.9062,1.9033,1.906,1.8958,1.8866,1.8653,1.8398,1.8281,1.8178,1.8035,1.7844,1.7777,1.7818,1.7813,1.7808,1.7718,1.7729,1.775,1.7718,1.7595,1.7537,1.7429,1.7399,1.7711,1.8838,1.9691,2.1853,2.4839,2.7447,2.9446,2.9729,2.9093,2.7804,2.4863,1.9677,1.5755,1.5001,1.5599,1.6327,1.6787,1.6994,1.7079,1.7053,1.7222,1.7229,1.7289,1.7155,1.721,1.7225,1.7296,1.7205,1.7122,1.7131,1.7208,1.7263,1.729,1.7196,1.7194,1.7192,1.7211,1.7154,1.7166,1.7138,1.7189,1.7197,1.7216,1.721,1.7176,1.7104,1.7288,1.7282,1.7172,1.7099,1.718,1.7283,1.7269,1.7162,1.7084,1.7049,1.7191,1.7136,1.7128,1.7083,1.7007,1.7086,1.7006,1.7031,1.6961,1.6942,1.6909,1.702,1.6926,1.6905,1.6944,1.6915,1.705,1.7063,1.7027,1.7003,1.6976,1.7154,1.7126,1.7081,1.7156,1.7189,1.7218,1.7229,1.7218,1.7286,1.73,1.7472,1.7502,1.7541,1.7562,1.7668,1.7768,1.7854,1.7902,1.7958,1.796,1.8181,1.8251,1.8178,1.8124,1.8142,1.822,1.8201,1.831,1.817,1.8169,1.8215,1.8307,1.8384,1.8239,1.8368,1.8411,1.851,1.8502,1.8508,1.851,1.8609,1.8691,1.8721,1.8614,1.8654,1.8729,1.8767,1.8791,1.8795,1.8765,1.8774,1.8805,1.8795,1.872,1.8708,1.87,1.8737,1.8629,1.85,1.8428,1.8445,1.8538,1.8463,1.8346,1.819,1.8183,1.8217,1.819,1.8169,1.8067,1.7992,1.7995,1.7956,1.7938,1.782,1.7867,1.7889,1.7885,1.7822,1.771,1.7722,1.7769,1.7725,1.773,1.7603,1.7637,1.7687,1.7733,1.7686,1.7633,1.7582,1.7561,1.77,1.7654,1.7611,1.7475,1.7521,1.7609,1.7564,1.7577,1.7515,1.7543,1.7642,1.7626,1.7747,1.7844,1.7982,1.8114,1.8154,1.822,1.8264,1.8368,1.8664,1.8773,1.8615,1.8575,1.8599,1.8588,1.8686,1.8633,1.8487,1.8279,1.8105,1.7837,1.7639,1.7458,1.7332,1.7368,1.7415,1.7332,1.727,1.7233,1.7189,1.7263,1.7224,1.7165,1.7103,1.7105,1.7192,1.71,1.6981,1.6989,1.768,1.9194,2.1605,2.449,2.7128,2.9025,2.9526,2.9238,2.8466,2.581,2.1677,1.6224,1.4722,1.4787,1.5132,1.6054,1.6284,1.6734,1.6716,1.6814,1.6754,1.6913,1.6871,1.7013,1.6829,1.6987,1.6858,1.7052,1.6977,1.7026,1.6898,1.699,1.7043,1.7137,1.7005,1.7018,1.6928,1.7089,1.7054,1.7023,1.6931,1.7033,1.7105,1.7155,1.7045,1.7034,1.7035,1.7085,1.7131,1.7161,1.7064,1.7111,1.7089,1.7205,1.7181,1.7055,1.7069,1.7049,1.7109,1.7061,1.694,1.6989,1.6979,1.7035,1.6975,1.6881,1.6906,1.692,1.6959,1.6974,1.6982,1.6913,1.699,1.7031,1.7101,1.7099,1.7046,1.7053,1.7164,1.717,1.7192,1.7137,1.72,1.7295,1.7283,1.7324,1.7415,1.7501,1.7577,1.7642,1.7737,1.7695,1.7861,1.7956,1.806,1.8099,1.8022,1.8014,1.8065,1.8083,1.8088,1.7947,1.8001,1.8014,1.8064,1.8006,1.8011,1.7952,1.801,1.8098,1.8169,1.8145,1.816,1.8219,1.8398,1.8368,1.8429,1.8367,1.8457,1.8592,1.8653,1.8657,1.8629,1.864,1.8801,1.8783,1.8823,1.8725,1.8725,1.8713,1.8786,1.8756,1.8663,1.8608,1.8668,1.8659,1.8613,1.8483,1.8399,1.8411,1.8434,1.837,1.8298,1.8242,1.8207,1.8251,1.8207,1.8054,1.8042,1.8005,1.8134,1.8101,1.807,1.7942,1.7922,1.8014,1.7969,1.795,1.7869,1.7842,1.7887,1.7912,1.7907,1.7843,1.785,1.7935,1.7874,1.7878,1.7815,1.7832,1.7807,1.7869,1.7866,1.7806,1.7771,1.7792,1.7848,1.7813,1.7769,1.7797,1.7782,1.7859,1.7812,1.7673,1.7711,1.7758,1.7826,1.7789,1.7719,1.7724,1.7727,1.7826,1.791,1.7989,1.8048,1.8165,1.8325,1.8451,1.8555,1.8599,1.8662,1.8951,1.8987,1.8898,1.8894,1.8889,1.8946,1.8989,1.8931,1.876,1.8693,1.8515,1.8284,1.807,1.7835,1.7715,1.7631,1.773,1.762,1.7537,1.7474,1.7496,1.7578,1.7517,1.7409,1.741,1.7391,1.746,1.7277,1.7185,1.7232,1.8059,1.9664,2.2237,2.5093,2.778,2.9592,2.9831,2.9299,2.758,2.4099,1.873,1.525,1.4902,1.5493,1.6099,1.6532,1.6878,1.6965,1.7049,1.7021,1.7075,1.7088,1.7198,1.723,1.7158,1.714,1.7228,1.7247,1.731,1.7199,1.7238,1.7244,1.7309,1.7298,1.7204,1.7165,1.7213,1.7227,1.7267,1.7224,1.7183,1.722,1.7305,1.7346,1.7332,1.7221,1.7252,1.7393,1.7379,1.7342,1.7277,1.7278,1.7344,1.7412,1.7396,1.7315,1.73,1.7368,1.7371,1.738,1.7316,1.7335,1.7369,1.7398,1.7345,1.7285,1.7251,1.7319,1.7385,1.7353,1.7322,1.7312,1.7408,1.7545,1.7526,1.751,1.7486,1.7498,1.7642,1.7617,1.7584,1.7541,1.7584,1.7699,1.7755,1.7802,1.7795,1.7845,1.8042,1.8126,1.8176,1.8173,1.8226,1.8427,1.8459,1.8464,1.842,1.8386,1.8481,1.8481,1.8414,1.8414,1.8403,1.8455,1.8537,1.8502,1.8418,1.8464,1.849,1.8675,1.8609,1.8606,1.8623,1.8676,1.883,1.8878,1.8831,1.8874,1.8904,1.9054,1.9058,1.9032,1.8985,1.9028,1.9091,1.9158,1.9134,1.9045,1.9038,1.9125,1.9132,1.9044,1.8985,1.8992,1.9009,1.8992,1.8914,1.872,1.8734,1.8739,1.8716,1.8583,1.8493,1.8502,1.8434,1.8511,1.8441,1.8375,1.8329,1.8331,1.8377,1.8318,1.8209,1.8199,1.8172,1.8216,1.8191,1.811,1.8089,1.8057,1.812,1.8123,1.8091,1.7976,1.7994,1.8065,1.8098,1.8043,1.7936,1.7975,1.8024,1.8072,1.8023,1.7948,1.7954,1.8018,1.8026,1.8006,1.7928,1.7973,1.7998,1.8038,1.804,1.8003,1.7972,1.7987,1.8034,1.8068,1.8003,1.7962,1.801,1.8088,1.804,1.7927,1.7917,1.7942,1.7999,1.8004,1.7936,1.7899,1.7919,1.7958,1.795,1.7925,1.7789,1.7802,1.7926,1.7939,1.7955,1.7798,1.7844,1.7978,1.8108,1.8279,1.8242,1.8298,1.8531,1.8699,1.8793,1.8838,1.8979,1.8931,1.9043,1.904,1.8915,1.8914,1.9005,1.9028,1.8924,1.8659,1.8404,1.8163,1.8087,1.79,1.7797,1.7661,1.7639,1.771,1.7657,1.7555,1.7483,1.7486,1.7533,1.7516,1.7482,1.7343,1.7368,1.739,1.7521,1.8462,1.9966,2.2641,2.563,2.8166,2.9705,2.9526,2.8955,2.7061,2.3477,1.8165,1.5194,1.4979,1.5642,1.6336,1.6467,1.6839,1.6947,1.7048,1.7164,1.7181,1.7015,1.7064,1.711,1.7212,1.7212,1.7245,1.7178,1.7232,1.7248,1.7248,1.7185,1.7125,1.7114,1.7289,1.7231,1.7229,1.7121,1.7154,1.7199,1.7233,1.7215,1.719,1.7222,1.7205,1.7237,1.7268,1.7161,1.7208,1.7265,1.7336,1.7248,1.7186,1.7269,1.7262,1.7266,1.7288,1.718,1.7208,1.7199,1.7241,1.7246,1.7156,1.7098,1.7081,1.7179,1.7176,1.7106,1.7107,1.7121,1.7177,1.7233,1.716
