3.6369,3.6316,3.6195,3.6102,3.6257,3.612,3.6072,3.625,3.6216,3.6112,3.5953,3.6157,3.6299,3.6262,3.6141,3.6051,3.6253,3.609,3.6204,3.6333,3.6469,3.6284,3.6287,3.6365,3.6252,3.6256,3.6223,3.6271,3.6124,3.6178,3.6287,3.6306,3.6419,3.6484,3.64,3.6348,3.6181,3.6117,3.6294,3.6353,3.6336,3.6361,3.618,3.6078,3.6121,3.6221,3.6204,3.6262,3.6244,3.6055,3.6155,3.6136,3.6322,3.6287,3.6405,3.6646,3.6466,3.6578,3.6585,3.6656,3.6934,3.6889,3.7048,3.7286,3.7317,3.7239,3.6953,3.6802,3.6635,3.6405,3.6283,3.6165,3.612,3.6174,3.6014,3.5945,3.6001,3.6003,3.5895,3.5965,3.5872,3.5821,3.5891,3.5913,3.5831,3.5805,3.5843,3.5686,3.4689,3.422,3.4435,3.6078,3.888,4.2627,4.491,4.8351,5.112,5.0967,4.8726,4.3789,4.0182,3.8316,3.7303,3.6704,3.6604,3.6211,3.6221,3.6008,3.6291,3.6119,3.5801,3.5751,3.5812,3.5957,3.5987,3.5854,3.5779,3.5861,3.5993,3.6003,3.5953,3.5916,3.5911,3.5847,3.6037,3.6145,3.6243,3.6139,3.6191,3.6255,3.6295,3.6463,3.6427,3.6462,3.6459,3.644,3.6615,3.6693,3.6694,3.6984,3.7068,3.7073,3.7005,3.7174,3.7425,3.766,3.7774,3.7873,3.7968,3.8362,3.8442,3.8567,3.8749,3.8816,3.9043,3.9078,3.9006,3.9029,3.9035,3.8964,3.8909,3.8565,3.8387,3.8126,3.7959,3.7579,3.7567,3.7305,3.6836,3.6853,3.6724,3.6544,3.6555,3.6317,3.6482,3.6362,3.6366,3.633,3.637,3.6307,3.6283,3.6125,3.5965,3.6064,3.6322,3.6348,3.6224,3.6402,3.6422,3.6363,3.6274,3.6318,3.6245,3.6392,3.6359,3.6375,3.6335,3.6439,3.6366,3.6283,3.6349,3.6346,3.6364,3.6171,3.6323,3.6494,3.6441,3.6243,3.6144,3.6427,3.6359,3.6312,3.6489,3.6418,3.6566,3.6507,3.6327,3.6482,3.6389,3.6546,3.6416,3.6289,3.6182,3.627,3.6159,3.6241,3.6358,3.6324,3.6323,3.6194,3.6411,3.6644,3.6599,3.6644,3.6783,3.6886,3.6692,3.6919,3.6871,3.7301,3.7407,3.7398,3.7314,3.7078,3.7167,3.715,3.6827,3.6415,3.6254,3.6294,3.6105,3.6213,3.6183,3.6113,3.6038,3.6134,3.6225,3.6043,3.6157,3.6029,3.5836,3.5874,3.598,3.6037,3.5887,3.5205,3.4425,3.4523,3.5204,3.7682,4.1367,4.5645,4.9527,5.1951,5.1736,5.068,4.6633,4.187,3.9041,3.7771,3.7185,3.6578,3.6479,3.6087,3.6189,3.6148,3.6191,3.5976,3.5992,3.5866,3.6094,3.5928,3.6052,3.6136,3.5948,3.5871,3.6064,3.5893,3.6089,3.6201,3.621,3.6124,3.6234,3.6048,3.6015,3.6181,3.6376,3.6458,3.6585,3.6472,3.6373,3.6232,3.6653,3.6614,3.67,3.668,3.6899,3.695,3.7019,3.6938,3.7122,3.7354,3.7527,3.769,3.7907,3.8051,3.8159,3.8511,3.8706,3.8585,3.8811,3.8939,3.9022,3.9046,3.9008,3.8947,3.8852,3.8879,3.8716,3.846,3.8238,3.7925,3.7673,3.7605,3.716,3.7099,3.6965,3.6876,3.6449,3.6566,3.6673,3.6393,3.6385,3.6413,3.632,3.6182,3.6174,3.6436,3.6349,3.6312,3.6175,3.6232,3.6414,3.6292,3.6064,3.6268,3.6351,3.6221,3.6271,3.641,3.6349,3.6292,3.6387,3.6381,3.639,3.6429,3.6381,3.6199,3.6303,3.6367,3.6316,3.6284,3.6102,3.628,3.623,3.6311,3.6508,3.6394,3.634,3.6245,3.6387,3.6334,3.6254,3.6219,3.6243,3.6282,3.6158,3.6243,3.6168,3.6245,3.6226,3.6147,3.6306,3.6391,3.6505,3.6671,3.6452,3.6731,3.6846,3.6843,3.6938,3.713,3.7139,3.7204,3.7188,3.7269,3.7225,3.6956,3.656,3.6307,3.6195,3.6031,3.592,3.5855,3.6001,3.5966,3.5889,3.5955,3.5839,3.5893,3.5836,3.5827,3.5753,3.5683,3.5624,3.5806,3.5748,3.5011,3.4207,3.4231,3.5269,3.8027,4.1794,4.5901,4.9686,5.2026,5.1203,4.8267,4.3521,3.9594,3.8135,3.7089,3.6434,3.6255,3.616,3.5974,3.6041,3.5873,3.5895,3.574,3.5734,3.5762,3.578,3.5727,3.5801,3.579,3.5864,3.581,3.5793,3.5706,3.5854,3.5892,3.5871,3.6011,3.5932,3.5805,3.5887,3.5932,3.5946,3.6081,3.6354,3.625,3.6376,3.6345,3.6308,3.6326,3.6455,3.6655,3.6647,3.6725,3.6763,3.6911,3.7237,3.7257,3.7485,3.7632,3.7802,3.7885,3.8106,3.8148,3.8234,3.8353,3.8601,3.8655,3.8658,3.885,3.8831,3.8707,3.8594,3.8506,3.8254,3.8069,3.7746,3.753,3.7341,3.7177,3.6873,3.6886,3.6726,3.6621,3.6523,3.6237,3.6181,3.6203,3.6206,3.6203,3.6184,3.6159,3.6259,3.6281,3.6178,3.6127,3.6148,3.6222,3.6221,3.6331,3.6269,3.6168,3.6094,3.6165,3.6262,3.626,3.637,3.6254,3.6273,3.6323,3.6245,3.6257,3.6353,3.6277,3.6355,3.6355,3.6374,3.6372,3.6233,3.6281,3.6158,3.6074,3.6146,3.6155,3.6321,3.6157,3.6143,3.6188,3.6269,3.6144,3.6135,3.6137,3.6067,3.6148,3.6195,3.6157,3.6241,3.627,3.6403,3.6436,3.6332,3.6507,3.6479,3.6694,3.666,3.6921,3.7141,3.7271,3.7272,3.709,3.7199,3.6999,3.7033,3.657,3.6194,3.5985,3.6054,3.6119,3.5953,3.597,3.5919,3.5818,3.5811,3.5797,3.583,3.586,3.586,3.5954,3.5726,3.5692,3.5659,3.5623,3.4996,3.4258,3.438,3.5279,3.7833,4.1477,4.5422,4.9154,5.1362,5.1409,4.9361,4.4768,4.0529,3.8374,3.7428,3.6742,3.6212,3.6107,3.6006,3.6023,3.5787,3.5904,3.5729,3.5961,3.5844,3.5823,3.568,3.561,3.574,3.5881,3.593,3.5868,3.5888,3.5868,3.5812,3.5901,3.5856,3.6,3.6111,3.6154,3.622,3.6086,3.5842,3.5995,3.5976,3.6282,3.6259,3.6416,3.6392,3.6421,3.6628,3.6611,3.6587,3.6777,3.6983,3.706,3.7049,3.7283,3.7522,3.7669,3.7877,3.7916,3.8169,3.8219,3.8383,3.8564,3.8452,3.8566,3.8686,3.8613,3.8633,3.8562,3.8479,3.8454,3.8033,3.772,3.7627,3.7419,3.7141,3.6964,3.6754,3.6455,3.6328,3.624,3.6247,3.6107,3.6026,3.5966,3.6022,3.6046,3.604,3.5925,3.5895,3.5889,3.5997,3.5946,3.5944,3.5911,3.5874,3.587,3.5793,3.6004,3.5996,3.5868,3.602,3.5879,3.5913,3.5981,3.6048,3.5843,3.5852,3.5909,3.591,3.5768,3.6012,3.5922,3.5938,3.5961,3.6062,3.5983,3.5906,3.5911,3.5915,3.5877,3.5871,3.5917,3.5896,3.5847,3.5908,3.5767,3.572,3.5886,3.5756,3.5919,3.6107,3.5915,3.6298,3.6205,3.6163,3.6357,3.6726,3.683,3.6826,3.676,3.6786,3.6821,3.6761,3.6498,3.6071,3.5961,3.5838,3.5725,3.5599,3.5622,3.5569,3.5484,3.548,3.531,3.5381,3.5371,3.5315,3.545,3.5515,3.527,3.5217,3.5327,3.5325,3.4994,3.3965,3.3842,3.3905,3.5145,3.7947,4.1785,4.5755,4.9428,5.0961,5.0139,4.6417,4.1482,3.8521,3.7279,3.6494,3.606,3.5901,3.5654,3.5685,3.5459,3.531,3.5256,3.5304,3.544,3.5379,3.5346,3.5345,3.5352,3.5335,3.546,3.5283,3.5452,3.5407,3.5408,3.546,3.5451,3.5518,3.5651,3.5618,3.563,3.5687,3.5581,3.5648,3.5467,3.5407,3.5727,3.588,3.5952,3.594,3.5977,3.6096,3.6243,3.6267,3.6384,3.6554,3.6643,3.6863,3.6996,3.7086,3.7239,3.7438,3.7578,3.7828,3.7876,3.8012,3.8092,3.813,3.8059,3.8271,3.833,3.8258,3.8075,3.7973,3.7657,3.7356,3.7075,3.6913,3.6675,3.6456,3.6287,3.5911,3.5925,3.5764,3.5768,3.5718,3.5671,3.5658,3.5364,3.5436,3.5444,3.5515,3.5537,3.5524,3.5497,3.5408,3.5436,3.5303,3.5401,3.5504,3.5363,3.5552,3.5508,3.537,3.5399,3.541,3.534,3.5427,3.5374,3.542,3.557,3.5557,3.5465,3.5508,3.5417,3.5411,3.5549,3.5434,3.5394,3.548,3.5622,3.5452,3.5483,3.541,3.5443,3.5524,3.5492,3.5501,3.542,3.5206,3.5215,3.5447,3.53,3.5295,3.5366,3.5346,3.5403,3.5378,3.5465,3.5502,3.5766,3.5747,3.5786,3.5723,3.577,3.5845,3.5958,3.6026,3.6048,3.618,3.6551,3.6488,3.609,3.5915,3.5784,3.529,3.526,3.5305,3.5212,3.5063,3.5119,3.5076,3.5072,3.4986,3.4956,3.5171,3.5028,3.486,3.4844,3.4821,3.485,3.491,3.4687,3.3821,3.3451,3.3636,3.5369,3.8183,4.2016,4.6431,4.9907,5.1016,4.9774,4.5881,4.3155,3.9405,3.695,3.6378,3.5624,3.5676,3.5262,3.5326,3.5007,3.5216,3.5057,3.5126,3.5024,3.4987,3.4699,3.5071,3.5001,3.5084,3.4945,3.5162,3.5037,3.5085,3.491,3.5008,3.4976,3.5199,3.5192,3.5152,3.5146,3.5336,3.5275,3.5349,3.5398,3.5515,3.5421,3.5488,3.5576,3.5559,3.5687,3.5732,3.5946,3.5989,3.6044,3.5996,3.628,3.6369,3.654,3.6746,3.6898,3.7108,3.7221,3.7459,3.7552,3.7611,3.7813,3.786,3.7883,3.8018,3.7809,3.7685,3.7858,3.7795,3.7461,3.7272,3.7095,3.6832,3.6449,3.6135,3.6053,3.5931,3.5878,3.5761,3.5533,3.5412,3.5393,3.5456,3.5244,3.5274,3.5269,3.5342,3.5308,3.5293,3.5404,3.5217,3.5202,3.5157,3.5366,3.5184,3.529,3.544,3.5384,3.5311,3.519,3.5121,3.5324,3.5274,3.5194,3.5249,3.5326,3.5332,3.5409,3.5365,3.5354,3.5168,3.5187,3.5228,3.5239,3.5235,3.5311,3.5253,3.5075,3.5186,3.5367,3.5257,3.5306,3.5243,3.5383,3.5294,3.5336,3.5109,3.4938,3.5006,3.5273,3.5304,3.5236,3.5172,3.517,3.5086,3.5093,3.5058,3.5032,3.5229,3.5115,3.4935,3.5113,3.5156,3.5154,3.517,3.5149,3.5009,3.4908,3.4993,3.5156,3.5172,3.518,3.4964,3.497,3.51,3.5332,3.5559,3.5495,3.5504,3.5579,3.5529,3.5665,3.599,3.6031,3.5973,3.5968,3.5881,3.5859,3.6006,3.5808,3.5442,3.5153,3.5081,3.4749,3.4887,3.4868,3.4874,3.4866,3.4696,3.485,3.4891,3.4687,3.4676,3.4784,3.4725,3.4776,3.475,3.4674,3.4668,3.4198,3.3449,3.3218,3.3902,3.6103,3.9474,4.3235,4.7616,5.0569,5.0603,4.8392,4.4071,3.9558,3.7296,3.6302,3.5685,3.5228,3.5086,3.5058,3.5152,3.4971,3.4968,3.4858,3.4792,3.472,3.4724,3.4766,3.4772,3.4712,3.4561,3.4585,3.4883,3.4779,3.4926,3.4851,3.4826,3.4784,3.4951,3.4926,3.5056,3.5084,3.5026,3.5241,3.5032,3.5113,3.5017,3.5255,3.5382,3.5215,3.5412,3.5443,3.5588,3.5606,3.5749,3.5945,3.609,3.6233,3.6318,3.6446,3.6575,3.6716,3.6862,3.713,3.7255,3.7255,3.7386,3.762,3.7793,3.7857,3.7858,3.7741,3.7718,3.7746,3.7691,3.7374,3.7128,3.6931,3.656,3.6274,3.5991,3.5885,3.5776,3.5638,3.5668,3.555,3.5277,3.5364,3.5189,3.5126,3.5276,3.5248,3.5075,3.5215,3.5174,3.5087,3.5116,3.51,3.5177,3.5034,3.5104,3.5244,3.5053,3.5067,3.5076,3.5223,3.5229,3.5038,3.5174,3.5197,3.5124,3.5211,3.517,3.5308,3.5122,3.524,3.5273,3.5119,3.5076,3.4915,3.5026,3.5191,3.5137,3.515,3.5296,3.5073,3.5087,3.5009,3.5074,3.5231,3.5114,3.512,3.5168,3.5214,3.4965,3.4951,3.4892,3.5111,3.5051,3.5034,3.4935,3.5018,3.4976,3.5182,3.4958,3.4999,3.5065,3.5146,3.5119,3.4997,3.5049,3.4965,3.4993,3.4961,3.5025,3.5198,3.5085,3.5109,3.5051,3.5089,3.4963,3.4809,3.5011,3.4979,3.5088,3.5075,3.5223,3.5325,3.5338,3.547,3.5299,3.5457,3.5521,3.5677,3.5953,3.5919,3.6055,3.612,3.6108,3.6114,3.5855,3.576,3.5848,3.5498,3.5478,3.5286,3.5092,3.4894,3.4978,3.4872,3.496,3.4829,3.4773,3.4954,3.4891,3.4878,3.482,3.4806,3.471,3.4962,3.4901,3.4439,3.3983,3.3452,3.3473,3.4692,3.7471,4.1125,4.5141,4.8824,5.0996,5.0071,4.6733,4.2046,3.8464,3.692,3.6216,3.557,3.5392,3.5399,3.5311,3.5177,3.5197,3.513,3.5145,3.5021,3.5006,3.4911,3.4867,3.5063,3.5044,3.51,3.5073,3.5178,3.5165,3.5042,3.5134,3.5098,3.5135,3.5079,3.5263,3.534,3.5422,3.5392,3.5304,3.5497,3.5467,3.5507,3.5581,3.5644,3.5559,3.5719,3.5863,3.5979,3.608,3.6219,3.6329,3.6278,3.6551,3.6567,3.6815,3.7,3.7165,3.7323,3.7552,3.7651,3.7896,3.7868,3.8003,3.8111,3.8163,3.8259,3.813,3.8077,3.8035,3.7872,3.7661,3.7641,3.7322,3.7063,3.6878,3.6567,3.636,3.6142,3.5937,3.5982,3.578,3.5695,3.5735,3.581,3.5635,3.5561,3.5592,3.5614,3.5484,3.5559,3.5551,3.5708,3.5694,3.5538,3.5464,3.5436,3.5399,3.5477,3.5656,3.5609,3.5718,3.5594,3.5793,3.5627,3.5448,3.5601,3.5514,3.5795,3.5802,3.5728,3.5577,3.5726,3.5633,3.5642,3.5723,3.5781,3.5666,3.5734,3.5707,3.5579,3.5538,3.5743,3.5731,3.5767,3.5517,3.5458,3.5574,3.5516,3.5681,3.5684,3.5621,3.5617,3.5657,3.568,3.5716,3.5522,3.546,3.5589,3.5618,3.5574,3.549,3.5584,3.5681,3.5631,3.5656,3.5561,3.5501,3.5646,3.5472,3.5483,3.5551,3.5692,3.5929,3.5984,3.6187,3.6197,3.5986,3.5999,3.6243,3.6455,3.6588,3.6546,3.6538,3.659,3.6661,3.6557,3.63,3.6014,3.5721,3.5494,3.5598,3.5528,3.5476,3.544,3.5332,3.5379,3.5358,3.5294,3.536,3.5405,3.5329,3.5428,3.531,3.5417,3.5492,3.4933,3.3902,3.3918,3.4192,3.601,3.8664,4.2465,4.6334,4.9487,5.0536,4.9267,4.5129,4.2472,3.9241,3.7509,3.7105,3.6133,3.6347,3.5793,3.5836,3.5486,3.5728,3.539,3.5579,3.5361,3.5398,3.5156,3.5502,3.5356,3.561,3.5384,3.5653,3.5563,3.5631,3.5434,3.5623,3.571,3.5713,3.5817,3.5884,3.5705,3.5724,3.5709,3.5741,3.6029,3.6052,3.5982,3.6074,3.606,3.6196,3.6166,3.6307,3.6393,3.653,3.6571,3.6888,3.6825,3.6976,3.7161,3.7354,3.7486,3.7621,3.7909,3.8133,3.8056,3.8133,3.8406,3.8589,3.8605,3.8522,3.859,3.8601,3.8649,3.8421,3.8449,3.8064,3.7994,3.7447,3.7171,3.7327,3.7196,3.6814,3.6518,3.6281,3.6233,3.6339,3.6201,3.611,3.5995,3.5877,3.601,3.5903,3.595,3.5839,3.5922,3.5819,3.582,3.5894,3.6023,3.5934,3.5988,3.602,3.5918,3.5959,3.6047,3.6035,3.5818,3.5886,3.5928,3.5936,3.6173,3.6012,3.6114,3.6136,3.5923,3.6027,3.6234,3.6094,3.5955,3.6064,3.6204,3.5946,3.5985,3.6058,3.5914,3.5615,3.5806,3.5824,3.6082,3.5914,3.6034,3.5804,3.5805,3.614,3.6125,3.5941,3.6266,3.6191,3.6334,3.6394,3.6309,3.6486,3.6599,3.6804,3.6913,3.6904,3.7027,3.7047,3.6891,3.6604,3.6192,3.6218,3.6122,3.5924,3.5997,3.576,3.5643,3.5754,3.5769,3.5704,3.5679,3.5579,3.5455,3.5619,3.577,3.5844,3.5704,3.5635,3.5614,3.508,3.4272,3.4341,3.4669,3.572,3.8322,4.2161,4.6034,4.9186,5.0769,4.9974,4.6208,4.1386,3.8603,3.7479,3.6577,3.6278,3.6195,3.6012,3.5666,3.5722,3.5758,3.571,3.5768,3.5731,3.5671,3.553,3.5713,3.5716,3.5758,3.5729,3.5737,3.5764,3.5494,3.565,3.5812,3.5903,3.5748,3.5973,3.6046,3.6052,3.6068,3.5932,3.5999,3.6125,3.6146,3.623,3.6275,3.6291,3.6285,3.6536,3.6579,3.6572,3.6675,3.6907,3.7081,3.7293,3.7213,3.7487,3.7603,3.7743,3.7954,3.8129,3.8373,3.8493,3.8625,3.8786,3.872,3.8804,3.8872,3.8789,3.8818,3.8747,3.8539,3.8433,3.8021,3.7687,3.7545,3.7344,3.7064,3.6766,3.6605,3.6497,3.6388,3.6232,3.6186,3.6119,3.6119,3.6011,3.6183,3.6038,3.5813,3.5862,3.6174,3.6171,3.5959,3.5805,3.5941,3.5931,3.5992,3.5996,3.5928,3.6054,3.6027,3.599,3.6068,3.5927,3.5952,3.5905,3.6058,3.6062,3.6083,3.612,3.6094,3.609,3.5993,3.6028,3.5901,3.6121,3.6209,3.6218,3.6337,3.6459,3.6467,3.6432,3.6528,3.6675,3.6762,3.6721,3.6775,3.6929,3.7019,3.6945,3.6973,3.6967,3.6851,3.6614,3.6443,3.618,3.6005,3.5812,3.5664,3.5634,3.5739,3.5855,3.5813,3.5651,3.5486,3.5607,3.5772,3.5709,3.5509,3.5625,3.5659,3.5685,3.5162,3.4188,3.4144,3.4824,3.7175,4.0695,4.463,4.8703,5.1324,5.118,5.0182,4.6482,4.1781,3.8677,3.7321,3.6895,3.6069,3.6016,3.5934,3.6041,3.5742,3.5848,3.5678,3.5728,3.5522,3.5608,3.548,3.5605,3.5625,3.569,3.5606,3.5707,3.581,3.5776,3.5604,3.5695,3.5674,3.5808,3.5756,3.5872,3.5798,3.5733,3.6091,3.599,3.6053,3.5993,3.6109,3.6119,3.6092,3.6213,3.6282,3.6491,3.6632,3.6702,3.6756,3.6714,3.6983,3.7101,3.7291,3.7399,3.7593,3.7786,3.8038,3.8152,3.8271,3.8311,3.8385,3.8511,3.8515,3.8493,3.8443,3.8333,3.8097,3.8045,3.7942,3.7655,3.7309,3.7055,3.6992,3.6592,3.6514,3.6391,3.6248,3.6144,3.6092,3.5906,3.5933,3.6037,3.6056,3.5945,3.5983,3.594,3.5834,3.5954,3.5935,3.5972,3.608,3.6031,3.5985,3.5989,3.5952,3.6005,3.5984,3.5862,3.5758,3.5712,3.6062,3.604,3.6051,3.6062,3.6027,3.604,3.6132,3.5994,3.597,3.5945,3.61,3.6032,3.5993,3.5999,3.6091,3.6167,3.6181,3.6109,3.6188,3.6359,3.6378,3.6529,3.6903,3.6914,3.6899,3.6923,3.6935,3.6876,3.6825,3.7034,3.6959,3.6664,3.6477,3.6213,3.587,3.5714,3.5767,3.5876,3.5748,3.5826,3.5618,3.5705,3.5781,3.5743,3.5663,3.5698,3.5737,3.5741,3.5596,3.5705,3.5586,3.4721,3.4179,3.4242,3.5297,3.8119,4.1709,4.5876,4.9632,5.1557,5.0765,4.7412,4.2686,3.9149,3.7733,3.7233,3.6512,3.6091,3.6008,3.6051,3.6104,3.5735,3.5774,3.5621,3.5691,3.5756,3.5493,3.5518,3.5437,3.5532,3.5969,3.5875,3.5827,3.5692,3.5415,3.5528,3.5892,3.6054,3.5887,3.6046,3.6035,3.6009,3.5988,3.6115,3.6084,3.5995,3.6026,3.607,3.6212,3.6311,3.6345,3.6508,3.662,3.6573,3.6818,3.6748,3.6902,3.7247,3.7235,3.7305,3.7619,3.7794,3.7826,3.8092,3.8313,3.8244,3.8288,3.8234,3.8483,3.8457,3.8576,3.8554,3.8373,3.8177,3.7974,3.7823,3.7635,3.7502,3.7254,3.7112,3.6701,3.6521,3.6221,3.6446,3.6423,3.6273,3.6076,3.6299,3.6177,3.6241,3.6313,3.6257,3.6186,3.6079,3.6157,3.61,3.6174,3.6194,3.6272,3.6125,3.595,3.597,3.6067,3.6169,3.633,3.6304,3.6323,3.624,3.6335,3.6334,3.6272,3.6245,3.6217,3.6272,3.6265,3.6212,3.6248,3.6093,3.6159,3.6166,3.6312,3.6328,3.6252,3.6323,3.6204,3.61,3.6185,3.6388,3.6341,3.6175,3.6182,3.6193,3.6465,3.6634,3.6566,3.6525,3.6735,3.6593,3.6698,3.6915,3.7135,3.71,3.7091,3.7279,3.7257,3.7194,3.6952,3.6772,3.6411,3.6286,3.6077,3.6054,3.6052,3.6084,3.6106,3.6013,3.596,3.5718,3.5938,3.608,3.5947,3.5848,3.5933,3.5839,3.581,3.5902,3.5694,3.5169,3.4418,3.45,3.5748,3.8712,4.2488,4.6581,5.0181,5.177,5.1464,4.9425,4.4684,4.0622,3.8365,3.7431,3.684,3.6542,3.629,3.6345,3.6087,3.5951,3.6047,3.6057,3.5983,3.5979,3.6033,3.5932,3.6025,3.597,3.6036,3.5859,3.602,3.6086,3.6255,3.6082,3.6057,3.6276,3.6233,3.6103,3.6291,3.6206,3.6273,3.6065,3.6284,3.6327,3.6555,3.6656,3.663,3.6565,3.6666,3.6793,3.6809,3.6858,3.7038,3.7035,3.7201,3.7505,3.7612,3.783,3.7913,3.8134,3.8127,3.8253,3.8558,3.8694,3.8723,3.8884,3.8986,3.8949,3.8897,3.8985,3.8906,3.8682,3.842,3.8274,3.8069,3.7803,3.7754,3.7517,3.7231,3.7063,3.6852,3.6695,3.659,3.6694,3.6623,3.6634,3.6495,3.654,3.6554,3.6585,3.6656,3.6768,3.6628,3.6566,3.6573,3.6554,3.6797,3.6623,3.6439,3.6501,3.6436,3.645,3.648,3.6583,3.645,3.6418,3.6357,3.633,3.6337,3.648,3.6466,3.6541,3.6559,3.6532,3.658,3.6619,3.6544,3.6421,3.6462,3.6462,3.6423,3.6366,3.6469,3.6579,3.6375,3.6325,3.6261,3.6362,3.6436,3.6387,3.6595,3.6813,3.6889,3.6785,3.6762,3.6854,3.7081,3.7217,3.7329,3.7237,3.7522,3.7546,3.7492,3.7404,3.7058,3.6735,3.6354,3.6211,3.6298,3.6236,3.6189,3.606,3.6236,3.6194,3.6155,3.6164,3.609,3.6223,3.5988,3.5811,3.5938,3.5978,3.6091,3.5885,3.5302,3.4637,3.4655,3.5826,3.8316,4.0108,4.3784,4.7665,5.043,5.0886,4.8972,4.4425,4.0462,3.8675,3.7475,3.6992,3.6357,3.6341,3.6134,3.6404,3.6329,3.6308,3.6082,3.5973,3.5875,3.5967,3.5971,3.6099,3.6123,3.6163,3.5912,3.5974,3.6043,3.6067,3.606,3.6291,3.6406,3.6484,3.6098,3.587,3.613,3.6516,3.6506,3.6506,3.6452,3.6567,3.6516,3.6699,3.677,3.6864,3.6828,3.6802,3.6842,3.6995,3.7397,3.7444,3.7584,3.7749,3.7725,3.8,3.8197,3.8233,3.8335,3.8439,3.8441,3.8538,3.8831,3.8899,3.9013,3.9123,3.9071,3.8724,3.8474,3.8484,3.8265,3.816,3.7915,3.7542,3.7424,3.7148,3.692,3.6631,3.6649,3.6578,3.6562,3.6541,3.6615,3.6654,3.6323,3.6114,3.6294,3.6472,3.639,3.6128,3.626,3.6446,3.636,3.6194,3.6171,3.622,3.6308,3.6382,3.6324,3.6221,3.6277,3.633,3.6507,3.6443,3.6402,3.6363,3.6576,3.644,3.6485,3.6481,3.6544,3.6495,3.6539,3.642,3.6618,3.6804,3.694,3.6977,3.7111,3.6939,3.6983,3.7107,3.7184,3.7279,3.7272,3.7384,3.7416,3.7477,3.7346,3.7106,3.69,3.6613,3.6496,3.643,3.6286,3.6178,3.6138,3.6087,3.6085,3.6149,3.6182,3.6127,3.595,3.5949,3.5991,3.6126,3.6022,3.6094,3.5936,3.5534,3.4664,3.4388,3.4883,3.6796,3.9717,4.3693,4.7592,5.0611,5.1209,4.935,4.5062,4.2611,3.9655,3.7951,3.7359,3.6488,3.644,3.6196,3.6374,3.6106,3.6172,3.5816,3.5926,3.5903,3.5903,3.5739,3.6121,3.5945,3.6103,3.5983,3.6056,3.6007,3.6053,3.5962,3.5996,3.6057,3.6128,3.6145,3.6251,3.6053,3.6215,3.6295,3.653,3.6405,3.6378,3.6456,3.6586,3.6491,3.6699,3.6706,3.678,3.6882,3.6941,3.7201,3.732,3.7276,3.751,3.7557,3.7718,3.8039,3.8364,3.8376,3.8324,3.863,3.8598,3.8724,3.8808,3.9002,3.8965,3.8932,3.865,3.836,3.82,3.7969,3.7794,3.7738,3.7444,3.7201,3.7043,3.682,3.6538,3.6662,3.6474,3.6484,3.6333,3.6267,3.6354,3.6337,3.6295,3.648,3.6355,3.6183,3.6151,3.6298,3.6063,3.6228,3.6261,3.633,3.6362,3.6336,3.6184,3.6054,3.6116,3.6372,3.6186,3.6128,3.6242,3.6332,3.6391,3.6423,3.6265,3.6335,3.629,3.6261,3.6205,3.6293,3.6421,3.6395,3.6322,3.6341,3.6376,3.6587,3.6672,3.6834,3.6791,3.691,3.6945,3.6998,3.7132,3.7142,3.714,3.7183,3.7154,3.7176,3.6915,3.6986,3.6628,3.6239,3.6051,3.6003,3.6089,3.6069,3.6021,3.6024,3.5895,3.5907,3.5869,3.5951,3.5965,3.5948,3.5923,3.5792,3.5817,3.5704,3.5584,3.4745,3.4393,3.4655,3.6515,3.9576,4.3372,4.7512,5.0988,5.1742,5.0004,4.5752,4.1474,3.8688,3.7546,3.6994,3.6598,3.64,3.6188,3.6133,3.5988,3.6087,3.5878,3.5884,3.5792,3.58,3.5747,3.5776,3.5802,3.5971,3.5882,3.5953,3.6067,3.6017,3.5858,3.5966,3.6027,3.5998,3.6138,3.6227,3.6175,3.603,3.6207,3.6201,3.6221,3.6181,3.6332,3.6402,3.6556,3.6712,3.6727,3.6749,3.6788,3.6845,3.7028,3.7176,3.7254,3.7461,3.7784,3.7817,3.7956,3.8129,3.8164,3.825,3.8431,3.8481,3.8671,3.8664,3.8839,3.8794,3.8655,3.8545,3.8459,3.8297,3.8063,3.7756,3.7623,3.7238,3.6958,3.6934,3.6706,3.674,3.6632,3.6443,3.6532,3.6359,3.6295,3.628,3.6129,3.6084,3.6121,3.6118,3.6273,3.623,3.6297,3.6261,3.6388,3.6262,3.6292,3.6235,3.6349,3.6295,3.6241,3.6257,3.6203,3.6161,3.6256,3.6236,3.615,3.6395,3.6323,3.6116,3.6054,3.6115,3.6212,3.644,3.6413,3.625,3.6193,3.6287,3.6383,3.6256,3.613,3.6322,3.6237,3.609,3.61,3.6221,3.6353,3.6135,3.6045,3.5907,3.6095,3.6327,3.6296,3.6209,3.6201,3.621,3.6204,3.6234,3.6404,3.6443,3.6412,3.6533,3.6497,3.6562,3.6632,3.6694,3.6921,3.7184,3.7122,3.7088,3.7095,3.7207,3.7021,3.6711,3.6424,3.6162,3.6132,3.6156,3.6037,3.5978,3.5841,3.5803,3.5766,3.5782,3.5803,3.5903,3.5863,3.5973,3.5906,3.5872,3.5779,3.5773,3.5807,3.5327,3.4416,3.4234,3.4831,3.5871,3.8642,4.2415,4.6435,5,5.1749,5.0825,4.7097,4.2199,3.8918,3.785,3.7101,3.6654,3.6444,3.6102,3.5924,3.5815,3.5904,3.5808,3.5696,3.5822,3.5703,3.5739,3.5699,3.5838,3.5755,3.5792,3.581,3.5723,3.5755,3.575,3.5846,3.5877,3.6009,3.5928,3.6021,3.6063,3.5985,3.5989,3.6083,3.6207,3.62,3.6077,3.6187,3.6354,3.6396,3.6376,3.6404,3.6573,3.6715,3.6763,3.6896,3.7102,3.7155,3.74,3.7593,3.7872,3.7944,3.8135,3.8172,3.8139,3.8239,3.8543,3.8578,3.8557,3.8679,3.871,3.8589,3.8414,3.8346,3.815,3.7907,3.7707,3.7462,3.7271,3.705,3.6789,3.6545,3.6355,3.6337,3.6386,3.6339,3.6337,3.6293,3.6127,3.6231,3.6226,3.6046,3.613,3.6131,3.5907,3.6089,3.6188,3.6207,3.6228,3.5956,3.6026,3.6021,3.6194,3.6289,3.6216,3.6112,3.605,3.6135,3.609,3.5947,3.625,3.6228,3.6092,3.6046,3.6133,3.6118,3.6071,3.6231,3.618,3.6203,3.6104,3.6003,3.5953,3.6142,3.6036,3.5957,3.5972,3.5952,3.6167,3.6142,3.6187,3.6189,3.6063,3.5931,3.5972,3.5959,3.5943,3.6153,3.6081,3.6121,3.6037,3.6059,3.5739,3.5878,3.5986,3.5926,3.5989,3.6072,3.5984,3.629,3.6419,3.6414,3.639,3.6421,3.6523,3.6631,3.6703,3.6869,3.6955,3.6975,3.7012,3.6757,3.6711,3.6501,3.6405,3.6256,3.5913,3.5748,3.5895,3.5913,3.5929,3.5775,3.5787,3.5745,3.5773,3.5738,3.5677,3.5673,3.5711,3.5709,3.5659,3.5694,3.543,3.4908,3.415,3.4265,3.4462,3.6321,3.9305,4.3183,4.711,5.0146,5.0832,4.9171,4.477,4.0445,3.8305,3.7325,3.6794,3.6327,3.6225,3.5859,3.5806,3.5669,3.5855,3.5496,3.5524,3.5657,3.5683,3.5722,3.5616,3.5728,3.563,3.5652,3.5726,3.5693,3.5865,3.5682,3.5707,3.5975,3.5923,3.5906,3.605,3.5931,3.5826,3.5878,3.6053,3.6062,3.6073,3.6071,3.6228,3.6258,3.655,3.6531,3.653,3.6562,3.6662,3.6757,3.6953,3.7095,3.7181,3.7417,3.7677,3.7768,3.7878,3.8135,3.8194,3.8334,3.8295,3.8354,3.8603,3.8619,3.857,3.8693,3.8747,3.8529,3.822,3.8062,3.7705,3.7446,3.7378,3.7211,3.6923,3.6872,3.6691,3.6484,3.6404,3.6212,3.6025,3.5983,3.6104,3.6214,3.6021,3.5994,3.6014,3.6004,3.6007,3.575,3.5861,3.5884,3.5959,3.6004,3.6135,3.61,3.5879,3.595,3.6029,3.601,3.5923,3.5841,3.6027,3.6075,3.6052,3.6079,3.6026,3.6075,3.6092,3.6035,3.6042,3.6176,3.611,3.6131,3.5953,3.6147,3.6152,3.6035,3.6018,3.6046,3.5907,3.5938,3.6052,3.5955,3.6104,3.6015,3.5853,3.5947,3.5957,3.6076,3.6079,3.5909,3.6047,3.5945,3.6044,3.6426,3.6548,3.6384,3.651,3.6551,3.664,3.6788,3.6798,3.6839,3.6878,3.696,3.6956,3.6757,3.6386,3.6125,3.5984,3.5888,3.576,3.5674,3.5765,3.5784,3.5801,3.5693,3.569,3.577,3.5605,3.5533,3.5785,3.5765,3.5678,3.5656,3.5737,3.5496,3.462,3.4116,3.4222,3.5553,3.8414,4.218,4.6209,4.9485,5.093,5.0221,4.662,4.3974,4.0342,3.8211,3.7357,3.6538,3.6291,3.6124,3.6006,3.5871,3.5961,3.5777,3.5845,3.5514,3.5697,3.5865,3.5878,3.5695,3.5781,3.5731,3.6023,3.584,3.5804,3.5722,3.5811,3.5753,3.5923,3.6041,3.6099,3.5987,3.6144,3.6027,3.6222,3.619,3.6111,3.6178,3.6406,3.6551,3.6673,3.6663,3.6642,3.666,3.6638,3.6865,3.704,3.7107,3.7107,3.7439,3.7412,3.7917,3.8115,3.824,3.8381,3.8415,3.8431,3.8664,3.8996,3.8988,3.9112,3.8995,3.8923,3.879,3.853,3.839,3.8284,3.801,3.7706,3.7581,3.7538,3.7128,3.7038,3.6819,3.6684,3.6685,3.6556,3.6346,3.6407,3.6482,3.641,3.6439,3.6521,3.6625,3.6415,3.629,3.6216,3.6251,3.6341,3.6327,3.6208,3.6314,3.623,3.6192,3.6217,3.62,3.6278,3.623,3.6273,3.613,3.6161,3.6367,3.6349,3.6265,3.6196,3.6357,3.6417,3.6354,3.6378,3.6427,3.6301,3.6416,3.6429,3.6429,3.6213,3.6182,3.6165,3.6337,3.6406,3.6317,3.6308,3.6395,3.6333,3.6381,3.622,3.6152,3.6295,3.6273,3.626,3.6315,3.6182,3.6174,3.6066,3.6175,3.6277,3.6223,3.6296,3.6555,3.66,3.6513,3.6389,3.6665,3.6913,3.705,3.7176,3.7096,3.7059,3.7219,3.7212,3.7037,3.6929,3.6633,3.6179,3.6065,3.6124,3.605,3.6121,3.6047,3.5975,3.5909,3.6018,3.593,3.5982,3.5934,3.583,3.5776,3.577,3.5871,3.5913,3.58,3.5373,3.4603,3.4429,3.4686,3.6854,4.0158,4.3936,4.7948,5.1029,5.1466,4.9451,4.4897,4.0675,3.8451,3.7806,3.7101,3.6512,3.6648,3.6373,3.6339,3.6042,3.6091,3.5858,3.5916,3.5784,3.599,3.5774,3.601,3.6118,3.626,3.6035,3.5834,3.5891,3.6212,3.6129,3.587,3.6141,3.6562,3.6399,3.624,3.6034,3.6316,3.6536,3.6633,3.6447,3.6277,3.6606,3.693,3.6906,3.6613,3.6554,3.6518,3.6658,3.7015,3.7182,3.7095,3.7249,3.7343,3.7489,3.7689,3.8256,3.8367,3.8302,3.846,3.8606,3.8655,3.8751,3.8832,3.9038,3.897,3.8905,3.9055,3.8937,3.874,3.8771,3.8264,3.7914,3.7792,3.7651,3.7369,3.71,3.6811,3.685,3.6929,3.6955,3.6687,3.6495,3.6504,3.6565,3.6282,3.6257,3.6387,3.6381,3.6453,3.6595,3.6489,3.6475,3.6369,3.6394,3.6182,3.6445,3.6401,3.6598,3.6581,3.6817,3.6676,3.6622,3.6607,3.6331,3.6041,3.599,3.6244,3.6557,3.6594,3.644,3.6415,3.6433,3.6608,3.6556,3.6833,3.685,3.6455,3.6412,3.6776,3.6861,3.6678,3.631,3.6143,3.6195,3.6368,3.6196,3.621,3.6455,3.6498,3.6422,3.6377,3.6327,3.6398,3.6486,3.6492,3.651,3.6756,3.704,3.6691,3.644,3.6842,3.7006,3.6954,3.6941,3.7098,3.729,3.743,3.7419,3.7513,3.744,3.716,3.6857,3.648,3.643,3.6579,3.6268,3.6027,3.6079,3.6153,3.6335,3.6209,3.6152,3.6266,3.6133,3.5976,3.5961,3.6312,3.6215,3.6396,3.6019,3.5775,3.4972,3.4606,3.4841,3.6169,3.8833,4.256,4.6846,5.0603,5.2226,5.0996,4.7615,4.2657,3.905,3.7781,3.7469,3.7065,3.6994,3.6751,3.6447,3.6276,3.6237,3.6264,3.6339,3.6287,3.5961,3.6043,3.6204,3.6275,3.6321,3.6008,3.5986,3.6153,3.6129,3.5983,3.6305,3.664,3.6428,3.6357,3.6342,3.6361,3.6434,3.6392,3.6444,3.6399,3.6555,3.6802,3.6737,3.6688,3.7002,3.7,3.6851,3.6868,3.6797,3.691,3.7283,3.7349,3.7697,3.7785,3.7657,3.7776,3.8062,3.8441,3.8461,3.8538,3.8667,3.8865,3.8977,3.8993,3.8996,3.907,3.906,3.8947,3.8822,3.8728,3.8435,3.7979,3.7714,3.7767,3.7497,3.7348,3.6932,3.6881,3.6987,3.6634,3.663,3.6678,3.6721,3.6551,3.6536,3.6436,3.6519,3.6524,3.6569,3.6653,3.6649,3.6659,3.6576,3.6637,3.6539,3.6525,3.6595,3.6633,3.6645,3.6564,3.6545,3.6492,3.6561,3.6646,3.657,3.6532,3.6696,3.6546,3.6578,3.6674,3.6522,3.6774,3.6873,3.668,3.6622,3.6571,3.654,3.6717,3.6532,3.6444,3.6704,3.6656,3.6619,3.6754,3.6726,3.666,3.6626,3.6648,3.6563,3.6705,3.6776,3.6663,3.6601,3.6762,3.684,3.6963,3.6983,3.6968,3.7231,3.706,3.7104,3.7509,3.7486,3.755,3.751,3.7631,3.7267,3.7191,3.6837,3.6615,3.6453,3.661,3.6575,3.6478,3.6564,3.6401,3.6272,3.6163,3.6317,3.6348,3.6262,3.6277,3.6434,3.6378,3.636,3.6297,3.6239,3.5342,3.4715,3.4872,3.5763,3.8608,4.2466,4.6411,5.0347,5.2252,5.2109,5.0318,4.5829,4.1251,3.8788,3.7639,3.7076,3.7025,3.6913,3.6669,3.6549,3.6387,3.6504,3.6457,3.6451,3.6384,3.6407,3.6422,3.6442,3.6472,3.6515,3.6489,3.6364,3.6336,3.644,3.6528,3.6225,3.6364,3.6372,3.6513,3.7027,3.685,3.7423,3.741,3.6892,3.665,3.7301,3.7829,3.7436,3.7226,3.7251,3.7196,3.7404,3.7384,3.7371,3.7233,3.731,3.7345,3.7358,3.7835,3.8874,3.8703,3.8453,3.8597,3.8413,3.882,3.8947,3.9046,3.8893,3.9054,3.9243,3.9141,3.9205,3.9016,3.8804,3.8772,3.8663,3.8458,3.8185,3.7976,3.7717,3.7588,3.7494,3.7166,3.7068,3.703,3.709,3.7088,3.7246,3.6985,3.704,3.6891,3.7028,3.7039,3.7053,3.6976,3.6945,3.7112,3.7197,3.7196,3.7232,3.7367,3.7242,3.7511,3.748,3.7485,3.7505,3.7451,3.7653,3.7555,3.7571,3.7475,3.7524,3.7712,3.7692,3.7485,3.7345,3.727,3.7156,3.7234,3.7111,3.722,3.7171,3.708,3.7023,3.7065,3.6998,3.7061,3.7092,3.7071,3.6918,3.6634,3.6744,3.7105,3.7215,3.733,3.7557,3.7954,3.8019,3.8014,3.8044,3.8331,3.8125,3.7468,3.8046,3.8377,3.8165,3.8883,3.8574,3.6834,3.5945,3.5869,3.5949,3.5985,3.6252,3.6434,3.6113,3.6209,3.6092,3.6372,3.6481,3.6479,3.6172,3.603,3.5999,3.6256,3.6243,3.6292,3.5855,3.4908,3.464,3.4823,3.6387,3.9242,4.276,4.7139,5.0698,5.2191,5.105,4.7364,4.2606,3.9385,3.8106,3.7417,3.6991,3.6832,3.6492,3.655,3.6379,3.6458,3.6345,3.6414,3.6398,3.6437,3.6234,3.6296,3.6334,3.6443,3.6385,3.6504,3.6357,3.6244,3.6387,3.6465,3.6711,3.6638,3.6562,3.6403,3.6725,3.663,3.6685,3.6605,3.6516,3.6557,3.6869,3.7028,3.6981,3.686,3.7086,3.717,3.7214,3.7246,3.7393,3.7369,3.7623,3.7899,3.8148,3.8327,3.8375,3.8783,3.9317,3.9295,3.9246,4.0002,4.0816,3.9498,3.8526,3.8426,3.8643,3.9382,3.9522,3.9052,3.8298,3.7681,3.7209,3.7103,3.7377,3.7478,3.7238,3.7555,3.7233,3.6883,3.6446,3.6539,3.6637,3.6553,3.6434,3.6375,3.6513,3.6557,3.6595,3.6445,3.6535,3.6573,3.6672,3.66,3.6696,3.6559,3.659,3.6551,3.6735,3.671,3.6725,3.6527,3.6655,3.6662,3.6762,3.6687,3.6688,3.6647,3.6801,3.664,3.6662,3.6632,3.6692,3.6657,3.6691,3.6713,3.6683,3.6736,3.6552,3.6465,3.657,3.6683,3.6599,3.6553,3.6593,3.658,3.6525,3.6521,3.6616,3.6737,3.6803,3.6888,3.6871,3.709,3.6902,3.7025,3.7123,3.7321,3.7645,3.7693,3.7809,3.7755,3.7721,3.7536,3.7399,3.7236,3.6897,3.7155,3.7134,3.6827,3.6075,3.5964,3.6501,3.6586,3.6343,3.6817,3.7234,3.6544,3.5788,3.6012,3.6281,3.6105,3.5963,3.5902,3.6043,3.5187,3.4722,3.4867,3.5658,3.8309,4.2082,4.5673,4.9547,5.2161,5.1478,4.782,4.3041,3.9679,3.8034,3.7342,3.7168,3.7117,3.6752,3.6504,3.6604,3.6614,3.6487,3.6291,3.6048,3.6138,3.6143,3.624,3.6175,3.607,3.6087,3.624,3.6244,3.6392,3.6483,3.6604,3.6674,3.6351,3.6285,3.646,3.651,3.6617,3.6799,3.6928,3.6644,3.6456,3.6632,3.6629,3.6701,3.6842,3.6738,3.704,3.7417,3.7518,3.7385,3.7516,3.752,3.7593,3.7769,3.7808,3.8128,3.8196,3.8383,3.8499,3.9082,3.9127,3.9003,3.8769,3.8749,3.8756,3.8825,3.8943,3.8863,3.8855,3.8681,3.849,3.8218,3.7996,3.7887,3.7605,3.7099,3.7174,3.6969,3.6989,3.678,3.6642,3.6467,3.6427,3.6533,3.6615,3.657,3.6541,3.6542,3.6614,3.6504,3.6539,3.6468,3.6596,3.6507,3.6489,3.6468,3.6583,3.6406,3.6553,3.6565,3.6675,3.6611,3.647,3.6595,3.6546,3.6573,3.659,3.6576,3.6544,3.6654,3.6776,3.6862,3.6714,3.6588,3.6542,3.6659,3.6502,3.657,3.6477,3.6569,3.6454,3.6585,3.6435,3.6401,3.6546,3.6512,3.6474,3.6432,3.6411,3.6613,3.6614,3.6737,3.6804,3.6906,3.6895,3.696,3.7035,3.7262,3.7347,3.7447,3.7437,3.7667,3.7625,3.7468,3.7335,3.7033,3.6778,3.6433,3.6582,3.6421,3.6275,3.6367,3.6322,3.6259,3.6291,3.6351,3.6311,3.6473,3.6256,3.6172,3.6333,3.6271,3.6235,3.6193,3.5958,3.4994,3.4527,3.4752,3.6792,3.9923,4.3986,4.8239,5.0013,5.2109,5.1607,4.8085,4.3241,3.9826,3.8473,3.7545,3.7083,3.6763,3.6754,3.6609,3.651,3.6348,3.634,3.624,3.6148,3.618,3.6255,3.606,3.6151,3.6234,3.6316,3.6257,3.6529,3.6359,3.6421,3.635,3.6509,3.6476,3.655,3.6462,3.6464,3.6491,3.6628,3.6503,3.6614,3.6804,3.6809,3.6812,3.6911,3.6824,3.6944,3.6969,3.717,3.7324,3.7386,3.7513,3.7445,3.7795,3.7776,3.8003,3.8089,3.817,3.8382,3.858,3.8749,3.8915,3.8907,3.8944,3.8871,3.889,3.8956,3.8978,3.8999,3.8866,3.8741,3.8543,3.836,3.8152,3.7718,3.7354,3.7214,3.7136,3.6985,3.6761,3.6765,3.6816,3.6794,3.6842,3.6657,3.6693,3.6692,3.6831,3.6727,3.6628,3.6603,3.6637,3.658,3.6626,3.6615,3.6537,3.6603,3.6602,3.6655,3.6598,3.6577,3.674,3.6759,3.6651,3.656,3.6695,3.6626,3.6785,3.672,3.6881,3.6794,3.6768,3.665,3.6698,3.7026,3.7266,3.7214,3.7115,3.727,3.7311,3.7485,3.7784,3.7628,3.7576,3.752,3.7622,3.7533,3.7528,3.7463,3.7221,3.6837,3.6374,3.6285,3.6114,3.6372,3.6557,3.6346,3.6261,3.6199,3.617,3.6293,3.6265,3.6204,3.6369,3.629,3.6207,3.6081,3.58,3.5087,3.4817,3.5121,3.7098,4.0247,4.4263,4.8404,5.1259,5.1664,4.9439,4.4905,4.0938,3.88,3.7737,3.7229,3.6916,3.6741,3.6529,3.6557,3.6375,3.6389,3.6142,3.6113,3.6009,3.63,3.6324,3.6372,3.6137,3.6263,3.6205,3.6281,3.6199,3.631,3.6348,3.6405,3.644,3.6582,3.6469,3.6609,3.6305,3.6532,3.6562,3.6741,3.675,3.6843,3.6762,3.6759,3.6862,3.7002,3.7011,3.7196,3.7217,3.7407,3.7436,3.753,3.7738,3.7841,3.8023,3.8068,3.8256,3.854,3.8531,3.8496,3.8612,3.8817,3.9002,3.8861,3.8917,3.8866,3.8892,3.8806,3.8682,3.8461,3.8354,3.8158,3.7924,3.763,3.7644,3.7382,3.7042,3.7028,3.6954,3.6849,3.6731,3.6547,3.6673,3.6766,3.6529,3.6684,3.6644,3.6531,3.6619,3.6603,3.6785,3.6611,3.6522,3.6487,3.6618,3.6572,3.6707,3.6725,3.6806,3.6768,3.6724,3.6675,3.6661,3.6773,3.686,3.6846,3.7027,3.7051,3.7209,3.719,3.7142,3.7247,3.7325,3.7389,3.7533,3.7519,3.7746,3.7832,3.7889,3.7841,3.7588,3.7229,3.7062,3.7,3.6861,3.6573,3.6285,3.6271,3.6388,3.646,3.6428,3.6354,3.6315,3.6302,3.6288,3.6291,3.647,3.6428,3.6426,3.6347,3.6178,3.5306,3.4866,3.5099,3.628,3.9189,4.309,4.7257,5.0592,5.2067,5.0689,4.6708,4.208,3.9409,3.8666,3.7905,3.7125,3.6996,3.6797,3.651,3.6511,3.6486,3.6281,3.6281,3.6247,3.6324,3.6211,3.6276,3.634,3.6435,3.638,3.6352,3.6306,3.6406,3.6416,3.6416,3.6448,3.6479,3.6478,3.6615,3.6474,3.6443,3.6694,3.6638,3.671,3.6852,3.6909,3.6837,3.6959,3.7031,3.7095,3.737,3.7324,3.7278,3.7454,3.7562,3.7694,3.7814,3.7976,3.817,3.8322,3.8402,3.8438,3.8746,3.8832,3.8726,3.8838,3.8978,3.9121,3.9119,3.9031,3.878,3.8765,3.8495,3.8347,3.8264,3.818,3.7952,3.7702,3.7422,3.7256,3.7096,3.699,3.7022,3.6816,3.6979,3.7013,3.678,3.6825,3.6846,3.6796,3.6798,3.6792,3.6734,3.6578,3.657,3.6789,3.699,3.6842,3.695,3.7,3.6906,3.6922,3.6824,3.7061,3.7265,3.7204,3.7335,3.7422,3.7286,3.7401,3.7701,3.7838,3.7878,3.7974,3.7955,3.785,3.7944,3.7861,3.7587,3.7538,3.7525,3.7265,3.6982,3.6911,3.6793,3.674,3.681,3.6706,3.6533,3.6569,3.6501,3.6587,3.668,3.6468,3.6509,3.6504,3.6437,3.6508,3.6615,3.5973,3.5029,3.4854,3.5777,3.8452,4.2029,4.6252,5.0115,5.2249,5.1739,4.834,4.3364,4.0129,3.8774,3.7893,3.751,3.7104,3.7039,3.6678,3.6772,3.6617,3.6569,3.6476,3.6539,3.6462,3.6508,3.6546,3.6564,3.6621,3.6639,3.6605,3.653,3.6516,3.666,3.6721,3.6789,3.6725,3.6591,3.6776,3.688,3.6856,3.696,3.6913,3.6895,3.6841,3.6965,3.7038,3.7111,3.7139,3.7265,3.7289,3.7481,3.7561,3.7734,3.7793,3.7864,3.8066,3.8206,3.8284,3.8406,3.8591,3.8778,3.8853,3.8784,3.8757,3.8824,3.9115,3.9261,3.9049,3.9043,3.8847,3.8545,3.8558,3.85,3.8497,3.8089,3.798,3.7668,3.7643,3.7619,3.7471,3.7129,3.6843,3.6972,3.7248,3.7073,3.6973,3.681,3.6846,3.6896,3.6986,3.7073,3.7038,3.6891,3.6899,3.6905,3.6868,3.6951,3.7157,3.7128,3.7075,3.6856,3.7042,3.7243,3.7645,3.759,3.7584,3.7497,3.7426,3.7576,3.7719,3.7925,3.7963,3.809,3.807,3.8008,3.7882,3.7821,3.7682,3.7481,3.7276,3.6972,3.6965,3.6826,3.6657,3.6712,3.6677,3.6753,3.6737,3.6631,3.6502,3.6575,3.6701,3.6726,3.6694,3.6618,3.6512,3.6422,3.5765,3.4951,3.4974,3.5988,3.8858,4.2621,4.6816,5.0573,5.2546,5.1808,4.8202,4.3366,3.9958,3.849,3.782,3.7394,3.6975,3.6861,3.684,3.681,3.6639,3.6585,3.6409,3.6414,3.6316,3.6344,3.6507,3.6607,3.6659,3.6599,3.6451,3.6462,3.6458,3.6403,3.6589,3.6699,3.6683,3.674,3.6765,3.6766,3.6693,3.6756,3.6827,3.6852,3.6708,3.6852,3.6972,3.7121,3.7049,3.7273,3.7379,3.7407,3.742,3.7496,3.7725,3.7723,3.7951,3.8091,3.8105,3.8235,3.8295,3.8387,3.8552,3.8684,3.8865,3.9046,3.8873,3.8729,3.8724,3.8743,3.8575,3.8418,3.8316,3.8075,3.7976,3.7864,3.7715,3.7499,3.7462,3.7275,3.7145,3.7061,3.7154,3.704,3.7005,3.6894,3.6885,3.6947,3.6905,3.6824,3.6807,3.7018,3.6965,3.6927,3.6976,3.689,3.699,3.6954,3.6881,3.6943,3.7052,3.6955,3.6944,3.7099,3.7099,3.7304,3.7327,3.7344,3.7451,3.7495,3.7505,3.754,3.776,3.7883,3.7992,3.7975,3.7783,3.7737,3.7576,3.7678,3.7637,3.7359,3.7115,3.6823,3.6733,3.6779,3.6804,3.6621,3.6433,3.6275,3.6244,3.6432,3.6581,3.6507,3.6558,3.6393,3.6311,3.6421,3.6345,3.6152,3.5361,3.5209,3.5383,3.703,3.986,4.3875,4.8203,5.1505,5.2436,5.0979,4.6662,4.2155,3.9508,3.8495,3.769,3.725,3.6929,3.67,3.6713,3.6615,3.6771,3.6702,3.669,3.6465,3.6349,3.6267,3.6599,3.6671,3.6764,3.6462,3.6435,3.6527,3.6607,3.6443,3.6434,3.6392,3.6366,3.6559,3.6828,3.6562,3.6674,3.689,3.7113,3.7091,3.7137,3.7059,3.7083,3.7104,3.7177,3.7213,3.7156,3.7394,3.755,3.7415,3.7607,3.7839,3.7986,3.8185,3.8151,3.8119,3.8308,3.8325,3.8578,3.8696,3.8753,3.8773,3.8705,3.8791,3.8825,3.8862,3.8659,3.8385,3.7971,3.7912,3.7862,3.7716
