2.4597,2.4564,2.442,2.4693,2.4642,2.4631,2.4414,2.4602,2.449,2.4618,2.4865,2.4994,2.4848,2.4854,2.4916,2.4915,2.4979,2.5202,2.5286,2.5472,2.5393,2.5519,2.5586,2.546,2.5338,2.5191,2.4829,2.4765,2.4467,2.4227,2.454,2.4261,2.4367,2.4301,2.4189,2.4078,2.4143,2.4323,2.433,2.4192,2.4151,2.424,2.4453,2.4256,2.4205,2.3565,2.275,2.2588,2.3336,2.5885,2.9448,3.3599,3.7662,3.9533,4.0552,3.9353,3.4963,3.0103,2.7116,2.6036,2.5212,2.4982,2.4801,2.456,2.4403,2.4272,2.4272,2.4142,2.4115,2.4164,2.4142,2.4168,2.4315,2.424,2.4162,2.4291,2.4211,2.4228,2.4251,2.43,2.4496,2.4428,2.4383,2.4398,2.4414,2.4472,2.4476,2.4468,2.4474,2.4519,2.468,2.4898,2.4982,2.486,2.5056,2.5,2.494,2.5236,2.5471,2.5481,2.5603,2.5752,2.569,2.6003,2.616,2.6523,2.664,2.662,2.6829,2.7012,2.7031,2.7213,2.7334,2.7408,2.7435,2.7486,2.7378,2.7327,2.7002,2.6649,2.6476,2.6188,2.5977,2.5497,2.5253,2.5198,2.4913,2.4807,2.4667,2.4705,2.4638,2.4555,2.4493,2.4367,2.4482,2.4473,2.4546,2.4528,2.4521,2.4892,2.4686,2.475,2.4756,2.4702,2.4818,2.4664,2.4607,2.458,2.4828,2.458,2.4727,2.4841,2.4559,2.4571,2.4556,2.4661,2.4791,2.4748,2.4699,2.4571,2.4627,2.4567,2.4702,2.4543,2.4557,2.4482,2.4503,2.4491,2.461,2.4514,2.4472,2.438,2.4377,2.424,2.4268,2.4405,2.4443,2.442,2.4331,2.4132,2.4303,2.4397,2.4206,2.4129,2.4186,2.4445,2.4299,2.4102,2.3878,2.4359,2.4442,2.4421,2.43,2.4231,2.4104,2.4278,2.4301,2.4257,2.4098,2.4343,2.4457,2.4211,2.4513,2.4439,2.4503,2.4684,2.467,2.4441,2.4703,2.4761,2.5067,2.5261,2.5303,2.5199,2.496,2.5119,2.4917,2.4621,2.4213,2.434,2.4394,2.4126,2.398,2.3837,2.3841,2.3783,2.3887,2.3725,2.363,2.3644,2.4089,2.3944,2.3751,2.3798,2.3796,2.3931,2.3676,2.2748,2.2268,2.2482,2.339,2.6178,3.0097,3.4419,3.7734,3.9415,3.8323,3.4423,2.9552,2.6795,2.5647,2.4896,2.4232,2.4284,2.4325,2.4442,2.4138,2.3914,2.3791,2.3708,2.3697,2.3727,2.3624,2.3485,2.3621,2.3924,2.3758,2.3773,2.4043,2.3935,2.3996,2.3896,2.3973,2.445,2.4758,2.5173,2.5473,2.5431,2.5662,2.5153,2.4431,2.38,2.3624,2.4013,2.4966,2.5164,2.5347,2.4998,2.4168,2.4017,2.4091,2.4507,2.4789,2.5141,2.5438,2.5475,2.561,2.5925,2.5926,2.6209,2.6454,2.6457,2.6523,2.6848,2.6906,2.6705,2.6719,2.6908,2.6933,2.6492,2.6127,2.5984,2.6424,2.6238,2.5641,2.5831,2.5432,2.4845,2.4779,2.4416,2.365,2.336,2.3706,2.3624,2.375,2.3867,2.3883,2.3679,2.3403,2.361,2.3649,2.3816,2.3837,2.3889,2.4229,2.4029,2.3526,2.3783,2.3835,2.3686,2.4056,2.4051,2.3942,2.3697,2.3669,2.3898,2.4178,2.4058,2.416,2.3904,2.3993,2.425,2.3921,2.3617,2.335,2.3204,2.3402,2.3523,2.3857,2.3984,2.4127,2.3705,2.3639,2.3842,2.4044,2.3772,2.3427,2.3447,2.3795,2.3924,2.3697,2.3848,2.392,2.4243,2.4227,2.4285,2.423,2.4249,2.4204,2.4533,2.498,2.5333,2.4951,2.5005,2.4503,2.4134,2.4023,2.3896,2.3914,2.3579,2.3492,2.3777,2.3791,2.3391,2.3504,2.3382,2.3583,2.3728,2.3475,2.3404,2.3398,2.3393,2.3288,2.3439,2.3652,2.3719,2.3017,2.195,2.1823,2.2953,2.5234,2.8754,3.2667,3.6112,3.8847,3.8555,3.7455,3.3332,2.8588,2.6195,2.484,2.4328,2.416,2.4446,2.4162,2.3728,2.3542,2.3258,2.3743,2.3605,2.3351,2.375,2.3777,2.3509,2.3302,2.3416,2.3389,2.3652,2.3599,2.3903,2.4214,2.425,2.3433,2.3489,2.3535,2.3949,2.3824,2.3895,2.3976,2.3868,2.3975,2.4067,2.4349,2.4228,2.4219,2.4291,2.4307,2.4472,2.4753,2.4719,2.5047,2.5453,2.549,2.5324,2.5172,2.5632,2.5745,2.5802,2.6308,2.6711,2.6622,2.6564,2.6633,2.6734,2.6651,2.6955,2.713,2.7001,2.6465,2.6106,2.5791,2.5771,2.5528,2.5227,2.5262,2.4899,2.4764,2.4674,2.4547,2.4057,2.402,2.4014,2.3942,2.4125,2.4026,2.3986,2.3713,2.3701,2.3789,2.3973,2.4322,2.3982,2.3698,2.3723,2.3721,2.383,2.4013,2.4019,2.3971,2.3725,2.3841,2.3821,2.3947,2.3956,2.38,2.3841,2.4072,2.4092,2.3876,2.3874,2.4198,2.4004,2.4155,2.387,2.3993,2.3921,2.407,2.4084,2.4055,2.4104,2.4112,2.3724,2.3631,2.37,2.3927,2.3981,2.4108,2.4167,2.3984,2.3817,2.387,2.3892,2.3901,2.3995,2.3856,2.4175,2.4232,2.4287,2.4242,2.4264,2.4438,2.4478,2.4358,2.4732,2.4915,2.5277,2.5015,2.494,2.4836,2.4967,2.4974,2.465,2.4361,2.4397,2.4185,2.3962,2.4019,2.3763,2.3788,2.3549,2.368,2.3754,2.3925,2.3968,2.3787,2.3472,2.3579,2.3691,2.3736,2.396,2.3797,2.3346,2.2459,2.2031,2.2678,2.4681,2.7503,3.1552,3.55,3.8584,3.9405,3.7627,3.3255,2.9059,2.6549,2.5266,2.4823,2.4632,2.4577,2.409,2.3862,2.3451,2.3502,2.3565,2.3771,2.3724,2.376,2.3794,2.3885,2.3734,2.3627,2.3527,2.383,2.3928,2.3925,2.4102,2.4421,2.4025,2.3695,2.375,2.3838,2.3984,2.3829,2.3905,2.4038,2.4125,2.4163,2.4215,2.4317,2.4434,2.4363,2.4792,2.4726,2.4439,2.4586,2.4853,2.5166,2.5613,2.5616,2.5371,2.5423,2.5778,2.6015,2.6295,2.6353,2.6507,2.6495,2.6954,2.716,2.7051,2.6931,2.6839,2.6856,2.6529,2.6405,2.6281,2.5893,2.5541,2.5349,2.5099,2.5079,2.4886,2.4574,2.4371,2.4279,2.4097,2.433,2.4598,2.4339,2.3878,2.377,2.3847,2.4008,2.4021,2.4017,2.4171,2.4041,2.4091,2.3995,2.402,2.3883,2.3911,2.4025,2.4071,2.4137,2.4122,2.3848,2.3767,2.386,2.4,2.403,2.4276,2.4265,2.4113,2.401,2.4015,2.4135,2.4137,2.4058,2.4009,2.4097,2.4259,2.4064,2.3986,2.3854,2.3886,2.4108,2.4214,2.4156,2.4128,2.3883,2.3756,2.3914,2.3998,2.3907,2.3982,2.4235,2.4416,2.4162,2.3921,2.382,2.384,2.3914,2.3967,2.3983,2.3961,2.4038,2.4173,2.418,2.3842,2.4063,2.4072,2.4097,2.4086,2.4245,2.4236,2.4188,2.4314,2.4504,2.4618,2.4681,2.4667,2.4884,2.4991,2.4903,2.4983,2.5098,2.5112,2.4958,2.4521,2.4306,2.3767,2.3816,2.4046,2.3895,2.3986,2.3905,2.3655,2.3562,2.3581,2.3612,2.3764,2.383,2.3843,2.3947,2.3875,2.384,2.3627,2.2997,2.2213,2.2259,2.3056,2.5531,2.9006,3.2676,3.71,4.0086,3.9649,3.7052,3.4683,2.982,2.6641,2.5595,2.4969,2.4718,2.4359,2.4082,2.3918,2.4169,2.3887,2.3817,2.3814,2.3863,2.3861,2.4103,2.3849,2.3567,2.3472,2.3833,2.4055,2.3952,2.4015,2.3849,2.3694,2.4015,2.4202,2.4537,2.4151,2.401,2.4149,2.422,2.4097,2.4203,2.4323,2.4481,2.4497,2.4593,2.4682,2.4893,2.4957,2.4915,2.4873,2.5115,2.5291,2.5474,2.5422,2.5732,2.5898,2.5875,2.6156,2.6363,2.662,2.673,2.6881,2.6808,2.6894,2.7037,2.7037,2.7036,2.7196,2.7189,2.6796,2.6564,2.6498,2.6045,2.5499,2.5254,2.5111,2.4913,2.4793,2.4694,2.4573,2.4335,2.4277,2.4091,2.406,2.4044,2.4238,2.4227,2.4344,2.4423,2.4424,2.4024,2.3962,2.4128,2.4378,2.4279,2.423,2.4307,2.4298,2.4025,2.3964,2.3942,2.4072,2.4052,2.4355,2.4544,2.4229,2.4108,2.417,2.422,2.4177,2.4317,2.4347,2.4254,2.402,2.4045,2.4012,2.4094,2.4015,2.4033,2.4142,2.4146,2.4327,2.4125,2.4146,2.4155,2.4041,2.4058,2.3928,2.3949,2.4177,2.417,2.4023,2.4001,2.4043,2.3824,2.4088,2.3952,2.4066,2.4176,2.4393,2.417,2.3916,2.3882,2.3928,2.3996,2.3995,2.399,2.4069,2.4104,2.4108,2.4224,2.397,2.3794,2.3924,2.4048,2.3893,2.4226,2.417,2.3955,2.3916,2.4039,2.4043,2.413,2.4123,2.4113,2.3877,2.383,2.3812,2.4055,2.4275,2.4375,2.4352,2.4456,2.4474,2.4311,2.4436,2.4686,2.4809,2.4951,2.5076,2.4941,2.5006,2.4963,2.4695,2.4445,2.4337,2.413,2.4101,2.375,2.3624,2.3618,2.3956,2.3796,2.3592,2.3807,2.3738,2.3722,2.367,2.3659,2.361,2.3668,2.3703,2.3636,2.3265,2.2445,2.2184,2.2542,2.4603,2.7857,2.9692,3.3906,3.7882,3.9867,3.909,3.5539,3.0532,2.7154,2.5852,2.4888,2.4433,2.4124,2.3982,2.3994,2.3822,2.3635,2.3759,2.3783,2.3551,2.3551,2.3591,2.3613,2.3678,2.3681,2.3771,2.3669,2.3583,2.3544,2.3663,2.3936,2.3913,2.3851,2.3965,2.3839,2.3922,2.3935,2.3896,2.3939,2.4224,2.4263,2.4273,2.4181,2.4297,2.4303,2.4374,2.459,2.4683,2.4525,2.4779,2.4937,2.5279,2.5334,2.5359,2.5483,2.5641,2.5853,2.6422,2.6399,2.6403,2.6446,2.6438,2.6604,2.6846,2.6959,2.7118,2.7243,2.7113,2.6915,2.6608,2.639,2.6182,2.5894,2.5552,2.5376,2.5104,2.507,2.4818,2.461,2.4108,2.4098,2.4109,2.4053,2.3998,2.403,2.4208,2.4156,2.4021,2.4087,2.3976,2.4013,2.4286,2.3953,2.4035,2.4033,2.4013,2.3944,2.3967,2.4137,2.4104,2.4023,2.3882,2.4014,2.3969,2.3944,2.3982,2.4012,2.3944,2.4217,2.4353,2.4149,2.3912,2.3928,2.4045,2.4016,2.3898,2.3933,2.3674,2.3763,2.3893,2.392,2.3858,2.3847,2.3962,2.3949,2.4051,2.4153,2.4031,2.4025,2.3759,2.3706,2.3717,2.3707,2.3869,2.3907,2.3907,2.3793,2.3923,2.3995,2.3938,2.3864,2.3736,2.3653,2.3748,2.3826,2.3894,2.3897,2.3903,2.4119,2.3975,2.3916,2.3755,2.3792,2.374,2.3742,2.3892,2.3869,2.38,2.378,2.3857,2.3769,2.3862,2.3789,2.3738,2.3752,2.3836,2.3738,2.3987,2.4159,2.4282,2.4292,2.4055,2.4095,2.4287,2.449,2.4669,2.4875,2.4879,2.4863,2.4628,2.4671,2.4805,2.4371,2.4261,2.4228,2.3965,2.3728,2.3711,2.3694,2.3794,2.3749,2.3705,2.3604,2.3666,2.3574,2.3465,2.3436,2.3644,2.3615,2.3569,2.3682,2.3436,2.2745,2.2208,2.1901,2.246,2.4841,2.8295,3.239,3.6347,3.929,3.9462,3.7212,3.2315,2.8051,2.6029,2.5094,2.4764,2.4444,2.4092,2.3697,2.3761,2.3684,2.3731,2.3624,2.3779,2.355,2.3471,2.3625,2.3667,2.3675,2.3593,2.3562,2.3575,2.3808,2.395,2.3756,2.3811,2.3982,2.388,2.3744,2.3789,2.3863,2.3956,2.3854,2.3874,2.4066,2.4185,2.4213,2.4228,2.4426,2.4683,2.4593,2.4593,2.4591,2.4895,2.4872,2.4941,2.5166,2.5367,2.5539,2.5633,2.5748,2.5836,2.6291,2.6456,2.6402,2.6663,2.6838,2.6858,2.6922,2.692,2.7021,2.7122,2.6831,2.701,2.6697,2.6213,2.584,2.5507,2.5417,2.5059,2.4852,2.4686,2.4595,2.4311,2.4281,2.447,2.4337,2.4041,2.4056,2.3965,2.3884,2.3891,2.4026,2.3878,2.3962,2.3823,2.3832,2.3947,2.3899,2.3953,2.386,2.402,2.4013,2.3911,2.3894,2.3951,2.42,2.3888,2.3996,2.4009,2.3767,2.3845,2.3945,2.4017,2.396,2.394,2.4073,2.39,2.3857,2.3915,2.3997,2.3925,2.3957,2.4053,2.4006,2.3854,2.387,2.3904,2.3894,2.3768,2.3691,2.3731,2.3813,2.4005,2.3955,2.3896,2.3811,2.3807,2.3781,2.3858,2.3825,2.3877,2.3853,2.3763,2.3767,2.3772,2.3827,2.3912,2.387,2.375,2.381,2.3801,2.3849,2.3874,2.3676,2.3712,2.3754,2.3936,2.3923,2.3888,2.3963,2.3763,2.3741,2.3625,2.3715,2.3644,2.371,2.3904,2.3807,2.3737,2.4035,2.433,2.4377,2.4331,2.4375,2.4357,2.45,2.4415,2.4637,2.4656,2.4867,2.4753,2.4688,2.4588,2.4465,2.4216,2.3916,2.3891,2.3896,2.3882,2.3789,2.3733,2.3527,2.3592,2.3554,2.3781,2.3879,2.4055,2.3863,2.3878,2.399,2.3789,2.3627,2.3471,2.2821,2.2161,2.2503,2.3606,2.6305,3.0173,3.4219,3.7684,3.9504,3.8924,3.5424,3.0452,2.7065,2.577,2.4946,2.4381,2.4298,2.4208,2.4078,2.403,2.3898,2.3698,2.3703,2.3609,2.3705,2.3774,2.3545,2.3605,2.3613,2.3758,2.3785,2.3821,2.3807,2.3856,2.3862,2.3975,2.3922,2.3957,2.3857,2.398,2.3913,2.3989,2.4079,2.3936,2.3948,2.3999,2.4048,2.4169,2.432,2.4418,2.4722,2.4502,2.4326,2.4593,2.5074,2.524,2.5023,2.5044,2.5326,2.5459,2.5689,2.5947,2.6087,2.6308,2.6445,2.637,2.6286,2.6667,2.6758,2.7119,2.7109,2.6825,2.6612,2.6422,2.6271,2.6168,2.5771,2.5333,2.5073,2.4982,2.4586,2.4442,2.4403,2.4219,2.4039,2.3864,2.3832,2.3734,2.3878,2.391,2.3673,2.3724,2.371,2.3628,2.3606,2.359,2.3494,2.3845,2.3744,2.3612,2.3705,2.3809,2.3696,2.3605,2.3758,2.3629,2.3545,2.3703,2.3673,2.3677,2.3745,2.3784,2.3623,2.3649,2.3624,2.3669,2.3628,2.3566,2.3712,2.3686,2.3698,2.3901,2.3744,2.3706,2.3624,2.3517,2.3438,2.3515,2.3558,2.3494,2.3758,2.3645,2.3549,2.344,2.3462,2.3446,2.359,2.3468,2.356,2.351,2.3589,2.3674,2.368,2.3607,2.3449,2.3525,2.3844,2.3824,2.4022,2.377,2.3753,2.3986,2.4284,2.4284,2.4526,2.4622,2.4576,2.4419,2.4382,2.4361,2.4476,2.4076,2.3768,2.3295,2.3244,2.339,2.3327,2.3314,2.3458,2.3273,2.332,2.3142,2.3081,2.3133,2.3214,2.3316,2.314,2.3171,2.3224,2.2994,2.2562,2.1793,2.1711,2.2839,2.5298,2.9038,3.306,3.6227,3.7944,3.7879,3.4307,2.9482,2.625,2.5189,2.4432,2.4084,2.3944,2.3726,2.3639,2.331,2.3267,2.3105,2.325,2.3307,2.3105,2.3138,2.33,2.3356,2.357,2.3408,2.3292,2.355,2.3326,2.3329,2.3396,2.3546,2.3613,2.3739,2.3675,2.3568,2.3646,2.3684,2.3805,2.368,2.3654,2.3902,2.3852,2.4062,2.4058,2.4134,2.4195,2.4323,2.4328,2.4594,2.469,2.4863,2.4944,2.524,2.5383,2.5393,2.5534,2.5892,2.6137,2.6168,2.6239,2.6441,2.6543,2.6604,2.6781,2.6924,2.6708,2.6553,2.6422,2.6351,2.6201,2.5737,2.5497,2.527,2.4979,2.4631,2.436,2.4249,2.4,2.4002,2.3987,2.4035,2.3886,2.3684,2.3618,2.3658,2.3774,2.3701,2.3688,2.3528,2.3557,2.3681,2.3811,2.3704,2.3537,2.3465,2.3376,2.3486,2.3593,2.3818,2.368,2.3593,2.3673,2.3799,2.3786,2.37,2.3756,2.3614,2.3614,2.3755,2.3577,2.3557,2.3661,2.3882,2.3991,2.3823,2.3748,2.3656,2.3725,2.3808,2.3788,2.387,2.4146,2.4121,2.424,2.4175,2.4265,2.4265,2.4537,2.463,2.4637,2.4883,2.4852,2.4743,2.4441,2.4115,2.3939,2.3988,2.3912,2.3483,2.339,2.3276,2.342,2.3439,2.3432,2.3463,2.3335,2.3267,2.3395,2.3196,2.3157,2.3283,2.3376,2.3208,2.295,2.2046,2.1681,2.2275,2.3297,2.6268,3.0109,3.4328,3.793,3.9275,3.7945,3.391,2.919,2.6276,2.5046,2.43,2.4012,2.3891,2.3814,2.383,2.3702,2.354,2.3446,2.3203,2.3184,2.324,2.3413,2.3407,2.3334,2.3513,2.3484,2.351,2.3557,2.3459,2.364,2.359,2.3352,2.3565,2.3776,2.3943,2.3675,2.3781,2.372,2.3705,2.3675,2.3788,2.3899,2.3931,2.412,2.4179,2.4221,2.4258,2.4314,2.4531,2.4566,2.472,2.494,2.5237,2.5277,2.5432,2.5633,2.5732,2.5918,2.6193,2.6237,2.6414,2.6395,2.6468,2.653,2.6722,2.6646,2.6609,2.6492,2.6164,2.588,2.5692,2.5488,2.5234,2.4918,2.4561,2.4341,2.4272,2.4228,2.4083,2.3995,2.3764,2.3759,2.3949,2.3869,2.3758,2.3967,2.3712,2.3666,2.3717,2.3743,2.3886,2.3777,2.3694,2.3759,2.3705,2.3825,2.3759,2.386,2.3805,2.3787,2.3701,2.3824,2.37,2.3768,2.3943,2.3779,2.3798,2.3966,2.3894,2.3832,2.3772,2.3804,2.3859,2.3886,2.3871,2.3888,2.3789,2.3909,2.3853,2.3781,2.3775,2.396,2.3956,2.3973,2.4174,2.4262,2.4288,2.4228,2.4519,2.4627,2.4565,2.4723,2.476,2.4807,2.5034,2.5087,2.4748,2.4326,2.4182,2.3753,2.3631,2.3854,2.3769,2.3688,2.3605,2.3613,2.3639,2.3382,2.3444,2.3532,2.3602,2.3695,2.3536,2.358,2.362,2.3632,2.3538,2.2557,2.1955,2.212,2.2456,2.4851,2.8363,3.2338,3.6703,3.9596,3.9405,3.7138,3.2018,2.7779,2.5903,2.5138,2.4502,2.4207,2.4196,2.385,2.3838,2.3741,2.3784,2.3627,2.361,2.3534,2.3629,2.3496,2.369,2.3631,2.3755,2.3557,2.3661,2.3585,2.3886,2.392,2.373,2.3785,2.3908,2.4068,2.4195,2.3995,2.3772,2.3854,2.4155,2.4311,2.4208,2.4245,2.4213,2.4301,2.4442,2.4721,2.468,2.4682,2.4863,2.5138,2.5155,2.5469,2.5617,2.5627,2.5909,2.596,2.5968,2.632,2.6471,2.654,2.6866,2.6757,2.692,2.6885,2.7016,2.6886,2.6894,2.6699,2.6705,2.6463,2.5909,2.5591,2.53,2.5001,2.4951,2.4786,2.4637,2.4522,2.4393,2.4428,2.429,2.4197,2.423,2.4592,2.4406,2.4109,2.4105,2.4183,2.4346,2.4177,2.4257,2.4305,2.4315,2.4135,2.4225,2.4196,2.4187,2.4307,2.4407,2.4507,2.4455,2.438,2.4305,2.4199,2.4304,2.4388,2.425,2.4239,2.419,2.4407,2.4498,2.4442,2.4299,2.44,2.4493,2.4286,2.4192,2.4043,2.4364,2.4365,2.4278,2.4403,2.4301,2.419,2.4238,2.4356,2.4325,2.4369,2.4291,2.4423,2.4581,2.4734,2.4546,2.4756,2.4771,2.5071,2.5084,2.5106,2.5422,2.5458,2.5355,2.5208,2.524,2.5404,2.521,2.492,2.4579,2.4478,2.4278,2.4076,2.3973,2.4153,2.4162,2.4308,2.4236,2.4209,2.4153,2.4239,2.3989,2.3964,2.3915,2.4,2.4198,2.3974,2.382,2.2846,2.2574,2.2798,2.4851,2.8086,3.2044,3.6482,3.9664,4.0163,3.8195,3.3604,2.9152,2.6724,2.575,2.5203,2.4881,2.4647,2.4488,2.4428,2.4181,2.4205,2.4173,2.4319,2.4142,2.418,2.4073,2.4321,2.4295,2.433,2.4265,2.4304,2.4162,2.4249,2.4259,2.4347,2.4399,2.4434,2.4318,2.4172,2.4508,2.4562,2.465,2.4715,2.4632,2.4575,2.4536,2.4736,2.47,2.4946,2.4884,2.5082,2.5146,2.5436,2.5527,2.5686,2.5695,2.5634,2.6054,2.6117,2.639,2.6661,2.6807,2.6874,2.712,2.7021,2.7292,2.7389,2.7346,2.7333,2.7322,2.7264,2.7158,2.7239,2.6932,2.6455,2.6306,2.5948,2.595,2.5672,2.5253,2.529,2.4983,2.4883,2.4929,2.4795,2.4911,2.4776,2.4678,2.4482,2.4584,2.4661,2.4547,2.4501,2.4498,2.4587,2.4697,2.4615,2.4542,2.4607,2.4557,2.4365,2.4631,2.4605,2.4649,2.4624,2.4584,2.4575,2.4546,2.4629,2.4665,2.461,2.4646,2.4587,2.4635,2.4682,2.4443,2.4573,2.4768,2.4673,2.4563,2.4407,2.4536,2.4565,2.4583,2.4543,2.4771,2.4546,2.4534,2.4682,2.4673,2.4708,2.4786,2.4862,2.4794,2.4874,2.5283,2.5327,2.5484,2.5616,2.5756,2.5461,2.5615,2.5598,2.5118,2.4953,2.4761,2.4577,2.4534,2.4327,2.4295,2.4258,2.4125,2.4299,2.4119,2.4283,2.4136,2.4084,2.4283,2.4289,2.4126,2.4047,2.4198,2.4167,2.3946,2.3018,2.2591,2.2879,2.4477,2.7255,3.1285,3.5184,3.8133,3.9514,3.7888,3.3532,2.8909,2.7549,2.6157,2.5849,2.5116,2.4929,2.4745,2.4433,2.4261,2.4117,2.4115,2.4183,2.4108,2.4479,2.4213,2.3817,2.3922,2.4179,2.4175,2.4206,2.4162,2.4083,2.4382,2.4247,2.4353,2.4374,2.4379,2.4546,2.4501,2.4428,2.4509,2.4712,2.4905,2.4721,2.4757,2.4734,2.488,2.4951,2.5066,2.5095,2.5201,2.5344,2.551,2.5452,2.564,2.5872,2.6051,2.6281,2.6413,2.6494,2.6688,2.6673,2.6825,2.7115,2.7276,2.7452,2.7538,2.727,2.7135,2.6921,2.7004,2.6877,2.6689,2.6475,2.6086,2.5811,2.5586,2.5443,2.5156,2.5007,2.4941,2.4757,2.4705,2.4645,2.4801,2.4724,2.4497,2.4401,2.4417,2.4336,2.4122,2.4237,2.4452,2.4528,2.439,2.4453,2.4456,2.4481,2.4527,2.4439,2.4505,2.4439,2.4465,2.4979,2.4932,2.4659,2.4573,2.4401,2.4401,2.4519,2.464,2.4746,2.4625,2.4664,2.4526,2.4437,2.4567,2.463,2.4674,2.4836,2.4873,2.486,2.517,2.5249,2.5001,2.5141,2.5289,2.5351,2.5367,2.5451,2.5555,2.5453,2.5427,2.5582,2.5431,2.5064,2.4747,2.45,2.4595,2.4466,2.4459,2.4525,2.4428,2.4273,2.4392,2.4272,2.4139,2.414,2.4219,2.4197,2.4133,2.4087,2.4277,2.4403,2.402,2.3158,2.2564,2.2833,2.4439,2.7406,3.1265,3.5348,3.8735,4.0279,3.8913,3.4544,2.9851,2.7206,2.5977,2.5266,2.4984,2.4806,2.4515,2.4447,2.4271,2.4298,2.4227,2.4229,2.4193,2.4408,2.4423,2.431,2.4139,2.4166,2.4259,2.4178,2.4333,2.4501,2.4516,2.4416,2.4358,2.4404,2.4322,2.4405,2.4441,2.473,2.4817,2.472,2.4818,2.4818,2.4726,2.4823,2.4916,2.4868,2.515,2.5297,2.5368,2.5328,2.5395,2.5608,2.5726,2.5991,2.6114,2.6195,2.6282,2.6588,2.6651,2.7057,2.7103,2.7305,2.7225,2.7153,2.7375,2.7327,2.7213,2.7222,2.6966,2.6857,2.6525,2.6116,2.6005,2.5907,2.5677,2.5404,2.5329,2.5079,2.508,2.49,2.4908,2.4708,2.4605,2.4608,2.4559,2.4581,2.467,2.4637,2.4654,2.4646,2.4548,2.4676,2.4672,2.4658,2.4682,2.4686,2.4598,2.465,2.4732,2.4668,2.4579,2.4532,2.477,2.4659,2.4796,2.4768,2.4562,2.4557,2.4747,2.4795,2.4736,2.4699,2.4738,2.4747,2.4932,2.4719,2.4801,2.487,2.4824,2.5094,2.5166,2.4838,2.5033,2.5292,2.5461,2.5519,2.5366,2.5429,2.5748,2.5809,2.56,2.5299,2.5283,2.4906,2.4847,2.4557,2.4366,2.4436,2.424,2.4336,2.4263,2.4323,2.4278,2.4202,2.4336,2.432,2.422,2.4197,2.4317,2.4209,2.4372,2.4306,2.3606,2.2754,2.2544,2.3198,2.4321,2.7101,3.0964,3.5186,3.9091,4.0641,3.9448,3.5369,3.034,2.7262,2.601,2.5287,2.4919,2.4707,2.4608,2.4613,2.444,2.4438,2.4224,2.4225,2.4127,2.4258,2.4209,2.4281,2.4461,2.4329,2.4154,2.4276,2.4294,2.4298,2.4366,2.4334,2.426,2.4382,2.4475,2.4785,2.4567,2.4554,2.4655,2.4567,2.4649,2.4714,2.4761,2.481,2.4865,2.5073,2.5221,2.5235,2.5247,2.5354,2.5556,2.5647,2.5762,2.5934,2.608,2.6256,2.6322,2.6659,2.6825,2.7007,2.7259,2.7069,2.7186,2.7172,2.7386,2.7584,2.7334,2.7212,2.6909,2.6491,2.6334,2.6228,2.597,2.5816,2.5445,2.5258,2.5001,2.5048,2.4812,2.4576,2.4757,2.4686,2.4723,2.45,2.4572,2.4559,2.4641,2.4701,2.4583,2.4551,2.4619,2.4496,2.4496,2.451,2.4466,2.4542,2.4883,2.488,2.4544,2.4572,2.4532,2.4423,2.4354,2.4338,2.438,2.4665,2.4822,2.4701,2.4549,2.4573,2.4459,2.4528,2.4726,2.4534,2.4459,2.4479,2.467,2.4595,2.4495,2.4368,2.4444,2.4441,2.4435,2.4326,2.4211,2.4433,2.4489,2.4522,2.4467,2.445,2.4261,2.4252,2.4425,2.4396,2.4386,2.4667,2.5043,2.5035,2.4884,2.4848,2.5096,2.5167,2.5331,2.5327,2.5301,2.5321,2.5374,2.5429,2.5315,2.5004,2.472,2.4515,2.4444,2.4354,2.4329,2.431,2.4148,2.4129,2.3999,2.4061,2.4085,2.4133,2.4129,2.4106,2.428,2.4232,2.4085,2.4048,2.4072,2.3683,2.249,2.223,2.2709,2.4918,2.8305,3.2348,3.6863,3.8723,4.0579,3.8357,3.3369,2.9023,2.7306,2.621,2.5309,2.5123,2.4521,2.4601,2.4331,2.4439,2.4017,2.4,2.3901,2.3923,2.3979,2.4015,2.4063,2.4131,2.4134,2.4278,2.4025,2.4227,2.4096,2.4122,2.4074,2.4316,2.4249,2.4411,2.4364,2.4378,2.4203,2.4316,2.4436,2.4651,2.4812,2.4812,2.4705,2.4722,2.4927,2.4858,2.4842,2.513,2.5176,2.5317,2.5548,2.5526,2.566,2.5853,2.6047,2.6104,2.6418,2.6702,2.6952,2.6936,2.6913,2.7115,2.7255,2.7351,2.7227,2.7333,2.7326,2.7029,2.6826,2.6533,2.6311,2.6162,2.5832,2.549,2.5451,2.5176,2.4937,2.4773,2.4604,2.4712,2.4706,2.4723,2.4451,2.4495,2.4514,2.442,2.4659,2.4436,2.4381,2.4383,2.4472,2.4451,2.447,2.4328,2.4383,2.4337,2.4418,2.447,2.4551,2.4415,2.4482,2.4456,2.4373,2.4334,2.4434,2.4478,2.4435,2.4393,2.4421,2.4326,2.4384,2.4338,2.4404,2.4354,2.4429,2.4451,2.4358,2.4247,2.4236,2.41,2.4097,2.4365,2.425,2.4201,2.4448,2.4357,2.4378,2.4333,2.4341,2.4316,2.4176,2.4174,2.4227,2.4074,2.427,2.4437,2.4353,2.4547,2.4729,2.466,2.4725,2.4486,2.4595,2.4855,2.5254,2.5339,2.5249,2.5371,2.5105,2.5132,2.5127,2.4856,2.4636,2.449,2.4238,2.4047,2.4147,2.4097,2.3934,2.3929,2.3927,2.3899,2.3827,2.3945,2.39,2.3917,2.3788,2.3813,2.3804,2.4011,2.3968,2.3406,2.236,2.227,2.2706,2.4806,2.8329,3.2527,3.6891,3.9991,4.0238,3.7727,3.2582,2.8366,2.6282,2.541,2.4869,2.4373,2.4332,2.4042,2.418,2.4019,2.3922,2.3687,2.3947,2.3902,2.3831,2.3776,2.3927,2.3918,2.3965,2.3946,2.3711,2.3859,2.4043,2.3953,2.3998,2.3991,2.3997,2.4013,2.4034,2.4198,2.4237,2.4122,2.4231,2.4177,2.4327,2.4533,2.4447,2.4552,2.4482,2.4558,2.4677,2.472,2.5091,2.5198,2.5309,2.5383,2.5631,2.5606,2.5671,2.5949,2.612,2.6367,2.6483,2.6699,2.683,2.6928,2.6935,2.6979,2.7088,2.688,2.6904,2.6685,2.6401,2.6282,2.6113,2.5724,2.5389,2.5182,2.5028,2.4801,2.4629,2.44,2.434,2.415,2.4031,2.4327,2.4252,2.4169,2.3957,2.4166,2.4013,2.4207,2.4255,2.4178,2.401,2.407,2.4115,2.4151,2.4054,2.4363,2.4282,2.442,2.4491,2.4321,2.4335,2.4447,2.4372,2.4324,2.443,2.4471,2.4292,2.4258,2.437,2.4368,2.4322,2.4124,2.4098,2.4093,2.4168,2.4172,2.411,2.419,2.4041,2.4118,2.413,2.4135,2.41,2.4233,2.4155,2.4046,2.3983,2.4024,2.3945,2.4002,2.3893,2.4086,2.4006,2.4054,2.4228,2.452,2.4481,2.4317,2.4466,2.4807,2.4945,2.4983,2.5081,2.5055,2.5101,2.4889,2.488,2.4312,2.4104,2.3873,2.3913,2.3701,2.3748,2.3778,2.3903,2.3864,2.3799,2.3589,2.3661,2.3734,2.3732,2.3571,2.3673,2.3613,2.3512,2.3578,2.3535,2.2641,2.2055,2.2171,2.3719,2.6695,3.0807,3.4942,3.803,3.898,3.886,3.5915,3.069,2.7312,2.5716,2.4984,2.4366,2.4123,2.4035,2.3842,2.3882,2.3824,2.3742,2.374,2.363,2.3651,2.3648,2.3716,2.3673,2.3779,2.3591,2.3846,2.3822,2.3799,2.3936,2.3832,2.3885,2.3844,2.3816,2.4044,2.408,2.3952,2.3982,2.3942,2.413,2.4372,2.427,2.4295,2.4278,2.4264,2.4456,2.4653,2.4659,2.4896,2.4886,2.5053,2.5128,2.5349,2.5477,2.5847,2.5898,2.6033,2.623,2.64,2.6605,2.6599,2.6733,2.678,2.6886,2.6892,2.6846,2.6916,2.674,2.654,2.6279,2.6064,2.5818,2.5625,2.5343,2.5067,2.4839,2.4532,2.4501,2.433,2.4141,2.4261,2.4288,2.426,2.4242,2.4113,2.4073,2.405,2.4102,2.3952,2.403,2.4018,2.4051,2.3934,2.4027,2.3985,2.4174,2.4119,2.4178,2.4089,2.4041,2.4049,2.3972,2.3989,2.3971,2.3988,2.4116,2.4165,2.4195,2.4172,2.4141,2.4213,2.4248,2.4079,2.4033,2.4073,2.4138,2.4203,2.4229,2.4364,2.4539,2.4457,2.4377,2.4509,2.4583,2.4591,2.4657,2.4978,2.5159,2.5337,2.518,2.5068,2.5054,2.4963,2.4696,2.443,2.4079,2.3924,2.3952,2.3913,2.3926,2.3919,2.3895,2.3846,2.376,2.3873,2.3867,2.3669,2.3757,2.372,2.3766,2.377,2.3842,2.3803,2.327,2.241,2.2237,2.2431,2.4606,2.7883,3.1967,3.6491,3.9827,3.9974,3.7747,3.2709,3.0125,2.7162,2.5803,2.5115,2.4402,2.4451,2.3874,2.4003,2.3703,2.4,2.3681,2.3832,2.3647,2.399,2.3728,2.3985,2.37,2.3923,2.3609,2.3648,2.3488,2.3912,2.3855,2.4053,2.3767,2.4023,2.3992,2.4083,2.4159,2.4277,2.4137,2.4179,2.4243,2.4453,2.4355,2.4304,2.4421,2.4528,2.4655,2.4882,2.4933,2.4995,2.4988,2.5109,2.5414,2.5475,2.5613,2.5754,2.6038,2.6099,2.6181,2.6472,2.6614,2.6621,2.6615,2.6845,2.6964,2.68,2.6801,2.6629,2.6512,2.6458,2.6068,2.571,2.5728,2.5424,2.5204,2.4922,2.4699,2.4493,2.4471,2.4281,2.4425,2.4291,2.4223,2.4235,2.4234,2.4109,2.4136,2.4198,2.4169,2.4119,2.4264,2.415,2.4199,2.411,2.4202,2.4132,2.413,2.4141,2.4244,2.4235,2.4195,2.4082,2.4264,2.4191,2.4066,2.4157,2.4336,2.4245,2.4045,2.4128,2.4261,2.4289,2.425,2.4077,2.414,2.4294,2.423,2.4127,2.4151,2.4108,2.4302,2.4126,2.4132,2.4046,2.404,2.406,2.4015,2.4076,2.4076,2.4164,2.4241,2.4201,2.4369,2.4674,2.4548,2.4561,2.4558,2.4635,2.4633,2.4801,2.5034,2.5005,2.508,2.5145,2.5051,2.5108,2.4973,2.4758,2.4551,2.4372,2.4339,2.4033,2.3976,2.3878,2.41,2.4006,2.3921,2.4118,2.3878,2.3719,2.367,2.3751,2.3822,2.3848,2.3905,2.4,2.3717,2.2703,2.2125,2.219,2.2478,2.4777,2.8365,3.2382,3.6557,3.9964,4.0301,3.8016,3.2957,2.8506,2.6157,2.5257,2.4945,2.4598,2.454,2.4146,2.398,2.3788,2.3761,2.366,2.3868,2.3722,2.3921,2.3825,2.3849,2.3797,2.3833,2.3746,2.385,2.3911,2.4011,2.3972,2.4091,2.4193,2.4034,2.4079,2.4229,2.4353,2.4172,2.4041,2.4042,2.4099,2.4305,2.4326,2.4368,2.462,2.4697,2.4675,2.48,2.4956,2.4942,2.4969,2.5097,2.5304,2.5435,2.5753,2.593,2.6153,2.6388,2.6408,2.6422,2.6434,2.651,2.6727,2.7036,2.7193,2.7112,2.6986,2.6928,2.673,2.6509,2.6151,2.5941,2.5666,2.5441,2.5417,2.5129,2.4961,2.4569,2.4439,2.444,2.4492,2.4425,2.428,2.4146,2.4255,2.4147,2.4261,2.4436,2.4492,2.4261,2.4354,2.4545,2.4441,2.4333,2.4238,2.4098,2.4151,2.4317,2.4504,2.4406,2.4329,2.4392,2.4393,2.4251,2.4279,2.4223,2.4164,2.4228,2.4264,2.4141,2.4003,2.4044,2.4121,2.4117,2.4145,2.4327,2.4355,2.4237,2.4156,2.4143,2.4182,2.4085,2.4165,2.4088,2.4118,2.4121,2.3933,2.3919,2.4003,2.4133,2.4052,2.4148,2.4088,2.4159,2.4111,2.4013,2.4119,2.3978,2.383,2.4135,2.4243,2.4021,2.4039,2.3795,2.3965,2.4064,2.3998,2.3948,2.4248,2.4352,2.4408,2.4437,2.4338,2.4504,2.4543,2.4789,2.5053,2.4945,2.4947,2.4904,2.4885,2.48,2.4619,2.4518,2.4431,2.4211,2.4046,2.4011,2.391,2.3803,2.3835,2.3973,2.3823,2.3839,2.3789,2.3805,2.3668,2.3834,2.3866,2.3665,2.3638,2.362,2.3415,2.2798,2.2095,2.2148,2.327,2.6073,2.9983,3.3815,3.7402,3.9824,3.9305,3.5846,3.0924,2.729,2.5807,2.5033,2.4527,2.4227,2.4172,2.4191,2.3904,2.3811,2.37,2.3946,2.3876,2.3677,2.3534,2.3502,2.371,2.3864,2.4214,2.3969,2.3677,2.3546,2.3491,2.3511,2.3838,2.3943,2.3934,2.3907,2.3825,2.3802,2.4051,2.4042,2.4058,2.4131,2.4456,2.4472,2.4473,2.4385,2.4444,2.4591,2.4557,2.4864,2.4811,2.5023,2.5139,2.5349,2.544,2.5594,2.5734,2.5769,2.5995,2.6111,2.6144,2.6516,2.6612,2.657,2.684,2.6973,2.6891,2.6965,2.6854,2.6786,2.6495,2.6228,2.5724,2.5448,2.5295,2.5292,2.504,2.4907,2.485,2.46,2.4391,2.4278,2.4203,2.4136,2.4314,2.4161,2.4103,2.414,2.4102,2.3972,2.3997,2.3952,2.4117,2.4089,2.3981,2.3937,2.4013,2.3965,2.4069,2.4113,2.4263,2.4314,2.4343,2.4268,2.4338,2.4572,2.4409,2.4399,2.4397,2.4465,2.428,2.4244,2.4216,2.4164,2.4218,2.424,2.4213,2.4209,2.4171,2.419,2.4134,2.4243,2.413,2.4054,2.4152,2.3984,2.3923,2.3901,2.3843,2.3972,2.4131,2.4241,2.4048,2.3978,2.3824,2.3866,2.3978,2.4128,2.4066,2.3937,2.3997,2.4067,2.4096,2.4194,2.4107,2.4221,2.4621,2.4435,2.4288,2.4097,2.4536,2.4712,2.5153,2.5165,2.4902,2.4888,2.4831,2.4894,2.4899,2.4757,2.4523,2.4349,2.4266,2.4044,2.3876,2.3748,2.3677,2.381,2.3754,2.3827,2.3766,2.3788,2.4089,2.3876,2.3741,2.3871,2.3645,2.3564,2.3545,2.3255,2.2367,2.2261,2.2562,2.4649,2.8242,3.2472,3.6565,3.9743,3.9919,3.7386,3.2416,2.81,2.5892,2.4979,2.472,2.4424,2.4276,2.3942,2.3779,2.3792,2.3808,2.3644,2.3725,2.3493,2.3874,2.3686,2.3861,2.36,2.3583,2.3728,2.4048,2.4015,2.398,2.4122,2.4238,2.4337,2.4376,2.4267,2.4177,2.444,2.4334,2.4311,2.4303,2.4177,2.439,2.4466,2.4448,2.4643,2.478,2.4812,2.4666,2.4866,2.5113,2.526,2.5249,2.5201,2.535,2.549,2.5824,2.5856,2.6053,2.6195,2.643,2.6665,2.6807,2.7078,2.6923,2.6908,2.6981,2.7168,2.711,2.6813,2.635,2.609,2.6025,2.5612,2.5461,2.5193,2.502,2.4846,2.49,2.4714,2.4587,2.4448,2.4169,2.4213,2.4344,2.428,2.4072,2.4049,2.3993,2.4012,2.4101,2.417,2.4178,2.4012,2.408,2.4117,2.4118,2.4121,2.4251,2.4227,2.4082,2.4083,2.4141,2.3847,2.3795,2.3978,2.4176,2.4145,2.3948,2.3968,2.4038,2.4109,2.4143,2.4144,2.416,2.419,2.4107,2.407,2.4142,2.4013,2.3945,2.4001,2.4153,2.4054,2.392,2.3883,2.391,2.3929,2.394,2.3937,2.4085,2.4115,2.4033,2.4009,2.4112,2.4265,2.4038,2.38,2.3711,2.3848,2.392,2.4062,2.4115,2.4291,2.434,2.4396,2.4281,2.4385,2.4409,2.4662,2.4744,2.5054,2.4886,2.4968,2.5041,2.4918,2.4877,2.4713,2.4206,2.4106,2.3979,2.3923,2.3774,2.3699,2.376,2.3814,2.393,2.3834,2.3707,2.3608,2.3682,2.3692,2.3794,2.3799,2.3636,2.3782,2.3394,2.2622,2.2278,2.2357,2.4029,2.6985,3.1168,3.5626,3.9197,4.0313,3.8487,3.3965,2.9189,2.6593,2.5584,2.5018,2.4536,2.4288,2.4221,2.4068,2.3857,2.3946,2.3982,2.3784,2.3777,2.3778,2.3602,2.3732,2.3713,2.3711,2.357,2.3741,2.365,2.3894,2.3886,2.3875,2.3877,2.4048,2.3934,2.3861,2.3738,2.399,2.3996,2.3975,2.4053,2.4194,2.4137,2.4177,2.435,2.4452,2.4565,2.4552,2.4663,2.4746,2.4787,2.4983,2.5289,2.5355,2.5578,2.5917,2.5896,2.5934,2.6138,2.6207,2.6391,2.6499,2.6727,2.6706,2.6858,2.687,2.6832,2.6834,2.6733,2.6394,2.6125,2.5892,2.5853,2.546,2.5014,2.4881,2.4897,2.4639,2.4566,2.4378,2.4219,2.4188,2.4178,2.4214,2.433,2.4143,2.3878,2.3718,2.3893,2.3833,2.394,2.3921,2.3945,2.3769,2.3903,2.3857,2.3901,2.3868,2.4061,2.4051,2.3905,2.3949,2.3828,2.3815,2.3838,2.3973,2.3885,2.4013,2.4022,2.3873,2.3796,2.3936,2.3954,2.3873,2.39,2.3898,2.4056,2.3918,2.3769,2.3721,2.3649,2.3713,2.3878,2.3808,2.3786,2.3738,2.3851,2.3627,2.3796,2.3696,2.3834,2.3979,2.4134,2.4435,2.4262,2.41,2.4215,2.4254,2.4383,2.4528,2.4783,2.4688,2.4791,2.489,2.4664,2.4506,2.4376,2.4071,2.3884,2.3749,2.361,2.3507,2.35,2.3487,2.3524,2.3394,2.3446,2.3453,2.3285,2.328,2.3256,2.3227,2.3154,2.3348,2.3473,2.3216,2.2413,2.1799,2.1702,2.3147,2.5942,3.0003,3.3961,3.7325,3.8695,3.7696,3.3453,3.0638,2.6968,2.5453,2.4903,2.413,2.3859,2.3658,2.3408,2.3482,2.365,2.3011,2.3314,2.3075,2.3313,2.3147,2.316,2.3094,2.3296,2.328,2.3298,2.3258,2.3328,2.3304,2.3275,2.3239,2.3582,2.3556,2.3428,2.3473,2.3449,2.3462,2.3738,2.3702,2.3684,2.376,2.385,2.3783,2.4024,2.4132,2.4125,2.4062,2.4067,2.4216,2.4748,2.4617,2.4667,2.4709,2.5002,2.5157,2.55,2.5573,2.5577,2.5896,2.5997,2.614,2.6052,2.6417,2.6409,2.6498,2.6179,2.586,2.5775,2.5844,2.572,2.4981,2.4498,2.462,2.4086,2.4182,2.3884,2.372,2.3568,2.3662,2.3596,2.3598,2.3512,2.3239,2.3289,2.3442,2.3469,2.3206,2.3103,2.3328,2.3412,2.3199,2.3118,2.3459,2.3385,2.3625,2.3093,2.3183,2.3316,2.3262,2.3388,2.3749,2.309,2.3391,2.3921,2.3271,2.348,2.3627,2.3638,2.356,2.4001,2.3296,2.3323,2.3685,2.3624,2.3462,2.3535,2.3529,2.3459,2.3906,2.3711,2.3961,2.4065,2.4091,2.4187,2.4291,2.4255,2.4335,2.441,2.4383,2.4622,2.4794,2.4603,2.4233,2.4136,2.3731,2.3543,2.3261,2.3315,2.3409,2.3347,2.318,2.3172,2.324,2.32,2.3046,2.3185,2.3379,2.3526,2.2951,2.2998,2.319,2.3099,2.2678,2.2048,2.1533,2.158,2.345,2.6436,3.0413,3.4507,3.8008,3.9386,3.8023,3.3238,2.8492,2.6039,2.5143,2.4943,2.3987,2.3846,2.3432,2.3821,2.3535,2.2959,2.2913,2.3214,2.3039,2.3165,2.3239,2.3445,2.2925,2.3068,2.3345,2.3345,2.3207,2.3141,2.3309,2.3375,2.3818,2.3433,2.3258,2.3286,2.3451,2.3422,2.3517,2.3352,2.3671,2.3848,2.395,2.3711,2.3868,2.396,2.3982,2.4036,2.3974,2.4021,2.4499,2.4428,2.4604,2.4722,2.4715,2.5041,2.5265,2.5473,2.5918,2.555,2.579,2.6022,2.6043,2.6234,2.6014,2.6201,2.6321,2.6282,2.5884,2.5851,2.5521,2.5127,2.4918,2.4389,2.4635,2.4326,2.4189,2.4285,2.3952,2.421,2.3415,2.3408,2.3614,2.3641,2.3634,2.3407,2.3371,2.3501,2.3635,2.3473,2.3405,2.3551,2.3726,2.3723,2.3619,2.3628,2.3499,2.3452,2.345,2.391,2.3712,2.3219,2.349,2.3705,2.3439,2.3656,2.373,2.3848,2.3671,2.3458,2.3543,2.3498,2.3546,2.3526,2.3711,2.358,2.3756,2.3718,2.3738,2.3724,2.3907,2.3801,2.4083,2.3999,2.3996,2.4285,2.4464,2.4662,2.4736,2.456,2.445,2.4552,2.4437,2.4325,2.4174,2.3926,2.3941,2.3437,2.3497,2.3482,2.3297,2.3346,2.3266,2.3396,2.3394,2.3488,2.3568,2.3418,2.3512,2.3665,2.319,2.3151,2.3032,2.2934,2.2084,2.1753,2.1984,2.3994,2.6233,3.0479,3.5043,3.874,3.9879,3.8491,3.3487,2.8745,2.6359,2.5001,2.4454,2.3939,2.4122,2.3316,2.3498,2.3342,2.3408,2.3329,2.3341,2.3062,2.3294,2.3407,2.3348,2.3141,2.3272,2.3498,2.3472,2.3723,2.3351,2.3466,2.3537,2.334,2.3458,2.3456,2.3724,2.3656,2.3605,2.372,2.3751,2.3889,2.4087,2.3528,2.3898,2.4099,2.4063,2.4131,2.4368,2.4498,2.4609,2.4584,2.4595,2.4924,2.5033,2.533,2.5366,2.5394,2.5628,2.5692,2.5892,2.6206,2.6347,2.623,2.6317,2.6198,2.6429,2.643,2.6238,2.617,2.5792,2.5393,2.5195,2.5082,2.4913,2.4613,2.4529,2.4457,2.4119,2.3971,2.402,2.3849,2.3815,2.3791,2.3822,2.3841,2.4012,2.3884,2.3623,2.3697,2.3871,2.3783,2.3885,2.3949,2.3797,2.3728,2.3867,2.4061,2.4131,2.4289,2.3886,2.3922,2.3815,2.3678,2.3719,2.3729,2.3904,2.3928,2.3873,2.3867,2.3796,2.4013,2.3821,2.3963,2.4336,2.445,2.4376,2.4499,2.446,2.457,2.4693,2.4621,2.4545,2.487,2.475,2.4941,2.4757,2.4519,2.4186,2.3703,2.3547,2.3655,2.3681,2.3437,2.341,2.3453,2.3458,2.3521,2.3477,2.3254,2.3202,2.3165,2.3268,2.3383,2.3275,2.3243,2.3272,2.2709,2.1773,2.1665,2.2228,2.4617,2.8293,3.2403,3.6404,3.9115,3.8729,3.6048,3.3461,2.8944,2.6015,2.5084,2.4183,2.3894,2.3757,2.3498,2.348,2.3241,2.3167,2.3093,2.3239,2.3337,2.3213,2.3151,2.3189,2.3282,2.3134,2.3206,2.324,2.349,2.3218,2.3181,2.3294,2.3351,2.3497,2.3463,2.3273,2.3432,2.3418,2.3541,2.3571,2.3582,2.3429,2.3596,2.3688,2.3801,2.3903,2.3816,2.3895,2.3998,2.4259,2.4355,2.43,2.4681,2.4776,2.502,2.5016,2.531,2.5495,2.5469,2.5423,2.5593,2.5924,2.5954,2.5972,2.5849,2.5638,2.5609,2.5565,2.5355,2.525,2.4918,2.4786,2.4631,2.4454,2.4141,2.3964,2.3773,2.3782,2.3596,2.3372,2.3408,2.3389,2.328,2.3223,2.3172,2.3214,2.319,2.3327,2.3181,2.3344,2.3321,2.3387,2.334,2.3408,2.3149,2.3069,2.3162,2.3219,2.3255,2.3204,2.3335,2.3308,2.3182,2.342,2.3291,2.3363,2.3336,2.3365,2.3331,2.3462,2.3504,2.3666,2.3702,2.3716,2.3781,2.3828,2.4054,2.4048,2.4322,2.4349,2.4162,2.4106,2.4094,2.3867,2.384,2.3493,2.3299,2.3266,2.3191,2.3054,2.3059,2.2942,2.2997,2.298,2.2821,2.2887,2.2934,2.2977,2.2922,2.2845,2.2749,2.2733,2.2855,2.2823,2.2089,2.1315,2.1204,2.248,2.3848,2.7096,3.1371,3.5039,3.7887,3.8087,3.5526,3.0443,2.6621,2.5067,2.4323,2.3675,2.3259,2.3225,2.3118,2.3037,2.2895,2.2885,2.2849,2.2812,2.2767,2.2795,2.2765,2.2872,2.294,2.2921,2.2941,2.3057,2.3079,2.3032,2.2875,2.2917,2.2907,2.3019,2.2957,2.2965,2.3033,2.3142,2.3069,2.3122,2.3295,2.3304,2.3445,2.3392,2.347,2.3548,2.3614,2.3747,2.3847,2.3889,2.4061,2.4172,2.4409,2.4577,2.4767,2.4872,2.5012,2.5142,2.5288,2.5315,2.5402,2.5421,2.5604,2.5552,2.5583,2.5629,2.5419,2.5247,2.5024,2.4825,2.4688,2.4394,2.4044,2.3871,2.3895,2.3739,2.3521,2.3289,2.3224,2.3129,2.3028,2.2981,2.2948,2.2948,2.3037,2.2968,2.3082,2.3221,2.3226,2.314,2.3004,2.298,2.302,2.3005,2.3014,2.3091,2.3058,2.3153,2.3234,2.3268,2.3089,2.2961,2.2962,2.3404,2.3451,2.3463,2.3595,2.3688,2.3932,2.3978,2.4191,2.4287,2.4328,2.4211,2.41,2.4092,2.4312,2.4143,2.3781,2.3509,2.3502,2.3358,2.3157,2.3097,2.3188,2.2971,2.2909,2.288,2.3002,2.301,2.3143,2.3123,2.2981,2.2806,2.2824,2.2842,2.2992,2.2874,2.213,2.1324,2.1174,2.2541,2.3992,2.7273,3.1538,3.5688,3.8964,3.879,3.6141,3.1155,2.7015,2.5135,2.4326,2.367,2.3414,2.3396,2.3232,2.2983,2.3019,2.2935,2.2902,2.2884,2.2797,2.2805,2.3059,2.3006,2.2823,2.303,2.2957,2.295,2.282,2.2849,2.2969,2.3128,2.3083,2.3133,2.3175,2.3265,2.3132,2.3151,2.3247,2.3255,2.327,2.3469,2.3625,2.3572,2.3643,2.3842,2.3746,2.3982,2.4107,2.4096,2.4106,2.4317,2.4387,2.4617,2.4735,2.4934,2.5039,2.5336,2.5365,2.5465,2.5546,2.5701,2.5639,2.5629,2.565,2.5591,2.5398,2.5236,2.5209,2.498,2.4632,2.4304,2.4016,2.389,2.3734,2.3697,2.3714,2.3694,2.3539,2.334,2.3303,2.3316,2.333,2.3317,2.3278,2.3332,2.3281,2.3199,2.3192,2.3252,2.3305,2.3401,2.351,2.3316,2.3324,2.3368,2.3368,2.3563,2.3622,2.3432,2.3302,2.3195,2.3262,2.3335,2.3449,2.3427,2.3474,2.3639,2.3713,2.3843,2.3751,2.3873,2.3988,2.4178,2.428,2.4423,2.4494,2.4516,2.4426,2.4365,2.4192,2.4031,2.4006,2.3785,2.3357,2.3257,2.3052,2.3105,2.3152,2.3132,2.3105,2.3074,2.3033,2.3027,2.3065,2.2958,2.3092,2.2996,2.3039,2.298,2.3001,2.2723,2.1772,2.1346
