9.4264,9.5243,9.5514,9.5579,9.5536,9.5477,9.5502,9.5675,9.5659,9.5829,9.5731,9.5786,9.5727,9.5843,9.5815,9.595,9.5982,9.603,9.6064,9.6179,9.6183,9.6209,9.6262,9.6503,9.6542,9.6485,9.6596,9.6785,9.6821,9.6963,9.7082,9.712,9.7117,9.7215,9.7402,9.7522,9.7626,9.785,9.7952,9.8126,9.8145,9.8329,9.8573,9.8813,9.8966,9.9243,9.9479,9.9626,9.9489,9.9698,9.9973,9.9917,10.019,10.009,10.002,10.016,10.031,10.028,9.9903,9.9797,9.9543,9.9144,9.8812,9.816,9.798,9.7931,9.742,9.6945,9.6358,9.6065,9.6143,9.5952,9.5728,9.573,9.5631,9.5264,9.5553,9.5111,9.5412,9.4907,9.4911,9.5216,9.489,9.4912,9.5106,9.5413,9.5187,9.5583,9.5638,9.5057,9.5452,9.5384,9.5212,9.5317,9.5445,9.556,9.4978,9.5272,9.5527,9.5421,9.5648,9.5468,9.5505,9.5265,9.4929,9.5065,9.4996,9.526,9.5492,9.5339,9.5479,9.538,9.5653,9.5361,9.5283,9.5513,9.5612,9.5658,9.5473,9.5363,9.5433,9.5353,9.5484,9.5477,9.5224,9.5506,9.5602,9.5311,9.502,9.5504,9.5456,9.5182,9.5364,9.5521,9.5715,9.5447,9.5872,9.5652,9.5668,9.5571,9.6024,9.5872,9.5592,9.5731,9.5838,9.6043,9.5985,9.5882,9.652,9.5999,9.6047,9.5881,9.6082,9.6552,9.6118,9.6272,9.6244,9.6333,9.6203,9.6276,9.6284,9.6216,9.6266,9.6393,9.6206,9.6351,9.6695,9.6463,9.6319,9.6666,9.6513,9.6603,9.6778,9.6599,9.6391,9.6834,9.6817,9.6841,9.6966,9.6782,9.6275,9.6435,9.6691,9.646,9.6298,9.6333,9.5863,9.5786,9.6119,9.5721,9.6339,9.6248,9.5848,9.5875,9.6121,9.5964,9.5702,9.5849,9.6211,9.6931,9.8395,9.9914,10.133,10.358,10.543,10.648,10.368,9.8111,9.2439,9.2294,9.3257,9.4068,9.4314,9.613,9.6809,9.6203,9.7006,9.6715,9.7164,9.7237,9.6972,9.7061,9.7212,9.7374,9.7922,9.7304,9.7446,9.7688,9.7701,9.7264,9.7059,9.7093,9.7196,9.7546,9.7636,9.7634,9.7669,9.7725,9.7756,9.7983,9.7767,9.7879,9.7687,9.8036,9.7878,9.8057,9.8152,9.8133,9.8191,9.8399,9.8454,9.8469,9.8672,9.8748,9.877,9.899,9.907,9.9143,9.949,9.9706,9.9432,9.9589,9.9812,9.9878,9.9786,9.9901,9.9784,9.9883,10.008,9.9877,9.9657,9.9384,9.918,9.9134,9.8804,9.8547,9.7956,9.704,9.6948,9.6504,9.6097,9.5786,9.5532,9.5091,9.5129,9.4581,9.4578,9.4458,9.451,9.4412,9.4058,9.3964,9.3982,9.4294,9.4248,9.4282,9.4433,9.4371,9.4337,9.4256,9.4115,9.4579,9.4486,9.4435,9.4789,9.4665,9.4833,9.4578,9.4859,9.5093,9.4825,9.4914,9.4976,9.4954,9.4915,9.4604,9.4589,9.4595,9.4727,9.4598,9.4705,9.4542,9.4362,9.4284,9.4348,9.4369,9.433,9.4173,9.4091,9.4216,9.4003,9.4102,9.4067,9.4126,9.4148,9.4013,9.3841,9.4035,9.4158,9.4128,9.4122,9.3999,9.3938,9.4024,9.3853,9.3969,9.4124,9.4077,9.3994,9.3868,9.3858,9.3836,9.3987,9.3889,9.3836,9.3793,9.3884,9.3775,9.3925,9.3797,9.3916,9.3915,9.3777,9.3886,9.4197,9.4194,9.4077,9.4399,9.4687,9.468,9.4837,9.4761,9.4781,9.4677,9.4643,9.4578,9.4439,9.4304,9.4315,9.4182,9.3966,9.3954,9.3757,9.3717,9.3689,9.3659,9.3713,9.3622,9.3647,9.3595,9.3494,9.3468,9.3441,9.3744,9.4076,9.4941,9.5776,9.8016,10.001,10.185,10.33,10.216,9.7915,9.1879,8.8931,8.9565,9.1062,9.1753,9.3218,9.4158,9.4375,9.4251,9.3923,9.4015,9.4205,9.409,9.4082,9.4016,9.3738,9.3777,9.4184,9.4272,9.4087,9.4009,9.3994,9.4153,9.4314,9.4273,9.4216,9.4287,9.4436,9.4597,9.4753,9.4582,9.4595,9.4756,9.4867,9.5017,9.4929,9.5031,9.523,9.5226,9.5162,9.5576,9.5771,9.5639,9.5886,9.6072,9.6172,9.632,9.6445,9.6833,9.6868,9.7003,9.71,9.7288,9.7517,9.7559,9.7704,9.7871,9.7843,9.8054,9.7963,9.7967,9.7963,9.7913,9.7862,9.783,9.7295,9.7044,9.644,9.6179,9.5861,9.5536,9.5092,9.4731,9.4391,9.4019,9.3768,9.3336,9.3194,9.3193,9.2954,9.2911,9.2914,9.2737,9.2805,9.2572,9.2735,9.2657,9.2663,9.27,9.2745,9.2761,9.2862,9.284,9.2763,9.292,9.306,9.2919,9.283,9.2694,9.28,9.3007,9.2916,9.2855,9.2746,9.3027,9.2857,9.2901,9.2861,9.2898,9.2958,9.2946,9.2839,9.2909,9.2956,9.3023,9.2824,9.2868,9.2857,9.2817,9.2777,9.2803,9.2976,9.2698,9.2722,9.299,9.2839,9.2713,9.2698,9.2706,9.2867,9.2794,9.2765,9.2796,9.2879,9.3325,9.3398,9.343,9.3314,9.3418,9.3528,9.3957,9.3903,9.3901,9.3947,9.3881,9.3837,9.3688,9.3384,9.3232,9.3212,9.3193,9.2851,9.2721,9.282,9.2632,9.2621,9.2554,9.2596,9.2465,9.2516,9.2445,9.2409,9.239,9.2392,9.238,9.2468,9.2707,9.3289,9.4464,9.609,9.6926,9.8489,10.017,10.162,10.125,9.7698,9.1973,8.7795,8.8178,8.974,9.0945,9.2413,9.3234,9.3649,9.3781,9.3607,9.3403,9.3619,9.3553,9.349,9.3501,9.3549,9.3545,9.3692,9.3703,9.3737,9.383,9.3925,9.4058,9.3971,9.3907,9.4099,9.4228,9.4288,9.4413,9.4518,9.4502,9.4598,9.479,9.4887,9.4922,9.5119,9.5128,9.5312,9.5429,9.5523,9.5695,9.5792,9.5969,9.612,9.6357,9.6648,9.6826,9.6929,9.7075,9.7388,9.7626,9.79,9.8049,9.8255,9.8399,9.8398,9.859,9.8772,9.894,9.9013,9.9049,9.909,9.9034,9.8915,9.8631,9.843,9.8023,9.7586,9.7108,9.6748,9.6427,9.6077,9.5672,9.534,9.5228,9.5082,9.5052,9.4804,9.4581,9.4393,9.4521,9.4368,9.4354,9.4408,9.434,9.4333,9.4354,9.4362,9.4415,9.4438,9.4429,9.4542,9.4518,9.4551,9.4523,9.4552,9.46,9.468,9.4939,9.4691,9.477,9.4803,9.4674,9.4774,9.4749,9.4811,9.484,9.5079,9.5074,9.5395,9.5265,9.56,9.5809,9.5961,9.623,9.6265,9.6363,9.6426,9.641,9.6187,9.6292,9.614,9.6084,9.5977,9.5819,9.5623,9.5624,9.5571,9.5565,9.5414,9.5417,9.5526,9.5641,9.5733,9.5651,9.5636,9.5615,9.554,9.5445,9.555,9.5653,9.5831,9.5873,9.5598,9.537,9.5224,9.5015,9.4972,9.4912,9.4616,9.449,9.4298,9.4236,9.4008,9.387,9.379,9.3796,9.3603,9.3702,9.3649,9.3567,9.3536,9.358,9.346,9.3499,9.34,9.3692,9.4632,9.6025,9.7475,9.8887,10.074,10.226,10.195,9.8901,9.639,9.0929,8.9167,9.0485,9.1153,9.2321,9.3241,9.4316,9.4275,9.4301,9.4101,9.4273,9.4226,9.4405,9.4236,9.4388,9.4309,9.4583,9.446,9.4403,9.4329,9.4577,9.4542,9.4697,9.4694,9.4816,9.4721,9.4902,9.4992,9.5082,9.512,9.5215,9.5179,9.5516,9.555,9.5635,9.5705,9.5867,9.6018,9.6004,9.5979,9.6141,9.6334,9.65,9.6677,9.6748,9.6966,9.7129,9.7374,9.7472,9.7591,9.7827,9.801,9.8203,9.8382,9.8393,9.8426,9.8576,9.8712,9.873,9.8787,9.8701,9.8664,9.8555,9.8573,9.8104,9.7827,9.7457,9.7095,9.6646,9.6279,9.5767,9.5549,9.5299,9.5111,9.4784,9.4585,9.4332,9.4341,9.4169,9.4222,9.3944,9.4108,9.4072,9.3994,9.3979,9.3878,9.3905,9.4027,9.4073,9.3944,9.391,9.4032,9.4115,9.409,9.4037,9.4191,9.4135,9.4227,9.4074,9.4126,9.4153,9.4219,9.4057,9.4053,9.4167,9.4137,9.4005,9.4133,9.3919,9.3916,9.3991,9.3976,9.3959,9.3972,9.386,9.3817,9.3807,9.3875,9.3924,9.3787,9.3883,9.3845,9.4,9.4206,9.4173,9.4274,9.4342,9.4268,9.4359,9.4695,9.4817,9.4823,9.4819,9.4673,9.4689,9.4516,9.4235,9.4205,9.4257,9.4157,9.3953,9.365,9.3617,9.3496,9.3536,9.3511,9.3449,9.3489,9.3469,9.3331,9.3309,9.3263,9.34,9.3391,9.3447,9.3355,9.3386,9.3927,9.5085,9.5842,9.7261,9.872,10.056,10.225,10.214,9.9393,9.3969,8.9267,8.9676,9.0938,9.1598,9.2679,9.3409,9.4229,9.4373,9.4323,9.4108,9.4204,9.4464,9.4512,9.4359,9.452,9.4443,9.4669,9.4699,9.4634,9.4608,9.4703,9.4764,9.5009,9.5055,9.5004,9.5125,9.5267,9.528,9.533,9.5426,9.5482,9.5673,9.5857,9.5813,9.5859,9.5912,9.595,9.6195,9.6332,9.6417,9.6568,9.6696,9.701,9.7212,9.7181,9.7355,9.7627,9.7839,9.8057,9.8137,9.8385,9.8594,9.872,9.8741,9.8838,9.9001,9.8994,9.9167,9.9302,9.9264,9.9155,9.9217,9.8992,9.8714,9.8361,9.805,9.7634,9.7271,9.6742,9.6431,9.6096,9.5862,9.565,9.5578,9.5347,9.5113,9.4879,9.4669,9.4967,9.4951,9.4698,9.4738,9.4548,9.4646,9.4792,9.4695,9.4656,9.4821,9.4854,9.485,9.4846,9.4909,9.4782,9.4826,9.4951,9.4918,9.4798,9.4972,9.4834,9.4902,9.4945,9.4924,9.4897,9.5014,9.4949,9.4975,9.5004,9.4885,9.4936,9.4883,9.4875,9.4817,9.4905,9.4872,9.5056,9.4994,9.4776,9.477,9.4764,9.4748,9.4723,9.4677,9.4691,9.4624,9.4708,9.4782,9.4709,9.4709,9.4641,9.4733,9.4806,9.4677,9.4681,9.4637,9.4728,9.4793,9.4717,9.4772,9.5133,9.5154,9.5284,9.5086,9.499,9.5088,9.5441,9.55,9.5638,9.5552,9.5292,9.5399,9.5226,9.5017,9.4935,9.4919,9.4892,9.4728,9.4667,9.4503,9.4462,9.4405,9.4312,9.4261,9.4403,9.4364,9.43,9.4241,9.4239,9.4289,9.4238,9.4201,9.4306,9.4584,9.5407,9.6155,9.758,9.9167,10.095,10.284,10.36,10.177,9.7478,9.1818,9.0309,9.1451,9.1876,9.2713,9.4142,9.4995,9.5081,9.5147,9.4962,9.52,9.5117,9.5248,9.523,9.5328,9.5283,9.5397,9.5357,9.5541,9.5497,9.5556,9.5469,9.568,9.5691,9.5884,9.5775,9.5858,9.5935,9.6145,9.6184,9.6245,9.6269,9.6415,9.6414,9.6495,9.6529,9.6747,9.6779,9.6873,9.7069,9.7211,9.7364,9.7416,9.7642,9.778,9.7997,9.8051,9.8253,9.8459,9.8517,9.8773,9.881,9.8922,9.9161,9.9358,9.9396,9.9422,9.9524,9.9608,9.9706,9.9715,9.9786,9.9684,9.9424,9.9188,9.8944,9.8627,9.8184,9.777,9.7312,9.6965,9.6645,9.6452,9.6156,9.5883,9.5712,9.5526,9.5441,9.5365,9.5181,9.5085,9.5038,9.4875,9.4895,9.4873,9.503,9.4954,9.4913,9.4882,9.5009,9.4961,9.5099,9.494,9.5017,9.4996,9.5062,9.5046,9.5015,9.4977,9.4968,9.4954,9.5132,9.5038,9.5077,9.5077,9.5136,9.5043,9.5022,9.495,9.5006,9.5045,9.4969,9.4974,9.4916,9.4796,9.4938,9.4942,9.4849,9.4916,9.488,9.4834,9.4791,9.473,9.4661,9.4735,9.4828,9.4775,9.4825,9.4781,9.4681,9.4634,9.4716,9.4728,9.4673,9.4653,9.4731,9.4681,9.4627,9.4587,9.4585,9.4732,9.4723,9.4613,9.4644,9.4575,9.4589,9.4592,9.4547,9.4486,9.4462,9.4624,9.4682,9.4583,9.4494,9.4471,9.4477,9.4506,9.4576,9.4626,9.4735,9.4769,9.5104,9.5018,9.4952,9.4907,9.4971,9.5284,9.5399,9.5389,9.5405,9.5332,9.5284,9.5275,9.5176,9.5244,9.4983,9.4923,9.4861,9.4757,9.4561,9.464,9.4488,9.4469,9.4418,9.4339,9.4367,9.4435,9.4393,9.4434,9.43,9.4379,9.4477,9.4406,9.4439,9.4823,9.5876,9.7465,9.8889,10.052,10.247,10.403,10.327,9.9685,9.3802,9.0588,9.1302,9.2344,9.3023,9.4293,9.5058,9.532,9.5627,9.5495,9.5414,9.5495,9.5445,9.5483,9.5553,9.5716,9.5617,9.559,9.563,9.5826,9.5917,9.5907,9.5932,9.6055,9.6137,9.6182,9.6191,9.6221,9.6359,9.6428,9.6472,9.6589,9.6691,9.6685,9.6895,9.6949,9.7043,9.7034,9.7168,9.7334,9.754,9.7585,9.7836,9.7951,9.8129,9.8295,9.839,9.8586,9.8779,9.8935,9.9012,9.9224,9.9351,9.9412,9.9489,9.9688,9.9858,9.9856,9.9969,10.014,10.012,10.01,10.005,9.9969,9.9732,9.9494,9.9264,9.8803,9.8409,9.805,9.7917,9.7496,9.7168,9.6775,9.6508,9.6404,9.6065,9.5939,9.5822,9.5675,9.5637,9.5624,9.5581,9.5457,9.544,9.5354,9.5326,9.5341,9.5311,9.5463,9.5578,9.5512,9.5478,9.5417,9.5526,9.5454,9.5423,9.5477,9.549,9.5514,9.5521,9.5474,9.5505,9.5528,9.5537,9.5576,9.553,9.5473,9.5448,9.5475,9.5472,9.548,9.5385,9.5387,9.5445,9.5427,9.5329,9.5314,9.5226,9.5194,9.5233,9.5244,9.5246,9.5132,9.5112,9.5199,9.5094,9.5072,9.5023,9.5059,9.5118,9.4937,9.506,9.5057,9.5072,9.5006,9.495,9.4858,9.4862,9.4947,9.4946,9.4947,9.4894,9.4856,9.4837,9.4893,9.4872,9.4868,9.4899,9.4832,9.4857,9.4974,9.4924,9.4897,9.483,9.4898,9.4924,9.4859,9.4817,9.4807,9.4833,9.494,9.4943,9.4931,9.4849,9.4805,9.4884,9.4824,9.4862,9.4895,9.488,9.4948,9.4988,9.4963,9.4946,9.4955,9.4939,9.485,9.4966,9.496,9.4892,9.5022,9.4937,9.5006,9.5006,9.4959,9.5034,9.5021,9.5036,9.4956,9.4958,9.4893,9.4982,9.5001,9.5015,9.5001,9.5077,9.505,9.5022,9.5053,9.5005,9.5128,9.5088,9.5109,9.525,9.5313,9.5335,9.5636,9.5799,9.5636,9.5741,9.5764,9.5733,9.581,9.5727,9.5582,9.5552,9.5598,9.5475,9.5264,9.5119,9.5054,9.5048,9.4942,9.5011,9.5004,9.5113,9.5117,9.4942,9.4948,9.5019,9.504,9.5051,9.5121,9.5496,9.6554,9.7985,9.9579,10.119,10.329,10.483,10.406,10.027,9.4692,9.1456,9.1958,9.2902,9.3769,9.5061,9.5676,9.5814,9.5903,9.5983,9.6094,9.6028,9.603,9.6051,9.6185,9.6156,9.6133,9.6149,9.6178,9.6251,9.6386,9.6316,9.6432,9.6454,9.6583,9.6684,9.6624,9.6692,9.6811,9.6789,9.6873,9.6957,9.6994,9.7239,9.7216,9.7288,9.7421,9.7409,9.759,9.7689,9.7852,9.8002,9.8009,9.8056,9.8266,9.8613,9.8665,9.8864,9.8867,9.9063,9.9266,9.9403,9.9419,9.9607,9.9774,9.9991,10.009,9.999,10.017,10.023,10.034,10.03,10.034,10.033,10.026,10.006,9.9819,9.9597,9.9312,9.9036,9.8652,9.833,9.8007,9.7683,9.7282,9.699,9.6731,9.6566,9.6436,9.6283,9.6138,9.603,9.5975,9.6052,9.5955,9.5958,9.5981,9.5917,9.5915,9.5872,9.5923,9.5947,9.6019,9.5996,9.6014,9.5999,9.5984,9.5952,9.6106,9.6054,9.6046,9.6002,9.6075,9.605,9.6054,9.6168,9.6052,9.6036,9.6075,9.602,9.5987,9.6029,9.5877,9.5843,9.5839,9.5801,9.5958,9.5838,9.5795,9.5815,9.5679,9.5806,9.57,9.5732,9.5775,9.5698,9.569,9.5739,9.5686,9.5713,9.5665,9.5654,9.5568,9.5612,9.5566,9.5646,9.5612,9.5575,9.5573,9.5496,9.5517,9.552,9.5513,9.5575,9.5444,9.5456,9.5517,9.5494,9.5507,9.5431,9.5579,9.5533,9.5487,9.5529,9.5363,9.5434,9.541,9.5625,9.5493,9.5772,9.5371,9.5285,9.5396,9.5248,9.537,9.5177,9.538,9.5289,9.5237,9.5166,9.52,9.5222,9.5318,9.5234,9.5322,9.519,9.5227,9.5184,9.5225,9.525,9.5184,9.522,9.5303,9.5088,9.5055,9.5029,9.5108,9.5058,9.5173,9.5114,9.5014,9.4995,9.4808,9.4925,9.5053,9.4899,9.5143,9.5094,9.4968,9.4926,9.4867,9.4931,9.5376,9.488,9.5119,9.5312,9.5214,9.503,9.5057,9.5139,9.5228,9.5211,9.5014,9.4981,9.4744,9.4736,9.4629,9.4199,9.4107,9.4162,9.3888,9.4115,9.3967,9.4091,9.3915,9.3888,9.3709,9.3731,9.3616,9.3687,9.3598,9.3764,9.4422,9.5818,9.6955,9.8386,10.026,10.231,10.327,10.117,9.6518,9.093,8.9574,9.0533,9.1183,9.2314,9.3401,9.3977,9.4198,9.4213,9.405,9.4147,9.4143,9.4366,9.426,9.4312,9.427,9.4288,9.4267,9.4478,9.4527,9.463,9.4501,9.4697,9.4832,9.4846,9.492,9.5021,9.5093,9.5116,9.5187,9.5206,9.5352,9.5512,9.5606,9.5759,9.5622,9.5917,9.6041,9.6138,9.6286,9.6373,9.6497,9.6758,9.6948,9.7028,9.723,9.7343,9.7484,9.7588,9.788,9.8153,9.8147,9.8406,9.8614,9.8698,9.8785,9.891,9.921,9.9233,9.9108,9.9251,9.9214,9.936,9.9337,9.9106,9.8782,9.841,9.824,9.8044,9.7619,9.7232,9.681,9.6551,9.6354,9.608,9.5769,9.5421,9.5335,9.5102,9.4954,9.4799,9.4884,9.4837,9.4844,9.4675,9.458,9.4784,9.4759,9.468,9.4764,9.4598,9.4689,9.4705,9.4717,9.4588,9.4742,9.4614,9.4726,9.4778,9.4797,9.4667,9.467,9.4647,9.4764,9.4653,9.4693,9.4549,9.4507,9.4439,9.4685,9.4481,9.4581,9.4587,9.4491,9.4541,9.4554,9.4415,9.436,9.4415,9.4324,9.4341,9.4393,9.4207,9.4207,9.4307,9.4193,9.4128,9.4126,9.4083,9.4241,9.4194,9.4225,9.4251,9.3991,9.3842,9.3897,9.4042,9.4027,9.3894,9.4175,9.4002,9.361,9.393,9.4036,9.3863,9.3807,9.3791,9.3725,9.3858,9.3796,9.3768,9.36,9.3731,9.3625,9.3851,9.3733,9.3656,9.3733,9.372,9.3685,9.3642,9.3628,9.359,9.3732,9.3736,9.3588,9.3503,9.3492,9.3542,9.3593,9.3746,9.3534,9.347,9.3477,9.3477,9.3512,9.3555,9.3549,9.3343,9.3447,9.3391,9.335,9.3486,9.3342,9.33,9.3521,9.3555,9.3444,9.3368,9.3409,9.3554,9.342,9.3485,9.3331,9.354,9.3603,9.3671,9.3627,9.3986,9.4114,9.4014,9.3954,9.4059,9.3814,9.3855,9.3817,9.3735,9.3733,9.367,9.3565,9.3307,9.3262,9.3169,9.32,9.3182,9.3105,9.3111,9.3192,9.3275,9.3028,9.3149,9.3224,9.3122,9.3176,9.382,9.4977,9.6421,9.7955,9.9744,10.074,10.22,10.187,9.8736,9.3203,8.9037,8.9949,9.1106,9.181,9.2689,9.3576,9.3894,9.4235,9.3942,9.3983,9.3956,9.4131,9.4163,9.4267,9.4124,9.4189,9.42,9.4271,9.4308,9.4253,9.44,9.4437,9.4483,9.453,9.454,9.4732,9.4542,9.4617,9.4801,9.4891,9.5,9.5009,9.5207,9.5129,9.5085,9.5213,9.5366,9.549,9.552,9.5713,9.5764,9.5842,9.6096,9.6144,9.6326,9.6405,9.6555,9.6883,9.6928,9.7132,9.7251,9.7455,9.7668,9.7862,9.7959,9.8077,9.8175,9.8385,9.8404,9.8506,9.8682,9.8727,9.8916,9.8768,9.8624,9.852,9.8213,9.7921,9.7616,9.7273,9.7168,9.6743,9.6415,9.6037,9.5772,9.5651,9.545,9.5226,9.5106,9.4778,9.4798,9.4714,9.4578,9.4618,9.4577,9.4545,9.4344,9.442,9.4387,9.4428,9.4284,9.4223,9.441,9.4324,9.4385,9.4378,9.4297,9.4304,9.4275,9.4267,9.4234,9.4127,9.4309,9.4316,9.415,9.4153,9.4189,9.4032,9.4119,9.4074,9.3977,9.3879,9.3861,9.3861,9.3869,9.3936,9.3814,9.3763,9.3735,9.3654,9.3667,9.3672,9.3678,9.3771,9.3576,9.3659,9.3541,9.3462,9.3594,9.3546,9.3555,9.3382,9.3483,9.3437,9.3472,9.3395,9.3282,9.3267,9.3336,9.3453,9.3314,9.3391,9.3294,9.3516,9.3312,9.3214,9.3268,9.3197,9.3322,9.3318,9.3373,9.3278,9.3247,9.3291,9.3281,9.3167,9.3313,9.3237,9.3096,9.3184,9.3316,9.3109,9.3099,9.3195,9.3301,9.3206,9.321,9.3151,9.326,9.3147,9.3145,9.3133,9.3102,9.3108,9.3183,9.318,9.315,9.3283,9.3312,9.3301,9.3307,9.3447,9.3668,9.373,9.3674,9.375,9.3723,9.3703,9.3782,9.3599,9.3435,9.3478,9.3331,9.3121,9.2992,9.2961,9.2849,9.2952,9.2846,9.2863,9.2911,9.2997,9.2972,9.2806,9.2868,9.2959,9.2866,9.2911,9.3408,9.4522,9.5934,9.7384,9.8972,10.092,10.201,10.087,9.9429,9.4573,8.9346,8.9394,9.0721,9.1296,9.2075,9.3192,9.4098,9.3933,9.392,9.4002,9.3753,9.3977,9.3981,9.4046,9.4007,9.4124,9.4156,9.4303,9.4215,9.434,9.4299,9.4449,9.4295,9.4243,9.4427,9.4459,9.4644,9.4807,9.4879,9.4813,9.4819,9.5111,9.5182,9.5201,9.5258,9.5301,9.5437,9.5584,9.5625,9.5851,9.5858,9.5969,9.6038,9.6319,9.644,9.6638,9.6717,9.6871,9.7122,9.7158,9.746,9.7639,9.78,9.7807,9.7929,9.7994,9.809,9.8149,9.8152,9.8306,9.8323,9.843,9.834,9.8177,9.7876,9.7651,9.7311,9.6984,9.6562,9.6206,9.5662,9.5348,9.5073,9.477,9.4496,9.4257,9.4087,9.4102,9.4047,9.3878,9.3709,9.3607,9.3689,9.3624,9.3657,9.3521,9.3468,9.3595,9.3654,9.3544,9.3627,9.3597,9.371,9.3629,9.3702,9.3635,9.3645,9.3706,9.3758,9.3624,9.3674,9.3683,9.3716,9.3724,9.3712,9.3599,9.3664,9.3712,9.3697,9.3779,9.3538,9.3567,9.3549,9.3467,9.3582,9.3546,9.3576,9.3456,9.3524,9.3411,9.3456,9.3294,9.3446,9.3411,9.3486,9.3385,9.3329,9.3357,9.3401,9.3445,9.3237,9.3428,9.3119,9.3272,9.3335,9.3229,9.323,9.314,9.3236,9.3224,9.3225,9.3216,9.3237,9.3284,9.3294,9.3166,9.3139,9.3115,9.3235,9.3258,9.3214,9.3154,9.3215,9.3168,9.3253,9.3311,9.3142,9.299,9.3101,9.3139,9.3193,9.3184,9.3164,9.3205,9.3255,9.3338,9.3202,9.3066,9.3088,9.3164,9.3164,9.3118,9.3133,9.3132,9.3104,9.3165,9.328,9.3116,9.3227,9.328,9.3212,9.3146,9.3146,9.3313,9.3362,9.3365,9.337,9.3337,9.3457,9.371,9.386,9.3833,9.3934,9.378,9.3643,9.3871,9.3803,9.3639,9.3621,9.3487,9.3541,9.3428,9.3187,9.3132,9.3046,9.3147,9.3102,9.2856,9.2855,9.2959,9.2933,9.2989,9.287,9.2913,9.3063,9.3372,9.4251,9.5627,9.6318,9.782,9.9721,10.171,10.264,10.107,9.7028,9.1311,8.9123,9.0146,9.0835,9.1796,9.3099,9.3828,9.3902,9.4015,9.4017,9.4087,9.3952,9.4025,9.4003,9.4238,9.4006,9.4213,9.4053,9.4196,9.428,9.4385,9.4485,9.4313,9.4392,9.4512,9.4579,9.46,9.4718,9.4827,9.4829,9.4989,9.5038,9.5109,9.517,9.5148,9.5131,9.529,9.5399,9.5679,9.5873,9.5912,9.5983,9.6009,9.6078,9.6448,9.6458,9.6586,9.697,9.6993,9.7162,9.725,9.7403,9.7594,9.7879,9.7792,9.7993,9.8053,9.8204,9.8152,9.82,9.8292,9.8313,9.8303,9.8228,9.8074,9.7899,9.7503,9.7195,9.6751,9.6198,9.593,9.5679,9.5384,9.4969,9.4724,9.4681,9.4351,9.422,9.3942,9.3855,9.3749,9.3625,9.3507,9.3469,9.3412,9.352,9.3445,9.3542,9.3331,9.3451,9.3492,9.3551,9.3699,9.3699,9.3614,9.3432,9.3608,9.371,9.3661,9.3699,9.3664,9.3672,9.3578,9.3613,9.3733,9.3634,9.363,9.3556,9.3749,9.374,9.3585,9.3628,9.3605,9.3423,9.332,9.3418,9.3424,9.3581,9.3405,9.3206,9.3335,9.3294,9.3348,9.3262,9.3298,9.3087,9.3247,9.3235,9.323,9.3049,9.3089,9.313,9.3102,9.3133,9.3016,9.3031,9.3016,9.3102,9.2896,9.2967,9.3037,9.3043,9.3015,9.2988,9.3054,9.3031,9.3001,9.2896,9.3065,9.2994,9.2931,9.2981,9.3003,9.2994,9.2956,9.3024,9.2983,9.3122,9.2884,9.2975,9.2941,9.2899,9.2852,9.2907,9.2987,9.2936,9.2792,9.2898,9.3064,9.298,9.2952,9.2978,9.2949,9.2942,9.2928,9.2916,9.2945,9.3002,9.3037,9.2959,9.3079,9.3071,9.3009,9.2985,9.305,9.2994,9.3093,9.3134,9.3143,9.3347,9.3284,9.3364,9.3692,9.3624,9.3642,9.3733,9.3643,9.3654,9.3653,9.3646,9.3519,9.3443,9.3328,9.3263,9.3029,9.3012,9.2901,9.283,9.2959,9.2844,9.286,9.2865,9.2911,9.288,9.2921,9.2905,9.2926,9.2977,9.3551,9.482,9.6287,9.7664,9.943,10.179,10.291,10.116,9.6685,9.1119,8.9295,9.0068,9.0971,9.2003,9.3292,9.382,9.3938,9.4065,9.4007,9.4099,9.4039,9.4141,9.4213,9.4217,9.4198,9.4281,9.4322,9.4405,9.4401,9.4408,9.4424,9.4664,9.4751,9.4669,9.4767,9.4894,9.4862,9.4937,9.5021,9.5183,9.5314,9.5334,9.5397,9.5458,9.5655,9.5837,9.5819,9.5896,9.6048,9.6195,9.6342,9.645,9.6646,9.6785,9.6782,9.7015,9.7111,9.7186,9.7392,9.7626,9.787,9.8044,9.8168,9.8183,9.8309,9.8467,9.8564,9.8722,9.8735,9.8647,9.8764,9.8929,9.867,9.8554,9.8426,9.8009,9.7925,9.7731,9.7156,9.6774,9.6574,9.6195,9.5761,9.5444,9.5165,9.4907,9.4816,9.4616,9.4492,9.4318,9.4211,9.4134,9.4159,9.396,9.4117,9.4063,9.4154,9.4201,9.4196,9.4167,9.4166,9.4158,9.413,9.4165,9.4076,9.4128,9.4066,9.4264,9.4177,9.4119,9.4045,9.3987,9.4289,9.426,9.4047,9.3981,9.4248,9.4441,9.4287,9.4084,9.4027,9.429,9.4342,9.4254,9.4256,9.4251,9.428,9.4363,9.4402,9.431,9.4328,9.439,9.4441,9.4452,9.4302,9.4282,9.4235,9.43,9.4389,9.4403,9.4188,9.4195,9.4407,9.4382,9.4207,9.4209,9.4143,9.4212,9.4123,9.4267,9.4179,9.4199,9.428,9.4193,9.4154,9.4253,9.4175,9.4151,9.415,9.4187,9.424,9.4232,9.4123,9.4223,9.4171,9.4134,9.4084,9.4177,9.4246,9.4273,9.425,9.4121,9.4135,9.4166,9.4338,9.4309,9.4169,9.4194,9.4243,9.4148,9.4025,9.396,9.4079,9.421,9.4279,9.4201,9.4114,9.4217,9.4093,9.4113,9.4289,9.4244,9.4228,9.4138,9.4253,9.4335,9.4398,9.4444,9.4569,9.4867,9.4842,9.4658,9.4859,9.4845,9.4771,9.4699,9.4548,9.4486,9.4448,9.4364,9.4091,9.3964,9.3951,9.3876,9.3899,9.3806,9.3794,9.3844,9.387,9.386,9.3827,9.3814,9.381,9.3988,9.4629,9.5893,9.7258,9.8688,10.065,10.267,10.339,10.126,9.6758,9.1246,8.9866,9.098,9.1754,9.2085,9.3356,9.441,9.4585,9.4721,9.4575,9.4563,9.4606,9.4747,9.4694,9.4892,9.4794,9.4815,9.479,9.4765,9.4781,9.5022,9.5024,9.5005,9.5076,9.5097,9.5166,9.5267,9.533,9.5336,9.541,9.5551,9.5583,9.5634,9.573,9.5647,9.5824,9.6076,9.6076,9.6187,9.6157,9.6297,9.6442,9.6595,9.6725,9.6853,9.6976,9.7112,9.7236,9.7365,9.7466,9.7701,9.7946,9.8009,9.8103,9.8363,9.8438,9.8446,9.8515,9.8709,9.8646,9.8634,9.8771,9.8869,9.8834,9.8722,9.8508,9.817,9.8006,9.7618,9.7059,9.7007,9.6544,9.5983,9.5708,9.5462,9.5126,9.4939,9.4729,9.4557,9.4526,9.4455,9.4404,9.4273,9.4334,9.4241,9.427,9.4046,9.4134,9.4417,9.4278,9.4179,9.4132,9.4268,9.4357,9.4292,9.4425,9.4338,9.4454,9.4191,9.4297,9.4306,9.4265,9.4392,9.4397,9.4388,9.4371,9.4303,9.4292,9.4282,9.4241,9.4249,9.4131,9.4148,9.4175,9.4054,9.409,9.4042,9.4026,9.4126,9.4085,9.398,9.3987,9.3934,9.3968,9.4032,9.3916,9.3873,9.3846,9.3869,9.3895,9.3796,9.3773,9.3773,9.3804,9.3774,9.3846,9.3623,9.3429,9.3725,9.3546,9.3645,9.3599,9.3643,9.363,9.3422,9.3334,9.3314,9.3484,9.34,9.3321,9.3432,9.3293,9.3316,9.3508,9.3299,9.3392,9.344,9.349,9.3478,9.3401,9.3417,9.3569,9.3548,9.3508,9.37,9.3761,9.395,9.3972,9.3901,9.3925,9.4012,9.3911,9.3915,9.3745,9.3557,9.3501,9.3293,9.3394,9.3221,9.303,9.3174,9.3003,9.2882,9.2987,9.3109,9.3075,9.3137,9.2958,9.2912,9.3048,9.3173,9.3305,9.4386,9.5713,9.7239,9.8635,10.045,10.182,10.084,9.7927,9.224,8.8854,8.9869,9.0902,9.1806,9.2129,9.2984,9.3691,9.4015,9.3996,9.3962,9.4073,9.3993,9.4051,9.4105,9.4198,9.4318,9.4251,9.4283,9.4413,9.43,9.4313,9.4361,9.455,9.4563,9.4639,9.4618,9.4686,9.4674,9.4873,9.4968,9.5132,9.5078,9.5147,9.5268,9.5353,9.5482,9.5472,9.552,9.5762,9.5855,9.6087,9.6107,9.6225,9.6337,9.6451,9.6663,9.6741,9.7022,9.7133,9.7261,9.748,9.7529,9.7707,9.7807,9.7943,9.8131,9.8148,9.8131,9.8153,9.8243,9.8292,9.8259,9.8184,9.8132,9.8058,9.765,9.7199,9.6869,9.648,9.6112,9.5652,9.5343,9.4966,9.478,9.4585,9.4208,9.4069,9.3889,9.3855,9.3708,9.3791,9.3721,9.3593,9.3523,9.3467,9.3575,9.3528,9.3544,9.364,9.3669,9.3681,9.3695,9.3636,9.3725,9.3717,9.367,9.3736,9.3729,9.3703,9.3676,9.3756,9.3681,9.3565,9.3701,9.3703,9.3738,9.3754,9.3708,9.3487,9.3626,9.3933,9.3627,9.3552,9.3654,9.3618,9.3514,9.3603,9.3442,9.347,9.3508,9.3256,9.3389,9.34,9.3071,9.3165,9.3199,9.3252,9.315,9.3174,9.3202,9.3006,9.3095,9.3121,9.3473,9.3233,9.3169,9.3206,9.3146,9.2897,9.2883,9.2858,9.2924,9.2715,9.2681,9.2694,9.2807,9.2807,9.264,9.2657,9.2664,9.2863,9.2912,9.2665,9.2589,9.2919,9.3214,9.31,9.2989,9.3166,9.2945,9.292,9.2826,9.2773,9.2663,9.2711,9.2611,9.2487,9.2277,9.2106,9.2024,9.2111,9.2068,9.2139,9.198,9.2092,9.2155,9.2144,9.2129,9.2026,9.2201,9.2468,9.3536,9.4986,9.6358,9.7977,9.893,10.056,10.137,9.9301,9.4941,8.9257,8.8575,8.9684,9.0281,9.1276,9.2227,9.3062,9.3081,9.3313,9.3091,9.3163,9.3256,9.3151,9.3296,9.3419,9.3388,9.3596,9.357,9.3434,9.3376,9.347,9.3497,9.3761,9.3852,9.3827,9.3976,9.3866,9.3875,9.3922,9.4069,9.428,9.4343,9.4302,9.4664,9.4562,9.4587,9.4826,9.4955,9.5017,9.5034,9.5165,9.5369,9.5438,9.5656,9.5852,9.614,9.6004,9.6161,9.6505,9.6693,9.6894,9.7007,9.721,9.7273,9.7514,9.7467,9.7664,9.7573,9.7664,9.772,9.7861,9.7744,9.7698,9.7582,9.711,9.6742,9.6526,9.6207,9.5889,9.5447,9.5047,9.4512,9.428,9.4035,9.3726,9.3744,9.3485,9.3247,9.3148,9.3132,9.2882,9.3012,9.2943,9.2884,9.2737,9.2882,9.3015,9.3002,9.2824,9.2786,9.2786,9.2907,9.2893,9.2979,9.2922,9.2922,9.2979,9.2841,9.2943,9.2841,9.2846,9.2902,9.281,9.2824,9.2597,9.2597,9.2848,9.2742,9.2674,9.2764,9.27,9.2641,9.2517,9.256,9.2667,9.2581,9.2544,9.2537,9.2558,9.2591,9.2411,9.2407,9.2419,9.2443,9.2701,9.2461,9.2361,9.2431,9.2437,9.2389,9.2375,9.2444,9.2444,9.2506,9.2284,9.2311,9.2378,9.2438,9.2348,9.2299,9.235,9.2431,9.2546,9.2422,9.229,9.2229,9.2471,9.2434,9.2381,9.2461,9.2379,9.2412,9.2532,9.2396,9.2367,9.229,9.2365,9.2492,9.2422,9.248,9.2652,9.2652,9.2705,9.3044,9.3145,9.3014,9.3022,9.3007,9.3225,9.3039,9.2921,9.2743,9.2846,9.29,9.2605,9.248,9.2594,9.2453,9.222,9.1969,9.2096,9.2276,9.2254,9.1995,9.1931,9.2087,9.1915,9.2001,9.2099,9.2445,9.3374,9.4833,9.6249,9.7748,9.9604,10.08,10.162,9.9336,9.4481,8.8934,8.7925,8.9093,8.9882,9.0989,9.2185,9.262,9.2659,9.2846,9.2576,9.292,9.2647,9.2801,9.2697,9.2929,9.2996,9.3142,9.2905,9.3025,9.2847,9.2996,9.3104,9.3207,9.3132,9.3208,9.3325,9.3391,9.3325,9.3507,9.3593,9.3715,9.3638,9.3821,9.3852,9.4024,9.4025,9.4107,9.415,9.4233,9.4367,9.4513,9.4521,9.4861,9.4955,9.5058,9.511,9.5307,9.5484,9.5521,9.5663,9.5779,9.6113,9.6092,9.6271,9.6357,9.6436,9.647,9.6658,9.6691,9.681,9.6814,9.6694,9.6672,9.6632,9.645,9.6306,9.5677,9.5414,9.4852,9.4368,9.4235,9.4056,9.3592,9.3155,9.2917,9.2679,9.2568,9.2538,9.2409,9.2196,9.2373,9.2352,9.2137,9.1957,9.2015,9.2045,9.2054,9.2153,9.2095,9.2146,9.2121,9.1939,9.191,9.215,9.2211,9.2213,9.217,9.1979,9.1903,9.1944,9.1999,9.2047,9.2108,9.1761,9.1744,9.1832,9.1966,9.1821,9.1622,9.1593,9.1578,9.1739,9.1456,9.1427,9.1435,9.1619,9.1416,9.1301,9.1272,9.1349,9.1105,9.12,9.1228,9.1237,9.1074,9.1184,9.1119,9.1174,9.0863,9.0983,9.1031,9.1102,9.0967,9.0966,9.1186,9.089,9.079,9.0786,9.0905,9.0801,9.09,9.1085,9.0864,9.0848,9.0802,9.0945,9.0723,9.084,9.1017,9.0892,9.0916,9.1015,9.1198,9.1334,9.1452,9.1584,9.1497,9.1468,9.1573,9.1955,9.1937,9.1756,9.1825,9.1829,9.1907,9.1781,9.1753,9.1755,9.1588,9.134,9.133,9.1114,9.1165,9.096,9.0946,9.0889,9.0999,9.0998,9.1015,9.0863,9.0848,9.0776,9.085,9.0852,9.0879,9.1219,9.2057,9.3573,9.5317,9.6762,9.8641,10.024,9.9782,9.6289,9.0543,8.7016,8.7604,8.8206,8.8971,9.0125,9.1297,9.1802,9.192,9.208,9.2121,9.2254,9.1994,9.2016,9.2138,9.2389,9.2193,9.2313,9.2445,9.2354,9.2371,9.2399,9.2555,9.2616,9.2623,9.2732,9.2686,9.2778,9.3024,9.3063,9.3194,9.3202,9.3476,9.3483,9.3638,9.3572,9.3894,9.3779,9.3967,9.4139,9.434,9.446,9.4549,9.479,9.4835,9.5098,9.5186,9.5403,9.5542,9.5645,9.5872,9.5875,9.605,9.6403,9.6544,9.65,9.6599,9.6546,9.673,9.6719,9.6706,9.6707,9.6762,9.6817,9.664,9.6411,9.5958,9.5589,9.5207,9.503,9.4594,9.4102,9.3734,9.3409,9.3021,9.2915,9.2657,9.2569,9.2412,9.24,9.2241,9.2092,9.2129,9.2138,9.1998,9.2112,9.2149,9.1824,9.1953,9.2009,9.2107,9.2031,9.1859,9.1876,9.1904,9.1914,9.1975,9.1931,9.1878,9.1917,9.1883,9.1937,9.1655,9.1746,9.1852,9.1691,9.1666,9.1806,9.1696,9.1665,9.1704,9.1662,9.148,9.1415,9.1432,9.1457,9.1496,9.1438,9.1207,9.1386,9.1257,9.11,9.1336,9.13,9.1226,9.1462,9.1427,9.135,9.1419,9.1338,9.1274,9.1273,9.1205,9.1305,9.1347,9.1495,9.1377,9.126,9.1145,9.1265,9.1237,9.1397,9.1428,9.1299,9.1211,9.1382,9.1764,9.1778,9.1984,9.1791,9.2268,9.2018,9.1826,9.2345,9.2662,9.2696,9.2528,9.2335,9.2464,9.2592,9.2606,9.2477,9.219,9.2162,9.2096,9.2178,9.1927,9.1872,9.185,9.1774,9.1889,9.1861,9.1901,9.1901,9.1984,9.1914,9.1941,9.2131,9.2332,9.3036,9.4636,9.6533,9.8046,9.9895,10.125,10.291,10.294,9.9989,9.4682,8.9958,9.0523,9.1612,9.2048,9.3253,9.4348,9.4348,9.426,9.4113,9.4199,9.4165,9.4144,9.4113,9.3974,9.389,9.3863,9.3952,9.3942,9.3923,9.3863,9.3974,9.3996,9.3998,9.3975,9.4164,9.3914,9.4044,9.4014,9.4185,9.4346,9.4281,9.4264,9.4362,9.4436,9.4578,9.4565,9.4677,9.4685,9.4924,9.5006,9.5037,9.5047,9.5193,9.5374,9.5617,9.562,9.5616,9.5927,9.5974,9.6363,9.6358,9.6412,9.6572,9.6596,9.6765,9.6817,9.6848,9.701,9.7114,9.7093,9.7206,9.6918,9.6995,9.6798,9.6519,9.6214,9.5728,9.5498,9.5015,9.4652,9.4326,9.3985,9.3694,9.3367,9.3257,9.3155,9.2898,9.2812,9.2593,9.2644,9.2608,9.2467,9.2502,9.2439,9.2367,9.2505,9.2437,9.2427,9.258,9.2577,9.2414,9.2325,9.2502,9.2585,9.2424,9.2602,9.2561,9.2624,9.2416,9.2594,9.2452,9.2515,9.2373,9.2417,9.2574,9.2469,9.249,9.2332,9.2281,9.2357,9.2292,9.2071,9.2261,9.2171,9.222,9.2302,9.2163,9.2031,9.2121,9.2147,9.2022,9.2055,9.1887,9.1996,9.1853,9.2174,9.2373,9.2365,9.2254,9.2328,9.2407,9.2322,9.2602,9.2773,9.2869,9.2902,9.2717,9.245,9.2528,9.2295,9.2386,9.2119,9.1988,9.1824,9.1704,9.155,9.1399,9.1683,9.1608,9.1534,9.164,9.1454,9.1282,9.118,9.1403,9.1398,9.148,9.127,9.1098,9.1458,9.1956,9.2981,9.4486,9.5735,9.7483,9.9378,9.9816,9.7692,9.3531,8.7961,8.7446,8.873,8.9145,9.0159,9.0822,9.1325,9.2024,9.2244,9.2218,9.2143,9.2117,9.2163,9.2079,9.2184,9.2337,9.2412,9.2218,9.2542,9.2354,9.2501,9.2523,9.2656,9.2481,9.268,9.2604,9.2902,9.288,9.2949,9.3012,9.324,9.3251,9.3409,9.3404,9.3484,9.3677,9.364,9.4003,9.4013,9.4193,9.441,9.4576,9.4676,9.469,9.4797,9.4845,9.4935,9.5146,9.5469,9.5508,9.5824,9.61,9.6264,9.6176,9.6365,9.6307,9.6547,9.6624,9.6769,9.6928,9.6775,9.6608,9.6632,9.6329,9.5871,9.5498,9.5324,9.4927,9.4788,9.4304,9.3906,9.3504,9.3135,9.3021,9.2767,9.2596,9.2417,9.2474,9.2307,9.2131,9.2058,9.2289,9.2196,9.2288,9.2278,9.2223,9.2065,9.2121,9.1999,9.2205,9.2112,9.2059,9.2155,9.2243,9.2275,9.2163,9.2206,9.2243,9.2125,9.2156,9.1729,9.1932,9.1992,9.1937,9.1908,9.1946,9.1681,9.1569,9.1631,9.1749,9.1495,9.1221,9.1319,9.1481,9.1118,9.1096,9.1411,9.1093,9.1344,9.102,9.0962,9.0953,9.0875,9.1057,9.0984,9.0896,9.0587,9.0734,9.0824,9.0732,9.1007,9.0622,9.0622,9.0641,9.0773,9.0887,9.1023,9.1177,9.1119,9.1249,9.0985,9.1069,9.1371,9.1494,9.1456,9.1433,9.1345,9.1306,9.145,9.1217,9.1139,9.1124,9.0964,9.0972,9.073,9.0558,9.0542,9.0589,9.0704,9.0756,9.0866,9.0682,9.0504,9.0742,9.0651,9.0733,9.0879,9.0898,9.0908,9.1303,9.2366,9.3705,9.5196,9.6708,9.8627,9.9856,9.8866,9.565,8.9729,8.7149,8.8115,8.8923,8.9761,9.0658,9.1537,9.2178,9.192,9.1945,9.2144,9.2095,9.2204,9.2063,9.2096,9.2256,9.2273,9.2307,9.2387,9.2511,9.2676,9.2652,9.281,9.257,9.2875,9.2796,9.2879,9.3121,9.3414,9.3271,9.3256,9.3321,9.3431,9.3552,9.3772,9.3818,9.3891,9.4036,9.4133,9.4083,9.4237,9.4413,9.4713,9.4839,9.4964,9.5097,9.508,9.528,9.5621,9.5581,9.5796,9.5867,9.6014,9.6262,9.6064,9.6388,9.6405,9.6453,9.6668,9.65,9.6811,9.6554,9.6509,9.6433,9.6101,9.6011,9.5424,9.5305,9.4694,9.4402,9.4213,9.3788,9.3565,9.326,9.2959,9.2754,9.2566,9.2435,9.2373,9.214,9.2031,9.2006,9.1981,9.225,9.198,9.2139,9.2155,9.192,9.1976,9.2136,9.2215,9.2257,9.2159,9.2177,9.2197,9.2146,9.2263,9.2167,9.2166,9.206,9.2257,9.2461,9.2143,9.2135,9.2162,9.2348,9.216,9.218,9.2221,9.2194,9.2125,9.2041,9.2186,9.2161,9.2071,9.1947,9.2014,9.2029,9.1861,9.1875,9.196,9.2004,9.1871,9.1857,9.2003,9.1837,9.1597,9.1781,9.1738,9.1694,9.1856,9.1727,9.1879,9.1853,9.1813,9.1822,9.1747,9.1764,9.1716,9.1689,9.1699,9.1704,9.1888,9.1808,9.1705,9.1886,9.1858,9.17,9.1749,9.1789,9.184,9.1922,9.2128,9.2263,9.2468,9.2487,9.2163,9.2155,9.2636,9.2804,9.2894,9.2658,9.253,9.2547,9.2534,9.2349,9.2361,9.2238,9.2318,9.2109,9.1927,9.1791,9.1809,9.1813,9.1857,9.1773,9.1653,9.1644,9.1825,9.1778,9.1834,9.1758,9.1645,9.1837,9.1819,9.1932,9.3275,9.4916,9.6064,9.7977,9.8843,10.074,10.122,9.8958,9.4084,8.8565,8.8046,8.9332,8.9844,9.0923,9.1991,9.2723,9.269,9.2785,9.2645,9.2801,9.2784,9.2894,9.2827,9.3063,9.3086,9.3065,9.2981,9.3035,9.3132,9.3204,9.3271,9.3423,9.3257,9.3426,9.3502,9.3428,9.3734,9.3754,9.3807,9.3909,9.4108,9.4044,9.4277,9.4408,9.4445,9.4343,9.4395,9.4639,9.4766,9.483,9.498,9.5138,9.5389,9.541,9.5547,9.5679,9.5743,9.5968,9.6175,9.6241,9.6452,9.6565,9.6617,9.672,9.6752,9.7,9.6965,9.7088,9.7197,9.7273,9.7124,9.721,9.6946,9.6587,9.6376,9.6239,9.5859,9.5278,9.5027,9.4666,9.4285,9.3851,9.383,9.3617,9.3551,9.3264,9.3156,9.3033,9.2991,9.3034,9.2894,9.2896,9.2823,9.267,9.2604,9.2758,9.2778,9.2742,9.2812,9.2767,9.2988,9.2715,9.2879,9.282,9.278,9.2921,9.2906,9.2902,9.2938,9.2923,9.3056,9.2872,9.2867,9.2966,9.2808,9.2809,9.3117,9.2828,9.2777,9.2744,9.2804,9.269,9.2649,9.2922,9.2772,9.2611,9.2641,9.272,9.2656,9.2531,9.2669,9.2581,9.2609,9.257,9.2521,9.2436,9.2543,9.2725,9.2433,9.2542,9.2558,9.2415,9.2407,9.2599,9.2527,9.2669,9.245,9.2461,9.2481,9.2642,9.2539,9.2692,9.2507,9.2523,9.2604,9.2569,9.2499,9.247,9.2565,9.2521,9.2559,9.2451,9.2546,9.253,9.2454,9.2401,9.2457,9.2353,9.2352,9.2477,9.2564,9.2558,9.2425,9.2677,9.2649,9.2618,9.2558,9.2411,9.255,9.2747,9.2293,9.2365,9.2562,9.2479,9.2624,9.2585,9.2592,9.2574,9.2438,9.2439,9.2557,9.2541,9.26,9.2597,9.2686,9.2705,9.2637,9.2584,9.2546,9.2625,9.2621,9.2584,9.2658,9.2588,9.2595,9.2641,9.2652,9.2621,9.2766,9.2488,9.272,9.2808,9.276,9.2804,9.2876,9.2887,9.3107,9.3073,9.2982,9.3258,9.3388,9.3445,9.3401,9.3381,9.3302,9.3365,9.3388,9.3393,9.3232,9.3248,9.3201,9.2988,9.291,9.2904,9.2708,9.2652,9.2613,9.2835,9.2629,9.2703,9.2828,9.2963,9.2755,9.2779,9.2932,9.3216,9.4182,9.5386,9.7063,9.8514,10.059,10.238,10.213,9.8984,9.379,8.9436,8.9688,9.1016,9.1498,9.2604,9.35,9.3867,9.4041,9.4,9.3899,9.3997,9.4081,9.42,9.4295,9.4163,9.4083,9.4202,9.4388,9.4342,9.4291,9.418,9.4323,9.4552,9.4509,9.4731,9.4726,9.4822,9.4885,9.491,9.5041,9.5108,9.5047,9.5239,9.5351,9.5429,9.5445,9.556,9.5665,9.5784,9.5826,9.6089,9.6063,9.6239,9.6184,9.6476,9.6669,9.6615,9.6792,9.6989,9.7173,9.7318,9.7232,9.7473,9.7523,9.7765,9.7805,9.7888,9.7895,9.8034,9.8121,9.8096,9.8147,9.8118,9.8123,9.7991,9.7879,9.7526,9.7233,9.6974,9.6541,9.6426,9.623,9.5803,9.55,9.5279,9.4943,9.4624,9.4414,9.4351,9.445,9.4135,9.4117,9.4145,9.4075,9.4156,9.4057,9.3973,9.4193,9.4256,9.4119,9.4017,9.4036,9.4172,9.4202,9.4194,9.4228,9.4134,9.4272,9.4214,9.4274,9.423,9.429,9.4364,9.4409,9.4385,9.4341,9.4202,9.4246,9.4076,9.421,9.4235,9.4237,9.4005,9.4275,9.4206,9.4212,9.4178,9.4136,9.4086,9.4024,9.4043,9.3956,9.3974,9.3918,9.4015,9.3957,9.3963,9.4038,9.3924,9.4067,9.3845,9.3888,9.3939,9.3971,9.4047,9.3897,9.3736,9.3843,9.3939,9.4081,9.3873,9.3761,9.3874,9.3961,9.3919,9.3842,9.3885,9.3822,9.3985,9.3846,9.3819,9.3758,9.3887,9.3883,9.3857,9.3822,9.3893,9.3872,9.3943,9.3913,9.3986,9.3855,9.3959,9.3868,9.3891,9.3954,9.3763,9.3802,9.3796,9.409,9.4039,9.3861,9.397,9.3966,9.4036,9.3988,9.4143,9.4031,9.4047,9.4081,9.4029,9.4024,9.4034,9.4088,9.4114,9.4224,9.4183,9.4091,9.4244,9.4079,9.4071,9.4054,9.408,9.4338,9.4293,9.4221,9.4301,9.4392,9.4495,9.4537,9.5017,9.4677,9.4934,9.4896,9.4798,9.4863,9.4839,9.4884,9.4738,9.4795,9.4781,9.4708,9.4534,9.4415,9.4206,9.4212,9.4258,9.4321,9.4124,9.4209,9.432,9.4342,9.4216,9.4382,9.4264,9.4433,9.4967,9.6102,9.7502,9.9041,9.9802,10.172,10.365,10.362,10.058,9.5544,9.0908,9.0877,9.215,9.2753,9.4054,9.4965,9.5266,9.5361,9.5465,9.5202,9.5473,9.5374,9.5404,9.5442,9.553,9.543,9.5674,9.5643,9.5667,9.5495,9.566,9.5732,9.5833,9.5786,9.5912,9.6048,9.6042,9.6064,9.6208,9.6264,9.6431,9.6426,9.6403,9.6514,9.651,9.6651,9.6723,9.6805,9.6817,9.7064,9.7274,9.7364,9.7386,9.7543,9.7632,9.7737,9.8032,9.8069,9.8189,9.8342,9.8384,9.8679,9.8937,9.8883,9.8887,9.9004,9.9215,9.9172,9.9167,9.9185,9.9274,9.9277,9.9352,9.93,9.902,9.8877,9.8567,9.8095,9.7679,9.7332,9.6977,9.6632,9.6319,9.6131,9.5959,9.5709,9.5416,9.5311,9.5191,9.4986,9.4884,9.5007,9.4976,9.4834,9.4841
