2.232,2.2318,2.2265,2.242,2.2276,2.2431,2.2407,2.2798,2.2851,2.2682,2.2572,2.2775,2.2623,2.305,2.3302,2.2989,2.28,2.2862,2.2801,2.2891,2.2579,2.2562,2.2721,2.2127,2.2261,2.2087,2.2082,2.1997,2.1956,2.2029,2.2008,2.2015,2.2138,2.2144,2.2185,2.2084,2.199,2.1885,2.2044,2.2163,2.1803,2.0814,2.0364,2.058,2.14,2.3457,2.7505,3.1456,3.4525,3.5933,3.7453,3.6564,3.0829,2.5013,2.0333,1.831,1.7212,1.7023,1.8084,1.9313,2.1021,2.1763,2.2073,2.1953,2.222,2.2192,2.2039,2.2156,2.2351,2.2442,2.2435,2.2423,2.2421,2.2357,2.2602,2.255,2.2594,2.2341,2.2394,2.2518,2.2543,2.2635,2.2423,2.2412,2.2452,2.268,2.2563,2.2493,2.2294,2.2411,2.2562,2.2513,2.2551,2.2592,2.2764,2.2611,2.2646,2.2603,2.2637,2.253,2.2742,2.2743,2.2388,2.2481,2.2525,2.2844,2.2537,2.2536,2.2548,2.2576,2.2581,2.254,2.2567,2.2468,2.2657,2.273,2.2689,2.2779,2.2697,2.2755,2.2973,2.3016,2.3002,2.2957,2.3219,2.3374,2.3168,2.3217,2.3214,2.3335,2.3301,2.3275,2.3274,2.3219,2.3067,2.3116,2.3153,2.3011,2.292,2.2826,2.2789,2.3082,2.2863,2.2721,2.2809,2.2742,2.2785,2.2931,2.2864,2.2654,2.2832,2.2761,2.2909,2.278,2.2657,2.2583,2.2856,2.278,2.2695,2.2696,2.2552,2.2828,2.2713,2.2859,2.27,2.2591,2.2814,2.2648,2.27,2.2691,2.2791,2.2586,2.2792,2.2625,2.269,2.2545,2.262,2.2631,2.2797,2.2501,2.2493,2.2543,2.2782,2.2728,2.2562,2.2694,2.259,2.2607,2.2671,2.2767,2.2491,2.2544,2.2585,2.2781,2.2534,2.2609,2.2552,2.2491,2.2567,2.2618,2.2562,2.2625,2.2584,2.2613,2.2642,2.2536,2.2494,2.2535,2.268,2.2623,2.2529,2.2609,2.2574,2.252,2.2511,2.2508,2.268,2.2671,2.2478,2.2598,2.2616,2.2436,2.258,2.2852,2.2626,2.2714,2.2579,2.2664,2.2792,2.283,2.2798,2.2942,2.2901,2.2936,2.3422,2.3247,2.306,2.3028,2.3105,2.3181,2.2944,2.2853,2.2581,2.2382,2.2267,2.2225,2.2158,2.2115,2.2013,2.2247,2.2542,2.2346,2.2215,2.2274,2.232,2.2502,2.2306,2.2253,2.2369,2.2196,2.1286,2.0568,2.0803,2.1395,2.3071,2.6939,2.9168,3.2563,3.4697,3.6218,3.6942,3.1968,2.5909,2.1265,1.9087,1.8071,1.7636,1.7525,1.8487,2.003,2.0949,2.2044,2.2053,2.2274,2.2445,2.2468,2.2597,2.2573,2.2388,2.2476,2.2787,2.2652,2.2679,2.2573,2.2605,2.2808,2.2679,2.2678,2.2781,2.2861,2.2677,2.2588,2.2786,2.2593,2.2718,2.2741,2.2851,2.2705,2.2746,2.271,2.2923,2.2963,2.2839,2.2592,2.2858,2.2772,2.2798,2.2916,2.2806,2.2634,2.2982,2.2862,2.2842,2.2659,2.267,2.2738,2.2963,2.2803,2.2716,2.2641,2.2776,2.2925,2.2748,2.2777,2.2789,2.2861,2.2909,2.2969,2.2963,2.2986,2.3021,2.3143,2.3207,2.334,2.3376,2.3435,2.3568,2.3819,2.3838,2.3525,2.3406,2.3502,2.3607,2.3591,2.332,2.323,2.3357,2.3227,2.312,2.2948,2.3028,2.3017,2.2939,2.3067,2.2984,2.2994,2.3018,2.3076,2.3163,2.3279,2.2909,2.2921,2.3201,2.3153,2.3084,2.2883,2.2953,2.3038,2.3045,2.3002,2.2959,2.2982,2.3151,2.3062,2.3036,2.2899,2.2752,2.3031,2.3223,2.3031,2.2901,2.2875,2.2969,2.2996,2.3003,2.2773,2.2783,2.2875,2.2876,2.2836,2.2699,2.2773,2.2821,2.2747,2.2896,2.2847,2.2869,2.2705,2.2853,2.275,2.2829,2.2651,2.2603,2.3064,2.2799,2.2711,2.2632,2.2825,2.2809,2.2886,2.2622,2.2721,2.2724,2.3094,2.3032,2.3285,2.293,2.3178,2.3096,2.3231,2.3581,2.3529,2.3432,2.3265,2.3301,2.3444,2.3329,2.3267,2.3021,2.2785,2.2539,2.2431,2.2304,2.2273,2.2541,2.2522,2.2496,2.2304,2.2258,2.2484,2.2514,2.2424,2.2542,2.2461,2.2597,2.242,2.2215,2.1524,2.0875,2.1008,2.1494,2.3024,2.6521,2.8835,3.2271,3.4881,3.6228,3.7211,3.2458,2.6951,2.2047,1.9186,1.8143,1.7297,1.764,1.8719,2.0099,2.1085,2.1828,2.2323,2.2624,2.2602,2.2581,2.2486,2.2562,2.2668,2.265,2.2695,2.2662,2.2631,2.2801,2.2854,2.2765,2.2654,2.2746,2.2894,2.2854,2.2994,2.2961,2.2907,2.2747,2.3058,2.3114,2.2628,2.2789,2.2903,2.3155,2.2926,2.2928,2.3017,2.3007,2.2952,2.3068,2.2832,2.2883,2.3048,2.3194,2.3203,2.2938,2.2848,2.2912,2.2934,2.3029,2.303,2.277,2.289,2.2891,2.299,2.2993,2.2954,2.2805,2.3042,2.3159,2.3131,2.3157,2.299,2.3271,2.3268,2.3339,2.3314,2.3407,2.357,2.3407,2.3764,2.3738,2.3474,2.3487,2.3652,2.348,2.3363,2.3309,2.3084,2.3373,2.3215,2.294,2.2891,2.2949,2.3103,2.3111,2.2937,2.2838,2.2884,2.294,2.309,2.2945,2.273,2.2811,2.3069,2.3074,2.2821,2.2816,2.2804,2.2957,2.2853,2.3054,2.2832,2.2953,2.2983,2.2996,2.3131,2.2941,2.2904,2.2881,2.2949,2.2878,2.2769,2.2705,2.2744,2.2957,2.2861,2.2807,2.2801,2.2794,2.2967,2.2748,2.2683,2.2798,2.2668,2.2711,2.2776,2.2646,2.2713,2.2514,2.2663,2.2752,2.2657,2.2569,2.2512,2.2588,2.2623,2.2571,2.2533,2.2653,2.2727,2.2653,2.2582,2.2663,2.2459,2.2592,2.2534,2.2451,2.2611,2.2552,2.2702,2.274,2.2766,2.2797,2.2824,2.3001,2.3136,2.2952,2.2943,2.31,2.3356,2.341,2.3395,2.3096,2.3217,2.3,2.3329,2.3346,2.3133,2.282,2.2596,2.2379,2.2399,2.2416,2.2024,2.2366,2.2296,2.2394,2.2316,2.2207,2.2035,2.2319,2.231,2.2197,2.2301,2.2162,2.2025,2.1724,2.1162,2.088,2.0873,2.1933,2.46,2.8826,3.2641,3.4703,3.6439,3.7554,3.2831,2.665,2.1609,1.8725,1.7974,1.7043,1.7692,1.8911,1.9717,2.109,2.1919,2.2241,2.2328,2.2304,2.247,2.2556,2.2512,2.2269,2.2556,2.2442,2.2807,2.2477,2.249,2.2536,2.2534,2.2661,2.2867,2.2415,2.2574,2.2598,2.2899,2.2706,2.2712,2.2551,2.2766,2.281,2.2793,2.2691,2.2836,2.2604,2.2943,2.2775,2.2639,2.2647,2.2871,2.285,2.2752,2.2901,2.2683,2.2723,2.2782,2.2835,2.2837,2.2736,2.2604,2.269,2.2849,2.2595,2.2589,2.2578,2.2635,2.3041,2.2848,2.2688,2.2737,2.2858,2.2788,2.3013,2.2935,2.3097,2.2986,2.3279,2.3435,2.3497,2.3278,2.3394,2.352,2.3317,2.3515,2.3566,2.3313,2.354,2.3192,2.3174,2.3188,2.3199,2.3158,2.3215,2.319,2.3141,2.2797,2.2958,2.2808,2.3009,2.2805,2.2761,2.3015,2.3016,2.3062,2.2789,2.2787,2.2905,2.2913,2.3042,2.2776,2.2903,2.2963,2.2979,2.2922,2.2943,2.2862,2.2824,2.2939,2.292,2.2766,2.2916,2.2842,2.2892,2.2752,2.2722,2.2815,2.2818,2.2962,2.2716,2.2862,2.2748,2.2525,2.2788,2.2845,2.2791,2.261,2.2628,2.257,2.2822,2.2613,2.2442,2.2757,2.2908,2.2741,2.2752,2.2537,2.2568,2.2656,2.2621,2.2617,2.2579,2.2591,2.2641,2.274,2.2479,2.2686,2.2631,2.2622,2.2839,2.2593,2.2528,2.2658,2.2519,2.2852,2.2799,2.258,2.2577,2.2761,2.2725,2.2642,2.2532,2.2392,2.2586,2.2591,2.279,2.2723,2.258,2.2724,2.2589,2.2826,2.2864,2.2973,2.2821,2.3094,2.3092,2.3115,2.311,2.3529,2.3528,2.3457,2.3327,2.3232,2.3265,2.3217,2.3139,2.3098,2.3035,2.2542,2.2358,2.2473,2.2437,2.2578,2.2273,2.2417,2.2512,2.2431,2.2295,2.2343,2.2507,2.2583,2.2417,2.2555,2.2511,2.1794,2.1248,2.1077,2.1138,2.1701,2.4128,2.8344,3.219,3.4616,3.5787,3.7528,3.3314,2.7469,2.2306,1.9151,1.8194,1.7405,1.7681,1.8257,1.959,2.0299,2.1777,2.234,2.2564,2.2478,2.25,2.2418,2.2728,2.2723,2.2897,2.2537,2.2623,2.274,2.2931,2.2877,2.2772,2.284,2.2924,2.2901,2.296,2.2799,2.2736,2.2996,2.3003,2.2905,2.2968,2.2775,2.2932,2.3053,2.3042,2.2964,2.2907,2.2981,2.321,2.2899,2.2943,2.3066,2.3064,2.3135,2.3093,2.3162,2.2897,2.2994,2.3102,2.3103,2.3121,2.2893,2.264,2.2918,2.3212,2.3026,2.2939,2.2977,2.3054,2.2974,2.3196,2.3105,2.3182,2.3139,2.3247,2.3234,2.3269,2.3311,2.3435,2.3463,2.3668,2.3562,2.3431,2.3567,2.3774,2.3814,2.3609,2.3591,2.3482,2.3747,2.3331,2.3213,2.3138,2.3173,2.3244,2.3197,2.3043,2.3064,2.2931,2.3075,2.3015,2.3119,2.2957,2.2858,2.3018,2.3133,2.2885,2.2967,2.2843,2.2948,2.3125,2.3021,2.2898,2.3047,2.295,2.2873,2.2855,2.2921,2.2908,2.2861,2.3032,2.295,2.2796,2.2668,2.3059,2.2944,2.287,2.2752,2.2796,2.2601,2.2706,2.2885,2.2707,2.2723,2.2633,2.2594,2.2699,2.2902,2.2661,2.2521,2.2727,2.2796,2.2609,2.2607,2.2701,2.2607,2.2623,2.2768,2.2573,2.2718,2.2548,2.2669,2.2823,2.2436,2.2537,2.2465,2.254,2.2735,2.2743,2.2766,2.2749,2.2908,2.3035,2.2925,2.2907,2.2998,2.3176,2.2899,2.3519,2.3538,2.3294,2.3352,2.319,2.3137,2.3057,2.3111,2.2828,2.295,2.2535,2.2291,2.2362,2.2132,2.2344,2.2396,2.2141,2.2435,2.2357,2.241,2.2329,2.2315,2.243,2.2389,2.2421,2.2386,2.2141,2.1224,2.0733,2.0976,2.1672,2.3407,2.7361,3.1516,3.4256,3.5395,3.6969,3.3864,2.8023,2.2875,1.9649,1.904,1.7574,1.7619,1.7696,1.8745,1.9956,2.1169,2.1891,2.2442,2.2571,2.2433,2.2438,2.2625,2.2654,2.2765,2.2589,2.2528,2.2637,2.2598,2.2749,2.2889,2.2918,2.2689,2.2671,2.2867,2.2866,2.2713,2.2797,2.2833,2.3055,2.2999,2.2765,2.2683,2.2763,2.291,2.2936,2.305,2.2781,2.2822,2.3087,2.3129,2.3036,2.2853,2.2714,2.296,2.3042,2.3062,2.3097,2.2756,2.3165,2.2991,2.3065,2.2855,2.2869,2.3088,2.3118,2.2855,2.2897,2.2987,2.3141,2.3087,2.3047,2.3125,2.3063,2.3129,2.339,2.3449,2.325,2.3506,2.3516,2.3591,2.3746,2.3449,2.3665,2.3782,2.3667,2.3632,2.3502,2.3226,2.3138,2.3204,2.3314,2.3287,2.2927,2.314,2.3037,2.2951,2.2919,2.2889,2.2914,2.2887,2.2947,2.2876,2.2941,2.278,2.2835,2.3004,2.3036,2.289,2.2971,2.2712,2.3034,2.3146,2.2881,2.3011,2.2735,2.2931,2.2996,2.285,2.2979,2.2826,2.3012,2.2859,2.2923,2.2844,2.2774,2.2827,2.2667,2.274,2.2764,2.2738,2.2815,2.2936,2.2719,2.2589,2.2698,2.2708,2.2808,2.2783,2.2544,2.2561,2.2775,2.2648,2.2825,2.2568,2.2675,2.2451,2.2609,2.2824,2.2637,2.2653,2.2593,2.2707,2.2702,2.2603,2.2739,2.2762,2.291,2.3199,2.3058,2.2937,2.2978,2.3187,2.3227,2.3689,2.3433,2.3225,2.3238,2.3387,2.3371,2.3164,2.3143,2.3107,2.299,2.2566,2.22,2.2383,2.2312,2.2483,2.2363,2.2255,2.228,2.209,2.2305,2.249,2.2468,2.2556,2.2507,2.2511,2.246,2.2065,2.118,2.0869,2.1007,2.1778,2.3747,2.7774,3.1722,3.451,3.5869,3.8021,3.4055,2.7923,2.2832,1.9505,1.8618,1.7117,1.751,1.8081,1.9554,2.0901,2.1959,2.2302,2.2456,2.2581,2.2622,2.2571,2.2393,2.2797,2.2901,2.2822,2.2874,2.2576,2.2765,2.2811,2.298,2.2971,2.2869,2.2737,2.2917,2.2904,2.2988,2.2774,2.3066,2.2914,2.3022,2.3001,2.2855,2.2848,2.3002,2.3064,2.3079,2.2974,2.2806,2.3146,2.3201,2.3085,2.3116,2.3117,2.304,2.3074,2.3169,2.3145,2.3023,2.305,2.3056,2.3083,2.2921,2.2916,2.3106,2.3163,2.3101,2.3112,2.3156,2.3253,2.3316,2.3267,2.3472,2.3348,2.3144,2.3468,2.3609,2.3509,2.3475,2.3762,2.3771,2.3793,2.3929,2.3904,2.3893,2.3683,2.3863,2.3828,2.352,2.3406,2.3594,2.3561,2.3513,2.3356,2.3222,2.3382,2.3337,2.3448,2.3235,2.3075,2.3231,2.3471,2.3267,2.3267,2.329,2.3349,2.3368,2.3413,2.3402,2.3205,2.3211,2.3319,2.3317,2.3297,2.315,2.3227,2.335,2.3326,2.3158,2.3299,2.3134,2.3223,2.3219,2.3329,2.3058,2.3136,2.3219,2.3207,2.324,2.3039,2.3048,2.3129,2.3125,2.3103,2.3145,2.3133,2.2941,2.3137,2.3229,2.3091,2.306,2.2923,2.3191,2.3123,2.2882,2.2827,2.3223,2.313,2.3091,2.2942,2.2853,2.2911,2.2979,2.3098,2.3043,2.3047,2.3096,2.3135,2.3092,2.3097,2.2953,2.2954,2.2835,2.315,2.3332,2.3158,2.3307,2.3229,2.3501,2.3559,2.3568,2.3579,2.383,2.4109,2.3964,2.3655,2.3655,2.3654,2.3707,2.3688,2.313,2.3165,2.2871,2.2912,2.2802,2.2616,2.2783,2.2759,2.287,2.2787,2.2891,2.2751,2.2855,2.2775,2.2844,2.2743,2.2717,2.2785,2.2423,2.1559,2.1165,2.1073,2.1997,2.4308,2.8424,3.2513,3.5152,3.6462,3.8182,3.7194,3.1061,2.5446,2.0992,1.8894,1.8053,1.7775,1.8633,1.9946,2.1402,2.2584,2.2763,2.2977,2.2859,2.2758,2.3083,2.304,2.3068,2.3247,2.3273,2.3148,2.3328,2.3194,2.313,2.3009,2.3213,2.3377,2.3262,2.314,2.315,2.3275,2.3266,2.3303,2.323,2.3253,2.3368,2.3434,2.3422,2.3242,2.3251,2.3336,2.3552,2.3524,2.3339,2.3086,2.3454,2.352,2.344,2.3636,2.3412,2.3399,2.3531,2.3386,2.3433,2.3421,2.3443,2.3392,2.3506,2.3396,2.3205,2.3263,2.3594,2.3635,2.3567,2.3381,2.3505,2.3674,2.3639,2.3747,2.3692,2.3842,2.3985,2.4101,2.3996,2.4152,2.4064,2.4197,2.4279,2.422,2.397,2.3946,2.4042,2.4064,2.39,2.402,2.3721,2.3597,2.367,2.3621,2.3746,2.3565,2.3428,2.3664,2.3494,2.3534,2.3347,2.3434,2.3744,2.374,2.3453,2.3366,2.3324,2.3424,2.3716,2.3375,2.3541,2.3223,2.3458,2.3444,2.3359,2.3235,2.3221,2.3251,2.3475,2.3437,2.3305,2.316,2.3273,2.3394,2.3302,2.3282,2.316,2.3221,2.3371,2.3314,2.3272,2.3216,2.3068,2.329,2.3124,2.3295,2.3147,2.3066,2.3221,2.3232,2.3017,2.3132,2.2994,2.3172,2.3228,2.3023,2.312,2.2966,2.2847,2.328,2.3119,2.3067,2.2968,2.3239,2.3147,2.3108,2.3097,2.3171,2.3293,2.3392,2.3403,2.3359,2.3507,2.3431,2.3582,2.3834,2.3958,2.3726,2.3632,2.3523,2.3783,2.3696,2.3467,2.3225,2.2802,2.2962,2.2907,2.267,2.2697,2.2721,2.2635,2.258,2.2653,2.2631,2.2875,2.2801,2.2905,2.2734,2.2745,2.2607,2.2815,2.2421,2.1315,2.1144,2.137,2.2032,2.4519,2.8635,3.265,3.4749,3.6122,3.7059,3.55,2.9997,2.4179,2.0695,1.9058,1.7845,1.7983,1.827,1.9134,2.0584,2.1734,2.221,2.2481,2.2886,2.288,2.2887,2.2815,2.3045,2.3106,2.302,2.3127,2.3042,2.3099,2.3089,2.3114,2.3237,2.3147,2.3209,2.3104,2.3337,2.3321,2.3149,2.3087,2.3184,2.3273,2.3342,2.3258,2.3257,2.3135,2.3358,2.3354,2.3175,2.322,2.3291,2.3414,2.3506,2.3294,2.3387,2.3358,2.337,2.3278,2.3426,2.3256,2.3258,2.3313,2.3475,2.3254,2.3232,2.3224,2.3226,2.3479,2.3514,2.3394,2.3434,2.3318,2.3507,2.3542,2.3592,2.3581,2.3611,2.3945,2.386,2.3933,2.4059,2.4076,2.3877,2.4135,2.4196,2.4025,2.3926,2.4119,2.4107,2.3867,2.3632,2.3762,2.3598,2.3513,2.3719,2.3466,2.3474,2.3306,2.3356,2.3618,2.3306,2.3388,2.3516,2.346,2.3644,2.3528,2.32,2.3524,2.3466,2.3428,2.3491,2.3438,2.3435,2.3484,2.3566,2.3414,2.3542,2.3376,2.3418,2.3579,2.3416,2.3321,2.3426,2.3572,2.3375,2.3353,2.3181,2.3364,2.3482,2.3344,2.3269,2.3246,2.3252,2.32,2.3288,2.3241,2.318,2.2902,2.3166,2.3132,2.3133,2.3161,2.2867,2.3204,2.3458,2.3414,2.3539,2.3391,2.3653,2.3598,2.3589,2.3748,2.3733,2.3733,2.3874,2.3925,2.3764,2.3691,2.3485,2.3756,2.3665,2.3298,2.2936,2.2687,2.2894,2.2817,2.2809,2.2609,2.2672,2.2799,2.271,2.2727,2.2657,2.2915,2.2651,2.2858,2.28,2.2575,2.2581,2.2294,2.1649,2.1178,2.1288,2.1532,2.2586,2.6179,3.0295,3.3618,3.5523,3.7241,3.6952,3.1161,2.5569,2.1148,1.9021,1.8194,1.7959,1.8387,1.9472,2.1016,2.2257,2.289,2.2775,2.271,2.2696,2.2933,2.294,2.3001,2.2874,2.3046,2.2894,2.3207,2.3197,2.311,2.2803,2.3132,2.3397,2.3373,2.3215,2.337,2.3257,2.3309,2.3398,2.3273,2.321,2.332,2.3304,2.3265,2.3343,2.3265,2.3316,2.3308,2.3381,2.3337,2.3175,2.3375,2.3593,2.3599,2.3517,2.3298,2.3278,2.3398,2.3529,2.3407,2.3326,2.3213,2.3315,2.3445,2.3348,2.3281,2.3283,2.3647,2.3529,2.3574,2.3429,2.3548,2.3541,2.3531,2.3738,2.3751,2.3749,2.3898,2.4229,2.398,2.4097,2.3997,2.4094,2.4221,2.4103,2.3942,2.3997,2.3827,2.3811,2.3895,2.3796,2.3459,2.3594,2.3458,2.3475,2.3559,2.3346,2.3169,2.3309,2.3531,2.3478,2.3373,2.3475,2.3393,2.3527,2.3449,2.3355,2.3178,2.3267,2.3314,2.3459,2.3321,2.3127,2.3315,2.3587,2.3398,2.3301,2.3226,2.3308,2.3584,2.3427,2.3352,2.3304,2.318,2.3422,2.3306,2.3209,2.3135,2.3325,2.3376,2.3354,2.3297,2.3136,2.317,2.3405,2.3311,2.3255,2.3162,2.3142,2.33,2.3092,2.3102,2.2949,2.3178,2.3085,2.3212,2.3246,2.3153,2.3027,2.3121,2.3161,2.3104,2.3271,2.3201,2.3325,2.3501,2.347,2.3591,2.3464,2.3587,2.3579,2.3764,2.3865,2.3912,2.4021,2.4253,2.4271,2.3941,2.3795,2.3582,2.3779,2.3793,2.3626,2.3018,2.2944,2.3175,2.308,2.3001,2.2732,2.2913,2.2955,2.3071,2.2921,2.2697,2.2827,2.3023,2.3121,2.3007,2.2695,2.2883,2.2326,2.1716,2.1406,2.149,2.2458,2.4911,2.7275,3.1362,3.4604,3.581,3.8368,3.6638,3.0465,2.4866,2.0516,1.8992,1.8238,1.7839,1.8821,2.0255,2.1549,2.252,2.2857,2.2869,2.2927,2.2908,2.2883,2.2982,2.32,2.3003,2.321,2.3203,2.3212,2.3291,2.3144,2.3246,2.3293,2.3398,2.346,2.3097,2.3272,2.319,2.3266,2.3376,2.3424,2.3436,2.3337,2.3385,2.3479,2.3387,2.3183,2.3327,2.3486,2.3467,2.3484,2.3303,2.3309,2.3497,2.3508,2.3416,2.3378,2.3259,2.3442,2.3516,2.3564,2.3606,2.3414,2.3354,2.3655,2.3474,2.3425,2.3574,2.3478,2.367,2.3519,2.3548,2.3538,2.3582,2.3605,2.3866,2.3737,2.3983,2.4152,2.4192,2.4364,2.4357,2.4136,2.4154,2.4284,2.4332,2.4315,2.3873,2.3946,2.4044,2.4024,2.3881,2.3752,2.3542,2.3794,2.3812,2.3809,2.3504,2.3654,2.3539,2.3549,2.3656,2.3705,2.3423,2.3596,2.3628,2.3536,2.3479,2.3496,2.3433,2.3629,2.3571,2.3501,2.3409,2.3389,2.3558,2.3468,2.3567,2.3453,2.3406,2.3503,2.3494,2.344,2.3474,2.3359,2.3268,2.3509,2.3473,2.334,2.3281,2.3224,2.3384,2.352,2.336,2.319,2.3323,2.3317,2.3544,2.3103,2.3138,2.3028,2.3475,2.3423,2.3304,2.3303,2.3271,2.3471,2.3126,2.3094,2.3218,2.3261,2.329,2.3279,2.3273,2.3187,2.3195,2.334,2.3367,2.3195,2.3125,2.3021,2.3414,2.3324,2.3287,2.314,2.318,2.3217,2.3264,2.3198,2.3049,2.309,2.322,2.3193,2.326,2.3136,2.3296,2.3173,2.33,2.3193,2.3177,2.3223,2.3168,2.335,2.3235,2.3117,2.2948,2.3184,2.327,2.3451,2.3551,2.3567,2.3434,2.3655,2.3698,2.3623,2.3695,2.3854,2.4256,2.4122,2.3869,2.3885,2.3739,2.3797,2.3882,2.3642,2.3511,2.3029,2.2857,2.3278,2.3034,2.2762,2.2875,2.3053,2.3096,2.3082,2.2838,2.3021,2.302,2.3217,2.3147,2.2995,2.2859,2.3032,2.2673,2.197,2.1457,2.1701,2.2524,2.5308,2.9622,3.3424,3.5547,3.7133,3.8036,3.3148,2.7091,2.2368,1.9865,1.944,1.8275,1.8329,1.8637,1.9995,2.1373,2.2531,2.2981,2.2925,2.3042,2.3219,2.3315,2.3347,2.3283,2.3385,2.3433,2.3313,2.3256,2.3249,2.3529,2.3656,2.3572,2.3588,2.3475,2.353,2.3487,2.3611,2.3518,2.3492,2.3578,2.3453,2.3496,2.3633,2.3551,2.3587,2.3555,2.3668,2.3721,2.3585,2.3579,2.3622,2.3688,2.372,2.3743,2.3628,2.3634,2.3751,2.3731,2.3573,2.3537,2.3601,2.348,2.3586,2.3696,2.3489,2.3658,2.3503,2.3585,2.3947,2.3997,2.35,2.3556,2.3892,2.4048,2.3951,2.3764,2.3889,2.395,2.4133,2.4247,2.4236,2.4554,2.4518,2.4514,2.4395,2.4441,2.418,2.4429,2.4248,2.4269,2.4177,2.3997,2.3947,2.4008,2.3985,2.3817,2.3825,2.3899,2.39,2.3739,2.3745,2.3794,2.3736,2.3809,2.3827,2.3713,2.3668,2.3713,2.3854,2.3844,2.3677,2.3605,2.3693,2.3875,2.3769,2.3804,2.3584,2.374,2.3899,2.3837,2.3596,2.3681,2.3721,2.3699,2.3771,2.3649,2.3741,2.3746,2.3606,2.3668,2.3572,2.3487,2.3376,2.3541,2.3701,2.3587,2.351,2.3523,2.3629,2.3524,2.364,2.3539,2.3329,2.3538,2.3655,2.3473,2.3296,2.3348,2.3337,2.3384,2.3475,2.3467,2.3468,2.3386,2.3421,2.3393,2.3388,2.3368,2.3514,2.3502,2.3591,2.3425,2.344,2.3513,2.364,2.3803,2.366,2.3885,2.3804,2.3571,2.3823,2.4232,2.4123,2.4128,2.3936,2.3998,2.4138,2.3823,2.3827,2.3688,2.3428,2.315,2.3116,2.2936,2.3104,2.3317,2.3206,2.2943,2.298,2.3125,2.3279,2.3202,2.3138,2.305,2.3222,2.3078,2.3177,2.279,2.1912,2.1488,2.1713,2.2481,2.441,2.8474,3.2519,3.5234,3.6559,3.7661,3.6924,3.1544,2.5789,2.1828,1.9752,1.8545,1.8246,1.8469,1.9433,2.1016,2.1961,2.286,2.316,2.3139,2.3402,2.3219,2.3315,2.3373,2.3524,2.3685,2.3425,2.3435,2.3457,2.3726,2.3476,2.3509,2.3618,2.3552,2.3682,2.3666,2.3575,2.3529,2.3651,2.3705,2.3534,2.3632,2.3611,2.3503,2.365,2.3775,2.3816,2.3704,2.3771,2.3589,2.385,2.3769,2.3656,2.3773,2.3739,2.3792,2.3655,2.3672,2.3714,2.3614,2.3726,2.3748,2.3552,2.3478,2.3494,2.3768,2.3737,2.3779,2.3723,2.3625,2.3683,2.3746,2.3889,2.3725,2.3909,2.4038,2.4059,2.4109,2.409,2.4185,2.4197,2.4453,2.4396,2.4037,2.4101,2.4455,2.4306,2.4145,2.4275,2.4078,2.3889,2.3824,2.3778,2.3739,2.3732,2.3589,2.3636,2.3663,2.3762,2.3581,2.3624,2.3598,2.358,2.3718,2.3532,2.3533,2.3596,2.3647,2.3721,2.3495,2.3453,2.3657,2.356,2.3638,2.3508,2.3569,2.3664,2.3636,2.3729,2.355,2.3562,2.3511,2.3599,2.3729,2.3664,2.3456,2.3456,2.3591,2.3555,2.3469,2.3394,2.3416,2.3469,2.3523,2.3371,2.3285,2.3264,2.3504,2.3357,2.339,2.319,2.3307,2.3309,2.3395,2.3318,2.3288,2.3147,2.3203,2.3384,2.3067,2.3236,2.3156,2.3212,2.3377,2.3106,2.3123,2.326,2.3094,2.3193,2.3341,2.3236,2.3251,2.3307,2.3485,2.3242,2.3208,2.3129,2.3227,2.3292,2.3452,2.3459,2.3485,2.3535,2.3824,2.3692,2.3637,2.3519,2.4007,2.4074,2.3986,2.3937,2.3627,2.3484,2.3928,2.3895,2.3554,2.3492,2.3219,2.2964,2.3107,2.3068,2.2887,2.2989,2.2728,2.2951,2.3135,2.3071,2.2955,2.2944,2.307,2.3077,2.2919,2.2803,2.2905,2.2875,2.1849,2.1517,2.1492,2.2004,2.4103,2.7974,3.1884,3.5072,3.6298,3.8853,3.5552,2.9334,2.3769,2.014,1.9133,1.789,1.8086,1.8482,1.9827,2.1182,2.2579,2.2857,2.2989,2.2974,2.2958,2.3057,2.3163,2.3176,2.3066,2.3059,2.3347,2.3138,2.3239,2.3285,2.332,2.3248,2.335,2.3267,2.3424,2.3325,2.3461,2.3288,2.3409,2.3408,2.3286,2.3494,2.3597,2.3281,2.3006,2.3358,2.3509,2.3503,2.3566,2.3442,2.3389,2.3589,2.3501,2.3496,2.3418,2.3453,2.3605,2.3705,2.3447,2.3386,2.3431,2.3513,2.3557,2.3616,2.3381,2.3277,2.3492,2.3595,2.3423,2.3544,2.3672,2.3736,2.3732,2.3837,2.3718,2.3703,2.361,2.3928,2.4168,2.4074,2.3913,2.4027,2.4226,2.4245,2.4028,2.404,2.4046,2.4005,2.3952,2.3828,2.3642,2.3631,2.3611,2.3587,2.3737,2.3639,2.3296,2.3341,2.3474,2.3597,2.3284,2.344,2.345,2.3538,2.3551,2.3473,2.3486,2.3227,2.3433,2.3484,2.3442,2.3452,2.3319,2.35,2.359,2.3361,2.3301,2.3411,2.35,2.3378,2.3617,2.3329,2.3336,2.3619,2.3532,2.3272,2.3238,2.333,2.3604,2.3494,2.3306,2.311,2.3117,2.3277,2.3309,2.3358,2.3226,2.3173,2.3129,2.3331,2.3145,2.3079,2.3007,2.3165,2.3183,2.3222,2.2974,2.3009,2.3079,2.3138,2.3149,2.3031,2.309,2.2957,2.3074,2.3075,2.3163,2.3005,2.3133,2.3044,2.3191,2.3015,2.3055,2.3014,2.3046,2.3166,2.3068,2.3048,2.2841,2.3084,2.3225,2.3095,2.3006,2.2864,2.3014,2.3136,2.3043,2.3154,2.2978,2.2927,2.3133,2.3225,2.3112,2.309,2.3388,2.3691,2.3465,2.3457,2.3436,2.3196,2.3652,2.3937,2.4065,2.3769,2.3676,2.3658,2.3702,2.3617,2.3579,2.3375,2.3267,2.2928,2.2974,2.2642,2.2817,2.2681,2.2832,2.2879,2.2847,2.2942,2.2736,2.2978,2.301,2.283,2.2938,2.2908,2.2826,2.2344,2.1549,2.1433,2.1432,2.2657,2.5131,2.9122,3.3114,3.5377,3.7087,3.8208,3.3243,2.9995,2.4777,2.0465,1.9127,1.7954,1.811,1.8514,2.0111,2.1475,2.2576,2.2485,2.2795,2.2929,2.3107,2.3034,2.3053,2.2914,2.3187,2.3071,2.3102,2.2971,2.2983,2.3065,2.333,2.3153,2.346,2.3192,2.3197,2.335,2.3352,2.322,2.311,2.3239,2.3473,2.3368,2.3282,2.3322,2.3484,2.3443,2.3226,2.3441,2.3215,2.3344,2.3404,2.3242,2.3436,2.3307,2.3233,2.3508,2.3522,2.3444,2.3353,2.3488,2.3337,2.3351,2.3454,2.3332,2.3396,2.3488,2.3551,2.3583,2.3468,2.3448,2.36,2.3619,2.3671,2.3701,2.3565,2.3671,2.3907,2.3964,2.4074,2.3905,2.405,2.4179,2.4245,2.4193,2.4063,2.3977,2.3873,2.4065,2.3933,2.3914,2.392,2.3727,2.3624,2.3767,2.3588,2.3393,2.3532,2.3598,2.3277,2.3342,2.3372,2.3354,2.3437,2.3354,2.3255,2.3335,2.3326,2.3414,2.349,2.3376,2.3193,2.3496,2.3402,2.3314,2.3465,2.3371,2.321,2.3581,2.3459,2.3301,2.3174,2.3198,2.3453,2.3418,2.3222,2.326,2.3177,2.3354,2.3373,2.3442,2.3158,2.31,2.3209,2.318,2.3225,2.3002,2.3113,2.3298,2.3263,2.3354,2.298,2.2939,2.3134,2.3471,2.3196,2.304,2.3021,2.297,2.3187,2.3149,2.3131,2.3053,2.2961,2.3042,2.3175,2.3087,2.3043,2.2936,2.3251,2.3156,2.3111,2.2916,2.3114,2.3185,2.3163,2.3257,2.3125,2.3393,2.3504,2.344,2.352,2.3316,2.3535,2.3799,2.3747,2.3776,2.3584,2.364,2.369,2.3541,2.3443,2.3288,2.3083,2.2775,2.2911,2.2815,2.2892,2.2792,2.277,2.2908,2.3037,2.2922,2.2729,2.2841,2.2767,2.2787,2.2918,2.2824,2.2687,2.2724,2.1949,2.1291,2.1471,2.1801,2.2432,2.5118,2.9507,3.3152,3.5108,3.6569,3.74,3.2904,2.6803,2.1994,1.9554,1.8609,1.8096,1.8033,1.8924,2.0264,2.1482,2.2542,2.2914,2.2907,2.2986,2.3039,2.3058,2.3176,2.3109,2.3117,2.3234,2.3385,2.3429,2.3244,2.3207,2.348,2.3357,2.3438,2.3323,2.3302,2.335,2.3605,2.3372,2.3317,2.3336,2.3274,2.347,2.3558,2.3203,2.3312,2.3433,2.3536,2.3576,2.359,2.329,2.3593,2.3664,2.3403,2.3569,2.3402,2.3496,2.3611,2.369,2.3549,2.3529,2.3492,2.3657,2.3672,2.3449,2.3259,2.3533,2.3738,2.3735,2.3808,2.3603,2.3439,2.3705,2.3832,2.378,2.3875,2.3749,2.3997,2.4137,2.4297,2.4222,2.4154,2.4151,2.4474,2.4248,2.4014,2.4122,2.4029,2.3947,2.3866,2.3692,2.3888,2.3788,2.3564,2.356,2.3569,2.3377,2.3459,2.3524,2.3534,2.3461,2.3296,2.3376,2.349,2.3485,2.3316,2.3384,2.3269,2.3535,2.3438,2.3582,2.326,2.3294,2.3467,2.3534,2.3483,2.3405,2.3469,2.3432,2.3547,2.36,2.3443,2.3393,2.3346,2.3477,2.3603,2.343,2.3078,2.349,2.3409,2.3375,2.3293,2.3269,2.3244,2.358,2.3531,2.3211,2.3107,2.3149,2.3317,2.3323,2.3265,2.3204,2.3169,2.3223,2.3147,2.3293,2.3109,2.2948,2.321,2.3244,2.3129,2.3132,2.2995,2.3192,2.3191,2.3253,2.3427,2.3139,2.3004,2.3225,2.3307,2.2978,2.3041,2.3325,2.3619,2.3533,2.3449,2.3364,2.3558,2.3671,2.3621,2.4098,2.3883,2.3719,2.3803,2.3659,2.3597,2.3549,2.341,2.3473,2.3567,2.3026,2.2871,2.2537,2.284,2.2819,2.3002,2.2744,2.2753,2.2863,2.2934,2.2814,2.28,2.2679,2.2841,2.2809,2.2847,2.2593,2.2239,2.123,2.1309,2.1923,2.3335,2.6557,3.0445,3.4376,3.5687,3.8054,3.6893,3.0764,2.5445,2.0806,1.9027,1.797,1.7748,1.8238,1.9211,2.0676,2.2008,2.2709,2.2789,2.2848,2.2937,2.2811,2.2927,2.3045,2.3079,2.3096,2.3064,2.3057,2.3177,2.3402,2.3172,2.333,2.3096,2.3108,2.3005,2.3321,2.3316,2.3251,2.3106,2.3123,2.3408,2.3247,2.3336,2.3402,2.342,2.341,2.3235,2.3388,2.3486,2.3362,2.3414,2.323,2.3302,2.3281,2.327,2.3359,2.334,2.3208,2.3411,2.3627,2.3462,2.3393,2.3233,2.3418,2.3365,2.3401,2.3469,2.335,2.3296,2.3525,2.3461,2.3745,2.3627,2.3429,2.3625,2.3684,2.3814,2.3766,2.3802,2.3895,2.3926,2.3875,2.4029,2.3972,2.391,2.4098,2.3955,2.3854,2.3657,2.3602,2.3773,2.3691,2.3707,2.35,2.3341,2.3355,2.3483,2.3334,2.3165,2.3317,2.3118,2.3282,2.3384,2.3327,2.3114,2.3197,2.3382,2.3304,2.3121,2.3189,2.3166,2.342,2.349,2.3331,2.3158,2.3113,2.3299,2.3329,2.3312,2.3103,2.3224,2.341,2.3327,2.3284,2.3191,2.3233,2.3246,2.3167,2.3183,2.3159,2.3058,2.3313,2.3186,2.3139,2.3106,2.3099,2.3017,2.3262,2.3156,2.3056,2.3018,2.3015,2.3019,2.3192,2.2999,2.2929,2.2744,2.2979,2.334,2.2975,2.3114,2.3028,2.3043,2.3074,2.306,2.2847,2.2879,2.2947,2.3149,2.307,2.2933,2.2768,2.3043,2.3021,2.3106,2.3061,2.3171,2.3019,2.2913,2.2935,2.2838,2.2773,2.2977,2.3027,2.308,2.297,2.2775,2.2889,2.3014,2.3098,2.2829,2.3064,2.326,2.3377,2.3393,2.3329,2.3233,2.3484,2.3482,2.3449,2.3698,2.3722,2.3754,2.359,2.3599,2.3612,2.3419,2.3591,2.3539,2.3324,2.2926,2.2799,2.2565,2.2657,2.2714,2.2755,2.279,2.2638,2.2747,2.2882,2.2723,2.2612,2.2572,2.2826,2.3041,2.2663,2.2331,2.1637,2.1134,2.1143,2.2231,2.3895,2.7665,3.2037,3.4988,3.6168,3.8787,3.5278,2.8985,2.3741,2.1307,1.9422,1.7953,1.7718,1.8323,1.994,2.1037,2.2475,2.2568,2.2912,2.2767,2.3032,2.2781,2.311,2.3025,2.3375,2.301,2.3029,2.3198,2.3232,2.3154,2.3339,2.3094,2.3158,2.3027,2.3344,2.3242,2.3206,2.3241,2.322,2.327,2.3475,2.3251,2.3028,2.3199,2.3445,2.3621,2.3322,2.3291,2.3298,2.3355,2.3518,2.3319,2.3559,2.3383,2.3388,2.3559,2.3455,2.3468,2.3459,2.3448,2.366,2.351,2.3486,2.3412,2.3626,2.3647,2.3472,2.3548,2.3701,2.3688,2.371,2.3613,2.3588,2.3704,2.3656,2.3944,2.3967,2.4107,2.4099,2.4192,2.4202,2.4372,2.4032,2.4245,2.4236,2.4093,2.4333,2.4229,2.413,2.3951,2.3869,2.4025,2.3968,2.3702,2.362,2.3802,2.3862,2.3622,2.3374,2.3486,2.3774,2.3697,2.375,2.3619,2.3326,2.3632,2.3606,2.36,2.3415,2.3453,2.3465,2.3577,2.3531,2.3605,2.3368,2.3689,2.353,2.367,2.3293,2.3391,2.3478,2.3494,2.3657,2.3327,2.341,2.3573,2.3454,2.3478,2.3554,2.3449,2.3524,2.3448,2.3288,2.3506,2.3367,2.3424,2.3517,2.3365,2.3422,2.3341,2.3422,2.3439,2.3448,2.3341,2.328,2.34,2.3445,2.3352,2.337,2.3469,2.3251,2.3275,2.3351,2.3168,2.3272,2.3308,2.3388,2.3587,2.3427,2.3254,2.3205,2.3296,2.3334,2.3484,2.3308,2.3399,2.3381,2.346,2.3575,2.3686,2.3633,2.3705,2.387,2.3878,2.3769,2.4114,2.4134,2.3996,2.421,2.3898,2.3856,2.3938,2.3801,2.377,2.3817,2.3238,2.3247,2.3163,2.3138,2.3156,2.3021,2.3068,2.319,2.3242,2.3271,2.2891,2.3016,2.3105,2.3216,2.3295,2.3012,2.2601,2.202,2.18,2.1722,2.2367,2.3316,2.6525,3.0835,3.4129,3.5711,3.7303,3.618,3.0781,2.5348,2.1123,1.9437,1.8192,1.8324,1.8537,1.9451,2.0676,2.2017,2.2765,2.2938,2.3199,2.3194,2.3169,2.3167,2.3366,2.3462,2.3169,2.332,2.334,2.3686,2.3543,2.3335,2.3475,2.3434,2.3562,2.3496,2.342,2.3443,2.3442,2.3562,2.3526,2.3693,2.334,2.3508,2.3701,2.3777,2.3665,2.3521,2.3548,2.3509,2.3579,2.371,2.3567,2.3792,2.3879,2.3699,2.377,2.3673,2.3677,2.368,2.3773,2.3837,2.3627,2.343,2.3695,2.382,2.3787,2.3573,2.3654,2.3672,2.387,2.3866,2.3882,2.375,2.385,2.408,2.4079,2.4021,2.3959,2.4063,2.4239,2.4437,2.4391,2.4384,2.4416,2.4272,2.4284,2.4225,2.4197,2.4198,2.4062,2.4049,2.3965,2.3729,2.3784,2.3925,2.3853,2.364,2.3516,2.3696,2.3757,2.3727,2.3756,2.3627,2.3715,2.3716,2.3962,2.3788,2.3616,2.3665,2.37,2.3734,2.3795,2.3773,2.3713,2.3686,2.3852,2.393,2.3819,2.377,2.3693,2.3725,2.3793,2.3922,2.3535,2.3606,2.3813,2.3864,2.3653,2.3528,2.3553,2.3536,2.376,2.3662,2.3538,2.3592,2.3561,2.3598,2.3701,2.348,2.3443,2.3294,2.3462,2.3561,2.3496,2.3316,2.3493,2.3575,2.3542,2.3492,2.3617,2.3834,2.3802,2.3942,2.3936,2.3656,2.3758,2.4096,2.4441,2.4435,2.4049,2.4018,2.3931,2.3885,2.392,2.3744,2.3667,2.3433,2.3384,2.3175,2.3024,2.2917,2.2956,2.308,2.3146,2.2982,2.3,2.3052,2.3212,2.2984,2.3121,2.2994,2.3026,2.3315,2.2919,2.2107,2.1591,2.1602,2.2255,2.3826,2.7723,3.1724,3.4613,3.6167,3.8559,3.5953,2.9833,2.7038,2.2123,1.9675,1.8692,1.8082,1.8404,1.9614,2.1294,2.2219,2.2916,2.3098,2.3176,2.3254,2.3147,2.3034,2.3246,2.3369,2.3488,2.3409,2.3309,2.327,2.3434,2.3465,2.3548,2.3548,2.3456,2.3379,2.3652,2.3589,2.3481,2.3365,2.3436,2.3613,2.3549,2.3496,2.3445,2.3516,2.3522,2.3696,2.3619,2.3521,2.351,2.3605,2.3707,2.3598,2.3454,2.3563,2.3567,2.3727,2.3685,2.3622,2.3561,2.3515,2.3593,2.3639,2.3481,2.3553,2.3762,2.3864,2.3671,2.3733,2.3605,2.3647,2.3734,2.3677,2.3664,2.3905,2.4159,2.3963,2.4163,2.4282,2.4185,2.4273,2.4277,2.4309,2.436,2.4116,2.4159,2.3971,2.4036,2.4106,2.3822,2.3951,2.3722,2.3813,2.384,2.3504,2.3519,2.3715,2.3596,2.3778,2.3533,2.367,2.3638,2.3628,2.3517,2.3542,2.3453,2.3663,2.3803,2.3728,2.3609,2.3639,2.3494,2.3706,2.3683,2.3746,2.3616,2.36,2.3685,2.3631,2.353,2.3516,2.3605,2.3432,2.3567,2.3608,2.3516,2.3435,2.3448,2.3544,2.346,2.3412,2.3381,2.3465,2.3559,2.3578,2.3364,2.3217,2.3283,2.3505,2.335,2.3241,2.3228,2.342,2.3423,2.3343,2.3347,2.3265,2.3342,2.3256,2.3503,2.3292,2.323,2.3117,2.3444,2.3292,2.331,2.317,2.3217,2.3298,2.3439,2.3342,2.3341,2.3305,2.3407,2.3635,2.3634,2.3601,2.3623,2.357,2.392,2.3717,2.3754,2.4037,2.417,2.4005,2.3969,2.3726,2.3762,2.3817,2.3918,2.3709,2.3344,2.3025,2.2974,2.3036,2.3216,2.2965,2.2862,2.2938,2.3002,2.3068,2.3018,2.2899,2.2928,2.3128,2.3122,2.3081,2.2845,2.2472,2.185,2.1639,2.1694,2.2395,2.4891,2.9006,3.1237,3.4625,3.6123,3.8681,3.6863,3.0762,2.551,2.0847,1.9199,1.8061,1.819,1.915,2.0548,2.1731,2.2899,2.2992,2.3138,2.3045,2.3001,2.3031,2.3346,2.3198,2.3446,2.3181,2.325,2.3451,2.3525,2.3384,2.3387,2.3306,2.3559,2.3465,2.3394,2.3488,2.3309,2.3253,2.3355,2.3496,2.3464,2.3278,2.3438,2.3575,2.3658,2.3649,2.3527,2.346,2.3577,2.3531,2.3546,2.3571,2.3511,2.3642,2.3507,2.3427,2.3583,2.3536,2.3632,2.3646,2.3545,2.3476,2.3475,2.3609,2.3667,2.3613,2.3486,2.3645,2.3707,2.3759,2.3644,2.3709,2.3652,2.3918,2.4061,2.4067,2.4,2.4086,2.4169,2.4372,2.4351,2.4445,2.4307,2.4186,2.445,2.4293,2.4254,2.4087,2.4008,2.4097,2.3826,2.3864,2.3677,2.3941,2.379,2.3755,2.3641,2.3621,2.3534,2.3689,2.3655,2.3659,2.3494,2.3501,2.3705,2.3627,2.3761,2.3558,2.3583,2.3625,2.3678,2.3605,2.3369,2.3418,2.3546,2.3548,2.36,2.3545,2.3437,2.3571,2.35,2.367,2.3355,2.3531,2.3358,2.3568,2.3668,2.3257,2.3316,2.3345,2.3469,2.3505,2.3427,2.3336,2.3322,2.3496,2.3325,2.3298,2.3468,2.3246,2.3239,2.3334,2.3131,2.3315,2.3256,2.3284,2.3242,2.3356,2.3038,2.3133,2.3068,2.3333,2.3431,2.3061,2.3335,2.3373,2.3229,2.3239,2.3072,2.3129,2.3169,2.3273,2.3352,2.3098,2.3203,2.3055,2.3306,2.3378,2.336,2.3306,2.3532,2.3601,2.356,2.3757,2.3509,2.3485,2.4152,2.4139,2.4013,2.3801,2.3717,2.3624,2.3744,2.3728,2.3537,2.358,2.3303,2.3096,2.2956,2.2839,2.284,2.294,2.2999,2.3027,2.3033,2.293,2.3045,2.2922,2.2783,2.2723,2.2985,2.3141,2.2984,2.2531,2.1793,2.1329,2.1599,2.2354,2.4802,2.9068,3.2749,3.5182,3.6603,3.7669,3.3474,2.7401,2.2572,1.9768,1.9026,1.8307,1.8131,1.819,1.9641,2.0867,2.2181,2.2793,2.2804,2.2927,2.305,2.3144,2.3123,2.3038,2.3261,2.3175,2.3175,2.3078,2.3273,2.3175,2.3346,2.3392,2.3457,2.328,2.3261,2.3501,2.3521,2.3369,2.3341,2.329,2.3553,2.3401,2.3371,2.3142,2.3521,2.3363,2.3449,2.3477,2.3415,2.3379,2.3623,2.3555,2.3434,2.3397,2.3451,2.3477,2.3425,2.3553,2.3346,2.3299,2.3397,2.3484,2.3404,2.3483,2.3392,2.356,2.3586,2.3411,2.3364,2.336,2.3462,2.3751,2.3603,2.3753,2.3774,2.3838,2.3789,2.3712,2.4072,2.3965,2.405,2.4157,2.4225,2.4064,2.4055,2.404,2.413,2.4072,2.4053,2.3872,2.3745,2.376,2.3809,2.3774,2.3735,2.3681,2.3511,2.3763,2.3499,2.3458,2.3456,2.3418,2.37,2.3722,2.3505,2.3562,2.3496,2.3555,2.3532,2.3645,2.3571,2.3511,2.3582,2.374,2.372,2.3555,2.3431,2.3739,2.3677,2.3524,2.3477,2.3584,2.3449,2.3701,2.3624,2.3529,2.3398,2.3602,2.3488,2.3598,2.3464,2.3338,2.3282,2.3461,2.3335,2.326,2.3228,2.3348,2.329,2.3345,2.3211,2.3349,2.348,2.3448,2.3481,2.3461,2.3564,2.3596,2.3829,2.3657,2.3844,2.3707,2.3978,2.4143,2.3813,2.3812,2.399,2.3863,2.3847,2.3792,2.3498,2.31,2.2956,2.3225,2.297,2.2879,2.2885,2.2859,2.2863,2.2921,2.2852,2.2979,2.2912,2.3035,2.3026,2.305,2.2936,2.2849,2.2816,2.2222,2.1687,2.137,2.1758,2.3251,2.6933,3.1049,3.4248,3.5736,3.6536,3.7848,3.3686,2.7919,2.2641,1.9853,1.8943,1.7946,1.8315,1.8939,2.0526,2.174,2.2556,2.2915,2.2997,2.2907,2.3318,2.3255,2.312,2.3143,2.3256,2.3301,2.3553,2.3589,2.3299,2.3362,2.3402,2.3422,2.3638,2.3402,2.3465,2.353,2.3617,2.3584,2.342,2.3462,2.3645,2.363,2.3651,2.3496,2.3515,2.3593,2.3714,2.3757,2.365,2.357,2.3775,2.3804,2.3744,2.3779,2.3607,2.3624,2.3916,2.376,2.3664,2.3649,2.3662,2.3881,2.3793,2.368,2.3801,2.3632,2.3881,2.3974,2.3981,2.4007,2.382,2.3905,2.4205,2.4126,2.4161,2.3986,2.4282,2.451,2.4343,2.4368,2.446,2.4425,2.4385,2.4358,2.447,2.4159,2.4104,2.4234,2.4129,2.4088,2.3989,2.3966,2.3888,2.3821,2.38,2.3726,2.3696,2.3708,2.3677,2.3734,2.349,2.3606,2.3648,2.4093,2.3878,2.3754,2.3762,2.376,2.3989,2.3716,2.3783,2.3732,2.3618,2.3812,2.3704,2.3619,2.3652,2.3785,2.3774,2.3896,2.3753,2.3628,2.3571,2.383,2.3651,2.3764,2.3792,2.3568,2.374,2.3706,2.3588,2.345,2.3542,2.3571,2.3664,2.352,2.3518,2.3432,2.3626,2.3601,2.3623,2.3573,2.3546,2.3437,2.3541,2.3517,2.3475,2.336,2.3329,2.3633,2.3658,2.3462,2.3602,2.3464,2.3877,2.4105,2.3779,2.3836,2.3892,2.3986,2.4346,2.4362,2.4137,2.402,2.4076,2.413,2.3933,2.3933,2.3719,2.3699,2.3573,2.3283,2.3066,2.3019,2.321,2.3167,2.3228,2.3163,2.313,2.3048,2.3235,2.3347,2.3267,2.3193,2.3113,2.3273,2.3155,2.2881,2.2051,2.1565,2.1634,2.2426,2.4486,2.8118,3.2294,3.5528,3.671,3.9233,3.5599,2.9292,2.6895,2.1846,1.9585,1.8555,1.8138,1.9011,2.0358,2.1862,2.2579,2.3188,2.3206,2.3261,2.3436,2.3343,2.3296,2.3625,2.353,2.3601,2.3373,2.3459,2.3498,2.3722,2.3872,2.3733,2.3414,2.3747,2.3749,2.3631,2.3612,2.3557,2.3771,2.3681,2.3815,2.3751,2.3542,2.3642,2.3717,2.3734,2.3797,2.3783,2.3764,2.3831,2.3801,2.3833,2.3844,2.3859,2.37,2.3818,2.3984,2.3635,2.3647,2.3977,2.3916,2.386,2.3801,2.3795,2.3818,2.3962,2.408,2.3798,2.382,2.3939,2.4111,2.4036,2.3897,2.4103,2.4041,2.418,2.4237,2.4515,2.4307,2.4447,2.4644,2.4569,2.447,2.4453,2.4583,2.4511,2.455,2.4315,2.4238,2.4171,2.4064,2.4113,2.3976,2.3977,2.386,2.3938,2.3922,2.4014,2.382,2.3758,2.4043,2.3965,2.3847,2.3774,2.3831,2.3802,2.3944,2.3926,2.3794,2.3705,2.386,2.389,2.389,2.3754,2.3672,2.3619,2.3965,2.3907,2.3715,2.3685,2.3607,2.3734,2.3696,2.3558,2.3651,2.3452,2.3701,2.3582,2.3655,2.3348,2.3534,2.3666,2.3607,2.3561,2.3393,2.3597,2.3545,2.3558,2.3614,2.3408,2.3397,2.3445,2.3548,2.355,2.3255,2.3413,2.3397,2.3477,2.3502,2.3504,2.3366,2.3219,2.3683,2.3438,2.3409,2.3445,2.3294,2.353,2.3663,2.3426,2.3385,2.325,2.3396,2.363,2.3342,2.328,2.3182,2.3508,2.3634,2.352,2.3355,2.3305,2.3413,2.3363,2.3473,2.3683,2.3703,2.3606,2.3802,2.377,2.3558,2.3652,2.3903,2.4254,2.4215,2.3985,2.3928,2.4023,2.4093,2.3996,2.3859,2.3732,2.3607,2.3415,2.3245,2.311,2.2889,2.2951,2.3039,2.3283,2.3078,2.2975,2.2858,2.3179,2.3366,2.3267,2.2975,2.3038,2.316,2.3219,2.2427,2.1641,2.144,2.1703,2.2763,2.5379,2.9642,3.3375,3.5567,3.7471,3.8453,3.3033,2.7284,2.2497,1.9765,1.9339,1.8245,1.8134,1.9018,2.0438,2.1667,2.2699,2.303,2.2976,2.3249,2.3434,2.3256,2.3414,2.3287,2.357,2.3576,2.344,2.3411,2.3505,2.346,2.3532,2.3467,2.3634,2.3483,2.3563,2.3567,2.3473,2.338,2.3581,2.357,2.3664,2.3748,2.3488,2.3539,2.3683,2.3694,2.3517,2.3648,2.3577,2.3692,2.3727,2.3798,2.3752,2.368,2.3517,2.3732,2.3794,2.3776,2.3635,2.3545
