1.0396,1.0086,1.0155,1.0184,1.0101,1.0156,1.0332,1.0425,1.0104,0.98083,0.98243,0.99543,1.0068,1.0016,0.95913,0.96688,0.96331,0.97613,0.96528,0.97037,0.96717,0.9543,0.97139,0.98754,0.9629,0.95711,0.94532,0.94901,0.95823,0.95587,0.95665,0.93953,0.94064,0.94503,0.95602,0.97005,0.96144,0.93361,0.94503,0.95093,0.93828,0.95279,0.96511,0.97641,0.99263,0.99721,1.0036,1.0011,1.0133,1.0363,1.0458,1.0459,1.0509,1.0555,1.0306,1.0159,1.031,1.0296,1.0392,1.023,0.99685,0.96941,0.93498,0.92661,0.93277,0.91622,0.91265,0.90756,0.90265,0.91744,0.93875,0.92783,0.90937,0.89105,0.87992,0.8883,0.89604,0.89771,0.87957,0.85993,0.89763,0.9861,1.1742,1.4185,1.6826,1.941,2.0901,2.0545,1.9929,1.7999,1.651,1.1563,0.70422,0.63322,0.6724,0.75656,0.79806,0.82747,0.83305,0.85233,0.86388,0.87492,0.86166,0.86255,0.85699,0.88822,0.89298,0.8826,0.89174,0.88967,0.85092,0.86554,0.88151,0.89075,0.8852,0.89451,0.89084,0.87322,0.86183,0.87128,0.867,0.88543,0.892,0.89039,0.87493,0.88287,0.88351,0.90483,0.90205,0.87042,0.86418,0.88005,0.88813,0.88617,0.88128,0.88418,0.88348,0.89476,0.89057,0.87642,0.87828,0.87831,0.87649,0.88925,0.88912,0.88491,0.88087,0.90444,0.89949,0.88072,0.91154,0.90661,0.87654,0.87666,0.88855,0.8851,0.89266,0.91372,0.91506,0.90592,0.90337,0.90451,0.89654,0.92653,0.94111,0.92603,0.93075,0.93767,0.95104,0.95855,0.94374,0.9492,0.95698,0.95557,0.97814,0.97824,0.96303,0.96481,0.97446,0.97194,0.9708,0.95252,0.94775,0.94463,0.95212,0.95373,0.92967,0.93268,0.93592,0.9402,0.94313,0.95124,0.96808,0.94312,0.93598,0.95158,0.94429,0.9558,0.96197,0.96997,0.97715,0.97471,0.97913,0.98739,0.99498,1.0023,0.99341,0.99573,1.0079,1.0118,1.0083,1.0098,1.0046,1.0084,1.0068,1.0096,1.0088,0.99713,0.99994,1.0029,0.99416,1.0023,0.98907,0.98216,0.9879,0.97435,0.97601,0.97635,0.98383,0.98704,0.96053,0.95246,0.96337,0.94912,0.94091,0.93708,0.94108,0.93561,0.93687,0.93734,0.94181,0.9339,0.93487,0.92627,0.93666,0.93865,0.93196,0.92028,0.93157,0.92781,0.921,0.92285,0.93401,0.92329,0.91096,0.91486,0.91314,0.91359,0.91203,0.91177,0.92354,0.91852,0.90604,0.89473,0.896,0.9071,0.91666,0.90647,0.90452,0.90337,0.90737,0.91322,0.91294,0.90932,0.90451,0.90766,0.91324,0.91542,0.91486,0.91537,0.907,0.91055,0.90349,0.90754,0.90825,0.90241,0.90957,0.90483,0.90473,0.90686,0.90399,0.9065,0.9171,0.91756,0.90701,0.9016,0.9023,0.91222,0.9001,0.90258,0.9217,0.93527,0.94472,0.96598,0.96903,0.96775,0.98366,1.0026,1.0094,1.0087,1.0095,1.0115,1.0102,1.02,1.0245,1.0151,0.99862,0.98751,0.96661,0.94687,0.93168,0.9097,0.9018,0.89755,0.89079,0.87783,0.88434,0.88374,0.87786,0.87925,0.8675,0.8657,0.88022,0.88141,0.87902,0.85928,0.85806,0.89772,1.0318,1.2189,1.4934,1.7716,1.9736,2.0611,2.0011,1.9265,1.6832,1.2848,0.79034,0.60087,0.64016,0.66898,0.74825,0.78876,0.8248,0.83136,0.8362,0.83965,0.84609,0.84541,0.85078,0.84228,0.84995,0.85031,0.85831,0.85557,0.84829,0.85287,0.85808,0.85195,0.85767,0.85718,0.8584,0.85804,0.86751,0.86347,0.86015,0.86315,0.86063,0.86667,0.86565,0.86554,0.86154,0.86734,0.87011,0.87392,0.86845,0.8607,0.86706,0.87732,0.87311,0.87836,0.87396,0.87025,0.87489,0.87541,0.87422,0.86525,0.86303,0.87368,0.87716,0.87648,0.86526,0.87333,0.87013,0.8753,0.87102,0.86263,0.88286,0.88467,0.8947,0.89431,0.89258,0.89148,0.89026,0.90192,0.89377,0.90114,0.89702,0.89185,0.91821,0.91547,0.91222,0.91119,0.9196,0.93207,0.94264,0.95348,0.94678,0.9589,0.96458,0.96527,0.9685,0.97061,0.96054,0.96634,0.96898,0.96159,0.95439,0.94829,0.94581,0.95558,0.9505,0.94547,0.93937,0.94265,0.95476,0.95417,0.95076,0.95306,0.9575,0.96909,0.96119,0.96776,0.9637,0.96872,0.97854,0.9886,0.99235,0.98786,0.98913,0.99591,1.0051,0.99814,0.99742,1.0001,1.0132,1.0195,1.0215,1.018,1.0092,1.0102,1.0197,1.0159,1.0131,1.0109,1.0029,1.0125,1.0063,0.99217,0.99013,0.98493,0.99283,0.98731,0.98183,0.97321,0.96741,0.97409,0.97241,0.96122,0.9595,0.9532,0.94826,0.96086,0.95689,0.9525,0.94876,0.94475,0.9488,0.94556,0.93829,0.93563,0.93223,0.94175,0.93637,0.9278,0.93013,0.93802,0.94151,0.94354,0.93206,0.92482,0.92129,0.93553,0.93363,0.93385,0.92915,0.9299,0.93436,0.93505,0.93344,0.9241,0.91835,0.92588,0.93275,0.92668,0.9235,0.92258,0.93049,0.92413,0.9354,0.91878,0.92517,0.92192,0.92363,0.92426,0.9241,0.92758,0.92851,0.93604,0.93453,0.92917,0.94122,0.95282,0.98186,0.98674,0.98447,0.99523,1.0089,1.0175,1.0269,1.0229,1.0152,1.0185,1.0313,1.0339,1.0251,1.0143,1.0031,0.99323,0.97252,0.95365,0.93705,0.92813,0.91993,0.92087,0.914,0.90019,0.9017,0.90642,0.90137,0.89718,0.89435,0.89383,0.90038,0.90023,0.89797,0.87888,0.87532,0.94257,1.0811,1.3024,1.5744,1.8352,2.0256,2.0795,2.0188,1.892,1.6046,1.1223,0.72743,0.6485,0.68775,0.71388,0.78703,0.83291,0.85462,0.86207,0.8642,0.86561,0.87266,0.88249,0.87152,0.87184,0.87744,0.88329,0.89386,0.88758,0.88495,0.88484,0.8821,0.8909,0.88859,0.88864,0.88242,0.87308,0.89663,0.89074,0.89062,0.89132,0.88739,0.90267,0.8952,0.89388,0.89733,0.88816,0.89271,0.89612,0.89453,0.88854,0.88375,0.8939,0.89768,0.89653,0.88875,0.89418,0.89354,0.90155,0.90137,0.88995,0.89207,0.89304,0.90147,0.90108,0.89214,0.88751,0.88771,0.90141,0.9,0.89673,0.90324,0.90764,0.92047,0.91547,0.91884,0.90524,0.90898,0.91609,0.92927,0.92477,0.91846,0.92358,0.93117,0.9428,0.94402,0.94654,0.95001,0.95514,0.96801,0.97408,0.97404,0.98245,0.9837,0.99702,0.99487,0.99048,0.98915,0.98488,0.98893,0.9874,0.97356,0.97453,0.967,0.97634,0.96822,0.96551,0.95829,0.96287,0.96482,0.96414,0.96462,0.96071,0.96808,0.97021,0.97507,0.97805,0.97898,0.98763,0.99019,1.0035,1.007,1.0041,1.0104,1.0148,1.0196,1.026,1.0225,1.0293,1.0294,1.0381,1.0435,1.0313,1.0347,1.0328,1.0273,1.0385,1.0331,1.0256,1.0198,1.0202,1.019,1.0144,1.007,1.0069,1.0095,1.0029,1.0017,0.98444,0.98402,0.98621,0.98404,0.98544,0.97533,0.97429,0.97454,0.97624,0.97889,0.96559,0.95864,0.95993,0.96879,0.96665,0.96259,0.95814,0.95478,0.96408,0.9604,0.95675,0.95435,0.95347,0.95907,0.96016,0.9525,0.94868,0.94759,0.95169,0.95374,0.95313,0.94499,0.94538,0.95227,0.95164,0.94854,0.94095,0.94048,0.95077,0.95979,0.97255,0.97865,0.98402,1.0019,1.0081,1.0165,1.0195,1.0216,1.0398,1.0526,1.0498,1.0555,1.0463,1.047,1.0508,1.0409,1.0284,1.0042,0.98497,0.98285,0.9617,0.94802,0.93028,0.93064,0.9299,0.92594,0.92021,0.91355,0.91307,0.91257,0.91809,0.91606,0.91474,0.91183,0.9068,0.90303,0.88586,0.8856,0.96593,1.108,1.3556,1.6231,1.8772,2.0527,2.0823,2.0359,1.8755,1.7297,1.3403,0.8052,0.67083,0.68642,0.74959,0.80622,0.84133,0.87407,0.87832,0.88112,0.8762,0.87769,0.88674,0.89601,0.88989,0.88657,0.89147,0.89913,0.8984,0.90343,0.8989,0.90062,0.89581,0.91239,0.90626,0.90015,0.89746,0.90113,0.9072,0.90878,0.9043,0.9073,0.90541,0.91816,0.91603,0.90687,0.90961,0.91226,0.91572,0.91507,0.91381,0.9103,0.91097,0.9117,0.91774,0.92047,0.90773,0.90836,0.91299,0.92087,0.91748,0.90973,0.91221,0.91394,0.91859,0.91416,0.91385,0.91611,0.91956,0.92555,0.92867,0.92369,0.9274,0.93139,0.9361,0.94386,0.93791,0.93179,0.93696,0.94466,0.94761,0.94213,0.94501,0.95106,0.96417,0.96663,0.9668,0.97684,0.98098,0.99048,0.99437,0.99625,0.994,1.0003,1.0048,1.0076,1.0103,0.99703,0.99442,0.99478,0.99453,0.99133,0.97714,0.9768,0.97724,0.97716,0.9729,0.96755,0.97015,0.96406,0.97439,0.97691,0.97691,0.97057,0.9797,0.98671,0.99232,0.99999,0.98836,0.9994,1.0127,1.0176,1.0212,1.0166,1.0238,1.0313,1.0366,1.0435,1.0378,1.0389,1.043,1.0519,1.0491,1.0425,1.0449,1.0488,1.0498,1.0456,1.0377,1.0284,1.0312,1.0378,1.0316,1.0246,1.0158,1.0087,1.0186,1.0104,1.0062,0.99714,0.99546,0.99859,0.99746,0.99172,0.98067,0.97754,0.98315,0.98349,0.98074,0.9708,0.96828,0.97491,0.97911,0.9735,0.96625,0.96239,0.96795,0.97223,0.96935,0.95944,0.95833,0.95825,0.96591,0.958,0.95864,0.95405,0.95489,0.96298,0.95854,0.95627,0.95548,0.95264,0.95812,0.95517,0.9521,0.94884,0.9433,0.95653,0.95545,0.95469,0.94645,0.94648,0.94956,0.95859,0.94983,0.94068,0.94546,0.94744,0.95281,0.95057,0.94276,0.94445,0.94411,0.956,0.95047,0.94286,0.94396,0.94437,0.95115,0.94865,0.94441,0.94511,0.94141,0.94855,0.95009,0.94781,0.94061,0.94062,0.94678,0.95138,0.9443,0.93959,0.94239,0.94722,0.95468,0.9518,0.94251,0.9478,0.94743,0.95041,0.95074,0.94532,0.94629,0.94605,0.95103,0.95156,0.9468,0.94881,0.94792,0.95066,0.94982,0.94746,0.94479,0.94615,0.9512,0.95175,0.94244,0.94714,0.94671,0.95165,0.95542,0.95204,0.94341,0.94413,0.94645,0.95129,0.95087,0.9471,0.96826,0.98048,0.9939,1.0037,1.0017,1.0135,1.0268,1.0333,1.051,1.0361,1.0408,1.0444,1.0515,1.0551,1.0423,1.0344,1.0251,1.0134,0.98828,0.98057,0.96165,0.94672,0.94306,0.93667,0.93108,0.91917,0.92075,0.92433,0.91909,0.91815,0.9118,0.91298,0.91783,0.91409,0.90371,0.8953,0.95137,1.0824,1.1824,1.4265,1.8112,2.0067,2.0598,2.0139,1.9309,1.6673,1.2384,0.79856,0.68517,0.74838,0.7967,0.83364,0.86561,0.88074,0.87308,0.88759,0.87467,0.87814,0.88256,0.89297,0.88492,0.88742,0.88843,0.8947,0.89332,0.89624,0.88542,0.89501,0.89661,0.90171,0.90102,0.9016,0.90307,0.90962,0.91372,0.90998,0.90155,0.89391,0.90194,0.9134,0.90126,0.89936,0.9019,0.91449,0.91099,0.90592,0.89557,0.89603,0.89236,0.89713,0.89336,0.90053,0.89916,0.89778,0.89974,0.89981,0.89158,0.89371,0.88812,0.89483,0.8975,0.90026,0.89023,0.89455,0.90332,0.9075,0.90568,0.89659,0.90058,0.90285,0.90896,0.91179,0.9116,0.90828,0.9061,0.91681,0.92081,0.91648,0.91797,0.91578,0.92805,0.92532,0.92738,0.93147,0.93982,0.95227,0.96117,0.96153,0.96518,0.96709,0.98538,0.9863,0.98622,0.9764,0.97952,0.9761,0.98511,0.97555,0.96716,0.96725,0.96574,0.96892,0.97136,0.96919,0.9648,0.95621,0.96796,0.96771,0.96648,0.96797,0.97222,0.98149,0.98808,0.98623,0.98252,0.99084,0.9995,1.0067,1.0093,1.0042,1.0107,1.0138,1.0269,1.031,1.0264,1.0231,1.0269,1.0297,1.0294,1.0233,1.0284,1.0227,1.027,1.0263,1.0221,1.0192,1.0142,1.0205,1.0118,1.0052,0.99938,0.99888,1.0003,0.99529,0.98575,0.97826,0.9815,0.98619,0.98234,0.97309,0.96317,0.96624,0.96436,0.95709,0.95975,0.94752,0.94159,0.95181,0.95025,0.95175,0.94008,0.93961,0.9425,0.93918,0.94164,0.93407,0.93229,0.93847,0.93973,0.93408,0.92639,0.93033,0.93076,0.93274,0.92922,0.92801,0.9179,0.92211,0.92834,0.92524,0.92761,0.91949,0.91398,0.92089,0.91968,0.91976,0.91552,0.91427,0.92838,0.92195,0.91321,0.90832,0.91113,0.91949,0.92094,0.91569,0.90689,0.91232,0.90868,0.92094,0.91794,0.90884,0.90486,0.91171,0.91828,0.91148,0.90887,0.90336,0.90678,0.91597,0.91306,0.90761,0.90482,0.9008,0.90015,0.90612,0.9069,0.90091,0.90081,0.90558,0.9018,0.90757,0.9031,0.90454,0.90616,0.90889,0.90302,0.89705,0.89396,0.90144,0.91212,0.90846,0.91316,0.92564,0.93276,0.95232,0.96173,0.96389,0.9741,0.98073,1.0021,1.0102,0.99915,1.0029,1.0006,1.0167,1.0116,0.99727,0.98226,0.96178,0.945,0.93362,0.92296,0.90157,0.89684,0.89199,0.88577,0.87114,0.8705,0.87349,0.88057,0.88421,0.87703,0.86939,0.86893,0.86326,0.8637,0.86565,0.8844,0.98855,1.1677,1.4312,1.6912,1.9026,2.0179,2.0101,1.9669,1.8504,1.5617,1.0796,0.69714,0.62291,0.68799,0.74775,0.79414,0.82253,0.84336,0.83963,0.83981,0.8318,0.84315,0.84685,0.84999,0.8439,0.84444,0.85258,0.8545,0.86211,0.86166,0.8471,0.84887,0.85111,0.86091,0.85354,0.84857,0.84772,0.8512,0.86142,0.85806,0.85406,0.85819,0.85371,0.86114,0.85971,0.84915,0.84983,0.85782,0.85563,0.8655,0.86556,0.84741,0.85796,0.85378,0.86636,0.86443,0.8539,0.85482,0.86205,0.86541,0.85878,0.85017,0.85294,0.86319,0.8565,0.85826,0.85717,0.84974,0.8536,0.86796,0.8755,0.87184,0.86883,0.86767,0.8758,0.88027,0.8787,0.86581,0.8739,0.8839,0.88631,0.88035,0.87714,0.88275,0.90077,0.89817,0.90221,0.90352,0.90792,0.92122,0.93371,0.92486,0.92306,0.92896,0.9433,0.94874,0.95673,0.94325,0.93087,0.93855,0.93381,0.92409,0.91231,0.91613,0.91897,0.92181,0.9186,0.92044,0.91448,0.91267,0.92365,0.92413,0.92415,0.91967,0.92673,0.94091,0.92881,0.94005,0.9336,0.9393,0.96316,0.95457,0.96012,0.95515,0.96211,0.97607,0.98045,0.97567,0.97827,0.97072,0.97267,0.99129,0.98492,0.98105,0.97324,0.97242,0.98118,0.97671,0.9786,0.97247,0.96064,0.96279,0.95466,0.95609,0.94977,0.94229,0.94541,0.94312,0.9375,0.93172,0.93052,0.93115,0.93961,0.9353,0.92178,0.91318,0.91184,0.92281,0.92058,0.91151,0.90971,0.90937,0.91024,0.91459,0.90135,0.9055,0.90714,0.91515,0.90651,0.89822,0.8982,0.89656,0.90625,0.90328,0.89428,0.89297,0.89476,0.90655,0.91106,0.91362,0.92045,0.92483,0.93014,0.94584,0.95195,0.96633,0.97282,0.97795,0.99911,1.0023,0.98555,0.99402,1.0015,1.0092,1.0149,0.99611,0.98604,0.97161,0.9639,0.92972,0.90455,0.89994,0.88439,0.88502,0.8892,0.87439,0.86875,0.86704,0.86787,0.86404,0.86081,0.85443,0.85662,0.86059,0.86433,0.85809,0.83633,0.83364,0.86347,0.96801,1.1426,1.4079,1.6874,1.9111,2.0353,2.0001,1.9229,1.8188,1.5299,1.0149,0.66372,0.61808,0.64782,0.71889,0.77659,0.80848,0.8243,0.82405,0.83388,0.83621,0.84501,0.83797,0.83434,0.83725,0.84747,0.84308,0.84548,0.83436,0.84626,0.84059,0.84959,0.85383,0.83606,0.83744,0.85125,0.86167,0.8483,0.84755,0.86357,0.85596,0.8552,0.86017,0.85654,0.84865,0.86244,0.86327,0.86341,0.86579,0.86914,0.87504,0.86583,0.88551,0.87905,0.87165,0.86904,0.89165,0.88235,0.88241,0.87359,0.8809,0.87864,0.8715,0.86799,0.86523,0.8789,0.88722,0.87898,0.88246,0.88147,0.88219,0.87852,0.9121,0.89976,0.89299,0.89651,0.89414,0.90724,0.90346,0.90356,0.89067,0.90354,0.90884,0.91788,0.91942,0.91718,0.92594,0.94009,0.93475,0.94676,0.95542,0.95217,0.96342,0.9665,0.96429,0.96332,0.9573,0.96046,0.95642,0.95413,0.94261,0.93506,0.9378,0.9308,0.9296,0.92264,0.91965,0.92606,0.93534,0.9337,0.91955,0.92756,0.92338,0.9434,0.95628,0.94551,0.9472,0.96037,0.96498,0.9766,0.97155,0.98522,0.98335,0.98947,0.99758,1.0024,0.99686,1.0076,1.0052,1.0079,1.0107,0.99909,1.0087,1.002,1.014,1.0097,0.99442,0.9958,1.0004,0.99968,0.99856,0.97626,0.98478,0.97908,0.98583,0.97914,0.97324,0.97494,0.95826,0.96261,0.96717,0.96709,0.9503,0.94643,0.96351,0.94782,0.94729,0.94625,0.94391,0.94942,0.94782,0.94355,0.94823,0.93866,0.93899,0.95172,0.96896,0.9726,0.97266,0.97479,0.98781,1.0057,0.99666,1.0217,1.027,1.0319,1.0402,1.0178,1.0332,1.0303,1.0471,1.035,1.019,1.0044,0.98545,0.97149,0.94032,0.92777,0.91401,0.92014,0.92429,0.9006,0.91173,0.89504,0.89523,0.90539,0.89181,0.89978,0.89743,0.88723,0.89524,0.89799,0.88776,0.85609,0.87279,0.95836,1.1249,1.3887,1.634,1.7878,1.9897,2.0767,2.0345,1.948,1.6716,1.2286,0.77661,0.67544,0.72596,0.786,0.82895,0.8604,0.86721,0.87441,0.8722,0.87335,0.88326,0.87933,0.87771,0.87283,0.87237,0.88173,0.88547,0.88382,0.8781,0.87897,0.88104,0.88525,0.88969,0.88201,0.88116,0.88806,0.88905,0.88971,0.88487,0.88571,0.88957,0.89426,0.89251,0.88668,0.88898,0.88479,0.89452,0.89114,0.88822,0.88979,0.88408,0.89408,0.88944,0.8863,0.88426,0.88249,0.89072,0.8862,0.8867,0.88045,0.87899,0.8872,0.88483,0.88632,0.88229,0.88262,0.88604,0.89635,0.89896,0.89206,0.89564,0.89989,0.90596,0.91159,0.90723,0.9041,0.9057,0.91652,0.91265,0.90757,0.91324,0.92032,0.93041,0.9297,0.927,0.92691,0.93868,0.94749,0.95712,0.95382,0.95181,0.95665,0.96495,0.96847,0.96293,0.95263,0.94718,0.95089,0.94991,0.94149,0.9296,0.92846,0.92739,0.93282,0.93156,0.92186,0.922,0.92084,0.93506,0.9335,0.92992,0.92839,0.9297,0.94172,0.9494,0.94869,0.94774,0.95197,0.96074,0.96713,0.96477,0.96533,0.96516,0.97609,0.98005,0.97817,0.97685,0.98205,0.98303,0.99109,0.98613,0.97365,0.98173,0.98194,0.98536,0.98584,0.97248,0.9718,0.97149,0.96779,0.96847,0.95532,0.95293,0.95109,0.95304,0.95149,0.94557,0.93688,0.93636,0.93972,0.93776,0.93263,0.9202,0.91798,0.92924,0.92518,0.91679,0.91007,0.9132,0.91679,0.91715,0.91207,0.90403,0.90517,0.905,0.9139,0.91154,0.90509,0.90309,0.90345,0.91106,0.91119,0.90984,0.91527,0.9256,0.94418,0.95086,0.95322,0.9652,0.97851,1.0034,1.0073,0.99638,0.99183,0.99839,1.0006,1.0047,1.0196,1.0043,0.9836,0.98117,0.96099,0.93102,0.90072,0.89293,0.8809,0.87913,0.88087,0.86076,0.86046,0.86105,0.86102,0.86396,0.8578,0.85763,0.85868,0.86508,0.85733,0.85432,0.84027,0.83757,0.87398,0.98436,1.1654,1.4262,1.7108,1.9468,2.0492,1.9972,1.918,1.6829,1.3055,0.77478,0.58482,0.59867,0.62367,0.72008,0.76518,0.80404,0.80496,0.81563,0.81619,0.83012,0.81856,0.82472,0.81765,0.8307,0.83348,0.83751,0.83011,0.83506,0.8365,0.84609,0.84032,0.84079,0.83402,0.83351,0.84643,0.8452,0.8401,0.83438,0.83385,0.84959,0.84787,0.84578,0.84258,0.84437,0.85183,0.85658,0.85123,0.84752,0.84828,0.8488,0.85808,0.86012,0.84859,0.84652,0.84483,0.85655,0.85306,0.84593,0.84523,0.84528,0.85606,0.84972,0.8453,0.8446,0.84774,0.85308,0.85197,0.84941,0.85409,0.85556,0.86911,0.86464,0.86532,0.86351,0.86587,0.87201,0.86992,0.87081,0.86933,0.8749,0.88095,0.89015,0.89242,0.88289,0.89905,0.90334,0.91851,0.92155,0.91893,0.93214,0.93767,0.94425,0.9508,0.94582,0.94091,0.94002,0.94273,0.93676,0.93329,0.92091,0.92262,0.92511,0.91993,0.91663,0.90851,0.9149,0.91814,0.91769,0.91557,0.91329,0.91827,0.93041,0.93305,0.93499,0.93273,0.93658,0.94922,0.95316,0.9595,0.95602,0.96334,0.96392,0.97144,0.97414,0.97268,0.97535,0.98023,0.98455,0.98413,0.97959,0.97847,0.97949,0.98308,0.98039,0.98068,0.96726,0.96782,0.96925,0.96573,0.96297,0.95124,0.94964,0.95026,0.94923,0.94885,0.93478,0.93371,0.93496,0.938,0.93313,0.91864,0.91643,0.92102,0.92626,0.92274,0.91651,0.90797,0.90669,0.91561,0.91247,0.90584,0.89929,0.90396,0.90651,0.90097,0.8979,0.89847,0.89808,0.90404,0.90485,0.89746,0.89376,0.8949,0.89508,0.89638,0.89321,0.88618,0.88592,0.89031,0.89601,0.8903,0.88515,0.88553,0.88969,0.89224,0.88979,0.88208,0.88333,0.88824,0.89268,0.89148,0.88552,0.88105,0.88565,0.89342,0.89162,0.88786,0.88444,0.88472,0.89098,0.88599,0.8875,0.88558,0.88366,0.88987,0.89036,0.88506,0.88373,0.88089,0.89491,0.89547,0.90177,0.90893,0.91862,0.92549,0.94686,0.95471,0.96406,0.97285,0.98471,1.004,0.99145,0.98712,0.98869,0.98723,1.0001,1,0.98382,0.97116,0.95014,0.93854,0.91949,0.89577,0.88708,0.87682,0.87916,0.87564,0.87009,0.85833,0.85559,0.85487,0.85947,0.85555,0.84703,0.84979,0.85119,0.84668,0.83475,0.83377,0.92835,1.0928,1.346,1.6208,1.751,1.943,2.0306,1.9795,1.8961,1.6275,1.22,0.7243,0.57626,0.62325,0.69405,0.75464,0.78102,0.81104,0.81293,0.81761,0.81044,0.82192,0.82559,0.83181,0.82575,0.82368,0.82128,0.83205,0.83327,0.83126,0.8197,0.82922,0.82423,0.83108,0.82941,0.83057,0.82991,0.83479,0.83702,0.84095,0.83207,0.83309,0.83647,0.83773,0.83931,0.84111,0.83308,0.84004,0.84022,0.83924,0.83606,0.82967,0.83663,0.84283,0.84276,0.84376,0.83032,0.83854,0.84497,0.84377,0.84135,0.83736,0.83664,0.84401,0.84605,0.8461,0.83844,0.84113,0.84648,0.84816,0.85125,0.84828,0.85332,0.85799,0.869,0.86259,0.8637,0.85646,0.85929,0.86499,0.86508,0.86207,0.86786,0.86966,0.88777,0.88607,0.89402,0.89446,0.88986,0.90448,0.91192,0.91845,0.91709,0.92253,0.93136,0.933,0.93596,0.93057,0.9263,0.93701,0.92991,0.93047,0.91582,0.91644,0.92032,0.92527,0.91935,0.90939,0.90837,0.90674,0.92068,0.92029,0.92581,0.92117,0.92275,0.93783,0.94284,0.94457,0.94534,0.95046,0.96676,0.96194,0.95892,0.96175,0.96178,0.96375,0.96984,0.97356,0.97029,0.97348,0.97761,0.9825,0.98293,0.9724,0.97223,0.9705,0.97581,0.97316,0.96789,0.96292,0.96277,0.96546,0.95484,0.94883,0.94198,0.94071,0.94355,0.93599,0.93471,0.9231,0.92062,0.92706,0.92659,0.91712,0.91428,0.91514,0.91553,0.9122,0.90698,0.90348,0.89735,0.90012,0.90045,0.89849,0.8941,0.89871,0.89759,0.90555,0.89441,0.89053,0.89436,0.8869,0.90013,0.89691,0.89317,0.89068,0.89203,0.89654,0.89431,0.88293,0.88169,0.88334,0.88824,0.88686,0.8803,0.8759,0.88746,0.90701,0.91449,0.91555,0.91197,0.93716,0.94501,0.96396,0.98207,0.98535,0.98346,0.9828,0.98476,0.98056,0.98165,0.98109,0.97754,0.97618,0.95344,0.94344,0.91031,0.89402,0.89493,0.88002,0.86778,0.87025,0.86533,0.85892,0.86118,0.85935,0.85125,0.84842,0.85083,0.85149,0.84889,0.84087,0.83958,0.83586,0.84789,0.88163,0.99419,1.2001,1.4909,1.7609,1.9656,2.0352,1.9813,1.8873,1.6232,1.1729,0.68926,0.60461,0.62056,0.68777,0.76495,0.77955,0.81312,0.80809,0.82656,0.82102,0.834,0.81938,0.8318,0.82845,0.84135,0.83493,0.83199,0.82815,0.84459,0.84036,0.84856,0.8328,0.83977,0.84124,0.8474,0.83875,0.83786,0.83566,0.85152,0.8495,0.85279,0.84631,0.84185,0.84319,0.85241,0.85036,0.85178,0.84814,0.84799,0.85473,0.84969,0.85018,0.84746,0.84743,0.85732,0.85413,0.85075,0.84403,0.84618,0.8579,0.85379,0.8513,0.84358,0.84169,0.8459,0.85353,0.84728,0.84249,0.84125,0.85137,0.8542,0.85819,0.85315,0.85519,0.85844,0.86597,0.8596,0.85632,0.85834,0.86258,0.86783,0.87099,0.87528,0.87753,0.88335,0.89623,0.89753,0.90461,0.90463,0.91279,0.92731,0.93114,0.9326,0.93352,0.93038,0.9399,0.93619,0.93348,0.92592,0.92125,0.91926,0.9243,0.91538,0.90744,0.90824,0.90863,0.91635,0.91572,0.90668,0.91137,0.90911,0.92361,0.92192,0.92031,0.92886,0.93301,0.9431,0.94863,0.9498,0.956,0.95527,0.96454,0.9743,0.97545,0.96606,0.97673,0.97854,0.98534,0.98655,0.9806,0.98186,0.99081,0.98752,0.98672,0.9756,0.97757,0.97632,0.97529,0.97292,0.96189,0.96316,0.96193,0.96535,0.96098,0.94556,0.94728,0.94405,0.94892,0.94675,0.9344,0.93199,0.93111,0.93344,0.9307,0.92422,0.91416,0.9158,0.91966,0.92036,0.91358,0.90492,0.90805,0.90955,0.91464,0.91809,0.9194,0.93085,0.94275,0.95318,0.95375,0.96337,0.97275,0.98614,1.0077,1.0101,0.9888,0.99772,1.0009,1.007,1.0143,0.99782,0.99415,0.97699,0.97042,0.94897,0.91734,0.89449,0.88355,0.8825,0.87808,0.87464,0.85915,0.859,0.86212,0.86041,0.86246,0.85168,0.85529,0.85483,0.85629,0.85087,0.84771,0.82978,0.82568,0.85549,0.95643,1.1305,1.402,1.6835,1.9128,2.0358,1.99,1.9157,1.6818,1.3086,0.7677,0.58585,0.59419,0.66485,0.74747,0.77026,0.79484,0.79341,0.81108,0.81584,0.82205,0.81743,0.82272,0.81459,0.83196,0.82308,0.82859,0.81402,0.82221,0.82774,0.8368,0.83154,0.82917,0.82495,0.83411,0.83437,0.83745,0.83457,0.83406,0.83081,0.84312,0.83984,0.84326,0.84138,0.8399,0.84955,0.8508,0.8471,0.8428,0.83944,0.85427,0.8511,0.85085,0.84448,0.84534,0.84825,0.84935,0.84662,0.84119,0.83945,0.84149,0.84673,0.84463,0.83882,0.8382,0.84231,0.84985,0.84961,0.84559,0.84797,0.84896,0.85959,0.85547,0.85391,0.85514,0.86003,0.86157,0.86787,0.86625,0.8657,0.86618,0.87485,0.87908,0.88021,0.87648,0.88555,0.88713,0.90563,0.91197,0.91339,0.91957,0.92922,0.93116,0.93249,0.92164,0.92327,0.9246,0.92925,0.91859,0.91189,0.90728,0.89951,0.90243,0.90417,0.89469,0.89031,0.8889,0.89621,0.89689,0.89003,0.88902,0.88983,0.90024,0.90669,0.90484,0.90926,0.91204,0.91826,0.92716,0.93033,0.92393,0.93387,0.93813,0.94666,0.95269,0.94818,0.9553,0.95885,0.96347,0.96287,0.95594,0.96009,0.96031,0.96545,0.9663,0.95277,0.95093,0.9493,0.95329,0.95076,0.94698,0.93342,0.93432,0.93588,0.9352,0.92914,0.91617,0.91322,0.91672,0.91417,0.91172,0.89996,0.89889,0.90132,0.89795,0.8969,0.88438,0.88681,0.89114,0.8885,0.88978,0.88591,0.8848,0.88205,0.88658,0.8851,0.878,0.87428,0.8802,0.88456,0.87815,0.87657,0.87432,0.87669,0.87836,0.87763,0.8723,0.86843,0.86902,0.87625,0.87147,0.87232,0.86397,0.86317,0.87464,0.8701,0.87246,0.86198,0.86556,0.87029,0.87251,0.87032,0.86274,0.8603,0.86949,0.87252,0.86689,0.86326,0.8643,0.86634,0.87651,0.87152,0.86711,0.85921,0.86199,0.87167,0.86983,0.86538,0.8589,0.85785,0.87012,0.86742,0.87133,0.86564,0.86403,0.86992,0.86869,0.8676,0.86274,0.85841,0.86279,0.87097,0.86772,0.85736,0.85761,0.86465,0.87196,0.8685,0.85932,0.86528,0.86807,0.86793,0.86606,0.86228,0.86098,0.86704,0.87451,0.87137,0.86563,0.86438,0.85958,0.87042,0.87347,0.86464,0.86307,0.86213,0.87052,0.86973,0.86661,0.86835,0.86633,0.87073,0.87515,0.86934,0.86728,0.86244,0.87366,0.87866,0.87441,0.87002,0.86928,0.87051,0.88031,0.88,0.89416,0.90068,0.91646,0.93225,0.93435,0.94657,0.95376,0.95757,0.97286,0.97429,0.97059,0.96849,0.9756,0.98107,0.97774,0.96533,0.93252,0.92106,0.90433,0.90248,0.8823,0.86574,0.86026,0.85611,0.85252,0.85555,0.84675,0.85221,0.8472,0.85323,0.85044,0.83188,0.83721,0.82865,0.82851,0.84653,0.94164,1.1113,1.3645,1.6489,1.873,1.9916,1.9463,1.8863,1.7222,1.4053,0.90408,0.61827,0.63496,0.71156,0.76078,0.78263,0.79794,0.79574,0.8048,0.81697,0.81525,0.8024,0.81034,0.8041,0.82109,0.81918,0.8161,0.80941,0.81993,0.81489,0.82497,0.81039,0.81799,0.82425,0.82678,0.82397,0.82442,0.82001,0.81874,0.82996,0.82474,0.83079,0.82569,0.8212,0.83314,0.824,0.83239,0.81853,0.82349,0.82363,0.82776,0.83675,0.82364,0.82563,0.83479,0.82996,0.82953,0.82619,0.82343,0.83389,0.83688,0.83181,0.82868,0.82476,0.82945,0.83052,0.84134,0.83591,0.8256,0.84427,0.84238,0.84605,0.84752,0.84704,0.85366,0.86504,0.85756,0.85889,0.85483,0.85446,0.8656,0.87167,0.8617,0.86665,0.86791,0.87938,0.88981,0.88867,0.89281,0.89518,0.91,0.91964,0.92152,0.92347,0.92363,0.93194,0.93713,0.93786,0.93081,0.9297,0.92745,0.93082,0.92057,0.91927,0.919,0.91565,0.91749,0.92152,0.91955,0.91712,0.91679,0.92697,0.92751,0.93187,0.93131,0.9298,0.94976,0.95418,0.95539,0.95579,0.95644,0.96405,0.97984,0.97639,0.97899,0.97897,0.97564,0.99119,0.98957,0.99064,0.98813,0.9886,0.99825,0.99219,0.98759,0.98554,0.98274,0.98858,0.97972,0.97453,0.96881,0.96463,0.96111,0.96567,0.95546,0.94401,0.94275,0.94905,0.94427,0.93749,0.92488,0.92469,0.92991,0.92387,0.92231,0.91115,0.91391,0.91556,0.91496,0.91093,0.90221,0.8994,0.90257,0.90661,0.90655,0.89982,0.8948,0.89122,0.898,0.89689,0.88983,0.88509,0.88828,0.89218,0.89066,0.88495,0.87849,0.87803,0.88702,0.88611,0.88457,0.87493,0.87659,0.88166,0.88223,0.87853,0.86649,0.86682,0.87075,0.87418,0.87386,0.86358,0.8679,0.87158,0.87438,0.87411,0.86538,0.8666,0.86907,0.87247,0.87037,0.86878,0.86117,0.86229,0.86728,0.86298,0.86388,0.85571,0.86148,0.86499,0.86829,0.86436,0.85944,0.8642,0.86569,0.86702,0.86363,0.85494,0.8553,0.85734,0.86382,0.86647,0.86114,0.85716,0.85988,0.86707,0.86355,0.86403,0.85719,0.8613,0.86437,0.85529,0.85321,0.85102,0.85384,0.87737,0.88479,0.89106,0.90334,0.90451,0.91529,0.92625,0.93912,0.93458,0.94945,0.95632,0.96047,0.96124,0.96028,0.95769,0.95668,0.94434,0.92917,0.8964,0.87776,0.8724,0.86359,0.85377,0.83992,0.84282,0.83356,0.84121,0.8395,0.83759,0.82787,0.82856,0.83422,0.83306,0.8247,0.81511,0.80865,0.83188,0.92809,1.0929,1.3541,1.6241,1.857,1.9948,1.9759,1.9461,1.8626,1.5935,1.1672,0.70254,0.57355,0.6298,0.70117,0.75407,0.77641,0.79135,0.78924,0.79997,0.80047,0.80635,0.79346,0.80516,0.80114,0.81529,0.80813,0.81194,0.80542,0.81406,0.81651,0.81679,0.8083,0.80726,0.80722,0.8145,0.82051,0.81755,0.80437,0.81678,0.82022,0.82041,0.81852,0.81791,0.81753,0.823,0.82649,0.82723,0.82165,0.81957,0.82126,0.83083,0.83339,0.8256,0.82676,0.82199,0.82871,0.83142,0.83229,0.82593,0.82768,0.83228,0.82656,0.82124,0.82221,0.8209,0.82909,0.83396,0.83077,0.82053,0.82258,0.82899,0.83943,0.84124,0.83328,0.83827,0.8425,0.84528,0.84408,0.83594,0.84431,0.84386,0.85165,0.85503,0.84572,0.85176,0.86329,0.87308,0.87739,0.88229,0.88727,0.89475,0.9101,0.91448,0.91321,0.91012,0.91407,0.915,0.91088,0.91424,0.90806,0.90568,0.90701,0.89556,0.89887,0.89225,0.89097,0.89654,0.89705,0.89822,0.89364,0.89233,0.90058,0.90843,0.91728,0.91699,0.91686,0.92027,0.9332,0.93891,0.93702,0.93875,0.94854,0.95477,0.95866,0.95364,0.95455,0.96213,0.96615,0.96595,0.97383,0.96571,0.96923,0.97512,0.97643,0.97319,0.96402,0.96332,0.9714,0.97015,0.96566,0.94636,0.94371,0.9457,0.94725,0.94356,0.93413,0.93143,0.9314,0.9361,0.93023,0.92639,0.92262,0.92045,0.92937,0.92039,0.91799,0.91456,0.91276,0.91879,0.91286,0.90591,0.90361,0.90193,0.90867,0.90465,0.90431,0.90255,0.89711,0.89953,0.90521,0.90499,0.89676,0.89983,0.90578,0.90926,0.90462,0.90115,0.89755,0.89787,0.9008,0.89753,0.8953,0.89671,0.89349,0.90527,0.89797,0.89409,0.89445,0.89243,0.8985,0.90068,0.89607,0.8893,0.89123,0.89641,0.89795,0.89782,0.89099,0.89301,0.89774,0.90128,0.89499,0.89681,0.91384,0.92721,0.94071,0.94378,0.94544,0.96064,0.9723,0.99342,0.99294,0.99341,0.99125,0.9979,1.0069,1.0089,1.0002,0.99138,0.98166,0.97077,0.94709,0.92985,0.91103,0.89473,0.898,0.89205,0.87818,0.87154,0.87457,0.87073,0.87538,0.8735,0.86483,0.86514,0.86427,0.86455,0.85914,0.84019,0.83918,0.89265,1.02,1.234,1.5054,1.7733,1.9729,2.0431,1.9834,1.9526,1.757,1.4183,0.88571,0.63291,0.62891,0.68329,0.76624,0.79658,0.83385,0.82934,0.83984,0.83408,0.85285,0.8448,0.8534,0.8419,0.85398,0.85343,0.86153,0.85791,0.85575,0.85311,0.86334,0.86253,0.8696,0.85393,0.86045,0.86073,0.86933,0.86546,0.86666,0.85772,0.8651,0.87137,0.87649,0.86913,0.86548,0.86556,0.87836,0.87114,0.87183,0.86539,0.86871,0.87697,0.87941,0.87627,0.86948,0.87093,0.87863,0.87871,0.88021,0.87223,0.8691,0.87798,0.87508,0.87804,0.86915,0.87127,0.87681,0.88182,0.87893,0.88054,0.87832,0.88212,0.89227,0.89295,0.89099,0.89018,0.89067,0.90043,0.89553,0.89722,0.89299,0.89627,0.90831,0.91008,0.9124,0.91184,0.91709,0.925,0.93332,0.94049,0.93749,0.94697,0.95758,0.96348,0.96505,0.96182,0.95848,0.96278,0.96121,0.95641,0.94434,0.94307,0.93905,0.94371,0.93738,0.93122,0.92811,0.92923,0.93575,0.94048,0.93673,0.93339,0.93643,0.94843,0.95019,0.95404,0.95288,0.95904,0.97165,0.98022,0.97704,0.97847,0.98125,0.99288,0.99889,1.0032,0.99919,1.004,1.0026,1.0137,1.0147,1.0107,1.0112,1.0084,1.0188,1.0134,1.0058,1.0038,0.99863,1.0073,1.002,0.99146,0.98751,0.98201,0.98913,0.9831,0.97408,0.97112,0.9679,0.96643,0.9684,0.96176,0.95179,0.95451,0.95621,0.95676,0.9536,0.94384,0.94564,0.94757,0.95386,0.94991,0.93845,0.93949,0.94026,0.94365,0.94353,0.93069,0.93497,0.93258,0.93765,0.93994,0.93367,0.93065,0.93193,0.93683,0.93525,0.92981,0.92671,0.92804,0.93086,0.92975,0.93122,0.9218,0.92346,0.92926,0.93089,0.92694,0.92254,0.92308,0.9268,0.92564,0.92803,0.92223,0.9242,0.92737,0.92916,0.92776,0.91975,0.92363,0.9251,0.9269,0.92819,0.9226,0.92104,0.92069,0.92592,0.92729,0.92485,0.91913,0.92106,0.92343,0.92267,0.92479,0.91779,0.92058,0.92649,0.92593,0.92794,0.91779,0.91931,0.92697,0.92672,0.9284,0.91823,0.92006,0.92339,0.92424,0.92565,0.92589,0.92078,0.91879,0.92749,0.92412,0.92443,0.91862,0.92255,0.93252,0.94411,0.95294,0.95584,0.96778,0.98649,0.99527,1.0036,1.0023,1.0191,1.0251,1.0173,1.0274,1.0191,1.0232,1.0233,1.0182,1.0097,0.98606,0.96296,0.95484,0.94824,0.93005,0.91299,0.90232,0.90566,0.90553,0.90273,0.89666,0.89494,0.89536,0.90374,0.89818,0.89897,0.8901,0.87919,0.87946,0.88502,0.96823,1.1175,1.3558,1.6365,1.8781,2.0283,2.0141,1.9533,1.8098,1.5049,1.0107,0.66589,0.63138,0.66839,0.7593,0.80651,0.83685,0.85084,0.85521,0.86713,0.8659,0.86096,0.86369,0.86331,0.8722,0.8718,0.87131,0.87227,0.86872,0.88125,0.87901,0.87546,0.87674,0.87483,0.87582,0.8778,0.87703,0.86927,0.87076,0.87758,0.88523,0.88138,0.87459,0.8784,0.87922,0.8838,0.88294,0.87737,0.87924,0.88058,0.88961,0.88765,0.8792,0.88364,0.88322,0.89061,0.89178,0.89002,0.88332,0.88369,0.89099,0.88993,0.88824,0.88444,0.88478,0.88933,0.89158,0.88631,0.88489,0.88621,0.89744,0.90284,0.90184,0.89929,0.90037,0.8998,0.90971,0.91096,0.9027,0.90445,0.90563,0.91203,0.91686,0.90983,0.91221,0.9199,0.92953,0.93877,0.93207,0.94195,0.94771,0.95569,0.96187,0.95944,0.9596,0.96732,0.97162,0.96961,0.96775,0.95759,0.95609,0.95869,0.95594,0.94915,0.94049,0.93947,0.94403,0.94189,0.94609,0.93257,0.94043,0.94882,0.95156,0.95559,0.95299,0.95658,0.96558,0.97324,0.97977,0.97738,0.97855,0.98547,0.99668,0.99802,0.99581,0.99458,0.99912,1.0069,1.0105,1.006,1.0012,1.0067,1.0151,1.0114,1.0103,1.0016,0.99984,1.002,1.0016,0.99945,0.98706,0.98565,0.98776,0.98379,0.98123,0.96985,0.96415,0.96528,0.96489,0.96383,0.9535,0.95099,0.94715,0.94858,0.94682,0.94349,0.93561,0.93431,0.93921,0.93091,0.92941,0.92465,0.91883,0.92947,0.92384,0.92206,0.91609,0.91454,0.92114,0.92082,0.91679,0.90854,0.90411,0.91051,0.91134,0.90758,0.90477,0.90305,0.90095,0.91046,0.90451,0.89892,0.89801,0.89881,0.90695,0.90428,0.89594,0.89688,0.89671,0.90506,0.90219,0.89873,0.89708,0.89778,0.90423,0.9005,0.89595,0.89223,0.89306,0.89711,0.89924,0.89519,0.88638,0.88958,0.89265,0.89773,0.89458,0.88768,0.88798,0.89327,0.89841,0.89516,0.88506,0.88676,0.89205,0.89692,0.89867,0.89389,0.88885,0.88782,0.89332,0.89467,0.88901,0.88667,0.88792,0.89331,0.89518,0.88889,0.88481,0.88758,0.89442,0.8951,0.89202,0.88648,0.89008,0.89086,0.90962,0.92226,0.92242,0.93457,0.94171,0.96317,0.97718,0.97174,0.98627,0.98171,0.98463,0.99574,0.9867,0.99166,0.98483,0.98267,0.97056,0.94524,0.92222,0.91763,0.91415,0.89831,0.8833,0.86917,0.86696,0.86617,0.86603,0.86043,0.85338,0.85427,0.85626,0.85872,0.85529,0.84222,0.8354,0.83333,0.86222,0.97753,1.1507,1.2877,1.5615,1.8258,1.988,1.9989,1.9219,1.8041,1.5166,1.0517,0.65175,0.58249,0.65611,0.73698,0.77674,0.80362,0.80872,0.81931,0.82782,0.82809,0.82316,0.81829,0.81894,0.82615,0.828,0.83231,0.8244,0.8262,0.83155,0.83609,0.83739,0.82718,0.82677,0.83236,0.83761,0.84274,0.8319,0.83356,0.83787,0.83917,0.8416,0.84003,0.83596,0.83684,0.8462,0.84455,0.84459,0.83774,0.83738,0.84894,0.84125,0.84566,0.84087,0.84572,0.85227,0.84139,0.84692,0.8358,0.83811,0.8454,0.84332,0.84761,0.84162,0.83647,0.84001,0.84647,0.84439,0.84047,0.84075,0.84153,0.85194,0.85236,0.85391,0.8544,0.85584,0.8622,0.86056,0.85742,0.86037,0.8599,0.87428,0.8719,0.87156,0.86545,0.86745,0.87784,0.8873,0.89223,0.89012,0.89603,0.91054,0.91569,0.91598,0.91695,0.91923,0.92124,0.92602,0.92129,0.91444,0.90916,0.91062,0.9113,0.90819,0.90782,0.89998,0.89689,0.90572,0.90187,0.90038,0.89793,0.89492,0.9115,0.91209,0.91124,0.90745,0.90992,0.93026,0.9357,0.93848,0.93773,0.94063,0.94812,0.94743,0.95299,0.95012,0.95181,0.95637,0.96496,0.96436,0.96148,0.96446,0.96446,0.96924,0.96796,0.95745,0.9604,0.95789,0.95894,0.95818,0.9482,0.9456,0.9473,0.94818,0.94609,0.93793,0.92624,0.92829,0.92805,0.93131,0.92153,0.9172,0.91437,0.91197,0.91892,0.91345,0.90566,0.90375,0.90401,0.90522,0.90219,0.8886,0.88604,0.89076,0.88839,0.89194,0.89008,0.88705,0.88391,0.88531,0.88714,0.88297,0.88979,0.88553,0.88706,0.88321,0.87967,0.87685,0.88061,0.8817,0.88365,0.87045,0.86938,0.87284,0.87485,0.88379,0.87922,0.86628,0.87082,0.86998,0.86978,0.8761,0.86305,0.86761,0.86815,0.86986,0.87409,0.86667,0.86379,0.86689,0.86964,0.87599,0.86724,0.86878,0.86926,0.87824,0.87492,0.87784,0.87078,0.87155,0.88283,0.88102,0.87874,0.8708,0.87206,0.87939,0.87813,0.8809,0.88881,0.90124,0.91851,0.92388,0.93482,0.936,0.94354,0.9596,0.97485,0.98424,0.97379,0.977,0.97741,0.98841,0.98598,0.97263,0.96046,0.94681,0.9329,0.91346,0.90026,0.87982,0.87244,0.87216,0.86841,0.86059,0.85397,0.85394,0.85742,0.85544,0.85553,0.84662,0.84671,0.851,0.84974,0.83486,0.82701,0.88865,1.0268,1.2443,1.5277,1.7812,1.969,2.0169,1.9501,1.852,1.7222,1.3844,0.84437,0.63149,0.62673,0.68883,0.74946,0.77584,0.82082,0.8196,0.82865,0.82266,0.8259,0.83108,0.83791,0.82802,0.83433,0.82844,0.8445,0.83895,0.84059,0.83386,0.83661,0.83866,0.84937,0.84371,0.84166,0.84107,0.84401,0.84829,0.84794,0.84247,0.84795,0.84658,0.85786,0.8545,0.84735,0.84998,0.85034,0.86,0.85948,0.85393,0.84991,0.85065,0.85808,0.86203,0.85883,0.84995,0.85095,0.85937,0.85865,0.85732,0.84922,0.84855,0.85344,0.85865,0.85355,0.8464,0.85032,0.85356,0.85758,0.86379,0.85513,0.85934,0.86287,0.8718,0.87268,0.86946,0.87068,0.87473,0.87931,0.88282,0.87656,0.87821,0.87943,0.89276,0.89639,0.89521,0.90082,0.90356,0.90833,0.91715,0.92287,0.92171,0.92961,0.94003,0.94526,0.94823,0.93686,0.94064,0.93959,0.94304,0.93938,0.92242,0.92252,0.92027,0.92257,0.92058,0.91274,0.91475,0.91768,0.92644,0.92307,0.92358,0.92239,0.9289,0.9416,0.94285,0.94253,0.94553,0.95372,0.96413,0.96388,0.96889,0.96743,0.97234,0.98737,0.98464,0.98596,0.98393,0.98515,0.98894,0.9939,0.99587,0.98619,0.98681,0.98673,0.99456,0.98915,0.98547,0.97533,0.978,0.98236,0.97838,0.97354,0.96623,0.96222,0.96621,0.96019,0.95476,0.95981,0.94806,0.94462,0.94438,0.94115,0.93167,0.93001,0.93529,0.9286,0.93168,0.9209,0.91846,0.92161,0.92275,0.9226,0.91354,0.91156,0.9211,0.9185,0.91178,0.90789,0.90787,0.91062,0.91678,0.91362,0.91029,0.90505,0.90625,0.91134,0.9098,0.9085,0.9035,0.899,0.90912,0.90785,0.90436,0.90292,0.89892,0.91152,0.90604,0.90415,0.89805,0.89773,0.90106,0.90896,0.9058,0.89324,0.89372,0.89937,0.90723,0.90324,0.89523,0.89459,0.89499,0.90194,0.90257,0.89382,0.89762,0.90052,0.906,0.90495,0.90054,0.89809,0.89493,0.90543,0.90669,0.91365,0.92299,0.93191,0.95027,0.95732,0.95993,0.97259,0.98058,0.99118,1.0026,0.99501,0.99724,1.0019,1.006,1.0102,1.0014,0.99197,0.98274,0.96026,0.94366,0.93543,0.90955,0.90216,0.89151,0.89308,0.88452,0.88029,0.87287,0.87126,0.8749,0.87487,0.86736,0.86604,0.86479,0.86913,0.85723,0.85289,0.85306,0.9562,1.1261,1.3867,1.6683,1.8904,2.0283,2.0042,1.9438,1.771,1.4342,0.92318,0.62654,0.61554,0.68846,0.75159,0.79107,0.82515,0.83112,0.84279,0.84156,0.84035,0.83694,0.85285,0.84889,0.85003,0.84411,0.85113,0.8589,0.85731,0.85509,0.85539,0.85312,0.86324,0.86146,0.86204,0.8566,0.85908,0.85995,0.86664,0.86696,0.86269,0.8621,0.86547,0.87031,0.87586,0.86893,0.86773,0.8693,0.87595,0.87468,0.86797,0.86967,0.87355,0.87817,0.87922,0.87463,0.8724,0.87137,0.87508,0.87888,0.88101,0.87594,0.87166,0.87945,0.87839,0.88098,0.8747,0.87514,0.88268,0.88402,0.8867,0.88673,0.88772,0.89761,0.89692,0.90178,0.89539,0.89533,0.89808,0.91048,0.90683,0.90687,0.90222,0.90563,0.91765,0.92108,0.92527,0.92886,0.93501,0.95052,0.95228,0.95537,0.95435,0.96008,0.97152,0.97043,0.96796,0.96093,0.95915,0.95783,0.95719,0.95464,0.94137,0.93799,0.93807,0.94106,0.93755,0.93326,0.93183,0.93674,0.94376,0.94697,0.94159,0.94631,0.94757,0.9606,0.96558,0.9615,0.96063,0.96568,0.98058,0.98107,0.98556,0.98643,0.98628,0.9979,0.99918,1.0022,0.99779,0.99741,1.0003,1.008,1.0056,0.99951,0.99766,1.0045,1.0006,0.99773,0.99544,0.9897,0.98613,0.9931,0.98994,0.98311,0.97689,0.96768,0.97453,0.96809,0.95573,0.95226,0.9468,0.9567,0.95247,0.94681,0.94781,0.94788,0.94741,0.94077,0.93258,0.92299,0.92667,0.92708,0.9332,0.92394,0.91996,0.9238,0.92093,0.92417,0.92529,0.91472,0.91402,0.91418,0.91627,0.91759,0.90924,0.91534,0.91945,0.92119,0.91843,0.90835,0.90246,0.90376,0.913,0.91383,0.91149,0.90371,0.90488,0.91136,0.91539,0.90921,0.90259,0.90392,0.91093,0.91305,0.90831,0.9042,0.90934,0.91797,0.91701,0.91222,0.90401,0.90722,0.91237,0.90957,0.91834,0.92324,0.93636,0.94623,0.96128,0.97462,0.97619,0.984,0.99424,1.009,1.0159,1.0033,1.0074,1.0102,1.0124,1.0146,1.0136,1.0001,0.98559,0.9722,0.95302,0.93616,0.91705,0.90126,0.90444,0.9073,0.89649,0.88534,0.88396,0.89172,0.89227,0.8924,0.88117,0.88455,0.88114,0.88595,0.87801,0.86508,0.88167,0.98466,1.1628,1.4278,1.7061,1.9295,2.0638,2.0461,1.9865,1.793,1.4324,0.88465,0.65158,0.64102,0.70556,0.78289,0.80835,0.83587,0.84942,0.87085,0.86252,0.86083,0.85389,0.86718,0.86494,0.8675,0.85624,0.86869,0.8674,0.88164,0.87347,0.87559,0.87329,0.88799,0.88419,0.8793,0.88107,0.87849,0.87892,0.88174,0.87552,0.8796,0.87359,0.89196,0.88959,0.89015,0.88046,0.87739,0.88732,0.88735,0.8849,0.88361,0.88793,0.89583,0.89679,0.89433,0.88406,0.88507,0.8859,0.88879,0.88833,0.88485,0.88858,0.88856,0.9044,0.90184,0.89628,0.89884,0.88997,0.89666,0.89494,0.89564,0.90431,0.90165,0.91054,0.91466,0.91267,0.90446,0.90921,0.91983,0.9294,0.92117,0.91836,0.92914,0.92994,0.93976,0.94192,0.92975,0.94192,0.95236,0.96745,0.97588,0.9763,0.97874,0.98416,0.99207,0.99459,0.99137,0.98411,0.97728,0.98388,0.98405,0.98263,0.96479,0.96802,0.9745,0.96842,0.95869,0.95737,0.95899,0.96461,0.96521,0.96654,0.96418,0.97376,0.98253,0.99518,0.99864,0.99266,0.99526,0.99538,1.0086,1.0144,1.0115,1.0189,1.0193,1.0281,1.0242,1.0209,1.0218,1.0309,1.0389,1.0408,1.0343,1.0372,1.0371,1.0412,1.0388,1.0375,1.0259,1.0183,1.0244,1.0173,1.0162,1.0034,1.0026,1.0077,1.0059,1.0048,0.99141,0.99004,0.9918,0.98948,0.98758,0.97697,0.98086,0.98341,0.98219,0.97966,0.97133,0.9655,0.96774,0.97167,0.97015,0.9675,0.96121,0.95879,0.96949,0.96826,0.96371,0.95634,0.96834,0.98737,0.98927,0.9999,1.0033,1.0144,1.0347,1.0365,1.0427,1.0474,1.0537,1.0502,1.0601,1.0599,1.0614,1.0555,1.0511,1.042,1.0273,1.0003,0.97974,0.97024,0.95874,0.94591,0.93504,0.93305,0.92739
