5.532,5.5361,5.5579,5.5574,5.5501,5.5393,5.5447,5.5614,5.5729,5.5726,5.5774,5.5773,5.5694,5.5858,5.5718,5.5554,5.5509,5.5415,5.5636,5.5477,5.5381,5.5305,5.5584,5.5724,5.5496,5.5097,5.5276,5.5506,5.5639,5.5574,5.5421,5.5295,5.5441,5.5724,5.5919,5.6182,5.644,5.6568,5.6877,5.6836,5.6559,5.6935,5.7072,5.7234,5.7265,5.702,5.7025,5.6857,5.6795,5.6518,5.5525,5.5046,5.4966,5.5138,5.5194,5.4958,5.4903,5.5065,5.5051,5.5207,5.5233,5.506,5.4964,5.502,5.4921,5.5217,5.5018,5.4566,5.4232,5.4228,5.4481,5.5457,5.797,6.2217,6.5706,6.5262,6.2421,5.5931,5.2679,5.3652,5.4061,5.4762,5.4578,5.4711,5.4818,5.5005,5.4629,5.4528,5.443,5.4763,5.4877,5.4967,5.4823,5.4991,5.5097,5.5134,5.4977,5.4948,5.4661,5.4729,5.4968,5.4864,5.4641,5.4854,5.4939,5.5107,5.5349,5.5056,5.5092,5.5356,5.5625,5.5723,5.5803,5.5823,5.5851,5.599,5.5902,5.5687,5.5543,5.5729,5.578,5.6104,5.6226,5.6124,5.6377,5.6596,5.6724,5.6676,5.639,5.66,5.6845,5.7018,5.7053,5.6897,5.6771,5.6796,5.6896,5.6766,5.6578,5.656,5.6507,5.6364,5.6206,5.5735,5.569,5.5717,5.5737,5.5311,5.5223,5.5246,5.5282,5.5512,5.5497,5.5189,5.5244,5.525,5.528,5.5404,5.5243,5.5209,5.5231,5.5126,5.5562,5.5597,5.5419,5.5579,5.5939,5.5873,5.5708,5.554,5.5674,5.5733,5.5822,5.5624,5.5618,5.5701,5.5832,5.5788,5.5633,5.5551,5.5292,5.5241,5.5538,5.5458,5.5359,5.5276,5.4988,5.5005,5.5292,5.4997,5.5055,5.5231,5.5376,5.5351,5.51,5.5064,5.5185,5.5412,5.5599,5.5717,5.6002,5.6228,5.6287,5.635,5.6548,5.6521,5.6809,5.7006,5.7217,5.6989,5.6723,5.6549,5.6514,5.6499,5.5964,5.5504,5.5224,5.5022,5.5209,5.5493,5.5247,5.5235,5.5301,5.5391,5.5607,5.5553,5.516,5.5182,5.5327,5.5342,5.5041,5.4608,5.4147,5.4332,5.491,5.5492,5.7347,6.0642,6.4102,6.5003,6.0494,5.4458,5.2615,5.3424,5.4066,5.4422,5.4737,5.4817,5.4922,5.4874,5.4583,5.4501,5.4397,5.4527,5.465,5.4643,5.4622,5.4465,5.4534,5.4592,5.4687,5.436,5.4295,5.4346,5.4558,5.4848,5.4419,5.435,5.4303,5.4585,5.4945,5.48,5.4835,5.5021,5.5143,5.5221,5.5115,5.5038,5.4919,5.5185,5.5249,5.5293,5.511,5.5408,5.539,5.565,5.5716,5.5511,5.5617,5.5748,5.6004,5.6004,5.59,5.5992,5.5995,5.6312,5.6538,5.6298,5.611,5.6233,5.6294,5.6248,5.5967,5.5905,5.589,5.5725,5.5578,5.5254,5.5077,5.5076,5.5127,5.4922,5.471,5.4686,5.4658,5.4764,5.4643,5.448,5.4374,5.4417,5.455,5.4726,5.4832,5.4748,5.4536,5.477,5.4925,5.4883,5.4809,5.4838,5.4977,5.5249,5.5224,5.5153,5.5066,5.4987,5.5083,5.5191,5.4938,5.4798,5.4906,5.5054,5.4991,5.4796,5.4442,5.4597,5.4718,5.4566,5.4658,5.4359,5.4338,5.4605,5.4669,5.4711,5.4746,5.5101,5.5412,5.5583,5.542,5.5334,5.5503,5.569,5.6195,5.6118,5.578,5.5889,5.6041,5.5684,5.5187,5.4563,5.3992,5.3902,5.4051,5.4141,5.4083,5.3755,5.3771,5.401,5.4122,5.3987,5.3812,5.3736,5.4081,5.4135,5.4178,5.407,5.4008,5.3288,5.326,5.3508,5.457,5.7021,6.0532,6.2257,6.3706,6.1386,5.5429,5.228,5.246,5.2999,5.3611,5.4191,5.4398,5.4442,5.4306,5.4096,5.4096,5.4077,5.4164,5.4364,5.4231,5.4107,5.4338,5.44,5.4576,5.4464,5.4112,5.4031,5.4235,5.4481,5.4307,5.4321,5.4163,5.4458,5.4448,5.4463,5.4574,5.4627,5.4604,5.5036,5.5066,5.5151,5.529,5.5395,5.5238,5.5127,5.5081,5.511,5.5497,5.5668,5.5467,5.5339,5.5585,5.57,5.5829,5.6091,5.5778,5.5832,5.6063,5.6443,5.652,5.6599,5.621,5.6273,5.6499,5.6449,5.6264,5.6074,5.6085,5.6171,5.6089,5.5932,5.5394,5.5149,5.5318,5.5365,5.5145,5.5085,5.5155,5.5065,5.5339,5.518,5.5026,5.4937,5.4966,5.5094,5.5034,5.4948,5.4971,5.4889,5.5084,5.5363,5.5407,5.541,5.5601,5.577,5.5765,5.562,5.5438,5.568,5.5701,5.5768,5.5771,5.5433,5.5357,5.5436,5.5745,5.5514,5.5126,5.5341,5.5586,5.5362,5.5338,5.5084,5.5043,5.5153,5.5286,5.5484,5.5623,5.5938,5.6236,5.6575,5.6548,5.6515,5.6308,5.6637,5.7041,5.7204,5.7104,5.6912,5.6751,5.6442,5.6209,5.5762,5.5031,5.4836,5.4804,5.4729,5.4603,5.4397,5.4394,5.4431,5.4397,5.456,5.4233,5.4059,5.418,5.4545,5.4679,5.4436,5.4028,5.3387,5.3507,5.4211,5.5368,5.7664,6.1708,6.5603,6.5162,5.8932,5.3286,5.2603,5.3086,5.363,5.4332,5.4449,5.4557,5.4527,5.4531,5.4337,5.4134,5.4119,5.4541,5.4428,5.4409,5.4217,5.4365,5.4541,5.4744,5.462,5.4212,5.4207,5.4275,5.4339,5.4525,5.4355,5.4453,5.4597,5.476,5.4892,5.4691,5.4784,5.4977,5.5188,5.5585,5.5474,5.5499,5.548,5.5567,5.5462,5.5572,5.5506,5.5384,5.5494,5.5797,5.5889,5.5831,5.6029,5.6083,5.6256,5.6349,5.6186,5.6365,5.6869,5.6883,5.6739,5.6818,5.6607,5.6741,5.6736,5.6606,5.6532,5.6321,5.6147,5.6194,5.616,5.5779,5.5565,5.5767,5.5874,5.5518,5.5497,5.5343,5.5385,5.5403,5.562,5.547,5.5143,5.5247,5.5387,5.5441,5.549,5.5152,5.5122,5.5301,5.5627,5.5704,5.5394,5.5297,5.5538,5.577,5.595,5.5846,5.5706,5.5799,5.5898,5.5858,5.5693,5.573,5.5949,5.6065,5.6052,5.5697,5.5487,5.5576,5.5774,5.5854,5.5698,5.527,5.5474,5.5523,5.5725,5.5672,5.5906,5.6442,5.6859,5.67,5.6434,5.6776,5.6932,5.724,5.7595,5.7725,5.7127,5.6945,5.716,5.7131,5.6668,5.6147,5.5457,5.5351,5.5318,5.5353,5.5203,5.5057,5.512,5.5076,5.544,5.5166,5.4723,5.4537,5.4875,5.5011,5.5089,5.4754,5.4463,5.3933,5.4117,5.445,5.5535,5.8004,6.2131,6.5974,6.5699,5.9543,5.4122,5.3339,5.3788,5.4245,5.4791,5.4827,5.4663,5.4685,5.4744,5.4612,5.4629,5.4477,5.459,5.4807,5.4828,5.4627,5.4736,5.5117,5.5034,5.4852,5.4677,5.4567,5.4804,5.502,5.4717,5.472,5.4621,5.5059,5.5264,5.5228,5.5042,5.5076,5.5319,5.564,5.5746,5.575,5.5669,5.5763,5.5973,5.5715,5.5554,5.5712,5.6023,5.6179,5.596,5.5956,5.6032,5.6481,5.6524,5.6634,5.6394,5.6503,5.6525,5.6828,5.714,5.7175,5.7147,5.7161,5.7169,5.7241,5.675,5.6546,5.6608,5.6605,5.6723,5.6504,5.6266,5.6043,5.6088,5.6115,5.5908,5.5814,5.5796,5.5962,5.5987,5.5791,5.5504,5.5376,5.5476,5.5686,5.5592,5.5362,5.5465,5.5765,5.5799,5.5906,5.5861,5.5838,5.6061,5.6345,5.6549,5.6277,5.623,5.6293,5.6572,5.6533,5.6084,5.6114,5.5929,5.6108,5.6228,5.6064,5.5645,5.5767,5.59,5.5841,5.5763,5.5628,5.5692,5.5651,5.582,5.6048,5.6292,5.6532,5.6868,5.6772,5.704,5.7011,5.7266,5.7486,5.7673,5.7475,5.7323,5.7003,5.699,5.6908,5.6604,5.6073,5.5573,5.5534,5.5496,5.5615,5.5674,5.5478,5.5073,5.5275,5.5365,5.5374,5.5287,5.5342,5.5584,5.5504,5.532,5.5044,5.4709,5.4206,5.4453,5.5036,5.6374,5.9135,6.2861,6.303,6.2867,5.7615,5.3089,5.3537,5.4027,5.4842,5.517,5.5473,5.514,5.5455,5.522,5.5246,5.4989,5.5025,5.4943,5.5383,5.5283,5.5376,5.5169,5.5449,5.5456,5.5457,5.4931,5.4883,5.5128,5.552,5.5196,5.5158,5.5127,5.5063,5.5281,5.5396,5.5241,5.5264,5.5415,5.5683,5.57,5.5659,5.5739,5.5632,5.5663,5.5848,5.6,5.5967,5.6019,5.6261,5.6277,5.6168,5.617,5.6363,5.6738,5.6782,5.6914,5.7004,5.6738,5.6827,5.6966,5.6913,5.6822,5.6857,5.6978,5.6916,5.6814,5.6438,5.6207,5.6291,5.6102,5.5729,5.5593,5.532,5.53,5.5333,5.5594,5.5423,5.5215,5.5246,5.5436,5.5333,5.5263,5.5093,5.516,5.5231,5.5415,5.5633,5.5771,5.5708,5.5642,5.5842,5.5836,5.5653,5.6131,5.6172,5.6244,5.6182,5.5915,5.5523,5.5839,5.5983,5.5753,5.5436,5.5689,5.5575,5.5659,5.5497,5.5359,5.5192,5.5489,5.5634,5.598,5.6055,5.6116,5.6203,5.6359,5.6669,5.6567,5.6745,5.6996,5.7185,5.711,5.7139,5.6974,5.6779,5.652,5.6218,5.5594,5.5194,5.4952,5.5067,5.5139,5.5076,5.4975,5.4995,5.519,5.5281,5.5222,5.494,5.4952,5.497,5.5117,5.4951,5.497,5.4605,5.422,5.4386,5.4612,5.5794,5.8296,6.1742,6.437,6.4038,6.1418,5.5728,5.3175,5.3518,5.3911,5.4775,5.4939,5.4988,5.4774,5.4936,5.4709,5.4788,5.4614,5.48,5.5085,5.5339,5.485,5.4895,5.494,5.532,5.5271,5.4934,5.4653,5.4897,5.4946,5.51,5.5045,5.4772,5.4911,5.5186,5.5208,5.5291,5.5249,5.527,5.5275,5.5529,5.552,5.5476,5.5373,5.542,5.5399,5.5371,5.5518,5.5631,5.5866,5.5938,5.6118,5.6194,5.6076,5.6356,5.657,5.6685,5.6633,5.6827,5.7264,5.7217,5.6912,5.6712,5.6575,5.6687,5.6723,5.677,5.6436,5.6231,5.6033,5.6133,5.5958,5.5659,5.5547,5.5437,5.5611,5.5546,5.5474,5.5345,5.5493,5.5718,5.5658,5.5478,5.5341,5.552,5.55,5.5649,5.562,5.5639,5.5648,5.568,5.5774,5.5739,5.5796,5.5697,5.6197,5.6421,5.6509,5.6399,5.6503,5.6457,5.6563,5.637,5.6136,5.6021,5.6102,5.6146,5.634,5.6064,5.584,5.591,5.6242,5.6077,5.61,5.604,5.5964,5.6146,5.6563,5.7098,5.7093,5.7038,5.7094,5.7657,5.7928,5.7962,5.7842,5.8,5.7853,5.7915,5.777,5.7459,5.7304,5.7218,5.6598,5.6013,5.5819,5.596,5.6197,5.6245,5.61,5.5735,5.5926,5.6065,5.5788,5.5699,5.5704,5.5821,5.5823,5.5891,5.5832,5.503,5.4653,5.5338,5.6542,5.8404,6.1846,6.5685,6.7175,6.2955,5.6787,5.388,5.423,5.5245,5.6013,5.6107,5.5782,5.5684,5.5877,5.5894,5.571,5.533,5.5311,5.5455,5.5866,5.5685,5.5406,5.5644,5.5654,5.5749,5.5556,5.53,5.5444,5.5666,5.5909,5.6067,5.5854,5.569,5.5761,5.6126,5.641,5.6084,5.6217,5.6446,5.6619,5.6936,5.6777,5.6569,5.6687,5.6868,5.6912,5.6936,5.6974,5.6795,5.7117,5.7316,5.7504,5.7328,5.7355,5.7399,5.7563,5.7725,5.7843,5.8011,5.8123,5.8386,5.8414,5.8427,5.7902,5.7854,5.8052,5.7984,5.7689,5.7426,5.7251,5.719,5.7268,5.7184,5.6963,5.6902,5.7062,5.7171,5.698,5.6786,5.6922,5.7081,5.6948,5.6906,5.651,5.6165,5.6341,5.6444,5.6456,5.6617,5.6647,5.665,5.6346,5.6492,5.6374,5.6592,5.6914,5.7167,5.7341,5.7058,5.7065,5.7027,5.6969,5.7145,5.6862,5.6777,5.6911,5.6947,5.6933,5.6787,5.6591,5.6601,5.6625,5.7053,5.677,5.6407,5.6349,5.6311,5.6489,5.662,5.6515,5.6292,5.6297,5.6541,5.6614,5.6528,5.67,5.7209,5.7716,5.7783,5.7692,5.7238,5.7754,5.8249,5.8443,5.8131,5.802,5.7859,5.816,5.8134,5.7585,5.7141,5.6631,5.6462,5.6325,5.6194,5.5914,5.5952,5.5875,5.6211,5.6022,5.601,5.5843,5.5931,5.6134,5.6415,5.6244,5.6139,5.5937,5.565,5.5361,5.5262,5.5714,5.7289,5.9941,6.3875,6.7543,6.6709,6.0561,5.7451,5.4659,5.4693,5.5347,5.5679,5.6353,5.6177,5.6294,5.5661,5.5918,5.5933,5.6284,5.6,5.6206,5.5871,5.6268,5.6067,5.6133,5.5828,5.6037,5.6031,5.6343,5.6209,5.5851,5.5519,5.5807,5.593,5.6305,5.586,5.5898,5.5996,5.6327,5.6571,5.6556,5.6542,5.668,5.6905,5.6913,5.6819,5.6862,5.6646,5.6478,5.6819,5.692,5.6848,5.6746,5.6777,5.7188,5.7254,5.7423,5.7494,5.7681,5.8012,5.7878,5.7761,5.7941,5.8153,5.8262,5.8132,5.7903,5.7881,5.7703,5.7779,5.7725,5.7214,5.7017,5.6905,5.6662,5.6517,5.6449,5.6309,5.6248,5.6181,5.6183,5.6049,5.5915,5.6055,5.6053,5.6212,5.5887,5.5731,5.5525,5.5736,5.5788,5.58,5.5773,5.5656,5.5837,5.6109,5.6056,5.606,5.6012,5.6122,5.6244,5.6263,5.5875,5.5982,5.612,5.6268,5.6312,5.6279,5.5909,5.5942,5.621,5.632,5.6141,5.5612,5.5491,5.5603,5.5579,5.547,5.5642,5.5666,5.548,5.5408,5.5382,5.5432,5.5336,5.5495,5.5596,5.5747,5.5632,5.5508,5.553,5.5868,5.5855,5.6043,5.6244,5.6699,5.7059,5.6902,5.6473,5.6811,5.7213,5.745,5.7626,5.7479,5.719,5.7275,5.7278,5.7124,5.6899,5.6101,5.5569,5.5474,5.5588,5.554,5.5436,5.515,5.5301,5.5637,5.5455,5.5379,5.5507,5.5628,5.5695,5.5581,5.5296,5.503,5.4965,5.4712,5.4681,5.4782,5.5788,5.7811,6.1689,6.5358,6.6094,6.1102,5.5112,5.3382,5.3943,5.4329,5.5086,5.5528,5.5345,5.5245,5.495,5.4897,5.4734,5.4871,5.4893,5.5107,5.5211,5.5208,5.5209,5.5326,5.5124,5.488,5.4946,5.5119,5.4987,5.4908,5.4792,5.4717,5.479,5.5144,5.5209,5.4898,5.4899,5.5163,5.5375,5.5334,5.5302,5.5331,5.5582,5.5807,5.5801,5.577,5.5615,5.5686,5.5928,5.598,5.5974,5.6067,5.625,5.6676,5.6611,5.6612,5.6537,5.6435,5.6699,5.6984,5.709,5.6911,5.7145,5.7096,5.7266,5.7168,5.678,5.6477,5.6525,5.6621,5.6189,5.5868,5.5765,5.5668,5.579,5.5736,5.5541,5.522,5.5218,5.5364,5.5345,5.5483,5.5327,5.518,5.5434,5.5454,5.531,5.5121,5.539,5.544,5.5347,5.5409,5.5433,5.5593,5.5905,5.5909,5.5866,5.5693,5.5747,5.5907,5.6226,5.6211,5.5867,5.5799,5.5756,5.5885,5.5883,5.5651,5.5527,5.5504,5.5507,5.5299,5.5255,5.5172,5.5197,5.5288,5.5385,5.5299,5.5122,5.4989,5.5172,5.5541,5.5314,5.5329,5.5161,5.524,5.5257,5.5282,5.5623,5.5956,5.6352,5.6307,5.6615,5.6348,5.6399,5.6359,5.6431,5.6522,5.6595,5.6668,5.6515,5.6739,5.6258,5.5408,5.5088,5.4848,5.5076,5.5046,5.4911,5.4754,5.4849,5.4958,5.4985,5.4728,5.4447,5.4531,5.4803,5.4923,5.4694,5.4375,5.4174,5.4058,5.3668,5.399,5.4433,5.6419,5.9365,6.2869,6.4495,6.1937,5.6053,5.2973,5.3053,5.3251,5.3551,5.4065,5.4482,5.4519,5.4692,5.4666,5.4497,5.4522,5.4533,5.4796,5.4655,5.4239,5.4267,5.4572,5.4602,5.4472,5.4429,5.44,5.4488,5.4697,5.4709,5.468,5.4671,5.4763,5.4741,5.4563,5.4518,5.4566,5.4831,5.5144,5.5073,5.4958,5.5184,5.5182,5.523,5.5119,5.496,5.515,5.5431,5.5824,5.5967,5.5672,5.5582,5.5874,5.6216,5.6409,5.649,5.6513,5.6702,5.6751,5.6814,5.6669,5.6929,5.7093,5.7337,5.7227,5.6652,5.6508,5.6358,5.6339,5.6354,5.6119,5.5551,5.5585,5.5663,5.5631,5.5468,5.5348,5.5301,5.5311,5.5407,5.5406,5.526,5.5101,5.5048,5.5294,5.5375,5.5057,5.5116,5.5419,5.5611,5.5609,5.5319,5.5203,5.5382,5.5629,5.583,5.5849,5.5856,5.5843,5.6037,5.5935,5.6017,5.576,5.5655,5.5781,5.576,5.548,5.5436,5.5358,5.5273,5.572,5.553,5.5199,5.5028,5.5189,5.5185,5.5289,5.5031,5.4943,5.5221,5.5462,5.5602,5.5412,5.5321,5.5844,5.6525,5.6566,5.6343,5.6136,5.6298,5.6857,5.724,5.7247,5.719,5.7338,5.7213,5.6948,5.67,5.6436,5.5986,5.5697,5.5543,5.5541,5.5402,5.5247,5.5346,5.5416,5.5301,5.5214,5.521,5.5145,5.5409,5.5313,5.4968,5.5094,5.5093,5.5086,5.4655,5.4086,5.4106,5.4859,5.6819,6.009,6.3833,6.5968,6.3373,5.7388,5.3498,5.3137,5.3705,5.441,5.5187,5.5321,5.5341,5.5183,5.5268,5.5256,5.5327,5.5424,5.5545,5.5444,5.5491,5.5597,5.5569,5.553,5.5606,5.5426,5.5526,5.544,5.5316,5.5212,5.5163,5.5475,5.5527,5.5472,5.5405,5.5582,5.5652,5.5668,5.5481,5.5463,5.5674,5.5746,5.5953,5.5829,5.5692,5.5697,5.5719,5.6016,5.6245,5.6072,5.601,5.6217,5.6627,5.6341,5.6208,5.6355,5.6766,5.713,5.7301,5.7374,5.734,5.7312,5.7475,5.7371,5.6951,5.6756,5.6726,5.6813,5.6825,5.6382,5.6154,5.6156,5.6073,5.6052,5.5777,5.5739,5.5606,5.5475,5.5648,5.5663,5.5364,5.5282,5.5277,5.5602,5.52,5.5111,5.5064,5.5196,5.5536,5.5629,5.5508,5.5365,5.5607,5.5838,5.591,5.5979,5.6165,5.6138,5.6188,5.6358,5.6363,5.5947,5.5965,5.6307,5.6323,5.6047,5.6106,5.5843,5.6006,5.611,5.574,5.5761,5.5596,5.5918,5.5932,5.5503,5.5511,5.5784,5.5881,5.586,5.5672,5.5416,5.5844,5.5868,5.6074,5.6018,5.6076,5.6506,5.6683,5.7018,5.6783,5.6744,5.6994,5.7112,5.715,5.7495,5.7121,5.682,5.7045,5.6895,5.6536,5.5982,5.5568,5.5242,5.5218,5.5362,5.5393,5.5237,5.4967,5.5135,5.5283,5.524,5.4908,5.5247,5.5301,5.5449,5.5263,5.4846,5.4373,5.4396,5.465,5.5396,5.7073,6.0285,6.4473,6.6172,6.6106,6.0515,5.4492,5.3007,5.3558,5.4468,5.4849,5.4919,5.5034,5.5257,5.4974,5.501,5.4867,5.5005,5.5024,5.5246,5.4959,5.4858,5.4939,5.5144,5.5435,5.5324,5.4731,5.4819,5.5013,5.5212,5.5019,5.5134,5.5323,5.5034,5.5039,5.5024,5.4918,5.5322,5.5527,5.5573,5.5725,5.553,5.5599,5.5579,5.5679,5.5749,5.58,5.5865,5.5916,5.6281,5.6479,5.6133,5.6224,5.6304,5.6671,5.6786,5.6931,5.6706,5.6666,5.6857,5.7168,5.6888,5.679,5.6874,5.6889,5.7,5.6876,5.6397,5.6135,5.5946,5.6158,5.6238,5.5615,5.5402,5.5455,5.5808,5.5689,5.5115,5.491,5.5157,5.5297,5.5241,5.525,5.5116,5.5122,5.5189,5.5156,5.4922,5.4745,5.5007,5.5234,5.5282,5.5023,5.4909,5.4976,5.5293,5.5618,5.5656,5.5602,5.5457,5.5654,5.5746,5.5705,5.5377,5.5324,5.5432,5.5602,5.5667,5.5446,5.5385,5.5356,5.5318,5.5246,5.5089,5.5041,5.5054,5.5243,5.5123,5.4905,5.4939,5.4894,5.5237,5.5303,5.5126,5.4842,5.4922,5.5184,5.5305,5.5248,5.4975,5.4923,5.4995,5.5311,5.5282,5.5038,5.5084,5.5178,5.56,5.5803,5.5856,5.5798,5.5965,5.6196,5.6433,5.6552,5.6661,5.6729,5.6884,5.6629,5.6284,5.5966,5.5878,5.5691,5.5339,5.5142,5.4543,5.4625,5.4704,5.4818,5.4556,5.4514,5.4513,5.4645,5.4853,5.4714,5.4476,5.4386,5.4443,5.4727,5.4337,5.3419,5.3173,5.3838,5.5205,5.7323,6.112,6.5447,6.6064,6.0827,5.4662,5.2714,5.3241,5.3503,5.4139,5.4703,5.451,5.4389,5.4251,5.4273,5.4284,5.4037,5.4124,5.4278,5.4493,5.4526,5.4483,5.4112,5.422,5.4286,5.4274,5.4087,5.3921,5.4052,5.4138,5.4487,5.4438,5.4311,5.4502,5.4809,5.4705,5.4714,5.4778,5.4991,5.5338,5.5526,5.5564,5.53,5.494,5.5012,5.5207,5.5241,5.5199,5.5165,5.5307,5.5681,5.5959,5.599,5.5965,5.5736,5.6091,5.6339,5.631,5.6283,5.6416,5.6736,5.691,5.6722,5.663,5.658,5.6728,5.654,5.6354,5.5928,5.5744,5.5593,5.5466,5.5437,5.5176,5.4876,5.493,5.4867,5.4796,5.4757,5.4525,5.4613,5.4835,5.488,5.4505,5.4294,5.4,5.4408,5.4424,5.4372,5.43,5.4461,5.4887,5.4659,5.4505,5.4343,5.4594,5.4946,5.5291,5.508,5.4962,5.4917,5.4844,5.5143,5.5046,5.4934,5.483,5.4891,5.493,5.4772,5.4326,5.4441,5.463,5.4741,5.4616,5.4248,5.3934,5.4113,5.4644,5.4491,5.4345,5.4453,5.449,5.4415,5.4317,5.4319,5.4205,5.4355,5.4551,5.4827,5.4995,5.4792,5.4443,5.4455,5.4537,5.445,5.4597,5.47,5.5154,5.5438,5.5396,5.5303,5.5367,5.5605,5.5994,5.5783,5.5764,5.6091,5.5923,5.5944,5.6004,5.5707,5.5476,5.5161,5.4721,5.4578,5.4237,5.416,5.4236,5.4273,5.4344,5.3919,5.3871,5.3955,5.4183,5.4259,5.3981,5.4045,5.411,5.4272,5.3863,5.339,5.326,5.3388,5.4969,5.749,6.106,6.4342,6.4211,5.9088,5.3742,5.2317,5.2488,5.2898,5.3736,5.4097,5.3823,5.3886,5.3819,5.3997,5.3961,5.374,5.3686,5.3842,5.3896,5.3958,5.3886,5.3712,5.377,5.4006,5.4105,5.3996,5.3736,5.3801,5.3969,5.4066,5.4207,5.4208,5.3957,5.4176,5.4119,5.4364,5.4751,5.4348,5.4287,5.453,5.476,5.4739,5.4343,5.4341,5.4505,5.4856,5.5003,5.5045,5.5258,5.5361,5.5612,5.5666,5.59,5.5614,5.5708,5.6077,5.6397,5.6328,5.6224,5.6105,5.6443,5.6703,5.6435,5.6155,5.5906,5.5952,5.59,5.5693,5.5381,5.5277,5.5025,5.4996,5.5018,5.454,5.4472,5.4496,5.465,5.4591,5.4387,5.4564,5.4762,5.4575,5.4436,5.4342,5.4161,5.4294,5.44,5.4459,5.436,5.4297,5.4412,5.4665,5.4693,5.4711,5.4744,5.4891,5.5011,5.5011,5.5201,5.5034,5.4904,5.4816,5.4879,5.4896,5.4653,5.4392,5.4841,5.5088,5.4839,5.4548,5.4534,5.4645,5.468,5.482,5.4465,5.4342,5.464,5.4858,5.4981,5.4936,5.4566,5.463,5.5082,5.5133,5.448,5.4297,5.4436,5.4865,5.4827,5.4829,5.5042,5.5173,5.547,5.5578,5.5429,5.5393,5.556,5.5592,5.6159,5.6268,5.5953,5.5873,5.5548,5.5615,5.518,5.4778,5.4434,5.4278,5.4127,5.4037,5.4035,5.3915,5.4024,5.4129,5.4153,5.3856,5.3589,5.3584,5.3814,5.404,5.374,5.361,5.3177,5.3195,5.3392,5.3596,5.5325,5.8303,6.2195,6.3739,6.3762,5.9003,5.3659,5.1949,5.2344,5.273,5.3302,5.3837,5.3603,5.3571,5.3399,5.3394,5.3252,5.3742,5.3734,5.3856,5.3669,5.3362,5.3638,5.3936,5.377,5.3441,5.3356,5.3483,5.3648,5.3619,5.3425,5.3335,5.3297,5.3625,5.376,5.379,5.3761,5.3922,5.3978,5.4259,5.404,5.4138,5.4248,5.4382,5.4481,5.438,5.4272,5.4535,5.4712,5.496,5.5153,5.493,5.5023,5.5094,5.5412,5.5548,5.5322,5.5367,5.5838,5.6078,5.6056,5.5728,5.5695,5.5682,5.5641,5.563,5.5486,5.5284,5.5218,5.5014,5.4909,5.4736,5.4307,5.4198,5.4178,5.4223,5.4181,5.4125,5.3605,5.3693,5.3982,5.4047,5.3807,5.3613,5.3492,5.3887,5.3899,5.3731,5.383,5.3973,5.442,5.399,5.3812,5.4098,5.4149,5.429,5.4364,5.4067,5.4158,5.4317,5.4464,5.4506,5.4195,5.4031,5.3996,5.4204,5.446,5.4119,5.395,5.3986,5.4341,5.4569,5.4434,5.4238,5.4357,5.4308,5.4563,5.4359,5.4425,5.4332,5.4349,5.4547,5.4645,5.4491,5.4414,5.4138,5.4343,5.4433,5.4517,5.4457,5.475,5.5265,5.548,5.5158,5.5191,5.5663,5.6026,5.6107,5.5955,5.5917,5.5792,5.5562,5.5673,5.5592,5.5163,5.4862,5.4553,5.462,5.4734,5.4574,5.4538,5.4869,5.5078,5.4749,5.4539,5.4614,5.4746,5.5046,5.4748,5.4643,5.4342,5.379,5.3396,5.3274,5.3807,5.514,5.722,6.089,6.4778,6.4517,5.8639,5.3087,5.1505,5.2096,5.2336,5.2747,5.2757,5.2874,5.2738,5.2643,5.2373,5.2511,5.2504,5.2708,5.2926,5.2937,5.3252,5.333,5.3333,5.3174,5.3103,5.32,5.3484,5.3851,5.3753,5.3457,5.3772,5.3879,5.4052,5.3955,5.3806,5.3784,5.4199,5.4491,5.4696,5.4941,5.4647,5.494,5.5189,5.5139,5.4796,5.4726,5.447,5.4681,5.4588,5.4555,5.467,5.4792,5.4832,5.5038,5.5173,5.5077,5.5113,5.5013,5.5294,5.539,5.5241,5.5279,5.5184,5.5097,5.5106,5.4774,5.4897,5.4928,5.5062,5.4704,5.4131,5.4177,5.4263,5.4244,5.4305,5.4172,5.4305,5.4281,5.4209,5.4152,5.4368,5.4115,5.4112,5.4095,5.4204,5.3999,5.3794,5.3839,5.3974,5.4182,5.4255,5.3979,5.3883,5.3936,5.4191,5.4312,5.4085,5.3719,5.3772,5.4242,5.4408,5.4133,5.3798,5.329,5.3628,5.4004,5.3727,5.3702,5.3705,5.4032,5.404,5.3828,5.3878,5.4132,5.409,5.4138,5.3982,5.3843,5.3889,5.398,5.386,5.3918,5.3633,5.3542,5.406,5.479,5.4841,5.4764,5.4846,5.5046,5.5194,5.539,5.5378,5.5285,5.5475,5.5466,5.5286,5.5028,5.4853,5.4448,5.4123,5.3825,5.3402,5.307,5.2868,5.3146,5.3072,5.3076,5.2662,5.2772,5.3018,5.3047,5.3022,5.2895,5.287,5.2787,5.2921,5.2698,5.2014,5.2021,5.266,5.413,5.6708,6.0571,6.4079,6.3595,5.7624,5.1831,5.1107,5.1613,5.2148,5.2881,5.2771,5.2596,5.2518,5.2306,5.2414,5.2558,5.2502,5.2392,5.2389,5.2622,5.2891,5.2827,5.2651,5.2536,5.2688,5.2654,5.2518,5.2193,5.2148,5.2533,5.2836,5.2626,5.2573,5.246,5.2566,5.2764,5.285,5.2827,5.2649,5.2665,5.2909,5.3071,5.3078,5.2945,5.2888,5.2936,5.2852,5.2934,5.2899,5.2967,5.3328,5.3298,5.3264,5.3237,5.3379,5.3749,5.3968,5.391,5.3827,5.4058,5.4348,5.4497,5.4462,5.4301,5.4242,5.4001,5.3808,5.3548,5.3364,5.3182,5.3053,5.3154,5.2849,5.2616,5.237,5.2567,5.2587,5.2496,5.2416,5.2575,5.2792,5.3035,5.3058,5.2717,5.2463,5.2446,5.2628,5.2726,5.2617,5.2637,5.2961,5.3316,5.342,5.3157,5.3135,5.3319,5.3697,5.3905,5.3667,5.3596,5.3869,5.3911,5.3744,5.374,5.3339,5.3121,5.3118,5.3174,5.308,5.2822,5.2827,5.2929,5.2943,5.2931,5.2824,5.2778,5.2843,5.2867,5.3076,5.2825,5.2516,5.2885,5.3333,5.3227,5.3307,5.3403,5.3835,5.4162,5.4198,5.3988,5.4072,5.4193,5.4775,5.4939,5.4787,5.4581,5.4575,5.4628,5.4258,5.3711,5.2968,5.2323,5.2138,5.2216,5.2347,5.2143,5.2067,5.2278,5.2355,5.2114,5.2037,5.1882,5.1884,5.2136,5.2334,5.24,5.2145,5.1618,5.127,5.1608,5.2141,5.4068,5.7051,6.1194,6.3356,6.0262,5.3618,5.0165,5.0713,5.14,5.2132,5.2309,5.252,5.2227,5.2139,5.2067,5.1792,5.1823,5.1951,5.2255,5.2406,5.222,5.2332,5.2538,5.2583,5.2641,5.2191,5.1934,5.1887,5.2199,5.2276,5.2297,5.216,5.243,5.2534,5.2673,5.2682,5.2675,5.2923,5.3142,5.3253,5.3061,5.3265,5.3246,5.3052,5.3375,5.3276,5.3164,5.3324,5.3495,5.3619,5.3885,5.3775,5.3795,5.3889,5.3948,5.3971,5.3956,5.3928,5.4055,5.4338,5.448,5.4271,5.4155,5.4331,5.4505,5.4505,5.4086,5.3715,5.3641,5.3628,5.3693,5.3316,5.3038,5.293,5.2792,5.2862,5.2725,5.2532,5.2405,5.2593,5.2767,5.2415,5.2364,5.2159,5.2185,5.2391,5.2218,5.2171,5.235,5.2595,5.2817,5.2883,5.2875,5.2821,5.2731,5.3119,5.3127,5.2976,5.302,5.3055,5.3202,5.325,5.3134,5.2823,5.2762,5.2906,5.2948,5.2848,5.2657,5.2532,5.2637,5.2831,5.2988,5.3082,5.3179,5.3599,5.3812,5.3743,5.3601,5.3699,5.4123,5.4361,5.4092,5.4159,5.4389,5.4104,5.3898,5.3568,5.3158,5.2963,5.2597,5.2598,5.2572,5.2465,5.2202,5.2152,5.2297,5.2448,5.2105,5.2109,5.2195,5.2107,5.2219,5.2189,5.1902,5.1577,5.1233,5.1672,5.2098,5.288,5.5367,5.8996,6.2118,6.2601,5.7746,5.2245,5.0635,5.133,5.205,5.2466,5.2932,5.2918,5.3048,5.3023,5.2741,5.2737,5.3193,5.3298,5.3027,5.2991,5.2903,5.3014,5.3011,5.3013,5.318,5.3179,5.3002,5.3028,5.3084,5.3123,5.3049,5.3151,5.3273,5.35,5.3376,5.3504,5.3569,5.3958,5.4086,5.3875,5.4021,5.4019,5.4382,5.4285,5.4446,5.404,5.4036,5.4253,5.4463,5.4485,5.4315,5.4576,5.4708,5.4919,5.4924,5.463,5.4759,5.4914,5.5092,5.5085,5.5086,5.4806,5.4682,5.4523,5.4636,5.4431,5.4107,5.4061,5.4129,5.4161,5.3863,5.3481,5.3388,5.3597,5.4008,5.389,5.3475,5.3808,5.3983,5.4032,5.3976,5.3729,5.3607,5.3831,5.4003,5.4021,5.3758,5.3624,5.3765,5.3724,5.3889,5.3933,5.3676,5.4005,5.4114,5.4471,5.4203,5.3827,5.3767,5.375,5.3911,5.4003,5.387,5.3492,5.3634,5.3634,5.3573,5.3505,5.3534,5.3661,5.3785,5.3346,5.3287,5.369,5.4233,5.471,5.4664,5.457,5.465,5.4904,5.4872,5.5308,5.5392,5.5429,5.5341,5.5327,5.5309,5.4635,5.4202,5.4053,5.3494,5.3049,5.3091,5.2986,5.3043,5.3194,5.3322,5.3152,5.2984,5.2968,5.3247,5.3346,5.3266,5.3257,5.3101,5.3045,5.3055,5.2701,5.2734,5.3379,5.4988,5.7728,6.1974,6.5129,6.338,5.6526,5.1845,5.1468,5.1942,5.2304,5.3243,5.3708,5.3628,5.3448,5.344,5.3405,5.3374,5.3578,5.3476,5.357,5.3806,5.4092,5.4173,5.398,5.3743,5.3502,5.344,5.3415,5.3313,5.3054,5.3128,5.3489,5.3411,5.3395,5.3225,5.3421,5.3415,5.3507,5.3474,5.3403,5.3432,5.3588,5.4111,5.3961,5.3716,5.3936,5.4203,5.4385,5.4602,5.4379,5.4396,5.4847,5.5133,5.5391,5.5233,5.5254,5.5446,5.5682,5.5873,5.5919,5.5958,5.5866,5.5988,5.6231,5.5768,5.5391,5.5271,5.5108,5.5,5.4824,5.4482,5.4145,5.4106,5.4241,5.3948,5.3611,5.3602,5.3559,5.384,5.4084,5.3925,5.3884,5.3913,5.4297,5.4171,5.4114,5.409,5.433,5.457,5.4626,5.4448,5.4342,5.4356,5.4471,5.4575,5.431,5.4197,5.4145,5.4113,5.4154,5.3999,5.369,5.365,5.375,5.412,5.3869,5.3828,5.3777,5.3652,5.4033,5.4047,5.3904,5.3826,5.4254,5.4307,5.4264,5.3949,5.3817,5.4113,5.4507,5.4767,5.4975,5.4945,5.5095,5.5166,5.5258,5.5269,5.5303,5.5433,5.545,5.5486,5.5329,5.5412,5.4611,5.4413,5.422,5.3874,5.3617,5.35,5.3605,5.3745,5.3757,5.3624,5.368,5.3655,5.3866,5.3949,5.3564,5.3602,5.3607,5.364,5.3364,5.284,5.2563,5.2605,5.3617,5.545,5.8641,6.2649,6.4554,6.0951,5.432,5.1087,5.1603,5.2532,5.3279,5.3505,5.3549,5.3336,5.3049,5.326,5.3458,5.3352,5.3006,5.3165,5.3712,5.3915,5.3814,5.3591,5.3583,5.3729,5.3708,5.3388,5.2992,5.2886,5.3087,5.3389,5.3681,5.338,5.3223,5.3454,5.3668,5.401,5.3918,5.3711,5.3797,5.3926,5.4199,5.4264,5.4014,5.4148,5.446,5.461,5.4495,5.4507,5.4584,5.4796,5.5137,5.5307,5.5235,5.5235,5.5343,5.555,5.5743,5.5806,5.5796,5.615,5.6463,5.6267,5.5908,5.5847,5.5641,5.5661,5.5461,5.5044,5.4912,5.497,5.4741,5.441,5.422,5.4362,5.4247,5.4322,5.4843,5.4583,5.4444,5.416,5.4473,5.4753,5.4664,5.448,5.4713,5.4956,5.5001,5.4596,5.4399,5.4466,5.4585,5.4905,5.4972,5.4816,5.4628,5.4647,5.4709,5.45,5.4257,5.3907,5.4046,5.424,5.4144,5.4035,5.3891,5.4123,5.4478,5.4449,5.4225,5.3847,5.3933,5.431,5.4299,5.4425,5.4191,5.4454,5.4581,5.4973,5.5126,5.4991,5.4898,5.5005,5.5479,5.568,5.5546,5.5371,5.5286,5.5626,5.5556,5.4958,5.4747,5.4441,5.4249,5.4036,5.3686,5.3625,5.3602,5.3932,5.3854,5.3646,5.3417,5.355,5.3663,5.3796,5.3637,5.3505,5.3339,5.3528,5.3617,5.2964,5.2412,5.2646,5.361,5.606,5.9306,6.233,6.3568,5.9728,5.379,5.1429,5.1879,5.2541,5.3252,5.3793,5.3555,5.3386,5.3311,5.3386,5.3408,5.3222,5.3096,5.3198,5.322,5.3626,5.3794,5.3453,5.334,5.3382,5.3503,5.3452,5.316,5.3052,5.3213,5.3354,5.3543,5.329,5.3435,5.3516,5.3884,5.4109,5.4266,5.4088,5.3889,5.3866,5.4284,5.4206,5.4378,5.4102,5.4179,5.4595,5.4426,5.4401,5.4506,5.4672,5.4738,5.4869,5.4928,5.5055,5.5211,5.5286,5.5303,5.5206,5.5316,5.5516,5.5811,5.5788,5.5676,5.5679,5.5369,5.5241,5.5253,5.4891,5.4668,5.4471,5.4538,5.456,5.4387,5.4057,5.4123,5.4295,5.4274,5.4145,5.3845,5.3794,5.4,5.4078,5.391,5.3848,5.4049,5.4085,5.4109,5.4103,5.3956,5.4234,5.4379,5.446,5.4424,5.4429,5.4307,5.4014,5.4341,5.4349,5.4257,5.4146,5.4095,5.4161,5.4187,5.4002,5.3748,5.366,5.364,5.3635,5.3366,5.3245,5.3343,5.364,5.3861,5.4236,5.4317,5.4515,5.4305,5.4339,5.4697,5.4728,5.4814,5.4993,5.5292,5.5096,5.5124,5.4602,5.4533,5.4308,5.3769,5.3239,5.2847,5.2611,5.2674,5.2915,5.2804,5.2872,5.2782,5.2994,5.323,5.3001,5.2648,5.2564,5.2837,5.3143,5.301,5.2466,5.1773,5.2044,5.2701,5.4594,5.7313,6.0607,6.2082,6.2682,5.8228,5.2798,5.1351,5.1894,5.2833,5.3238,5.3609,5.3416,5.3288,5.3206,5.3382,5.2963,5.2894,5.3086,5.3453,5.345,5.3277,5.3194,5.3162,5.3104,5.3297,5.3093,5.2584,5.2541,5.2873,5.3107,5.3322,5.3214,5.3071,5.3188,5.3452,5.3256,5.3421,5.3475,5.3661,5.3844,5.3848,5.3808,5.365,5.3624,5.3861,5.3942,5.3951,5.3998,5.387,5.386,5.4125,5.4038,5.4095,5.4305,5.4628,5.4788,5.4721,5.47,5.4853,5.4839,5.5013,5.5042,5.4931,5.4956,5.5063,5.52,5.496,5.4903,5.4404,5.4574,5.4548,5.4358,5.4152,5.4217,5.4501,5.4555,5.4446,5.4159,5.4059,5.422,5.4365,5.4384,5.43,5.4207,5.4274,5.4458,5.4367,5.4173,5.4085,5.4133,5.4422,5.4623,5.4477,5.4397,5.4567,5.489,5.4944,5.4864,5.453,5.4375,5.4601,5.4686,5.4675,5.4478,5.438,5.4429,5.4743,5.4991,5.5065,5.5094,5.5368,5.5453,5.5494,5.5397,5.5522,5.5753,5.5805,5.5809,5.5652,5.5413,5.5398,5.5392,5.4937,5.4336,5.4028,5.3872,5.3874,5.4046,5.3792,5.3723,5.3304,5.3615,5.3671,5.3567,5.3513,5.3471,5.3822,5.384,5.3618,5.2952,5.2696,5.2861,5.3467,5.4932,5.7154,6.1292,6.486,6.4353,5.8248,5.2649,5.2129,5.2925,5.371,5.4247,5.3998,5.3693,5.3988,5.3915,5.3791,5.3527,5.3633,5.3662,5.4045,5.4371,5.4198,5.4103,5.4124,5.4338,5.448,5.4337,5.3922,5.3947,5.3959,5.417,5.4064,5.4036,5.403,5.3882,5.4167,5.4219,5.4057,5.4195,5.4199,5.4326,5.4402,5.4523,5.4296,5.4358,5.4591,5.4742,5.4641,5.4635,5.4872,5.5089,5.5447,5.5435,5.5474,5.5366,5.5724,5.5874,5.5669,5.5612,5.5658,5.586,5.614,5.596,5.5835,5.5629,5.5552,5.5818,5.5519,5.4667,5.4235,5.4106,5.4132,5.4074,5.3802,5.3804,5.39,5.4222,5.4152,5.3823,5.3764,5.3774,5.3908,5.4126,5.4009,5.4028,5.4103,5.4132,5.4291,5.4273,5.3965,5.3891,5.4298,5.4437,5.4298,5.427,5.4139,5.3977,5.4314,5.4149,5.3855,5.3777,5.3973,5.4207,5.4039,5.3732,5.3721,5.3791,5.3948,5.3892,5.4098,5.4512,5.4872,5.5149,5.5176,5.4836,5.4964,5.5062,5.5445,5.5865,5.5677,5.5379,5.5281,5.5474,5.5207,5.4613,5.4102,5.3555,5.3591,5.3297,5.3089,5.3027,5.3091,5.3357,5.3349,5.3308,5.3051,5.3273,5.3463,5.338,5.3273,5.2978,5.3124,5.2977,5.2557,5.2804,5.3039,5.4517,5.7228,6.151,6.4747,6.3303,5.652,5.159,5.1597,5.2215,5.2699,5.307,5.3098,5.3003,5.3069,5.301,5.2687,5.2805,5.2954,5.3203,5.3157,5.3327,5.3452,5.3482,5.3456,5.3283,5.3134,5.3054,5.3281,5.3144,5.3153,5.3158,5.2953,5.3205,5.3561,5.3616,5.3344,5.338,5.3669,5.379,5.3785,5.365,5.3568,5.3718,5.4045,5.4011,5.3919,5.4163,5.4284,5.4298,5.4395,5.4376,5.4225,5.4367,5.4751,5.5038,5.5004,5.4941,5.5012,5.5085,5.5531,5.547,5.538,5.531,5.5462,5.5501,5.5307,5.507,5.4836,5.4592,5.4569,5.4283,5.3927,5.3867,5.3842,5.3769,5.3765,5.3429,5.3465,5.3544,5.3601,5.3879,5.3592,5.3596,5.3714,5.382,5.3928,5.3811,5.3759,5.3828,5.3848,5.3977,5.4111,5.4014,5.3925,5.4075,5.4005,5.373,5.3532,5.349,5.343,5.3513,5.34,5.3243,5.3313,5.3354,5.3396,5.344,5.3275,5.3049,5.3079,5.3514,5.364,5.359,5.3793,5.4058,5.4715,5.452,5.4321,5.4324,5.461,5.4875,5.4837,5.4713,5.4551,5.4596,5.4393,5.4438,5.3767,5.2931,5.2742,5.2599,5.2679,5.2817,5.2695,5.26,5.2764,5.2817,5.269,5.236,5.2373,5.2516,5.2724,5.2586,5.2316,5.1995,5.1529,5.16,5.1896,5.3109,5.428,5.7325,6.0819,6.2628,5.9677,5.3287,5.0257,5.0722,5.165,5.2215,5.2678,5.2803,5.2873,5.2649,5.2661,5.2327,5.235,5.2637,5.2762,5.2935,5.2886,5.2504,5.2667,5.288,5.2867,5.2401,5.237,5.2452,5.2637,5.2846,5.2564,5.2472,5.2658,5.3008,5.3222,5.3126,5.3152,5.2974,5.3092,5.3354,5.3385,5.3262,5.3194,5.3432,5.359,5.3402,5.3437,5.3836,5.3964,5.4255,5.4065,5.3892,5.3764,5.4106,5.4336,5.4154,5.412,5.4391,5.4591,5.4819,5.4935,5.4849,5.4778,5.4702,5.5026,5.4974,5.4658,5.4285,5.4349,5.4324,5.3921,5.3618,5.3408,5.3594,5.3623,5.3453,5.3307,5.3063,5.309,5.3263,5.3595,5.336,5.2964,5.3312,5.3643,5.3842,5.3723,5.3629,5.3518,5.3705,5.3891,5.396,5.3953,5.4019,5.4035,5.4124,5.3842,5.3528,5.362,5.3752,5.3852,5.3894,5.3717,5.3564,5.3537,5.3951,5.4356,5.4418,5.438,5.4396,5.4689,5.4651,5.4642,5.502,5.5247,5.5388,5.5266,5.5133,5.4884,5.4791,5.4364,5.4392,5.3753,5.3311,5.3298,5.3383,5.3592,5.3182,5.307,5.3255,5.3217,5.3645,5.3363,5.3035,5.3159,5.3332,5.3399,5.3174,5.2972,5.2359,5.2092,5.2724,5.4177,5.6473,5.9688,6.2252,6.2698,5.798,5.3052,5.1429,5.1984,5.2882,5.3774,5.39,5.3554,5.3635,5.4005,5.4083,5.3965,5.3628,5.3398,5.3634,5.3994,5.416,5.3736,5.3397,5.3803,5.3834,5.3931,5.3815,5.3549,5.3627,5.3943,5.4087,5.3841,5.3928,5.3948,5.4597,5.4611,5.4455,5.4237,5.4354,5.4542,5.4509,5.4379,5.44,5.4432,5.4367,5.4473,5.44,5.4343,5.4561,5.483,5.4876,5.475,5.4816,5.503,5.5144,5.5187,5.5385,5.5317,5.5206,5.5622,5.5889,5.5758,5.5639,5.5316,5.5241,5.5336,5.5158,5.4887,5.4691,5.4544,5.4646,5.4581,5.4162,5.4171,5.4374,5.4366,5.4431,5.4145,5.3833,5.3723,5.3915,5.4068,5.3863,5.3486,5.3692,5.3908,5.3984,5.3972,5.4015,5.4193,5.415,5.4457,5.4672,5.4599,5.4535,5.4673,5.4746,5.4833,5.467,5.4742,5.4802,5.5093,5.515,5.5003,5.5166,5.5249,5.5748,5.5696,5.5617,5.5754,5.5802,5.5983,5.592,5.5621,5.5377,5.5146,5.4915,5.4823,5.4341,5.4216,5.4083,5.4137,5.4326,5.423,5.4027,5.4076,5.4162,5.4401,5.429,5.414,5.4076,5.4092,5.4145,5.37,5.3294,5.2764,5.2955,5.388,5.5508,5.8484,6.2191,6.4745,6.1944,5.5708,5.1765,5.2062,5.2727,5.3692,5.4288,5.3916,5.4022,5.4188,5.402,5.4041,5.414,5.3932,5.398,5.4173,5.448,5.4287,5.4119,5.4142,5.4067,5.418,5.3946,5.3707,5.3684,5.3626,5.3817,5.3856,5.3929,5.3906,5.3991,5.4336,5.44,5.4384,5.4265,5.453,5.49,5.5026,5.5114,5.5146,5.5107,5.5304,5.5311,5.5203,5.5264,5.5435,5.579,5.5966,5.5771,5.5881,5.6065,5.6095,5.6256,5.6287,5.6237,5.6132,5.6408,5.6566,5.6626,5.6415,5.6258,5.6145,5.6141,5.5902,5.5687,5.5398,5.5342,5.5406,5.5289,5.5167,5.5177,5.517,5.5419,5.5484,5.5404,5.5098,5.5185,5.5177,5.5017,5.5048,5.5121,5.4835,5.5086,5.5353,5.5102,5.5173,5.5216,5.5502,5.5656,5.5566,5.5375,5.5517,5.5743,5.584,5.5797,5.5535,5.5405,5.5795,5.5736,5.5602,5.5664,5.579,5.6246,5.6565,5.6806,5.664,5.6543,5.68,5.7102,5.7304,5.715,5.7003,5.6887,5.6685,5.6904,5.6574,5.6189,5.5709,5.5253,5.5314,5.5048,5.4818,5.4912,5.5085,5.5139,5.503,5.4603,5.4789,5.4752,5.4932,5.4836,5.472,5.4788,5.4867,5.4499,5.3988,5.3676,5.3868,5.5536,5.8032,6.2076,6.5842,6.6169,6.0263,5.4384,5.3096,5.3532,5.4269,5.5026,5.5192,5.5175,5.482,5.466,5.4614,5.46,5.475,5.4885,5.4908,5.4857,5.4893,5.4992,5.478,5.463,5.4762,5.4845,5.4823,5.4741,5.4524,5.4506,5.4829,5.4998,5.5072,5.4876,5.4993,5.5296,5.5594,5.5797,5.5719,5.5786,5.5922,5.5823,5.5789,5.5562,5.554,5.5718,5.599,5.61,5.6146,5.6057,5.619,5.6281,5.6476,5.653,5.6545,5.6652,5.6805,5.7056,5.7038,5.6876,5.698,5.6999,5.7048,5.7052,5.6602,5.6427,5.6353,5.6421,5.6062,5.5715,5.5523,5.549,5.558,5.5497,5.5462,5.5437,5.5417,5.5475,5.5744,5.5592,5.5577,5.5721,5.5845,5.611,5.5826,5.5701,5.5643,5.5851,5.5981,5.5845,5.572,5.5655,5.5849,5.5956,5.5935,5.5639,5.5647,5.5695,5.5851,5.5706,5.5422,5.533,5.5472,5.5655,5.5793,5.5564,5.5554,5.571,5.5826,5.5696,5.5815,5.603,5.6524,5.6909,5.6854,5.6693,5.6735,5.7003,5.7278,5.7459,5.7407,5.7136,5.6946,5.7072,5.7068,5.6792,5.6271,5.586,5.5862,5.5667,5.5488,5.5315,5.5252,5.5329,5.5351,5.5316,5.5218,5.5113,5.5183,5.5321,5.54,5.5143,5.494,5.5055,5.4692,5.4511,5.4401,5.4979,5.6698,5.9575,6.1676,6.5019,6.5706,6.369,5.7609,5.3376,5.4042,5.4451,5.5354,5.5645,5.5612,5.527,5.5145,5.5142,5.5176,5.5216,5.5253,5.5171,5.5348,5.5453,5.5537,5.5443,5.5419,5.511,5.5152,5.5151,5.5146,5.4886,5.5042,5.5435,5.5669,5.5556,5.5396,5.5329,5.567,5.5891,5.6131,5.5904,5.5874,5.5976,5.6086,5.6246,5.6001,5.5837,5.5873,5.6064,5.6118,5.6006,5.6009,5.6139,5.6364,5.6645,5.6613,5.6554,5.6775,5.704,5.7177,5.7411,5.7242,5.7247,5.7267,5.7448,5.7406,5.7219,5.7037,5.7005,5.6803,5.6658,5.6388,5.6177,5.6122,5.6008,5.6161,5.5831,5.5766,5.5829,5.609,5.6075,5.5537,5.5407,5.5604,5.5709,5.5972,5.5802,5.5473,5.5638,5.5888,5.6185,5.6205,5.6182,5.623,5.6289,5.6614,5.6455,5.6358,5.6366,5.6352,5.6518,5.6249,5.6126,5.6097,5.5855,5.5873,5.6023,5.5938,5.5531,5.5522,5.5653,5.5686,5.5499,5.5409,5.554,5.5446,5.5721,5.5782,5.6021,5.6387,5.6641,5.6541,5.6634,5.6878,5.6755,5.7133,5.7433,5.728,5.6747,5.6954,5.6743,5.672,5.6176,5.5464,5.496,5.4938,5.5068,5.4986,5.4773,5.4789,5.4922,5.4876,5.4816,5.4856,5.4731,5.4522,5.4836,5.5044,5.4996,5.4695,5.4553,5.4179,5.4087,5.4124,5.4925,5.6966,6.0583,6.3749,6.4665,6.0474,5.4945,5.2694,5.2977,5.3578,5.3883,5.4438,5.4651,5.4684,5.4711,5.4311,5.4303,5.4319,5.4376,5.4751,5.4629,5.451,5.4447,5.4604,5.4573,5.4272,5.4236,5.4235,5.4502,5.4465,5.4459,5.4553,5.473,5.4888,5.5051,5.5109,5.4917,5.4603,5.4727,5.4979,5.5064,5.4846,5.4944,5.4924,5.4968,5.4871,5.4672,5.4785,5.4975,5.5244,5.5379,5.5298,5.5146,5.5452,5.5634,5.5684,5.5712,5.5732,5.5849,5.6113,5.6255,5.6039,5.6231,5.6328,5.6341,5.6452,5.6091,5.5958,5.5683,5.5746,5.5677,5.5379,5.5208,5.5002,5.5107,5.4896,5.4766,5.4531,5.4568,5.4524,5.4696,5.4732,5.4358,5.4186,5.4185,5.4424,5.4627,5.4541,5.4324,5.4538,5.4806,5.4963,5.4816,5.4912,5.5119,5.546,5.5241
