-19.013,-19.02,-19.018,-19.024,-19.015,-19.025,-19.03,-19.033,-19.024,-19.031,-19.02,-19.026,-19.023,-19.029,-19.02,-19.025,-19.025,-19.024,-19.028,-19.026,-19.022,-19.028,-19.023,-19.018,-19.019,-19.023,-19.016,-19.023,-19.011,-19.006,-19.017,-19.018,-18.997,-19.003,-18.989,-18.982,-18.965,-18.94,-18.926,-18.921,-18.919,-18.945,-18.972,-18.946,-18.955,-18.968,-18.965,-18.925,-18.988,-19.037,-19.027,-19.004,-19.036,-19.021,-19.028,-19.019,-19.013,-19.028,-19.054,-19.027,-19.022,-19.013,-19.036,-19.073,-19.033,-19.053,-18.999,-19.019,-19.032,-19.099,-19.147,-19.099,-18.96,-18.729,-18.504,-18.169,-17.789,-17.656,-17.857,-18.279,-18.711,-19.05,-19.138,-19.098,-19.024,-18.986,-18.95,-18.921,-18.952,-18.945,-18.96,-18.937,-18.951,-18.94,-18.953,-18.936,-18.958,-18.931,-18.921,-18.92,-18.937,-18.909,-18.921,-18.908,-18.914,-18.907,-18.904,-18.897,-18.892,-18.892,-18.885,-18.896,-18.868,-18.854,-18.857,-18.863,-18.858,-18.825,-18.834,-18.815,-18.814,-18.79,-18.785,-18.782,-18.775,-18.752,-18.736,-18.697,-18.695,-18.683,-18.671,-18.656,-18.624,-18.629,-18.634,-18.595,-18.565,-18.565,-18.543,-18.565,-18.525,-18.541,-18.526,-18.532,-18.552,-18.601,-18.641,-18.659,-18.677,-18.72,-18.732,-18.789,-18.84,-18.842,-18.877,-18.923,-18.94,-18.963,-18.957,-18.969,-18.991,-19.009,-19.011,-19.019,-19.017,-19.019,-19.02,-19.018,-19.02,-19.025,-19.025,-19.03,-19.027,-19.032,-19.022,-19.026,-19.024,-19.012,-19.001,-19.007,-18.999,-19.011,-18.997,-19.003,-19.008,-19.013,-18.991,-18.998,-18.983,-18.985,-18.987,-18.983,-19.006,-19.005,-19.001,-18.991,-19.004,-19.002,-19.002,-18.969,-18.998,-19.011,-19.02,-19.02,-19.011,-19.014,-19.018,-19.016,-19.012,-19.027,-19.026,-19.027,-19.03,-19.027,-19.023,-19.009,-19.011,-19.012,-19.02,-18.997,-18.996,-18.984,-18.971,-18.965,-18.931,-18.911,-18.923,-18.942,-18.959,-18.971,-18.962,-18.975,-18.999,-19.02,-19.014,-19.023,-19.048,-19.049,-19.061,-19.072,-19.043,-19.075,-19.064,-19.065,-19.075,-19.065,-19.064,-19.076,-19.066,-19.075,-19.083,-19.075,-19.078,-19.083,-19.094,-19.104,-19.141,-19.158,-19.073,-18.904,-18.671,-18.398,-18.049,-17.765,-17.743,-18.09,-18.55,-18.96,-19.2,-19.181,-19.169,-19.087,-19.034,-19.004,-19.006,-19.009,-19.007,-19.001,-19.007,-19.012,-18.998,-18.99,-18.999,-18.987,-18.992,-18.991,-18.968,-18.977,-18.979,-18.981,-18.979,-18.973,-18.959,-18.955,-18.955,-18.938,-18.939,-18.926,-18.93,-18.913,-18.91,-18.894,-18.893,-18.883,-18.884,-18.888,-18.862,-18.841,-18.826,-18.816,-18.81,-18.792,-18.766,-18.742,-18.731,-18.71,-18.691,-18.667,-18.658,-18.641,-18.624,-18.62,-18.598,-18.572,-18.566,-18.558,-18.555,-18.54,-18.537,-18.554,-18.563,-18.582,-18.606,-18.624,-18.663,-18.711,-18.744,-18.791,-18.826,-18.872,-18.886,-18.936,-18.957,-18.966,-19.001,-19.024,-19.02,-19.026,-19.022,-19.027,-19.041,-19.039,-19.046,-19.052,-19.056,-19.053,-19.056,-19.052,-19.042,-19.039,-19.043,-19.047,-19.047,-19.034,-19.034,-19.034,-19.042,-19.036,-19.028,-19.021,-19.019,-19.04,-19.035,-19.028,-19.025,-19.026,-19.042,-19.042,-19.03,-19.021,-19.013,-19.025,-19.027,-19.018,-19.029,-19.026,-19.039,-19.036,-19.037,-19.037,-19.041,-19.051,-19.057,-19.048,-19.05,-19.047,-19.06,-19.053,-19.056,-19.057,-19.048,-19.051,-19.058,-19.048,-19.048,-19.052,-19.046,-19.049,-19.056,-19.06,-19.044,-19.052,-19.055,-19.062,-19.049,-19.05,-19.047,-19.064,-19.058,-19.058,-19.042,-19.042,-19.055,-19.053,-19.054,-19.053,-19.059,-19.067,-19.076,-19.05,-19.051,-19.051,-19.054,-19.078,-19.049,-19.057,-19.068,-19.069,-19.069,-19.065,-19.051,-19.054,-19.05,-19.054,-19.062,-19.052,-19.032,-19.031,-19.024,-19.021,-18.997,-18.969,-18.95,-18.957,-18.986,-19.001,-18.992,-18.985,-19,-19.006,-19.009,-19.013,-19.027,-19.056,-19.074,-19.068,-19.057,-19.067,-19.077,-19.083,-19.085,-19.079,-19.071,-19.077,-19.071,-19.067,-19.07,-19.066,-19.057,-19.066,-19.09,-19.073,-19.087,-19.138,-19.133,-19.012,-18.815,-18.577,-18.324,-17.95,-17.744,-17.739,-18.019,-18.48,-18.88,-19.182,-19.198,-19.132,-19.071,-19.005,-18.994,-19.007,-18.995,-19.003,-19.005,-19.003,-18.995,-18.995,-18.995,-18.994,-18.999,-18.995,-18.979,-18.971,-18.972,-18.976,-18.975,-18.964,-18.951,-18.958,-18.958,-18.947,-18.927,-18.912,-18.925,-18.918,-18.907,-18.897,-18.892,-18.897,-18.886,-18.879,-18.862,-18.849,-18.832,-18.819,-18.819,-18.796,-18.773,-18.76,-18.75,-18.729,-18.704,-18.681,-18.672,-18.655,-18.64,-18.617,-18.603,-18.586,-18.579,-18.575,-18.57,-18.536,-18.53,-18.528,-18.535,-18.546,-18.545,-18.568,-18.605,-18.631,-18.67,-18.692,-18.737,-18.778,-18.822,-18.869,-18.891,-18.907,-18.936,-18.955,-18.971,-18.992,-19.001,-19.014,-19.028,-19.029,-19.021,-19.021,-19.037,-19.038,-19.037,-19.038,-19.036,-19.038,-19.041,-19.05,-19.036,-19.035,-19.039,-19.035,-19.04,-19.039,-19.021,-19.03,-19.033,-19.041,-19.036,-19.035,-19.028,-19.027,-19.039,-19.045,-19.027,-19.024,-19.026,-19.029,-19.046,-19.046,-19.031,-19.032,-19.047,-19.042,-19.039,-19.039,-19.045,-19.052,-19.058,-19.062,-19.047,-19.061,-19.059,-19.059,-19.049,-19.045,-19.048,-19.059,-19.077,-19.078,-19.069,-19.065,-19.071,-19.06,-19.063,-19.069,-19.073,-19.065,-19.076,-19.076,-19.069,-19.065,-19.075,-19.063,-19.071,-19.078,-19.07,-19.071,-19.083,-19.087,-19.072,-19.071,-19.071,-19.078,-19.075,-19.084,-19.078,-19.074,-19.077,-19.086,-19.077,-19.086,-19.08,-19.087,-19.084,-19.081,-19.07,-19.056,-19.072,-19.08,-19.077,-19.074,-19.059,-19.051,-19.04,-19.036,-19.02,-18.976,-18.969,-18.988,-19.01,-19.025,-19.028,-19.021,-19.035,-19.044,-19.043,-19.053,-19.071,-19.094,-19.097,-19.087,-19.097,-19.093,-19.104,-19.101,-19.101,-19.097,-19.095,-19.101,-19.114,-19.112,-19.104,-19.093,-19.104,-19.109,-19.107,-19.098,-19.105,-19.1,-19.11,-19.131,-19.168,-19.193,-19.121,-18.975,-18.755,-18.471,-18.14,-17.834,-17.772,-18.072,-18.52,-18.911,-19.209,-19.226,-19.164,-19.09,-19.021,-19.012,-19.018,-19.042,-19.031,-19.029,-19.018,-19.024,-19.027,-19.038,-19.015,-19.005,-19.009,-19.014,-19.009,-19.01,-19.001,-19.002,-18.998,-18.991,-18.981,-18.98,-18.971,-18.976,-18.965,-18.956,-18.957,-18.951,-18.941,-18.933,-18.924,-18.922,-18.902,-18.904,-18.884,-18.874,-18.859,-18.852,-18.847,-18.831,-18.81,-18.776,-18.767,-18.765,-18.758,-18.738,-18.707,-18.695,-18.675,-18.656,-18.648,-18.62,-18.611,-18.609,-18.608,-18.599,-18.588,-18.57,-18.585,-18.61,-18.622,-18.645,-18.666,-18.679,-18.721,-18.764,-18.801,-18.835,-18.868,-18.902,-18.937,-18.965,-18.98,-18.997,-19.002,-19.024,-19.034,-19.034,-19.039,-19.027,-19.047,-19.046,-19.039,-19.049,-19.056,-19.056,-19.06,-19.04,-19.034,-19.046,-19.048,-19.06,-19.055,-19.028,-19.035,-19.031,-19.029,-19.028,-19.027,-19.036,-19.039,-19.048,-19.038,-19.027,-19.013,-19.035,-19.034,-19.023,-19.019,-19.031,-19.032,-19.045,-19.032,-19.032,-19.024,-19.037,-19.045,-19.049,-19.037,-19.043,-19.053,-19.052,-19.053,-19.049,-19.053,-19.053,-19.068,-19.063,-19.057,-19.042,-19.057,-19.077,-19.073,-19.056,-19.052,-19.052,-19.062,-19.061,-19.062,-19.062,-19.069,-19.064,-19.066,-19.063,-19.059,-19.055,-19.074,-19.075,-19.077,-19.066,-19.064,-19.061,-19.079,-19.066,-19.062,-19.069,-19.073,-19.074,-19.065,-19.065,-19.053,-19.062,-19.065,-19.057,-19.041,-19.022,-19.026,-19.011,-18.997,-18.974,-18.979,-19.003,-19.018,-19.018,-19.015,-19.022,-19.021,-19.039,-19.061,-19.065,-19.077,-19.092,-19.103,-19.098,-19.09,-19.092,-19.088,-19.097,-19.103,-19.095,-19.086,-19.095,-19.098,-19.102,-19.096,-19.09,-19.08,-19.095,-19.101,-19.087,-19.101,-19.12,-19.168,-19.204,-19.153,-18.994,-18.772,-18.511,-18.183,-17.839,-17.728,-17.968,-18.42,-18.844,-19.168,-19.185,-19.144,-19.104,-19.032,-19.025,-19.011,-19.02,-19.017,-19.027,-19.023,-19.032,-19.009,-19.012,-19.006,-19.013,-19.004,-19.008,-18.991,-19.005,-18.998,-18.996,-18.98,-18.984,-18.991,-18.984,-18.976,-18.962,-18.954,-18.949,-18.955,-18.956,-18.936,-18.92,-18.915,-18.919,-18.913,-18.908,-18.886,-18.878,-18.863,-18.855,-18.836,-18.81,-18.805,-18.792,-18.787,-18.76,-18.717,-18.715,-18.701,-18.705,-18.686,-18.66,-18.643,-18.641,-18.624,-18.609,-18.588,-18.58,-18.578,-18.594,-18.611,-18.604,-18.626,-18.666,-18.692,-18.725,-18.757,-18.779,-18.815,-18.852,-18.897,-18.932,-18.952,-18.975,-18.992,-19.021,-19.035,-19.031,-19.048,-19.059,-19.069,-19.059,-19.058,-19.056,-19.072,-19.07,-19.076,-19.071,-19.063,-19.065,-19.075,-19.077,-19.066,-19.059,-19.068,-19.062,-19.067,-19.052,-19.052,-19.061,-19.064,-19.05,-19.047,-19.046,-19.047,-19.057,-19.051,-19.052,-19.05,-19.046,-19.053,-19.044,-19.051,-19.045,-19.054,-19.05,-19.049,-19.056,-19.055,-19.058,-19.065,-19.07,-19.071,-19.067,-19.067,-19.071,-19.076,-19.072,-19.064,-19.07,-19.077,-19.082,-19.076,-19.067,-19.08,-19.078,-19.09,-19.085,-19.073,-19.071,-19.072,-19.085,-19.087,-19.074,-19.076,-19.075,-19.086,-19.084,-19.082,-19.07,-19.065,-19.076,-19.083,-19.089,-19.083,-19.073,-19.09,-19.084,-19.08,-19.079,-19.074,-19.081,-19.077,-19.072,-19.05,-19.067,-19.069,-19.068,-19.064,-19.054,-19.038,-19.026,-19.022,-19.001,-18.972,-18.985,-19.007,-19.028,-19.036,-19.024,-19.021,-19.033,-19.043,-19.057,-19.07,-19.089,-19.102,-19.109,-19.108,-19.108,-19.1,-19.102,-19.111,-19.108,-19.113,-19.1,-19.103,-19.111,-19.113,-19.118,-19.108,-19.109,-19.116,-19.113,-19.114,-19.11,-19.134,-19.182,-19.201,-19.141,-18.982,-18.758,-18.498,-18.209,-17.849,-17.765,-18.025,-18.476,-18.892,-19.193,-19.224,-19.149,-19.097,-19.028,-19.026,-19.022,-19.029,-19.041,-19.045,-19.041,-19.046,-19.03,-19.026,-19.025,-19.023,-19.018,-19.029,-18.998,-19.011,-19.011,-19.005,-18.997,-18.993,-18.999,-18.988,-18.975,-18.963,-18.956,-18.955,-18.965,-18.961,-18.945,-18.942,-18.94,-18.93,-18.918,-18.901,-18.879,-18.87,-18.873,-18.863,-18.838,-18.819,-18.81,-18.789,-18.777,-18.749,-18.732,-18.725,-18.707,-18.692,-18.671,-18.64,-18.635,-18.632,-18.603,-18.597,-18.584,-18.577,-18.577,-18.585,-18.588,-18.593,-18.612,-18.643,-18.673,-18.708,-18.747,-18.768,-18.808,-18.855,-18.897,-18.921,-18.948,-18.98,-18.991,-19.016,-19.025,-19.035,-19.039,-19.051,-19.059,-19.05,-19.058,-19.068,-19.07,-19.074,-19.074,-19.07,-19.067,-19.06,-19.066,-19.068,-19.061,-19.056,-19.056,-19.054,-19.05,-19.056,-19.061,-19.049,-19.048,-19.05,-19.034,-19.037,-19.046,-19.054,-19.055,-19.041,-19.034,-19.039,-19.046,-19.049,-19.048,-19.046,-19.048,-19.047,-19.051,-19.05,-19.045,-19.053,-19.066,-19.054,-19.06,-19.048,-19.048,-19.066,-19.059,-19.055,-19.053,-19.05,-19.06,-19.066,-19.062,-19.066,-19.065,-19.059,-19.069,-19.064,-19.061,-19.053,-19.063,-19.072,-19.066,-19.057,-19.053,-19.057,-19.067,-19.071,-19.072,-19.063,-19.063,-19.06,-19.06,-19.07,-19.054,-19.058,-19.064,-19.064,-19.078,-19.069,-19.067,-19.065,-19.057,-19.051,-19.053,-19.061,-19.076,-19.073,-19.071,-19.063,-19.064,-19.064,-19.077,-19.079,-19.055,-19.049,-19.053,-19.065,-19.073,-19.056,-19.048,-19.055,-19.07,-19.066,-19.054,-19.047,-19.056,-19.054,-19.063,-19.056,-19.052,-19.051,-19.062,-19.054,-19.058,-19.053,-19.051,-19.066,-19.046,-19.055,-19.038,-19.049,-19.061,-19.068,-19.036,-19.05,-19.046,-19.053,-19.064,-19.051,-19.039,-19.039,-19.035,-19.046,-19.067,-19.058,-19.068,-19.047,-19.051,-19.064,-19.058,-19.068,-19.046,-19.063,-19.071,-19.051,-19.048,-19.051,-19.054,-19.066,-19.054,-19.039,-19.034,-19.05,-19.057,-19.04,-19.043,-19.032,-19.001,-19.011,-18.997,-18.973,-18.948,-18.965,-18.974,-18.995,-18.999,-18.994,-19.01,-19.023,-19.017,-19.002,-19.019,-19.041,-19.058,-19.066,-19.055,-19.061,-19.079,-19.075,-19.088,-19.066,-19.069,-19.068,-19.083,-19.084,-19.07,-19.074,-19.048,-19.074,-19.11,-19.141,-19.109,-18.971,-18.776,-18.541,-18.27,-17.892,-17.767,-17.923,-18.352,-18.782,-19.104,-19.206,-19.136,-19.073,-18.99,-18.978,-18.977,-18.992,-18.985,-19.011,-19,-18.987,-18.978,-18.986,-18.988,-18.978,-18.985,-18.983,-18.963,-18.974,-18.96,-18.96,-18.953,-18.968,-18.953,-18.951,-18.922,-18.913,-18.93,-18.94,-18.938,-18.919,-18.91,-18.907,-18.899,-18.891,-18.876,-18.868,-18.853,-18.859,-18.848,-18.818,-18.801,-18.788,-18.784,-18.785,-18.752,-18.743,-18.713,-18.702,-18.691,-18.657,-18.642,-18.629,-18.613,-18.606,-18.596,-18.571,-18.556,-18.551,-18.537,-18.538,-18.543,-18.541,-18.562,-18.565,-18.583,-18.6,-18.636,-18.664,-18.718,-18.751,-18.778,-18.813,-18.877,-18.917,-18.942,-18.947,-18.965,-18.985,-19.004,-19.007,-19.009,-19.028,-19.037,-19.024,-19.032,-19.023,-19.033,-19.032,-19.044,-19.049,-19.029,-19.018,-19.023,-19.031,-19.042,-19.021,-19.026,-19.025,-19.036,-19.043,-19.022,-19.026,-19.012,-19.012,-19.019,-19.022,-19.016,-19.016,-19.029,-19.026,-19.018,-19.026,-19.024,-19.016,-19.016,-19.016,-19.03,-19.029,-19.024,-19.024,-19.037,-19.035,-19.029,-19.034,-19.034,-19.034,-19.034,-19.04,-19.037,-19.059,-19.038,-19.051,-19.042,-19.044,-19.057,-19.054,-19.042,-19.036,-19.044,-19.05,-19.06,-19.057,-19.055,-19.054,-19.064,-19.058,-19.065,-19.047,-19.054,-19.046,-19.069,-19.074,-19.049,-19.053,-19.06,-19.047,-19.058,-19.05,-19.05,-19.064,-19.067,-19.072,-19.053,-19.048,-19.055,-19.061,-19.07,-19.061,-19.054,-19.059,-19.07,-19.07,-19.065,-19.05,-19.049,-19.053,-19.066,-19.072,-19.061,-19.068,-19.061,-19.058,-19.055,-19.062,-19.069,-19.061,-19.052,-19.059,-19.045,-19.056,-19.052,-19.067,-19.07,-19.064,-19.06,-19.056,-19.059,-19.061,-19.052,-19.045,-19.058,-19.067,-19.072,-19.072,-19.056,-19.062,-19.069,-19.063,-19.052,-19.049,-19.053,-19.049,-19.053,-19.042,-19.022,-19.023,-19.028,-19.035,-19.036,-19.01,-18.997,-18.978,-18.939,-18.939,-18.956,-18.966,-18.99,-18.999,-19.006,-18.996,-19.007,-19.035,-19.048,-19.057,-19.055,-19.058,-19.068,-19.079,-19.085,-19.072,-19.058,-19.068,-19.074,-19.081,-19.068,-19.073,-19.07,-19.078,-19.08,-19.075,-19.085,-19.137,-19.148,-19.101,-18.943,-18.705,-18.44,-18.12,-17.836,-17.767,-18.054,-18.503,-18.903,-19.102,-19.185,-19.16,-19.091,-19.049,-18.998,-19.011,-18.997,-18.989,-18.994,-18.996,-19.001,-18.999,-18.992,-18.989,-18.983,-18.993,-18.983,-18.97,-18.967,-18.976,-18.973,-18.971,-18.942,-18.946,-18.948,-18.945,-18.935,-18.922,-18.935,-18.92,-18.93,-18.914,-18.892,-18.888,-18.881,-18.873,-18.866,-18.855,-18.844,-18.833,-18.829,-18.821,-18.806,-18.782,-18.764,-18.757,-18.737,-18.725,-18.702,-18.692,-18.678,-18.671,-18.626,-18.614,-18.592,-18.597,-18.597,-18.579,-18.564,-18.552,-18.554,-18.557,-18.561,-18.565,-18.582,-18.605,-18.646,-18.678,-18.721,-18.74,-18.789,-18.823,-18.854,-18.882,-18.915,-18.947,-18.97,-18.977,-18.984,-18.992,-19.005,-19.011,-19.029,-19.017,-19.008,-19.001,-19.018,-19.043,-19.031,-19.008,-19.018,-19.028,-19.029,-19.021,-19.004,-19.011,-19.013,-19.013,-19.01,-18.997,-19,-18.997,-19.01,-19.01,-19.007,-18.998,-19.008,-19.005,-19.003,-19.002,-19.004,-19.001,-19.005,-19.001,-18.991,-19,-19.014,-19.016,-19.009,-19.006,-19.011,-19.013,-19.014,-19.012,-19.02,-19.014,-19.016,-19.027,-19.029,-19.029,-19.018,-19.019,-19.017,-19.03,-19.026,-19.026,-19.028,-19.041,-19.04,-19.035,-19.027,-19.02,-19.031,-19.032,-19.044,-19.037,-19.035,-19.038,-19.032,-19.043,-19.031,-19.03,-19.037,-19.035,-19.038,-19.033,-19.052,-19.029,-19.047,-19.045,-19.034,-19.041,-19.035,-19.051,-19.039,-19.023,-19.014,-19.012,-19.013,-19.019,-18.984,-18.952,-18.928,-18.926,-18.94,-18.955,-18.972,-18.977,-18.986,-19.008,-19.008,-19.016,-19.012,-19.048,-19.062,-19.06,-19.057,-19.067,-19.058,-19.067,-19.07,-19.062,-19.059,-19.065,-19.077,-19.074,-19.063,-19.079,-19.082,-19.076,-19.072,-19.111,-19.148,-19.112,-18.974,-18.762,-18.503,-18.189,-17.824,-17.732,-17.943,-18.39,-18.803,-19.137,-19.193,-19.156,-19.091,-19.015,-19,-18.991,-19.013,-18.997,-19.012,-18.992,-19.018,-19.004,-19.009,-18.982,-18.993,-18.984,-18.993,-18.984,-18.992,-18.97,-18.966,-18.964,-18.974,-18.957,-18.953,-18.954,-18.961,-18.955,-18.93,-18.919,-18.924,-18.911,-18.918,-18.904,-18.892,-18.884,-18.88,-18.865,-18.858,-18.836,-18.829,-18.809,-18.816,-18.783,-18.756,-18.735,-18.732,-18.734,-18.717,-18.686,-18.664,-18.642,-18.635,-18.619,-18.603,-18.584,-18.571,-18.573,-18.561,-18.547,-18.551,-18.557,-18.571,-18.598,-18.613,-18.643,-18.659,-18.7,-18.736,-18.784,-18.82,-18.843,-18.882,-18.926,-18.937,-18.96,-18.974,-19,-19.008,-19.021,-19.014,-19.018,-19.026,-19.041,-19.039,-19.037,-19.038,-19.045,-19.041,-19.051,-19.044,-19.025,-19.049,-19.042,-19.038,-19.032,-19.028,-19.037,-19.027,-19.048,-19.009,-19.018,-19.018,-19.031,-19.026,-19.018,-19.004,-19.009,-19.005,-19.026,-19.009,-19.003,-19.012,-19.01,-19.018,-19.011,-19.003,-19.001,-19,-19.016,-19.024,-19.014,-19.018,-19.023,-19.018,-19.011,-19.018,-19.021,-19.017,-19.028,-19.029,-19.027,-19.017,-19.026,-19.02,-19.033,-19.034,-19.028,-19.031,-19.026,-19.039,-19.023,-19.031,-19.029,-19.033,-19.029,-19.032,-19.022,-19.026,-19.03,-19.032,-19.034,-19.036,-19.026,-19.031,-19.038,-19.037,-19.035,-19.036,-19.04,-19.036,-19.029,-19.027,-19.025,-19.033,-19.038,-19.04,-19.04,-19.03,-19.027,-19.039,-19.04,-19.033,-19.026,-19.023,-19.031,-19.042,-19.032,-19.02,-19.039,-19.03,-19.042,-19.034,-19.026,-19.023,-19.033,-19.027,-19.04,-19.031,-19.011,-19.032,-19.027,-19.029,-19.028,-19.024,-19.031,-19.037,-19.039,-19.022,-19.018,-19.02,-19.029,-19.037,-19.003,-18.997,-19,-18.992,-18.98,-18.952,-18.907,-18.921,-18.914,-18.934,-18.966,-18.974,-18.978,-18.998,-18.995,-19.004,-19.008,-19.029,-19.05,-19.058,-19.043,-19.043,-19.045,-19.044,-19.055,-19.051,-19.055,-19.047,-19.06,-19.058,-19.057,-19.055,-19.062,-19.063,-19.103,-19.138,-19.079,-18.927,-18.708,-18.473,-18.168,-17.805,-17.719,-17.954,-17.964,-18.593,-19.006,-19.136,-19.17,-19.049,-19.028,-18.965,-18.971,-18.957,-19.006,-18.982,-19.003,-18.975,-19,-18.977,-19.004,-18.978,-18.978,-18.96,-18.971,-18.961,-18.969,-18.956,-18.955,-18.935,-18.961,-18.946,-18.939,-18.921,-18.93,-18.915,-18.926,-18.896,-18.902,-18.882,-18.901,-18.895,-18.868,-18.865,-18.848,-18.855,-18.835,-18.815,-18.797,-18.783,-18.775,-18.754,-18.736,-18.723,-18.708,-18.682,-18.654,-18.659,-18.629,-18.608,-18.594,-18.579,-18.573,-18.565,-18.544,-18.554,-18.543,-18.526,-18.523,-18.525,-18.535,-18.555,-18.589,-18.617,-18.631,-18.685,-18.723,-18.766,-18.799,-18.84,-18.881,-18.907,-18.923,-18.954,-18.961,-18.974,-18.975,-18.996,-19.003,-18.997,-19.001,-18.996,-19.021,-19.025,-19.014,-19.028,-19.011,-19.019,-19.015,-19.009,-18.991,-19.013,-19.013,-19.017,-19.005,-18.995,-19.002,-19,-19.005,-19.002,-18.999,-18.992,-18.989,-18.998,-18.99,-18.984,-18.992,-18.997,-18.994,-18.978,-18.981,-18.998,-18.991,-18.997,-19.007,-18.985,-18.992,-18.989,-18.994,-19.006,-18.999,-19.001,-19.013,-19.014,-19.003,-18.999,-18.998,-19.02,-19.023,-19.024,-19.01,-19.012,-19.013,-19.022,-19.025,-19.023,-19.01,-19.014,-19.011,-19.026,-19.017,-19.023,-19.02,-19.025,-19.018,-19.024,-19.021,-19.016,-19.019,-19.024,-19.015,-19.018,-19.011,-19.013,-19.014,-19.014,-19.005,-19.007,-19.012,-19.006,-19.013,-18.999,-19.01,-19.008,-19.019,-18.999,-18.991,-18.982,-18.999,-19.009,-19.002,-19.001,-18.99,-19.001,-19.004,-19.018,-19.017,-18.999,-19,-19.008,-19.013,-19.014,-18.997,-18.99,-18.995,-18.997,-18.983,-18.959,-18.946,-18.929,-18.912,-18.905,-18.896,-18.898,-18.918,-18.945,-18.963,-18.961,-18.969,-18.974,-18.996,-19.001,-19.022,-19.02,-19.033,-19.037,-19.047,-19.037,-19.041,-19.035,-19.048,-19.039,-19.041,-19.047,-19.05,-19.048,-19.05,-19.06,-19.065,-19.077,-19.115,-19.066,-18.92,-18.701,-18.465,-18.181,-17.807,-17.711,-17.76,-18.333,-18.799,-19.085,-19.179,-19.082,-19.073,-18.976,-18.982,-18.953,-18.992,-18.972,-18.99,-18.974,-18.99,-18.967,-18.977,-18.969,-18.985,-18.965,-18.96,-18.941,-18.959,-18.944,-18.955,-18.935,-18.939,-18.912,-18.929,-18.922,-18.93,-18.907,-18.903,-18.909,-18.891,-18.885,-18.868,-18.864,-18.864,-18.848,-18.841,-18.812,-18.819,-18.811,-18.791,-18.776,-18.759,-18.741,-18.736,-18.721,-18.699,-18.678,-18.659,-18.64,-18.621,-18.604,-18.576,-18.559,-18.546,-18.538,-18.519,-18.507,-18.495,-18.491,-18.492,-18.496,-18.493,-18.515,-18.509,-18.554,-18.583,-18.617,-18.656,-18.71,-18.748,-18.785,-18.81,-18.854,-18.877,-18.917,-18.924,-18.945,-18.961,-18.954,-18.958,-18.977,-18.98,-18.986,-18.986,-18.997,-18.996,-19.006,-18.988,-18.99,-18.983,-18.992,-18.99,-18.997,-18.998,-19.003,-18.995,-18.995,-18.984,-18.979,-18.975,-18.978,-18.979,-18.98,-18.961,-18.974,-18.991,-18.985,-18.973,-18.977,-18.97,-18.971,-18.98,-18.982,-18.964,-18.964,-18.977,-18.989,-18.97,-18.96,-18.974,-18.992,-18.996,-18.998,-18.978,-18.977,-18.968,-19.004,-19,-18.979,-18.992,-18.988,-18.995,-19.01,-18.995,-19.012,-19.011,-18.992,-19.005,-19,-18.996,-18.995,-19.004,-18.995,-19.001,-18.996,-19.006,-19.015,-19.004,-19.022,-18.999,-19.004,-19,-19.002,-19.006,-19.008,-18.999,-19.008,-19.024,-19.013,-18.991,-18.996,-19.002,-18.985,-18.976,-18.978,-18.969,-18.961,-18.955,-18.956,-18.926,-18.894,-18.879,-18.916,-18.935,-18.935,-18.945,-18.938,-18.961,-18.966,-18.985,-18.999,-19.02,-19.017,-19.046,-19.042,-19.029,-19.028,-19.029,-19.034,-19.044,-19.034,-19.038,-19.04,-19.048,-19.037,-19.033,-19.039,-19.049,-19.054,-19.078,-19.1,-19.12,-19.113,-19.02,-18.827,-18.577,-18.278,-17.899,-17.711,-17.791,-18.198,-18.62,-19.012,-19.161,-19.135,-19.082,-19.005,-18.992,-18.956,-18.986,-18.966,-18.979,-18.964,-18.985,-18.964,-18.985,-18.951,-18.956,-18.961,-18.97,-18.958,-18.957,-18.944,-18.942,-18.943,-18.934,-18.921,-18.928,-18.912,-18.925,-18.917,-18.918,-18.902,-18.893,-18.882,-18.88,-18.865,-18.864,-18.843,-18.854,-18.841,-18.821,-18.814,-18.792,-18.776,-18.776,-18.759,-18.745,-18.722,-18.71,-18.699,-18.689,-18.668,-18.649,-18.62,-18.6,-18.591,-18.575,-18.559,-18.549,-18.54,-18.535,-18.518,-18.514,-18.534,-18.545,-18.578,-18.58,-18.611,-18.641,-18.691,-18.693,-18.741,-18.781,-18.822,-18.866,-18.885,-18.918,-18.934,-18.946,-18.979,-18.993,-18.986,-18.99,-18.995,-19.007,-19.018,-19.014,-19.017,-19.014,-19.027,-19.023,-19.029,-19.027,-19.017,-19.024,-19.036,-19.02,-19.007,-19.002,-18.999,-19.008,-19.015,-19.005,-19.005,-18.985,-19.008,-19.014,-19.003,-19.002,-19.005,-18.999,-19.007,-18.988,-18.991,-18.998,-19.005,-19.009,-19.011,-19.004,-19.018,-18.994,-19.018,-19.011,-19.006,-19.011,-19.016,-19.028,-18.998,-19.011,-19.025,-19.028,-19.027,-19.017,-19.021,-19.03,-19.016,-19.021,-19.029,-19.038,-19.037,-19.035,-19.034,-19.038,-19.036,-19.027,-19.024,-19.01,-19.018,-19.004,-18.999,-18.992,-18.982,-18.993,-18.988,-18.947,-18.914,-18.91,-18.94,-18.956,-18.965,-18.954,-18.979,-18.987,-18.996,-18.999,-19.02,-19.041,-19.059,-19.061,-19.054,-19.058,-19.054,-19.057,-19.064,-19.06,-19.053,-19.066,-19.067,-19.065,-19.062,-19.052,-19.058,-19.077,-19.081,-19.074,-19.09,-19.148,-19.14,-19.03,-18.824,-18.696,-18.454,-18.125,-17.787,-17.7,-17.976,-18.424,-18.849,-19.154,-19.183,-19.119,-19.064,-18.998,-18.998,-18.992,-18.995,-18.994,-19.007,-18.989,-19.001,-18.995,-18.993,-18.985,-18.993,-18.989,-18.986,-18.97,-18.973,-18.966,-18.966,-18.963,-18.952,-18.948,-18.949,-18.94,-18.936,-18.917,-18.927,-18.919,-18.904,-18.902,-18.886,-18.879,-18.887,-18.878,-18.857,-18.846,-18.831,-18.826,-18.813,-18.793,-18.778,-18.761,-18.755,-18.741,-18.717,-18.675,-18.652,-18.654,-18.637,-18.64,-18.606,-18.572,-18.568,-18.568,-18.565,-18.55,-18.539,-18.542,-18.544,-18.55,-18.543,-18.571,-18.617,-18.654,-18.699,-18.741,-18.761,-18.809,-18.839,-18.858,-18.896,-18.923,-18.934,-18.966,-18.975,-18.993,-18.993,-19,-19.01,-19.026,-19.025,-19.036,-19.017,-19.03,-19.032,-19.037,-19.022,-19.03,-19.031,-19.036,-19.027,-19.023,-19.015,-19.027,-19.029,-19.02,-19.027,-19.016,-19.034,-19.011,-19.022,-19.011,-19.011,-19.005,-19.017,-19.021,-19.018,-19.012,-19.006,-19.014,-19.014,-19.016,-19.018,-19.005,-19.007,-19.031,-19.034,-19.012,-19.017,-19.023,-19.028,-19.035,-19.028,-19.026,-19.024,-19.039,-19.031,-19.033,-19.034,-19.034,-19.033,-19.048,-19.039,-19.033,-19.029,-19.051,-19.056,-19.043,-19.033,-19.047,-19.044,-19.05,-19.057,-19.038,-19.042,-19.053,-19.045,-19.042,-19.042,-19.043,-19.057,-19.053,-19.063,-19.036,-19.04,-19.05,-19.046,-19.06,-19.065,-19.05,-19.056,-19.05,-19.047,-19.059,-19.047,-19.061,-19.05,-19.06,-19.05,-19.044,-19.052,-19.056,-19.043,-19.019,-19.019,-19.009,-19.017,-19.002,-19.002,-18.975,-18.95,-18.911,-18.953,-18.973,-18.973,-18.99,-18.993,-19.018,-19.015,-19.013,-19.028,-19.056,-19.072,-19.084,-19.069,-19.075,-19.077,-19.089,-19.093,-19.078,-19.087,-19.09,-19.101,-19.084,-19.087,-19.082,-19.074,-19.091,-19.102,-19.101,-19.094,-19.102,-19.153,-19.168,-19.118,-18.945,-18.739,-18.495,-18.184,-17.82,-17.74,-18.012,-18.463,-18.878,-19.179,-19.208,-19.142,-19.089,-19.033,-19.01,-19.006,-19.02,-19.012,-19.032,-19.025,-19.028,-19.011,-19.005,-19.013,-19.01,-19.003,-19.01,-19.006,-19.006,-19.013,-18.989,-18.98,-18.983,-18.965,-18.973,-18.969,-18.966,-18.958,-18.963,-18.948,-18.947,-18.928,-18.935,-18.932,-18.921,-18.916,-18.875,-18.879,-18.859,-18.862,-18.854,-18.823,-18.829,-18.795,-18.797,-18.789,-18.754,-18.738,-18.728,-18.714,-18.692,-18.662,-18.649,-18.624,-18.618,-18.602,-18.59,-18.589,-18.577,-18.566,-18.563,-18.57,-18.558,-18.587,-18.632,-18.648,-18.687,-18.703,-18.752,-18.792,-18.841,-18.887,-18.9,-18.944,-18.961,-18.986,-19.001,-19.015,-19.025,-19.039,-19.049,-19.052,-19.049,-19.057,-19.059,-19.057,-19.075,-19.063,-19.067,-19.072,-19.062,-19.069,-19.066,-19.06,-19.063,-19.063,-19.059,-19.058,-19.051,-19.041,-19.051,-19.048,-19.042,-19.038,-19.039,-19.041,-19.052,-19.052,-19.05,-19.041,-19.039,-19.042,-19.051,-19.055,-19.047,-19.05,-19.049,-19.059,-19.052,-19.053,-19.063,-19.071,-19.075,-19.068,-19.071,-19.07,-19.077,-19.08,-19.071,-19.076,-19.076,-19.06,-19.08,-19.076,-19.076,-19.074,-19.082,-19.102,-19.079,-19.082,-19.076,-19.092,-19.09,-19.074,-19.075,-19.085,-19.076,-19.078,-19.081,-19.08,-19.078,-19.093,-19.087,-19.091,-19.085,-19.076,-19.09,-19.1,-19.094,-19.099,-19.087,-19.074,-19.086,-19.081,-19.081,-19.073,-19.075,-19.053,-19.07,-19.043,-19.036,-19.037,-19.022,-19.017,-18.975,-18.956,-18.983,-19.02,-19.035,-19.042,-19.04,-19.052,-19.046,-19.074,-19.085,-19.092,-19.104,-19.115,-19.132,-19.13,-19.128,-19.122,-19.129,-19.133,-19.139,-19.138,-19.133,-19.145,-19.137,-19.131,-19.122,-19.123,-19.131,-19.154,-19.193,-19.201,-19.195,-19.087,-18.911,-18.671,-18.411,-18.049,-17.774,-17.842,-18.229,-18.662,-19.032,-19.22,-19.217,-19.148,-19.056,-19.022,-19.016,-19.036,-19.056,-19.059,-19.029,-19.018,-19.022,-19.034,-19.026,-19.015,-19.005,-19.012,-19.007,-19.009,-18.992,-18.999,-19.004,-19.001,-18.996,-18.985,-18.975,-18.981,-18.97,-18.974,-18.973,-18.965,-18.959,-18.957,-18.943,-18.945,-18.931,-18.921,-18.917,-18.905,-18.879,-18.868,-18.861,-18.847,-18.855,-18.827,-18.81,-18.775,-18.782,-18.769,-18.749,-18.73,-18.706,-18.692,-18.673,-18.662,-18.643,-18.63,-18.629,-18.61,-18.631,-18.594,-18.603,-18.63,-18.627,-18.67,-18.69,-18.72,-18.771,-18.796,-18.843,-18.884,-18.909,-18.943,-18.968,-19.013,-19.046,-19.059,-19.093,-19.11,-19.101,-19.11,-19.1,-19.109,-19.124,-19.138,-19.142,-19.134,-19.137,-19.143,-19.137,-19.144,-19.142,-19.137,-19.135,-19.141,-19.134,-19.125,-19.145,-19.134,-19.152,-19.135,-19.141,-19.134,-19.151,-19.164,-19.153,-19.15,-19.151,-19.156,-19.163,-19.176,-19.177,-19.174,-19.175,-19.181,-19.194,-19.193,-19.188,-19.198,-19.188,-19.201,-19.198,-19.198,-19.197,-19.211,-19.206,-19.202,-19.209,-19.214,-19.207,-19.223,-19.229,-19.212,-19.217,-19.2,-19.204,-19.229,-19.205,-19.194,-19.193,-19.215,-19.207,-19.195,-19.184,-19.185,-19.188,-19.183,-19.19,-19.184,-19.182,-19.175,-19.174,-19.165,-19.175,-19.177,-19.182,-19.16,-19.165,-19.156,-19.153,-19.139,-19.134,-19.134,-19.108,-19.099,-19.103,-19.103,-19.069,-19.044,-19.011,-19.006,-19.043,-19.075,-19.088,-19.076,-19.081,-19.096,-19.104,-19.122,-19.15,-19.141,-19.162,-19.158,-19.148,-19.158,-19.15,-19.16,-19.147,-19.155,-19.156,-19.154,-19.155,-19.151,-19.153,-19.148,-19.157,-19.153,-19.148,-19.165,-19.2,-19.238,-19.194,-19.056,-18.826,-18.557,-18.249,-17.914,-17.834,-17.906,-18.313,-18.738,-19.129,-19.305,-19.275,-19.218,-19.137,-19.11,-19.08,-19.124,-19.098,-19.1,-19.091,-19.116,-19.108,-19.112,-19.092,-19.09,-19.08,-19.088,-19.082,-19.093,-19.071,-19.077,-19.07,-19.072,-19.049,-19.056,-19.042,-19.055,-19.047,-19.021,-19.026,-19.013,-19.015,-18.995,-18.978,-18.987,-18.969,-18.973,-18.961,-18.944,-18.928,-18.934,-18.913,-18.903,-18.888,-18.857,-18.838,-18.821,-18.816,-18.783,-18.768,-18.753,-18.744,-18.727,-18.706,-18.681,-18.676,-18.673,-18.662,-18.655,-18.648,-18.654,-18.642,-18.647,-18.669,-18.692,-18.722,-18.772,-18.814,-18.84,-18.87,-18.899,-18.935,-18.976,-19.003,-19.01,-19.047,-19.048,-19.073,-19.075,-19.08,-19.079,-19.1,-19.111,-19.116,-19.104,-19.104,-19.111,-19.125,-19.128,-19.124,-19.125,-19.115,-19.122,-19.124,-19.129,-19.134,-19.137,-19.137,-19.155,-19.156,-19.14,-19.145,-19.141,-19.149,-19.15,-19.148,-19.136,-19.145,-19.155,-19.171,-19.167,-19.171,-19.172,-19.162,-19.156,-19.158,-19.159,-19.166,-19.163,-19.172,-19.18,-19.18,-19.167,-19.182,-19.194,-19.188,-19.183,-19.192,-19.179,-19.192,-19.18,-19.163,-19.164,-19.167,-19.176,-19.177,-19.168,-19.154,-19.163,-19.164,-19.174,-19.159,-19.155,-19.156,-19.154,-19.149,-19.105,-19.114,-19.099,-19.099,-19.097,-19.083,-19.053,-19.011,-19.01,-19.029,-19.035,-19.036,-19.055,-19.07,-19.073,-19.072,-19.075,-19.087,-19.125,-19.134,-19.144,-19.149,-19.144,-19.148,-19.145,-19.147,-19.15,-19.17,-19.161,-19.181,-19.18,-19.17,-19.166,-19.17,-19.18,-19.186,-19.189,-19.172,-19.21,-19.266,-19.232,-19.103,-18.89,-18.631,-18.351,-17.981,-17.849,-17.993,-18.444,-18.878,-19.238,-19.297,-19.279,-19.23,-19.159,-19.126,-19.095,-19.089,-19.09,-19.116,-19.105,-19.124,-19.092,-19.086,-19.089,-19.103,-19.09,-19.085,-19.077,-19.093,-19.081,-19.082,-19.073,-19.056,-19.052,-19.06,-19.059,-19.048,-19.035,-19.049,-19.03,-19.022,-19.013,-18.996,-18.989,-19.004,-18.984,-18.982,-18.956,-18.938,-18.925,-18.922,-18.909,-18.897,-18.886,-18.874,-18.857,-18.843,-18.803,-18.779,-18.778,-18.755,-18.747,-18.718,-18.712,-18.692,-18.697,-18.666,-18.647,-18.65,-18.655,-18.654,-18.677,-18.674,-18.686,-18.708,-18.755,-18.798,-18.827,-18.861,-18.909,-18.955,-18.975,-19.013,-19.04,-19.056,-19.08,-19.099,-19.12,-19.121,-19.127,-19.13,-19.143,-19.144,-19.155,-19.146,-19.147,-19.151,-19.144,-19.157,-19.151,-19.149,-19.155,-19.15,-19.144,-19.137,-19.135,-19.147,-19.149,-19.136,-19.134,-19.125,-19.111,-19.122,-19.116,-19.126,-19.126,-19.12,-19.122,-19.123,-19.107,-19.109,-19.114,-19.117,-19.122,-19.11,-19.105,-19.115,-19.114,-19.114,-19.111,-19.102,-19.116,-19.123,-19.129,-19.116,-19.118,-19.123,-19.138,-19.138,-19.129,-19.122,-19.129,-19.131,-19.134,-19.137,-19.126,-19.124,-19.134,-19.138,-19.139,-19.135,-19.131,-19.132,-19.15,-19.141,-19.136,-19.135,-19.142,-19.158,-19.153,-19.139,-19.145,-19.137,-19.161,-19.15,-19.15,-19.142,-19.142,-19.153,-19.141,-19.126,-19.098,-19.111,-19.102,-19.104,-19.103,-19.092,-19.059,-19.03,-19.03,-19.036,-19.058,-19.072,-19.09,-19.085,-19.098,-19.105,-19.107,-19.14,-19.154,-19.163,-19.162,-19.162,-19.16,-19.171,-19.182,-19.166,-19.169,-19.169,-19.169,-19.178,-19.171,-19.161,-19.17,-19.165,-19.168,-19.172,-19.17,-19.181,-19.224,-19.255,-19.228,-19.136,-18.94,-18.714,-18.466,-18.089,-17.845,-17.883,-18.276,-18.727,-19.101,-19.285,-19.255,-19.211,-19.132,-19.096,-19.067,-19.099,-19.099,-19.105,-19.096,-19.091,-19.089,-19.101,-19.089,-19.094,-19.073,-19.076,-19.072,-19.082,-19.067,-19.059,-19.047,-19.057,-19.051,-19.054,-19.033,-19.037,-19.018,-19.021,-19.023,-19.012,-18.995,-18.999,-19.003,-18.999,-18.982,-18.969,-18.935,-18.948,-18.936,-18.913,-18.905,-18.896,-18.875,-18.864,-18.848,-18.823,-18.801,-18.789,-18.771,-18.766,-18.73,-18.708,-18.699,-18.689,-18.68,-18.664,-18.645,-18.642,-18.641,-18.627,-18.629,-18.628,-18.652,-18.679,-18.708,-18.732,-18.765,-18.78,-18.835,-18.875,-18.904,-18.945,-18.989,-18.994,-19.024,-19.026,-19.047,-19.059,-19.082,-19.095,-19.098,-19.089,-19.097,-19.097,-19.11,-19.097,-19.097,-19.09,-19.097,-19.106,-19.12,-19.099,-19.103,-19.095,-19.094,-19.096,-19.092,-19.087,-19.077,-19.088,-19.093,-19.084,-19.084,-19.072,-19.077,-19.082,-19.073,-19.075,-19.081,-19.097,-19.087,-19.083,-19.071,-19.083,-19.085,-19.084,-19.09,-19.081,-19.088,-19.079,-19.1,-19.086,-19.091,-19.101,-19.1,-19.108,-19.102,-19.089,-19.102,-19.099,-19.104,-19.098,-19.104,-19.097,-19.104,-19.109,-19.119,-19.11,-19.106,-19.099,-19.109,-19.11,-19.114,-19.092,-19.097,-19.113,-19.115,-19.114,-19.11,-19.114,-19.104,-19.115,-19.108,-19.103,-19.1,-19.117,-19.119,-19.111,-19.107,-19.108,-19.104,-19.113,-19.108,-19.11,-19.106,-19.118,-19.12,-19.121,-19.114,-19.116,-19.111,-19.111,-19.117,-19.11,-19.102,-19.115,-19.116,-19.122,-19.118,-19.114,-19.099,-19.083,-19.084,-19.077,-19.07,-19.063,-19.058,-19.06,-19.035,-19.001,-18.988,-18.984,-19.028,-19.044,-19.044,-19.061,-19.064,-19.075,-19.078,-19.105,-19.131,-19.124,-19.141,-19.136,-19.13,-19.125,-19.136,-19.136,-19.136,-19.146,-19.135,-19.143,-19.135,-19.136,-19.137,-19.139,-19.137,-19.153,-19.146,-19.142,-19.15,-19.182,-19.209,-19.146,-18.991,-18.769,-18.521,-18.398,-18.031,-17.834,-17.899,-18.291,-18.746,-19.12,-19.284,-19.226,-19.163,-19.082,-19.068,-19.052,-19.068,-19.061,-19.073,-19.062,-19.08,-19.065,-19.068,-19.043,-19.048,-19.044,-19.053,-19.04,-19.051,-19.039,-19.034,-19.03,-19.013,-19.004,-19.003,-18.993,-18.984,-18.978,-18.991,-18.993,-18.989,-18.97,-18.966,-18.951,-18.954,-18.95,-18.936,-18.922,-18.908,-18.893,-18.885,-18.869,-18.848,-18.843,-18.834,-18.817,-18.792,-18.762,-18.742,-18.73,-18.714,-18.705,-18.671,-18.657,-18.653,-18.654,-18.643,-18.629,-18.608,-18.592,-18.598,-18.594,-18.598,-18.612,-18.629,-18.659,-18.693,-18.724,-18.762,-18.796,-18.853,-18.891,-18.925,-18.934,-18.955,-18.984,-19.01,-19.024,-19.032,-19.045,-19.059,-19.077,-19.076,-19.073,-19.065,-19.065,-19.078,-19.079,-19.074,-19.081,-19.081,-19.091,-19.076,-19.079,-19.071,-19.072,-19.065,-19.072,-19.068,-19.059,-19.061,-19.069,-19.067,-19.064,-19.061,-19.059,-19.056,-19.058,-19.05,-19.048,-19.051,-19.062,-19.065,-19.071,-19.059,-19.057,-19.063,-19.069,-19.073,-19.078,-19.062,-19.063,-19.074,-19.076,-19.068,-19.083,-19.08,-19.08,-19.076,-19.078,-19.075,-19.075,-19.092,-19.088,-19.087,-19.079,-19.072,-19.074,-19.073,-19.089,-19.074,-19.072,-19.088,-19.095,-19.097,-19.064,-19.078,-19.074,-19.094,-19.083,-19.08,-19.084,-19.077,-19.073,-19.09,-19.083,-19.065,-19.077,-19.072,-19.079,-19.087,-19.085,-19.079,-19.085,-19.084,-19.077,-19.074,-19.08,-19.087,-19.089,-19.074,-19.083,-19.091,-19.085,-19.088,-19.092,-19.081,-19.07,-19.074,-19.083,-19.083,-19.048,-19.037,-19.042,-19.041,-19.033,-19.028,-19.011,-18.983,-18.952,-18.968,-18.968,-18.988,-19.012,-19.011,-19.029,-19.031,-19.036,-19.042,-19.067,-19.092,-19.088,-19.094,-19.106,-19.107,-19.095,-19.093,-19.104,-19.099,-19.109,-19.114,-19.111,-19.109,-19.103,-19.106,-19.112,-19.108,-19.096,-19.108,-19.106,-19.142,-19.185,-19.163,-19.057,-18.866,-18.638,-18.377,-18.005,-17.807,-17.87,-18.291,-18.72,-19.093,-19.243,-19.216,-19.187,-19.109,-19.054,-19.017,-19.029,-19.023,-19.037,-19.017,-19.031,-19.023,-19.04,-19.021,-19.018,-19.02,-19.024,-19.012,-19.006,-19.005,-18.983,-18.985,-19.002,-18.984,-18.978,-18.966,-18.972,-18.964,-18.963,-18.956,-18.945,-18.941,-18.942,-18.931,-18.94,-18.901,-18.89,-18.876,-18.883,-18.876,-18.852,-18.844,-18.835,-18.833,-18.817,-18.797,-18.768,-18.75,-18.737,-18.73,-18.702,-18.681,-18.665,-18.653,-18.65,-18.626,-18.62,-18.61,-18.598,-18.596,-18.577,-18.57,-18.573,-18.593,-18.612,-18.644,-18.647,-18.687,-18.722,-18.773,-18.823,-18.848,-18.876,-18.91,-18.94,-18.964,-18.983,-18.997,-19.01,-19.03,-19.045,-19.045,-19.046,-19.04,-19.04,-19.059,-19.069,-19.059,-19.05,-19.06,-19.065,-19.057,-19.042,-19.045,-19.052,-19.046,-19.046,-19.037,-19.035,-19.046,-19.031,-19.036,-19.035,-19.037,-19.028,-19.042,-19.041,-19.024,-19.023,-19.029,-19.031,-19.033,-19.038,-19.028,-19.028,-19.039,-19.04,-19.029,-19.038,-19.04,-19.052,-19.06,-19.046,-19.036,-19.048,-19.049,-19.061,-19.057,-19.05,-19.057,-19.06,-19.062,-19.062,-19.061,-19.062,-19.069,-19.066,-19.067,-19.063,-19.059,-19.065,-19.075,-19.074,-19.063,-19.059,-19.07,-19.074,-19.079,-19.062,-19.059,-19.064,-19.07,-19.065,-19.063,-19.065,-19.062,-19.077,-19.07,-19.06,-19.058,-19.064,-19.059,-19.079,-19.072,-19.051,-19.049,-19.045,-19.04,-19.031,-19.03,-19.02,-19.026,-19.006,-18.96,-18.933,-18.944,-18.984,-19.006,-18.995,-19.002,-19.016,-19.013,-19.029,-19.048,-19.065,-19.078,-19.085,-19.098,-19.094,-19.086,-19.084,-19.079,-19.084,-19.088,-19.098,-19.083,-19.085,-19.099,-19.092,-19.091,-19.083,-19.082,-19.089,-19.097,-19.132,-19.184,-19.166,-19.065,-18.876,-18.633,-18.364,-17.987,-17.787,-17.824,-18.229,-18.661,-19.052,-19.221,-19.194,-19.132,-19.059,-19.03,-19.002,-19.023,-19.03,-19.034,-19.013,-19.018,-19.007,-19.025,-19.005,-19.016,-19.01,-19.012,-19.015,-19.002,-18.98,-18.978,-18.979,-18.99,-18.973,-18.978,-18.97,-18.963,-18.956,-18.95,-18.939,-18.942,-18.936,-18.944,-18.923,-18.913,-18.906,-18.902,-18.893,-18.886,-18.865,-18.849,-18.852,-18.83,-18.816,-18.809,-18.776,-18.769,-18.754,-18.732,-18.713,-18.685,-18.664,-18.666,-18.638,-18.627,-18.614,-18.601,-18.601,-18.584,-18.58,-18.567,-18.568,-18.576,-18.603,-18.614,-18.64,-18.661,-18.698,-18.732,-18.777,-18.804,-18.843,-18.881,-18.927,-18.956,-18.953,-18.974,-18.996,-19.019,-19.03,-19.028,-19.035,-19.048,-19.055,-19.051,-19.046,-19.047,-19.04,-19.049,-19.058,-19.044,-19.034,-19.041,-19.035,-19.047,-19.042,-19.041,-19.037,-19.043,-19.051,-19.036,-19.026,-19.019,-19.034,-19.03,-19.035,-19.025,-19.023,-19.013,-19.034,-19.029,-19.019,-19.012,-19.021,-19.023,-19.026,-19.026,-19.029,-19.029,-19.034,-19.028,-19.039,-19.029,-19.024,-19.028,-19.038,-19.035,-19.022,-19.04,-19.046,-19.043,-19.044,-19.033,-19.035,-19.043,-19.05,-19.045,-19.037,-19.028,-19.037,-19.048,-19.034,-19.044,-19.042,-19.039,-19.042,-19.052,-19.053,-19.047,-19.047,-19.05,-19.055,-19.033,-19.034,-19.045,-19.057,-19.054,-19.048,-19.046,-19.044,-19.044,-19.04,-19.05,-19.042,-19.046,-19.054,-19.063,-19.048,-19.028,-19.003,-19.009,-19.012,-18.999,-18.983,-18.98,-18.949,-18.915,-18.935,-18.943,-18.968,-18.989,-18.995,-18.996,-18.999,-18.992,-19.008,-19.028,-19.051,-19.057,-19.06,-19.067,-19.078,-19.075,-19.066,-19.059,-19.061,-19.074,-19.069,-19.074,-19.062,-19.069,-19.069,-19.078,-19.069,-19.065,-19.064,-19.085,-19.125,-19.146,-19.071,-18.902,-18.69,-18.443,-18.117,-17.785,-17.743,-18.055,-18.518,-18.919,-19.18,-19.19,-19.115,-19.068,-18.991,-18.97,-18.973,-19.002,-19.008,-19.01,-19.01,-18.999,-18.996,-19.006,-19.003,-18.987,-18.969,-18.974,-18.976,-18.979,-18.961,-18.965,-18.967,-18.963,-18.942,-18.945,-18.942,-18.931,-18.936,-18.927,-18.925,-18.922,-18.912,-18.907,-18.902,-18.894,-18.87,-18.862,-18.853,-18.854,-18.836,-18.822,-18.799,-18.786,-18.784,-18.769,-18.745,-18.729,-18.707,-18.694,-18.678,-18.648,-18.625,-18.613,-18.612,-18.592,-18.579,-18.551,-18.559,-18.544,-18.532,-18.526,-18.527,-18.551,-18.571,-18.581,-18.607,-18.642,-18.668,-18.714,-18.767,-18.814,-18.832,-18.866,-18.893,-18.933,-18.954,-18.959,-18.971,-18.981,-19.005,-19.013,-19.009,-19.007,-19.002,-19.013,-19.025,-19.024,-19.024,-19.022,-19.036,-19.036,-19.036,-19.019,-19.02,-19.024,-19.021,-19.014,-19.007,-19.003,-19.013,-19.016,-18.998,-18.998,-19.003,-18.994,-19.008,-19.009,-19.003,-19.006,-19.009,-19.016,-19.006,-18.998,-18.997,-18.998,-19.007,-19.012,-19.013,-18.997,-18.998,-19.008,-19.016,-19.001,-19.009,-19.009,-19.014,-19.026,-19.027,-19,-19.005,-19.009,-19.011,-19.019,-19.019,-19.009,-19.022,-19.026,-19.024,-19.022,-19.023,-19.034,-19.033,-19.027,-19.015,-19.011,-19.015,-19.027,-19.031,-19.021,-19.021,-19.026,-19.042,-19.035,-19.034,-19.022,-19.035,-19.041,-19.035,-19.022,-19.04,-19.041,-19.048,-19.044,-19.039,-19.034,-19.041,-19.05,-19.058,-19.052,-19.034,-19.027,-19.041,-19.042,-19.047,-19.032,-19.03,-19.043,-19.04,-19.049,-19.033,-19.045,-19.052,-19.044,-19.015,-19.013,-19.005,-19.013,-19.021,-19.003,-18.985,-18.962,-18.94,-18.92,-18.936,-18.961,-18.965,-18.986,-18.997,-18.999,-18.993,-19.02,-19.026,-19.06,-19.076,-19.075,-19.058,-19.072
