-8.2014,-8.202,-8.2009,-8.1984,-8.1997,-8.1979,-8.1928,-8.1923,-8.1977,-8.1919,-8.1972,-8.1875,-8.191,-8.1859,-8.1868,-8.1867,-8.1829,-8.1867,-8.1889,-8.1847,-8.1899,-8.185,-8.1828,-8.1836,-8.1803,-8.1769,-8.1833,-8.1798,-8.1771,-8.168,-8.1718,-8.1577,-8.1438,-8.134,-8.1311,-8.1303,-8.1224,-8.1009,-8.08,-8.0537,-8.0505,-8.0693,-8.0659,-8.0698,-8.0817,-8.089,-8.0826,-8.0938,-8.1228,-8.1508,-8.1531,-8.1561,-8.1548,-8.1495,-8.1511,-8.1476,-8.1417,-8.1433,-8.1503,-8.1424,-8.1398,-8.1423,-8.1378,-8.1382,-8.1424,-8.1633,-8.2033,-8.223,-8.1673,-7.9875,-7.7393,-7.4836,-7.263,-7.3497,-7.6426,-7.6992,-7.8296,-8.0754,-8.2382,-8.2522,-8.2924,-8.2465,-8.1575,-8.112,-8.078,-8.0689,-8.0633,-8.0713,-8.0643,-8.0647,-8.0504,-8.0491,-8.0362,-8.0295,-8.025,-8.0272,-8.0072,-8.01,-7.9983,-7.9911,-7.9903,-7.9796,-7.9701,-7.9736,-7.9648,-7.9598,-7.9435,-7.9336,-7.9182,-7.9058,-7.896,-7.8859,-7.8753,-7.8552,-7.8403,-7.8245,-7.8087,-7.7852,-7.7562,-7.7336,-7.7096,-7.6925,-7.67,-7.6513,-7.6314,-7.6162,-7.6036,-7.5898,-7.5797,-7.5775,-7.576,-7.5846,-7.5809,-7.5921,-7.5983,-7.6272,-7.6545,-7.6901,-7.7322,-7.7648,-7.7956,-7.8398,-7.8706,-7.9008,-7.9295,-7.9564,-7.9773,-7.9846,-8.0044,-8.0153,-8.024,-8.0373,-8.0408,-8.042,-8.0456,-8.0485,-8.0483,-8.0544,-8.0605,-8.0546,-8.0573,-8.0597,-8.048,-8.0501,-8.0453,-8.0485,-8.0464,-8.0366,-8.0372,-8.035,-8.0343,-8.0389,-8.0327,-8.0272,-8.0255,-8.0227,-8.0164,-8.017,-8.0155,-8.0152,-8.0108,-8.0108,-8.007,-7.9936,-7.9984,-8.0031,-7.997,-7.9988,-7.9991,-7.9925,-7.9924,-7.9851,-7.9872,-7.9935,-7.9931,-7.9923,-7.995,-7.9999,-8.0038,-7.9942,-7.9948,-7.9886,-7.9884,-7.9852,-7.9858,-7.9874,-7.9899,-7.9884,-7.9894,-7.9824,-7.9801,-7.9932,-7.9941,-7.9939,-7.992,-7.9898,-7.9868,-7.9923,-7.9888,-7.9881,-7.9957,-8.0075,-8.0084,-8.0053,-8.0041,-8.005,-8.0016,-7.9984,-8.0054,-8.0081,-8.0051,-8.0002,-8.0058,-7.9982,-7.998,-7.9983,-7.9976,-8.0001,-7.9977,-7.9909,-7.9984,-7.9886,-7.9886,-7.9867,-7.9862,-7.986,-7.9863,-7.9876,-7.9837,-7.9898,-7.9913,-7.9881,-7.9935,-7.9918,-7.9773,-7.9772,-7.9785,-7.9709,-7.9629,-7.9505,-7.9542,-7.9469,-7.9301,-7.9092,-7.8929,-7.8943,-7.9055,-7.9165,-7.9142,-7.9244,-7.9365,-7.9476,-7.9572,-7.968,-7.9961,-8.0153,-8.0219,-8.0233,-8.0229,-8.0177,-8.0247,-8.0284,-8.0269,-8.0225,-8.0252,-8.0319,-8.0273,-8.036,-8.041,-8.0351,-8.055,-8.1042,-8.1322,-8.0786,-8.0005,-7.7602,-7.5048,-7.2405,-7.1416,-7.4022,-7.604,-7.7907,-8.0142,-8.1125,-8.0708,-8.1484,-8.1721,-8.1097,-8.0642,-8.0128,-7.996,-7.9821,-7.9879,-7.9922,-7.9892,-7.977,-7.9736,-7.9684,-7.9561,-7.9532,-7.9407,-7.9325,-7.9274,-7.9223,-7.9174,-7.9124,-7.9074,-7.9019,-7.8925,-7.8844,-7.8789,-7.8792,-7.874,-7.8638,-7.8489,-7.8237,-7.8231,-7.8182,-7.8053,-7.7896,-7.7713,-7.7571,-7.7373,-7.7175,-7.6966,-7.6808,-7.6566,-7.6331,-7.62,-7.6009,-7.5851,-7.5743,-7.5646,-7.5581,-7.5521,-7.546,-7.5493,-7.5549,-7.5667,-7.5846,-7.6154,-7.6503,-7.6812,-7.7249,-7.7644,-7.8014,-7.846,-7.8736,-7.8999,-7.9329,-7.9557,-7.9761,-7.9813,-7.9993,-8.0089,-8.0182,-8.03,-8.0386,-8.0453,-8.0472,-8.0473,-8.0515,-8.0529,-8.0577,-8.0623,-8.0631,-8.0654,-8.069,-8.0665,-8.0574,-8.0567,-8.0549,-8.0514,-8.0482,-8.0509,-8.0479,-8.0445,-8.0452,-8.0427,-8.0456,-8.0449,-8.0417,-8.0416,-8.0368,-8.0278,-8.0271,-8.0348,-8.0293,-8.0327,-8.0325,-8.0432,-8.042,-8.0408,-8.047,-8.0533,-8.0543,-8.0516,-8.048,-8.0539,-8.0612,-8.0675,-8.0732,-8.076,-8.0794,-8.0824,-8.084,-8.0861,-8.0881,-8.089,-8.0923,-8.0947,-8.0949,-8.0955,-8.103,-8.1067,-8.109,-8.1135,-8.1152,-8.1159,-8.1189,-8.1134,-8.1221,-8.1275,-8.1286,-8.1345,-8.1321,-8.1325,-8.1376,-8.134,-8.1373,-8.1368,-8.1387,-8.1432,-8.1488,-8.1466,-8.1481,-8.1491,-8.1542,-8.1547,-8.1528,-8.1538,-8.1477,-8.1541,-8.1565,-8.1614,-8.16,-8.1634,-8.1595,-8.1549,-8.1629,-8.1627,-8.1647,-8.1646,-8.166,-8.1674,-8.1616,-8.1675,-8.1698,-8.1751,-8.1706,-8.1809,-8.1855,-8.1818,-8.188,-8.183,-8.1861,-8.1875,-8.1844,-8.1822,-8.1839,-8.1784,-8.1681,-8.1585,-8.1473,-8.1562,-8.151,-8.1316,-8.1193,-8.0947,-8.0945,-8.1133,-8.1115,-8.127,-8.1431,-8.1475,-8.1465,-8.1573,-8.1793,-8.2113,-8.2199,-8.2225,-8.229,-8.236,-8.2413,-8.2389,-8.2367,-8.2328,-8.2351,-8.241,-8.2334,-8.2333,-8.2352,-8.2392,-8.2464,-8.2664,-8.3129,-8.3269,-8.2428,-8.0439,-7.7926,-7.5339,-7.329,-7.3349,-7.6508,-7.7716,-7.9038,-8.2292,-8.3733,-8.4051,-8.4095,-8.3221,-8.2547,-8.2154,-8.2,-8.1975,-8.1866,-8.198,-8.1909,-8.193,-8.1878,-8.1841,-8.1789,-8.1823,-8.1718,-8.1634,-8.1551,-8.1473,-8.1363,-8.1351,-8.1263,-8.1217,-8.1098,-8.1075,-8.0984,-8.0921,-8.0719,-8.0706,-8.0623,-8.0536,-8.038,-8.0227,-8.0156,-8.0036,-7.9839,-7.9677,-7.9422,-7.9246,-7.9066,-7.8893,-7.8672,-7.8474,-7.828,-7.8107,-7.7933,-7.7766,-7.7643,-7.7537,-7.7436,-7.7399,-7.7486,-7.7527,-7.7544,-7.7658,-7.7827,-7.811,-7.8407,-7.8761,-7.9236,-7.9634,-8.0056,-8.0444,-8.0757,-8.1034,-8.1342,-8.1524,-8.1762,-8.1924,-8.1969,-8.2121,-8.2227,-8.2265,-8.2306,-8.2307,-8.2368,-8.2378,-8.2478,-8.2464,-8.245,-8.2459,-8.2509,-8.2521,-8.247,-8.2379,-8.2451,-8.2444,-8.2411,-8.2369,-8.2368,-8.2388,-8.2504,-8.2469,-8.237,-8.2393,-8.238,-8.2374,-8.2343,-8.2281,-8.2239,-8.2196,-8.2232,-8.2167,-8.2133,-8.2139,-8.2108,-8.2069,-8.2032,-8.2042,-8.2019,-8.1991,-8.207,-8.2049,-8.2042,-8.2022,-8.2021,-8.1952,-8.1989,-8.2084,-8.2118,-8.201,-8.2044,-8.2103,-8.2154,-8.2145,-8.2156,-8.2192,-8.2135,-8.2157,-8.2128,-8.2159,-8.2228,-8.2227,-8.2207,-8.2179,-8.2197,-8.2256,-8.2316,-8.2322,-8.2345,-8.2311,-8.2245,-8.2286,-8.229,-8.24,-8.242,-8.2391,-8.2409,-8.2423,-8.2439,-8.2402,-8.2419,-8.2429,-8.2419,-8.2433,-8.2392,-8.247,-8.2477,-8.2515,-8.2467,-8.2468,-8.2379,-8.2453,-8.2513,-8.2436,-8.2461,-8.2465,-8.2588,-8.2494,-8.2513,-8.2582,-8.2587,-8.2585,-8.2532,-8.2565,-8.2577,-8.2548,-8.256,-8.2558,-8.2585,-8.2581,-8.2521,-8.2585,-8.2604,-8.2609,-8.2657,-8.2632,-8.2644,-8.2689,-8.2646,-8.2708,-8.2706,-8.2756,-8.2776,-8.2822,-8.2804,-8.2787,-8.2773,-8.2752,-8.2643,-8.2448,-8.2544,-8.2476,-8.2345,-8.209,-8.1854,-8.182,-8.2019,-8.2026,-8.2111,-8.2253,-8.2286,-8.2269,-8.2269,-8.2513,-8.2895,-8.3134,-8.3078,-8.3143,-8.3162,-8.3193,-8.3179,-8.3175,-8.3201,-8.3291,-8.3157,-8.3198,-8.327,-8.3236,-8.3274,-8.3348,-8.3492,-8.35,-8.4035,-8.4151,-8.3023,-8.0752,-7.8334,-7.5664,-7.4166,-7.7105,-7.888,-8.0053,-8.2656,-8.4574,-8.4951,-8.5217,-8.4645,-8.3744,-8.3363,-8.3084,-8.3133,-8.2935,-8.3001,-8.2934,-8.302,-8.2828,-8.2882,-8.2728,-8.2777,-8.2629,-8.2563,-8.2497,-8.2426,-8.2279,-8.221,-8.2114,-8.2094,-8.1981,-8.1923,-8.1847,-8.1756,-8.1684,-8.1611,-8.1502,-8.141,-8.1307,-8.1172,-8.1005,-8.091,-8.0744,-8.0592,-8.0339,-8.0148,-8.0057,-7.9712,-7.9393,-7.9207,-7.9048,-7.8864,-7.8771,-7.864,-7.8494,-7.8355,-7.8289,-7.8221,-7.8111,-7.8107,-7.8121,-7.8201,-7.831,-7.863,-7.8931,-7.9285,-7.9684,-8.0055,-8.0418,-8.0794,-8.1182,-8.1525,-8.1829,-8.1989,-8.2196,-8.2469,-8.2651,-8.2716,-8.2882,-8.2938,-8.3027,-8.3021,-8.3119,-8.3158,-8.3182,-8.3233,-8.3287,-8.3408,-8.3414,-8.3456,-8.3445,-8.34,-8.3458,-8.3434,-8.3421,-8.3384,-8.3393,-8.343,-8.3447,-8.3397,-8.3303,-8.3294,-8.33,-8.3236,-8.3235,-8.318,-8.3161,-8.3115,-8.3133,-8.3141,-8.313,-8.3121,-8.3143,-8.312,-8.3126,-8.3123,-8.3164,-8.3158,-8.3165,-8.3173,-8.3166,-8.3123,-8.3155,-8.3157,-8.3211,-8.3186,-8.3231,-8.3228,-8.3261,-8.3272,-8.3252,-8.3182,-8.3201,-8.3205,-8.3288,-8.3234,-8.3208,-8.3235,-8.3271,-8.3228,-8.3259,-8.325,-8.3214,-8.3288,-8.3303,-8.3259,-8.3213,-8.3249,-8.3296,-8.3252,-8.3192,-8.3242,-8.321,-8.3248,-8.3253,-8.328,-8.3242,-8.3227,-8.321,-8.3232,-8.3182,-8.3227,-8.3193,-8.3224,-8.3157,-8.3123,-8.313,-8.3175,-8.3125,-8.3167,-8.3149,-8.3128,-8.3079,-8.3096,-8.3046,-8.3015,-8.3012,-8.2989,-8.3011,-8.2991,-8.2979,-8.2952,-8.2905,-8.2902,-8.2858,-8.2877,-8.2826,-8.2821,-8.2761,-8.2848,-8.2872,-8.2781,-8.2783,-8.2825,-8.2843,-8.2811,-8.2814,-8.2778,-8.2749,-8.2757,-8.2764,-8.2765,-8.275,-8.2669,-8.2667,-8.2546,-8.2443,-8.2329,-8.2258,-8.2196,-8.2022,-8.1864,-8.1689,-8.1431,-8.1439,-8.1619,-8.1567,-8.158,-8.1745,-8.1771,-8.182,-8.1931,-8.2222,-8.2489,-8.2602,-8.261,-8.2617,-8.2607,-8.2582,-8.2532,-8.2583,-8.2602,-8.26,-8.2582,-8.2581,-8.261,-8.2624,-8.2581,-8.2666,-8.2849,-8.3276,-8.3499,-8.2799,-8.0945,-7.8398,-7.5891,-7.3757,-7.5184,-7.7874,-7.9143,-8.0729,-8.2491,-8.3878,-8.393,-8.4292,-8.3699,-8.2929,-8.2401,-8.2087,-8.2018,-8.1941,-8.2062,-8.1979,-8.1911,-8.1793,-8.1834,-8.1694,-8.1744,-8.1597,-8.1595,-8.1509,-8.1463,-8.1275,-8.1242,-8.1128,-8.116,-8.1101,-8.1068,-8.0975,-8.09,-8.0785,-8.0703,-8.0562,-8.0444,-8.0336,-8.0147,-7.9992,-7.9833,-7.9617,-7.9483,-7.9182,-7.9031,-7.8919,-7.8653,-7.8397,-7.8185,-7.8046,-7.7839,-7.7599,-7.7432,-7.7247,-7.7175,-7.714,-7.7057,-7.6994,-7.7033,-7.7125,-7.7182,-7.7428,-7.7737,-7.8098,-7.8204,-7.8627,-7.9029,-7.9389,-7.9752,-8.0057,-8.0395,-8.0634,-8.0893,-8.1109,-8.1196,-8.1395,-8.146,-8.1531,-8.1643,-8.1705,-8.1756,-8.1747,-8.1818,-8.1809,-8.1861,-8.1839,-8.1891,-8.1872,-8.1881,-8.1822,-8.1743,-8.1752,-8.1704,-8.1777,-8.1681,-8.1684,-8.1661,-8.1625,-8.1578,-8.1528,-8.1616,-8.1607,-8.1585,-8.1523,-8.1475,-8.1588,-8.1459,-8.1605,-8.1702,-8.1637,-8.1571,-8.148,-8.1484,-8.1517,-8.1503,-8.1541,-8.1578,-8.1533,-8.1498,-8.1535,-8.1543,-8.1575,-8.1623,-8.1575,-8.1557,-8.1534,-8.152,-8.1483,-8.1489,-8.1457,-8.1398,-8.1492,-8.1432,-8.148,-8.1439,-8.144,-8.1367,-8.1422,-8.1392,-8.1547,-8.1518,-8.149,-8.1543,-8.1562,-8.1509,-8.1506,-8.156,-8.1481,-8.1468,-8.1478,-8.1523,-8.1521,-8.15,-8.1503,-8.1495,-8.1502,-8.1524,-8.1444,-8.1458,-8.1428,-8.1473,-8.1386,-8.1366,-8.1307,-8.1393,-8.1365,-8.1323,-8.1336,-8.1385,-8.1346,-8.1416,-8.152,-8.1509,-8.1474,-8.1511,-8.1421,-8.1473,-8.142,-8.1319,-8.1258,-8.1183,-8.1169,-8.0924,-8.0908,-8.0933,-8.0715,-8.0637,-8.0799,-8.0772,-8.0716,-8.0793,-8.0912,-8.0959,-8.1073,-8.1259,-8.1618,-8.169,-8.1833,-8.181,-8.1861,-8.1848,-8.1814,-8.1885,-8.1904,-8.1936,-8.1884,-8.1809,-8.1805,-8.186,-8.1784,-8.1928,-8.1962,-8.2369,-8.2679,-8.2329,-8.0768,-7.813,-7.5575,-7.3305,-7.325,-7.6127,-7.8128,-7.9867,-7.9963,-8.2275,-8.2042,-8.2359,-8.3335,-8.2481,-8.213,-8.1373,-8.1294,-8.0997,-8.1162,-8.101,-8.1095,-8.0962,-8.1029,-8.0809,-8.0958,-8.0719,-8.0757,-8.0552,-8.0652,-8.0427,-8.0572,-8.0398,-8.0409,-8.0226,-8.0274,-8.0103,-8.0083,-7.9885,-7.9948,-7.968,-7.9603,-7.9549,-7.9494,-7.9353,-7.9213,-7.9043,-7.8867,-7.8763,-7.8564,-7.8388,-7.8143,-7.791,-7.7787,-7.7539,-7.74,-7.7245,-7.7085,-7.6895,-7.6834,-7.6776,-7.6735,-7.6699,-7.6729,-7.6816,-7.6956,-7.7235,-7.7473,-7.7643,-7.8079,-7.8488,-7.8834,-7.9224,-7.9547,-7.9875,-8.0167,-8.0548,-8.0692,-8.0907,-8.1079,-8.1282,-8.1273,-8.1438,-8.1523,-8.1623,-8.167,-8.1711,-8.1681,-8.1738,-8.1729,-8.1875,-8.1899,-8.196,-8.1955,-8.1966,-8.1941,-8.2049,-8.1994,-8.1992,-8.1905,-8.1969,-8.194,-8.1969,-8.1878,-8.1951,-8.1852,-8.1917,-8.1854,-8.1945,-8.1889,-8.1853,-8.177,-8.1798,-8.1733,-8.1787,-8.178,-8.1755,-8.1717,-8.1729,-8.1727,-8.1709,-8.1701,-8.1757,-8.1784,-8.1818,-8.1798,-8.1879,-8.1851,-8.1872,-8.1937,-8.1899,-8.1982,-8.1959,-8.1986,-8.1997,-8.2093,-8.2124,-8.2084,-8.2107,-8.2052,-8.2116,-8.2113,-8.216,-8.2139,-8.2216,-8.2213,-8.2244,-8.2227,-8.2226,-8.228,-8.2341,-8.229,-8.2317,-8.2285,-8.2315,-8.2323,-8.238,-8.239,-8.2358,-8.238,-8.2414,-8.2439,-8.2466,-8.2424,-8.2519,-8.2528,-8.2509,-8.2567,-8.2555,-8.2547,-8.2535,-8.2619,-8.2609,-8.2562,-8.243,-8.247,-8.2282,-8.2254,-8.2286,-8.2263,-8.2136,-8.2091,-8.1861,-8.1736,-8.1806,-8.1904,-8.1913,-8.1959,-8.2032,-8.2204,-8.2141,-8.226,-8.2441,-8.2865,-8.3035,-8.3115,-8.3079,-8.3019,-8.3125,-8.317,-8.3161,-8.3168,-8.3235,-8.3253,-8.3205,-8.3189,-8.3253,-8.3239,-8.3334,-8.3606,-8.3963,-8.419,-8.3384,-8.148,-7.8948,-7.6408,-7.4399,-7.5823,-7.7962,-7.9174,-8.122,-8.4215,-8.501,-8.5238,-8.5007,-8.3976,-8.352,-8.3227,-8.3158,-8.3029,-8.3111,-8.3045,-8.3134,-8.3053,-8.3048,-8.2977,-8.2973,-8.2897,-8.2943,-8.2845,-8.2818,-8.2684,-8.2658,-8.2611,-8.2647,-8.2564,-8.2523,-8.2449,-8.2392,-8.2255,-8.2168,-8.2109,-8.1969,-8.1867,-8.1815,-8.1709,-8.1561,-8.1458,-8.1221,-8.1092,-8.0922,-8.0718,-8.0557,-8.0333,-8.0176,-7.9992,-7.977,-7.9644,-7.9505,-7.937,-7.9243,-7.906,-7.9033,-7.9006,-7.8969,-7.8958,-7.9083,-7.9263,-7.959,-7.9862,-8.0204,-8.0634,-8.1072,-8.1525,-8.1858,-8.2159,-8.2491,-8.2647,-8.2979,-8.3239,-8.339,-8.3549,-8.3667,-8.3787,-8.391,-8.3994,-8.3989,-8.4124,-8.4187,-8.416,-8.4183,-8.4284,-8.426,-8.4232,-8.432,-8.4291,-8.4257,-8.4283,-8.4298,-8.4233,-8.423,-8.4226,-8.4238,-8.4227,-8.4143,-8.4197,-8.4159,-8.4144,-8.4128,-8.4091,-8.3946,-8.3973,-8.3986,-8.3929,-8.3885,-8.391,-8.385,-8.3846,-8.3823,-8.3905,-8.3897,-8.3856,-8.382,-8.3851,-8.3879,-8.3908,-8.3908,-8.3866,-8.3926,-8.3947,-8.3974,-8.3963,-8.3947,-8.3972,-8.3964,-8.4018,-8.3986,-8.3999,-8.3975,-8.3997,-8.4039,-8.3997,-8.3977,-8.3967,-8.3951,-8.3988,-8.4027,-8.4073,-8.4053,-8.4003,-8.4027,-8.4034,-8.401,-8.4041,-8.4043,-8.4046,-8.4072,-8.4006,-8.4069,-8.4042,-8.4007,-8.41,-8.4064,-8.4056,-8.4051,-8.4101,-8.4035,-8.4023,-8.4022,-8.4085,-8.4083,-8.4058,-8.4059,-8.4049,-8.4102,-8.4041,-8.4117,-8.4042,-8.4046,-8.4087,-8.4094,-8.407,-8.4084,-8.404,-8.4044,-8.4082,-8.4044,-8.4044,-8.4024,-8.4059,-8.4172,-8.417,-8.4111,-8.4025,-8.3961,-8.3924,-8.389,-8.3755,-8.3626,-8.3674,-8.3611,-8.3399,-8.3203,-8.2972,-8.3049,-8.3205,-8.3166,-8.3239,-8.3374,-8.3461,-8.3547,-8.357,-8.3912,-8.4111,-8.4212,-8.4227,-8.4221,-8.422,-8.4293,-8.4187,-8.4251,-8.4258,-8.4253,-8.42,-8.4218,-8.4199,-8.4246,-8.4194,-8.4238,-8.4424,-8.4814,-8.5068,-8.4476,-8.2866,-8.0264,-7.9052,-7.6515,-7.4948,-7.7791,-7.9403,-8.0624,-8.3254,-8.5338,-8.5671,-8.5942,-8.5264,-8.4412,-8.395,-8.3745,-8.3711,-8.3618,-8.3687,-8.3599,-8.3662,-8.359,-8.3605,-8.3572,-8.3543,-8.3339,-8.3328,-8.3197,-8.3098,-8.3019,-8.3036,-8.2905,-8.2862,-8.2762,-8.2669,-8.2616,-8.2536,-8.2398,-8.2288,-8.2079,-8.1943,-8.1807,-8.176,-8.1721,-8.1577,-8.1352,-8.1227,-8.0994,-8.0854,-8.0672,-8.0503,-8.0202,-8.0014,-7.9773,-7.9651,-7.9543,-7.935,-7.9149,-7.9037,-7.8961,-7.8861,-7.8842,-7.8855,-7.8875,-7.8979,-7.9209,-7.9423,-7.981,-8.0106,-8.0457,-8.0918,-8.1345,-8.171,-8.1975,-8.2331,-8.2552,-8.2772,-8.2984,-8.3122,-8.3318,-8.3401,-8.3553,-8.359,-8.3616,-8.3603,-8.3636,-8.3708,-8.3765,-8.3767,-8.3744,-8.3753,-8.3843,-8.3802,-8.371,-8.3723,-8.3684,-8.3639,-8.3601,-8.3614,-8.3586,-8.3571,-8.3513,-8.3516,-8.3471,-8.3468,-8.3391,-8.3358,-8.3313,-8.3226,-8.3244,-8.3125,-8.3104,-8.3117,-8.3073,-8.302,-8.2993,-8.2955,-8.2939,-8.2921,-8.2926,-8.2952,-8.2929,-8.29,-8.2873,-8.2876,-8.2917,-8.2916,-8.2882,-8.2866,-8.2891,-8.2942,-8.2954,-8.2926,-8.2895,-8.2923,-8.2907,-8.2884,-8.291,-8.3007,-8.2906,-8.2905,-8.2926,-8.2936,-8.2935,-8.2906,-8.2909,-8.2869,-8.2855,-8.2824,-8.2856,-8.2883,-8.2875,-8.2857,-8.2858,-8.2869,-8.2901,-8.278,-8.2846,-8.2856,-8.2848,-8.2841,-8.285,-8.2814,-8.2843,-8.2812,-8.2847,-8.2863,-8.2788,-8.2772,-8.2873,-8.2778,-8.2809,-8.2807,-8.2753,-8.2672,-8.2711,-8.2774,-8.2773,-8.2804,-8.2751,-8.2741,-8.2747,-8.2733,-8.2751,-8.2702,-8.2703,-8.2684,-8.2753,-8.2775,-8.2718,-8.2689,-8.2616,-8.2666,-8.2645,-8.2702,-8.2677,-8.2698,-8.2646,-8.2676,-8.2651,-8.2662,-8.2683,-8.2645,-8.2646,-8.2705,-8.2692,-8.2644,-8.2631,-8.2692,-8.2654,-8.263,-8.2572,-8.2474,-8.2408,-8.2323,-8.2319,-8.2324,-8.2086,-8.1932,-8.1733,-8.1532,-8.1578,-8.1751,-8.1812,-8.1831,-8.1972,-8.2109,-8.2047,-8.2149,-8.2393,-8.2675,-8.2833,-8.2881,-8.287,-8.2879,-8.2854,-8.2854,-8.2883,-8.2847,-8.2801,-8.2855,-8.293,-8.2918,-8.2904,-8.2894,-8.2892,-8.295,-8.3286,-8.3763,-8.3696,-8.2446,-8.0139,-7.7657,-7.5042,-7.3921,-7.7007,-7.8468,-7.9619,-8.2538,-8.4143,-8.4357,-8.4607,-8.442,-8.3413,-8.2973,-8.2574,-8.2601,-8.2582,-8.2518,-8.2497,-8.248,-8.2399,-8.2435,-8.2347,-8.2355,-8.2288,-8.2192,-8.2095,-8.2022,-8.1928,-8.1874,-8.1821,-8.1771,-8.1671,-8.1684,-8.1623,-8.1541,-8.1416,-8.1321,-8.1208,-8.1131,-8.0995,-8.0863,-8.077,-8.0585,-8.0435,-8.0261,-8.0117,-7.9885,-7.9745,-7.967,-7.9426,-7.9246,-7.9095,-7.8904,-7.8721,-7.8554,-7.8385,-7.8288,-7.8219,-7.8122,-7.8082,-7.8099,-7.8093,-7.8157,-7.8319,-7.8565,-7.8921,-7.9198,-7.9629,-7.9843,-8.0209,-8.0611,-8.0902,-8.1246,-8.1614,-8.1855,-8.2034,-8.2299,-8.249,-8.2599,-8.2736,-8.2836,-8.2894,-8.2896,-8.2952,-8.2953,-8.2983,-8.3015,-8.3066,-8.3064,-8.3032,-8.3043,-8.3074,-8.298,-8.2956,-8.2888,-8.29,-8.2903,-8.2844,-8.2805,-8.2757,-8.2748,-8.2703,-8.2708,-8.2655,-8.2621,-8.2561,-8.2477,-8.2545,-8.2543,-8.2411,-8.2337,-8.2358,-8.2294,-8.2292,-8.2277,-8.2228,-8.2227,-8.2178,-8.2219,-8.2202,-8.2172,-8.2146,-8.2176,-8.2137,-8.21,-8.2108,-8.2131,-8.2129,-8.2088,-8.2105,-8.211,-8.2047,-8.2107,-8.2086,-8.2026,-8.2035,-8.206,-8.2051,-8.2054,-8.2054,-8.2066,-8.2023,-8.2046,-8.1995,-8.1988,-8.2075,-8.2039,-8.2056,-8.202,-8.1973,-8.1979,-8.1976,-8.1936,-8.1871,-8.1889,-8.1891,-8.1889,-8.189,-8.185,-8.1841,-8.1863,-8.1783,-8.1816,-8.1796,-8.1785,-8.1812,-8.1746,-8.1742,-8.168,-8.1697,-8.1725,-8.1715,-8.1692,-8.1649,-8.1673,-8.164,-8.1581,-8.161,-8.1623,-8.1581,-8.155,-8.1653,-8.1642,-8.1525,-8.1571,-8.1613,-8.1582,-8.1555,-8.163,-8.1665,-8.1633,-8.1618,-8.1596,-8.1539,-8.1545,-8.1598,-8.1689,-8.169,-8.169,-8.17,-8.1648,-8.1663,-8.172,-8.1706,-8.1743,-8.1744,-8.1702,-8.1735,-8.1748,-8.1738,-8.1699,-8.165,-8.1518,-8.1415,-8.145,-8.1413,-8.1219,-8.1107,-8.0813,-8.0641,-8.0832,-8.0964,-8.0908,-8.0987,-8.1066,-8.1111,-8.1146,-8.121,-8.1472,-8.1771,-8.1831,-8.1872,-8.1876,-8.1901,-8.185,-8.1845,-8.1894,-8.1886,-8.1851,-8.1897,-8.1879,-8.1892,-8.1862,-8.1872,-8.199,-8.2323,-8.2744,-8.2849,-8.2515,-8.0979,-7.823,-7.5749,-7.3352,-7.3625,-7.677,-7.8321,-7.978,-8.2292,-8.2766,-8.283,-8.3401,-8.3126,-8.245,-8.166,-8.1332,-8.118,-8.1116,-8.1087,-8.1101,-8.0989,-8.0904,-8.0937,-8.0868,-8.0715,-8.0652,-8.0459,-8.0393,-8.0229,-8.0233,-8.0175,-8.0122,-8.005,-8.001,-7.9818,-7.9759,-7.9628,-7.9597,-7.9522,-7.9412,-7.931,-7.9179,-7.903,-7.8783,-7.8624,-7.8462,-7.8258,-7.808,-7.7847,-7.7596,-7.7342,-7.7149,-7.6879,-7.666,-7.656,-7.6515,-7.6376,-7.6259,-7.606,-7.5999,-7.593,-7.5807,-7.5813,-7.5757,-7.5943,-7.6061,-7.6286,-7.6542,-7.69,-7.7274,-7.7667,-7.8104,-7.848,-7.8752,-7.9104,-7.9348,-7.96,-7.9688,-7.9869,-8.0203,-8.0454,-8.0551,-8.0631,-8.0701,-8.0734,-8.0773,-8.074,-8.0741,-8.0816,-8.082,-8.0817,-8.0962,-8.0964,-8.09,-8.0909,-8.089,-8.0905,-8.0895,-8.0942,-8.0868,-8.0883,-8.0813,-8.0776,-8.0781,-8.08,-8.0773,-8.0778,-8.0901,-8.0901,-8.0819,-8.0906,-8.083,-8.0835,-8.0823,-8.0798,-8.0742,-8.0716,-8.0725,-8.0755,-8.0743,-8.0695,-8.0708,-8.0736,-8.0762,-8.0774,-8.0828,-8.0804,-8.0836,-8.0849,-8.0847,-8.085,-8.0886,-8.0835,-8.082,-8.092,-8.0872,-8.0929,-8.0941,-8.0959,-8.0963,-8.0905,-8.0984,-8.0914,-8.0973,-8.0956,-8.094,-8.094,-8.096,-8.0999,-8.0945,-8.0958,-8.0992,-8.0996,-8.0979,-8.0991,-8.0931,-8.0908,-8.0965,-8.0956,-8.0973,-8.1042,-8.0976,-8.1002,-8.1017,-8.1007,-8.1048,-8.1037,-8.1072,-8.0987,-8.0973,-8.1038,-8.1026,-8.1064,-8.1082,-8.105,-8.1032,-8.1075,-8.1087,-8.1118,-8.1119,-8.1093,-8.1027,-8.0918,-8.084,-8.0833,-8.0872,-8.0667,-8.0606,-8.0349,-8.019,-8.0366,-8.0473,-8.0444,-8.0564,-8.0765,-8.0803,-8.0799,-8.0947,-8.1223,-8.1507,-8.1633,-8.1651,-8.1653,-8.1699,-8.1679,-8.1709,-8.1719,-8.1703,-8.1706,-8.1724,-8.1696,-8.1661,-8.1658,-8.1668,-8.1803,-8.2165,-8.241,-8.274,-8.2153,-8.0304,-7.7699,-7.5172,-7.3146,-7.3644,-7.6401,-7.8163,-7.974,-8.2216,-8.245,-8.2695,-8.3427,-8.2754,-8.2229,-8.1636,-8.1518,-8.1325,-8.1311,-8.1279,-8.1352,-8.13,-8.1216,-8.1148,-8.1146,-8.1138,-8.1135,-8.0991,-8.0958,-8.0876,-8.0836,-8.0764,-8.0654,-8.0605,-8.0568,-8.0463,-8.0422,-8.0353,-8.0313,-8.0193,-8.0156,-8.0011,-7.9877,-7.976,-7.9611,-7.951,-7.9389,-7.9168,-7.8998,-7.8848,-7.8652,-7.8474,-7.8232,-7.8039,-7.7858,-7.7712,-7.7542,-7.7429,-7.734,-7.7248,-7.7175,-7.7166,-7.7158,-7.7173,-7.7241,-7.7441,-7.7708,-7.8072,-7.8421,-7.8778,-7.9121,-7.9481,-7.9885,-8.0275,-8.0592,-8.0841,-8.1047,-8.1202,-8.1361,-8.1607,-8.1652,-8.1759,-8.1824,-8.1898,-8.2007,-8.2108,-8.2136,-8.2264,-8.2205,-8.2189,-8.2269,-8.2308,-8.2336,-8.2389,-8.2332,-8.2349,-8.2394,-8.2353,-8.2327,-8.2321,-8.2427,-8.2474,-8.2504,-8.2516,-8.2436,-8.2399,-8.2373,-8.2331,-8.2312,-8.2295,-8.2228,-8.2262,-8.2247,-8.2136,-8.2106,-8.2124,-8.2053,-8.207,-8.216,-8.2049,-8.2099,-8.208,-8.2112,-8.2206,-8.2125,-8.2174,-8.2108,-8.2108,-8.2219,-8.2305,-8.2311,-8.2279,-8.2235,-8.2221,-8.2187,-8.2331,-8.2471,-8.2477,-8.2519,-8.2537,-8.2493,-8.2417,-8.2516,-8.2581,-8.2615,-8.2625,-8.2714,-8.2699,-8.2742,-8.2683,-8.2705,-8.2725,-8.2809,-8.2833,-8.2686,-8.3026,-8.3069,-8.2953,-8.2896,-8.2977,-8.3083,-8.2839,-8.2938,-8.3131,-8.3225,-8.3101,-8.3054,-8.31,-8.3191,-8.3148,-8.3111,-8.3189,-8.324,-8.325,-8.3257,-8.3241,-8.3398,-8.3363,-8.3257,-8.3308,-8.3257,-8.3436,-8.3481,-8.3329,-8.3427,-8.3407,-8.3455,-8.3633,-8.3563,-8.3495,-8.3656,-8.3781,-8.3677,-8.3639,-8.3712,-8.3688,-8.3701,-8.369,-8.3872,-8.3829,-8.3754,-8.3732,-8.3763,-8.3617,-8.3424,-8.3415,-8.3485,-8.3402,-8.308,-8.2953,-8.2872,-8.2818,-8.2943,-8.2995,-8.3097,-8.3098,-8.3173,-8.3275,-8.3208,-8.3366,-8.3651,-8.3987,-8.3969,-8.4039,-8.4098,-8.4181,-8.4171,-8.4208,-8.4213,-8.4128,-8.4209,-8.4193,-8.4239,-8.4342,-8.4228,-8.4182,-8.4312,-8.4769,-8.5164,-8.5093,-8.3896,-8.1645,-7.9196,-7.6493,-7.5258,-7.808,-7.9504,-8.0643,-8.3587,-8.5467,-8.5928,-8.605,-8.5391,-8.4524,-8.4171,-8.3938,-8.3982,-8.3908,-8.405,-8.3905,-8.3945,-8.3876,-8.3827,-8.3809,-8.3907,-8.373,-8.3628,-8.3549,-8.3527,-8.3349,-8.3312,-8.3276,-8.3172,-8.3104,-8.3198,-8.3152,-8.3123,-8.2914,-8.2726,-8.2757,-8.2632,-8.2404,-8.2405,-8.2331,-8.2167,-8.1955,-8.174,-8.1485,-8.141,-8.1205,-8.0842,-8.0618,-8.0589,-8.04,-8.0214,-7.9944,-7.9809,-7.9623,-7.9546,-7.9539,-7.9325,-7.9281,-7.9314,-7.9378,-7.9488,-7.96,-7.9778,-8.012,-8.0379,-8.0861,-8.122,-8.1668,-8.1959,-8.2294,-8.261,-8.2939,-8.3069,-8.3211,-8.347,-8.3624,-8.3683,-8.3854,-8.3945,-8.4002,-8.4035,-8.4042,-8.4078,-8.4135,-8.4145,-8.4164,-8.4175,-8.4169,-8.4097,-8.4042,-8.4013,-8.3996,-8.4106,-8.3954,-8.401,-8.4022,-8.3879,-8.3931,-8.3896,-8.3877,-8.3848,-8.3807,-8.3708,-8.3682,-8.3627,-8.3623,-8.3549,-8.3621,-8.3636,-8.3593,-8.361,-8.3579,-8.353,-8.3542,-8.3495,-8.3469,-8.3513,-8.3445,-8.3423,-8.3481,-8.3527,-8.3611,-8.354,-8.3526,-8.3595,-8.3539,-8.3349,-8.3553,-8.3722,-8.3678,-8.3671,-8.3639,-8.3707,-8.3669,-8.3674,-8.3725,-8.3695,-8.3657,-8.3836,-8.3832,-8.3778,-8.3636,-8.3547,-8.3553,-8.391,-8.3859,-8.3845,-8.381,-8.3816,-8.3815,-8.3915,-8.4003,-8.3839,-8.3886,-8.3924,-8.3916,-8.3813,-8.3936,-8.3997,-8.3939,-8.3919,-8.3952,-8.3963,-8.4007,-8.3972,-8.3945,-8.3926,-8.3928,-8.3888,-8.3992,-8.414,-8.4092,-8.4032,-8.3965,-8.4097,-8.4088,-8.4078,-8.4184,-8.4085,-8.4086,-8.4287,-8.4309,-8.429,-8.428,-8.4205,-8.4284,-8.4274,-8.4277,-8.4324,-8.4355,-8.4296,-8.4276,-8.4299,-8.4393,-8.43,-8.4384,-8.4452,-8.4456,-8.4368,-8.4299,-8.4216,-8.417,-8.4085,-8.4076,-8.4062,-8.385,-8.3676,-8.3435,-8.3314,-8.3424,-8.3536,-8.3468,-8.3529,-8.3642,-8.3746,-8.3745,-8.3802,-8.4084,-8.437,-8.4487,-8.4554,-8.4545,-8.4509,-8.4433,-8.4457,-8.4498,-8.4465,-8.4488,-8.452,-8.4514,-8.447,-8.4496,-8.4378,-8.4378,-8.471,-8.513,-8.537,-8.4611,-8.2661,-8.0056,-7.7478,-7.5354,-7.6528,-7.9184,-8.0328,-8.1878,-8.4698,-8.5449,-8.5632,-8.5448,-8.4792,-8.4175,-8.3503,-8.3364,-8.3134,-8.3207,-8.308,-8.3108,-8.2952,-8.297,-8.2864,-8.2897,-8.2713,-8.2583,-8.2512,-8.2465,-8.2331,-8.234,-8.2222,-8.2192,-8.205,-8.2103,-8.1944,-8.1892,-8.1738,-8.1733,-8.153,-8.1475,-8.1396,-8.1258,-8.1061,-8.0974,-8.0786,-8.0636,-8.0441,-8.0185,-8.0027,-7.9787,-7.9583,-7.9383,-7.9297,-7.9073,-7.8955,-7.8732,-7.8546,-7.8458,-7.8435,-7.8312,-7.8211,-7.8175,-7.8229,-7.8294,-7.8427,-7.856,-7.8881,-7.9299,-7.9703,-8.0066,-8.0423,-8.0776,-8.0968,-8.1174,-8.149,-8.1741,-8.2069,-8.2269,-8.2546,-8.2647,-8.2701,-8.2688,-8.2773,-8.2843,-8.2931,-8.2966,-8.2982,-8.2966,-8.3019,-8.3005,-8.3019,-8.3034,-8.3078,-8.2991,-8.2911,-8.29,-8.2843,-8.2788,-8.2791,-8.2696,-8.2673,-8.2598,-8.2533,-8.2478,-8.2449,-8.2374,-8.2305,-8.2246,-8.2271,-8.2194,-8.2181,-8.209,-8.2109,-8.2031,-8.204,-8.1992,-8.196,-8.2015,-8.1948,-8.1874,-8.1822,-8.18,-8.1884,-8.1832,-8.1819,-8.1842,-8.1868,-8.194,-8.2025,-8.1995,-8.1974,-8.1983,-8.1998,-8.2116,-8.2079,-8.2043,-8.2113,-8.2023,-8.197,-8.1986,-8.2026,-8.1954,-8.2003,-8.1915,-8.1972,-8.196,-8.1913,-8.1901,-8.1948,-8.1908,-8.1833,-8.1879,-8.1929,-8.1941,-8.1872,-8.1881,-8.1879,-8.1868,-8.1853,-8.187,-8.1812,-8.1838,-8.1745,-8.1799,-8.1783,-8.1789,-8.1834,-8.18,-8.177,-8.1933,-8.1903,-8.1907,-8.186,-8.1917,-8.194,-8.1919,-8.1899,-8.1991,-8.1962,-8.2053,-8.2033,-8.1931,-8.1927,-8.1898,-8.181,-8.1707,-8.1685,-8.1566,-8.1488,-8.1494,-8.1418,-8.1356,-8.1177,-8.0977,-8.0804,-8.0769,-8.0922,-8.0915,-8.1041,-8.1247,-8.1195,-8.1262,-8.1338,-8.172,-8.1868,-8.1893,-8.1943,-8.1926,-8.1948,-8.1903,-8.1921,-8.1946,-8.2052,-8.2149,-8.2068,-8.2069,-8.1948,-8.1943,-8.2017,-8.2207,-8.255,-8.2862,-8.2949,-8.1902,-7.9618,-7.715,-7.443,-7.3287,-7.5434,-7.7606,-7.964,-8.0456,-8.2442,-8.2547,-8.2441,-8.352,-8.3287,-8.269,-8.211,-8.1784,-8.1436,-8.1452,-8.1224,-8.1298,-8.1132,-8.1354,-8.1174,-8.1213,-8.1038,-8.103,-8.0883,-8.0941,-8.0737,-8.0751,-8.06,-8.0673,-8.0512,-8.0549,-8.0443,-8.0404,-8.0304,-8.0238,-8.0177,-8.0118,-7.9913,-7.9881,-7.9682,-7.9634,-7.9545,-7.9269,-7.9013,-7.8941,-7.8772,-7.8518,-7.8307,-7.8132,-7.7885,-7.7749,-7.7495,-7.7316,-7.7196,-7.704,-7.7011,-7.6892,-7.6867,-7.6878,-7.6913,-7.6994,-7.724,-7.7473,-7.7661,-7.7983,-7.8363,-7.8699,-7.9116,-7.949,-7.9798,-8.0121,-8.044,-8.0629,-8.0955,-8.1084,-8.1322,-8.1411,-8.1543,-8.1541,-8.1704,-8.1692,-8.1784,-8.1818,-8.1925,-8.1895,-8.1904,-8.186,-8.1859,-8.181,-8.1874,-8.1842,-8.185,-8.1757,-8.1822,-8.1794,-8.1829,-8.1741,-8.1748,-8.1715,-8.1675,-8.1624,-8.1654,-8.158,-8.1655,-8.1473,-8.152,-8.1449,-8.1455,-8.1476,-8.145,-8.1415,-8.1433,-8.14,-8.1388,-8.1334,-8.1359,-8.1322,-8.1352,-8.1322,-8.1356,-8.14,-8.1401,-8.1425,-8.1463,-8.1488,-8.1466,-8.1484,-8.152,-8.147,-8.1569,-8.1601,-8.1597,-8.1576,-8.1576,-8.1588,-8.1582,-8.1546,-8.1611,-8.1603,-8.1625,-8.1607,-8.1582,-8.1616,-8.1609,-8.1591,-8.1572,-8.1606,-8.1569,-8.1624,-8.1612,-8.1614,-8.1614,-8.1571,-8.1575,-8.1549,-8.1536,-8.1556,-8.157,-8.1539,-8.1606,-8.1621,-8.159,-8.1605,-8.1642,-8.1609,-8.1626,-8.1697,-8.1659,-8.1662,-8.167,-8.1719,-8.1739,-8.1763,-8.17,-8.1724,-8.1606,-8.1618,-8.1472,-8.139,-8.1462,-8.147,-8.1246,-8.1282,-8.1007,-8.0877,-8.0963,-8.1087,-8.1145,-8.1251,-8.1309,-8.1458,-8.1462,-8.1598,-8.1859,-8.2075,-8.2213,-8.2264,-8.228,-8.2294,-8.2277,-8.2344,-8.2285,-8.2379,-8.2355,-8.2386,-8.239,-8.2406,-8.2444,-8.2405,-8.2597,-8.2923,-8.3363,-8.3191,-8.1874,-7.9587,-7.7236,-7.4527,-7.3536,-7.6443,-7.7812,-7.9019,-8.2233,-8.3354,-8.3991,-8.437,-8.4104,-8.312,-8.2591,-8.2328,-8.2213,-8.2221,-8.2147,-8.2141,-8.2097,-8.2179,-8.2076,-8.2121,-8.2034,-8.1953,-8.1837,-8.1754,-8.1659,-8.1728,-8.1624,-8.1633,-8.1479,-8.1467,-8.1321,-8.1261,-8.1115,-8.111,-8.0979,-8.0788,-8.0705,-8.0664,-8.0534,-8.0473,-8.03,-8.0133,-7.997,-7.9782,-7.9607,-7.9529,-7.9301,-7.9094,-7.8989,-7.8771,-7.8637,-7.8531,-7.8303,-7.819,-7.8071,-7.8033,-7.7958,-7.7944,-7.798,-7.8005,-7.8167,-7.8271,-7.8452,-7.8939,-7.9384,-7.9551,-7.9951,-8.0414,-8.0783,-8.1116,-8.1433,-8.1745,-8.1995,-8.2179,-8.2304,-8.2562,-8.2746,-8.2742,-8.2886,-8.2984,-8.3042,-8.3008,-8.3058,-8.3058,-8.3088,-8.3101,-8.3133,-8.3118,-8.3205,-8.3151,-8.3191,-8.32,-8.3129,-8.3159,-8.3162,-8.3164,-8.3143,-8.3135,-8.3189,-8.3042,-8.3065,-8.308,-8.3005,-8.2982,-8.3011,-8.2917,-8.2947,-8.2887,-8.2777,-8.2778,-8.2748,-8.2724,-8.2772,-8.2712,-8.2688,-8.268,-8.2758,-8.2747,-8.2801,-8.2786,-8.2802,-8.279,-8.283,-8.2797,-8.2824,-8.28,-8.2781,-8.2821,-8.2765,-8.2825,-8.2877,-8.2837,-8.2902,-8.2907,-8.299,-8.2947,-8.2973,-8.3002,-8.2981,-8.3027,-8.3112,-8.3059,-8.3043,-8.3012,-8.3013,-8.3028,-8.3011,-8.2979,-8.2962,-8.3028,-8.2911,-8.2938,-8.2945,-8.2928,-8.2982,-8.2969,-8.2943,-8.2986,-8.2987,-8.2972,-8.2922,-8.299,-8.2988,-8.3001,-8.3042,-8.292,-8.2944,-8.2996,-8.3051,-8.3036,-8.301,-8.2978,-8.2992,-8.2992,-8.2891,-8.2986,-8.3016,-8.2956,-8.3037,-8.3051,-8.2998,-8.3082,-8.3096,-8.306,-8.3061,-8.3101,-8.3119,-8.3136,-8.313,-8.3089,-8.3102,-8.3092,-8.3055,-8.3096,-8.3132,-8.3122,-8.3145,-8.305,-8.3081,-8.3107,-8.3153,-8.3113,-8.3085,-8.309,-8.3086,-8.3015,-8.2924,-8.279,-8.2815,-8.2755,-8.2555,-8.2334,-8.2106,-8.2204,-8.2315,-8.2328,-8.2418,-8.2564,-8.266,-8.2608,-8.2724,-8.3044,-8.3216,-8.3304,-8.3377,-8.3457,-8.3468,-8.3511,-8.3409,-8.3471,-8.3507,-8.3458,-8.3447,-8.3471,-8.3483,-8.3516,-8.3513,-8.3644,-8.3894,-8.4358,-8.4419,-8.3488,-8.1306,-8.0012,-7.7699,-7.5048,-7.4976,-7.8116,-7.9386,-8.0488,-8.3889,-8.4983,-8.5182,-8.5175,-8.4319,-8.3801,-8.3403,-8.325,-8.324,-8.3164,-8.3268,-8.3242,-8.3232,-8.3162,-8.3222,-8.3084,-8.2984,-8.2921,-8.2869,-8.2782,-8.2746,-8.2614,-8.26,-8.249,-8.25,-8.2433,-8.2306,-8.2195,-8.218,-8.2089,-8.1954,-8.188,-8.1724,-8.1664,-8.1657,-8.1435,-8.1272,-8.1138,-8.097,-8.0768,-8.0655,-8.045,-8.0278,-8.0064,-7.9909,-7.9755,-7.9569,-7.9414,-7.9333,-7.9112,-7.9109,-7.8961,-7.8911,-7.8893,-7.8824,-7.8852,-7.8909,-7.91,-7.9326,-7.9637,-7.995,-8.0377,-8.0714,-8.1107,-8.149,-8.18,-8.2101,-8.24,-8.2607,-8.2805,-8.2954,-8.3116,-8.3159,-8.3265,-8.3365,-8.339,-8.3408,-8.3468,-8.3537,-8.3529,-8.357,-8.3637,-8.3597,-8.3652,-8.3634,-8.3604,-8.3605,-8.3596,-8.3558,-8.3515,-8.3511,-8.3507,-8.3525,-8.3498,-8.3498,-8.3454,-8.341,-8.3389,-8.339,-8.3339,-8.3274,-8.3294,-8.3341,-8.3282,-8.3312,-8.3247,-8.3209,-8.3207,-8.3197,-8.3206,-8.3164,-8.3275,-8.3263,-8.3263,-8.3297,-8.3292,-8.3298,-8.3274,-8.3302,-8.3315,-8.3239,-8.3333,-8.3312,-8.33,-8.3351,-8.3339,-8.3308,-8.3254,-8.3298,-8.3291,-8.3285,-8.3404,-8.3411,-8.3414,-8.3394,-8.3379,-8.341,-8.3467,-8.3493,-8.3479,-8.3488,-8.3508,-8.3513,-8.3499,-8.3574,-8.3523,-8.3526,-8.3545,-8.3554,-8.3616,-8.3604,-8.3648,-8.3683,-8.3621,-8.3646,-8.3634,-8.3643,-8.3657,-8.3637,-8.3711,-8.3711,-8.3696,-8.368,-8.371,-8.367,-8.3708,-8.3647,-8.3739,-8.373,-8.3645,-8.3743,-8.3681,-8.3741,-8.3729,-8.3794,-8.3772,-8.3745,-8.3806,-8.3776,-8.3754,-8.3785,-8.3765,-8.3805,-8.3782,-8.3782,-8.3801,-8.384,-8.3839,-8.3862,-8.3879,-8.3906,-8.3848,-8.3809,-8.3844,-8.3882,-8.3908,-8.387,-8.3943,-8.3902,-8.3899,-8.3965,-8.3956,-8.398,-8.3963,-8.3997,-8.3985,-8.3987,-8.3982,-8.3985,-8.3955,-8.3884,-8.386,-8.3784,-8.3692,-8.3596,-8.3534,-8.3531,-8.3381,-8.3167,-8.2973,-8.2804,-8.2928,-8.3042,-8.3087,-8.3222,-8.331,-8.3325,-8.3393,-8.3577,-8.3938,-8.4122,-8.4165,-8.4148,-8.4127,-8.4121,-8.4154,-8.4167,-8.4167,-8.4173,-8.4152,-8.4181,-8.4155,-8.4172,-8.4148,-8.4165,-8.4279,-8.4711,-8.5154,-8.4861,-8.3543,-8.1064,-7.9758,-7.7274,-7.5158,-7.7046,-7.9361,-8.0665,-8.2354,-8.5123,-8.5612,-8.587,-8.5514,-8.4594,-8.4145,-8.373,-8.3649,-8.3626,-8.3679,-8.362,-8.3636,-8.3557,-8.355,-8.3481,-8.3461,-8.3404,-8.3344,-8.3219,-8.313,-8.308,-8.2997,-8.2857,-8.2893,-8.2778,-8.2697,-8.2617,-8.2528,-8.2377,-8.2259,-8.2135,-8.2015,-8.187,-8.182,-8.1627,-8.1458,-8.1284,-8.1094,-8.0879,-8.0752,-8.0528,-8.0355,-8.006,-7.9812,-7.9603,-7.9388,-7.9201,-7.9053,-7.8903,-7.8743,-7.8598,-7.8524,-7.8439,-7.8432,-7.8443,-7.8457,-7.8514,-7.8677,-7.8916,-7.918,-7.9571,-7.9966,-8.0291,-8.0638,-8.0983,-8.1334,-8.1623,-8.1898,-8.2144,-8.2308,-8.246,-8.2564,-8.2573,-8.2707,-8.2716,-8.2877,-8.29,-8.2963,-8.305,-8.3033,-8.3057,-8.3081,-8.3089,-8.3044,-8.298,-8.2936,-8.2919,-8.2861,-8.2858,-8.279,-8.2796,-8.2828,-8.2894,-8.2847,-8.2831,-8.2784,-8.2736,-8.2724,-8.2718,-8.2665,-8.2671,-8.2632,-8.2654,-8.2611,-8.2597,-8.2625,-8.2578,-8.2585,-8.2582,-8.2601,-8.2616,-8.2661,-8.2667,-8.259,-8.2588,-8.2566,-8.263,-8.2629,-8.2618,-8.26,-8.2651,-8.268,-8.2692,-8.2693,-8.2686,-8.2685,-8.2716,-8.2703,-8.2671,-8.2699,-8.2724,-8.2665,-8.2743,-8.2773,-8.2757,-8.2767,-8.2746,-8.2713,-8.2727,-8.2732,-8.2778,-8.2749,-8.2768,-8.2741,-8.2706,-8.2743,-8.2727,-8.274,-8.2717,-8.2693,-8.2682,-8.2704,-8.2738,-8.27,-8.2675,-8.2697,-8.2661,-8.2698,-8.2658,-8.259,-8.2625,-8.2696,-8.2577,-8.2563,-8.2556,-8.2466,-8.254,-8.2502,-8.2529,-8.2488,-8.2498,-8.2498,-8.2472,-8.2456,-8.2468,-8.2433,-8.2471,-8.2424,-8.2405,-8.2416,-8.2434,-8.2377,-8.233,-8.2349,-8.2309,-8.2292,-8.2257,-8.2293,-8.2253,-8.2267,-8.2228,-8.2265,-8.2337,-8.241,-8.2381,-8.2327,-8.2243,-8.2164,-8.2079,-8.2173,-8.2134,-8.1837,-8.1624,-8.1474,-8.1435,-8.1562,-8.1587,-8.1498,-8.1575,-8.164,-8.1738,-8.1797,-8.1982,-8.2418,-8.2566,-8.2491,-8.2447,-8.2488,-8.2518,-8.2486,-8.2545,-8.2508,-8.24,-8.241,-8.2423,-8.2331,-8.2366,-8.2396,-8.2416,-8.2701,-8.3073,-8.3286,-8.3024,-8.1711,-7.9142,-7.6667,-7.4192,-7.3853,-7.6802,-7.8588,-8.0148,-8.2533,-8.2917,-8.2862,-8.3719,-8.368,-8.2947,-8.245,-8.188,-8.1741,-8.1691,-8.1706,-8.1655,-8.1706,-8.1723,-8.1618,-8.1547,-8.1432,-8.1429,-8.1343,-8.127,-8.118,-8.1141,-8.1087,-8.1009,-8.1028,-8.098,-8.0912,-8.0848,-8.0719,-8.0686,-8.0635,-8.0501,-8.0439,-8.04,-8.0258,-8.0198,-8.013,-7.997,-7.9705,-7.954,-7.9311,-7.913,-7.8958,-7.8685,-7.8529,-7.8221,-7.8109,-7.7905,-7.7792,-7.7706,-7.7606,-7.7542,-7.7396,-7.7363,-7.739,-7.7436,-7.7507,-7.7686,-7.7839,-7.8305,-7.8634,-7.8975,-7.9362,-7.9723,-8.0075,-8.046,-8.0801,-8.1106,-8.1316,-8.1562,-8.1682,-8.181,-8.1924,-8.2,-8.2104,-8.2152,-8.2244,-8.2303,-8.2349,-8.2423,-8.2356,-8.2419,-8.2463,-8.2515,-8.254,-8.25,-8.2518,-8.2558,-8.258,-8.249,-8.2485,-8.2493,-8.2524,-8.252,-8.2486,-8.2473,-8.2449,-8.245,-8.2437,-8.2356,-8.243,-8.2432,-8.2375,-8.2344,-8.2385,-8.234,-8.2322,-8.2319,-8.2321,-8.2325,-8.238,-8.2319,-8.2331,-8.227,-8.2332,-8.2314,-8.2277,-8.238,-8.2428,-8.2411,-8.2427,-8.2462,-8.2538,-8.2507,-8.2481,-8.2567,-8.2597,-8.2601,-8.2556,-8.2528,-8.2616,-8.2588,-8.2589,-8.2639,-8.2667,-8.2684,-8.2724,-8.2696,-8.2699,-8.2673,-8.2707,-8.2748,-8.2754,-8.2797,-8.2805,-8.2829,-8.2743,-8.2737,-8.2744,-8.2759,-8.2753,-8.2808,-8.2828,-8.2792,-8.2798,-8.2868,-8.2853,-8.2884,-8.2839,-8.2837,-8.2834,-8.2857,-8.2878,-8.2874,-8.2895,-8.2854,-8.2718,-8.2674,-8.259,-8.2479,-8.2572,-8.2608,-8.2469,-8.2413,-8.2212,-8.2043,-8.2049,-8.2145,-8.223,-8.2236,-8.229,-8.2434,-8.2477,-8.2571,-8.2847,-8.3159,-8.3258,-8.3323,-8.335,-8.3355,-8.3419,-8.3452,-8.3394,-8.3373,-8.3417,-8.3414,-8.3405,-8.3384,-8.3454,-8.3423,-8.3527,-8.3877,-8.4246,-8.4372,-8.3396,-8.115,-7.8716,-7.603,-7.4475,-7.4931,-7.7796,-7.9376,-8.0688,-8.3787,-8.4624,-8.4819,-8.5187,-8.4426,-8.381,-8.3299,-8.314,-8.306,-8.3015,-8.3062,-8.3037,-8.3091,-8.2981,-8.2971,-8.2916,-8.2894,-8.2768,-8.2701,-8.2643,-8.2655,-8.2601,-8.2523,-8.2424,-8.2453,-8.2389,-8.2339,-8.2232,-8.2159,-8.2108,-8.1981,-8.1808,-8.1776,-8.1681,-8.1498,-8.1406,-8.1317,-8.117,-8.0994,-8.0801,-8.0611,-8.0364,-8.0193,-8.0021,-7.9823,-7.9526,-7.9393,-7.9241,-7.9019,-7.8912,-7.8899,-7.8814,-7.8794,-7.8763,-7.8865,-7.8903,-7.8986,-7.9252,-7.9656,-8.001,-8.0516,-8.0873,-8.1229,-8.1657,-8.2,-8.2331,-8.2609,-8.2882,-8.314,-8.3374,-8.3516,-8.3603,-8.3675,-8.385,-8.3918,-8.3941,-8.3939,-8.3972,-8.3991,-8.4029,-8.407,-8.4148,-8.4155,-8.4197,-8.4168,-8.4155,-8.4164,-8.4147,-8.4129,-8.4132,-8.4083,-8.4088,-8.4047,-8.4011,-8.4001,-8.3998,-8.3978,-8.3889,-8.3874,-8.3882,-8.3828,-8.3855,-8.3812,-8.372,-8.371,-8.37,-8.3639,-8.3675,-8.3669,-8.366,-8.3618,-8.3686,-8.3606,-8.3692,-8.3725,-8.3749,-8.3727,-8.379,-8.3834,-8.3868,-8.3858,-8.3911,-8.3928,-8.3921,-8.3921,-8.4031,-8.3996,-8.4002,-8.4049,-8.4038,-8.4021,-8.3979,-8.4067,-8.4099,-8.4039,-8.4072,-8.4058,-8.4114,-8.41,-8.4169,-8.4194,-8.4182,-8.4162,-8.4199,-8.4224,-8.4153,-8.4169,-8.4119,-8.4225,-8.4186,-8.427,-8.4232,-8.4226,-8.427,-8.4299,-8.4194,-8.4224,-8.425,-8.4231,-8.4243,-8.4301,-8.4299,-8.4309,-8.4325,-8.4363,-8.4317,-8.4253,-8.4301,-8.44,-8.4333,-8.431,-8.4328,-8.4324,-8.433,-8.4354,-8.4395,-8.4383,-8.433,-8.4378,-8.4386,-8.4389,-8.4427,-8.4407,-8.4422,-8.4404,-8.4396,-8.438,-8.434,-8.4272,-8.4216,-8.4082,-8.4044,-8.405,-8.3931,-8.3822,-8.3788,-8.3489,-8.3299,-8.3488,-8.3489,-8.3618,-8.3688,-8.3775,-8.3754,-8.3889,-8.4062,-8.4399,-8.4573,-8.4662,-8.4657,-8.4671,-8.471,-8.465,-8.4712,-8.4717,-8.4701,-8.4717,-8.468,-8.4665,-8.4758,-8.4725,-8.4793,-8.4918,-8.5257,-8.5645,-8.5244,-8.3762,-8.1232,-7.8833,-7.6412,-7.6148,-7.9177,-8.0267,-8.158,-8.3233,-8.571,-8.6252,-8.6385,-8.5943,-8.4964,-8.4591,-8.4171,-8.4356,-8.416,-8.429,-8.4149,-8.4245,-8.4111,-8.42,-8.4015,-8.4093,-8.3903,-8.385,-8.3682,-8.3713,-8.3611,-8.3567,-8.3376,-8.3482,-8.3392,-8.3335,-8.322,-8.3128,-8.2995,-8.2937,-8.2787,-8.2694,-8.2584,-8.248,-8.2253,-8.2142,-8.1971,-8.1866,-8.162,-8.1545,-8.1327,-8.1098,-8.0786,-8.0672,-8.0502,-8.032,-8.0142,-7.9972,-7.9792,-7.968,-7.9551,-7.9457,-7.9496,-7.9497,-7.9557,-7.9605,-7.9812,-7.9993,-8.0197,-8.0518,-8.0938,-8.1215,-8.1695,-8.2003,-8.2414,-8.2671,-8.2989,-8.3209,-8.3463,-8.361,-8.3764,-8.3849,-8.3974,-8.4035,-8.4071,-8.4094,-8.4169,-8.4137,-8.4162,-8.4185,-8.4216,-8.4117,-8.4191,-8.4145,-8.4167,-8.4144,-8.4181,-8.4111,-8.4078,-8.4021,-8.4063,-8.3961,-8.3974,-8.3852,-8.3902,-8.3823,-8.3748,-8.3679,-8.3686,-8.357,-8.3515,-8.3554,-8.3483,-8.3391,-8.3424,-8.3417,-8.3456,-8.3402,-8.3344,-8.3361,-8.3295,-8.3308,-8.3287,-8.3308,-8.3308,-8.3322,-8.3266,-8.3266,-8.3253,-8.3296,-8.3315,-8.3242,-8.3237,-8.3175,-8.3191,-8.3168,-8.3165,-8.317,-8.3175,-8.3248,-8.3208,-8.3183,-8.3164,-8.3126,-8.3129,-8.3148,-8.3106,-8.3068,-8.3023,-8.3105,-8.3087,-8.309,-8.3127,-8.3046,-8.2967,-8.3006,-8.3019,-8.2996,-8.3,-8.2985,-8.3024,-8.2959,-8.2935,-8.2933,-8.29,-8.2894,-8.2841,-8.2873,-8.2849,-8.2828,-8.2786,-8.2816,-8.2786,-8.277,-8.2719,-8.2747,-8.2702,-8.2657,-8.2652,-8.2591,-8.2571,-8.2609,-8.2588,-8.2596,-8.2576,-8.252,-8.2522,-8.2556,-8.2525,-8.2444,-8.2499,-8.2473,-8.2429,-8.2502,-8.25,-8.2439,-8.2375,-8.2351,-8.2334,-8.2328,-8.2325,-8.2342,-8.2318,-8.2311,-8.2225,-8.2295,-8.2207,-8.2201,-8.2208,-8.2208,-8.2149,-8.2202,-8.2118,-8.206,-8.2013,-8.1877,-8.1736,-8.1722,-8.163,-8.1502,-8.1251,-8.1,-8.0912,-8.1058,-8.1114,-8.119,-8.1259,-8.1279,-8.1343,-8.1336,-8.1428,-8.1674,-8.1933,-8.1946,-8.2004,-8.1995,-8.1993,-8.1943,-8.1927,-8.188,-8.1901,-8.1957,-8.1907,-8.1893,-8.1852,-8.1928,-8.1958,-8.1962,-8.2216,-8.2659,-8.279,-8.1973,-7.993,-7.7432,-7.4903,-7.2811,-7.4507,-7.685,-7.7989,-7.9787,-8.2505,-8.3091,-8.3392,-8.3124,-8.2113,-8.1688,-8.1228,-8.1277,-8.1118,-8.1155,-8.1042,-8.1122,-8.0973,-8.0984,-8.0913,-8.0849,-8.0718,-8.0679,-8.0464,-8.04,-8.0239,-8.0217,-8.0147,-8.0083,-7.9928,-7.988,-7.9729,-7.971,-7.9545,-7.9466,-7.9326,-7.9157,-7.9074,-7.8959,-7.88,-7.8636,-7.8463,-7.8254,-7.8072,-7.7907,-7.7658,-7.7463,-7.7242,-7.7059,-7.6896,-7.6718,-7.6485,-7.6353,-7.6232,-7.6019,-7.5889,-7.5852,-7.5769,-7.5689,-7.558,-7.5671,-7.5833,-7.5947,-7.6234,-7.645,-7.6875,-7.7236,-7.755,-7.7933,-7.8244,-7.8559,-7.8715,-7.8977,-7.9191,-7.9293,-7.9469,-7.9597,-7.9746,-7.9834,-7.9884,-7.9885,-7.9948,-7.9966,-7.9971,-7.9962,-7.993,-7.9981,-7.9959,-7.9841,-7.987,-7.9834,-7.9816,-7.9736,-7.9721,-7.9721,-7.9659,-7.9623,-7.965,-7.9538,-7.9606,-7.9518,-7.9447,-7.9349,-7.9353,-7.9268,-7.9258,-7.9173,-7.9164,-7.9048,-7.907,-7.9062,-7.9073,-7.8963,-7.8884,-7.8834,-7.8923,-7.8839,-7.8827,-7.884,-7.8841,-7.8835,-7.8809,-7.8765,-7.8763,-7.8727,-7.8721,-7.8708,-7.8708,-7.8681,-7.8676,-7.8652,-7.8645,-7.8608,-7.8602,-7.8618,-7.8572,-7.8553,-7.8525,-7.8543,-7.8425,-7.8398,-7.8421,-7.8442,-7.8338,-7.8332,-7.8317,-7.8268,-7.8221,-7.8197,-7.8149,-7.8096,-7.8076,-7.8042,-7.8012,-7.7998,-7.795,-7.7925,-7.7897,-7.7869,-7.7793,-7.7768,-7.7658,-7.7684,-7.7637,-7.7571,-7.7553,-7.7534,-7.7489,-7.7383,-7.7386,-7.7337,-7.7325,-7.7304,-7.7231,-7.7128,-7.7097,-7.7113,-7.7026,-7.691,-7.684,-7.6789,-7.6698,-7.6654,-7.6547,-7.6406,-7.6336,-7.6247,-7.6182,-7.618,-7.6113,-7.6073,-7.5934,-7.593,-7.5823,-7.5735,-7.5666,-7.5561,-7.5528,-7.5488,-7.5423,-7.5354,-7.5296,-7.5212,-7.5206,-7.5108,-7.5041,-7.5009,-7.4949,-7.4912,-7.482,-7.4749,-7.4579,-7.4403,-7.4342,-7.4214,-7.405,-7.3835,-7.3586,-7.3517,-7.3716,-7.3626,-7.3661,-7.3773,-7.3846,-7.3877,-7.3965,-7.4171,-7.4381,-7.4459,-7.4519,-7.4534,-7.4522,-7.4638
