-20.725,-20.738,-20.74,-20.742,-20.725,-20.73,-20.739,-20.736,-20.731,-20.726,-20.731,-20.751,-20.743,-20.741,-20.73,-20.727,-20.73,-20.73,-20.73,-20.719,-20.7,-20.704,-20.7,-20.694,-20.673,-20.671,-20.666,-20.636,-20.607,-20.609,-20.638,-20.663,-20.671,-20.669,-20.682,-20.688,-20.69,-20.726,-20.741,-20.756,-20.754,-20.762,-20.771,-20.775,-20.758,-20.766,-20.76,-20.777,-20.769,-20.767,-20.756,-20.763,-20.776,-20.768,-20.772,-20.765,-20.765,-20.768,-20.787,-20.818,-20.852,-20.82,-20.687,-20.485,-20.234,-19.952,-19.576,-19.458,-19.624,-20.046,-20.455,-20.774,-20.863,-20.858,-20.799,-20.724,-20.688,-20.682,-20.727,-20.708,-20.708,-20.7,-20.719,-20.71,-20.715,-20.7,-20.699,-20.688,-20.698,-20.689,-20.681,-20.675,-20.681,-20.679,-20.684,-20.663,-20.664,-20.65,-20.661,-20.654,-20.64,-20.618,-20.632,-20.629,-20.624,-20.62,-20.6,-20.591,-20.597,-20.587,-20.571,-20.56,-20.554,-20.552,-20.553,-20.524,-20.502,-20.495,-20.482,-20.464,-20.45,-20.426,-20.408,-20.398,-20.386,-20.361,-20.338,-20.331,-20.318,-20.3,-20.298,-20.276,-20.264,-20.254,-20.261,-20.26,-20.245,-20.253,-20.267,-20.301,-20.323,-20.347,-20.366,-20.417,-20.456,-20.49,-20.514,-20.545,-20.569,-20.611,-20.621,-20.636,-20.641,-20.654,-20.663,-20.672,-20.68,-20.671,-20.673,-20.683,-20.68,-20.689,-20.68,-20.682,-20.69,-20.687,-20.685,-20.678,-20.674,-20.679,-20.686,-20.683,-20.673,-20.673,-20.671,-20.693,-20.682,-20.669,-20.665,-20.676,-20.681,-20.681,-20.677,-20.671,-20.673,-20.679,-20.684,-20.674,-20.667,-20.673,-20.684,-20.687,-20.679,-20.679,-20.678,-20.685,-20.683,-20.687,-20.675,-20.683,-20.704,-20.731,-20.769,-20.757,-20.74,-20.72,-20.733,-20.719,-20.693,-20.679,-20.677,-20.669,-20.653,-20.645,-20.685,-20.711,-20.693,-20.683,-20.675,-20.685,-20.686,-20.687,-20.691,-20.687,-20.691,-20.695,-20.703,-20.702,-20.701,-20.706,-20.703,-20.713,-20.719,-20.713,-20.711,-20.701,-20.689,-20.693,-20.668,-20.641,-20.642,-20.647,-20.639,-20.636,-20.616,-20.586,-20.56,-20.566,-20.593,-20.607,-20.621,-20.624,-20.636,-20.638,-20.635,-20.659,-20.681,-20.708,-20.707,-20.704,-20.711,-20.722,-20.731,-20.719,-20.72,-20.721,-20.722,-20.726,-20.728,-20.714,-20.716,-20.712,-20.723,-20.727,-20.723,-20.719,-20.722,-20.732,-20.777,-20.804,-20.751,-20.6,-20.394,-20.145,-19.858,-19.483,-19.387,-19.637,-20.08,-20.472,-20.741,-20.794,-20.782,-20.726,-20.652,-20.615,-20.62,-20.654,-20.659,-20.655,-20.635,-20.658,-20.647,-20.657,-20.643,-20.631,-20.63,-20.638,-20.631,-20.621,-20.603,-20.615,-20.617,-20.621,-20.614,-20.602,-20.594,-20.595,-20.603,-20.597,-20.569,-20.567,-20.565,-20.573,-20.565,-20.547,-20.525,-20.531,-20.528,-20.52,-20.5,-20.488,-20.478,-20.481,-20.471,-20.453,-20.426,-20.415,-20.409,-20.395,-20.375,-20.34,-20.321,-20.313,-20.297,-20.289,-20.268,-20.249,-20.241,-20.229,-20.215,-20.202,-20.184,-20.183,-20.198,-20.189,-20.192,-20.201,-20.229,-20.266,-20.296,-20.317,-20.347,-20.39,-20.437,-20.474,-20.498,-20.523,-20.556,-20.586,-20.592,-20.6,-20.61,-20.619,-20.643,-20.641,-20.645,-20.634,-20.644,-20.65,-20.647,-20.643,-20.637,-20.637,-20.651,-20.649,-20.648,-20.628,-20.626,-20.634,-20.636,-20.628,-20.615,-20.606,-20.615,-20.634,-20.642,-20.629,-20.621,-20.627,-20.639,-20.635,-20.625,-20.626,-20.628,-20.634,-20.638,-20.63,-20.635,-20.644,-20.65,-20.64,-20.633,-20.629,-20.645,-20.663,-20.662,-20.659,-20.647,-20.649,-20.662,-20.669,-20.663,-20.66,-20.669,-20.683,-20.67,-20.66,-20.653,-20.665,-20.668,-20.677,-20.668,-20.663,-20.67,-20.678,-20.673,-20.675,-20.662,-20.666,-20.665,-20.667,-20.642,-20.633,-20.641,-20.636,-20.639,-20.633,-20.59,-20.561,-20.555,-20.568,-20.59,-20.605,-20.614,-20.63,-20.645,-20.65,-20.657,-20.675,-20.701,-20.711,-20.721,-20.723,-20.725,-20.721,-20.737,-20.736,-20.73,-20.73,-20.729,-20.738,-20.733,-20.741,-20.736,-20.735,-20.744,-20.742,-20.741,-20.733,-20.739,-20.746,-20.754,-20.784,-20.827,-20.796,-20.663,-20.437,-20.138,-19.81,-19.616,-19.429,-19.438,-19.826,-20.245,-20.681,-20.852,-20.841,-20.787,-20.715,-20.669,-20.648,-20.672,-20.673,-20.665,-20.664,-20.674,-20.672,-20.674,-20.666,-20.658,-20.653,-20.667,-20.669,-20.659,-20.643,-20.648,-20.66,-20.659,-20.654,-20.643,-20.645,-20.647,-20.642,-20.643,-20.632,-20.63,-20.628,-20.627,-20.62,-20.597,-20.58,-20.583,-20.581,-20.57,-20.544,-20.537,-20.528,-20.517,-20.501,-20.478,-20.471,-20.462,-20.443,-20.425,-20.402,-20.385,-20.37,-20.36,-20.353,-20.333,-20.305,-20.298,-20.291,-20.28,-20.263,-20.248,-20.241,-20.246,-20.235,-20.225,-20.235,-20.26,-20.297,-20.317,-20.336,-20.362,-20.398,-20.442,-20.458,-20.492,-20.519,-20.537,-20.577,-20.605,-20.62,-20.626,-20.631,-20.65,-20.663,-20.661,-20.654,-20.651,-20.663,-20.672,-20.663,-20.648,-20.648,-20.66,-20.669,-20.662,-20.646,-20.642,-20.64,-20.652,-20.654,-20.64,-20.639,-20.633,-20.645,-20.64,-20.632,-20.624,-20.636,-20.647,-20.635,-20.627,-20.635,-20.641,-20.648,-20.649,-20.646,-20.642,-20.637,-20.643,-20.644,-20.643,-20.639,-20.644,-20.657,-20.664,-20.656,-20.652,-20.651,-20.664,-20.664,-20.661,-20.663,-20.663,-20.667,-20.678,-20.675,-20.658,-20.661,-20.66,-20.663,-20.638,-20.625,-20.627,-20.624,-20.624,-20.619,-20.598,-20.56,-20.536,-20.556,-20.574,-20.585,-20.604,-20.604,-20.613,-20.627,-20.625,-20.638,-20.663,-20.69,-20.7,-20.694,-20.688,-20.696,-20.701,-20.709,-20.705,-20.695,-20.696,-20.71,-20.708,-20.697,-20.692,-20.693,-20.706,-20.713,-20.715,-20.701,-20.706,-20.712,-20.716,-20.744,-20.778,-20.773,-20.664,-20.459,-20.198,-19.893,-19.508,-19.345,-19.457,-19.88,-20.119,-20.506,-20.809,-20.799,-20.774,-20.678,-20.641,-20.612,-20.641,-20.635,-20.648,-20.62,-20.641,-20.641,-20.654,-20.633,-20.632,-20.621,-20.641,-20.625,-20.626,-20.604,-20.606,-20.602,-20.605,-20.596,-20.589,-20.585,-20.582,-20.577,-20.584,-20.566,-20.567,-20.568,-20.565,-20.55,-20.537,-20.531,-20.529,-20.522,-20.518,-20.502,-20.491,-20.481,-20.482,-20.469,-20.451,-20.44,-20.423,-20.418,-20.396,-20.378,-20.348,-20.334,-20.329,-20.312,-20.283,-20.271,-20.261,-20.259,-20.25,-20.237,-20.212,-20.201,-20.2,-20.204,-20.201,-20.209,-20.226,-20.256,-20.29,-20.32,-20.35,-20.391,-20.433,-20.466,-20.487,-20.522,-20.533,-20.573,-20.59,-20.602,-20.61,-20.619,-20.637,-20.641,-20.644,-20.649,-20.644,-20.653,-20.668,-20.66,-20.651,-20.655,-20.643,-20.657,-20.646,-20.636,-20.634,-20.635,-20.64,-20.642,-20.633,-20.633,-20.631,-20.638,-20.641,-20.637,-20.62,-20.62,-20.636,-20.634,-20.624,-20.622,-20.626,-20.64,-20.65,-20.643,-20.634,-20.639,-20.645,-20.656,-20.644,-20.638,-20.639,-20.649,-20.657,-20.654,-20.651,-20.651,-20.656,-20.667,-20.663,-20.653,-20.658,-20.662,-20.669,-20.668,-20.658,-20.661,-20.664,-20.675,-20.675,-20.665,-20.663,-20.662,-20.677,-20.677,-20.666,-20.665,-20.669,-20.678,-20.68,-20.671,-20.667,-20.676,-20.683,-20.679,-20.674,-20.669,-20.67,-20.671,-20.677,-20.665,-20.634,-20.63,-20.636,-20.631,-20.62,-20.616,-20.595,-20.572,-20.557,-20.567,-20.586,-20.596,-20.62,-20.631,-20.631,-20.629,-20.642,-20.661,-20.69,-20.7,-20.697,-20.698,-20.706,-20.712,-20.715,-20.704,-20.704,-20.716,-20.725,-20.723,-20.714,-20.713,-20.715,-20.717,-20.721,-20.712,-20.71,-20.704,-20.717,-20.714,-20.715,-20.72,-20.773,-20.81,-20.74,-20.562,-20.325,-20.065,-19.758,-19.398,-19.346,-19.665,-20.135,-20.543,-20.787,-20.812,-20.783,-20.709,-20.644,-20.634,-20.635,-20.638,-20.636,-20.649,-20.652,-20.651,-20.639,-20.637,-20.638,-20.654,-20.64,-20.627,-20.619,-20.627,-20.629,-20.624,-20.611,-20.602,-20.596,-20.606,-20.601,-20.594,-20.581,-20.581,-20.581,-20.577,-20.571,-20.557,-20.548,-20.563,-20.543,-20.536,-20.519,-20.512,-20.509,-20.503,-20.492,-20.473,-20.457,-20.458,-20.446,-20.429,-20.404,-20.384,-20.37,-20.359,-20.338,-20.309,-20.291,-20.278,-20.277,-20.251,-20.231,-20.214,-20.209,-20.213,-20.198,-20.195,-20.188,-20.192,-20.218,-20.235,-20.257,-20.279,-20.312,-20.359,-20.392,-20.426,-20.456,-20.489,-20.532,-20.554,-20.57,-20.585,-20.594,-20.617,-20.632,-20.63,-20.627,-20.63,-20.644,-20.647,-20.652,-20.642,-20.65,-20.651,-20.657,-20.65,-20.641,-20.642,-20.637,-20.643,-20.64,-20.62,-20.625,-20.629,-20.639,-20.641,-20.628,-20.627,-20.631,-20.637,-20.634,-20.625,-20.628,-20.634,-20.637,-20.637,-20.631,-20.637,-20.644,-20.655,-20.65,-20.638,-20.631,-20.642,-20.649,-20.659,-20.66,-20.65,-20.652,-20.661,-20.665,-20.661,-20.652,-20.655,-20.662,-20.672,-20.674,-20.664,-20.664,-20.675,-20.675,-20.666,-20.661,-20.662,-20.673,-20.675,-20.681,-20.664,-20.666,-20.674,-20.676,-20.67,-20.667,-20.664,-20.675,-20.682,-20.679,-20.665,-20.667,-20.678,-20.684,-20.686,-20.681,-20.676,-20.682,-20.685,-20.685,-20.687,-20.669,-20.669,-20.678,-20.679,-20.673,-20.671,-20.68,-20.689,-20.68,-20.681,-20.676,-20.678,-20.682,-20.685,-20.682,-20.675,-20.668,-20.678,-20.684,-20.689,-20.67,-20.673,-20.683,-20.691,-20.69,-20.678,-20.683,-20.687,-20.679,-20.68,-20.676,-20.672,-20.687,-20.697,-20.688,-20.686,-20.668,-20.65,-20.662,-20.651,-20.639,-20.617,-20.618,-20.613,-20.585,-20.555,-20.551,-20.592,-20.621,-20.626,-20.62,-20.63,-20.635,-20.664,-20.674,-20.683,-20.694,-20.691,-20.703,-20.711,-20.706,-20.707,-20.704,-20.712,-20.709,-20.712,-20.706,-20.703,-20.715,-20.72,-20.715,-20.707,-20.71,-20.712,-20.729,-20.726,-20.714,-20.706,-20.71,-20.737,-20.763,-20.793,-20.76,-20.634,-20.436,-20.168,-19.875,-19.493,-19.369,-19.558,-19.983,-20.409,-20.749,-20.817,-20.809,-20.757,-20.669,-20.625,-20.605,-20.642,-20.642,-20.653,-20.627,-20.642,-20.633,-20.646,-20.627,-20.624,-20.612,-20.622,-20.619,-20.62,-20.6,-20.607,-20.6,-20.614,-20.608,-20.593,-20.592,-20.594,-20.588,-20.579,-20.566,-20.569,-20.557,-20.567,-20.552,-20.536,-20.531,-20.527,-20.524,-20.519,-20.493,-20.49,-20.486,-20.474,-20.464,-20.45,-20.433,-20.429,-20.419,-20.395,-20.379,-20.353,-20.34,-20.326,-20.307,-20.285,-20.261,-20.256,-20.249,-20.234,-20.223,-20.194,-20.191,-20.178,-20.175,-20.176,-20.163,-20.177,-20.209,-20.228,-20.258,-20.276,-20.321,-20.36,-20.393,-20.433,-20.451,-20.482,-20.528,-20.549,-20.568,-20.578,-20.589,-20.604,-20.617,-20.62,-20.624,-20.621,-20.639,-20.643,-20.646,-20.632,-20.631,-20.624,-20.63,-20.628,-20.62,-20.612,-20.624,-20.631,-20.629,-20.616,-20.598,-20.599,-20.612,-20.617,-20.619,-20.607,-20.608,-20.613,-20.614,-20.609,-20.597,-20.605,-20.615,-20.62,-20.62,-20.605,-20.61,-20.619,-20.629,-20.622,-20.625,-20.625,-20.628,-20.635,-20.639,-20.633,-20.628,-20.637,-20.654,-20.646,-20.635,-20.639,-20.643,-20.647,-20.646,-20.635,-20.639,-20.641,-20.643,-20.65,-20.65,-20.641,-20.644,-20.651,-20.651,-20.651,-20.638,-20.645,-20.659,-20.657,-20.65,-20.647,-20.649,-20.661,-20.663,-20.657,-20.643,-20.645,-20.651,-20.658,-20.651,-20.655,-20.654,-20.655,-20.662,-20.66,-20.646,-20.641,-20.648,-20.66,-20.652,-20.639,-20.641,-20.639,-20.651,-20.653,-20.643,-20.632,-20.624,-20.633,-20.614,-20.602,-20.581,-20.556,-20.551,-20.565,-20.581,-20.599,-20.596,-20.607,-20.625,-20.621,-20.623,-20.639,-20.668,-20.684,-20.676,-20.677,-20.686,-20.692,-20.691,-20.691,-20.682,-20.683,-20.684,-20.693,-20.69,-20.687,-20.686,-20.69,-20.696,-20.693,-20.679,-20.688,-20.685,-20.691,-20.69,-20.687,-20.706,-20.764,-20.797,-20.702,-20.517,-20.264,-19.971,-19.632,-19.382,-19.362,-19.719,-20.168,-20.586,-20.793,-20.769,-20.721,-20.653,-20.632,-20.617,-20.622,-20.609,-20.624,-20.626,-20.637,-20.623,-20.617,-20.615,-20.618,-20.62,-20.617,-20.601,-20.611,-20.609,-20.617,-20.602,-20.587,-20.583,-20.59,-20.591,-20.592,-20.582,-20.574,-20.565,-20.579,-20.574,-20.548,-20.55,-20.546,-20.547,-20.54,-20.517,-20.509,-20.502,-20.501,-20.489,-20.467,-20.454,-20.457,-20.445,-20.435,-20.418,-20.399,-20.385,-20.375,-20.36,-20.339,-20.313,-20.297,-20.286,-20.267,-20.246,-20.225,-20.218,-20.22,-20.212,-20.199,-20.189,-20.194,-20.205,-20.207,-20.237,-20.242,-20.273,-20.307,-20.346,-20.38,-20.403,-20.443,-20.491,-20.527,-20.554,-20.569,-20.587,-20.609,-20.626,-20.629,-20.63,-20.637,-20.653,-20.659,-20.663,-20.654,-20.649,-20.649,-20.663,-20.657,-20.653,-20.642,-20.648,-20.655,-20.651,-20.652,-20.644,-20.636,-20.647,-20.64,-20.64,-20.625,-20.63,-20.637,-20.637,-20.635,-20.63,-20.622,-20.638,-20.64,-20.638,-20.634,-20.638,-20.645,-20.655,-20.655,-20.644,-20.648,-20.653,-20.656,-20.653,-20.647,-20.653,-20.66,-20.665,-20.666,-20.661,-20.66,-20.661,-20.672,-20.677,-20.673,-20.669,-20.671,-20.675,-20.672,-20.665,-20.664,-20.674,-20.682,-20.682,-20.669,-20.665,-20.668,-20.671,-20.682,-20.672,-20.666,-20.672,-20.68,-20.677,-20.66,-20.655,-20.66,-20.665,-20.667,-20.663,-20.659,-20.657,-20.652,-20.645,-20.634,-20.621,-20.611,-20.589,-20.574,-20.556,-20.569,-20.595,-20.616,-20.627,-20.621,-20.617,-20.632,-20.622,-20.644,-20.67,-20.695,-20.715,-20.716,-20.719,-20.714,-20.711,-20.704,-20.714,-20.716,-20.716,-20.702,-20.706,-20.719,-20.72,-20.718,-20.71,-20.703,-20.71,-20.715,-20.719,-20.705,-20.702,-20.727,-20.789,-20.796,-20.755,-20.595,-20.361,-20.108,-19.827,-19.611,-19.322,-19.575,-20.063,-20.467,-20.765,-20.786,-20.733,-20.655,-20.627,-20.618,-20.626,-20.624,-20.639,-20.633,-20.638,-20.631,-20.628,-20.622,-20.638,-20.63,-20.625,-20.616,-20.613,-20.614,-20.609,-20.602,-20.59,-20.587,-20.599,-20.59,-20.588,-20.582,-20.574,-20.58,-20.575,-20.566,-20.552,-20.546,-20.546,-20.536,-20.534,-20.524,-20.513,-20.514,-20.5,-20.487,-20.466,-20.458,-20.459,-20.445,-20.436,-20.409,-20.381,-20.382,-20.377,-20.361,-20.332,-20.307,-20.291,-20.286,-20.265,-20.244,-20.223,-20.216,-20.211,-20.199,-20.186,-20.184,-20.187,-20.21,-20.225,-20.238,-20.263,-20.28,-20.319,-20.365,-20.395,-20.435,-20.469,-20.52,-20.551,-20.57,-20.594,-20.614,-20.633,-20.643,-20.649,-20.655,-20.655,-20.668,-20.682,-20.672,-20.658,-20.665,-20.664,-20.668,-20.66,-20.652,-20.651,-20.659,-20.663,-20.648,-20.638,-20.641,-20.648,-20.657,-20.639,-20.628,-20.632,-20.634,-20.637,-20.633,-20.62,-20.617,-20.619,-20.626,-20.622,-20.62,-20.619,-20.619,-20.631,-20.633,-20.621,-20.617,-20.62,-20.629,-20.631,-20.62,-20.62,-20.621,-20.637,-20.638,-20.629,-20.626,-20.616,-20.619,-20.626,-20.63,-20.629,-20.634,-20.646,-20.658,-20.65,-20.639,-20.645,-20.645,-20.655,-20.649,-20.637,-20.645,-20.651,-20.661,-20.653,-20.643,-20.644,-20.648,-20.66,-20.66,-20.65,-20.646,-20.647,-20.65,-20.657,-20.646,-20.644,-20.642,-20.653,-20.653,-20.655,-20.64,-20.631,-20.638,-20.639,-20.631,-20.615,-20.614,-20.598,-20.595,-20.577,-20.536,-20.528,-20.547,-20.58,-20.596,-20.591,-20.588,-20.604,-20.616,-20.616,-20.628,-20.648,-20.68,-20.695,-20.688,-20.688,-20.684,-20.685,-20.7,-20.698,-20.679,-20.688,-20.693,-20.704,-20.697,-20.683,-20.682,-20.684,-20.695,-20.698,-20.683,-20.683,-20.689,-20.705,-20.754,-20.784,-20.699,-20.527,-20.284,-20.033,-19.705,-19.363,-19.343,-19.701,-20.159,-20.551,-20.758,-20.779,-20.717,-20.652,-20.602,-20.584,-20.596,-20.611,-20.62,-20.625,-20.613,-20.608,-20.613,-20.621,-20.613,-20.602,-20.594,-20.598,-20.602,-20.593,-20.583,-20.576,-20.58,-20.584,-20.578,-20.564,-20.555,-20.556,-20.562,-20.555,-20.547,-20.529,-20.527,-20.531,-20.522,-20.516,-20.501,-20.502,-20.504,-20.486,-20.475,-20.456,-20.452,-20.45,-20.435,-20.414,-20.396,-20.388,-20.375,-20.372,-20.347,-20.31,-20.299,-20.285,-20.276,-20.253,-20.232,-20.213,-20.202,-20.2,-20.183,-20.164,-20.163,-20.162,-20.167,-20.17,-20.177,-20.19,-20.213,-20.257,-20.296,-20.324,-20.361,-20.397,-20.439,-20.472,-20.491,-20.514,-20.544,-20.577,-20.588,-20.593,-20.596,-20.607,-20.627,-20.629,-20.631,-20.621,-20.624,-20.63,-20.641,-20.641,-20.629,-20.631,-20.638,-20.637,-20.63,-20.619,-20.626,-20.623,-20.623,-20.608,-20.605,-20.612,-20.615,-20.622,-20.62,-20.61,-20.61,-20.605,-20.619,-20.617,-20.609,-20.607,-20.609,-20.627,-20.629,-20.619,-20.625,-20.625,-20.64,-20.635,-20.624,-20.626,-20.634,-20.646,-20.648,-20.643,-20.634,-20.64,-20.649,-20.64,-20.644,-20.637,-20.649,-20.654,-20.642,-20.633,-20.63,-20.629,-20.622,-20.619,-20.597,-20.554,-20.531,-20.533,-20.535,-20.553,-20.571,-20.581,-20.592,-20.602,-20.615,-20.624,-20.647,-20.681,-20.69,-20.687,-20.679,-20.683,-20.698,-20.704,-20.707,-20.691,-20.694,-20.695,-20.702,-20.704,-20.704,-20.701,-20.705,-20.715,-20.703,-20.701,-20.692,-20.701,-20.717,-20.753,-20.791,-20.743,-20.606,-20.399,-20.123,-19.823,-19.447,-19.351,-19.405,-19.783,-20.238,-20.63,-20.826,-20.811,-20.767,-20.682,-20.623,-20.605,-20.638,-20.638,-20.649,-20.623,-20.631,-20.629,-20.647,-20.631,-20.623,-20.616,-20.627,-20.622,-20.619,-20.605,-20.606,-20.599,-20.61,-20.598,-20.595,-20.586,-20.594,-20.594,-20.588,-20.572,-20.565,-20.56,-20.566,-20.556,-20.542,-20.535,-20.534,-20.535,-20.524,-20.508,-20.496,-20.484,-20.477,-20.467,-20.449,-20.425,-20.418,-20.409,-20.396,-20.374,-20.342,-20.327,-20.322,-20.302,-20.277,-20.267,-20.246,-20.237,-20.229,-20.221,-20.198,-20.194,-20.186,-20.204,-20.213,-20.218,-20.236,-20.26,-20.298,-20.323,-20.348,-20.391,-20.432,-20.482,-20.507,-20.516,-20.532,-20.558,-20.59,-20.604,-20.614,-20.624,-20.623,-20.643,-20.656,-20.648,-20.642,-20.649,-20.652,-20.656,-20.64,-20.633,-20.642,-20.647,-20.644,-20.643,-20.629,-20.639,-20.635,-20.642,-20.635,-20.613,-20.621,-20.629,-20.636,-20.627,-20.609,-20.609,-20.617,-20.624,-20.623,-20.621,-20.629,-20.635,-20.639,-20.645,-20.631,-20.626,-20.628,-20.649,-20.655,-20.646,-20.638,-20.636,-20.637,-20.649,-20.647,-20.645,-20.655,-20.666,-20.665,-20.652,-20.643,-20.65,-20.657,-20.656,-20.657,-20.653,-20.655,-20.65,-20.655,-20.655,-20.626,-20.631,-20.633,-20.638,-20.63,-20.602,-20.573,-20.554,-20.546,-20.543,-20.549,-20.58,-20.596,-20.606,-20.617,-20.607,-20.611,-20.636,-20.676,-20.682,-20.676,-20.676,-20.69,-20.7,-20.696,-20.69,-20.688,-20.692,-20.703,-20.699,-20.691,-20.683,-20.693,-20.699,-20.712,-20.702,-20.694,-20.692,-20.7,-20.695,-20.704,-20.744,-20.787,-20.742,-20.588,-20.361,-20.053,-19.724,-19.422,-19.363,-19.623,-20.073,-20.503,-20.71,-20.826,-20.801,-20.718,-20.671,-20.628,-20.63,-20.639,-20.634,-20.627,-20.634,-20.639,-20.631,-20.613,-20.614,-20.62,-20.623,-20.62,-20.614,-20.613,-20.608,-20.616,-20.607,-20.595,-20.593,-20.596,-20.605,-20.596,-20.582,-20.568,-20.57,-20.585,-20.578,-20.569,-20.552,-20.545,-20.551,-20.534,-20.522,-20.512,-20.505,-20.505,-20.503,-20.483,-20.456,-20.45,-20.444,-20.44,-20.421,-20.392,-20.371,-20.367,-20.352,-20.34,-20.316,-20.299,-20.288,-20.278,-20.258,-20.249,-20.235,-20.222,-20.228,-20.223,-20.22,-20.215,-20.231,-20.262,-20.293,-20.305,-20.331,-20.375,-20.42,-20.456,-20.479,-20.51,-20.541,-20.573,-20.588,-20.591,-20.591,-20.608,-20.634,-20.654,-20.652,-20.639,-20.658,-20.658,-20.664,-20.662,-20.653,-20.652,-20.659,-20.662,-20.656,-20.646,-20.647,-20.656,-20.654,-20.656,-20.65,-20.645,-20.647,-20.651,-20.652,-20.646,-20.646,-20.643,-20.644,-20.653,-20.65,-20.651,-20.647,-20.66,-20.669,-20.66,-20.657,-20.661,-20.667,-20.667,-20.664,-20.655,-20.667,-20.679,-20.686,-20.677,-20.664,-20.665,-20.673,-20.685,-20.689,-20.675,-20.689,-20.686,-20.689,-20.689,-20.683,-20.692,-20.695,-20.702,-20.702,-20.685,-20.684,-20.695,-20.697,-20.692,-20.685,-20.688,-20.697,-20.709,-20.709,-20.694,-20.693,-20.707,-20.704,-20.702,-20.692,-20.696,-20.698,-20.704,-20.695,-20.688,-20.677,-20.675,-20.677,-20.656,-20.648,-20.623,-20.603,-20.603,-20.619,-20.642,-20.641,-20.649,-20.655,-20.669,-20.68,-20.672,-20.685,-20.703,-20.716,-20.726,-20.737,-20.742,-20.751,-20.753,-20.753,-20.744,-20.742,-20.743,-20.75,-20.749,-20.742,-20.746,-20.753,-20.759,-20.749,-20.747,-20.746,-20.741,-20.751,-20.767,-20.8,-20.83,-20.785,-20.648,-20.426,-20.166,-19.871,-19.487,-19.399,-19.649,-20.096,-20.509,-20.799,-20.863,-20.798,-20.735,-20.689,-20.659,-20.661,-20.687,-20.675,-20.68,-20.668,-20.689,-20.68,-20.687,-20.666,-20.672,-20.674,-20.678,-20.663,-20.663,-20.654,-20.659,-20.659,-20.656,-20.64,-20.634,-20.629,-20.639,-20.637,-20.629,-20.618,-20.62,-20.615,-20.617,-20.603,-20.594,-20.586,-20.594,-20.575,-20.555,-20.551,-20.543,-20.533,-20.516,-20.508,-20.495,-20.477,-20.475,-20.464,-20.433,-20.415,-20.4,-20.39,-20.373,-20.352,-20.328,-20.316,-20.309,-20.298,-20.278,-20.261,-20.251,-20.254,-20.249,-20.245,-20.241,-20.248,-20.264,-20.292,-20.321,-20.343,-20.38,-20.42,-20.471,-20.501,-20.525,-20.56,-20.588,-20.626,-20.642,-20.642,-20.657,-20.669,-20.677,-20.683,-20.684,-20.687,-20.694,-20.706,-20.709,-20.698,-20.691,-20.698,-20.701,-20.699,-20.685,-20.683,-20.688,-20.697,-20.692,-20.682,-20.677,-20.67,-20.673,-20.683,-20.687,-20.671,-20.682,-20.684,-20.68,-20.683,-20.67,-20.68,-20.679,-20.687,-20.693,-20.683,-20.68,-20.691,-20.69,-20.701,-20.686,-20.688,-20.695,-20.711,-20.71,-20.707,-20.703,-20.711,-20.724,-20.717,-20.709,-20.714,-20.718,-20.725,-20.723,-20.713,-20.712,-20.719,-20.726,-20.73,-20.719,-20.717,-20.719,-20.724,-20.725,-20.733,-20.716,-20.711,-20.728,-20.723,-20.715,-20.702,-20.714,-20.737,-20.731,-20.721,-20.713,-20.713,-20.731,-20.727,-20.726,-20.718,-20.715,-20.722,-20.728,-20.72,-20.711,-20.723,-20.724,-20.729,-20.718,-20.725,-20.722,-20.722,-20.734,-20.732,-20.722,-20.717,-20.727,-20.728,-20.73,-20.713,-20.703,-20.693,-20.715,-20.716,-20.701,-20.683,-20.666,-20.671,-20.654,-20.618,-20.599,-20.617,-20.652,-20.663,-20.665,-20.659,-20.676,-20.69,-20.691,-20.701,-20.701,-20.721,-20.742,-20.762,-20.757,-20.747,-20.747,-20.742,-20.76,-20.76,-20.754,-20.763,-20.759,-20.763,-20.767,-20.756,-20.754,-20.766,-20.768,-20.76,-20.756,-20.753,-20.761,-20.775,-20.803,-20.837,-20.817,-20.696,-20.499,-20.252,-19.993,-19.595,-19.389,-19.557,-19.997,-20.428,-20.75,-20.852,-20.82,-20.783,-20.701,-20.649,-20.646,-20.675,-20.681,-20.688,-20.673,-20.677,-20.673,-20.68,-20.67,-20.664,-20.659,-20.667,-20.662,-20.649,-20.636,-20.64,-20.641,-20.652,-20.635,-20.623,-20.621,-20.62,-20.629,-20.627,-20.601,-20.595,-20.589,-20.595,-20.585,-20.57,-20.563,-20.562,-20.559,-20.545,-20.525,-20.515,-20.507,-20.508,-20.505,-20.489,-20.463,-20.456,-20.448,-20.434,-20.408,-20.384,-20.374,-20.355,-20.344,-20.325,-20.291,-20.277,-20.275,-20.259,-20.25,-20.23,-20.222,-20.216,-20.216,-20.213,-20.197,-20.207,-20.228,-20.26,-20.293,-20.316,-20.354,-20.39,-20.433,-20.458,-20.484,-20.526,-20.564,-20.596,-20.614,-20.611,-20.63,-20.642,-20.655,-20.663,-20.66,-20.656,-20.665,-20.679,-20.676,-20.668,-20.668,-20.669,-20.676,-20.671,-20.666,-20.658,-20.656,-20.662,-20.655,-20.645,-20.641,-20.643,-20.657,-20.662,-20.66,-20.649,-20.646,-20.65,-20.649,-20.649,-20.642,-20.647,-20.656,-20.661,-20.657,-20.645,-20.65,-20.659,-20.667,-20.668,-20.666,-20.658,-20.661,-20.684,-20.684,-20.672,-20.664,-20.673,-20.69,-20.691,-20.685,-20.675,-20.677,-20.69,-20.691,-20.685,-20.689,-20.687,-20.696,-20.696,-20.685,-20.685,-20.68,-20.687,-20.692,-20.691,-20.684,-20.69,-20.692,-20.695,-20.691,-20.683,-20.69,-20.695,-20.693,-20.688,-20.689,-20.693,-20.695,-20.696,-20.694,-20.693,-20.693,-20.696,-20.696,-20.692,-20.679,-20.68,-20.68,-20.679,-20.67,-20.645,-20.634,-20.622,-20.598,-20.581,-20.59,-20.613,-20.639,-20.645,-20.64,-20.638,-20.644,-20.648,-20.671,-20.7,-20.713,-20.718,-20.715,-20.729,-20.723,-20.716,-20.719,-20.73,-20.734,-20.738,-20.727,-20.725,-20.729,-20.729,-20.726,-20.725,-20.719,-20.721,-20.723,-20.73,-20.729,-20.725,-20.731,-20.751,-20.804,-20.826,-20.731,-20.56,-20.317,-20.026,-19.684,-19.428,-19.419,-19.763,-20.018,-20.418,-20.802,-20.814,-20.803,-20.726,-20.679,-20.637,-20.635,-20.626,-20.647,-20.658,-20.657,-20.65,-20.648,-20.645,-20.647,-20.625,-20.628,-20.624,-20.628,-20.628,-20.632,-20.62,-20.62,-20.623,-20.618,-20.606,-20.604,-20.598,-20.604,-20.594,-20.585,-20.572,-20.573,-20.569,-20.564,-20.559,-20.543,-20.542,-20.539,-20.538,-20.524,-20.497,-20.494,-20.492,-20.487,-20.465,-20.443,-20.434,-20.417,-20.411,-20.396,-20.369,-20.349,-20.336,-20.329,-20.31,-20.285,-20.275,-20.264,-20.261,-20.248,-20.236,-20.21,-20.211,-20.214,-20.212,-20.225,-20.234,-20.249,-20.292,-20.32,-20.349,-20.377,-20.412,-20.463,-20.493,-20.52,-20.533,-20.557,-20.581,-20.602,-20.616,-20.621,-20.646,-20.655,-20.655,-20.648,-20.644,-20.645,-20.656,-20.664,-20.665,-20.651,-20.64,-20.645,-20.652,-20.645,-20.643,-20.631,-20.634,-20.648,-20.642,-20.627,-20.622,-20.634,-20.646,-20.64,-20.633,-20.624,-20.627,-20.643,-20.641,-20.637,-20.64,-20.637,-20.657,-20.654,-20.652,-20.639,-20.641,-20.649,-20.66,-20.655,-20.651,-20.652,-20.656,-20.666,-20.66,-20.654,-20.653,-20.668,-20.681,-20.672,-20.666,-20.669,-20.672,-20.679,-20.678,-20.667,-20.665,-20.67,-20.688,-20.683,-20.681,-20.681,-20.675,-20.686,-20.687,-20.679,-20.674,-20.666,-20.677,-20.678,-20.662,-20.656,-20.648,-20.646,-20.638,-20.623,-20.595,-20.566,-20.574,-20.6,-20.623,-20.618,-20.614,-20.627,-20.648,-20.645,-20.643,-20.671,-20.694,-20.718,-20.712,-20.7,-20.709,-20.715,-20.721,-20.719,-20.707,-20.714,-20.714,-20.728,-20.727,-20.713,-20.714,-20.716,-20.718,-20.719,-20.712,-20.722,-20.72,-20.731,-20.727,-20.731,-20.775,-20.804,-20.786,-20.673,-20.446,-20.186,-19.903,-19.533,-19.385,-19.512,-19.934,-20.375,-20.746,-20.839,-20.789,-20.725,-20.66,-20.653,-20.635,-20.65,-20.636,-20.654,-20.646,-20.663,-20.649,-20.654,-20.638,-20.656,-20.645,-20.651,-20.625,-20.636,-20.627,-20.639,-20.616,-20.614,-20.607,-20.613,-20.606,-20.613,-20.583,-20.587,-20.575,-20.59,-20.581,-20.57,-20.556,-20.559,-20.556,-20.551,-20.532,-20.524,-20.517,-20.514,-20.501,-20.476,-20.463,-20.451,-20.454,-20.438,-20.42,-20.405,-20.388,-20.37,-20.36,-20.338,-20.32,-20.298,-20.299,-20.285,-20.269,-20.239,-20.229,-20.222,-20.218,-20.203,-20.199,-20.2,-20.229,-20.247,-20.271,-20.276,-20.307,-20.341,-20.388,-20.416,-20.446,-20.473,-20.509,-20.549,-20.583,-20.588,-20.605,-20.622,-20.642,-20.639,-20.641,-20.643,-20.651,-20.662,-20.656,-20.652,-20.646,-20.65,-20.66,-20.656,-20.648,-20.639,-20.64,-20.643,-20.647,-20.638,-20.627,-20.624,-20.643,-20.641,-20.634,-20.622,-20.63,-20.635,-20.637,-20.633,-20.628,-20.625,-20.635,-20.642,-20.646,-20.631,-20.636,-20.641,-20.653,-20.649,-20.641,-20.643,-20.655,-20.663,-20.653,-20.643,-20.647,-20.653,-20.664,-20.664,-20.664,-20.662,-20.659,-20.672,-20.67,-20.66,-20.655,-20.66,-20.675,-20.672,-20.663,-20.659,-20.661,-20.675,-20.673,-20.665,-20.663,-20.664,-20.669,-20.674,-20.675,-20.661,-20.663,-20.669,-20.676,-20.67,-20.664,-20.663,-20.67,-20.675,-20.675,-20.663,-20.667,-20.67,-20.682,-20.672,-20.665,-20.67,-20.672,-20.676,-20.678,-20.665,-20.654,-20.651,-20.661,-20.665,-20.645,-20.639,-20.625,-20.624,-20.613,-20.58,-20.549,-20.556,-20.584,-20.622,-20.615,-20.61,-20.609,-20.623,-20.633,-20.636,-20.643,-20.665,-20.69,-20.7,-20.697,-20.693,-20.7,-20.71,-20.704,-20.706,-20.696,-20.704,-20.713,-20.718,-20.71,-20.701,-20.7,-20.708,-20.709,-20.708,-20.696,-20.702,-20.706,-20.714,-20.733,-20.776,-20.777,-20.667,-20.474,-20.235,-19.967,-19.595,-19.36,-19.461,-19.871,-20.318,-20.51,-20.769,-20.808,-20.733,-20.669,-20.605,-20.609,-20.628,-20.643,-20.628,-20.629,-20.63,-20.644,-20.635,-20.634,-20.614,-20.615,-20.625,-20.619,-20.609,-20.601,-20.595,-20.608,-20.605,-20.595,-20.583,-20.584,-20.579,-20.589,-20.575,-20.558,-20.555,-20.561,-20.56,-20.549,-20.534,-20.522,-20.523,-20.519,-20.513,-20.499,-20.485,-20.48,-20.48,-20.465,-20.442,-20.428,-20.413,-20.41,-20.39,-20.371,-20.344,-20.326,-20.326,-20.298,-20.274,-20.257,-20.245,-20.239,-20.23,-20.212,-20.192,-20.177,-20.182,-20.176,-20.171,-20.169,-20.178,-20.203,-20.234,-20.252,-20.278,-20.318,-20.363,-20.404,-20.436,-20.464,-20.499,-20.534,-20.555,-20.568,-20.582,-20.597,-20.606,-20.626,-20.632,-20.627,-20.627,-20.632,-20.65,-20.639,-20.629,-20.627,-20.625,-20.636,-20.633,-20.617,-20.614,-20.615,-20.623,-20.622,-20.614,-20.607,-20.608,-20.619,-20.617,-20.608,-20.601,-20.6,-20.613,-20.612,-20.603,-20.598,-20.599,-20.609,-20.608,-20.603,-20.6,-20.603,-20.612,-20.619,-20.617,-20.604,-20.603,-20.611,-20.617,-20.618,-20.619,-20.618,-20.626,-20.635,-20.629,-20.623,-20.623,-20.624,-20.634,-20.631,-20.619,-20.627,-20.632,-20.639,-20.639,-20.634,-20.63,-20.636,-20.65,-20.651,-20.64,-20.633,-20.638,-20.65,-20.651,-20.643,-20.642,-20.646,-20.653,-20.652,-20.637,-20.638,-20.639,-20.647,-20.649,-20.645,-20.631,-20.643,-20.649,-20.655,-20.651,-20.637,-20.645,-20.656,-20.659,-20.651,-20.633,-20.638,-20.64,-20.639,-20.639,-20.632,-20.626,-20.63,-20.634,-20.624,-20.604,-20.586,-20.579,-20.566,-20.533,-20.518,-20.536,-20.571,-20.593,-20.587,-20.577,-20.59,-20.599,-20.613,-20.631,-20.634,-20.646,-20.653,-20.661,-20.663,-20.665,-20.657,-20.655,-20.666,-20.672,-20.666,-20.66,-20.661,-20.672,-20.672,-20.665,-20.655,-20.655,-20.666,-20.66,-20.662,-20.658,-20.658,-20.682,-20.73,-20.744,-20.653,-20.474,-20.247,-19.992,-19.643,-19.353,-19.362,-19.747,-20.215,-20.601,-20.773,-20.756,-20.699,-20.636,-20.61,-20.574,-20.579,-20.59,-20.609,-20.604,-20.6,-20.599,-20.598,-20.601,-20.601,-20.588,-20.58,-20.58,-20.594,-20.589,-20.58,-20.569,-20.566,-20.57,-20.567,-20.557,-20.548,-20.546,-20.553,-20.554,-20.543,-20.525,-20.521,-20.527,-20.52,-20.502,-20.494,-20.49,-20.484,-20.485,-20.462,-20.44,-20.435,-20.432,-20.436,-20.417,-20.392,-20.374,-20.355,-20.35,-20.334,-20.31,-20.29,-20.273,-20.267,-20.246,-20.22,-20.208,-20.196,-20.193,-20.178,-20.156,-20.149,-20.147,-20.155,-20.159,-20.161,-20.168,-20.187,-20.223,-20.252,-20.285,-20.31,-20.356,-20.402,-20.442,-20.462,-20.487,-20.522,-20.546,-20.563,-20.573,-20.573,-20.586,-20.589,-20.607,-20.608,-20.599,-20.607,-20.61,-20.615,-20.612,-20.604,-20.603,-20.607,-20.612,-20.608,-20.596,-20.591,-20.594,-20.604,-20.606,-20.595,-20.594,-20.595,-20.604,-20.598,-20.592,-20.591,-20.601,-20.614,-20.614,-20.602,-20.594,-20.597,-20.611,-20.611,-20.607,-20.607,-20.603,-20.61,-20.619,-20.615,-20.607,-20.61,-20.618,-20.622,-20.624,-20.61,-20.609,-20.619,-20.627,-20.625,-20.62,-20.624,-20.627,-20.625,-20.619,-20.612,-20.623,-20.629,-20.634,-20.633,-20.627,-20.621,-20.628,-20.635,-20.631,-20.629,-20.624,-20.634,-20.636,-20.635,-20.621,-20.623,-20.632,-20.643,-20.632,-20.621,-20.61,-20.615,-20.63,-20.633,-20.627,-20.601,-20.602,-20.6,-20.592,-20.58,-20.536,-20.513,-20.535,-20.563,-20.583,-20.578,-20.573,-20.59,-20.595,-20.608,-20.621,-20.642,-20.665,-20.675,-20.674,-20.668,-20.671,-20.675,-20.682,-20.685,-20.68,-20.679,-20.685,-20.696,-20.692,-20.681,-20.681,-20.684,-20.685,-20.687,-20.68,-20.685,-20.689,-20.694,-20.69,-20.696,-20.733,-20.788,-20.75,-20.603,-20.36,-20.07,-19.753,-19.429,-19.338,-19.549,-19.986,-20.422,-20.765,-20.78,-20.727,-20.67,-20.606,-20.598,-20.581,-20.598,-20.584,-20.598,-20.599,-20.614,-20.587,-20.589,-20.584,-20.595,-20.598,-20.591,-20.573,-20.577,-20.574,-20.586,-20.573,-20.567,-20.56,-20.566,-20.564,-20.564,-20.546,-20.546,-20.543,-20.559,-20.548,-20.536,-20.525,-20.52,-20.525,-20.516,-20.494,-20.489,-20.484,-20.483,-20.473,-20.454,-20.432,-20.425,-20.421,-20.419,-20.397,-20.37,-20.363,-20.347,-20.342,-20.316,-20.292,-20.274,-20.27,-20.264,-20.248,-20.219,-20.217,-20.21,-20.207,-20.191,-20.185,-20.183,-20.195,-20.217,-20.237,-20.25,-20.289,-20.321,-20.374,-20.401,-20.429,-20.458,-20.498,-20.53,-20.556,-20.57,-20.591,-20.602,-20.621,-20.626,-20.619,-20.616,-20.627,-20.635,-20.645,-20.642,-20.632,-20.632,-20.64,-20.637,-20.633,-20.623,-20.629,-20.634,-20.633,-20.625,-20.623,-20.627,-20.634,-20.631,-20.621,-20.611,-20.616,-20.625,-20.629,-20.625,-20.616,-20.616,-20.625,-20.634,-20.638,-20.63,-20.635,-20.632,-20.642,-20.639,-20.625,-20.633,-20.644,-20.658,-20.653,-20.652,-20.65,-20.655,-20.665,-20.661,-20.659,-20.656,-20.661,-20.675,-20.668,-20.664,-20.664,-20.661,-20.679,-20.678,-20.67,-20.663,-20.665,-20.682,-20.678,-20.674,-20.661,-20.662,-20.673,-20.679,-20.677,-20.667,-20.671,-20.679,-20.683,-20.679,-20.671,-20.672,-20.679,-20.673,-20.663,-20.651,-20.657,-20.664,-20.664,-20.657,-20.628,-20.624,-20.612,-20.597,-20.568,-20.576,-20.598,-20.623,-20.635,-20.629,-20.625,-20.633,-20.637,-20.662,-20.669,-20.68,-20.694,-20.701,-20.71,-20.708,-20.709,-20.704,-20.71,-20.72,-20.722,-20.714,-20.714,-20.712,-20.723,-20.717,-20.708,-20.71,-20.709,-20.721,-20.723,-20.715,-20.713,-20.752,-20.78,-20.805,-20.714,-20.52,-20.286,-20.023,-19.699,-19.393,-19.381,-19.742,-20.201,-20.603,-20.8,-20.783,-20.722,-20.664,-20.632,-20.621,-20.638,-20.642,-20.647,-20.654,-20.658,-20.64,-20.639,-20.633,-20.641,-20.639,-20.634,-20.62,-20.623,-20.624,-20.624,-20.61,-20.607,-20.6,-20.603,-20.602,-20.59,-20.581,-20.58,-20.585,-20.587,-20.573,-20.558,-20.556,-20.555,-20.556,-20.543,-20.525,-20.522,-20.514,-20.511,-20.5,-20.475,-20.466,-20.458,-20.452,-20.429,-20.404,-20.398,-20.393,-20.376,-20.365,-20.335,-20.32,-20.307,-20.297,-20.286,-20.255,-20.237,-20.236,-20.229,-20.218,-20.197,-20.194,-20.194,-20.207,-20.22,-20.227,-20.24,-20.278,-20.31,-20.35,-20.384,-20.418,-20.459,-20.497,-20.527,-20.553,-20.569,-20.593,-20.616,-20.628,-20.631,-20.632,-20.638,-20.655,-20.656,-20.658,-20.646,-20.648,-20.659,-20.656,-20.657,-20.647,-20.645,-20.647,-20.653,-20.647,-20.637,-20.64,-20.642,-20.639,-20.638,-20.629,-20.632,-20.638,-20.64,-20.637,-20.633,-20.629,-20.63,-20.641,-20.642,-20.632,-20.629,-20.635,-20.649,-20.646,-20.643,-20.64,-20.642,-20.657,-20.656,-20.651,-20.644,-20.655,-20.668,-20.668,-20.661,-20.652,-20.656,-20.662,-20.668,-20.668,-20.659,-20.655,-20.666,-20.67,-20.667,-20.658,-20.664,-20.672,-20.673,-20.67,-20.663,-20.666,-20.677,-20.683,-20.674,-20.666,-20.669,-20.671,-20.687,-20.678,-20.672,-20.671,-20.673,-20.684,-20.681,-20.674,-20.672,-20.675,-20.685,-20.679,-20.675,-20.671,-20.678,-20.683,-20.68,-20.674,-20.672,-20.677,-20.684,-20.685,-20.68,-20.67,-20.664,-20.67,-20.666,-20.666,-20.653,-20.645,-20.651,-20.631,-20.618,-20.592,-20.563,-20.558,-20.575,-20.591,-20.609,-20.615,-20.619,-20.631,-20.637,-20.63,-20.644,-20.667,-20.693,-20.701,-20.696,-20.704,-20.705,-20.714,-20.705,-20.7,-20.698,-20.7,-20.711,-20.719,-20.701,-20.703,-20.699,-20.712,-20.712,-20.703,-20.704,-20.706,-20.717,-20.726,-20.759,-20.793,-20.738,-20.592,-20.364,-20.104,-19.965,-19.608,-19.36,-19.453,-19.865,-20.321,-20.666,-20.813,-20.785,-20.71,-20.627,-20.614,-20.619,-20.644,-20.632,-20.632,-20.625,-20.641,-20.634,-20.639,-20.62,-20.628,-20.617,-20.632,-20.618,-20.617,-20.598,-20.607,-20.606,-20.606,-20.587,-20.589,-20.583,-20.588,-20.586,-20.565,-20.559,-20.56,-20.557,-20.554,-20.54,-20.526,-20.517,-20.526,-20.517,-20.504,-20.483,-20.481,-20.475,-20.468,-20.447,-20.433,-20.421,-20.411,-20.398,-20.379,-20.357,-20.337,-20.332,-20.31,-20.301,-20.27,-20.256,-20.245,-20.236,-20.223,-20.2,-20.186,-20.181,-20.175,-20.173,-20.164,-20.171,-20.187,-20.214,-20.24,-20.262,-20.296,-20.339,-20.379,-20.401,-20.427,-20.456,-20.489,-20.532,-20.551,-20.571,-20.574,-20.6,-20.622,-20.629,-20.625,-20.627,-20.632,-20.647,-20.64,-20.635,-20.623,-20.63,-20.643,-20.643,-20.632,-20.621,-20.617,-20.626,-20.619,-20.625,-20.615,-20.616,-20.621,-20.634,-20.628,-20.612,-20.609,-20.621,-20.619,-20.624,-20.612,-20.609,-20.615,-20.625,-20.62,-20.62,-20.617,-20.62,-20.638,-20.631,-20.622,-20.63,-20.634,-20.64,-20.635,-20.632,-20.626,-20.617,-20.634,-20.641,-20.64,-20.638,-20.634,-20.651,-20.661,-20.654,-20.645,-20.65,-20.647,-20.659,-20.653,-20.632,-20.626,-20.644,-20.665,-20.657,-20.647,-20.648,-20.646,-20.629,-20.642,-20.647,-20.651,-20.651,-20.669,-20.657,-20.635,-20.636,-20.642,-20.668,-20.648,-20.63,-20.633,-20.649,-20.675,-20.659,-20.624,-20.644,-20.666,-20.655,-20.646,-20.661,-20.659,-20.653,-20.68,-20.662,-20.637,-20.627,-20.663,-20.661,-20.636,-20.634,-20.618,-20.604,-20.57,-20.523,-20.523,-20.568,-20.576,-20.599,-20.622,-20.599,-20.578,-20.618,-20.619,-20.62,-20.652,-20.651,-20.698,-20.648,-20.705,-20.71,-20.674,-20.664,-20.678,-20.702,-20.678,-20.663,-20.719,-20.688,-20.689,-20.673,-20.674,-20.681,-20.645,-20.718,-20.712,-20.694,-20.673,-20.723,-20.778,-20.739,-20.648,-20.419,-20.165,-19.891,-19.479,-19.326,-19.458,-19.926,-20.365,-20.724,-20.808,-20.77,-20.713,-20.664,-20.627,-20.574,-20.612,-20.571,-20.608,-20.626,-20.607,-20.614,-20.62,-20.595,-20.6,-20.575,-20.613,-20.577,-20.581,-20.579,-20.588,-20.591,-20.569,-20.565,-20.567,-20.578,-20.553,-20.535,-20.538,-20.513,-20.568,-20.543,-20.513,-20.486,-20.502,-20.51,-20.492,-20.464,-20.476,-20.496,-20.473,-20.458,-20.425,-20.382,-20.485,-20.417,-20.364,-20.388,-20.354,-20.344,-20.333,-20.281,-20.294,-20.293,-20.248,-20.233,-20.246,-20.216,-20.199,-20.198,-20.174,-20.177,-20.152,-20.159,-20.153,-20.194,-20.127,-20.183,-20.184,-20.244,-20.282,-20.309,-20.355,-20.377,-20.414,-20.447,-20.498,-20.495,-20.486,-20.544,-20.574,-20.599,-20.574,-20.587,-20.585,-20.604,-20.614,-20.602,-20.576,-20.591,-20.588,-20.62,-20.608,-20.585,-20.596,-20.59,-20.571,-20.601,-20.571,-20.568,-20.602,-20.578,-20.562,-20.562,-20.565,-20.587,-20.604,-20.594,-20.566,-20.559,-20.595,-20.612,-20.611,-20.611,-20.615,-20.638,-20.641,-20.613,-20.613,-20.601,-20.615,-20.638,-20.648,-20.609,-20.632,-20.662,-20.675,-20.664,-20.66,-20.676,-20.672,-20.667,-20.68,-20.661,-20.665,-20.687,-20.658,-20.676,-20.68,-20.677,-20.664,-20.644,-20.638,-20.634,-20.604,-20.583,-20.597,-20.568,-20.583,-20.58,-20.605,-20.636,-20.647,-20.647,-20.648,-20.65,-20.686,-20.701,-20.702,-20.713,-20.717,-20.708,-20.713,-20.72,-20.679,-20.704,-20.695,-20.686,-20.691,-20.676,-20.694,-20.722,-20.714,-20.676,-20.742,-20.727,-20.704,-20.705,-20.74,-20.79,-20.828,-20.771,-20.653,-20.449,-20.142,-19.791,-19.482,-19.441,-19.647,-20.062,-20.478,-20.808,-20.858,-20.81,-20.75,-20.684,-20.657,-20.652,-20.666,-20.654,-20.649,-20.64,-20.653,-20.654,-20.638,-20.615,-20.622,-20.627,-20.625,-20.621,-20.603,-20.601,-20.606,-20.593,-20.587,-20.568,-20.575,-20.57,-20.574,-20.565,-20.544,-20.54,-20.543,-20.541,-20.538,-20.509,-20.5,-20.503,-20.51,-20.494,-20.462,-20.457,-20.471,-20.456,-20.431,-20.42,-20.423,-20.407,-20.41,-20.398,-20.366,-20.346,-20.33,-20.321,-20.326,-20.28,-20.276,-20.265,-20.254,-20.267,-20.231,-20.216,-20.218,-20.212,-20.217,-20.238,-20.221,-20.248,-20.274,-20.292,-20.321,-20.335,-20.385,-20.447,-20.477,-20.493,-20.512,-20.562,-20.601,-20.622,-20.622,-20.641,-20.636,-20.666,-20.671,-20.68,-20.646,-20.66,-20.664,-20.674,-20.674,-20.669,-20.661,-20.648,-20.654,-20.66,-20.664,-20.642,-20.646,-20.644,-20.639,-20.63,-20.627,-20.631,-20.634,-20.633,-20.625,-20.616,-20.616,-20.632,-20.637,-20.625,-20.617,-20.623,-20.64,-20.64,-20.638,-20.63,-20.648,-20.652,-20.653,-20.651,-20.648,-20.653,-20.661,-20.665,-20.658,-20.65,-20.661,-20.662,-20.673,-20.671,-20.661,-20.666,-20.667,-20.681,-20.677,-20.664,-20.659,-20.668,-20.664,-20.658,-20.643,-20.625,-20.597,-20.584,-20.57,-20.564,-20.572,-20.591,-20.626,-20.628,-20.641,-20.632,-20.65,-20.684,-20.696,-20.706,-20.704,-20.711,-20.723,-20.716,-20.714,-20.713,-20.715,-20.726,-20.726,-20.719,-20.708,-20.713,-20.711,-20.722,-20.718,-20.713,-20.711,-20.717,-20.725,-20.731,-20.756,-20.803,-20.773,-20.635,-20.402,-20.12,-19.829,-19.453,-19.343,-19.39,-19.744,-20.206,-20.603,-20.811,-20.798,-20.739,-20.663,-20.639,-20.626,-20.646,-20.631,-20.638,-20.633,-20.647,-20.639,-20.635,-20.622,-20.64,-20.626,-20.624,-20.609,-20.609,-20.601,-20.61,-20.608,-20.608,-20.586,-20.598,-20.588,-20.594,-20.588,-20.58,-20.574,-20.583,-20.569,-20.56,-20.542,-20.541,-20.536,-20.535,-20.531,-20.508,-20.494,-20.483,-20.49,-20.483,-20.451,-20.437,-20.426,-20.419,-20.404,-20.373,-20.362,-20.347,-20.343,-20.314,-20.296,-20.275,-20.27,-20.267,-20.252,-20.231,-20.218,-20.203,-20.213,-20.197,-20.2,-20.193,-20.216,-20.244,-20.272,-20.296,-20.326,-20.36,-20.41,-20.432,-20.47,-20.496,-20.512,-20.549,-20.574,-20.589,-20.595,-20.611,-20.628,-20.64,-20.646,-20.639,-20.642,-20.647,-20.655,-20.649,-20.646,-20.647,-20.662,-20.653,-20.646,-20.639,-20.644,-20.639,-20.651,-20.642,-20.635,-20.633,-20.637,-20.645,-20.639,-20.63,-20.628,-20.633,-20.645,-20.636,-20.624,-20.623,-20.633,-20.641,-20.634,-20.631,-20.631,-20.63,-20.645,-20.649,-20.64,-20.637,-20.636,-20.658,-20.659,-20.649,-20.649,-20.646,-20.668,-20.67,-20.669,-20.659,-20.661,-20.671,-20.672,-20.66,-20.66,-20.666,-20.673,-20.684,-20.683,-20.667,-20.666,-20.672,-20.682,-20.676,-20.661,-20.667,-20.656,-20.669,-20.666,-20.648,-20.644,-20.649,-20.634,-20.62,-20.603,-20.579
