-0.3701,-0.35725,-0.30495,-0.31919,-0.32361,-0.31909,-0.33086,-0.35447,-0.37359,-0.38676,-0.4119,-0.42958,-0.45008,-0.47066,-0.46085,-0.47669,-0.4876,-0.49301,-0.48068,-0.47033,-0.47076,-0.44028,-0.4782,-0.46936,-0.45584,-0.46659,-0.54448,-0.63264,-0.5889,-0.51729,-0.25686,0.1412,0.5197,0.89455,1.1461,1.0656,0.75776,0.27598,0.045301,-0.20976,-0.31785,-0.36888,-0.46397,-0.45373,-0.49192,-0.47769,-0.50007,-0.48741,-0.51156,-0.49632,-0.4993,-0.49131,-0.48753,-0.46766,-0.47624,-0.4782,-0.50057,-0.48082,-0.48281,-0.44709,-0.44708,-0.43046,-0.46057,-0.47816,-0.48412,-0.47345,-0.45536,-0.43153,-0.40737,-0.40906,-0.39614,-0.37749,-0.40235,-0.40566,-0.39752,-0.36901,-0.36024,-0.35878,-0.35925,-0.36444,-0.32658,-0.28795,-0.27191,-0.25858,-0.24636,-0.2276,-0.20035,-0.19104,-0.19775,-0.19414,-0.19464,-0.15797,-0.14649,-0.17487,-0.17199,-0.18603,-0.19921,-0.20446,-0.23536,-0.22854,-0.25111,-0.25871,-0.29774,-0.30396,-0.306,-0.30471,-0.31302,-0.3332,-0.34346,-0.33813,-0.33133,-0.33818,-0.33435,-0.35686,-0.35692,-0.34095,-0.32631,-0.33987,-0.33927,-0.34444,-0.34459,-0.33519,-0.33432,-0.33491,-0.31793,-0.32637,-0.2916,-0.29618,-0.29939,-0.32136,-0.2928,-0.28836,-0.31282,-0.34069,-0.3243,-0.31233,-0.32558,-0.34016,-0.33415,-0.34964,-0.34127,-0.33266,-0.3241,-0.30732,-0.29093,-0.32904,-0.32515,-0.31471,-0.31484,-0.29732,-0.29616,-0.3236,-0.38327,-0.37394,-0.33492,-0.31548,-0.3203,-0.33624,-0.33845,-0.34757,-0.30994,-0.30732,-0.30871,-0.28296,-0.29152,-0.29029,-0.28894,-0.27031,-0.24326,-0.23174,-0.20176,-0.167,-0.18947,-0.1793,-0.1751,-0.21233,-0.22993,-0.23216,-0.28032,-0.32357,-0.32887,-0.30122,-0.27647,-0.30613,-0.33359,-0.37233,-0.37779,-0.36491,-0.33673,-0.34034,-0.35286,-0.37667,-0.33904,-0.33784,-0.33048,-0.36537,-0.48874,-0.51068,-0.44804,-0.21255,0.1277,0.51893,0.75278,1.1241,1.2988,1.1841,0.84745,0.32932,0.00042892,-0.17018,-0.22722,-0.28387,-0.28397,-0.34031,-0.32944,-0.36765,-0.33353,-0.35446,-0.33438,-0.36875,-0.39031,-0.39174,-0.35292,-0.33786,-0.36704,-0.37113,-0.35738,-0.35422,-0.34947,-0.34177,-0.34396,-0.34556,-0.34006,-0.31347,-0.30517,-0.32637,-0.34127,-0.33576,-0.3366,-0.29619,-0.26879,-0.32228,-0.32969,-0.33501,-0.31049,-0.25379,-0.25834,-0.24266,-0.23528,-0.2539,-0.25865,-0.21743,-0.1807,-0.15775,-0.16008,-0.14493,-0.14676,-0.12389,-0.087399,-0.069482,-0.10325,-0.08521,-0.12629,-0.091592,-0.10412,-0.10094,-0.12731,-0.14315,-0.17056,-0.18734,-0.18295,-0.19259,-0.22509,-0.22101,-0.2362,-0.2305,-0.24367,-0.24821,-0.29921,-0.30613,-0.29813,-0.29268,-0.29487,-0.27374,-0.26075,-0.26824,-0.28112,-0.28216,-0.27718,-0.28662,-0.2697,-0.25683,-0.23669,-0.24375,-0.27215,-0.28616,-0.26332,-0.29144,-0.2765,-0.28241,-0.29703,-0.29231,-0.26081,-0.27352,-0.27116,-0.25427,-0.27342,-0.25775,-0.28186,-0.25848,-0.2767,-0.29969,-0.32054,-0.3106,-0.30336,-0.30824,-0.32985,-0.32484,-0.3189,-0.30138,-0.25503,-0.28439,-0.2933,-0.30039,-0.30659,-0.31395,-0.33159,-0.3226,-0.31228,-0.29683,-0.26828,-0.29307,-0.27737,-0.25188,-0.26043,-0.2374,-0.2051,-0.20313,-0.19722,-0.18033,-0.17356,-0.15478,-0.20636,-0.20813,-0.2449,-0.28021,-0.2834,-0.31368,-0.31901,-0.30666,-0.3332,-0.32978,-0.32735,-0.33265,-0.32979,-0.33222,-0.27772,-0.29717,-0.34227,-0.34614,-0.30973,-0.33557,-0.44247,-0.47843,-0.42313,-0.33811,-0.082741,0.10419,0.48695,0.90267,1.2341,1.2503,1.0423,0.58473,0.13547,-0.096315,-0.1726,-0.2448,-0.30121,-0.31563,-0.34363,-0.3308,-0.34191,-0.3487,-0.35776,-0.34027,-0.36036,-0.34419,-0.34609,-0.3111,-0.35336,-0.35795,-0.36424,-0.34505,-0.33873,-0.3263,-0.32274,-0.2995,-0.3253,-0.32356,-0.29388,-0.2987,-0.28997,-0.28437,-0.2672,-0.26861,-0.23965,-0.22881,-0.22764,-0.23425,-0.23203,-0.22042,-0.21495,-0.18728,-0.19294,-0.16224,-0.13062,-0.09587,-0.099104,-0.10754,-0.06686,-0.07299,-0.062993,-0.042471,-0.044797,-0.030749,-0.035177,-0.012651,-0.012788,-0.031653,-0.041763,-0.05321,-0.056757,-0.077779,-0.10588,-0.13083,-0.12187,-0.1511,-0.17345,-0.20829,-0.2046,-0.21191,-0.22974,-0.2303,-0.23631,-0.24696,-0.25455,-0.24896,-0.25204,-0.24835,-0.23942,-0.24822,-0.25344,-0.2516,-0.23084,-0.24416,-0.27266,-0.26226,-0.24751,-0.23741,-0.25429,-0.26138,-0.2472,-0.25302,-0.25152,-0.24889,-0.24624,-0.21713,-0.22966,-0.27257,-0.2712,-0.28299,-0.26466,-0.25724,-0.24015,-0.25878,-0.26058,-0.26328,-0.27275,-0.2732,-0.25242,-0.24802,-0.25338,-0.2597,-0.26312,-0.25067,-0.28583,-0.28483,-0.23703,-0.25391,-0.27476,-0.29047,-0.25911,-0.2258,-0.24838,-0.21942,-0.22378,-0.24066,-0.25283,-0.21347,-0.16014,-0.14963,-0.17549,-0.18746,-0.20043,-0.16928,-0.2275,-0.23225,-0.2351,-0.28187,-0.32124,-0.31479,-0.26539,-0.27672,-0.2701,-0.275,-0.27307,-0.27831,-0.28238,-0.30156,-0.29245,-0.30914,-0.30757,-0.29314,-0.30113,-0.38491,-0.45741,-0.44514,-0.32892,-0.022993,0.37457,0.59751,0.998,1.3064,1.2867,1.0622,0.54929,0.14713,-0.086415,-0.16201,-0.23367,-0.27099,-0.29278,-0.30245,-0.32622,-0.31647,-0.31815,-0.31727,-0.3285,-0.31897,-0.33332,-0.32645,-0.32223,-0.32491,-0.32239,-0.32914,-0.32782,-0.31824,-0.33074,-0.32551,-0.31905,-0.33498,-0.31222,-0.3288,-0.34706,-0.34446,-0.321,-0.33374,-0.30415,-0.28296,-0.27117,-0.26423,-0.25415,-0.24247,-0.26282,-0.28379,-0.26588,-0.23907,-0.18999,-0.18281,-0.18096,-0.19072,-0.17673,-0.12987,-0.11778,-0.10675,-0.063289,-0.074277,-0.057819,-0.075565,-0.078346,-0.10137,-0.092031,-0.079525,-0.10041,-0.10298,-0.13986,-0.14832,-0.18431,-0.19039,-0.20668,-0.20491,-0.21375,-0.23391,-0.2518,-0.28464,-0.31179,-0.30043,-0.31039,-0.32044,-0.33361,-0.29469,-0.31048,-0.3124,-0.33261,-0.32152,-0.26981,-0.24079,-0.27701,-0.30958,-0.31889,-0.29936,-0.3008,-0.30615,-0.298,-0.29045,-0.28379,-0.29033,-0.29375,-0.3,-0.29339,-0.30755,-0.30664,-0.31495,-0.31616,-0.31782,-0.31492,-0.31413,-0.3116,-0.30612,-0.32081,-0.32326,-0.32121,-0.32825,-0.3288,-0.33239,-0.31322,-0.30158,-0.28982,-0.29575,-0.30034,-0.2813,-0.24071,-0.23237,-0.23381,-0.22576,-0.21225,-0.20867,-0.20452,-0.19999,-0.20873,-0.26825,-0.3133,-0.34456,-0.3635,-0.33355,-0.33929,-0.36834,-0.38926,-0.38468,-0.36951,-0.37672,-0.37837,-0.39093,-0.39495,-0.39255,-0.38297,-0.3748,-0.37706,-0.40919,-0.48357,-0.52563,-0.50224,-0.3278,-0.03845,0.36649,0.79857,1.1404,1.2387,1.0628,0.60513,0.15625,-0.11295,-0.2367,-0.30122,-0.34517,-0.3359,-0.37103,-0.35039,-0.38895,-0.38874,-0.39858,-0.39348,-0.40164,-0.39308,-0.40407,-0.39617,-0.3979,-0.40791,-0.42064,-0.39425,-0.40274,-0.39971,-0.39086,-0.38643,-0.40199,-0.38471,-0.39724,-0.40072,-0.37413,-0.37252,-0.36522,-0.37193,-0.33698,-0.32737,-0.34764,-0.35657,-0.35192,-0.32524,-0.29971,-0.30656,-0.28618,-0.27587,-0.25116,-0.23949,-0.22842,-0.20796,-0.20688,-0.19927,-0.15959,-0.14807,-0.1695,-0.14577,-0.14611,-0.14698,-0.13698,-0.13633,-0.14396,-0.17452,-0.18276,-0.21178,-0.21731,-0.22688,-0.24225,-0.26498,-0.27533,-0.30456,-0.30822,-0.3123,-0.30752,-0.32936,-0.35053,-0.35403,-0.3481,-0.33185,-0.34194,-0.34259,-0.34009,-0.35586,-0.35856,-0.36494,-0.36153,-0.38276,-0.3586,-0.35353,-0.34909,-0.33826,-0.35253,-0.36116,-0.35402,-0.35014,-0.33727,-0.35461,-0.34773,-0.34628,-0.34881,-0.33811,-0.33471,-0.33164,-0.32573,-0.32092,-0.33712,-0.37151,-0.38986,-0.38958,-0.38557,-0.37342,-0.35908,-0.32428,-0.30718,-0.32558,-0.33454,-0.32264,-0.28604,-0.27546,-0.24372,-0.24961,-0.24213,-0.25239,-0.27433,-0.2639,-0.28554,-0.316,-0.34578,-0.39255,-0.39457,-0.39063,-0.39072,-0.40043,-0.41698,-0.41572,-0.40243,-0.38915,-0.40553,-0.40668,-0.4086,-0.39534,-0.41213,-0.41449,-0.41498,-0.47467,-0.56136,-0.55583,-0.48312,-0.2312,0.12149,0.54909,0.90844,1.1428,1.1204,0.9863,0.54746,0.09158,-0.15843,-0.28678,-0.32572,-0.35703,-0.37148,-0.40097,-0.3746,-0.42225,-0.41269,-0.43168,-0.42696,-0.41606,-0.41631,-0.42774,-0.40937,-0.41823,-0.41811,-0.43176,-0.43345,-0.42761,-0.40562,-0.40882,-0.3999,-0.39536,-0.40387,-0.42035,-0.41677,-0.41081,-0.39962,-0.38345,-0.3754,-0.37174,-0.3586,-0.35717,-0.33706,-0.3248,-0.35054,-0.33828,-0.33526,-0.31063,-0.2838,-0.2615,-0.25854,-0.27303,-0.22948,-0.22558,-0.21148,-0.19042,-0.17465,-0.15518,-0.16242,-0.19145,-0.18959,-0.19199,-0.178,-0.18809,-0.20623,-0.2109,-0.23713,-0.23431,-0.24499,-0.27549,-0.31494,-0.32162,-0.34537,-0.33656,-0.34418,-0.35786,-0.39286,-0.39842,-0.39708,-0.39414,-0.40583,-0.3934,-0.39487,-0.39424,-0.39218,-0.3848,-0.39716,-0.39575,-0.39692,-0.37781,-0.38751,-0.38979,-0.39563,-0.37991,-0.38983,-0.38659,-0.39077,-0.37602,-0.34518,-0.34229,-0.38409,-0.35959,-0.36726,-0.35956,-0.35582,-0.35179,-0.35513,-0.35147,-0.33979,-0.31935,-0.28231,-0.29696,-0.29306,-0.27867,-0.27682,-0.26432,-0.27852,-0.30783,-0.34548,-0.35039,-0.38756,-0.43052,-0.44246,-0.42197,-0.41832,-0.4403,-0.44388,-0.45045,-0.45512,-0.45845,-0.43449,-0.45314,-0.44256,-0.46401,-0.45643,-0.4404,-0.46729,-0.55366,-0.57626,-0.56694,-0.395,-0.08585,0.34308,0.77423,1.0875,1.1618,0.97947,0.52733,0.062999,-0.098367,-0.26035,-0.32937,-0.38752,-0.42964,-0.44473,-0.45412,-0.43486,-0.4481,-0.46043,-0.48181,-0.44855,-0.45563,-0.47937,-0.47975,-0.45695,-0.44549,-0.44994,-0.43842,-0.45412,-0.47073,-0.46643,-0.47249,-0.4504,-0.44581,-0.43405,-0.42023,-0.42036,-0.42664,-0.4342,-0.43417,-0.41782,-0.40488,-0.40119,-0.40613,-0.38799,-0.37269,-0.35632,-0.35872,-0.34365,-0.33199,-0.3184,-0.31156,-0.28685,-0.27984,-0.2809,-0.26364,-0.23471,-0.21944,-0.208,-0.20375,-0.21498,-0.20925,-0.20661,-0.23944,-0.24003,-0.23766,-0.24328,-0.2518,-0.29284,-0.31679,-0.32191,-0.34697,-0.36093,-0.38573,-0.39387,-0.40637,-0.38075,-0.39956,-0.42415,-0.42823,-0.42646,-0.41224,-0.4219,-0.43142,-0.42028,-0.39905,-0.42114,-0.4191,-0.42119,-0.439,-0.43476,-0.42545,-0.40925,-0.40263,-0.41159,-0.42654,-0.42187,-0.41427,-0.41504,-0.41805,-0.41971,-0.40967,-0.4118,-0.40882,-0.39853,-0.38577,-0.3748,-0.36134,-0.35969,-0.33751,-0.33885,-0.34825,-0.33873,-0.32218,-0.31595,-0.31444,-0.31846,-0.29859,-0.3173,-0.33631,-0.35463,-0.39495,-0.41267,-0.41174,-0.41576,-0.42501,-0.4426,-0.44196,-0.45807,-0.4626,-0.44517,-0.4379,-0.44,-0.45169,-0.46696,-0.48366,-0.47548,-0.4646,-0.45861,-0.55258,-0.63816,-0.60119,-0.39709,-0.068681,0.33568,0.74323,1.0992,1.1841,1.0064,0.5552,0.07989,-0.1631,-0.23809,-0.32181,-0.40627,-0.41804,-0.45339,-0.44643,-0.46185,-0.47007,-0.48468,-0.48966,-0.49005,-0.45669,-0.4713,-0.46186,-0.47895,-0.471,-0.48639,-0.47173,-0.47329,-0.4721,-0.47207,-0.4582,-0.45759,-0.45001,-0.44157,-0.43961,-0.4448,-0.44055,-0.4323,-0.43443,-0.43626,-0.42073,-0.40451,-0.4054,-0.42211,-0.40875,-0.37227,-0.37747,-0.35557,-0.33451,-0.32578,-0.30645,-0.30384,-0.28645,-0.27848,-0.24749,-0.22486,-0.23308,-0.2219,-0.21654,-0.2218,-0.22358,-0.20881,-0.21096,-0.22543,-0.24703,-0.24886,-0.25014,-0.27658,-0.31733,-0.34304,-0.34909,-0.35962,-0.3753,-0.39075,-0.37767,-0.40384,-0.4152,-0.42111,-0.41745,-0.40502,-0.41814,-0.39843,-0.41386,-0.41893,-0.42144,-0.41052,-0.41005,-0.4134,-0.41082,-0.40745,-0.40637,-0.39743,-0.40844,-0.40363,-0.41974,-0.41305,-0.41395,-0.39983,-0.40417,-0.39914,-0.41322,-0.41079,-0.4,-0.39739,-0.40543,-0.40206,-0.40407,-0.39745,-0.40699,-0.41018,-0.40843,-0.39867,-0.39919,-0.40356,-0.41242,-0.41061,-0.39771,-0.37028,-0.36487,-0.37673,-0.36561,-0.35222,-0.32802,-0.30473,-0.2846,-0.28825,-0.27207,-0.28139,-0.27931,-0.29921,-0.3343,-0.37308,-0.38605,-0.39039,-0.40137,-0.40458,-0.4128,-0.42757,-0.42922,-0.42673,-0.42877,-0.43328,-0.42054,-0.40678,-0.42154,-0.4285,-0.44546,-0.43947,-0.43512,-0.45096,-0.54989,-0.59061,-0.53982,-0.43895,-0.1564,0.21429,0.65852,1.0262,1.2388,1.1606,0.80212,0.27583,-0.082646,-0.21577,-0.30089,-0.33896,-0.37241,-0.39268,-0.40325,-0.40387,-0.41552,-0.41404,-0.43778,-0.41444,-0.41567,-0.41195,-0.42222,-0.42047,-0.42222,-0.42211,-0.42413,-0.42141,-0.40762,-0.41877,-0.41612,-0.41443,-0.41118,-0.40247,-0.41043,-0.39293,-0.3804,-0.38495,-0.38693,-0.37703,-0.37249,-0.35366,-0.35161,-0.34947,-0.34214,-0.33075,-0.30539,-0.29437,-0.26797,-0.26781,-0.26444,-0.2395,-0.21468,-0.2062,-0.18988,-0.18084,-0.15528,-0.1712,-0.16725,-0.16917,-0.16278,-0.16788,-0.14214,-0.14726,-0.16295,-0.2011,-0.21439,-0.21689,-0.24521,-0.26599,-0.2707,-0.28795,-0.30103,-0.32742,-0.33694,-0.33984,-0.35562,-0.36155,-0.37296,-0.36137,-0.36813,-0.38234,-0.38372,-0.3741,-0.38281,-0.37249,-0.36782,-0.37735,-0.37947,-0.37859,-0.37925,-0.37057,-0.36216,-0.36653,-0.36852,-0.35731,-0.36044,-0.36226,-0.35069,-0.36824,-0.37731,-0.36192,-0.35338,-0.34734,-0.36652,-0.38661,-0.37358,-0.36657,-0.37868,-0.38725,-0.38471,-0.37342,-0.36681,-0.35239,-0.34995,-0.34785,-0.33723,-0.33494,-0.32486,-0.29928,-0.2852,-0.28338,-0.27871,-0.2875,-0.29542,-0.31214,-0.33108,-0.34784,-0.37548,-0.38852,-0.41902,-0.4204,-0.42178,-0.43258,-0.44046,-0.43877,-0.44485,-0.43821,-0.44344,-0.45265,-0.44101,-0.44685,-0.43064,-0.43152,-0.45605,-0.47003,-0.54374,-0.60294,-0.59949,-0.49896,-0.22895,0.15034,0.56649,0.95085,1.1727,1.1066,0.77729,0.25797,-0.10439,-0.25874,-0.35522,-0.39797,-0.41795,-0.42702,-0.43668,-0.45909,-0.46712,-0.44834,-0.45798,-0.4582,-0.4686,-0.46754,-0.45391,-0.45672,-0.46229,-0.46591,-0.46759,-0.467,-0.45604,-0.44252,-0.4544,-0.4439,-0.45768,-0.45632,-0.45505,-0.43237,-0.4281,-0.42426,-0.40234,-0.40504,-0.41523,-0.42226,-0.40046,-0.39117,-0.38335,-0.37703,-0.36303,-0.35965,-0.33772,-0.32992,-0.31496,-0.30087,-0.2732,-0.25517,-0.23407,-0.2216,-0.21209,-0.20366,-0.19387,-0.17888,-0.18201,-0.18269,-0.17898,-0.19719,-0.20718,-0.20603,-0.22428,-0.23901,-0.2663,-0.25907,-0.28552,-0.30251,-0.31878,-0.34643,-0.33955,-0.33188,-0.33631,-0.34737,-0.36043,-0.34711,-0.33851,-0.33883,-0.34351,-0.34845,-0.3442,-0.34199,-0.34582,-0.34936,-0.35073,-0.34097,-0.34108,-0.33225,-0.33484,-0.33454,-0.33406,-0.33531,-0.33526,-0.35716,-0.35568,-0.35408,-0.31843,-0.2924,-0.31698,-0.31862,-0.29366,-0.2758,-0.27293,-0.27891,-0.25186,-0.23545,-0.22954,-0.22111,-0.20397,-0.21696,-0.21378,-0.20907,-0.21394,-0.22017,-0.25355,-0.29555,-0.32864,-0.34257,-0.3499,-0.34555,-0.36256,-0.35465,-0.36291,-0.36284,-0.36885,-0.36574,-0.35584,-0.36948,-0.36585,-0.37376,-0.37751,-0.37857,-0.43149,-0.49122,-0.554,-0.5562,-0.42247,-0.13278,0.30272,0.7857,1.1902,1.3718,1.2598,0.83295,0.31187,-0.06626,-0.20928,-0.28949,-0.33082,-0.36676,-0.37748,-0.38894,-0.391,-0.38933,-0.38395,-0.38756,-0.40391,-0.40607,-0.39768,-0.4019,-0.40071,-0.4046,-0.41658,-0.41989,-0.42449,-0.41664,-0.43852,-0.43121,-0.42473,-0.41151,-0.40679,-0.42548,-0.39501,-0.39952,-0.40194,-0.4032,-0.40308,-0.38154,-0.35813,-0.35724,-0.35573,-0.35366,-0.36164,-0.32796,-0.32807,-0.31871,-0.2953,-0.26357,-0.25776,-0.24551,-0.24034,-0.23193,-0.22979,-0.19645,-0.1878,-0.18639,-0.18487,-0.19857,-0.1919,-0.18867,-0.20709,-0.21952,-0.24388,-0.25155,-0.26426,-0.28968,-0.30923,-0.33699,-0.32823,-0.3427,-0.3599,-0.36955,-0.38632,-0.37559,-0.37152,-0.3763,-0.38426,-0.3836,-0.38742,-0.37834,-0.37952,-0.37554,-0.38515,-0.3943,-0.3738,-0.37378,-0.39199,-0.38201,-0.38002,-0.37833,-0.36117,-0.36577,-0.37896,-0.38254,-0.37227,-0.36791,-0.37673,-0.37864,-0.38598,-0.37784,-0.37327,-0.36802,-0.35686,-0.36042,-0.34895,-0.34284,-0.33767,-0.31144,-0.29697,-0.28559,-0.27327,-0.27502,-0.27549,-0.28065,-0.28258,-0.3006,-0.32194,-0.34971,-0.38718,-0.408,-0.40729,-0.41029,-0.40856,-0.42583,-0.43217,-0.42733,-0.42711,-0.44557,-0.43195,-0.43049,-0.439,-0.43279,-0.44738,-0.4437,-0.46803,-0.56948,-0.62603,-0.62497,-0.53816,-0.28763,0.089732,0.54227,0.97435,1.2692,1.2108,0.90292,0.37542,-0.05253,-0.24098,-0.34148,-0.37761,-0.41576,-0.41833,-0.44599,-0.45518,-0.44654,-0.45878,-0.46483,-0.46174,-0.47441,-0.45205,-0.4623,-0.46266,-0.46735,-0.46739,-0.4667,-0.4634,-0.44967,-0.4629,-0.46791,-0.45752,-0.4579,-0.46256,-0.4598,-0.454,-0.44246,-0.42454,-0.4393,-0.44265,-0.42387,-0.40767,-0.40789,-0.39777,-0.40163,-0.38503,-0.38843,-0.38463,-0.3658,-0.35256,-0.33271,-0.31672,-0.30504,-0.2855,-0.26729,-0.25742,-0.2472,-0.24506,-0.25267,-0.23751,-0.23784,-0.23845,-0.24347,-0.24011,-0.26484,-0.28104,-0.30082,-0.31026,-0.32304,-0.34121,-0.35919,-0.38495,-0.39048,-0.40427,-0.3967,-0.40574,-0.41394,-0.41404,-0.4195,-0.40036,-0.39687,-0.41564,-0.43059,-0.4225,-0.4159,-0.42416,-0.41934,-0.43145,-0.42831,-0.43278,-0.41532,-0.42979,-0.43445,-0.42682,-0.42074,-0.43426,-0.44523,-0.46113,-0.42853,-0.43091,-0.43263,-0.42954,-0.44144,-0.44186,-0.43916,-0.44749,-0.45259,-0.44102,-0.44,-0.44383,-0.4502,-0.43519,-0.42675,-0.42131,-0.38855,-0.3952,-0.39707,-0.39781,-0.38261,-0.35356,-0.32363,-0.32175,-0.31838,-0.3212,-0.31037,-0.3257,-0.33632,-0.37909,-0.41769,-0.42354,-0.44908,-0.44897,-0.45884,-0.45911,-0.46447,-0.47824,-0.46841,-0.46282,-0.47579,-0.47887,-0.44956,-0.46658,-0.48112,-0.47637,-0.48121,-0.46054,-0.5254,-0.63461,-0.6551,-0.59816,-0.36028,0.017135,0.43201,0.88424,1.207,1.1876,0.91733,0.39236,-0.058366,-0.24887,-0.35883,-0.3992,-0.42914,-0.44084,-0.46201,-0.46254,-0.46947,-0.4759,-0.5001,-0.50186,-0.49174,-0.49556,-0.49463,-0.47933,-0.48805,-0.48261,-0.47883,-0.48197,-0.49941,-0.48129,-0.47728,-0.47057,-0.471,-0.46751,-0.47672,-0.48162,-0.48531,-0.45815,-0.46378,-0.44568,-0.45435,-0.45089,-0.44065,-0.43224,-0.42365,-0.42335,-0.40448,-0.39592,-0.39718,-0.38192,-0.35683,-0.33702,-0.32057,-0.32096,-0.31677,-0.31439,-0.28735,-0.26719,-0.26816,-0.27566,-0.26123,-0.2428,-0.25482,-0.26887,-0.28142,-0.30441,-0.30236,-0.32141,-0.3484,-0.36622,-0.38797,-0.40442,-0.42381,-0.45826,-0.45553,-0.45854,-0.47306,-0.49146,-0.4767,-0.48257,-0.47584,-0.4949,-0.48682,-0.4546,-0.42155,-0.40773,-0.41765,-0.42544,-0.43592,-0.43588,-0.43904,-0.42748,-0.44825,-0.44317,-0.44957,-0.4524,-0.45191,-0.44605,-0.45579,-0.4553,-0.44108,-0.44171,-0.43168,-0.4319,-0.43646,-0.4533,-0.45308,-0.44114,-0.44085,-0.44793,-0.4558,-0.46409,-0.45943,-0.4693,-0.46049,-0.46578,-0.45755,-0.43596,-0.42378,-0.42987,-0.44387,-0.42118,-0.40748,-0.38617,-0.35195,-0.3606,-0.34718,-0.33373,-0.3485,-0.36666,-0.40035,-0.43942,-0.46514,-0.48333,-0.49452,-0.49175,-0.50251,-0.50715,-0.50234,-0.50128,-0.52183,-0.51429,-0.52696,-0.51815,-0.51973,-0.52377,-0.53096,-0.53842,-0.5123,-0.57733,-0.69038,-0.6901,-0.6226,-0.36811,-0.001701,0.42242,0.84202,1.0204,1.1124,0.98419,0.51721,0.069788,-0.23263,-0.35279,-0.43301,-0.48673,-0.49742,-0.51908,-0.49815,-0.50265,-0.54271,-0.56694,-0.55464,-0.55282,-0.62841,-0.71636,-0.70776,-0.67149,-0.59409,-0.58245,-0.58589,-0.56434,-0.53242,-0.61118,-0.60762,-0.51128,-0.44407,-0.42771,-0.476,-0.48046,-0.4942,-0.50311,-0.51235,-0.521,-0.51705,-0.49052,-0.49407,-0.49699,-0.49671,-0.48722,-0.46295,-0.43241,-0.42306,-0.41097,-0.38641,-0.34371,-0.36044,-0.33801,-0.29141,-0.28042,-0.27432,-0.2705,-0.27172,-0.25717,-0.2559,-0.25435,-0.26008,-0.2637,-0.2748,-0.29951,-0.30673,-0.32934,-0.32911,-0.36034,-0.37666,-0.39259,-0.39734,-0.40551,-0.42253,-0.42664,-0.41776,-0.43071,-0.4219,-0.41389,-0.4232,-0.43086,-0.42537,-0.43728,-0.44371,-0.45463,-0.47591,-0.49106,-0.47335,-0.42813,-0.40953,-0.40399,-0.43052,-0.44527,-0.45058,-0.45343,-0.45103,-0.44974,-0.43968,-0.46307,-0.50877,-0.51663,-0.51488,-0.47595,-0.43039,-0.4229,-0.44395,-0.46519,-0.52073,-0.62634,-0.64097,-0.53679,-0.44887,-0.38258,-0.42378,-0.44618,-0.4705,-0.48936,-0.47707,-0.46412,-0.40371,-0.40015,-0.39547,-0.39922,-0.41315,-0.42793,-0.3937,-0.36593,-0.36687,-0.35608,-0.35085,-0.35915,-0.35545,-0.38586,-0.42614,-0.46138,-0.48069,-0.46663,-0.47712,-0.47979,-0.48905,-0.51453,-0.51119,-0.51047,-0.50335,-0.50308,-0.49092,-0.50383,-0.48646,-0.49983,-0.5096,-0.52407,-0.57878,-0.64092,-0.64614,-0.56042,-0.27714,0.10631,0.53607,0.94278,1.1548,1.0702,0.68943,0.20466,-0.14779,-0.29712,-0.37824,-0.43358,-0.48895,-0.54564,-0.58622,-0.61818,-0.61905,-0.62948,-0.57016,-0.50892,-0.56446,-0.57194,-0.49546,-0.48213,-0.53748,-0.5719,-0.52944,-0.49752,-0.45304,-0.43774,-0.4899,-0.49095,-0.47356,-0.42577,-0.39384,-0.41981,-0.47749,-0.48486,-0.46793,-0.46776,-0.53482,-0.50622,-0.426,-0.40934,-0.45845,-0.40014,-0.28947,-0.24393,-0.24338,-0.25183,-0.26701,-0.24414,-0.22711,-0.20087,-0.21186,-0.19568,-0.19048,-0.19034,-0.15133,-0.1378,-0.13765,-0.12837,-0.12639,-0.1305,-0.12328,-0.137,-0.15845,-0.17164,-0.15978,-0.14366,-0.14702,-0.18559,-0.20571,-0.22882,-0.22753,-0.24928,-0.26573,-0.28317,-0.2596,-0.27256,-0.28001,-0.29394,-0.32758,-0.3354,-0.32773,-0.31061,-0.37609,-0.37524,-0.31384,-0.28643,-0.28855,-0.28606,-0.20306,-0.19638,-0.23684,-0.23852,-0.24651,-0.29077,-0.29884,-0.29464,-0.29847,-0.29851,-0.31307,-0.32722,-0.31153,-0.32492,-0.32572,-0.32915,-0.34058,-0.34264,-0.33948,-0.3335,-0.3517,-0.33647,-0.3328,-0.31348,-0.30213,-0.31715,-0.30463,-0.29339,-0.28995,-0.26373,-0.25171,-0.29835,-0.32422,-0.28975,-0.21654,-0.17124,-0.22167,-0.29187,-0.34865,-0.33493,-0.35084,-0.34382,-0.36269,-0.36324,-0.37443,-0.38136,-0.4464,-0.51695,-0.44888,-0.33954,-0.28737,-0.34275,-0.37745,-0.37217,-0.38537,-0.41785,-0.52548,-0.54325,-0.51745,-0.30365,0.039316,0.44941,0.87189,1.0597,1.1963,1.0736,0.68664,0.23088,-0.098862,-0.21694,-0.32198,-0.38673,-0.39963,-0.39646,-0.40608,-0.42537,-0.43255,-0.43137,-0.42808,-0.42502,-0.43092,-0.41415,-0.41994,-0.4201,-0.42577,-0.43213,-0.44326,-0.45912,-0.42565,-0.41257,-0.42351,-0.42934,-0.42534,-0.42965,-0.41062,-0.39501,-0.41916,-0.43416,-0.43289,-0.41902,-0.39837,-0.35831,-0.35535,-0.36235,-0.35275,-0.33855,-0.34748,-0.33402,-0.31265,-0.30912,-0.31153,-0.28451,-0.26427,-0.25581,-0.2522,-0.24812,-0.24083,-0.22703,-0.20072,-0.1878,-0.20487,-0.23882,-0.2044,-0.2199,-0.22897,-0.23516,-0.2575,-0.28481,-0.28026,-0.30811,-0.31111,-0.32686,-0.33179,-0.35651,-0.36583,-0.38726,-0.38956,-0.37892,-0.39391,-0.39018,-0.37483,-0.35655,-0.38344,-0.38507,-0.37029,-0.35814,-0.36133,-0.40781,-0.41871,-0.39642,-0.35957,-0.35828,-0.37385,-0.37391,-0.36957,-0.38115,-0.37486,-0.38105,-0.38642,-0.38533,-0.38128,-0.38217,-0.39355,-0.40716,-0.39245,-0.35534,-0.3462,-0.35936,-0.38397,-0.38446,-0.37459,-0.36363,-0.33662,-0.34177,-0.35451,-0.33552,-0.32476,-0.31604,-0.29729,-0.28443,-0.27721,-0.28276,-0.27309,-0.26782,-0.25807,-0.27829,-0.2905,-0.31287,-0.35603,-0.38126,-0.39145,-0.40221,-0.38838,-0.38447,-0.39994,-0.4077,-0.41661,-0.41266,-0.41123,-0.40395,-0.41747,-0.40726,-0.41878,-0.42652,-0.44903,-0.5309,-0.57178,-0.57055,-0.51832,-0.27656,0.043094,0.44958,0.87023,1.1783,1.1528,0.91139,0.42984,-0.0070335,-0.20333,-0.2895,-0.34638,-0.3698,-0.37098,-0.40055,-0.39308,-0.4134,-0.41294,-0.43089,-0.42098,-0.4247,-0.42596,-0.44078,-0.41778,-0.42195,-0.4239,-0.42433,-0.41577,-0.41528,-0.42243,-0.4074,-0.39609,-0.40297,-0.38993,-0.39677,-0.39259,-0.39435,-0.39439,-0.39103,-0.38896,-0.39201,-0.38207,-0.37132,-0.3614,-0.33487,-0.34778,-0.34574,-0.32403,-0.28078,-0.26864,-0.2639,-0.25316,-0.25031,-0.22712,-0.20466,-0.20266,-0.20095,-0.18795,-0.18684,-0.18317,-0.18171,-0.18662,-0.19281,-0.20129,-0.20088,-0.22672,-0.23293,-0.23104,-0.24067,-0.26001,-0.27147,-0.30046,-0.3218,-0.33449,-0.3272,-0.32861,-0.34403,-0.35373,-0.36795,-0.34782,-0.34181,-0.3433,-0.36699,-0.37916,-0.35454,-0.34832,-0.35335,-0.35713,-0.35285,-0.36177,-0.34232,-0.35161,-0.36665,-0.35493,-0.34409,-0.34804,-0.34856,-0.35372,-0.35198,-0.3681,-0.34226,-0.32671,-0.3422,-0.3514,-0.34091,-0.34426,-0.34653,-0.343,-0.36404,-0.35587,-0.35367,-0.32297,-0.33569,-0.34238,-0.32713,-0.32088,-0.31021,-0.29733,-0.2764,-0.25137,-0.24164,-0.23911,-0.23875,-0.2523,-0.25962,-0.28756,-0.3118,-0.3534,-0.38278,-0.3939,-0.39156,-0.39365,-0.3968,-0.41992,-0.41155,-0.41176,-0.40822,-0.41266,-0.41443,-0.41868,-0.40737,-0.39874,-0.40076,-0.41046,-0.45306,-0.53212,-0.56077,-0.48944,-0.2432,0.10588,0.50732,0.88147,1.1507,1.0985,0.79931,0.30167,-0.061288,-0.20916,-0.31456,-0.35435,-0.39241,-0.38662,-0.40488,-0.41127,-0.42878,-0.42976,-0.43761,-0.42612,-0.43648,-0.43185,-0.42819,-0.41589,-0.43202,-0.42976,-0.43964,-0.4212,-0.42989,-0.42656,-0.43063,-0.42296,-0.43428,-0.42293,-0.41483,-0.40633,-0.4112,-0.40357,-0.40304,-0.38841,-0.40642,-0.38722,-0.39663,-0.36342,-0.35541,-0.35685,-0.33602,-0.33822,-0.33642,-0.31726,-0.29343,-0.29212,-0.27539,-0.25165,-0.24028,-0.24557,-0.23356,-0.23702,-0.22646,-0.23118,-0.23875,-0.24366,-0.23606,-0.24435,-0.24208,-0.26013,-0.27388,-0.26898,-0.28462,-0.30241,-0.32783,-0.35647,-0.37819,-0.38615,-0.39765,-0.39351,-0.39695,-0.39588,-0.38064,-0.37226,-0.37213,-0.38927,-0.37842,-0.37796,-0.38408,-0.39759,-0.39743,-0.38604,-0.39778,-0.39931,-0.38515,-0.39447,-0.38748,-0.3925,-0.39347,-0.38508,-0.38264,-0.38427,-0.40062,-0.41541,-0.40413,-0.39699,-0.39422,-0.41174,-0.39623,-0.39612,-0.38022,-0.36092,-0.37073,-0.34755,-0.32415,-0.30498,-0.28934,-0.31133,-0.28634,-0.30187,-0.29911,-0.28093,-0.29866,-0.32996,-0.37431,-0.37836,-0.40668,-0.43782,-0.44329,-0.44947,-0.44708,-0.43262,-0.44464,-0.46331,-0.46337,-0.46,-0.44734,-0.44914,-0.46016,-0.4547,-0.44321,-0.46738,-0.51229,-0.59844,-0.58702,-0.49824,-0.23868,0.12957,0.52795,0.84702,1.0047,0.96896,0.63775,0.13869,-0.16564,-0.25926,-0.35026,-0.4051,-0.45133,-0.43889,-0.44073,-0.45157,-0.46628,-0.46766,-0.47254,-0.45823,-0.46256,-0.46989,-0.48095,-0.47677,-0.47461,-0.46346,-0.47552,-0.47472,-0.47346,-0.47089,-0.45806,-0.44543,-0.43305,-0.4262,-0.44252,-0.43994,-0.42704,-0.426,-0.42909,-0.41366,-0.42982,-0.42374,-0.39029,-0.39094,-0.37852,-0.36958,-0.36668,-0.3561,-0.35572,-0.33085,-0.32025,-0.30366,-0.27239,-0.27148,-0.26588,-0.25301,-0.25033,-0.24795,-0.2447,-0.23103,-0.21313,-0.21768,-0.23559,-0.24115,-0.24785,-0.28104,-0.28832,-0.28312,-0.31614,-0.35677,-0.36413,-0.36897,-0.38472,-0.3878,-0.38188,-0.3945,-0.39944,-0.42427,-0.42345,-0.42175,-0.41303,-0.40889,-0.41268,-0.41778,-0.41787,-0.4223,-0.42488,-0.42644,-0.42163,-0.42072,-0.42674,-0.39865,-0.38747,-0.38803,-0.39854,-0.40301,-0.37977,-0.36501,-0.35718,-0.33285,-0.33629,-0.35467,-0.333,-0.32696,-0.30969,-0.303,-0.30039,-0.2928,-0.30388,-0.31988,-0.33438,-0.34837,-0.36057,-0.39309,-0.41933,-0.44558,-0.4411,-0.4189,-0.43546,-0.43598,-0.44364,-0.45079,-0.44769,-0.45457,-0.44875,-0.45645,-0.45613,-0.47039,-0.45934,-0.46799,-0.51124,-0.58602,-0.58335,-0.48966,-0.22983,0.11286,0.52734,0.89953,1.1156,1.1252,0.95999,0.51752,0.053813,-0.17822,-0.31496,-0.37205,-0.41528,-0.43011,-0.44477,-0.45317,-0.47706,-0.47122,-0.47562,-0.4608,-0.4768,-0.46736,-0.4641,-0.45986,-0.45931,-0.45944,-0.46123,-0.46159,-0.47163,-0.46313,-0.47069,-0.44593,-0.44406,-0.43304,-0.42566,-0.41922,-0.44672,-0.44022,-0.42938,-0.43222,-0.43258,-0.4083,-0.39175,-0.3939,-0.38772,-0.37729,-0.37853,-0.37521,-0.37197,-0.34659,-0.31487,-0.30015,-0.29031,-0.28277,-0.28921,-0.25626,-0.25191,-0.24972,-0.22946,-0.23066,-0.23715,-0.24461,-0.26655,-0.24541,-0.26578,-0.28473,-0.3139,-0.33654,-0.33601,-0.35305,-0.35964,-0.37457,-0.38264,-0.40331,-0.4022,-0.40317,-0.39948,-0.39867,-0.40797,-0.42231,-0.40054,-0.40483,-0.41846,-0.4235,-0.41416,-0.4215,-0.42011,-0.42191,-0.4182,-0.41509,-0.41503,-0.42945,-0.40208,-0.40258,-0.39756,-0.41523,-0.39744,-0.37748,-0.36584,-0.34706,-0.35222,-0.36417,-0.34526,-0.33755,-0.32055,-0.30328,-0.30004,-0.29567,-0.29473,-0.30626,-0.30387,-0.32105,-0.35965,-0.38491,-0.41411,-0.41451,-0.41133,-0.43491,-0.43697,-0.45318,-0.46165,-0.44129,-0.44285,-0.42752,-0.44498,-0.48468,-0.45735,-0.46813,-0.45557,-0.45671,-0.47382,-0.54468,-0.61179,-0.56693,-0.43694,-0.15085,0.23436,0.66719,1.0175,1.1637,1.0482,0.64111,0.16237,-0.15854,-0.28483,-0.35745,-0.41831,-0.4182,-0.43799,-0.44686,-0.47176,-0.47912,-0.47999,-0.47991,-0.49094,-0.518,-0.51432,-0.49056,-0.48779,-0.44445,-0.45117,-0.47668,-0.48567,-0.51552,-0.50251,-0.48229,-0.49296,-0.46197,-0.41786,-0.45815,-0.45495,-0.46088,-0.45807,-0.44179,-0.40372,-0.4425,-0.43816,-0.44503,-0.44017,-0.42537,-0.40682,-0.39074,-0.39152,-0.35978,-0.37114,-0.3484,-0.35138,-0.31302,-0.30253,-0.30721,-0.30454,-0.29945,-0.32995,-0.29108,-0.27781,-0.28535,-0.30337,-0.30654,-0.30334,-0.29164,-0.33092,-0.3552,-0.37225,-0.37592,-0.3894,-0.4149,-0.39264,-0.38021,-0.46744,-0.43897,-0.40532,-0.42025,-0.41916,-0.43645,-0.41153,-0.46065,-0.44103,-0.46626,-0.44889,-0.42157,-0.43079,-0.4279,-0.44318,-0.44705,-0.4493,-0.40341,-0.44795,-0.42284,-0.36077,-0.40799,-0.38397,-0.34515,-0.33893,-0.30878,-0.30754,-0.33087,-0.35321,-0.34008,-0.35753,-0.34,-0.32972,-0.29044,-0.29281,-0.23868,-0.09811,-0.115,-0.16345,-0.16449,-0.17558,-0.18308,-0.17426,-0.24048,-0.22234,-0.25114,-0.27727,-0.34602,-0.3428,-0.35912,-0.37671,-0.35473,-0.37688,-0.32969,-0.36448,-0.359,-0.36954,-0.33915,-0.32495,-0.28923,-0.16659,-0.12252,-0.23285,-0.37215,-0.43489,-0.45239,-0.43366,-0.22597,0.11233,0.50688,0.91184,1.1822,1.2453,1.0268,0.48313,0.038752,-0.11344,-0.24647,-0.36043,-0.38383,-0.42453,-0.41951,-0.38973,-0.44664,-0.48415,-0.53709,-0.45214,-0.47685,-0.45428,-0.47827,-0.46203,-0.43971,-0.47307,-0.50139,-0.51411,-0.4492,-0.45137,-0.43688,-0.47679,-0.51373,-0.45809,-0.48886,-0.43084,-0.45124,-0.46184,-0.43462,-0.47704,-0.49183,-0.40344,-0.45395,-0.41866,-0.44978,-0.39769,-0.38502,-0.43395,-0.38352,-0.34571,-0.37266,-0.37706,-0.35227,-0.24928,-0.12786,0.0032701,-0.035348,-0.043545,0.011397,-0.0035122,-0.060254,-0.093439,-0.13125,-0.19106,-0.16848,-0.22825,-0.21846,-0.24215,-0.25869,-0.33902,-0.3452,-0.34836,-0.36461,-0.35647,-0.39334,-0.39045,-0.39589,-0.42558,-0.39491,-0.4161,-0.37733,-0.4513,-0.42447,-0.37149,-0.41303,-0.45741,-0.43221,-0.46087,-0.40724,-0.43019,-0.41612,-0.43376,-0.42046,-0.45373,-0.43501,-0.41975,-0.41691,-0.42873,-0.45841,-0.4297,-0.42445,-0.41134,-0.4073,-0.43849,-0.37974,-0.42009,-0.3282,-0.34762,-0.41126,-0.36756,-0.36636,-0.34919,-0.32508,-0.30753,-0.3688,-0.36569,-0.29559,-0.41876,-0.42159,-0.34969,-0.51224,-0.49165,-0.44905,-0.47705,-0.45311,-0.4579,-0.46194,-0.50563,-0.47602,-0.47926,-0.4842,-0.48779,-0.50762,-0.46797,-0.46481,-0.49587,-0.59705,-0.60727,-0.54085,-0.47039,-0.22764,0.23373,0.43553,0.76668,1.0687,1.0595,0.81204,0.24641,-0.084691,-0.19634,-0.36151,-0.39776,-0.43568,-0.45863,-0.42295,-0.49483,-0.46309,-0.45435,-0.53718,-0.47723,-0.45833,-0.45806,-0.46219,-0.48586,-0.47754,-0.50478,-0.46971,-0.46204,-0.46478,-0.47804,-0.47633,-0.4265,-0.46003,-0.47571,-0.41083,-0.43318,-0.45623,-0.46785,-0.46375,-0.38679,-0.41259,-0.41747,-0.42243,-0.40814,-0.38355,-0.38007,-0.37026,-0.34162,-0.32037,-0.35202,-0.30482,-0.26502,-0.34197,-0.29973,-0.32196,-0.23781,-0.2509,-0.22686,-0.27034,-0.25911,-0.24418,-0.23949,-0.24012,-0.23486,-0.25307,-0.28205,-0.25361,-0.32796,-0.32941,-0.38582,-0.3626,-0.36443,-0.33659,-0.38405,-0.38069,-0.40488,-0.3963,-0.41026,-0.40762,-0.38151,-0.4014,-0.39354,-0.38411,-0.45776,-0.45012,-0.391,-0.42688,-0.4028,-0.4022,-0.40027,-0.40341,-0.41289,-0.38441,-0.38286,-0.38565,-0.35615,-0.36629,-0.35042,-0.33404,-0.29384,-0.2272,-0.36162,-0.23964,-0.27593,-0.28734,-0.28732,-0.29228,-0.25867,-0.30812,-0.32801,-0.40281,-0.3399,-0.39574,-0.31419,-0.41626,-0.4486,-0.39864,-0.40013,-0.44254,-0.453,-0.42926,-0.41057,-0.43834,-0.431,-0.44097,-0.43831,-0.43774,-0.47465,-0.51328,-0.55692,-0.55806,-0.4864,-0.23543,0.14297,0.58346,0.92533,1.0873,1.1018,0.76312,0.19962,-0.13342,-0.27923,-0.33281,-0.37688,-0.41184,-0.44939,-0.45894,-0.42415,-0.49501,-0.46316,-0.49174,-0.45988,-0.46701,-0.50689,-0.49024,-0.44902,-0.49457,-0.47486,-0.45044,-0.46933,-0.47765,-0.46746,-0.43361,-0.49028,-0.49179,-0.44491,-0.41578,-0.46333,-0.43173,-0.47632,-0.4718,-0.44051,-0.43825,-0.44679,-0.41649,-0.45514,-0.40301,-0.38642,-0.40817,-0.41448,-0.37093,-0.3172,-0.38335,-0.3237,-0.30457,-0.31129,-0.32615,-0.30837,-0.31014,-0.2848,-0.2818,-0.29354,-0.30984,-0.27536,-0.33793,-0.32852,-0.28869,-0.36001,-0.34966,-0.36527,-0.37799,-0.37596,-0.4136,-0.41806,-0.42545,-0.46391,-0.41852,-0.4618,-0.45921,-0.47166,-0.44929,-0.45623,-0.48287,-0.46482,-0.46189,-0.39977,-0.48358,-0.49408,-0.43648,-0.49357,-0.46844,-0.43152,-0.49093,-0.42007,-0.43428,-0.45903,-0.47627,-0.40414,-0.38143,-0.46187,-0.42477,-0.41233,-0.36101,-0.43137,-0.38291,-0.39623,-0.35258,-0.32377,-0.29915,-0.36126,-0.34938,-0.35629,-0.35611,-0.35322,-0.36143,-0.42371,-0.4761,-0.46747,-0.50193,-0.49382,-0.48449,-0.44448,-0.46393,-0.48572,-0.51014,-0.52084,-0.48207,-0.50592,-0.48194,-0.50487,-0.52469,-0.46769,-0.50012,-0.57995,-0.63109,-0.63765,-0.44331,-0.26555,0.16799,0.41922,0.77744,1.0707,1.0712,0.81656,0.2862,-0.031495,-0.30441,-0.37644,-0.43486,-0.417,-0.46438,-0.48172,-0.5087,-0.4852,-0.50583,-0.48682,-0.51711,-0.53407,-0.52867,-0.48179,-0.51601,-0.51812,-0.52767,-0.50253,-0.52075,-0.54747,-0.50202,-0.49319,-0.52072,-0.52592,-0.48814,-0.44197,-0.51032,-0.5048,-0.51013,-0.4772,-0.47126,-0.48304,-0.48132,-0.44661,-0.44416,-0.44812,-0.41641,-0.43331,-0.43705,-0.40508,-0.35709,-0.39958,-0.36402,-0.35322,-0.31414,-0.29869,-0.32519,-0.31694,-0.30414,-0.3084,-0.28409,-0.2944,-0.34793,-0.2998,-0.30562,-0.34349,-0.33869,-0.34958,-0.34306,-0.41581,-0.39591,-0.4127,-0.4296,-0.45334,-0.42781,-0.46966,-0.44672,-0.46574,-0.49923,-0.43163,-0.44066,-0.48212,-0.46818,-0.49895,-0.44943,-0.45515,-0.48261,-0.44861,-0.44745,-0.44028,-0.47266,-0.45193,-0.48594,-0.47838,-0.44206,-0.45484,-0.41509,-0.46839,-0.49502,-0.48172,-0.43666,-0.46092,-0.44346,-0.47197,-0.44067,-0.48327,-0.48211,-0.44482,-0.45666,-0.4647,-0.46282,-0.47823,-0.44134,-0.43068,-0.45476,-0.44217,-0.43007,-0.39487,-0.34422,-0.44346,-0.36902,-0.3519,-0.36554,-0.33674,-0.36457,-0.32983,-0.36715,-0.39072,-0.40982,-0.39953,-0.45964,-0.48459,-0.50329,-0.46274,-0.50701,-0.4864,-0.4861,-0.51048,-0.48529,-0.46811,-0.51291,-0.51247,-0.51453,-0.48967,-0.50867,-0.49835,-0.55965,-0.58806,-0.60408,-0.62296,-0.66027,-0.44971,-0.22695,0.24432,0.63982,0.99163,1.1233,1.0158,0.61292,0.074086,-0.21836,-0.33929,-0.40226,-0.44069,-0.45666,-0.48282,-0.47992,-0.51726,-0.48024,-0.51843,-0.50436,-0.49323,-0.49675,-0.52016,-0.52769,-0.5039,-0.50542,-0.50727,-0.48409,-0.51883,-0.48369,-0.48073,-0.4832,-0.46752,-0.49772,-0.49469,-0.49581,-0.47174,-0.47515,-0.46471,-0.47863,-0.45778,-0.45406,-0.46584,-0.44283,-0.42968,-0.46284,-0.42976,-0.3581,-0.40514,-0.36269,-0.39296,-0.34172,-0.31407,-0.30274,-0.31195,-0.31811,-0.28537,-0.30331,-0.26374,-0.26218,-0.26115,-0.26619,-0.26539,-0.25712,-0.26849,-0.30228,-0.31384,-0.36137,-0.33209,-0.36715,-0.36479,-0.39118,-0.35931,-0.40938,-0.39616,-0.43862,-0.45712,-0.46228,-0.45625,-0.43682,-0.46634,-0.4263,-0.44491,-0.49896,-0.45036,-0.46504,-0.44911,-0.44092,-0.45984,-0.43715,-0.45747,-0.45634,-0.46085,-0.42097,-0.43329,-0.39918,-0.44157,-0.46532,-0.45929,-0.46872,-0.45049,-0.4574,-0.44711,-0.44398,-0.46195,-0.42613,-0.43567,-0.4378,-0.50348,-0.43634,-0.4112,-0.45327,-0.46886,-0.43623,-0.43883,-0.47145,-0.47509,-0.45693,-0.45031,-0.42901,-0.49441,-0.46869,-0.48264,-0.44315,-0.47706,-0.45069,-0.4506,-0.46843,-0.46328,-0.4491,-0.49296,-0.43885,-0.45477,-0.48321,-0.47418,-0.43781,-0.4317,-0.43414,-0.41232,-0.41967,-0.42602,-0.42736,-0.41968,-0.41857,-0.38462,-0.38179,-0.33767,-0.34995,-0.35571,-0.36818,-0.36501,-0.3734,-0.41593,-0.41597,-0.43186,-0.46131,-0.46439,-0.46511,-0.48375,-0.4898,-0.51039,-0.52959,-0.4665,-0.4758,-0.49203,-0.50778,-0.51236,-0.49124,-0.52276,-0.48668,-0.49754,-0.56117,-0.62061,-0.63644,-0.55465,-0.3099,0.036844,0.45057,0.83734,1.124,1.1485,1.0557,0.62776,0.11786,-0.19886,-0.32139,-0.38201,-0.4278,-0.43217,-0.50618,-0.48967,-0.47068,-0.49548,-0.50519,-0.48695,-0.49852,-0.47999,-0.51475,-0.49436,-0.51149,-0.47227,-0.47932,-0.51854,-0.48205,-0.48208,-0.48691,-0.47132,-0.49659,-0.48471,-0.47315,-0.45284,-0.47919,-0.45705,-0.44477,-0.46455,-0.44739,-0.42849,-0.47089,-0.40347,-0.43508,-0.41768,-0.40838,-0.38532,-0.37635,-0.34852,-0.34972,-0.35776,-0.31028,-0.2897,-0.29816,-0.2779,-0.27005,-0.24685,-0.20471,-0.21599,-0.22957,-0.22131,-0.23027,-0.24949,-0.25238,-0.25796,-0.26861,-0.24274,-0.30526,-0.33115,-0.33943,-0.35134,-0.36419,-0.37913,-0.38282,-0.39472,-0.42926,-0.41355,-0.43541,-0.44615,-0.41016,-0.42514,-0.45424,-0.43279,-0.41495,-0.44849,-0.41875,-0.43069,-0.43969,-0.43923,-0.43393,-0.42429,-0.43016,-0.41975,-0.44448,-0.44758,-0.42582,-0.41975,-0.4167,-0.38999,-0.4191,-0.42786,-0.40718,-0.43181,-0.39757,-0.45167,-0.42897,-0.43522,-0.41928,-0.43516,-0.42474,-0.43015,-0.46065,-0.42488,-0.42759,-0.44502,-0.43264,-0.43336,-0.40811,-0.46027,-0.43786,-0.421,-0.4474,-0.43904,-0.43442,-0.43292,-0.45108,-0.44014,-0.45167,-0.41359,-0.45742,-0.41225,-0.41941,-0.47956,-0.44911,-0.44496,-0.45121,-0.44619,-0.44493,-0.44479,-0.43683,-0.40664,-0.43038,-0.46472,-0.42963,-0.41558,-0.40481,-0.36961,-0.39577,-0.38939,-0.3861,-0.37915,-0.35473,-0.3655,-0.31718,-0.33611,-0.34306,-0.32106,-0.34574,-0.36514,-0.38588,-0.40511,-0.42666,-0.43815,-0.4662,-0.45802,-0.46901,-0.46988,-0.48217,-0.46932,-0.47813,-0.48672,-0.43652,-0.47652,-0.46671,-0.44478,-0.44533,-0.44044,-0.47067,-0.58305,-0.65091,-0.60364,-0.43254,-0.13436,0.26786,0.69171,1.0414,1.1985,1.0728,0.66773,0.14883,-0.0096051,-0.25363,-0.32496,-0.37266,-0.4058,-0.41264,-0.45894,-0.4482,-0.47909,-0.45764,-0.49149,-0.44131,-0.49409,-0.47683,-0.45838,-0.48312,-0.49393,-0.4631,-0.47649,-0.47998,-0.4793,-0.44037,-0.49276,-0.4446,-0.46693,-0.46575,-0.42957,-0.42031,-0.42442,-0.45767,-0.44167,-0.41016,-0.42292,-0.4201,-0.43446,-0.37762,-0.40131,-0.39682,-0.39925,-0.36361,-0.31909,-0.33928,-0.32317,-0.33423,-0.29526,-0.27505,-0.24443,-0.23594,-0.20639,-0.24312,-0.20964,-0.21524,-0.189,-0.19865,-0.22182,-0.21811,-0.25554,-0.22557,-0.27096,-0.26311,-0.30562,-0.29783,-0.32275,-0.32241,-0.36171,-0.37894,-0.39608,-0.41241,-0.38917,-0.39746,-0.41927,-0.42705,-0.41018,-0.44118,-0.4369,-0.40266,-0.40655,-0.40007,-0.4144,-0.43338,-0.43194,-0.42155,-0.42504,-0.40621,-0.44676,-0.41891,-0.42473,-0.43531,-0.44239,-0.43543,-0.4092,-0.39544,-0.42702,-0.42119,-0.43235,-0.42563,-0.42495,-0.40742,-0.4156,-0.43534,-0.42057,-0.41862,-0.44191,-0.44796,-0.40333,-0.41706,-0.43346,-0.43043,-0.41319,-0.4441,-0.4125,-0.43675,-0.4062,-0.46394,-0.45481,-0.44961,-0.41948,-0.44169,-0.41094,-0.45705,-0.40485,-0.38341,-0.39542,-0.39793,-0.4074,-0.37804,-0.38117,-0.3378,-0.33038,-0.31809,-0.30993,-0.3353,-0.31282,-0.32696,-0.35729,-0.38933,-0.39272,-0.45896,-0.45909,-0.45921,-0.49205,-0.48303,-0.43645,-0.46092,-0.4619,-0.48942,-0.44925,-0.47982,-0.46056,-0.48364,-0.46619,-0.46639,-0.49631,-0.54195,-0.63836,-0.61662,-0.52605,-0.27456,0.097725,0.50385,0.92491,1.1772,1.127,0.86764,0.60713,0.10723,-0.22674,-0.33589,-0.38155,-0.4086,-0.46881,-0.44271,-0.46331,-0.45312,-0.49664,-0.48593,-0.47332,-0.49772,-0.48959,-0.46918,-0.49277,-0.46533,-0.48568,-0.46498,-0.46478,-0.45635,-0.47481,-0.45996,-0.49371,-0.45605,-0.4512,-0.47853,-0.4347,-0.44767,-0.43671,-0.45485,-0.44368,-0.44668,-0.44563,-0.40666,-0.41523,-0.39023,-0.39372,-0.38646,-0.37847,-0.36274,-0.3478,-0.35732,-0.30546,-0.27855,-0.27901,-0.28678,-0.26059,-0.25037,-0.24722,-0.22109,-0.20912,-0.24392,-0.21973,-0.21004,-0.22154,-0.22695,-0.2752,-0.25709,-0.27055,-0.32369,-0.34648,-0.33207,-0.37104,-0.37067,-0.39248,-0.40197,-0.38123,-0.39155,-0.44582,-0.41815,-0.44466,-0.43234,-0.41948,-0.42276,-0.43721,-0.4303,-0.45923,-0.43639,-0.41813,-0.43376,-0.43581,-0.43504,-0.44884,-0.39964,-0.43362,-0.42201,-0.4509,-0.45169,-0.38639,-0.43496,-0.44073,-0.43384,-0.47098,-0.4347,-0.4316,-0.41498,-0.41765,-0.42941,-0.4359,-0.42831,-0.41171,-0.4238,-0.43232,-0.42292,-0.43036,-0.43708,-0.38604,-0.40351,-0.39214,-0.39688,-0.3748,-0.38906,-0.36854,-0.33928,-0.34547,-0.3269,-0.27852,-0.29947,-0.30397,-0.33324,-0.34966,-0.38057,-0.42992,-0.41969,-0.43397,-0.44307,-0.45127,-0.48634,-0.46956,-0.44795,-0.49254,-0.46891,-0.44467,-0.46474,-0.48318,-0.47337,-0.45887,-0.5031,-0.49174,-0.52046,-0.60824,-0.62269,-0.62823,-0.47928,-0.1595,0.24065,0.64429,1.0213,1.1632,1.0783,0.69146,0.15401,-0.15669,-0.28894,-0.40228,-0.44009,-0.43473,-0.44875,-0.44965,-0.48699,-0.49879,-0.47535,-0.46415,-0.48746,-0.48149,-0.47514,-0.469,-0.46582,-0.49867,-0.48429,-0.48035,-0.49108,-0.46059,-0.48776,-0.47678,-0.48186,-0.45873,-0.48536,-0.44834,-0.45611,-0.45846,-0.47745,-0.43123,-0.43623,-0.44912,-0.41902,-0.42036,-0.4404,-0.41046,-0.42257,-0.3669,-0.38428,-0.33963,-0.37461,-0.35269,-0.31518,-0.30961,-0.26556,-0.27289,-0.27529,-0.25425,-0.23232,-0.24024,-0.23747,-0.24265,-0.23948,-0.23191,-0.25759,-0.25924,-0.30144,-0.32052,-0.30278,-0.32494,-0.35228,-0.37883,-0.38707,-0.44351,-0.42281,-0.44016,-0.41302,-0.42315,-0.42679,-0.43637,-0.4471,-0.45285,-0.46009,-0.45018,-0.45983,-0.42916,-0.43557,-0.46624,-0.45662,-0.45505,-0.49823,-0.4345,-0.43595,-0.4651,-0.45055,-0.44324,-0.42471,-0.46535,-0.43849,-0.43921,-0.45401,-0.4548,-0.43709,-0.44507,-0.42243,-0.47064,-0.45034,-0.45697,-0.4549,-0.44879,-0.48477,-0.41723,-0.4344,-0.46343,-0.45053,-0.46784,-0.44521,-0.43705,-0.47116,-0.47418,-0.45076,-0.47819,-0.46514,-0.45872,-0.45534,-0.46162,-0.43224,-0.43859,-0.41903,-0.43479,-0.43113,-0.3943,-0.39928,-0.35515,-0.3224,-0.37497,-0.36201,-0.36659,-0.34296,-0.33271,-0.3878,-0.45897,-0.45669,-0.45976,-0.48157,-0.48509,-0.46375,-0.48492,-0.48247,-0.49757,-0.4843,-0.49465,-0.50658,-0.48747,-0.51126,-0.5207,-0.49904,-0.51309,-0.51403,-0.59627,-0.64341,-0.6236,-0.48006,-0.18805,0.03804,0.41609,0.83317,1.1437,1.1189,0.84922,0.36481,-0.076274,-0.2746,-0.3799,-0.44053,-0.458,-0.4751,-0.48733,-0.50951,-0.51558,-0.4942,-0.52254,-0.50773,-0.51314,-0.50975,-0.5196,-0.54312,-0.51249,-0.49691,-0.5073,-0.53239,-0.51654,-0.49203,-0.51178,-0.51457,-0.52969,-0.49339,-0.46543,-0.49988,-0.46107,-0.49204,-0.46538,-0.48017,-0.48808,-0.43108,-0.43308,-0.46472,-0.44381,-0.40987,-0.43435,-0.43245,-0.40462,-0.38042,-0.36146,-0.3295,-0.34325,-0.33859,-0.31425,-0.25709,-0.28173,-0.25177,-0.28688,-0.2596,-0.24645,-0.21278,-0.2597,-0.26059,-0.30142,-0.28948,-0.28767,-0.31785,-0.31379,-0.37492,-0.36082,-0.4244,-0.39782,-0.41579,-0.43015,-0.44523,-0.43662,-0.45701,-0.44059,-0.46845,-0.45074,-0.44262,-0.45468,-0.46281,-0.44853,-0.47314,-0.46029,-0.47323,-0.45165,-0.43168,-0.45336,-0.46272,-0.4161,-0.4644,-0.43856,-0.43654,-0.45405,-0.44927,-0.44953,-0.42728,-0.43536,-0.45833,-0.43898,-0.4402,-0.45895,-0.46177,-0.44003,-0.4685,-0.42107,-0.43001,-0.45286,-0.4393,-0.40988,-0.45918,-0.43639,-0.44356,-0.45893,-0.44094,-0.45013,-0.45481,-0.46508,-0.45222,-0.46172,-0.45157,-0.46982,-0.48484,-0.42868,-0.42567,-0.48414,-0.44391,-0.42727,-0.40798,-0.40435,-0.3492,-0.38464,-0.36798,-0.3658,-0.34056,-0.32871,-0.34917,-0.35492,-0.40045,-0.38353,-0.36584,-0.3805,-0.45028,-0.46483,-0.45781,-0.47132,-0.43236,-0.47867,-0.49583,-0.47683,-0.47241,-0.49893,-0.46575,-0.50147,-0.48623,-0.4728,-0.46223,-0.46864,-0.57786,-0.64364,-0.60141,-0.45257,-0.3148,-0.0029809,0.44711,0.78843,1.0426,1.086,0.8589,0.28887,-0.071642,-0.23215,-0.30958,-0.36947,-0.47847,-0.45507,-0.4728,-0.46648,-0.45497,-0.48955,-0.47617,-0.45816,-0.5099,-0.4977,-0.47258,-0.459,-0.49925,-0.47589,-0.49007,-0.46057,-0.4536,-0.48675,-0.45192,-0.45736,-0.4717,-0.45694,-0.47136,-0.45883,-0.46309,-0.44654,-0.43701,-0.4288,-0.44424,-0.44491,-0.42111,-0.4381,-0.41047,-0.41444,-0.39757,-0.37439,-0.3397,-0.36464,-0.32835,-0.31994,-0.3524,-0.28671,-0.24953,-0.29156,-0.28283,-0.23453,-0.22611,-0.22399,-0.25476,-0.26471,-0.23807,-0.25566,-0.27503,-0.26946,-0.28008,-0.33395,-0.32053,-0.31581,-0.34401,-0.38727,-0.34931,-0.41021,-0.41096,-0.42512,-0.42698,-0.42718,-0.46128,-0.41795,-0.45641,-0.44338,-0.44986,-0.44612,-0.44187,-0.45514,-0.44134,-0.43305,-0.44427,-0.43926,-0.43445,-0.41881,-0.44983,-0.44257,-0.44686,-0.41114,-0.41236,-0.4178,-0.41967,-0.45515,-0.40708,-0.42291,-0.42569,-0.41161,-0.39999,-0.43553,-0.41448,-0.40136,-0.40403,-0.37775,-0.39188,-0.35292,-0.38,-0.3676,-0.34857,-0.33558,-0.32455,-0.3044,-0.27886,-0.31461,-0.32194,-0.32591,-0.37197,-0.39883,-0.41093,-0.43343,-0.41563,-0.44765,-0.4421,-0.43733,-0.47564,-0.4512,-0.45766,-0.47508,-0.47966,-0.49883,-0.47541,-0.45492,-0.4644,-0.44766,-0.46304,-0.51343,-0.59358,-0.62355,-0.6294,-0.47948,-0.2205,0.16443,0.57639,0.91251,1.1158,1.0608,0.72809,0.1954,-0.17782,-0.30116,-0.36355,-0.43226,-0.41724,-0.45603,-0.44302,-0.47939,-0.48093,-0.51191,-0.50628,-0.4749,-0.47772,-0.4803,-0.49838,-0.48195,-0.46793,-0.48478,-0.49116,-0.48798,-0.4927,-0.51699,-0.48173,-0.46841,-0.4363,-0.46608,-0.47025,-0.46314,-0.46187,-0.42521,-0.46791,-0.42766,-0.41405,-0.45716,-0.43197,-0.4124,-0.42474,-0.40297,-0.41333,-0.36518,-0.38826,-0.36408,-0.32261,-0.31229,-0.30772,-0.28247,-0.28834,-0.27401,-0.23843,-0.24526,-0.25244,-0.25983,-0.27297,-0.26121,-0.283,-0.23029,-0.2684,-0.32973,-0.30304,-0.31192,-0.35551,-0.33699,-0.40136,-0.36938,-0.38449,-0.40469,-0.437,-0.4285,-0.44166,-0.43412,-0.40913,-0.46102,-0.46792,-0.46351,-0.42592,-0.45207,-0.42289,-0.43154,-0.4472,-0.42514,-0.43427,-0.40958,-0.42322,-0.43518,-0.41229,-0.43796,-0.44883,-0.43742,-0.41137,-0.43409,-0.41633,-0.41862,-0.41102,-0.43847,-0.43978,-0.41581,-0.41067,-0.40226,-0.40566,-0.37677,-0.38064,-0.40053,-0.36528,-0.36029,-0.32326,-0.30371,-0.31475,-0.29486,-0.32982,-0.28437,-0.30735,-0.3177,-0.33869,-0.37362,-0.39572,-0.39704,-0.44033,-0.43719,-0.43825,-0.46171,-0.45548
