2.5608,2.5401,2.5574,2.5423,2.5575,2.5633,2.5539,2.5607,2.5225,2.5256,2.5441,2.5558,2.5528,2.5292,2.5354,2.5717,2.5527,2.5609,2.5623,2.5724,2.543,2.5487,2.5243,2.531,2.55,2.5341,2.5649,2.5452,2.5331,2.5462,2.5481,2.5327,2.5328,2.5207,2.5369,2.5575,2.557,2.5412,2.5519,2.536,2.5394,2.5478,2.5372,2.5397,2.5415,2.5412,2.539,2.5363,2.5414,2.5443,2.5397,2.5531,2.5316,2.5359,2.5481,2.5401,2.5516,2.5647,2.5687,2.5718,2.5911,2.5717,2.5742,2.5907,2.6295,2.6222,2.6322,2.6322,2.6423,2.6379,2.6261,2.6148,2.5857,2.5734,2.5576,2.5482,2.5257,2.5173,2.5152,2.5447,2.5395,2.5127,2.5136,2.5369,2.5315,2.5186,2.5173,2.531,2.5382,2.5406,2.4912,2.3919,2.3451,2.3971,2.5925,2.8874,3.2289,3.6532,4.0031,4.1211,4.0733,3.8113,3.3059,2.9095,2.7168,2.6697,2.6262,2.6087,2.568,2.5551,2.5314,2.5402,2.5175,2.4969,2.5098,2.5191,2.5247,2.5464,2.5226,2.511,2.5068,2.5148,2.5129,2.5356,2.5216,2.541,2.5347,2.5604,2.5359,2.559,2.5317,2.5281,2.5759,2.5782,2.5806,2.5755,2.571,2.5816,2.6055,2.6031,2.6025,2.6028,2.6236,2.6237,2.6438,2.6558,2.6759,2.6809,2.6944,2.7015,2.7279,2.7426,2.7715,2.7773,2.7933,2.818,2.8494,2.8216,2.8241,2.8471,2.8362,2.8242,2.8414,2.8426,2.8195,2.7923,2.784,2.766,2.7278,2.683,2.6718,2.6512,2.6361,2.5986,2.6062,2.5888,2.5881,2.5632,2.572,2.5505,2.5641,2.5704,2.551,2.5294,2.5488,2.552,2.5656,2.5633,2.5788,2.556,2.5505,2.5422,2.5593,2.576,2.571,2.559,2.5554,2.5528,2.5564,2.5713,2.5706,2.5712,2.5651,2.5515,2.5371,2.5349,2.5318,2.5643,2.5955,2.5747,2.575,2.5613,2.5502,2.5356,2.5446,2.5451,2.5613,2.5643,2.5466,2.5161,2.5508,2.5633,2.5454,2.5343,2.5323,2.5412,2.5198,2.5217,2.5561,2.5449,2.5516,2.5411,2.5273,2.557,2.5459,2.5506,2.528,2.5304,2.5372,2.5277,2.5291,2.5596,2.5468,2.5529,2.5144,2.5085,2.4949,2.5198,2.549,2.5414,2.5395,2.5359,2.5298,2.5239,2.5088,2.5246,2.5477,2.568,2.5761,2.5589,2.5597,2.5812,2.5721,2.6005,2.5973,2.601,2.5814,2.635,2.6509,2.633,2.6065,2.5896,2.5748,2.5614,2.5294,2.5195,2.5086,2.4926,2.5041,2.5137,2.5047,2.5112,2.5113,2.4918,2.5096,2.5139,2.5003,2.4929,2.4668,2.4623,2.4408,2.3992,2.3699,2.417,2.6477,2.9625,3.3598,3.7431,3.9882,3.9974,3.7687,3.2896,3.0537,2.7825,2.6561,2.6395,2.5616,2.5696,2.5324,2.5407,2.524,2.5224,2.4797,2.5002,2.4845,2.5125,2.5121,2.5007,2.4949,2.5155,2.4966,2.5094,2.5233,2.5213,2.5066,2.5242,2.5352,2.5445,2.5345,2.5506,2.5264,2.546,2.5488,2.5479,2.547,2.5551,2.5531,2.5856,2.5835,2.5751,2.5912,2.6057,2.6183,2.6184,2.633,2.6573,2.6582,2.6818,2.7015,2.7183,2.733,2.7388,2.749,2.773,2.792,2.7958,2.7828,2.8279,2.8482,2.8381,2.8224,2.8213,2.8407,2.8287,2.7899,2.761,2.7279,2.6953,2.6801,2.6479,2.6474,2.6163,2.5891,2.5568,2.5634,2.5624,2.5601,2.5687,2.5588,2.5373,2.5409,2.5403,2.5376,2.5199,2.5486,2.5373,2.5391,2.5637,2.548,2.5211,2.5463,2.5403,2.5369,2.5314,2.5489,2.5119,2.5465,2.5572,2.5489,2.5312,2.5594,2.5469,2.5461,2.5449,2.551,2.5255,2.5724,2.5614,2.562,2.5395,2.5479,2.5502,2.5594,2.5396,2.5268,2.5302,2.5481,2.5381,2.5372,2.5359,2.5486,2.5506,2.5318,2.52,2.5238,2.5344,2.5605,2.5234,2.5173,2.5549,2.5463,2.5219,2.5119,2.5375,2.5194,2.504,2.5237,2.5137,2.5373,2.5682,2.5372,2.5534,2.5338,2.5057,2.5443,2.5482,2.5342,2.5431,2.5378,2.5536,2.5592,2.5604,2.5645,2.6078,2.6084,2.6372,2.6355,2.6076,2.6183,2.6186,2.6157,2.61,2.5558,2.5646,2.5425,2.5189,2.5344,2.517,2.506,2.4997,2.507,2.5061,2.489,2.4528,2.4905,2.5259,2.5277,2.5167,2.5139,2.5028,2.4313,2.3637,2.3452,2.4132,2.6341,2.8168,3.154,3.5832,3.9127,4.0607,3.988,3.643,3.0992,2.8,2.6789,2.653,2.5819,2.5743,2.5349,2.5257,2.5183,2.5311,2.5126,2.5139,2.5042,2.5053,2.4886,2.4962,2.4874,2.526,2.4962,2.5254,2.5174,2.5128,2.5204,2.5324,2.5166,2.5372,2.5324,2.5379,2.5291,2.536,2.5485,2.5563,2.5804,2.5609,2.547,2.5637,2.564,2.5771,2.6027,2.6135,2.6032,2.6153,2.61,2.6592,2.6709,2.6748,2.6935,2.7099,2.7277,2.7401,2.7742,2.777,2.7771,2.7912,2.7988,2.8313,2.8421,2.8371,2.8565,2.8221,2.8357,2.8088,2.7851,2.7659,2.7176,2.6993,2.683,2.6603,2.6361,2.619,2.6159,2.5878,2.5606,2.55,2.5488,2.5691,2.5562,2.5288,2.5417,2.5666,2.5474,2.5366,2.5477,2.5391,2.5519,2.5398,2.5535,2.542,2.535,2.5408,2.5557,2.542,2.5532,2.5496,2.5548,2.5455,2.553,2.5489,2.5283,2.5177,2.5494,2.5578,2.5908,2.5395,2.5412,2.5496,2.5669,2.5648,2.5563,2.5644,2.5539,2.5397,2.5425,2.5294,2.5483,2.5498,2.5526,2.5482,2.5552,2.5375,2.5328,2.5417,2.5616,2.5262,2.5077,2.5187,2.5435,2.5279,2.5361,2.5371,2.5368,2.5279,2.5442,2.5468,2.5349,2.519,2.5169,2.5261,2.5157,2.5528,2.5417,2.5301,2.5326,2.5043,2.5289,2.5506,2.5416,2.5343,2.5453,2.5582,2.564,2.5751,2.575,2.5781,2.5827,2.6028,2.6127,2.6329,2.6318,2.6292,2.6289,2.6292,2.6014,2.5866,2.5593,2.5357,2.5217,2.5304,2.5279,2.5045,2.5123,2.4817,2.4937,2.5094,2.5253,2.5188,2.5201,2.4968,2.4989,2.524,2.5002,2.492,2.4235,2.3614,2.3607,2.4423,2.7155,3.0756,3.4824,3.8901,4.1252,4.0764,3.7634,3.2493,2.8896,2.7314,2.6111,2.5978,2.5601,2.5664,2.5557,2.541,2.5148,2.5064,2.5074,2.5181,2.5052,2.4967,2.516,2.544,2.5181,2.5189,2.4987,2.504,2.4943,2.5203,2.5392,2.5508,2.5409,2.5179,2.5141,2.55,2.5334,2.529,2.556,2.565,2.5537,2.5747,2.5779,2.5879,2.5818,2.5889,2.5941,2.5977,2.6118,2.6326,2.6382,2.648,2.6628,2.6961,2.7073,2.7228,2.7036,2.7178,2.7532,2.7699,2.8022,2.8104,2.8209,2.8265,2.83,2.8387,2.835,2.8395,2.8267,2.7859,2.7673,2.7388,2.7268,2.704,2.6699,2.6398,2.6029,2.5777,2.6,2.5962,2.5787,2.5546,2.5647,2.5538,2.5563,2.5521,2.5438,2.5521,2.5447,2.5287,2.5231,2.555,2.5637,2.5607,2.5413,2.5429,2.5255,2.5266,2.529,2.5423,2.5253,2.521,2.571,2.5521,2.5602,2.5362,2.5405,2.5345,2.5385,2.544,2.5435,2.58,2.558,2.5467,2.5394,2.5416,2.5551,2.5623,2.526,2.5365,2.5577,2.5586,2.547,2.536,2.5288,2.5404,2.5562,2.5322,2.5481,2.5316,2.5409,2.5337,2.5204,2.5175,2.5459,2.5156,2.5133,2.5195,2.5406,2.5167,2.5227,2.5347,2.5212,2.5289,2.5127,2.5279,2.5318,2.5287,2.541,2.5387,2.5332,2.5333,2.5267,2.5254,2.5462,2.5383,2.5394,2.5208,2.516,2.5316,2.5201,2.5315,2.5247,2.5317,2.5346,2.5298,2.539,2.5777,2.5807,2.5639,2.5928,2.5925,2.5947,2.5898,2.6116,2.6199,2.6313,2.6304,2.6396,2.6002,2.5916,2.5684,2.5318,2.5394,2.5387,2.5247,2.5152,2.5163,2.5111,2.5003,2.5282,2.5165,2.5028,2.5089,2.5006,2.505,2.4934,2.4982,2.5195,2.4868,2.4419,2.3427,2.3492,2.4831,2.7363,3.0945,3.4748,3.8798,4.1429,4.096,3.784,3.3033,2.9121,2.7244,2.6451,2.609,2.577,2.5783,2.5353,2.5213,2.5058,2.5363,2.5246,2.5244,2.4997,2.5129,2.4945,2.5148,2.5034,2.5132,2.51,2.5253,2.4962,2.535,2.5543,2.536,2.5507,2.5253,2.5279,2.5204,2.5446,2.5591,2.5614,2.5682,2.552,2.5727,2.5684,2.5768,2.5925,2.6084,2.6013,2.6133,2.6174,2.6248,2.6229,2.6215,2.6476,2.6826,2.7081,2.6916,2.7331,2.7544,2.7595,2.7808,2.8129,2.8157,2.8258,2.8343,2.8421,2.8507,2.8612,2.8291,2.8082,2.8071,2.7944,2.7694,2.7484,2.7305,2.6885,2.6519,2.6599,2.6482,2.6021,2.601,2.601,2.5747,2.5766,2.5697,2.5737,2.5635,2.5588,2.5631,2.5713,2.5711,2.5468,2.5462,2.5514,2.5631,2.5437,2.5566,2.5604,2.5525,2.5722,2.5767,2.5648,2.5641,2.5524,2.5517,2.5596,2.5694,2.5606,2.5809,2.5907,2.5484,2.556,2.5618,2.5679,2.5636,2.5497,2.5526,2.549,2.5644,2.5892,2.5751,2.5586,2.5552,2.5684,2.5492,2.5485,2.523,2.5497,2.5547,2.5761,2.5733,2.5597,2.5358,2.5497,2.562,2.5722,2.5584,2.5572,2.5445,2.5426,2.5671,2.5688,2.5385,2.5516,2.5576,2.5529,2.5597,2.5518,2.5638,2.5528,2.5445,2.5293,2.5406,2.5462,2.5735,2.5751,2.5365,2.5476,2.5644,2.5447,2.5445,2.5409,2.5452,2.5763,2.5405,2.5493,2.5779,2.5439,2.5504,2.5445,2.5513,2.5639,2.5808,2.591,2.589,2.5977,2.5944,2.597,2.6096,2.6104,2.6378,2.6592,2.6521,2.6457,2.6575,2.6254,2.6268,2.6085,2.5789,2.5715,2.537,2.5257,2.5388,2.5454,2.5376,2.5447,2.5526,2.5205,2.5196,2.5512,2.5642,2.5324,2.542,2.5254,2.5276,2.501,2.4262,2.401,2.4221,2.5867,2.8374,3.2431,3.6749,3.9927,4.079,4.0716,3.8073,3.272,2.9326,2.7653,2.6892,2.6464,2.6065,2.5711,2.5657,2.5632,2.5536,2.5534,2.5468,2.5336,2.5536,2.5374,2.5584,2.5482,2.5641,2.5641,2.5484,2.5649,2.5677,2.563,2.5485,2.5664,2.5829,2.5607,2.5734,2.5803,2.5855,2.6101,2.6037,2.6015,2.6176,2.5986,2.6028,2.6191,2.6326,2.6353,2.6433,2.6383,2.6431,2.6671,2.6914,2.6862,2.6808,2.7232,2.7624,2.7653,2.7869,2.8076,2.8163,2.8336,2.8601,2.8593,2.863,2.8609,2.8869,2.889,2.8848,2.8834,2.8575,2.8435,2.8409,2.8217,2.7853,2.7599,2.7099,2.701,2.6867,2.6642,2.633,2.6032,2.6031,2.6099,2.6105,2.6121,2.5963,2.5921,2.5846,2.5821,2.5765,2.5661,2.5729,2.5824,2.5649,2.5972,2.5933,2.5808,2.5786,2.5788,2.5824,2.5884,2.5788,2.5856,2.5815,2.5922,2.6015,2.5942,2.5821,2.5966,2.5895,2.5814,2.5698,2.5829,2.5878,2.5677,2.5995,2.5997,2.5912,2.5976,2.5736,2.5679,2.5726,2.5824,2.5969,2.6003,2.5968,2.6174,2.6106,2.5703,2.5554,2.5659,2.5715,2.5712,2.579,2.5791,2.5635,2.5807,2.5492,2.5502,2.5562,2.5967,2.5775,2.5696,2.5636,2.5736,2.5831,2.5769,2.5559,2.5425,2.5594,2.5717,2.5793,2.5637,2.585,2.6028,2.5849,2.5893,2.6071,2.5951,2.6305,2.6254,2.6575,2.6525,2.6349,2.6346,2.6561,2.663,2.6654,2.6573,2.6345,2.6113,2.5953,2.5727,2.5549,2.5468,2.5438,2.5503,2.546,2.5489,2.5369,2.5293,2.5368,2.5184,2.5578,2.5431,2.5316,2.5402,2.5372,2.4457,2.4017,2.4012,2.481,2.715,3.0624,3.4446,3.8381,4.1122,4.0863,3.8036,3.2866,2.9196,2.7745,2.699,2.6401,2.6204,2.5881,2.5539,2.5527,2.5504,2.5599,2.5432,2.5361,2.5395,2.547,2.5542,2.5376,2.5493,2.5534,2.5431,2.5492,2.5396,2.552,2.5772,2.5694,2.5602,2.5714,2.5584,2.562,2.5778,2.579,2.5481,2.5678,2.6142,2.6058,2.583,2.6028,2.6126,2.602,2.6385,2.6551,2.6281,2.67,2.665,2.7046,2.7205,2.6996,2.7372,2.7876,2.7901,2.8021,2.8067,2.8076,2.8244,2.8543,2.8527,2.8558,2.8649,2.8718,2.8877,2.8651,2.8449,2.8319,2.8259,2.7717,2.7603,2.7322,2.7231,2.6768,2.6826,2.6286,2.6236,2.6002,2.6139,2.5938,2.5938,2.5907,2.5784,2.5781,2.5734,2.5771,2.5567,2.5595,2.5509,2.5738,2.5876,2.5726,2.5651,2.5666,2.5736,2.595,2.5839,2.5742,2.5642,2.5726,2.5867,2.6058,2.5605,2.5741,2.5669,2.5787,2.5902,2.5595,2.5443,2.5749,2.5957,2.587,2.5756,2.5735,2.5754,2.605,2.6157,2.557,2.5713,2.5766,2.5715,2.5778,2.5904,2.5848,2.5572,2.5592,2.5635,2.5809,2.5812,2.5795,2.5898,2.5787,2.576,2.5584,2.5549,2.5829,2.584,2.5795,2.5617,2.5518,2.5534,2.5675,2.5711,2.5556,2.5472,2.5484,2.5421,2.5817,2.5668,2.5548,2.5883,2.5752,2.5826,2.5605,2.5367,2.5551,2.5845,2.5907,2.5999,2.5905,2.6013,2.5968,2.6044,2.5906,2.6429,2.673,2.6805,2.6779,2.6566,2.6432,2.6347,2.6454,2.6334,2.6078,2.5898,2.5743,2.5398,2.5397,2.534,2.5603,2.5495,2.5419,2.5358,2.538,2.5207,2.524,2.5594,2.5615,2.5435,2.525,2.4996,2.4573,2.3988,2.413,2.5641,2.8623,3.2255,3.4016,3.82,4.128,4.1246,3.9029,3.3936,2.9843,2.7812,2.7139,2.6205,2.608,2.5834,2.5661,2.5594,2.5397,2.5501,2.5539,2.5157,2.5182,2.5334,2.5361,2.5395,2.5501,2.5514,2.5502,2.544,2.5471,2.5471,2.5531,2.565,2.5858,2.5578,2.5515,2.5602,2.5666,2.5835,2.567,2.5778,2.6076,2.6049,2.5881,2.5835,2.6187,2.6156,2.6315,2.6424,2.642,2.6642,2.6617,2.6823,2.719,2.7094,2.7157,2.7551,2.7718,2.7895,2.8047,2.816,2.8077,2.834,2.864,2.8716,2.8556,2.8469,2.8851,2.8863,2.8642,2.8259,2.8015,2.7787,2.7348,2.7407,2.7147,2.7093,2.6822,2.6464,2.6195,2.6031,2.5918,2.5841,2.5841,2.589,2.5843,2.5834,2.5695,2.567,2.5901,2.6014,2.5755,2.5589,2.5578,2.59,2.5897,2.5769,2.5656,2.5613,2.5785,2.5581,2.5601,2.5797,2.5602,2.5756,2.5919,2.5682,2.5737,2.5946,2.5814,2.5736,2.5614,2.5848,2.6029,2.6028,2.5784,2.5625,2.5722,2.5563,2.5848,2.5919,2.565,2.5796,2.577,2.5601,2.5635,2.5888,2.5683,2.5628,2.5504,2.5645,2.5929,2.561,2.5723,2.5831,2.5697,2.5512,2.5421,2.5466,2.5636,2.5621,2.563,2.5572,2.5566,2.5512,2.5546,2.5654,2.5609,2.5418,2.5444,2.5412,2.5732,2.5666,2.5607,2.5758,2.5728,2.5435,2.5441,2.5235,2.5443,2.587,2.5777,2.5819,2.5773,2.5681,2.5688,2.6095,2.6239,2.6372,2.6313,2.6375,2.664,2.675,2.6561,2.6286,2.5899,2.6136,2.5874,2.5519,2.5394,2.527,2.5057,2.5005,2.5503,2.5536,2.5324,2.533,2.5463,2.5341,2.5234,2.5162,2.499,2.5098,2.5233,2.5134,2.4096,2.3881,2.4254,2.6257,2.9485,3.3188,3.7525,4.085,4.1441,3.9727,3.5138,3.0385,2.8859,2.724,2.646,2.6289,2.5896,2.5394,2.5373,2.5515,2.5231,2.5208,2.5271,2.5049,2.5101,2.5296,2.5278,2.517,2.5268,2.5176,2.5292,2.5444,2.5507,2.5474,2.5255,2.5419,2.5426,2.5241,2.554,2.5754,2.5919,2.5482,2.5732,2.5571,2.5367,2.5568,2.5978,2.5823,2.6021,2.634,2.636,2.6363,2.6495,2.6386,2.6684,2.6619,2.6889,2.7065,2.7102,2.7228,2.7739,2.7866,2.7898,2.7951,2.8184,2.8406,2.8247,2.8634,2.8587,2.8899,2.8694,2.8347,2.8269,2.8263,2.8126,2.7809,2.7481,2.6981,2.6825,2.6621,2.63,2.6076,2.587,2.5865,2.5726,2.5716,2.5895,2.614,2.5588,2.573,2.5769,2.5714,2.5595,2.5623,2.5426,2.5506,2.5819,2.5631,2.5727,2.5607,2.5464,2.558,2.5605,2.5827,2.5744,2.5326,2.5581,2.586,2.5718,2.5779,2.5662,2.5591,2.5802,2.5869,2.559,2.5542,2.5532,2.5953,2.5755,2.5677,2.5519,2.5657,2.5694,2.5713,2.5564,2.5515,2.5585,2.5736,2.5766,2.5862,2.5649,2.5543,2.5707,2.5591,2.5518,2.5285,2.5319,2.5548,2.5748,2.5727,2.572,2.5651,2.5519,2.5399,2.5614,2.5527,2.5479,2.5602,2.5464,2.5515,2.5697,2.5657,2.5516,2.5539,2.546,2.5419,2.5561,2.557,2.5438,2.5513,2.5578,2.5368,2.5136,2.5254,2.5459,2.5703,2.5606,2.5423,2.5478,2.5572,2.578,2.5901,2.5889,2.5948,2.5862,2.6044,2.6184,2.6223,2.6349,2.6625,2.655,2.6408,2.6501,2.6526,2.6319,2.5991,2.5709,2.5646,2.5757,2.5782,2.5394,2.526,2.5387,2.5316,2.5384,2.5346,2.5359,2.5218,2.5395,2.5551,2.5303,2.5169,2.5235,2.5223,2.4833,2.4192,2.4016,2.4441,2.6459,2.9909,3.3909,3.7787,4.0862,4.0993,3.884,3.6716,3.1876,2.8569,2.7256,2.648,2.6359,2.5718,2.5551,2.5312,2.5534,2.5443,2.5483,2.5401,2.5196,2.5269,2.5498,2.5324,2.5548,2.5431,2.5523,2.559,2.5296,2.5244,2.5509,2.5555,2.5657,2.5574,2.5544,2.533,2.568,2.5567,2.5624,2.5732,2.5868,2.5803,2.5826,2.6068,2.6224,2.6094,2.6127,2.6216,2.619,2.6361,2.6695,2.6851,2.6839,2.7049,2.6853,2.7292,2.7468,2.7602,2.7878,2.792,2.8063,2.8503,2.8587,2.8699,2.8602,2.8653,2.8797,2.8715,2.8729,2.863,2.8574,2.8103,2.7794,2.7501,2.718,2.6998,2.6893,2.6573,2.6302,2.6143,2.5919,2.5858,2.6056,2.6075,2.5936,2.5888,2.5845,2.5663,2.5753,2.5518,2.5723,2.5906,2.5513,2.5443,2.5603,2.5909,2.5887,2.5498,2.5762,2.5726,2.5784,2.5599,2.5671,2.6073,2.5931,2.5793,2.569,2.58,2.5717,2.567,2.5791,2.5592,2.5754,2.5794,2.5651,2.5617,2.5704,2.5898,2.5913,2.5909,2.5856,2.5802,2.5848,2.565,2.544,2.5729,2.5719,2.5519,2.5745,2.5844,2.5551,2.5643,2.5532,2.526,2.5517,2.5679,2.5742,2.5513,2.5281,2.5599,2.5722,2.5724,2.5553,2.5508,2.5427,2.5629,2.5576,2.5367,2.536,2.5499,2.5551,2.5644,2.5656,2.5931,2.593,2.6102,2.5994,2.5973,2.591,2.5998,2.6144,2.6295,2.632,2.6614,2.6522,2.656,2.6342,2.6073,2.5864,2.5935,2.5585,2.5314,2.5499,2.5549,2.5551,2.5342,2.5237,2.5107,2.4988,2.5301,2.522,2.5331,2.532,2.5265,2.5314,2.503,2.4985,2.4166,2.3834,2.4203,2.4738,2.7394,3.1077,3.5294,3.8757,4.06,4.0177,3.6762,3.1916,2.8719,2.7427,2.6478,2.6193,2.5812,2.553,2.5653,2.5427,2.531,2.512,2.4979,2.5019,2.5235,2.5267,2.5317,2.5352,2.519,2.528,2.5077,2.5265,2.5351,2.5477,2.5548,2.559,2.5454,2.5443,2.5647,2.5679,2.5638,2.5512,2.5615,2.572,2.5868,2.5891,2.5894,2.5967,2.5904,2.5969,2.6265,2.6109,2.6407,2.6568,2.6685,2.6773,2.6831,2.7078,2.7253,2.7539,2.7678,2.7998,2.7943,2.7869,2.8004,2.8379,2.8491,2.837,2.8369,2.8638,2.8735,2.8789,2.827,2.8032,2.774,2.7612,2.7231,2.6972,2.7024,2.698,2.6473,2.6201,2.5763,2.5792,2.5929,2.5946,2.5852,2.5905,2.5824,2.5713,2.5611,2.5581,2.5618,2.5459,2.5501,2.5522,2.5404,2.5471,2.5624,2.5623,2.5656,2.5505,2.5582,2.5263,2.5439,2.5742,2.5861,2.585,2.5742,2.5761,2.5455,2.566,2.5493,2.556,2.5603,2.5634,2.563,2.5379,2.549,2.5764,2.5736,2.5702,2.5756,2.6007,2.5521,2.5476,2.5859,2.5664,2.5615,2.5486,2.5656,2.5357,2.525,2.5441,2.5569,2.5614,2.553,2.5606,2.5409,2.5294,2.5496,2.5654,2.5499,2.5522,2.5483,2.5391,2.5371,2.5541,2.5584,2.5417,2.5446,2.5335,2.5248,2.5467,2.56,2.5877,2.6084,2.6013,2.5897,2.6045,2.5853,2.6033,2.6441,2.616,2.6309,2.625,2.6203,2.6445,2.6439,2.6367,2.5953,2.5557,2.5489,2.5442,2.5297,2.5395,2.5138,2.5205,2.527,2.5335,2.52,2.5274,2.5173,2.523,2.5262,2.5064,2.5153,2.5107,2.5009,2.4037,2.3743,2.3783,2.5353,2.8436,3.2308,3.6506,3.9988,4.1267,4.0233,3.61,3.1129,2.826,2.7126,2.6538,2.6116,2.581,2.5647,2.5311,2.5296,2.5462,2.5345,2.5282,2.5452,2.4989,2.5179,2.5385,2.5135,2.5259,2.5326,2.5365,2.5216,2.5481,2.5478,2.5301,2.5512,2.5389,2.5469,2.5425,2.5309,2.5415,2.5459,2.5772,2.603,2.5905,2.5874,2.5913,2.5897,2.5831,2.6051,2.6239,2.6263,2.6464,2.6668,2.6701,2.6764,2.6939,2.6956,2.7147,2.7237,2.7488,2.7804,2.7818,2.8076,2.8278,2.8188,2.8503,2.8534,2.8545,2.8678,2.8526,2.8668,2.8401,2.8317,2.7739,2.7725,2.7389,2.6881,2.675,2.6593,2.6547,2.6373,2.6147,2.5568,2.5705,2.6,2.5762,2.571,2.5953,2.5763,2.5888,2.5649,2.5811,2.5811,2.5744,2.5764,2.5505,2.5294,2.5523,2.5483,2.5826,2.5753,2.5799,2.571,2.5626,2.5759,2.5784,2.5537,2.532,2.553,2.5748,2.5759,2.5774,2.5673,2.5729,2.5851,2.555,2.5822,2.5638,2.5634,2.5743,2.5671,2.5752,2.5812,2.5536,2.5551,2.566,2.5605,2.5367,2.5548,2.5476,2.5512,2.543,2.5335,2.5214,2.5471,2.5866,2.5796,2.5698,2.5696,2.5467,2.563,2.5726,2.5598,2.5418,2.5595,2.5687,2.5365,2.5533,2.5526,2.5466,2.5569,2.5529,2.5536,2.539,2.5327,2.5412,2.5536,2.5311,2.5417,2.5369,2.556,2.5673,2.5607,2.5506,2.5449,2.5647,2.5557,2.5489,2.538,2.533,2.5335,2.553,2.5191,2.5441,2.5362,2.554,2.5551,2.5239,2.5242,2.5109,2.5591,2.5607,2.5316,2.5577,2.5604,2.5439,2.5269,2.5321,2.5461,2.5089,2.5346,2.5704,2.5337,2.5422,2.563,2.5635,2.5709,2.5784,2.5904,2.5908,2.5845,2.607,2.6137,2.6375,2.6248,2.6389,2.6373,2.6172,2.6162,2.6125,2.5753,2.5572,2.5569,2.547,2.5335,2.5131,2.5126,2.5265,2.5243,2.5409,2.5103,2.4867,2.4822,2.5061,2.524,2.5382,2.5268,2.513,2.4711,2.3813,2.3615,2.4199,2.6296,2.9676,3.369,3.7802,4.0753,4.0863,3.9031,3.4337,3.1657,2.8625,2.7065,2.6362,2.571,2.5949,2.5439,2.5484,2.5322,2.5244,2.4761,2.4838,2.4869,2.5265,2.4952,2.5284,2.5151,2.516,2.497,2.5223,2.513,2.5281,2.5106,2.5305,2.5389,2.5308,2.5175,2.5388,2.5488,2.5382,2.5467,2.5437,2.5339,2.5703,2.5625,2.5593,2.5689,2.5873,2.5893,2.6006,2.6182,2.6326,2.6118,2.6122,2.6441,2.6858,2.7,2.6866,2.721,2.7515,2.778,2.7615,2.7659,2.8076,2.8213,2.8437,2.8463,2.8552,2.8679,2.8431,2.8616,2.8575,2.8516,2.8088,2.7881,2.7528,2.7325,2.7112,2.6716,2.6303,2.6223,2.5832,2.6044,2.5942,2.6004,2.5768,2.5699,2.5608,2.5469,2.547,2.5463,2.5576,2.5551,2.5413,2.5487,2.5234,2.5413,2.5391,2.5661,2.5469,2.5632,2.5732,2.5444,2.549,2.5697,2.5565,2.5691,2.5573,2.5335,2.5338,2.5654,2.5704,2.5456,2.567,2.5641,2.5528,2.5476,2.5329,2.5452,2.5338,2.5517,2.5565,2.5694,2.5538,2.5483,2.532,2.5281,2.5331,2.5281,2.5266,2.5413,2.5643,2.5491,2.5411,2.5343,2.5428,2.5395,2.5338,2.5286,2.5315,2.5139,2.5337,2.5289,2.5328,2.515,2.5314,2.5371,2.5379,2.5317,2.5199,2.5496,2.536,2.5322,2.5342,2.5374,2.5422,2.5269,2.5341,2.5266,2.512,2.5274,2.5369,2.5307,2.5181,2.5287,2.5243,2.5441,2.543,2.5331,2.5481,2.5163,2.5325,2.5344,2.5228,2.5121,2.5285,2.5547,2.518,2.5121,2.5048,2.5093,2.5454,2.5527,2.5089,2.4872,2.5273,2.5626,2.5411,2.5281,2.5278,2.5202,2.553,2.5737,2.5682,2.5461,2.5608,2.5682,2.58,2.599,2.6464,2.6243,2.6162,2.6246,2.6111,2.6104,2.5957,2.5671,2.5272,2.5302,2.5376,2.5175,2.4873,2.4908,2.513,2.5007,2.5142,2.5169,2.51,2.4965,2.5147,2.5017,2.4917,2.4929,2.5036,2.4299,2.3712,2.3632,2.4091,2.6618,3.0053,3.3649,3.7959,4.088,4.1139,4.0158,3.6384,3.1576,2.8437,2.6842,2.6221,2.5768,2.573,2.5339,2.5303,2.5222,2.5367,2.5077,2.5031,2.5078,2.4916,2.4974,2.5223,2.5029,2.5151,2.5155,2.508,2.5012,2.5081,2.5307,2.5391,2.5273,2.5277,2.5454,2.5352,2.5378,2.5459,2.5702,2.5642,2.5763,2.5642,2.5611,2.5462,2.5567,2.6182,2.6064,2.6074,2.6136,2.5933,2.6198,2.6545,2.6789,2.6622,2.6683,2.7112,2.7352,2.7559,2.7551,2.7715,2.8201,2.8137,2.8112,2.8311,2.8291,2.8556,2.8516,2.8503,2.8611,2.8574,2.8255,2.8195,2.8113,2.7615,2.7336,2.7095,2.6952,2.6694,2.6515,2.6008,2.5899,2.5666,2.5509,2.5744,2.5779,2.5724,2.5627,2.5684,2.5462,2.5476,2.5602,2.5577,2.5558,2.538,2.5517,2.5385,2.5277,2.5448,2.5769,2.5592,2.5753,2.555,2.5445,2.5346,2.5589,2.5705,2.537,2.5354,2.5571,2.5469,2.5259,2.5461,2.5667,2.5659,2.5472,2.5558,2.5641,2.5619,2.5533,2.5529,2.554,2.5829,2.5636,2.5378,2.5371,2.5357,2.5392,2.5405,2.5333,2.5396,2.5751,2.5553,2.5286,2.5478,2.5362,2.5241,2.5355,2.5445,2.5597,2.5465,2.5465,2.515,2.5236,2.5709,2.5509,2.5371,2.5272,2.5274,2.547,2.5318,2.5374,2.542,2.5422,2.5453,2.5305,2.4903,2.5248,2.5623,2.5537,2.5268,2.5301,2.5238,2.5227,2.5332,2.5333,2.5157,2.5336,2.554,2.5404,2.5229,2.5398,2.536,2.5268,2.5373,2.5473,2.5456,2.5388,2.5253,2.5377,2.5217,2.516,2.5374,2.5215,2.5039,2.5389,2.5477,2.5401,2.5501,2.5735,2.5605,2.5756,2.5598,2.5635,2.5666,2.5708,2.6228,2.6409,2.6482,2.6439,2.6261,2.5926,2.5961,2.6176,2.5824,2.5698,2.5518,2.5373,2.5315,2.5203,2.5223,2.5144,2.512,2.5292,2.507,2.5003,2.5229,2.5032,2.511,2.51,2.5196,2.4959,2.4663,2.3959,2.3672,2.426,2.6678,3.0141,3.4072,3.7757,3.9509,4.0988,3.9848,3.5716,3.0993,2.8153,2.72,2.6146,2.5976,2.5663,2.5691,2.5255,2.533,2.5247,2.5331,2.5112,2.5111,2.5282,2.5194,2.5166,2.5119,2.4978,2.5037,2.4986,2.5388,2.538,2.5618,2.5331,2.5316,2.5516,2.5466,2.5589,2.5431,2.5542,2.5632,2.5693,2.5622,2.5703,2.5777,2.5914,2.587,2.5924,2.6321,2.6047,2.6039,2.6308,2.6363,2.6468,2.6592,2.6739,2.7272,2.7359,2.7607,2.7516,2.7884,2.82,2.8122,2.8204,2.8338,2.8489,2.8512,2.8468,2.88,2.8755,2.8845,2.877,2.8436,2.8437,2.8151,2.7899,2.7459,2.7126,2.6839,2.6604,2.6596,2.6408,2.6126,2.594,2.5788,2.5608,2.5698,2.5641,2.5728,2.5796,2.5558,2.5533,2.55,2.5587,2.5576,2.5602,2.5463,2.5515,2.5843,2.5662,2.5334,2.5382,2.5716,2.5855,2.5462,2.5629,2.5648,2.5896,2.5647,2.57,2.5581,2.5702,2.5609,2.5559,2.5578,2.5584,2.5758,2.5786,2.5806,2.5808,2.5696,2.5578,2.5504,2.5395,2.5507,2.5739,2.5757,2.5802,2.5923,2.5631,2.5522,2.5598,2.5599,2.5676,2.5572,2.5423,2.5511,2.5556,2.5529,2.5388,2.5458,2.5621,2.5554,2.5555,2.5252,2.5606,2.5628,2.532,2.5332,2.5518,2.5309,2.5273,2.5404,2.54,2.5615,2.5566,2.5369,2.5516,2.5299,2.5576,2.5283,2.5425,2.5544,2.5399,2.5204,2.5316,2.5842,2.5405,2.5373,2.5594,2.543,2.5648,2.5336,2.5202,2.5239,2.5639,2.5652,2.56,2.5963,2.5916,2.5812,2.5919,2.6105,2.6281,2.6464,2.6356,2.6489,2.6435,2.6489,2.6535,2.61,2.5975,2.5706,2.5648,2.5318,2.5292,2.5172,2.5393,2.555,2.5345,2.5273,2.5277,2.5141,2.5054,2.5265,2.5412,2.5324,2.5362,2.507,2.4841,2.3898,2.3628,2.4116,2.6244,2.9884,3.3463,3.7082,3.9893,4.0332,3.8642,3.4613,3.0168,2.8135,2.6909,2.6239,2.5869,2.5796,2.5617,2.5521,2.5511,2.551,2.5336,2.5279,2.5144,2.5304,2.5118,2.5284,2.5351,2.5299,2.5168,2.5087,2.5008,2.5506,2.5861,2.5806,2.5455,2.562,2.5501,2.5588,2.5575,2.5715,2.5626,2.5799,2.5817,2.5926,2.5855,2.603,2.6036,2.6186,2.603,2.6172,2.6228,2.6485,2.6683,2.6881,2.6978,2.676,2.688,2.7516,2.7808,2.7963,2.8084,2.8274,2.8308,2.8367,2.8266,2.8678,2.8835,2.8897,2.8652,2.8862,2.8921,2.8882,2.8684,2.8423,2.7991,2.7804,2.7618,2.7047,2.6715,2.6446,2.6518,2.6492,2.6192,2.5886,2.5862,2.574,2.5714,2.6045,2.5899,2.5677,2.5766,2.5701,2.5768,2.5606,2.5682,2.5879,2.5726,2.5551,2.5704,2.5655,2.5691,2.5585,2.55,2.5636,2.5778,2.576,2.5732,2.5803,2.572,2.5566,2.5745,2.5674,2.5805,2.5597,2.5761,2.5869,2.5918,2.6034,2.5717,2.5823,2.5783,2.5962,2.5803,2.5629,2.5937,2.5666,2.5666,2.5483,2.5604,2.5353,2.5562,2.5912,2.5775,2.5658,2.5703,2.5603,2.5768,2.5784,2.5661,2.5363,2.5408,2.5394,2.5726,2.5527,2.5583,2.5388,2.5638,2.5533,2.5675,2.5675,2.5665,2.5658,2.5659,2.5357,2.5424,2.5427,2.5317,2.5666,2.5625,2.5605,2.577,2.5841,2.6104,2.5902,2.577,2.5926,2.6316,2.6425,2.6448,2.6513,2.6656,2.6485,2.633,2.6138,2.6262,2.6058,2.6002,2.5692,2.5502,2.568,2.5159,2.5219,2.5053,2.499,2.5262,2.5442,2.5212,2.5445,2.5348,2.5187,2.4976,2.5171,2.5043,2.4604,2.3772,2.4003,2.4565,2.7328,3.0639,3.447,3.8458,4.1391,4.136,4.0195,3.6448,3.117,2.8165,2.7294,2.6311,2.565,2.5728,2.5568,2.5645,2.5381,2.5457,2.5256,2.5273,2.5209,2.5278,2.514,2.5487,2.5209,2.5169,2.528,2.5323,2.537,2.5506,2.5394,2.5252,2.5258,2.5315,2.545,2.5659,2.5201,2.5394,2.5616,2.5829,2.5807,2.5846,2.6026,2.5889,2.5873,2.6011,2.62,2.6083,2.6235,2.6172,2.6254,2.6408,2.6696,2.6809,2.6936,2.7272,2.7612,2.7624,2.7893,2.8061,2.8213,2.8175,2.837,2.8605,2.8357,2.837,2.8675,2.8797,2.8722,2.8384,2.8288,2.8256,2.7899,2.7316,2.7158,2.699,2.6576,2.6554,2.6363,2.6118,2.5948,2.597,2.5764,2.5778,2.5868,2.5706,2.5466,2.555,2.5739,2.5865,2.5586,2.564,2.5763,2.5575,2.5624,2.5618,2.562,2.5686,2.5686,2.5567,2.5525,2.5481,2.5692,2.5793,2.5635,2.5806,2.5775,2.5571,2.5466,2.5443,2.5475,2.5617,2.5475,2.5486,2.5823,2.5684,2.5606,2.5819,2.5684,2.5559,2.5516,2.5451,2.5549,2.5572,2.5566,2.5386,2.5451,2.5564,2.5639,2.5626,2.5665,2.5608,2.5705,2.541,2.556,2.5288,2.5432,2.571,2.5669,2.5758,2.5428,2.5468,2.5514,2.5238,2.5278,2.533,2.556,2.5655,2.5748,2.565,2.5661,2.5525,2.5253,2.5232,2.5409,2.5549,2.5822,2.5868,2.5819,2.5877,2.5847,2.5713,2.5718,2.6392,2.6571,2.6625,2.6352,2.6372,2.6274,2.6547,2.6303,2.6097,2.608,2.5813,2.5434,2.5345,2.5479,2.5466,2.5373,2.5209,2.5072,2.5384,2.5463,2.5157,2.5229,2.4927,2.4941,2.5077,2.525,2.5344,2.5024,2.4145,2.3854,2.4164,2.6206,2.9215,3.3103,3.72,4.0608,4.1291,3.9531,3.5176,3.0266,2.7937,2.6783,2.6337,2.6031,2.5917,2.5708,2.5463,2.519,2.5357,2.5286,2.5243,2.5299,2.5304,2.5444,2.5449,2.5382,2.5293,2.5203,2.5404,2.5489,2.5479,2.5385,2.5467,2.5465,2.5332,2.5196,2.5656,2.56,2.5594,2.5594,2.5909,2.562,2.5854,2.6084,2.5578,2.5831,2.6156,2.635,2.6284,2.6376,2.6379,2.6682,2.6843,2.6782,2.6965,2.6996,2.7269,2.7593,2.764,2.7806,2.8189,2.8222,2.8455,2.8495,2.8641,2.8909,2.8809,2.8857,2.887,2.8731,2.8651,2.8676,2.8549,2.7992,2.7472,2.7293,2.7262,2.6766,2.6573,2.6723,2.651,2.6235,2.609,2.612,2.5783,2.5812,2.5907,2.5761,2.5634,2.5665,2.5832,2.595,2.5857,2.5748,2.5862,2.5942,2.5769,2.5641,2.5729,2.5828,2.5906,2.5618,2.58,2.5773,2.5889,2.594,2.5857,2.6027,2.5919,2.582,2.5638,2.5899,2.5944,2.5726,2.5688,2.5604,2.5851,2.6044,2.6008,2.5901,2.5754,2.5843,2.5746,2.5876,2.5829,2.6034,2.5901,2.5642,2.5627,2.5822,2.6092,2.5664,2.5395,2.5661,2.5907,2.5576,2.5752,2.577,2.5584,2.5683,2.5658,2.5951,2.5953,2.6077,2.6023,2.6136,2.6353,2.6428,2.6425,2.6694,2.6542,2.6559,2.6494,2.6642,2.6738,2.625,2.597,2.5925,2.6069,2.5678,2.5555,2.5476,2.5421,2.5337,2.5374,2.5528,2.5451,2.5612,2.5355,2.5439,2.551,2.5375,2.5245,2.521,2.4971,2.4302,2.406,2.4081,2.4821,2.7281,3.0683,3.4646,3.7948,4.0419,4.0427,3.7401,3.2251,2.8904,2.7499,2.6573,2.6125,2.6071,2.5792,2.5745,2.5853,2.5465,2.541,2.5376,2.5287,2.5239,2.5512,2.5478,2.5623,2.5587,2.5326,2.5129,2.53,2.5649,2.5871,2.5843,2.5805,2.5542,2.5607,2.5624,2.5633,2.6,2.5938,2.5765,2.587,2.5815,2.57,2.5786,2.6338,2.6213,2.6489,2.6488,2.6635,2.6519,2.6348,2.6821,2.7011,2.7158,2.737,2.7358,2.7487,2.7665,2.7775,2.8092,2.8322,2.8414,2.8553,2.8431,2.8817,2.8898,2.8779,2.8672,2.8757,2.8766,2.85,2.8405,2.7904,2.7594,2.7365,2.6984,2.6865,2.6794,2.636,2.6201,2.6116,2.5967,2.6159,2.6071,2.5932,2.603,2.5766,2.5511,2.5802,2.5925,2.5765,2.6029,2.5797,2.5721,2.5759,2.5785,2.5778,2.5752,2.5819,2.5727,2.5805,2.5648,2.5613,2.5682,2.5907,2.5918,2.5824,2.5803,2.5743,2.607,2.5981,2.5968,2.577,2.5706,2.594,2.593,2.5784,2.5802,2.6109,2.5831,2.5697,2.5806,2.5879,2.5835,2.5769,2.6132,2.6008,2.6044,2.6083,2.6136,2.6151,2.6234,2.6366,2.6559,2.6914,2.6735,2.6639,2.6464,2.6805,2.6569,2.6391,2.5833,2.5727,2.596,2.5597,2.5415,2.5594,2.5487,2.5424,2.5475,2.5515,2.5154,2.527,2.5243,2.5089,2.5494,2.5809,2.5611,2.5407,2.5004,2.3869,2.4157,2.4079,2.516,2.8126,3.212,3.5892,3.9422,4.125,4.0244,3.6599,3.3958,3.0158,2.7549,2.6707,2.592,2.5925,2.5781,2.5799,2.544,2.5465,2.5341,2.5364,2.5264,2.5294,2.5433,2.5438,2.5312,2.5268,2.5195,2.5512,2.5493,2.5446,2.5434,2.5634,2.5593,2.5506,2.5424,2.5488,2.5445,2.558,2.5795,2.5967,2.5816,2.5747,2.5725,2.5924,2.6083,2.623,2.611,2.6081,2.6167,2.6374,2.6512,2.6689,2.6726,2.6862,2.7064,2.7431,2.7301,2.7515,2.7864,2.7898,2.8104,2.8298,2.8563,2.8465,2.8518,2.8424,2.8767,2.864,2.8431,2.8233,2.8181,2.7987,2.7609,2.7035,2.6701,2.6577,2.6784,2.6696,2.6345,2.6146,2.6035,2.5868,2.5597,2.5764,2.5803,2.5691,2.579,2.556,2.5624,2.5587,2.5738,2.5756,2.5613,2.5499,2.5658,2.5881,2.5488,2.5455,2.5546,2.5607,2.5669,2.5744,2.5734,2.5606,2.5446,2.5665,2.5772,2.5845,2.5801,2.576,2.5684,2.5694,2.5576,2.5673,2.5702,2.5519,2.5588,2.5604,2.5601,2.5809,2.5769,2.5777,2.5777,2.5589,2.5648,2.5616,2.5669,2.5578,2.5467,2.5695,2.5351,2.5522,2.5605,2.5564,2.5558,2.5454,2.548,2.5537,2.536,2.5285,2.5443,2.531,2.5229,2.5438,2.5711,2.5819,2.5858,2.5644,2.5812,2.5857,2.6281,2.6171,2.6271,2.6178,2.6288,2.6361,2.622,2.6221,2.6016,2.5846,2.5948,2.5618,2.5378,2.5086,2.555,2.5457,2.5313,2.5088,2.5096,2.4987,2.5179,2.522,2.5125,2.5098,2.4893,2.5172,2.4926,2.4795,2.4944,2.4301,2.3584,2.3514,2.4066,2.6924,3.0285,3.425,3.831,4.1284,4.1027,3.8529,3.3508,2.9592,2.7607,2.6377,2.6096,2.5926,2.5713,2.5371,2.5341,2.5243,2.5233,2.5005,2.5233,2.5207,2.4866,2.5042,2.5177,2.5172,2.5251,2.5105,2.5086,2.5118,2.5489,2.5463,2.5268,2.5204,2.5287,2.5215,2.5344,2.5497,2.5304,2.5517,2.5521,2.5496,2.5363,2.5569,2.5806,2.5865,2.6244,2.6043,2.6223,2.5999,2.6221,2.6292,2.6499,2.6748,2.685,2.683,2.6922,2.7428,2.7758,2.7798,2.7877,2.7967,2.7772,2.7975,2.7959,2.7975,2.8542,2.8792,2.8565,2.8344,2.8103,2.791,2.7553,2.7419,2.7179,2.6887,2.6475,2.644,2.6124,2.6106,2.5868,2.5854,2.5577,2.5784,2.5591,2.5473,2.5667,2.5505,2.5482,2.5503,2.5701,2.5756,2.5656,2.5481,2.5742,2.579,2.5356,2.5372,2.5646,2.5584,2.5613,2.5394,2.5564,2.575,2.5531,2.5755,2.5863,2.5682,2.564,2.5541,2.5472,2.5781,2.5831,2.5548,2.5771,2.5342,2.5394,2.5271,2.5529,2.5723,2.5586,2.5691,2.5465,2.5698,2.5625,2.5721,2.5574,2.5701,2.5754,2.5626,2.5128,2.5427,2.5445,2.5538,2.553,2.5277,2.5175,2.5111,2.5663,2.5614,2.5667,2.553,2.5415,2.5401,2.5557,2.5455,2.5435,2.5417,2.5517,2.5461,2.5458,2.5972,2.5882,2.5846,2.5708,2.5747,2.5929,2.6035,2.6247,2.6381,2.6197,2.6421,2.647,2.6507,2.6298,2.6162,2.5967,2.5597,2.5229,2.5432,2.5466,2.5686,2.5253,2.5217,2.5238,2.5196,2.5473,2.5342,2.5317,2.5319,2.5097,2.5018,2.4966,2.4867,2.4933,2.4391,2.3924,2.3919,2.4834,2.7324,3.1054,3.5025,3.8935,4.1396,4.0739,3.763,3.268,2.8989,2.7625,2.6416,2.5973,2.5879,2.5948,2.5643,2.527,2.52,2.5388,2.5168,2.5137,2.4812,2.4969,2.5149,2.5488,2.538,2.55,2.5292,2.558,2.5319,2.5194,2.5346,2.53,2.5273,2.5494,2.5438,2.536,2.5583,2.5616,2.5695,2.5681,2.5532,2.5746,2.5669,2.5859,2.6061,2.6038,2.5828,2.6196,2.6592,2.6305,2.6665,2.6676,2.6826,2.678,2.6936,2.7153,2.7278,2.7535,2.7803,2.7778,2.8221,2.8366,2.8203,2.8346,2.8395,2.8616,2.8605,2.8579,2.8294,2.7813,2.7749,2.7672,2.725,2.7007,2.7019,2.6694,2.6448,2.6316,2.5988,2.5838,2.5707,2.5749,2.5958,2.5702,2.5562,2.546,2.5497,2.5522,2.5477,2.5472,2.5652,2.5327,2.5261,2.5598,2.5707,2.5671,2.5527,2.5378,2.5621,2.5496,2.5431,2.559,2.5309,2.539,2.549,2.5591,2.5754,2.5649,2.5542,2.548,2.5745,2.5595,2.5308,2.5368,2.5444,2.5452,2.5332,2.5506,2.5511,2.5641,2.5351,2.5558,2.5579,2.5545,2.5664,2.5418,2.5153,2.5132,2.5326,2.5397,2.5545,2.5617,2.5603,2.5607,2.5591,2.5786,2.5874,2.6057,2.622,2.6533,2.6628,2.6369,2.6232,2.6244,2.5933,2.5663,2.5652,2.5463,2.5478,2.5297,2.5369,2.5075,2.5412,2.5113,2.5035,2.4963,2.4993,2.4692,2.4937,2.4951,2.4975,2.4832,2.4951,2.5022,2.4901,2.4453,2.3511,2.3468,2.4276,2.6572,2.9745,3.4044,3.7361,3.9596,4.0171,3.7634,3.2476,3.0384,2.7821,2.6575,2.593,2.5436,2.5735,2.5298,2.5201,2.5063,2.5107,2.4944,2.5021,2.4747,2.5184,2.4904,2.4967,2.5049,2.5339,2.5045,2.5122,2.4924,2.5184,2.5123,2.5177,2.5316,2.5081,2.5235,2.5349,2.5235,2.5281,2.5323,2.5419,2.546,2.5567,2.5719,2.5862,2.55,2.5529,2.5733,2.5779,2.5901,2.6213,2.6333,2.6747,2.6754,2.677,2.6901,2.6854,2.7098,2.7388,2.7525,2.7771,2.7959,2.8142,2.7889,2.8118,2.8445,2.8555,2.8446,2.8181,2.8217,2.8141,2.783,2.7473,2.7157,2.6421,2.6588,2.6389,2.6349,2.6047,2.5767,2.5497,2.5757,2.5631,2.5694,2.5561,2.5294,2.5499,2.5464,2.5511,2.5431,2.5572,2.5554,2.5475,2.5484,2.5296,2.5364,2.5509,2.5403,2.5132,2.5398,2.5366,2.5489,2.5254,2.5131,2.566,2.5874,2.5533,2.555,2.5466,2.5409,2.5349,2.5571,2.5587,2.572,2.5857,2.5431,2.5512,2.5679,2.5662,2.5828,2.5836,2.5988,2.5578,2.603,2.6346,2.6338,2.6437,2.6494,2.6686,2.6615,2.6487,2.6499,2.6053,2.6276,2.6251,2.5985,2.5619,2.5525,2.5164,2.504,2.5494,2.5358,2.5294,2.53,2.5328,2.5218,2.5296,2.5229,2.5291,2.4979,2.4809,2.4864,2.5061,2.5018,2.4347,2.3725,2.3921,2.4833,2.7333,3.0781,3.4993,3.8895,4.121,4.07,3.7548,3.2407,2.8904,2.7327,2.6363,2.5936,2.5466,2.5414,2.5213,2.5364,2.5386,2.5328,2.5082,2.5081,2.5099,2.5035,2.5329,2.5272,2.5251,2.5053,2.5064,2.5094,2.4953,2.5131,2.5297,2.518,2.5281,2.5617,2.5616,2.5652,2.5432,2.547,2.5467,2.5533,2.5546,2.5764,2.5729,2.5782,2.5896,2.5996,2.6106,2.6219,2.6145,2.6217,2.6548,2.68,2.6882,2.7064,2.7191,2.7326,2.741,2.7585,2.7789,2.7939,2.8188,2.8184,2.8133,2.8374,2.8535,2.8479,2.8426,2.8264,2.8127,2.7818,2.7574,2.7225,2.693,2.6562,2.6594,2.6553,2.6193,2.5817,2.5918,2.6061,2.5964,2.5769,2.5847,2.5734,2.5512,2.5602,2.5897,2.5823,2.5764,2.5613,2.56,2.5813,2.5895,2.5803,2.5856,2.5738,2.5579,2.5622,2.5781,2.5792,2.5838,2.5699,2.5935,2.5711,2.5745,2.5844,2.5852,2.5865,2.5849,2.5762,2.571,2.5653,2.5775,2.5788,2.5796,2.571,2.5627,2.5686,2.5818,2.5888,2.5763,2.5552,2.5541,2.5722,2.589,2.5842,2.5672,2.5735,2.5567,2.556,2.5714,2.5823,2.5826,2.5641,2.5574,2.5652,2.5691,2.5726,2.5799,2.5824,2.5876,2.5812,2.5975,2.6044,2.6025,2.6046,2.6323,2.6491,2.6545,2.6727,2.6555,2.6545,2.6531,2.638,2.6298,2.6431,2.6358,2.6254,2.5855,2.5654,2.5554,2.5525,2.5438,2.5504,2.5661,2.5636,2.5534,2.5502,2.5523,2.5486,2.5437,2.5433,2.5394,2.5409,2.5247,2.4692,2.4152,2.3798,2.4087,2.6056,2.9307,3.337,3.7739,4.121,4.1895,4.0332,3.6048,3.141,2.8523,2.7259,2.6488,2.6088,2.6027,2.5885,2.5643,2.5567,2.5541,2.5432,2.5338,2.5236,2.5446,2.5527,2.5552,2.5532,2.5524,2.5522,2.5483,2.5525,2.5651,2.5658,2.5745,2.5754,2.5746,2.5713,2.5641,2.563,2.5782,2.5958,2.598,2.5986,2.5961,2.606,2.6139,2.6121,2.6229,2.6392,2.6432,2.6432,2.6691,2.6837,2.6895,2.7056,2.7166,2.7317,2.7513,2.7745,2.7964,2.8067,2.8323,2.8445,2.8559,2.8611,2.8795,2.8897,2.887,2.8886,2.8806,2.8787,2.8593,2.8457,2.8085,2.7803,2.7506,2.6994,2.6749,2.6535,2.64,2.6511,2.6642,2.665,2.6426,2.632,2.6228,2.6119,2.6089,2.6107,2.6052,2.6084,2.6126,2.6125,2.6118,2.6092,2.6079,2.5955,2.6041,2.5972,2.5807,2.5967,2.6083,2.6181,2.6183,2.6211,2.6102,2.6087,2.601,2.6033,2.5989,2.5886,2.5903,2.5877,2.6025,2.6159,2.6192,2.6138,2.615,2.581,2.5947,2.5978,2.6004,2.618,2.612,2.5933,2.5968,2.5905,2.5934,2.6036,2.599,2.5951,2.5926,2.5978,2.5914,2.5896,2.5833,2.607,2.5944,2.6024,2.6088,2.6008,2.6114,2.6102,2.6156,2.6062,2.6077,2.6046,2.604,2.595,2.5919,2.5811,2.5852,2.5904,2.5971,2.5971,2.6091,2.6238,2.6086,2.6103,2.6435,2.6588,2.6636,2.6537,2.6817,2.6876,2.6859,2.6745,2.6747,2.6867,2.6905,2.6594,2.6239,2.597,2.5896,2.6035,2.5746,2.5597,2.5672,2.5717,2.5674,2.5668,2.5521,2.5571,2.5775,2.5746,2.5595,2.5592,2.5531,2.5806,2.5531,2.4709,2.4087,2.4252,2.5246,2.7924,3.1514,3.5535,3.9146,4.1041,4.0601,3.7232,3.2044,3.0296,2.8326,2.7124,2.659,2.6046,2.6072,2.5567,2.5801,2.5637,2.5741,2.5465,2.5428,2.5311,2.5656,2.5623,2.5807,2.5564,2.5804,2.5683,2.5607,2.574,2.5719,2.5725,2.5585,2.5607,2.5866,2.5688,2.593,2.5885,2.5645,2.5669,2.592,2.6105,2.6024,2.5921,2.5881,2.5891,2.6523,2.6224,2.5756,2.6144,2.6578,2.7178
