3.4512,3.4758,3.4859,3.5141,3.5277,3.5085,3.484,3.5237,3.5199,3.5582,3.5377,3.5579,3.5733,3.5999,3.6385,3.6293,3.654,3.6718,3.6851,3.6981,3.7317,3.7441,3.747,3.736,3.745,3.7622,3.7699,3.7687,3.7677,3.7885,3.7702,3.7209,3.7034,3.6607,3.6334,3.627,3.5855,3.4967,3.4667,3.442,3.4009,3.3946,3.3584,3.3222,3.31,3.3004,3.2937,3.2965,3.3026,3.2703,3.245,3.2597,3.251,3.2577,3.2588,3.2716,3.273,3.3076,3.2586,3.2438,3.2362,3.2613,3.281,3.2569,3.2782,3.2659,3.2731,3.2883,3.3032,3.3102,3.3216,3.3078,3.3154,3.3429,3.3585,3.3032,3.3155,3.3406,3.3578,3.3404,3.3487,3.3341,3.3341,3.339,3.317,3.3199,3.318,3.3355,3.3372,3.3219,3.3146,3.3255,3.3137,3.3231,3.3185,3.3443,3.3101,3.3288,3.3411,3.301,3.3225,3.3214,3.2967,3.3207,3.3277,3.3313,3.2863,3.2866,3.2864,3.2993,3.299,3.313,3.3212,3.3469,3.3561,3.3543,3.3533,3.367,3.378,3.4173,3.4666,3.4624,3.4363,3.4211,3.3895,3.4177,3.3935,3.3685,3.3586,3.3462,3.347,3.3721,3.357,3.333,3.3526,3.3426,3.3439,3.3418,3.3376,3.351,3.3548,3.3579,3.3752,3.356,3.3601,3.3541,3.3722,3.4831,3.6798,3.7654,3.9315,4.0613,3.9796,3.6747,3.2248,2.7864,2.8595,3.0427,3.1432,3.2517,3.3199,3.3905,3.4007,3.4287,3.4311,3.4304,3.4377,3.4402,3.4346,3.4429,3.4373,3.4459,3.4466,3.4559,3.4607,3.4698,3.4634,3.4683,3.4736,3.481,3.4895,3.4839,3.4824,3.4955,3.4924,3.5071,3.5134,3.5146,3.5156,3.5277,3.5379,3.5398,3.5578,3.5559,3.5574,3.5714,3.587,3.5977,3.6064,3.6299,3.6419,3.6492,3.6641,3.6937,3.7157,3.7237,3.7376,3.7284,3.7468,3.7526,3.7562,3.7713,3.7743,3.7728,3.7852,3.7697,3.7573,3.744,3.7307,3.6917,3.6553,3.623,3.5699,3.52,3.4848,3.4407,3.4081,3.3831,3.3562,3.3444,3.3301,3.3103,3.3003,3.2776,3.2781,3.2681,3.2661,3.265,3.2599,3.2507,3.2517,3.2599,3.2688,3.2603,3.2598,3.2705,3.243,3.2362,3.2479,3.2575,3.2609,3.2492,3.2465,3.2637,3.2447,3.2574,3.2516,3.259,3.3016,3.2681,3.2203,3.2423,3.2594,3.2939,3.2888,3.2378,3.2613,3.2398,3.2434,3.2415,3.2521,3.2629,3.2704,3.2561,3.2243,3.2488,3.2302,3.2497,3.2485,3.2513,3.2596,3.2635,3.2573,3.2662,3.2914,3.302,3.3319,3.333,3.3215,3.322,3.3317,3.3322,3.3172,3.3136,3.2996,3.3105,3.3114,3.3086,3.3168,3.321,3.3159,3.2978,3.2921,3.3047,3.3332,3.3371,3.3414,3.3328,3.3589,3.3906,3.3879,3.3885,3.4088,3.4077,3.3762,3.3476,3.3443,3.3451,3.3364,3.3057,3.3156,3.3067,3.2711,3.2828,3.2821,3.2908,3.3057,3.3007,3.2953,3.2893,3.3016,3.3207,3.293,3.2979,3.3161,3.3094,3.2909,3.312,3.4264,3.5966,3.7781,3.9727,3.9797,3.8018,3.3588,2.8621,2.7705,2.9194,3.0449,3.1346,3.2148,3.2741,3.2965,3.3251,3.3355,3.3174,3.3297,3.3363,3.3312,3.3521,3.3521,3.3457,3.3353,3.3494,3.3449,3.3474,3.3514,3.3482,3.3631,3.3681,3.3726,3.3628,3.3657,3.371,3.3866,3.3885,3.3749,3.3896,3.3926,3.3969,3.4061,3.4097,3.4226,3.426,3.4406,3.4506,3.4666,3.4797,3.4977,3.504,3.5181,3.5516,3.5675,3.5758,3.6021,3.6148,3.6173,3.6425,3.6407,3.6545,3.6663,3.669,3.6735,3.6807,3.6952,3.6968,3.6824,3.6749,3.6464,3.6199,3.5925,3.559,3.5276,3.4888,3.4332,3.401,3.3929,3.3603,3.3345,3.3004,3.286,3.2942,3.2681,3.2362,3.2277,3.2243,3.2172,3.2154,3.2054,3.2104,3.2146,3.2087,3.2172,3.224,3.2242,3.2209,3.2256,3.2294,3.2321,3.228,3.2424,3.2447,3.2488,3.2542,3.2555,3.2419,3.2524,3.2517,3.2497,3.2675,3.2689,3.2567,3.265,3.2702,3.2666,3.277,3.2727,3.2718,3.2713,3.2691,3.2666,3.2576,3.2608,3.2665,3.2489,3.252,3.2458,3.2453,3.2529,3.249,3.243,3.2551,3.2546,3.2485,3.2525,3.251,3.2466,3.2487,3.2577,3.2491,3.2424,3.2377,3.2507,3.2497,3.2654,3.2538,3.2458,3.25,3.2503,3.254,3.2852,3.2954,3.2943,3.2823,3.2942,3.2951,3.3168,3.3514,3.3573,3.3744,3.355,3.3248,3.3058,3.3079,3.2977,3.2805,3.2656,3.2607,3.2582,3.2635,3.2536,3.2611,3.258,3.2585,3.2692,3.2656,3.2687,3.2754,3.2741,3.285,3.2724,3.2708,3.2669,3.2766,3.3487,3.5022,3.6691,3.8258,3.9327,3.8124,3.4559,3.0717,2.7719,2.8794,3.0116,3.0861,3.1637,3.2231,3.2735,3.2691,3.2976,3.3105,3.3246,3.3134,3.3447,3.3345,3.3482,3.3362,3.3466,3.3427,3.3538,3.3484,3.364,3.3672,3.3743,3.3668,3.3688,3.366,3.38,3.3801,3.3937,3.3906,3.399,3.4065,3.4132,3.4196,3.4303,3.4488,3.4572,3.4511,3.4715,3.4909,3.5024,3.5136,3.5224,3.5487,3.5693,3.5746,3.5863,3.6121,3.6208,3.6401,3.6522,3.6612,3.6727,3.6883,3.7001,3.7045,3.712,3.7129,3.7259,3.7284,3.7265,3.7146,3.7098,3.7023,3.6804,3.6379,3.6045,3.5729,3.5512,3.5179,3.4853,3.4535,3.4224,3.4035,3.3854,3.3804,3.3644,3.3447,3.3273,3.3238,3.3185,3.3208,3.3167,3.3245,3.3126,3.316,3.3163,3.3228,3.3127,3.3177,3.3226,3.329,3.3217,3.326,3.3286,3.3431,3.3374,3.3464,3.3419,3.342,3.3584,3.3564,3.3526,3.357,3.3578,3.3683,3.3703,3.3707,3.3804,3.3854,3.3722,3.3674,3.3664,3.3582,3.3621,3.3652,3.3489,3.3493,3.3474,3.3441,3.3433,3.3539,3.3554,3.3635,3.3632,3.3966,3.4091,3.402,3.4073,3.4094,3.4185,3.4516,3.4623,3.4767,3.4948,3.477,3.4537,3.4375,3.4338,3.4244,3.4242,3.4195,3.4024,3.3979,3.3996,3.4081,3.4041,3.4049,3.3936,3.404,3.4068,3.4062,3.4205,3.4119,3.4106,3.4105,3.4105,3.4077,3.3997,3.4098,3.4672,3.6068,3.7864,3.941,4.0311,3.9603,3.6125,3.2396,2.9268,3.0098,3.1336,3.1455,3.251,3.3004,3.362,3.3836,3.4121,3.4223,3.4414,3.4396,3.4458,3.443,3.4528,3.4519,3.4623,3.447,3.4603,3.4509,3.4614,3.4539,3.4652,3.4599,3.4734,3.4681,3.4702,3.4628,3.4756,3.4816,3.4973,3.4971,3.5038,3.5098,3.5004,3.522,3.5296,3.5413,3.5542,3.5582,3.5846,3.5964,3.6185,3.6241,3.6311,3.6418,3.657,3.6713,3.6912,3.7085,3.724,3.7327,3.7393,3.7486,3.7673,3.7901,3.796,3.7752,3.7807,3.78,3.7811,3.7618,3.7421,3.7118,3.7056,3.6719,3.6329,3.6009,3.5561,3.5171,3.4912,3.4674,3.4321,3.4212,3.3874,3.3898,3.373,3.3643,3.3488,3.3398,3.3379,3.3375,3.3412,3.3323,3.3339,3.3343,3.3279,3.3416,3.3326,3.3307,3.3273,3.344,3.3457,3.3364,3.3418,3.3481,3.3521,3.3639,3.3573,3.3711,3.3692,3.3817,3.3809,3.3856,3.3819,3.3764,3.3825,3.3903,3.3849,3.3885,3.3882,3.3973,3.3895,3.3854,3.3742,3.3724,3.3752,3.3746,3.3848,3.3664,3.3547,3.3664,3.3616,3.3617,3.3596,3.3673,3.3696,3.3698,3.3932,3.4119,3.4119,3.4072,3.409,3.4201,3.4487,3.4742,3.4819,3.4732,3.4494,3.4224,3.4091,3.4109,3.4016,3.3983,3.3775,3.3639,3.3619,3.3628,3.3735,3.3693,3.3728,3.3591,3.3544,3.3507,3.3666,3.364,3.3656,3.3728,3.3743,3.3715,3.3766,3.3721,3.4088,3.5405,3.7015,3.8586,4.0109,4.0303,3.923,3.5762,3.1727,2.8578,2.9617,3.0977,3.1728,3.2666,3.3177,3.3725,3.3786,3.4198,3.4137,3.4364,3.4229,3.4393,3.432,3.4446,3.43,3.4373,3.4361,3.453,3.4528,3.4614,3.4557,3.465,3.46,3.4699,3.4653,3.4747,3.4665,3.4778,3.4853,3.4924,3.4946,3.5091,3.5192,3.5349,3.5404,3.5539,3.5583,3.5733,3.5889,3.6091,3.6196,3.6372,3.6547,3.6808,3.6984,3.72,3.7404,3.7531,3.7734,3.7837,3.7997,3.8089,3.8209,3.8296,3.8395,3.837,3.8362,3.8402,3.8461,3.8432,3.8323,3.803,3.7829,3.7521,3.7255,3.6821,3.6408,3.599,3.576,3.5412,3.5073,3.4785,3.4683,3.4505,3.4467,3.4363,3.4318,3.4234,3.4183,3.4012,3.3996,3.39,3.3921,3.3961,3.406,3.401,3.4011,3.4009,3.4022,3.4057,3.4099,3.4021,3.4098,3.4056,3.4144,3.4169,3.4144,3.4111,3.4157,3.4165,3.4226,3.4197,3.4173,3.4205,3.4264,3.4241,3.4243,3.4206,3.4202,3.4168,3.4191,3.4156,3.4055,3.4016,3.4059,3.4092,3.3983,3.3877,3.3885,3.386,3.3859,3.3817,3.3726,3.3696,3.3729,3.3712,3.3752,3.3666,3.3626,3.3636,3.3696,3.3615,3.3565,3.3595,3.3578,3.3567,3.365,3.3838,3.3913,3.4051,3.4033,3.4032,3.4074,3.4146,3.4518,3.4748,3.4804,3.46,3.4348,3.4102,3.4052,3.398,3.379,3.3712,3.3596,3.3539,3.3481,3.3477,3.3406,3.3426,3.3383,3.3361,3.3395,3.3375,3.3381,3.3401,3.3374,3.3409,3.3284,3.3233,3.3208,3.3532,3.4674,3.6222,3.7913,3.9783,3.9925,3.8066,3.3771,2.9194,2.7486,2.8392,2.992,3.0924,3.1793,3.2613,3.3043,3.3295,3.3473,3.3468,3.344,3.3538,3.361,3.3634,3.3562,3.3533,3.3547,3.361,3.3667,3.368,3.3646,3.3691,3.3674,3.3708,3.3682,3.3666,3.3692,3.3758,3.3799,3.3838,3.3808,3.3868,3.3978,3.4086,3.4174,3.4257,3.4324,3.4494,3.459,3.4696,3.4825,3.4891,3.5028,3.5233,3.5356,3.5505,3.5719,3.5936,3.6035,3.6186,3.6332,3.6457,3.6643,3.6773,3.687,3.6952,3.6966,3.7081,3.716,3.7177,3.7019,3.6942,3.6761,3.647,3.6141,3.5787,3.5392,3.498,3.458,3.4223,3.39,3.3511,3.3217,3.2992,3.284,3.273,3.253,3.241,3.2337,3.2205,3.2191,3.2045,3.2052,3.208,3.2105,3.2155,3.2122,3.2154,3.2206,3.2252,3.2196,3.2218,3.2183,3.218,3.2267,3.2278,3.2343,3.2348,3.2347,3.2324,3.2386,3.2365,3.2339,3.2359,3.2458,3.2498,3.2497,3.2484,3.2516,3.2574,3.2646,3.2585,3.2522,3.2546,3.2578,3.2566,3.2604,3.257,3.2486,3.2482,3.2558,3.2543,3.2509,3.2504,3.2476,3.2533,3.2553,3.2482,3.2435,3.2455,3.2498,3.2463,3.2445,3.2405,3.2437,3.2466,3.2486,3.2467,3.2472,3.2502,3.2545,3.2537,3.2541,3.2527,3.2529,3.2585,3.2655,3.2659,3.2627,3.2617,3.2627,3.2677,3.2703,3.2643,3.2622,3.2624,3.266,3.2619,3.2621,3.2579,3.2666,3.269,3.2676,3.2656,3.2716,3.2696,3.2669,3.2733,3.2829,3.301,3.3006,3.2985,3.3087,3.3166,3.3247,3.3463,3.3687,3.375,3.3494,3.3153,3.3087,3.3082,3.3073,3.2898,3.283,3.2775,3.2692,3.2674,3.2645,3.2662,3.2634,3.2645,3.2622,3.258,3.2588,3.2634,3.2652,3.2715,3.2673,3.2525,3.2438,3.2674,3.3857,3.5484,3.7332,3.8402,3.9721,3.9192,3.6293,3.1424,2.6927,2.7816,2.9492,3.0449,3.1329,3.2131,3.2499,3.2702,3.2926,3.2906,3.2917,3.2987,3.3018,3.3059,3.3032,3.3028,3.3087,3.3079,3.3107,3.311,3.3085,3.3128,3.3084,3.3105,3.3088,3.3109,3.3067,3.3074,3.3123,3.3262,3.3353,3.3352,3.3441,3.3519,3.3629,3.3702,3.376,3.3872,3.4016,3.4102,3.4176,3.4264,3.447,3.4617,3.4785,3.4911,3.5071,3.5252,3.5482,3.5649,3.5829,3.5902,3.6037,3.6163,3.6277,3.6404,3.6508,3.6489,3.6546,3.6629,3.6697,3.6596,3.6467,3.6264,3.5976,3.5725,3.5456,3.5036,3.4592,3.4238,3.388,3.3543,3.3204,3.2948,3.2741,3.2552,3.2461,3.2379,3.223,3.209,3.2026,3.1943,3.1891,3.1955,3.1897,3.1909,3.1956,3.1875,3.188,3.2012,3.209,3.2035,3.1973,3.1964,3.1972,3.2039,3.2078,3.2107,3.2052,3.2088,3.2174,3.2212,3.2256,3.229,3.2262,3.2326,3.2352,3.241,3.2453,3.2462,3.2541,3.2608,3.2553,3.2478,3.2526,3.2586,3.2532,3.2498,3.2464,3.2544,3.2564,3.2519,3.2432,3.2364,3.237,3.237,3.2409,3.2436,3.2399,3.24,3.2383,3.2393,3.2408,3.2331,3.2395,3.2365,3.2351,3.2379,3.235,3.231,3.2356,3.2397,3.2394,3.233,3.2273,3.2289,3.2316,3.2322,3.2353,3.232,3.2263,3.2329,3.237,3.2335,3.2275,3.2284,3.2265,3.2333,3.2257,3.2267,3.2255,3.226,3.2255,3.2303,3.2316,3.2259,3.224,3.2289,3.229,3.222,3.2185,3.2221,3.2232,3.2223,3.2176,3.2159,3.2156,3.2197,3.2198,3.2194,3.2228,3.2147,3.2155,3.2203,3.2214,3.2173,3.2219,3.2437,3.2591,3.2612,3.2512,3.251,3.2785,3.2963,3.312,3.3071,3.3003,3.2834,3.2616,3.2477,3.2438,3.2409,3.2325,3.228,3.222,3.2102,3.2084,3.2035,3.2023,3.2012,3.2013,3.2008,3.2011,3.2076,3.1992,3.2029,3.2035,3.192,3.19,3.2046,3.2501,3.3885,3.5768,3.753,3.8743,3.8117,3.5218,3.0405,2.6374,2.7377,2.9052,2.9782,3.0784,3.1547,3.1975,3.2039,3.2313,3.2249,3.239,3.2411,3.2561,3.244,3.253,3.2529,3.2663,3.2643,3.27,3.264,3.2695,3.2689,3.272,3.2616,3.265,3.2643,3.2708,3.2729,3.2771,3.2764,3.2898,3.2981,3.3151,3.3158,3.3193,3.3274,3.3379,3.3515,3.3592,3.3712,3.3833,3.3988,3.4145,3.4286,3.4407,3.4554,3.4751,3.4983,3.5117,3.5259,3.5395,3.5539,3.5707,3.5846,3.5865,3.595,3.6041,3.621,3.6224,3.6269,3.6213,3.6168,3.6167,3.6082,3.5828,3.5587,3.5262,3.4959,3.4576,3.4248,3.3844,3.3546,3.3314,3.3071,3.2906,3.265,3.2345,3.223,3.2144,3.2122,3.1975,3.1881,3.1837,3.1793,3.1785,3.1804,3.1825,3.1922,3.1875,3.1877,3.1883,3.1873,3.186,3.1899,3.1922,3.1955,3.19,3.1972,3.2005,3.2084,3.2137,3.2144,3.2149,3.2197,3.2231,3.2297,3.2253,3.2372,3.237,3.2379,3.2404,3.2361,3.2341,3.2429,3.2415,3.2419,3.2341,3.2316,3.2379,3.236,3.24,3.2377,3.2309,3.2323,3.2375,3.2409,3.2407,3.2419,3.2416,3.2447,3.2531,3.257,3.252,3.2502,3.2489,3.2484,3.2459,3.2546,3.2558,3.2588,3.2676,3.2723,3.2724,3.2741,3.2851,3.2862,3.2868,3.283,3.2942,3.2982,3.2986,3.2974,3.2957,3.302,3.3052,3.3116,3.3099,3.3115,3.3135,3.3132,3.3206,3.3182,3.3185,3.317,3.3225,3.3261,3.3386,3.3296,3.3339,3.3307,3.3368,3.3487,3.3435,3.3391,3.3385,3.3425,3.3462,3.3503,3.352,3.3723,3.3902,3.3896,3.3971,3.4096,3.4083,3.4372,3.4504,3.4572,3.4681,3.4515,3.4619,3.4212,3.4032,3.4067,3.3925,3.3827,3.3728,3.3749,3.3669,3.3734,3.3712,3.3666,3.3825,3.383,3.3853,3.3806,3.3785,3.3836,3.4012,3.3775,3.3786,3.4004,3.4754,3.6227,3.7853,3.9375,4.0141,3.9261,3.8059,3.4332,3.0289,2.9796,3.1154,3.2158,3.2724,3.3502,3.3947,3.4318,3.432,3.4649,3.4625,3.4704,3.4789,3.4853,3.4938,3.4999,3.5004,3.5166,3.5176,3.5181,3.5155,3.5161,3.5228,3.5344,3.5253,3.5319,3.5412,3.5379,3.5389,3.557,3.5473,3.5618,3.5746,3.5814,3.5854,3.5848,3.5945,3.6089,3.6247,3.6304,3.646,3.6587,3.6657,3.6827,3.6964,3.7126,3.7268,3.7457,3.7618,3.7822,3.7966,3.7997,3.816,3.8245,3.8451,3.8449,3.8389,3.8459,3.8625,3.8607,3.8654,3.8612,3.8401,3.848,3.8349,3.8047,3.7844,3.7607,3.7302,3.6963,3.6645,3.6276,3.5985,3.574,3.5589,3.5425,3.5179,3.4984,3.4873,3.4842,3.4925,3.4773,3.4691,3.4475,3.4564,3.4537,3.4591,3.455,3.4569,3.4568,3.4578,3.457,3.4401,3.4409,3.4534,3.4551,3.4592,3.4628,3.4702,3.4747,3.486,3.4929,3.4794,3.4704,3.4748,3.4914,3.4945,3.4934,3.5022,3.5004,3.5155,3.5152,3.5166,3.5152,3.5172,3.5166,3.5192,3.524,3.5295,3.5239,3.5192,3.5176,3.5049,3.502,3.5037,3.5095,3.5126,3.5164,3.5017,3.5045,3.499,3.5065,3.5101,3.5002,3.4989,3.4982,3.508,3.502,3.5055,3.5011,3.5016,3.5044,3.5072,3.5051,3.4965,3.4996,3.503,3.5113,3.5125,3.5066,3.5008,3.5084,3.5019,3.5142,3.5052,3.5046,3.5262,3.5512,3.5641,3.5563,3.5538,3.5645,3.5705,3.5879,3.5993,3.6041,3.6097,3.6074,3.5774,3.5511,3.5445,3.5518,3.5419,3.527,3.5109,3.5095,3.5166,3.5087,3.5129,3.5146,3.5089,3.5081,3.5213,3.5163,3.5152,3.5262,3.529,3.5208,3.5129,3.5247,3.5699,3.7121,3.8853,4.0284,4.1505,4.0736,3.8094,3.4353,3.0638,3.1246,3.2457,3.3116,3.3948,3.4194,3.4887,3.4974,3.5058,3.5296,3.5428,3.5545,3.5543,3.5539,3.5661,3.5615,3.5709,3.5653,3.5791,3.5805,3.5808,3.5809,3.5844,3.5893,3.5834,3.5897,3.5919,3.591,3.6032,3.5979,3.6112,3.6194,3.6287,3.634,3.6422,3.6613,3.6785,3.6937,3.7024,3.7232,3.7356,3.7566,3.7723,3.7786,3.7975,3.8165,3.8257,3.8425,3.8612,3.8742,3.8917,3.9117,3.9224,3.9424,3.9415,3.9426,3.9525,3.9592,3.9552,3.9522,3.9572,3.9515,3.9412,3.9188,3.8967,3.8705,3.8425,3.8303,3.777,3.7251,3.6996,3.6624,3.6238,3.59,3.5586,3.541,3.5275,3.5066,3.4983,3.4715,3.4602,3.4579,3.4479,3.4351,3.4249,3.4228,3.426,3.4302,3.4271,3.4229,3.4182,3.4103,3.4112,3.411,3.4155,3.4211,3.4174,3.4176,3.4246,3.4293,3.4241,3.4286,3.4317,3.4341,3.4289,3.4331,3.4297,3.4305,3.4352,3.438,3.4352,3.4386,3.4359,3.4324,3.4302,3.4297,3.4184,3.4217,3.4194,3.4177,3.4082,3.4058,3.4009,3.3975,3.4015,3.3981,3.3962,3.3937,3.3909,3.393,3.3941,3.39,3.3851,3.3929,3.3918,3.3924,3.3871,3.3851,3.3902,3.3832,3.3877,3.3914,3.3899,3.3928,3.4005,3.3993,3.3956,3.3858,3.3962,3.3991,3.3976,3.3852,3.3906,3.3859,3.3874,3.3864,3.3872,3.3998,3.4321,3.4372,3.4304,3.4299,3.4305,3.4429,3.4751,3.4887,3.4966,3.4807,3.449,3.4458,3.4297,3.4329,3.4255,3.4096,3.4025,3.3963,3.3927,3.3913,3.3852,3.3842,3.3821,3.3832,3.3782,3.3906,3.3889,3.3875,3.3783,3.37,3.3724,3.371,3.3718,3.3788,3.4498,3.5803,3.7579,3.9435,4.0465,3.9828,3.6889,3.2305,2.8341,2.9233,3.0801,3.1652,3.2222,3.3239,3.385,3.3805,3.4106,3.3938,3.4127,3.4057,3.4255,3.4129,3.4274,3.4215,3.4379,3.4336,3.4412,3.4355,3.4452,3.4411,3.4451,3.4329,3.4407,3.4423,3.4576,3.4587,3.4631,3.462,3.4736,3.474,3.4916,3.4945,3.5034,3.5119,3.5302,3.5388,3.5521,3.5618,3.5785,3.5929,3.6123,3.6235,3.6443,3.661,3.6764,3.6975,3.7138,3.7262,3.75,3.7591,3.773,3.7871,3.7959,3.8099,3.813,3.8234,3.8276,3.8266,3.8237,3.8231,3.8107,3.7955,3.7728,3.7418,3.704,3.674,3.6251,3.5896,3.5515,3.5174,3.5007,3.481,3.4503,3.4386,3.4165,3.4014,3.3949,3.3893,3.3697,3.3673,3.3533,3.3556,3.3509,3.3434,3.3424,3.3542,3.3509,3.3596,3.3586,3.3604,3.3571,3.3588,3.3547,3.3565,3.3483,3.3538,3.3612,3.3669,3.3696,3.3704,3.3698,3.3753,3.3725,3.3728,3.3627,3.3687,3.3669,3.3715,3.373,3.3697,3.3626,3.3658,3.3717,3.3692,3.3656,3.3625,3.3602,3.3636,3.364,3.3655,3.3552,3.3634,3.3597,3.358,3.3506,3.3506,3.3526,3.3524,3.3462,3.3449,3.3495,3.3484,3.3527,3.3509,3.3482,3.3496,3.3427,3.3431,3.3478,3.3473,3.3465,3.3414,3.3463,3.3432,3.3482,3.3406,3.3418,3.3533,3.3515,3.347,3.3594,3.3762,3.3823,3.3929,3.3916,3.3842,3.4029,3.4198,3.4339,3.4526,3.4484,3.4252,3.4004,3.3891,3.3941,3.3877,3.3702,3.3647,3.361,3.3527,3.3428,3.346,3.3481,3.3345,3.3446,3.3465,3.3405,3.3417,3.3431,3.3425,3.3432,3.3389,3.335,3.3319,3.3382,3.3894,3.5255,3.6844,3.8495,3.9774,3.9225,3.65,3.2162,2.9608,2.7913,2.9481,3.0906,3.1568,3.2613,3.3052,3.3475,3.3542,3.378,3.3662,3.3891,3.3809,3.3942,3.3844,3.4057,3.3968,3.4129,3.3993,3.4186,3.4106,3.4236,3.4174,3.4262,3.4174,3.4284,3.4294,3.4404,3.4403,3.4452,3.4441,3.4627,3.4663,3.4826,3.4812,3.5007,3.5071,3.5259,3.5373,3.5468,3.5589,3.5694,3.5796,3.6036,3.6107,3.6295,3.6311,3.6628,3.6924,3.7021,3.7267,3.7457,3.7595,3.7764,3.7822,3.7911,3.8023,3.8114,3.8219,3.8167,3.8173,3.8107,3.8182,3.8049,3.7834,3.7446,3.7158,3.6753,3.642,3.6026,3.5643,3.5192,3.4977,3.4655,3.4447,3.4144,3.397,3.3741,3.3708,3.3594,3.3539,3.3411,3.3417,3.3407,3.3331,3.3257,3.3291,3.3245,3.3241,3.3218,3.3225,3.3235,3.3241,3.3209,3.3284,3.3242,3.3242,3.3237,3.3269,3.3346,3.3388,3.3386,3.3424,3.3405,3.343,3.3418,3.3461,3.3388,3.3429,3.3409,3.3427,3.3361,3.3354,3.3383,3.3407,3.3401,3.3325,3.3288,3.3336,3.3327,3.338,3.3353,3.3274,3.329,3.3314,3.331,3.3278,3.3218,3.3234,3.326,3.3235,3.3212,3.3204,3.3164,3.3249,3.3185,3.3217,3.3171,3.3154,3.3118,3.3142,3.3123,3.3061,3.3085,3.3106,3.3161,3.3146,3.315,3.3127,3.3222,3.3385,3.3523,3.3542,3.3452,3.3541,3.3691,3.3831,3.3824,3.3964,3.3959,3.3723,3.3494,3.337,3.3351,3.3308,3.3267,3.3115,3.3039,3.2907,3.2891,3.283,3.2861,3.2834,3.28,3.2801,3.282,3.2764,3.2813,3.2735,3.2702,3.2667,3.2642,3.2589,3.2754,3.2973,3.4224,3.5738,3.7287,3.8846,3.8453,3.6283,3.229,2.7862,2.7051,2.8807,3.0089,3.1024,3.1903,3.2404,3.2556,3.2745,3.2923,3.2978,3.3046,3.3081,3.308,3.3075,3.3142,3.3118,3.3187,3.3201,3.3259,3.3285,3.3328,3.3304,3.3311,3.3362,3.337,3.3449,3.3406,3.3399,3.3503,3.3584,3.3653,3.3724,3.3732,3.3838,3.3986,3.4058,3.4111,3.4225,3.433,3.4421,3.456,3.4708,3.4802,3.4935,3.5168,3.5356,3.5514,3.5655,3.578,3.5959,3.6086,3.6225,3.6308,3.6348,3.6386,3.6499,3.6562,3.654,3.658,3.6602,3.6553,3.6481,3.6266,3.5962,3.5711,3.5337,3.4896,3.4487,3.4025,3.3599,3.3247,3.2922,3.2553,3.2418,3.2181,3.1992,3.1869,3.1693,3.1591,3.1438,3.1392,3.1315,3.1242,3.1161,3.1186,3.1175,3.1274,3.1256,3.1183,3.1149,3.1156,3.1136,3.1132,3.1129,3.1076,3.1088,3.1159,3.1237,3.1182,3.1191,3.1226,3.1255,3.1282,3.1283,3.1264,3.1271,3.1337,3.1335,3.131,3.1277,3.1294,3.1292,3.1359,3.1265,3.1237,3.123,3.1227,3.1247,3.1218,3.1172,3.1125,3.1153,3.1161,3.1155,3.1116,3.1181,3.1174,3.122,3.1243,3.1183,3.1132,3.1183,3.1213,3.1255,3.1224,3.1182,3.1186,3.1199,3.1252,3.1243,3.1215,3.1184,3.1243,3.1278,3.133,3.1264,3.1347,3.1536,3.1741,3.1826,3.176,3.1767,3.1923,3.2211,3.2259,3.229,3.2371,3.2444,3.216,3.2003,3.1803,3.1784,3.1783,3.1582,3.1617,3.1454,3.1372,3.1394,3.1334,3.1367,3.1375,3.1349,3.1377,3.1413,3.1451,3.142,3.1394,3.1384,3.1419,3.1426,3.1324,3.145,3.2062,3.36,3.5383,3.7001,3.7987,3.6924,3.3876,2.9456,2.5365,2.6308,2.8072,2.9116,3.0207,3.0947,3.1249,3.1374,3.1772,3.1696,3.1833,3.1813,3.1931,3.1927,3.2094,3.2062,3.2102,3.2052,3.2167,3.2204,3.2248,3.217,3.2146,3.2208,3.2279,3.2277,3.229,3.2255,3.2327,3.2362,3.2433,3.2462,3.2549,3.2623,3.2795,3.2892,3.3016,3.3074,3.3246,3.3363,3.3514,3.3755,3.3919,3.4039,3.4276,3.4408,3.4615,3.4647,3.4821,3.5155,3.5359,3.5451,3.5614,3.5726,3.5779,3.5938,3.6,3.6108,3.6128,3.6132,3.624,3.6243,3.6122,3.5895,3.5639,3.5397,3.5009,3.4629,3.4437,3.4024,3.3679,3.3397,3.2955,3.2603,3.2328,3.2152,3.1998,3.1862,3.1698,3.1597,3.1532,3.1469,3.141,3.1356,3.1362,3.1409,3.1488,3.1568,3.1504,3.1526,3.1467,3.1562,3.1525,3.1566,3.1515,3.1616,3.1684,3.1738,3.1774,3.1796,3.1802,3.1921,3.1924,3.1962,3.1984,3.203,3.2142,3.2357,3.2381,3.2349,3.2367,3.2401,3.2448,3.2457,3.2483,3.2489,3.2467,3.2613,3.2586,3.2593,3.2568,3.2644,3.2646,3.2711,3.2672,3.2752,3.2753,3.2754,3.2815,3.2844,3.2874,3.2871,3.2828,3.2831,3.293,3.2903,3.296,3.2965,3.3038,3.3146,3.3134,3.3114,3.3156,3.3164,3.3194,3.3385,3.3553,3.3465,3.3595,3.3656,3.3674,3.3878,3.4069,3.4208,3.426,3.4249,3.4025,3.3779,3.3715,3.3741,3.3695,3.3473,3.3466,3.3446,3.341,3.3404,3.3357,3.3349,3.3367,3.3391,3.3346,3.3273,3.3383,3.3446,3.3413,3.3377,3.3357,3.3244,3.3271,3.3322,3.3853,3.519,3.6739,3.8131,3.9138,3.823,3.4982,3.1646,2.8466,2.9327,3.0786,3.1031,3.1916,3.2236,3.2976,3.3113,3.3278,3.3399,3.3599,3.3596,3.3676,3.3608,3.3656,3.3653,3.3744,3.3715,3.3795,3.3739,3.372,3.3705,3.3834,3.3721,3.3735,3.3783,3.3874,3.3905,3.3907,3.3891,3.3912,3.3778,3.4004,3.4097,3.4001,3.4009,3.4212,3.4273,3.4323,3.4353,3.4425,3.4568,3.4727,3.4794,3.4762,3.4736,3.4876,3.514,3.4974,3.4953,3.4906,3.5007,3.5057,3.4846,3.4789,3.484,3.4768,3.4804,3.4714,3.469,3.4382,3.4447,3.4235,3.389,3.3865,3.3732,3.3388,3.2984,3.261,3.2741,3.2654,3.2204,3.2089,3.1957,3.2051,3.2098,3.2234,3.2126,3.2174,3.2311,3.2524,3.3049,3.3621,3.4026,3.4182,3.4253,3.4411,3.4523,3.4747,3.5031,3.5276,3.5445,3.5667,3.5918,3.6203,3.6494,3.6736,3.6888,3.7124,3.7351,3.768,3.806,3.7938,3.8038,3.8187,3.8231,3.8226,3.8234,3.8203,3.808,3.8009,3.7881,3.7675,3.75,3.7252,3.7059,3.6813,3.652,3.6281,3.5992,3.5718,3.554,3.5319,3.5128,3.4948,3.4986,3.4951,3.4933,3.4598,3.4534,3.4512,3.4516,3.4603,3.4666,3.4579,3.4505,3.4199,3.3785,3.3497,3.3483,3.3336,3.3147,3.2899,3.2826,3.272,3.2672,3.2622,3.2621,3.2489,3.2496,3.2496,3.2449,3.242,3.2296,3.2334,3.2346,3.2288,3.2314,3.2223,3.2097,3.2049,3.2025,3.2505,3.3902,3.5643,3.7542,3.8571,3.8483,3.6886,3.2794,2.8679,2.7099,2.8309,2.9111,3.0065,3.0856,3.1389,3.1749,3.1825,3.1987,3.1949,3.2021,3.2147,3.2181,3.2178,3.2262,3.2213,3.2265,3.229,3.2363,3.2366,3.2478,3.2581,3.2659,3.2695,3.2666,3.2644,3.2692,3.2707,3.2749,3.283,3.2925,3.2996,3.3134,3.3123,3.3244,3.3353,3.3477,3.3514,3.3665,3.38,3.3889,3.4102,3.4323,3.4397,3.4523,3.4707,3.4896,3.5165,3.5284,3.5458,3.5579,3.5775,3.583,3.5937,3.6028,3.6161,3.6185,3.6206,3.6225,3.6181,3.6099,3.5965,3.5706,3.5479,3.5012,3.4691,3.4261,3.3843,3.3445,3.306,3.2809,3.2501,3.2267,3.2117,3.195,3.1773,3.1665,3.1663,3.1607,3.1545,3.1428,3.1361,3.1312,3.1314,3.1357,3.1273,3.1335,3.1373,3.1327,3.1384,3.1283,3.1341,3.1431,3.1416,3.1395,3.1444,3.1408,3.1482,3.1514,3.1512,3.159,3.163,3.1621,3.1694,3.1719,3.1723,3.1783,3.1807,3.1805,3.1822,3.1795,3.1794,3.1783,3.1805,3.1833,3.1734,3.1684,3.1637,3.1651,3.1617,3.1633,3.1515,3.1616,3.1627,3.1572,3.1596,3.1624,3.1509,3.1533,3.1566,3.1504,3.1526,3.1455,3.1451,3.1442,3.1575,3.1454,3.1398,3.1376,3.1428,3.1468,3.1511,3.1421,3.1474,3.1504,3.1524,3.1491,3.1478,3.1488,3.1534,3.1548,3.1501,3.1438,3.141,3.1432,3.158,3.1579,3.1484,3.1445,3.148,3.1478,3.1422,3.1477,3.1449,3.1452,3.1428,3.1473,3.1441,3.1416,3.1397,3.1454,3.1499,3.1379,3.1395,3.137,3.1338,3.1384,3.1371,3.1396,3.132,3.1429,3.1408,3.1381,3.1397,3.1502,3.1528,3.1586,3.1561,3.1579,3.1701,3.1956,3.2083,3.2078,3.1959,3.1824,3.1697,3.1693,3.1648,3.1593,3.1549,3.1431,3.1364,3.1366,3.1312,3.1337,3.1329,3.133,3.1282,3.133,3.1322,3.1314,3.1347,3.1315,3.13,3.1315,3.1183,3.113,3.1462,3.2655,3.4355,3.6447,3.8323,3.8596,3.8299,3.5505,3.0491,2.6252,2.6701,2.8484,2.9343,3.0448,3.0948,3.1295,3.1565,3.1579,3.1526,3.1668,3.1621,3.181,3.1803,3.1847,3.1757,3.1834,3.1876,3.1939,3.1814,3.183,3.1804,3.1813,3.1707,3.1696,3.1696,3.1813,3.1906,3.1929,3.1983,3.2023,3.2042,3.222,3.2231,3.2294,3.2372,3.2588,3.2658,3.2833,3.2852,3.2953,3.3103,3.3316,3.3379,3.3548,3.3713,3.3909,3.4068,3.4214,3.4383,3.4497,3.4666,3.477,3.4929,3.4986,3.5162,3.5196,3.5264,3.5293,3.5336,3.5345,3.5365,3.5318,3.534,3.5079,3.484,3.4489,3.4244,3.3822,3.3426,3.3065,3.2757,3.2448,3.2163,3.1868,3.1666,3.1514,3.1377,3.1288,3.1226,3.1163,3.103,3.097,3.0952,3.0963,3.0913,3.0879,3.0957,3.0973,3.1017,3.1025,3.0926,3.0937,3.1013,3.094,3.0933,3.0872,3.0908,3.0906,3.0941,3.0922,3.0915,3.0883,3.0901,3.0963,3.1011,3.0986,3.1015,3.0995,3.0987,3.0986,3.11,3.1031,3.1081,3.1103,3.1105,3.1073,3.1076,3.1062,3.11,3.1109,3.1055,3.1013,3.1057,3.104,3.101,3.1,3.0998,3.0975,3.0986,3.1089,3.1022,3.0977,3.0958,3.0974,3.1048,3.0963,3.0964,3.096,3.0994,3.1039,3.1024,3.1007,3.103,3.1053,3.1082,3.1049,3.1014,3.1043,3.1059,3.1032,3.1016,3.1041,3.1024,3.107,3.1032,3.1058,3.1012,3.1018,3.0973,3.0993,3.1048,3.1038,3.1001,3.1042,3.1077,3.113,3.1038,3.097,3.0987,3.1052,3.108,3.1091,3.1037,3.1027,3.1077,3.1038,3.1044,3.0988,3.1066,3.1113,3.1128,3.1204,3.1189,3.1182,3.1253,3.1455,3.1618,3.1763,3.1731,3.161,3.1558,3.149,3.1409,3.1405,3.1298,3.1213,3.1151,3.1043,3.1006,3.1071,3.1084,3.1103,3.1049,3.0923,3.1021,3.1101,3.1114,3.1092,3.1041,3.1072,3.1041,3.0995,3.0853,3.1382,3.2639,3.4328,3.6432,3.8008,3.8017,3.5836,3.3398,2.8701,2.5769,2.7067,2.8403,2.9492,3.0267,3.0807,3.1033,3.1339,3.1307,3.1389,3.1416,3.1492,3.1456,3.1504,3.156,3.1665,3.1622,3.1727,3.178,3.1811,3.1728,3.1709,3.1605,3.1572,3.1617,3.1764,3.1804,3.184,3.1866,3.1906,3.2015,3.2059,3.2115,3.2261,3.2288,3.2406,3.2588,3.2612,3.2634,3.2949,3.2974,3.3084,3.3286,3.3404,3.3525,3.3656,3.389,3.4032,3.4187,3.4315,3.4552,3.4675,3.476,3.484,3.4959,3.5084,3.5162,3.5168,3.5227,3.5222,3.5238,3.5252,3.515,3.4971,3.4759,3.4498,3.4246,3.389,3.3528,3.3149,3.279,3.2476,3.2214,3.1868,3.1607,3.1449,3.131,3.1175,3.1076,3.0888,3.0888,3.0809,3.0806,3.0764,3.0725,3.0677,3.0746,3.0769,3.0825,3.078,3.0671,3.0779,3.0836,3.0727,3.0742,3.0787,3.087,3.0854,3.0849,3.0788,3.0803,3.0811,3.0884,3.0915,3.097,3.0891,3.0953,3.0983,3.1028,3.0991,3.0978,3.1111,3.1068,3.1059,3.111,3.1061,3.1103,3.1018,3.1037,3.1049,3.1054,3.1076,3.1056,3.1058,3.1021,3.0925,3.0929,3.1011,3.0999,3.1044,3.0945,3.0971,3.094,3.0959,3.1009,3.0975,3.0943,3.0959,3.0962,3.104,3.0973,3.0942,3.0925,3.1045,3.1105,3.1072,3.1024,3.1109,3.115,3.1157,3.1368,3.1523,3.1674,3.1766,3.1644,3.157,3.1431,3.1463,3.1356,3.1328,3.1199,3.1087,3.1061,3.1016,3.1019,3.1032,3.099,3.1035,3.0976,3.0928,3.0984,3.1003,3.0987,3.0986,3.095,3.0984,3.0891,3.0779,3.0887,3.1758,3.3158,3.4887,3.7218,3.7883,3.7937,3.5508,3.0539,2.5969,2.6294,2.7845,2.8744,2.9735,3.031,3.0869,3.0985,3.1255,3.1192,3.1318,3.1216,3.1391,3.1283,3.1403,3.1302,3.1405,3.1376,3.1509,3.1476,3.1551,3.1486,3.1556,3.1558,3.1559,3.145,3.1466,3.1489,3.1505,3.1542,3.1586,3.1515,3.1623,3.1662,3.1775,3.1801,3.1902,3.1939,3.2115,3.2214,3.2258,3.2296,3.2383,3.2533,3.2736,3.2838,3.2967,3.3165,3.3297,3.3466,3.3521,3.3642,3.3793,3.3921,3.3966,3.4068,3.4022,3.4066,3.4085,3.4196,3.4145,3.4136,3.3909,3.3792,3.3503,3.3185,3.2823,3.2299,3.1898,3.1577,3.1145,3.0763,3.0429,3.0278,3.0049,2.98,2.9597,2.947,2.936,2.934,2.9336,2.9339,2.9316,2.9336,2.9397,2.9519,2.9521,2.9563,2.9583,2.9589,2.9609,2.9584,2.9557,2.9524,2.9559,2.9612,2.9662,2.965,2.9596,2.9702,2.9723,2.9834,2.9812,2.9775,2.9795,2.9804,2.9759,2.9737,2.9717,2.973,2.9782,2.9769,2.9745,2.9752,2.9629,2.9621,2.9637,2.9654,2.9622,2.9633,2.9605,2.9552,2.9541,2.9538,2.95,2.949,2.9484,2.9511,2.9486,2.9484,2.9454,2.9485,2.9461,2.9485,2.9474,2.9447,2.9541,2.9646,2.9686,2.9684,2.9669,2.9819,3.0027,3.013,3.0291,3.0203,3.0089,3.0051,2.9979,2.9909,2.9868,2.9848,2.9781,2.966,2.9592,2.9579,2.9596,2.961,2.9587,2.9571,2.9529,2.954,2.965,2.9691,2.9651,2.9605,2.9541,2.9524,2.9533,2.9662,3.0503,3.2052,3.3692,3.5614,3.6095,3.4494,3.0484,2.591,2.3835,2.5465,2.6847,2.7245,2.8248,2.9093,2.9653,2.9713,3.0001,2.9949,3.0092,3.0085,3.0215,3.0203,3.0208,3.0262,3.0358,3.0294,3.0413,3.0456,3.0572,3.0569,3.0579,3.0541,3.0677,3.0687,3.0732,3.0702,3.0807,3.0783,3.087,3.0991,3.1066,3.1149,3.1321,3.1447,3.1577,3.1663,3.1845,3.1931,3.2122,3.2322,3.2412,3.2521,3.2674,3.2779,3.3052,3.3226,3.3407,3.3565,3.3728,3.3892,3.3985,3.4048,3.4106,3.427,3.4333,3.4391,3.44,3.4403,3.4424,3.4343,3.423,3.4052,3.3897,3.3656,3.3288,3.299,3.2544,3.2136,3.1764,3.1435,3.1132,3.0872,3.0611,3.0476,3.0306,3.0144,2.997,2.9936,2.988,2.9919,2.9954,2.9957,2.9913,2.9907,2.994,2.9996,3,2.9951,2.9977,3.0053,3.0055,3.0134,3.0142,3.0139,3.0148,3.0238,3.0277,3.0257,3.0276,3.0331,3.0326,3.0343,3.0292,3.0277,3.0231,3.0251,3.0287,3.0258,3.0282,3.0267,3.0225,3.0337,3.027,3.0247,3.0209,3.025,3.0297,3.0285,3.0251,3.0231,3.0231,3.026,3.031,3.0282,3.0274,3.031,3.0423,3.0414,3.0463,3.0502,3.0535,3.0725,3.0948,3.1014,3.1133,3.1068,3.0866,3.0846,3.0742,3.071,3.0636,3.0625,3.0527,3.0436,3.0413,3.0412,3.0304,3.0448,3.0421,3.0364,3.0364,3.0411,3.0517,3.0504,3.0433,3.0451,3.0442,3.0447,3.0393,3.068,3.1707,3.332,3.4965,3.6796,3.6884,3.608,3.2786,2.8358,2.4605,2.5529,2.7386,2.8268,2.9299,2.9958,3.0523,3.0438,3.0866,3.0795,3.0974,3.0863,3.1046,3.1002,3.1218,3.1132,3.1207,3.1085,3.1197,3.1087,3.1324,3.1223,3.1259,3.12,3.1265,3.1155,3.1191,3.1151,3.1286,3.133,3.1458,3.1454,3.1611,3.162,3.181,3.188,3.2074,3.212,3.2197,3.2249,3.2457,3.2575,3.2747,3.2881,3.3097,3.3243,3.3408,3.362,3.3706,3.3903,3.4092,3.4191,3.4338,3.4331,3.4471,3.4548,3.4577,3.4552,3.4543,3.4602,3.4582,3.4606,3.4453,3.4341,3.4064,3.3829,3.35,3.3184,3.2809,3.2422,3.201,3.1758,3.151,3.1199,3.095,3.0745,3.0546,3.0487,3.0403,3.0396,3.0299,3.0306,3.0365,3.0408,3.0395,3.0458,3.0438,3.0491,3.0502,3.0477,3.0507,3.0597,3.0624,3.0753,3.0714,3.085,3.0882,3.0959,3.0954,3.0995,3.0955,3.1062,3.1061,3.1202,3.1176,3.1302,3.1268,3.1301,3.1318,3.1343,3.1355,3.1333,3.1336,3.1438,3.1409,3.1441,3.1444,3.1499,3.1528,3.1545,3.1537,3.1587,3.1602,3.1697,3.1762,3.1913,3.2102,3.2166,3.2313,3.2178,3.1999,3.2072,3.198,3.1952,3.19,3.1933,3.1769,3.1699,3.168,3.1686,3.1658,3.1639,3.1675,3.172,3.177,3.1761,3.1792,3.1846,3.1863,3.1825,3.1849,3.1783,3.1711,3.1998,3.2985,3.4663,3.6167,3.7825,3.8145,3.5895,3.1523,2.9843,2.6948,2.7721,2.9315,2.9846,3.075,3.1068,3.184,3.173,3.2294,3.2221,3.239,3.2242,3.2448,3.2315,3.2575,3.236,3.2549,3.2396,3.2713,3.2515,3.2607,3.244,3.2686,3.2537,3.2641,3.2611,3.2743,3.2722,3.2821,3.2784,3.2946,3.2839,3.306,3.3048,3.3311,3.3286,3.3451,3.347,3.3663,3.3739,3.384,3.3858,3.4065,3.4247,3.4419,3.4508,3.4676,3.4825,3.5015,3.5123,3.5186,3.5285,3.5357,3.5449,3.5539,3.5577,3.5559,3.5588,3.5636,3.5708,3.5741,3.5635,3.5506,3.5365,3.5121,3.4901,3.4527,3.4182,3.3807,3.3571,3.3217,3.2906,3.2596,3.2396,3.2146,3.2055,3.1857,3.1804,3.1686,3.171,3.1676,3.1693,3.1656,3.1686,3.1653,3.1691,3.1626,3.1663,3.1655,3.1677,3.1677,3.1731,3.1691,3.1761,3.1785,3.1872,3.1779,3.1806,3.1832,3.1923,3.1924,3.1975,3.1947,3.1916,3.1867,3.1929,3.1861,3.1874,3.1812,3.1751,3.1775,3.1773,3.1637,3.1777,3.1884,3.1943,3.185,3.187,3.1919,3.217,3.217,3.2409,3.2375,3.2145,3.1872,3.1955,3.1872,3.1821,3.1674,3.156,3.1546,3.1473,3.1414,3.133,3.133,3.1399,3.1338,3.1373,3.1299,3.1348,3.1391,3.1394,3.1386,3.1309,3.1318,3.1234,3.1193,3.148,3.2461,3.3965,3.5552,3.7266,3.7653,3.5462,3.0981,2.686,2.6079,2.7664,2.8693,2.9493,3.0218,3.0914,3.1303,3.1299,3.1462,3.1539,3.1622,3.1686,3.1803,3.1757,3.1902,3.1844,3.1894,3.1888,3.1859,3.1869,3.1937,3.189,3.1892,3.1835,3.1839,3.188,3.2044,3.2007,3.1969,3.2037,3.2107,3.2168,3.2251,3.2373,3.2453,3.257,3.2702,3.2836,3.2987,3.3024,3.3191,3.3328,3.3497,3.3598,3.377,3.3958,3.4174,3.4257,3.4341,3.4459,3.4572,3.4663,3.4781,3.483,3.4949,3.4948,3.5011,3.5061,3.5094,3.5025,3.5001,3.4848,3.4683,3.4348,3.4007,3.3582,3.3249,3.2914,3.2734,3.2349,3.2046,3.1682,3.1433,3.1244,3.1036,3.0868,3.0767,3.0707,3.0589,3.0552,3.0494,3.0467,3.052,3.0548,3.0521,3.0516,3.0512,3.0519,3.0592,3.0633,3.0567,3.0532,3.0579,3.0685,3.0741,3.072,3.0714,3.0749,3.0802,3.0866,3.0857,3.079,3.0841,3.0864,3.0859,3.0824,3.0796,3.0811,3.0836,3.0863,3.0838,3.0726,3.0655,3.0715,3.0662,3.0728,3.0729,3.0803,3.0818,3.0874,3.0845,3.1009,3.1148,3.1211,3.1244,3.1174,3.0929,3.089,3.0828,3.0808,3.0792,3.0675,3.0527,3.0407,3.0441,3.051,3.045,3.0392,3.0396,3.0377,3.046,3.0479,3.0448,3.0478,3.0444,3.05,3.0473,3.0351,3.0345,3.0651,3.1175,3.2626,3.4446,3.6395,3.7646,3.6568,3.2608,2.7843,2.4417,2.5682,2.727,2.8243,2.936,2.9851,3.0376,3.047,3.0834,3.0667,3.0797,3.0771,3.093,3.0868,3.0944,3.0863,3.0981,3.0966,3.1061,3.1028,3.1085,3.0977,3.1034,3.0936,3.1001,3.0897,3.097,3.0959,3.1055,3.1091,3.1183,3.123,3.139,3.1441,3.1554,3.1642,3.1749,3.1944,3.2106,3.219,3.2334,3.2423,3.2562,3.2756,3.2963,3.3087,3.3249,3.3458,3.3652,3.3802,3.3949,3.3997,3.4078,3.4262,3.4268,3.4348,3.4374,3.4415,3.4436,3.4464,3.4334,3.4237,3.4036,3.377,3.3411,3.3068,3.266,3.2269,3.184,3.1559,3.1134,3.0886,3.0572,3.0454,3.0382,3.0233,3.0067,2.9985,2.9864,2.9842,2.9734,2.971,2.9691,2.9685,2.9795,2.9889,2.9798,2.9825,2.9881,2.9863,2.9908,2.9914,2.9888,2.9944,2.9988,3.0067,3.0029,3.0007,3.0008,3.0091,3.0104,3.0129,3.0087,3.0088,3.0144,3.0228,3.0211,3.0184,3.0201,3.0177,3.0228,3.0294,3.014,3.0101,3.0126,3.0137,3.0179,3.0163,3.0082,3.0123,3.0151,3.0204,3.0157,3.0149,3.0168,3.0219,3.0229,3.0277,3.0244,3.0208,3.023,3.0437,3.0583,3.0766,3.0736,3.0565,3.0524,3.0465,3.0408,3.0332,3.029,3.0265,3.0206,3.0113,2.9993,3.0061,3.0035,3.0047,3.0092,3.001,3.0006,3.0083,3.0126,3.0088,3.0093,3.0079,3.0112,3.0061,3.0018,3.0027,3.0789,3.2394,3.417,3.6093,3.7183,3.6149,3.2291,2.7574,2.4189,2.5431,2.7069,2.7991,2.912,2.9741,3.0173,3.0214,3.0537,3.0499,3.0653,3.0545,3.068,3.0689,3.0859,3.0724,3.0804,3.0732,3.0878,3.0922,3.0985,3.0897,3.0957,3.0901,3.0955,3.0986,3.1016,3.0955,3.1128,3.1112,3.1275,3.134,3.1453,3.1544,3.1646,3.1764,3.1917,3.1977,3.2091,3.224,3.2427,3.2523,3.2765,3.2856,3.3051,3.3221,3.3398,3.3532,3.3659,3.3838,3.3915,3.4076,3.4166,3.4258,3.4364,3.4426,3.4493,3.4512,3.451,3.4521,3.4488,3.4344,3.4239,3.3952,3.3639,3.3256,3.2814,3.246,3.2007,3.1639,3.1456,3.1203,3.0929,3.0668,3.0366,3.0261,3.0125,3.0064,2.9892,2.9849,2.9787,2.9773,2.9737,2.9737,2.9809,2.989,2.9843,2.9929,2.9864,2.9886,2.9813,2.981,2.9804,2.9804,2.976,2.9832,2.9886,2.9981,2.994,2.9955,2.9953,2.9952,2.9956,3.0048,2.9972,2.997,2.9964,2.9993,2.999,2.9983,2.9963,2.9976,3.0007,3.0031,2.9988,2.9992,2.9933,2.9936,2.9946,2.9964,2.9942,2.9915,2.9876,2.9916,2.9949,2.9895,2.9907,2.9894,2.9886,2.9821,2.9812,2.9783,2.98,2.9804,2.9782,2.9743,2.9732,2.9769,2.9778,2.9772,2.9725,2.9765,2.9777,2.9837,2.9891,2.9789,2.9884,2.9811,3.0029,3.0072,2.9999,3.0078,3.0119,3.037,3.0497,3.0606,3.0472,3.0228,3.0218,3.0293,3.0226,3.0109,3.0001,2.9905,2.9789,2.9766,2.9752,2.9708,2.9754,2.9744,2.9754,2.9763,2.9755,2.9795,2.9819,2.979,2.9767,2.978,2.9728,2.9637,2.9848,3.0804,3.2325,3.4181,3.6231,3.6734,3.5181,3.1039,2.628,2.4048,2.5661,2.7114,2.7966,2.8523,2.9194,2.9792,2.9846,3.0108,3.0133,3.0258,3.0213,3.0298,3.0253,3.0318,3.0316,3.0412,3.0353,3.0499,3.0402,3.0474,3.0415,3.0525,3.0364,3.0449,3.042,3.0488,3.0552,3.0599,3.0557,3.0675,3.0806,3.092,3.0952,3.1052,3.1148,3.1284,3.1436,3.1544,3.1623,3.1778,3.1911,3.2115,3.2266,3.2371,3.2526,3.2744,3.2918,3.3016,3.3149,3.325,3.3426,3.3526,3.3641,3.3698,3.3794,3.3808,3.3875,3.3926,3.3937,3.3876,3.3818,3.3668,3.3539,3.3212,3.2885,3.2691,3.2365,3.193,3.1623,3.121,3.0881,3.0591,3.0344,3.0077,2.9819,2.9605,2.9581,2.9458,2.9343,2.9196,2.9202,2.9207,2.9213,2.9255,2.9239,2.9195,2.9221,2.9196,2.9284,2.9178,2.9164,2.9211,2.9264,2.924,2.9301,2.9287,2.9353,2.9372,2.9395,2.9366,2.9354,2.9367,2.9426,2.9346,2.9346,2.9381,2.937,2.942,2.9452,2.9405,2.9399,2.9389,2.9404,2.9426,2.9407,2.9339,2.935,2.9362,2.9402,2.9361,2.9293,2.9294,2.9298,2.9309,2.9369,2.9266,2.9246,2.9269,2.9221,2.9305,2.9233,2.9193,2.9156,2.9168,2.9219,2.9172,2.9162
