0.92357,0.92607,0.93824,0.94474,0.94725,0.97011,0.98387,0.98324,0.99422,1.0072,1.0155,0.99248,1.0073,1.0201,1.0217,1.0294,1.0474,1.0392,1.0303,1.0534,1.067,1.0674,1.0347,1.0091,0.99495,0.99087,0.983,0.98421,0.96289,0.93673,0.91624,0.9057,0.87871,0.87381,0.86593,0.87494,0.86096,0.8467,0.84299,0.83409,0.82794,0.84096,0.83713,0.85064,0.84958,0.82705,0.83686,0.85489,0.84048,0.83604,0.85084,0.85747,0.86427,0.86441,0.84176,0.85469,0.84778,0.85865,0.84325,0.83977,0.83399,0.85161,0.86855,0.85393,0.84711,0.85317,0.85548,0.84647,0.83778,0.85332,0.84815,0.84672,0.83348,0.84086,0.83957,0.83661,0.83712,0.83246,0.82055,0.82462,0.8258,0.8244,0.83547,0.82792,0.81144,0.82224,0.82465,0.82435,0.80799,0.83668,0.82519,0.85056,0.84028,0.84205,0.86125,0.87121,0.87874,0.8712,0.89158,0.88108,0.89053,0.88687,0.85191,0.85993,0.87172,0.88188,0.87317,0.86157,0.83694,0.81574,0.81912,0.79833,0.79558,0.81415,0.82572,0.82512,0.82191,0.81459,0.81152,0.81365,0.79139,0.77001,0.78723,0.83651,0.95041,1.147,1.4473,1.7193,1.7893,1.3889,1.037,0.89938,0.76306,0.68204,0.69675,0.7812,0.84169,0.8419,0.82604,0.82177,0.81509,0.82461,0.82493,0.81945,0.81799,0.85373,0.83805,0.81637,0.8249,0.82981,0.81564,0.82222,0.82457,0.83645,0.83011,0.83663,0.8332,0.82354,0.828,0.8461,0.85309,0.8634,0.87289,0.87814,0.8669,0.87473,0.89345,0.89835,0.92488,0.93498,0.95772,0.95853,0.94152,0.92009,0.9085,0.94439,0.98482,0.98216,0.98365,0.98795,0.99766,0.99483,0.99431,1.0047,1.0144,1.0569,1.0692,1.0294,1.0214,1.0027,1.0169,1.0295,1.0399,1.0307,1.0255,0.98916,0.97726,0.97418,0.96295,0.94746,0.93452,0.89533,0.8713,0.86077,0.86761,0.89157,0.88131,0.83923,0.84287,0.84332,0.81342,0.80981,0.82273,0.82351,0.85423,0.84128,0.82423,0.83791,0.85213,0.85505,0.8604,0.84601,0.83506,0.83391,0.85529,0.86888,0.86539,0.86487,0.84748,0.8306,0.8482,0.84564,0.85225,0.83715,0.84567,0.85545,0.83756,0.83631,0.8448,0.856,0.86514,0.84799,0.83522,0.83924,0.82267,0.81276,0.80853,0.82045,0.82561,0.8284,0.80054,0.80407,0.81314,0.82087,0.8146,0.80457,0.8065,0.81987,0.81303,0.81212,0.79683,0.8035,0.83367,0.84663,0.84348,0.85363,0.85706,0.86891,0.87502,0.87253,0.87063,0.867,0.8592,0.8596,0.87611,0.87498,0.86819,0.83996,0.80316,0.78806,0.77851,0.78541,0.79473,0.79201,0.78854,0.79606,0.78737,0.79414,0.79028,0.77625,0.74625,0.73801,0.7668,0.8512,1.0303,1.2924,1.5762,1.8143,1.5703,1.1122,0.92154,0.76644,0.65381,0.63521,0.66897,0.78438,0.82269,0.79601,0.79507,0.77965,0.77731,0.77843,0.7875,0.78407,0.79149,0.76994,0.77373,0.77308,0.79452,0.81773,0.82466,0.8184,0.80686,0.81466,0.8081,0.80082,0.80263,0.80481,0.82553,0.82978,0.82822,0.82909,0.83283,0.82732,0.83317,0.84507,0.84736,0.85682,0.86814,0.88378,0.8824,0.89729,0.89657,0.90285,0.91006,0.93088,0.93071,0.92944,0.94694,0.95564,0.96339,0.96919,0.98067,0.98817,0.98254,0.98301,0.99082,0.98739,0.99181,1.0157,1.0215,1.0045,0.97878,0.98054,0.96937,0.96126,0.95313,0.9398,0.90704,0.89229,0.88516,0.8622,0.8627,0.8431,0.84087,0.8083,0.79556,0.79109,0.79643,0.79952,0.78038,0.78167,0.76391,0.79108,0.80236,0.81015,0.80182,0.78631,0.78828,0.78225,0.79413,0.80408,0.78619,0.80767,0.79341,0.77983,0.79237,0.80243,0.78753,0.7818,0.79813,0.78938,0.77631,0.77695,0.78569,0.77499,0.77051,0.76464,0.77038,0.76467,0.75128,0.75928,0.76202,0.76125,0.76148,0.7619,0.73795,0.73781,0.75346,0.75278,0.754,0.74855,0.77302,0.76145,0.77552,0.78431,0.80416,0.82649,0.82716,0.82721,0.83474,0.83179,0.83081,0.83012,0.8061,0.81333,0.8183,0.81889,0.79386,0.77294,0.73649,0.73092,0.73492,0.74306,0.73515,0.7375,0.76083,0.73915,0.72591,0.71895,0.73739,0.72563,0.69761,0.7014,0.75473,0.8466,1.0587,1.3324,1.5906,1.6613,1.2916,0.9252,0.84019,0.72394,0.61064,0.60799,0.64276,0.79082,0.85211,0.78586,0.7563,0.72585,0.75996,0.79899,0.80763,0.80074,0.79321,0.72271,0.72295,0.74734,0.78108,0.82176,0.86481,0.87844,0.79943,0.71435,0.69453,0.74445,0.79279,0.85382,0.87216,0.84327,0.79956,0.82752,0.83374,0.84355,0.86108,0.89541,0.91337,0.88937,0.82622,0.82176,0.86336,0.87222,0.90806,0.93354,0.9359,0.92934,0.96412,0.96446,0.98994,1.0217,1.0112,0.96965,0.98857,0.99867,1.0051,1.0128,1.0142,0.99014,0.99136,1.0087,1.0087,1.0031,1.0149,0.99247,0.98759,0.95785,0.95996,0.97429,0.97451,0.95833,0.93129,0.89363,0.86401,0.86351,0.83648,0.81027,0.80967,0.83763,0.82877,0.82676,0.81838,0.83348,0.83283,0.82066,0.82075,0.81462,0.81203,0.8315,0.85891,0.85672,0.84333,0.86649,0.87826,0.84522,0.82415,0.82129,0.8272,0.83544,0.83582,0.84061,0.83802,0.8251,0.81133,0.86901,0.875,0.88049,0.87759,0.82286,0.8296,0.81331,0.79336,0.79694,0.81713,0.83164,0.87173,0.86373,0.86858,0.8982,0.8889,0.88668,0.87407,0.9373,0.91239,0.89921,0.84097,0.8159,0.83753,0.80486,0.79991,0.8091,0.79814,0.80248,0.8053,0.80557,0.80391,0.8215,0.82239,0.80642,0.8273,0.82595,0.82301,0.8322,0.87343,0.97463,1.1658,1.3018,1.5236,1.6863,1.5539,1.2021,0.96983,0.92112,0.82021,0.71237,0.67549,0.74565,0.76312,0.82976,0.83671,0.85639,0.83279,0.83055,0.82024,0.80939,0.81722,0.82192,0.83908,0.82683,0.82898,0.82692,0.83252,0.84607,0.83081,0.86544,0.8995,0.87516,0.85856,0.85189,0.85818,0.84769,0.84888,0.86602,0.86687,0.87053,0.87729,0.89424,0.89734,0.90342,0.9243,0.94378,0.94193,0.94054,0.93361,0.9603,0.9609,0.93618,0.93622,0.96495,0.96985,0.97513,0.97035,0.96723,1.0138,1.0458,1.0261,1.0025,1.0034,0.99238,0.98684,1.0029,1.0352,1.0222,1.0126,0.99475,1.0073,0.9846,1.0017,0.98344,0.96746,0.96757,0.94341,0.91279,0.90341,0.8792,0.86874,0.84291,0.84373,0.84514,0.85421,0.87934,0.88037,0.88547,0.87002,0.85975,0.83344,0.84095,0.86554,0.8925,0.90029,0.88,0.88324,0.87771,0.88773,0.8921,0.86931,0.84243,0.86288,0.87222,0.87486,0.87255,0.86989,0.86381,0.86664,0.84732,0.85898,0.85859,0.8863,0.87783,0.89725,0.89215,0.91146,0.90813,0.90801,0.90766,0.93336,0.91624,0.90667,0.91188,0.92883,0.9467,0.91897,0.8911,0.85023,0.8537,0.86935,0.86504,0.8313,0.80126,0.80866,0.84484,0.84447,0.85134,0.85993,0.86665,0.88341,0.84266,0.82509,0.85571,0.97276,1.1134,1.3092,1.4835,1.618,1.579,1.1943,1.0438,1.002,0.93658,0.79515,0.65578,0.69239,0.76882,0.83536,0.84251,0.83281,0.8594,0.85827,0.85129,0.84579,0.8541,0.83787,0.83283,0.86179,0.86401,0.84168,0.85781,0.83434,0.84844,0.84076,0.85114,0.85984,0.88245,0.87045,0.86789,0.86915,0.862,0.86876,0.88593,0.88863,0.88933,0.88547,0.88968,0.92269,0.92926,0.93054,0.93239,0.93557,0.94703,0.94622,0.94751,0.95217,0.95555,0.97678,0.97824,0.97727,0.98627,0.99163,0.99939,1.0032,1.0115,1.007,1.0127,1.0204,1.017,1.0133,1.0408,1.0647,1.0148,0.95967,0.95655,0.97618,0.97074,0.95671,0.94182,0.91539,0.91414,0.91106,0.88991,0.88246,0.87828,0.87824,0.86721,0.87002,0.8835,0.87542,0.8509,0.85063,0.85094,0.8794,0.85878,0.83597,0.8504,0.87355,0.87817,0.88108,0.88199,0.87704,0.8782,0.8732,0.88422,0.8841,0.88256,0.89518,0.88487,0.87961,0.87727,0.86703,0.87375,0.88257,0.89973,0.89732,0.92304,0.92279,0.91039,0.91074,0.92178,0.9184,0.91972,0.91528,0.92581,0.93932,0.93624,0.91107,0.88952,0.88057,0.85602,0.84194,0.83213,0.85013,0.85047,0.82736,0.82996,0.82475,0.83655,0.86127,0.84206,0.85971,0.85678,0.8268,0.8274,0.90439,1.0231,1.2065,1.4075,1.5733,1.6864,1.3875,1.1148,1.041,0.94476,0.80705,0.6799,0.67886,0.74167,0.84482,0.84744,0.8315,0.81028,0.82182,0.81331,0.82991,0.83268,0.84014,0.84012,0.8402,0.83463,0.84805,0.84834,0.85539,0.85572,0.84644,0.83989,0.8479,0.85292,0.88236,0.87748,0.85781,0.83721,0.85666,0.85793,0.8753,0.87062,0.88121,0.88498,0.89004,0.89588,0.90958,0.92787,0.92006,0.91379,0.92145,0.94097,0.93909,0.96659,0.97626,0.97248,0.98023,0.97748,0.9732,0.9693,0.96764,0.98724,0.996,1.0104,0.99377,0.99722,0.99955,0.99654,0.99491,0.98507,0.96611,0.96615,0.94979,0.95069,0.92748,0.92162,0.9158,0.91773,0.90916,0.87898,0.86767,0.85007,0.83702,0.84459,0.83382,0.83261,0.81824,0.82217,0.81841,0.8169,0.81475,0.84698,0.83707,0.83085,0.82699,0.83215,0.83664,0.83103,0.83186,0.8444,0.8468,0.85043,0.8366,0.86559,0.8609,0.85131,0.85862,0.86088,0.87922,0.87777,0.88518,0.90449,0.9099,0.90243,0.91604,0.91985,0.91511,0.91677,0.91597,0.89645,0.887,0.89427,0.90237,0.89281,0.86509,0.85574,0.83316,0.82803,0.81441,0.79674,0.82189,0.82477,0.82865,0.82213,0.82514,0.83386,0.83262,0.82596,0.81199,0.82619,0.89983,0.94978,1.1061,1.3165,1.5351,1.7083,1.5331,1.1593,0.98918,0.93738,0.81525,0.67859,0.66555,0.72261,0.80288,0.85849,0.86423,0.83396,0.81358,0.81363,0.79807,0.80305,0.81467,0.85018,0.83505,0.81565,0.82021,0.83243,0.84066,0.84744,0.82995,0.84605,0.84969,0.85166,0.85192,0.85465,0.85792,0.8457,0.83605,0.85764,0.8599,0.86432,0.87948,0.88663,0.90267,0.89552,0.89136,0.90286,0.93723,0.94576,0.93385,0.94467,0.94809,0.97657,0.98197,0.96039,0.96688,0.98273,0.99345,0.9809,1.0156,1.0276,1.0226,1.0051,0.99965,1.0053,1.0118,1.0049,1.0099,0.99965,0.98802,0.95651,0.96644,0.95842,0.95414,0.92296,0.89636,0.89718,0.8862,0.88302,0.85804,0.8543,0.86278,0.8456,0.83788,0.8294,0.82838,0.8298,0.83028,0.84215,0.82521,0.8254,0.81677,0.80811,0.82623,0.8331,0.82661,0.82869,0.84004,0.84043,0.85597,0.85862,0.8609,0.86503,0.85515,0.85151,0.87048,0.88982,0.89484,0.88382,0.90652,0.88424,0.91157,0.90237,0.90447,0.92297,0.91683,0.91727,0.90379,0.90098,0.89445,0.88907,0.88479,0.87416,0.87717,0.86098,0.83116,0.82497,0.8275,0.83065,0.81835,0.8111,0.82894,0.82776,0.83798,0.83713,0.82797,0.80628,0.82966,0.88506,0.98221,1.1705,1.2924,1.5175,1.7284,1.5525,1.1777,1.0018,0.95152,0.83214,0.69798,0.68535,0.71924,0.80843,0.81925,0.81818,0.82026,0.81007,0.82308,0.82968,0.82788,0.85413,0.86656,0.84439,0.83566,0.83607,0.82451,0.82684,0.82111,0.83093,0.83357,0.84961,0.86146,0.84824,0.86847,0.87785,0.8665,0.85383,0.85476,0.86229,0.87129,0.89188,0.8994,0.89448,0.90428,0.91021,0.89824,0.91824,0.93023,0.94192,0.95765,0.96789,0.98009,0.98166,0.98617,0.98662,0.9873,0.99236,1.0171,1.0085,1.0055,1.0271,1.0308,1.0496,1.0576,1.029,1.0026,1.0123,0.99327,0.99435,0.98282,0.96505,0.96959,0.95525,0.91998,0.89568,0.88409,0.87691,0.87555,0.86063,0.85754,0.86052,0.84667,0.84507,0.83105,0.84022,0.82446,0.84346,0.85322,0.83274,0.84127,0.84334,0.82105,0.81572,0.83968,0.83663,0.83785,0.82881,0.84115,0.84716,0.85741,0.85989,0.84756,0.84714,0.85201,0.85706,0.8621,0.86281,0.86757,0.86135,0.8891,0.89082,0.85872,0.86916,0.87928,0.90076,0.90869,0.89989,0.91769,0.92133,0.9348,0.91897,0.90136,0.90528,0.90681,0.91409,0.90764,0.90307,0.88147,0.85529,0.83848,0.83542,0.84726,0.85695,0.84325,0.84081,0.84613,0.82162,0.84059,0.85841,0.85579,0.8453,0.82204,0.85108,0.87908,0.94605,1.1091,1.3229,1.5502,1.7761,1.6283,1.2532,1.0493,0.94622,0.83734,0.70203,0.71198,0.7723,0.8484,0.87882,0.87465,0.84031,0.84444,0.85109,0.85707,0.86373,0.85809,0.86632,0.86698,0.86177,0.86462,0.85225,0.85769,0.8632,0.87058,0.85892,0.85442,0.8562,0.88823,0.89043,0.8922,0.90187,0.90732,0.90797,0.91386,0.92851,0.93898,0.91855,0.91546,0.93251,0.93072,0.94412,0.95028,0.96211,0.97632,0.99219,0.99265,1.0054,1.0246,1.0286,1.0277,1.0544,1.0561,1.0705,1.073,1.0919,1.0854,1.0535,1.055,1.0647,1.0562,1.0572,1.0535,1.0371,1.0315,1.0278,1.0138,0.9979,0.9803,0.96763,0.93969,0.93139,0.92925,0.93088,0.89884,0.89056,0.89554,0.89505,0.88409,0.88584,0.86643,0.88253,0.89127,0.89009,0.88301,0.87573,0.863,0.86193,0.8748,0.87306,0.87953,0.88485,0.89036,0.88314,0.90446,0.90222,0.8938,0.89051,0.90771,0.90269,0.93383,0.94198,0.9225,0.91995,0.92289,0.9357,0.93195,0.93136,0.91908,0.91158,0.92554,0.93751,0.91129,0.88672,0.88951,0.89139,0.89081,0.89421,0.89421,0.89911,0.89467,0.89607,0.92757,0.92178,0.9254,0.91685,0.93181,0.95326,0.95697,0.97292,0.95388,0.95908,0.97641,0.95687,0.94353,0.92994,0.9376,0.95521,0.94985,0.93934,0.92125,0.90357,0.89695,0.88473,0.8933,0.89633,0.90126,0.88942,0.88665,0.89219,0.90012,0.90223,0.88369,0.84449,0.85129,0.91582,0.95925,1.1228,1.3637,1.662,1.9534,1.8162,1.3745,1.0738,0.91901,0.80372,0.75605,0.77023,0.86345,0.92225,0.89956,0.89321,0.88242,0.89466,0.8858,0.87212,0.87202,0.90254,0.89242,0.89251,0.88475,0.88147,0.88698,0.88925,0.8747,0.87097,0.88934,0.90418,0.88717,0.89011,0.88744,0.89775,0.90495,0.90797,0.91333,0.92197,0.92886,0.92871,0.94123,0.94871,0.95767,0.97183,0.98997,0.98923,1.0083,1.0132,1.0192,1.0357,1.056,1.0577,1.0698,1.069,1.0933,1.0975,1.1028,1.1033,1.1222,1.1316,1.1424,1.1426,1.1354,1.1374,1.1328,1.1286,1.1106,1.1037,1.1057,1.08,1.0469,1.0239,1.0053,0.99481,0.98972,0.97114,0.9415,0.93945,0.91999,0.91976,0.91417,0.91556,0.91169,0.90927,0.89054,0.9033,0.90699,0.89426,0.88859,0.88702,0.89977,0.91543,0.89342,0.88942,0.89824,0.89156,0.88987,0.90421,0.8943,0.89139,0.89768,0.90399,0.89749,0.88919,0.90359,0.90089,0.90358,0.89792,0.91121,0.91854,0.9212,0.8985,0.8946,0.90171,0.91045,0.91613,0.89865,0.8888,0.90232,0.90542,0.90881,0.89681,0.90396,0.89842,0.88644,0.88655,0.91332,0.89987,0.89111,0.88941,0.89548,0.90276,0.89578,0.8922,0.88632,0.88468,0.89541,0.89232,0.88769,0.89135,0.89295,0.89446,0.90533,0.90019,0.88016,0.87504,0.87582,0.88767,0.89165,0.90332,0.91441,0.92892,0.93734,0.92326,0.92695,0.92897,0.92824,0.97021,0.95889,0.93936,0.9362,0.92227,0.93781,0.94116,0.93258,0.9267,0.9167,0.90361,0.88949,0.8716,0.87467,0.87573,0.87987,0.89171,0.89067,0.88141,0.87821,0.87606,0.87459,0.8492,0.83196,0.84899,0.92025,1.0212,1.2188,1.5279,1.8451,2.0266,1.6709,1.2354,1.0149,0.86617,0.78112,0.78111,0.83007,0.91871,0.92735,0.8942,0.89556,0.88702,0.90055,0.89246,0.89822,0.89057,0.88858,0.88906,0.90307,0.88612,0.89975,0.89109,0.90421,0.89622,0.9071,0.89465,0.90495,0.90997,0.91748,0.91193,0.90886,0.92521,0.92193,0.91815,0.93273,0.93998,0.93734,0.95269,0.96516,0.97377,0.979,0.99009,0.99809,1.0005,1.0121,1.0223,1.0355,1.0623,1.0732,1.0738,1.0768,1.0875,1.094,1.0958,1.0998,1.1277,1.1228,1.1289,1.1318,1.1396,1.1376,1.1447,1.1428,1.1351,1.128,1.1076,1.0839,1.0764,1.0507,1.0466,1.0276,0.99812,0.97294,0.97214,0.97026,0.96459,0.9334,0.92829,0.91517,0.91389,0.90961,0.90151,0.9034,0.89843,0.91158,0.90344,0.89535,0.90986,0.90436,0.88584,0.87644,0.87861,0.88766,0.9001,0.8997,0.89139,0.8953,0.90068,0.90082,0.88942,0.89524,0.91895,0.90528,0.90856,0.90397,0.90158,0.91331,0.91031,0.91367,0.91093,0.91271,0.91833,0.91675,0.90444,0.89936,0.90541,0.90918,0.90128,0.89818,0.90779,0.89546,0.88994,0.88298,0.88772,0.88648,0.89128,0.89502,0.88177,0.88512,0.88831,0.88204,0.88222,0.89007,0.89181,0.89914,0.90227,0.89029,0.88971,0.87905,0.8842,0.89258,0.88753,0.88662,0.89568,0.90547,0.912,0.91823,0.92564,0.94317,0.92675,0.92383,0.94394,0.94313,0.94236,0.94607,0.94721,0.95216,0.94388,0.93326,0.91646,0.9129,0.90047,0.88861,0.88547,0.87115,0.86756,0.87258,0.87729,0.88524,0.88219,0.89554,0.87445,0.87361,0.86219,0.82957,0.82617,0.85731,0.94787,1.1364,1.3985,1.7078,1.973,1.8273,1.3669,1.0825,0.93805,0.81609,0.76217,0.77245,0.88687,0.93235,0.91307,0.90479,0.89653,0.90135,0.89289,0.90576,0.89928,0.89298,0.87394,0.88793,0.88386,0.89079,0.88862,0.90507,0.91166,0.91934,0.90166,0.90372,0.91284,0.92201,0.90683,0.919,0.91673,0.91823,0.92093,0.94828,0.95076,0.9487,0.96706,0.9583,0.96653,0.98028,0.98271,0.98829,1.0013,1.0159,1.035,1.0458,1.0503,1.0575,1.0667,1.0852,1.0989,1.0999,1.11,1.1343,1.1293,1.1379,1.1321,1.1367,1.1433,1.1467,1.1457,1.1358,1.1388,1.1277,1.12,1.0952,1.0833,1.0601,1.0576,1.0227,1.0071,0.99337,0.98159,0.97662,0.96597,0.94405,0.9422,0.92832,0.9247,0.9256,0.91722,0.91016,0.91453,0.9068,0.91124,0.89491,0.89652,0.90565,0.90509,0.90362,0.90799,0.89968,0.89595,0.89104,0.90394,0.89992,0.89975,0.90042,0.91282,0.91566,0.9264,0.92329,0.92315,0.91758,0.91439,0.91957,0.92595,0.92776,0.92119,0.92181,0.93678,0.92893,0.92571,0.92122,0.91381,0.91877,0.92396,0.91602,0.91012,0.90812,0.90981,0.91384,0.91026,0.91171,0.9022,0.90645,0.91486,0.90834,0.9,0.8974,0.8973,0.88402,0.88947,0.89926,0.89476,0.89638,0.89042,0.89578,0.89039,0.88511,0.89276,0.89984,0.89549,0.90623,0.89527,0.88188,0.8875,0.88795,0.88905,0.88609,0.89609,0.88655,0.89709,0.90701,0.89832,0.88866,0.88347,0.90759,0.90637,0.90624,0.91434,0.92748,0.93684,0.93422,0.93759,0.94362,0.95365,0.95469,0.94425,0.93366,0.92967,0.94035,0.93958,0.93526,0.92242,0.91053,0.88894,0.88678,0.8822,0.8851,0.8774,0.86771,0.87322,0.88299,0.89043,0.88345,0.88772,0.87484,0.8449,0.86279,0.93963,1.0989,1.3668,1.6929,1.8516,2.023,1.6951,1.2538,1.0732,0.90306,0.80108,0.79233,0.85523,0.94087,0.95651,0.93479,0.9375,0.89856,0.88808,0.85796,0.88395,0.91385,0.92483,0.90977,0.92908,0.91832,0.92343,0.923,0.92419,0.93251,0.97165,0.95033,0.92398,0.90721,0.94776,0.95009,0.96243,0.95804,0.94601,0.9408,0.97707,0.97388,0.99122,0.99092,0.98502,1.001,1.02,1.0326,1.0372,1.0646,1.0869,1.0659,1.0823,1.0917,1.1098,1.1041,1.1034,1.136,1.1428,1.1446,1.1325,1.1458,1.181,1.2041,1.2133,1.1918,1.1825,1.1804,1.188,1.1743,1.1415,1.1539,1.1397,1.1178,1.094,1.1012,1.1071,1.0692,1.0207,1.0229,1.018,1.0299,0.98825,0.96013,0.95584,0.94402,0.93684,0.94304,0.95314,0.94136,0.93438,0.93623,0.96372,0.97406,0.93409,0.92904,0.93736,0.97156,0.96908,0.95115,0.92628,0.93235,0.94835,0.95481,0.94015,0.95058,0.95942,0.96593,0.95805,0.96294,0.95809,0.97448,0.95895,0.95478,0.97946,0.98759,0.96296,0.9689,0.96006,0.93984,0.94012,0.95023,0.9643,0.95785,0.96529,0.94523,0.94033,0.93867,0.93049,0.94378,0.95297,0.96239,0.95916,0.96205,0.94125,0.94273,0.93555,0.938,0.93554,0.95205,0.94554,0.96294,0.94909,0.92097,0.92543,0.93897,0.94841,0.9312,0.9339,0.94081,0.94107,0.94137,0.93215,0.94377,0.93502,0.94082,0.94002,0.93585,0.93372,0.9432,0.94524,0.91758,0.91075,0.93275,0.95082,0.93494,0.92255,0.92559,0.92685,0.92531,0.92643,0.93607,0.96949,0.95673,0.95761,0.96939,0.97477,0.96285,0.98612,0.9935,0.96907,0.96958,0.97346,0.96883,0.99092,0.98186,0.99506,0.9906,0.95578,0.92659,0.91231,0.92711,0.93354,0.94009,0.91066,0.91166,0.90979,0.93403,0.94178,0.93189,0.89209,0.86879,0.93835,1.0356,1.2174,1.4711,1.7484,1.8752,1.8853,1.4966,1.2008,1.0652,0.93655,0.79121,0.78659,0.85739,0.94017,0.96174,0.93622,0.9323,0.91943,0.92599,0.91564,0.92984,0.92475,0.92768,0.93459,0.94773,0.92048,0.91679,0.91208,0.93368,0.95973,0.97028,0.94673,0.95401,0.94492,0.92133,0.91658,0.96189,0.97313,0.96022,0.95294,0.95972,0.95954,0.96094,0.97246,0.97713,0.98329,0.99903,1.0185,1.0446,1.0451,1.0359,1.0405,1.079,1.0733,1.0706,1.0586,1.0756,1.0935,1.089,1.1122,1.1163,1.1188,1.1255,1.1446,1.1514,1.1522,1.1671,1.1529,1.1198,1.126,1.1031,1.0948,1.1052,1.0869,1.0737,1.0598,1.0314,1.0255,1.0039,0.98011,0.96333,0.95185,0.95677,0.95369,0.94836,0.96139,0.94505,0.93455,0.91699,0.91334,0.92034,0.89657,0.88913,0.90048,0.91471,0.91049,0.89438,0.90359,0.91447,0.9203,0.91939,0.93037,0.92351,0.91145,0.92046,0.92972,0.92491,0.93131,0.93914,0.93523,0.9447,0.95596,0.94923,0.9478,0.93007,0.92602,0.92814,0.9358,0.94662,0.94485,0.93126,0.93587,0.93209,0.90635,0.9115,0.90448,0.90866,0.91948,0.91713,0.91381,0.90066,0.90291,0.90664,0.92473,0.93001,0.92261,0.92313,0.9112,0.90359,0.8968,0.90293,0.92425,0.93887,0.94837,0.95673,0.95824,0.94839,0.94858,0.94955,0.96294,0.98013,0.95362,0.94185,0.95746,0.97074,0.95641,0.94076,0.92197,0.92104,0.90967,0.92415,0.90295,0.87701,0.89213,0.89401,0.88268,0.87717,0.88411,0.89997,0.89097,0.88369,0.8727,0.91336,1.0079,1.142,1.3335,1.5402,1.7453,1.7462,1.3637,1.1256,1.0599,0.93471,0.80453,0.72718,0.7688,0.80386,0.90312,0.90452,0.882,0.88816,0.87859,0.87603,0.87867,0.87949,0.88651,0.88807,0.89801,0.90028,0.90035,0.90399,0.91687,0.92264,0.89358,0.87564,0.89514,0.91529,0.91764,0.92995,0.91317,0.93053,0.92625,0.93431,0.92396,0.9409,0.94717,0.96252,0.95603,0.96104,0.9681,0.98419,0.98184,1.001,1.0249,1.0361,1.0434,1.0402,1.0502,1.0558,1.0603,1.0631,1.0829,1.0997,1.0928,1.0871,1.0956,1.1146,1.1046,1.0897,1.1103,1.0938,1.0777,1.0818,1.0976,1.0849,1.0592,1.0307,1.0313,1.0336,1.0293,1.004,0.96797,0.95396,0.94483,0.9333,0.94006,0.92882,0.91335,0.89175,0.89756,0.89974,0.88445,0.87412,0.90059,0.90008,0.88484,0.88311,0.89312,0.89753,0.89499,0.89248,0.88875,0.90474,0.8993,0.91655,0.91281,0.89644,0.90574,0.90973,0.90521,0.90659,0.9175,0.91021,0.92768,0.93675,0.94185,0.93857,0.94207,0.92449,0.92003,0.90325,0.89786,0.92123,0.91552,0.90895,0.89983,0.89267,0.89009,0.89913,0.90397,0.90605,0.89371,0.91902,0.9176,0.93111,0.95106,0.94267,0.93095,0.93916,0.95547,0.95552,0.94716,0.94917,0.9512,0.93996,0.93804,0.93703,0.93227,0.93859,0.9221,0.90206,0.89594,0.88384,0.87791,0.87577,0.89606,0.89991,0.89113,0.88798,0.9006,0.88623,0.86444,0.8739,0.91727,1.0121,1.1874,1.4061,1.6053,1.7952,1.6877,1.307,1.0932,1.0037,0.89596,0.7538,0.73543,0.78934,0.88576,0.92172,0.90795,0.89231,0.90321,0.89279,0.87915,0.89091,0.89936,0.90047,0.88886,0.90841,0.88384,0.90349,0.89668,0.89642,0.89738,0.90572,0.90294,0.89195,0.90786,0.92272,0.9246,0.92903,0.93578,0.93364,0.94634,0.95449,0.93833,0.93867,0.95121,0.95357,0.96351,0.96959,0.98848,1.0024,0.99985,1.0134,1.0104,1.025,1.0485,1.0627,1.0655,1.0584,1.0723,1.0864,1.0737,1.0721,1.0956,1.0907,1.0968,1.1092,1.1031,1.1019,1.1013,1.1157,1.097,1.0798,1.0761,1.0599,1.0335,1.0059,0.99197,0.98935,0.96046,0.97365,0.95361,0.94307,0.92322,0.92231,0.90765,0.90225,0.90161,0.88616,0.89297,0.90288,0.88043,0.87876,0.8924,0.88215,0.88363,0.87605,0.88598,0.89406,0.89516,0.88012,0.89926,0.90223,0.89546,0.90241,0.9275,0.9152,0.91191,0.92073,0.93003,0.93349,0.94144,0.92581,0.91424,0.89978,0.90806,0.91157,0.9122,0.91305,0.91496,0.91556,0.92098,0.9195,0.91915,0.92824,0.92068,0.91364,0.91076,0.9022,0.88809,0.89682,0.93223,0.91821,0.91948,0.92316,0.92439,0.94413,0.95529,0.96512,0.9561,0.93084,0.93763,0.93298,0.94776,0.96391,0.95457,0.94305,0.91697,0.90033,0.88982,0.89134,0.90135,0.90586,0.90379,0.89186,0.91337,0.90983,0.89298,0.8827,0.87332,0.86706,0.87012,0.93817,1.0448,1.2298,1.4709,1.7085,1.9056,1.6423,1.237,1.0663,0.95198,0.84491,0.75934,0.78716,0.85116,0.90729,0.89447,0.90262,0.89557,0.90231,0.91327,0.9243,0.89807,0.89677,0.91834,0.91015,0.90997,0.90419,0.90819,0.91929,0.91684,0.92052,0.91432,0.92693,0.93527,0.93173,0.91737,0.92745,0.93512,0.94657,0.94362,0.94512,0.94379,0.95324,0.95904,0.97343,0.98719,0.99848,1.0004,1.0092,1.0165,1.0193,1.0376,1.0444,1.0587,1.0716,1.0755,1.0803,1.0918,1.1122,1.1056,1.097,1.1072,1.1264,1.1151,1.108,1.1311,1.1289,1.1343,1.1368,1.1298,1.1355,1.1105,1.0956,1.0852,1.0648,1.0483,1.0265,1.0218,1.0086,0.99345,0.96081,0.96217,0.96091,0.94489,0.93921,0.93178,0.92557,0.92783,0.94129,0.94789,0.93043,0.9271,0.92594,0.91308,0.93071,0.91801,0.91697,0.91442,0.9171,0.91987,0.92546,0.93194,0.93577,0.93725,0.94269,0.95458,0.946,0.95479,0.9549,0.95851,0.95325,0.95976,0.95959,0.95967,0.95156,0.94368,0.96051,0.96904,0.94075,0.94683,0.94853,0.94745,0.93765,0.93502,0.93286,0.93606,0.93712,0.93916,0.92839,0.9357,0.93518,0.93896,0.94364,0.94587,0.93578,0.92272,0.91364,0.91106,0.9154,0.92529,0.92821,0.92806,0.92414,0.92394,0.93239,0.9319,0.94944,0.97414,0.98422,0.97752,0.97583,0.98354,0.99081,0.99005,0.99046,0.98602,0.98564,0.99113,0.98173,0.97029,0.97199,0.96545,0.9453,0.93714,0.91618,0.91946,0.91727,0.92978,0.92437,0.92524,0.93145,0.93794,0.94084,0.92047,0.90399,0.94483,1.077,1.2465,1.3633,1.6112,1.8602,1.987,1.6257,1.2145,1.0526,0.91407,0.82305,0.80291,0.86019,0.94854,0.96743,0.94777,0.95597,0.9389,0.94945,0.92592,0.9396,0.93769,0.95662,0.94269,0.96115,0.95855,0.9784,0.94887,0.95773,0.9539,0.96313,0.9538,0.97322,0.96011,0.97921,0.97487,0.98481,0.97619,0.98787,0.98485,0.99803,1.0041,1.007,1.0065,1.0215,1.0285,1.0371,1.0353,1.0538,1.061,1.0803,1.0862,1.0879,1.1028,1.1226,1.1147,1.1192,1.1299,1.1357,1.1536,1.1608,1.167,1.1563,1.1586,1.1817,1.1896,1.1861,1.188,1.1811,1.1809,1.1674,1.1602,1.155,1.1405,1.1138,1.1006,1.0693,1.067,1.0477,1.0242,1.0091,1.0032,0.98434,0.98326,0.98936,0.98591,0.9596,0.96759,0.95242,0.94788,0.9456,0.97075,0.95826,0.95775,0.9517,0.9476,0.94694,0.95425,0.95273,0.96051,0.95938,0.96174,0.95166,0.95637,0.96043,0.97087,0.96554,0.97073,0.97886,0.97842,0.97435,0.99364,0.97453,0.98243,0.97462,0.95554,0.96009,0.9753,0.9744,0.96511,0.96421,0.9614,0.96734,0.95895,0.95124,0.94852,0.95895,0.94846,0.95435,0.9553,0.95454,0.9466,0.94125,0.94862,0.94969,0.94153,0.946,0.94445,0.94112,0.94916,0.95921,0.94613,0.93753,0.94287,0.93498,0.93287,0.94571,0.95332,0.9466,0.93533,0.93124,0.94213,0.94111,0.94588,0.95559,0.98319,0.98398,0.98818,0.99323,0.98351,0.98513,0.9955,1.0017,0.99635,0.99226,0.98695,0.99543,1.0003,0.98588,0.97927,0.96303,0.93742,0.93098,0.93122,0.93693,0.93276,0.93114,0.92464,0.93117,0.9215,0.91949,0.91719,0.90294,0.8866,0.90054,0.94495,1.0632,1.2674,1.5634,1.8502,2.0547,1.721,1.2733,1.0798,0.90966,0.81196,0.80323,0.87963,0.96888,0.96054,0.9292,0.94362,0.9295,0.92872,0.91762,0.9272,0.93301,0.93488,0.92437,0.92828,0.92049,0.91708,0.92041,0.93189,0.92116,0.93082,0.93506,0.94363,0.93668,0.9524,0.95173,0.94889,0.95037,0.97347,0.97608,0.97348,0.97169,0.99175,1.0042,1.0058,1.0061,1.0024,1.0217,1.0301,1.0416,1.0551,1.0659,1.0668,1.0715,1.0803,1.0979,1.1179,1.1275,1.127,1.1277,1.1298,1.1358,1.146,1.1536,1.1568,1.1713,1.1761,1.1822,1.1845,1.1815,1.1517,1.1392,1.1239,1.1178,1.114,1.0899,1.0558,1.0434,1.0214,0.99986,0.98927,0.98096,0.97428,0.96978,0.95443,0.9426,0.93757,0.93074,0.93193,0.92771,0.93391,0.93368,0.94146,0.93704,0.9316,0.93351,0.93663,0.93475,0.93251,0.94126,0.94254,0.94727,0.94959,0.95495,0.94391,0.95113,0.94453,0.94483,0.95234,0.95251,0.95681,0.95406,0.95637,0.95977,0.94887,0.95013,0.94772,0.95314,0.95742,0.96583,0.95262,0.94876,0.94843,0.94588,0.93973,0.94771,0.9576,0.93926,0.93765,0.93435,0.93352,0.93283,0.92741,0.95186,0.93885,0.93183,0.93362,0.93566,0.93667,0.92899,0.93089,0.93538,0.93532,0.92687,0.9195,0.92025,0.93074,0.93928,0.94189,0.93983,0.93713,0.9271,0.91869,0.91641,0.92658,0.92909,0.94634,0.94536,0.93659,0.92182,0.91957,0.92363,0.93118,0.93813,0.95823,0.97709,0.9742,0.97404,0.97335,0.99797,1.0134,1.0135,0.99389,0.98527,0.97954,0.9887,0.98236,0.98167,0.9697,0.93449,0.90888,0.90267,0.90213,0.91528,0.91402,0.91259,0.93914,0.9528,0.94603,0.94758,0.94934,0.93747,0.91011,0.93234,1.0401,1.2008,1.4361,1.7061,1.9549,1.8539,1.4371,1.1764,1.1184,0.97644,0.82593,0.77528,0.81478,0.95859,0.97801,0.96203,0.98194,0.9763,0.95512,0.92596,0.93716,0.9385,0.92557,0.93401,0.9431,0.94822,0.94884,0.94496,0.94826,0.94276,0.95548,0.94762,0.95365,0.95333,0.97763,0.96754,0.97739,0.98698,0.99261,1.0021,1.0026,1.0024,1.0118,1.0075,1.0049,1.0194,1.0287,1.0316,1.0332,1.0538,1.0695,1.0857,1.1122,1.1314,1.1196,1.0984,1.1093,1.1067,1.1121,1.1251,1.1326,1.1403,1.1534,1.1584,1.1746,1.1688,1.1721,1.173,1.175,1.1819,1.1751,1.1578,1.155,1.1529,1.1372,1.1183,1.1041,1.0761,1.0497,1.0454,1.0374,1.0209,1.0085,0.99755,0.97677,0.9669,0.95917,0.94949,0.93736,0.94707,0.94095,0.93203,0.94634,0.9482,0.94937,0.96208,0.95892,0.94662,0.94636,0.94318,0.94802,0.95776,0.96916,0.97861,0.98104,0.97183,0.9605,0.97558,0.97618,0.99057,0.98738,0.97742,0.98339,0.98867,0.9916,0.99853,0.99911,0.98939,0.97568,1.0025,0.99389,0.98473,1.0079,0.9856,0.98994,1.0101,1.0204,1.0178,1.0007,0.99889,0.99216,0.99999,1.0228,1.0364,1.0181,1.0081,1.0031,0.9992,0.98969,1.0182,1.0253,1.0286,1.0475,1.0584,1.046,1.0447,1.0404,1.0419,1.0346,1.031,1.015,1.0211,1.0126,1.0119,1.0076,0.99155,0.98559,0.95909,0.93898,0.89756,0.8969,0.89168,0.88287,0.88241,0.88851,0.89019,0.89732,0.91245,0.92871,0.9317,0.94087,0.94699,1.0051,1.1306,1.3131,1.559,1.7725,1.9413,1.7742,1.3547,1.1666,1.0958,0.99124,0.83728,0.77401,0.83257,0.92843,0.99652,0.9889,0.97813,0.97938,0.98306,0.98851,0.98641,0.98761,0.98865,0.98797,0.99384,0.99223,1.0003,1.0032,0.99991,0.99943,0.99904,1.0003,1.0032,1.0095,1.0206,1.0267,1.0314,1.0351,1.0387,1.049,1.0482,1.0566,1.0615,1.066,1.0707,1.075,1.0806,1.0876,1.0895,1.0924,1.1001,1.1095,1.116,1.1224,1.1281,1.1354,1.1393,1.1442,1.1518,1.1535,1.1581,1.1674,1.173,1.1773,1.1839,1.1889,1.1896,1.1883,1.1906,1.1873,1.1848,1.1763,1.1682,1.1589,1.139,1.1192,1.1027,1.0852,1.0773,1.0578,1.0457,1.0306,1.0214,1.0091,1.0047,1.0014,0.98827,0.98256,0.98462,0.98804,0.98843,0.98397,0.98173,0.98488,0.98695,0.9887,0.99235,0.99224,0.99412,0.99766,0.99782,1.0012,1.0105,1.0131,1.0119,1.0121,1.012,1.0147,1.0112,1.017,1.017,1.02,1.0125,1.0077,1.0071,1.0044,1.0011,0.99902,0.99501,0.99396,0.98893,0.98753,0.99174,0.98503,0.98421,0.98355,0.97963,0.9807,0.98469,0.97698,0.9755,0.97241,0.98302,0.99888,1.0074,1.0159,1.0198,1.0255,1.0209,1.0199,1.0081,0.9942,1.0095,1.029,1.0354,1.0262,1.0097,0.99039,0.97419,0.97116,0.96561,0.96838,0.97251,0.9755,0.98148,0.97885,0.97661,0.9814,0.97478,0.96597,0.93877,0.97472,1.0711,1.2411,1.5084,1.8084,2.0587,1.9898,1.5159,1.1591,1.0073,0.86422,0.81304,0.83511,0.97202,1.0283,1.0169,1.0035,0.9911,0.9923,0.99218,0.98671,0.97607,0.97249,0.97657,0.98011,0.98625,0.99028,0.9866,0.98814,0.99218,1.0004,0.99816,0.99923,1.0036,1.0026,0.99995,1.0141,1.0162,1.0193,1.0217,1.0279,1.0394,1.0342,1.0413,1.0513,1.056,1.0629,1.0677,1.0861,1.1,1.1069,1.107,1.114,1.1325,1.1439,1.152,1.1654,1.1672,1.1684,1.1856,1.1903,1.1902,1.201,1.1978,1.2064,1.214,1.2187,1.2229,1.2199,1.213,1.2114,1.199,1.1839,1.1695,1.1559,1.1443,1.1234,1.0969,1.07,1.0649,1.0554,1.0476,1.0386,1.0203,1.0096,1.0003,0.9958,0.99927,0.99363,0.98702,0.9856,0.98687,0.98662,0.98401,0.98204,0.98266,0.98524,0.98585,0.99143,0.98866,0.99214,0.9974,1.004,0.99669,0.99948,1.0005,0.99798,1.0069,1.0027,1.0004,1.0045,1.0024,1.0053,1.0098,1.0083,1.0053,1.0013,0.99938,1.0036,1.0022,1.0001,1.0007,0.99296,0.99066,0.98282,0.98978,0.99121,0.99318,1.0023,1.0063,1.0124,1.0098,1.0281,1.0205,1.012,1.0136,0.99826,1.0222,1.0346,1.0369,1.0333,1.0194,1.0032,0.98631,0.9822,0.96928,0.96734,0.97236,0.97335,0.97396,0.97875,0.97845,0.98055,0.97911,0.96546,0.95061,0.97306,1.0689,1.2272,1.4861,1.651,1.93,2.0856,1.7682,1.3112,1.1007,0.97997,0.83698,0.80565,0.82865,0.98842,1.0243,1.0063,0.98715,0.97685,0.98115,0.98245,0.98349,0.98653,0.98746,0.98451,0.9854,0.98921,0.99179,0.98723,0.99171,0.99712,0.99289,0.99362,0.99949,0.9999,1.0006,1.0019,1.0151,1.0157,1.0206,1.0231,1.0277,1.0365,1.0543,1.0595,1.0664,1.0717,1.0797,1.0858,1.0954,1.1093,1.1218,1.1247,1.14,1.1423,1.1576,1.1663,1.1774,1.1858,1.1857,1.1944,1.2044,1.2094,1.2167,1.2194,1.2218,1.2279,1.2263,1.23,1.2267,1.2247,1.2146,1.2076,1.196,1.177,1.1556,1.1389,1.1177,1.0894,1.0759,1.0659,1.0458,1.0263,1.0177,1.0095,1.0061,0.99283,0.98815,0.97888,0.97755,0.98307,0.98111,0.98094,0.97959,0.98514,0.98491,0.98711,0.99153,0.99209,0.99974,1.0018,1.0021,1.0031,1.005,1.0116,1.0132,1.016,1.0194,1.024,1.0145,1.0143,1.0165,1.0134,1.0152,1.0147,1.0101,1.0052,1.0045,1.0104,1.0116,1.0077,1.018,1.0235,1.0282,1.0246,1.0299,1.0399,1.0416,1.0358,1.018,1.0115,1.0265,1.0367,1.0383,1.0336,1.0166,0.99476,0.98062,0.97174,0.96257,0.96845,0.97306,0.97571,0.97633,0.97392,0.97356,0.97903,0.9762,0.96906,0.94893,0.97275,1.0546,1.2051,1.4392,1.7412,1.9961,1.9873,1.5731,1.1747,1.0525,0.93331,0.81007,0.79398,0.85664,1.0024,1.0042,0.98694,0.98224,0.97489,0.97796,0.96961,0.97287,0.96709,0.97451,0.97197,0.97681,0.96681,0.98083,0.98016,0.98511,0.98217,0.99058,0.9891,0.99048,0.99072,0.99294,0.99303,1.0038,1.0006,1.0114,1.0106,1.0224,1.0262,1.0384,1.0441,1.0549,1.061,1.0709,1.0746,1.0871,1.0947,1.1113,1.1243,1.1332,1.1406,1.147,1.1515,1.1562,1.1674,1.1748,1.1837,1.1844,1.1916,1.1977,1.2045,1.2062,1.2062,1.2077,1.2125,1.2112,1.2018,1.193,1.1857,1.1729,1.1585,1.133,1.1233,1.1032,1.0839,1.0657,1.0476,1.0301,1.0102,1.002,1,0.99007,0.98423,0.97596,0.9733,0.96821,0.97101,0.96763,0.97171,0.97273,0.97696,0.97837,0.9809,0.97999,0.98561,0.99009,0.99049,0.99241,0.99787,0.99539,0.9948,0.99793,0.99982,0.99897,0.99983,1.0007,1.0014,0.99763,0.99926,1.0021,0.99538,0.98981,0.985,0.9798,0.98365,0.9883,0.99238,1.0005,1.0087,1.0119,1.0201,1.0242,1.034,1.0332,1.0169,0.99998,1.0109,1.0222,1.0287,1.0302,1.0146,0.99338,0.97329,0.96239,0.93639,0.90514,0.891,0.92303,0.95775,0.96713,0.95948,0.96564,0.98026,0.98263,0.97232,0.96045,0.99004,1.0945,1.2753,1.5478,1.8493,2.0543,1.8665,1.6297,1.2187,1.0461,0.95268,0.80144,0.79967,0.82841,1.0069,1.0041,0.99161,0.96874,0.97295,0.95939,0.96982,0.96024,0.96835,0.96251,0.97628,0.97374,0.98221,0.9775,0.98388,0.98017,0.98865,0.9873,0.993,0.99002,0.994,0.99738,1.0051,1.0093,1.0125,1.0118,1.0223,1.0232,1.0342,1.0447,1.058,1.065,1.0721,1.0815,1.0879,1.0958,1.1034,1.1169,1.1278,1.1385,1.1416,1.1508,1.1587,1.1688,1.1732,1.182,1.1866,1.1905,1.1963,1.2049,1.2053,1.2115,1.2127,1.2179,1.2145,1.2159,1.2081,1.2026,1.1893,1.1746,1.1553,1.1418,1.1173,1.1008,1.0748,1.0616,1.0421,1.028,1.0138,1.0048,0.98953,0.99232,0.98967,0.98881,0.98441,0.98907,0.97895,0.97882,0.9783,0.98416,0.98754,0.98979,0.98842,0.99531,0.99406,0.99963,1.0059,1.0047,1.0033,1.0069,1.0114,1.0105,1.0049,1.009,1.0091,1.0125,1.0103,1.0116,1.0073,1.0072,1.0095,1.0071,1.0093,1.0063,1.0045,1.0051,1.0038,1.0113,1.0165,1.032,1.0286,1.0292,1.0366,1.0485,1.0474,1.048,1.0308,1.0315,1.0413,1.055,1.0621,1.0455,1.0301,1.0069,0.99603,0.98444,0.98205,0.98644,0.98173,0.98405,0.99051,0.99082,0.99482,0.99057,0.99219,0.98968,0.97732,0.97802,1.0186,1.1312,1.3321,1.6244,1.9273,2.0851,1.7984,1.3381,1.1148,1.0029,0.87755,0.80354,0.83732,0.96785,1.0419,1.0122,1.002,0.99438,0.99577,0.99384,0.99401,0.99304,0.99462,0.99393,0.99981,0.99774,1.0029,0.99859,1.0028,1.0003,1.0071,1.0084,1.0146,1.0137,1.0208,1.0228,1.0309,1.0302,1.0357,1.0408,1.0451,1.0512,1.0622,1.071,1.0818,1.0839,1.0943,1.0991,1.1103,1.1181,1.1292,1.1388,1.1518,1.1614,1.1755,1.1811,1.1883,1.1924,1.1935,1.2001,1.2087,1.211,1.2105,1.2143,1.2157,1.2243,1.2283,1.2283,1.2258,1.2229,1.2209,1.2134,1.2035,1.1872,1.1729,1.1505,1.1289,1.1131,1.1028,1.0886,1.0738,1.0587,1.0477,1.0357,1.0245,1.0169,1.0061,1.0078,1.0078,1.007,1.0062,1.0082,1.0042,1.0092,1.0126,1.0197,1.0223,1.0262,1.0299,1.0325,1.0351,1.0394,1.0393,1.0463,1.041,1.038,1.036,1.0317,1.0332,1.0352,1.0306,1.0235,1.0264,1.0303,1.0294,1.0219,1.0187,1.013,1.0082,1.0075,1.0102,1.0195,1.0291,1.0353,1.0385,1.0441,1.0462,1.0543,1.0633,1.0388,1.0385,1.0497,1.0621,1.067,1.0513,1.0381,1.0164,0.99777,0.98929,0.98502,0.98539,0.9865,0.98217,0.98398,0.98856,0.98999,0.99466,0.99768,0.99248,0.98658,0.98066,1.0173,1.1146,1.2792,1.5268,1.8173,2.0323,1.8957,1.468,1.2606,1.0953,1.0023,0.89661,0.78644,0.82592,0.9208,1.0264,1.0076,1.0012,0.98809,0.99277,0.99402,0.99741,0.98995,0.99199,0.99242,0.99793,0.99644,1.0009,0.99838,1.0008,1.0012,1.0032,1.0083,1.0074,1.0091,1.0154,1.0223,1.0221,1.0261,1.029,1.0358,1.0404,1.0451,1.0539,1.0592,1.0735,1.0779,1.0866,1.0952,1.0998,1.1033,1.1154,1.1264,1.1353,1.1445,1.1503,1.1592,1.1645,1.1809,1.1839,1.1833,1.1876,1.1925,1.1921,1.1995,1.2065,1.2115,1.2115,1.2069,1.2037,1.2015,1.194,1.1869,1.1749,1.1612,1.1445,1.1337,1.111,1.0957,1.0753,1.0618,1.0466,1.0313,1.0155,1.0048,0.99949,0.99601,0.99353,0.98662,0.98357,0.9812,0.98433,0.98545,0.98814,0.9903,0.99246,0.99362,0.99425,0.99763,0.99957,1.0071,1.0098,1.0138,1.0109,1.0182,1.0128,1.0131,1.011,1.0074,1.0085,1.0055,1.003,1.0016,0.99987,1.0022,0.99662,0.98944,0.98466,0.98455,0.98104,0.98255,0.98816,0.99546,1.0113,1.0147,1.0143,1.012,1.028,1.0332,1.0243,1.0129,1.0114,1.0175,1.0366,1.0416,1.0262,1.0112,0.98384,0.96659,0.95673,0.95576,0.95314,0.95193,0.95242,0.95754,0.95936,0.95526,0.95729,0.95663,0.95341,0.95081,0.93565,0.96159,1.0505,1.2132,1.4581,1.7738,2.0278,1.9503,1.513,1.123,1.0026,0.87701,0.76977,0.78264,0.86791,0.99161,0.98196,0.96363,0.97136,0.96826,0.95828,0.94635,0.94692,0.95153,0.95126,0.95166,0.95793,0.95935,0.96821,0.9627,0.95965,0.96642,0.97489,0.9717,0.97661,0.9701,0.976,0.98238,0.988,0.98604,0.9928,1.0019,1.0116,1.0201,1.025,1.033,1.0457,1.0498,1.0572,1.0665,1.0744,1.0822,1.0948,1.1017,1.1135,1.121,1.1324,1.1415,1.1449,1.1471,1.1503,1.1593,1.1639,1.1626,1.1665,1.1783,1.1816,1.1808,1.1822,1.1785,1.1758,1.1674,1.1669,1.154,1.1365,1.1185,1.1044,1.0837,1.0618,1.0452,1.0379,1.0174,1.0035,0.98776,0.97097,0.96207,0.95764,0.94883,0.94962,0.94231,0.94624,0.94289,0.93689,0.93965,0.94046,0.94255,0.94549,0.95003,0.95127,0.95011,0.95519,0.9599,0.95882,0.96199,0.9596,0.96359,0.96438,0.96506,0.96478,0.96827,0.96636,0.96126,0.96003,0.96239,0.9593,0.95927,0.95486,0.95139,0.9537,0.95018,0.95029,0.94818,0.93872,0.93718,0.935,0.93876,0.93883,0.93812,0.94057,0.95557,0.96844,0.97573,0.97794,0.98338,0.99676,0.99255,0.97217,0.97148,0.98141,0.99846,0.99269,0.98422,0.98129,0.96752,0.93582,0.92731,0.92013,0.9166,0.91726,0.91629,0.92085,0.92791,0.92772,0.92183,0.92209,0.9239,0.91391,0.90077,0.93652,1.0358,1.2074,1.3278,1.6228,1.9147,1.9954,1.6511,1.1982,1.0322,0.9292,0.81393,0.74222,0.78298,0.90984,0.9723,0.94585,0.94056,0.9314,0.93966,0.93448,0.93915,0.9286,0.93539,0.92589,0.94133,0.93407,0.94114,0.93726,0.94878,0.94614,0.9541,0.94789,0.95041,0.95134,0.95527,0.95962,0.96562,0.96705,0.96967,0.97481,0.98194,0.98449,0.98904,0.99529,1.0038,1.0141,1.0216,1.0293,1.0425,1.049,1.0588,1.0643,1.0718,1.0807,1.0877,1.0922,1.1015,1.108,1.1175,1.1282,1.1345,1.1352,1.1382,1.1379,1.138,1.1546,1.1563,1.1593,1.1512,1.1492,1.1431,1.1408,1.1324,1.1249,1.1146,1.0931,1.072,1.0517,1.0289,1.0104,0.99714,0.98578,0.97512,0.97,0.95945,0.95401,0.9523,0.95219,0.94631,0.93931,0.93604,0.9426,0.94655,0.95276,0.95399,0.96676,0.96538,0.96631,0.96161,0.97162,0.97507,0.97726,0.98109,0.98061,0.97686,0.97949,0.98556,0.98589,0.99029,0.98481,0.98028,0.97334,0.98373,0.98807,0.97852,0.97322,0.96425,0.96695,0.96459,0.96298,0.96313,0.96981,0.96201,0.96783,0.97956,0.99235,0.99577,0.99292,1.0002,1.012,1.0141,1.0152,0.99926,0.9978,1.0075,1.016,1.0197,1.0097,0.9949,0.97973,0.96052,0.95689,0.94945,0.94919,0.9395,0.94356,0.94377,0.95817,0.95861,0.96192,0.95543,0.95703,0.95912,0.95816,0.99669,1.1134,1.3001,1.5689,1.8207,1.9583,1.7312,1.3077,1.0757,1.0335,1.002,0.88,0.76135,0.78528,0.87069,0.98207,0.98603,0.96309,0.9721,0.95923,0.97097,0.96823,0.97856,0.96783,0.98295,0.97561,0.98178,0.97754,0.99066,0.97922,0.98771,0.98651,1.0014,0.99789,1.0001,0.99602,1.0087,1.002,1.0114,1.0092,1.0174,1.0213,1.0207,1.0307,1.0379,1.0445,1.0587,1.0631,1.0756,1.0759,1.0796,1.0838,1.0966,1.1011,1.1045,1.1103,1.1251,1.1292,1.1399,1.1439,1.1469,1.1593,1.1501,1.1522,1.1635,1.168,1.1794,1.1787,1.1801,1.1673,1.1633,1.1614,1.1544,1.1448,1.1338,1.1144,1.0971,1.0915,1.0742,1.0644,1.0462,1.0284,1.0115,1.0049,0.99427,0.99432,0.98136,0.97833,0.97902,0.97026,0.96911,0.97628,0.97292,0.97791,0.98042,0.98022,0.97965,0.99531,0.99992,1.0017,0.9987,1.0026,0.99976,1.0007,1.0111,1.0149,1.0125,1.0186,1.0127,1.0133,1.0145,1.01,1.0064,1.0044,1.0045,1.0048,1.0066,1.0035,0.99717,0.99225,0.98993,0.99064,0.99262,1.012,1.0253,1.0157,1.022,1.0327,1.0425,1.0479,1.036,1.029,1.0128,1.0239,1.0378,1.0448,1.0415,1.0259,1.0033,0.99255,0.97545,0.9704,0.96958,0.97455,0.9768,0.97274,0.97635,0.97448,0.98714,0.98628
