8.4698,8.0088,7.2009,6.9477,6.9243,6.9051,6.9272,6.9155,6.9399,6.9476,6.9628,6.9629,6.977,6.9596,6.9762,6.9643,6.9762,6.9563,6.9611,6.9389,6.9446,6.9307,6.927,6.9194,6.9347,6.9398,6.9353,6.9392,6.9427,6.9543,6.9661,6.9896,7.006,7.022,7.044,7.05,7.0717,7.091,7.113,7.1342,7.1609,7.1894,7.2045,7.2242,7.2368,7.2572,7.2654,7.2788,7.2791,7.2823,7.2816,7.2824,7.264,7.2467,7.2176,7.214,7.1904,7.1657,7.1388,7.1097,7.0787,7.0617,7.0468,7.0271,7.007,6.9962,6.994,6.9898,6.9856,6.9881,6.9778,6.9757,6.9787,6.9789,6.9679,6.9755,6.9731,6.984,6.9872,6.9898,6.978,6.9733,6.9768,6.976,6.9767,6.9615,6.9675,6.9688,6.9632,6.9693,6.9585,6.9514,6.9604,6.9596,6.9571,6.958,6.9585,6.959,6.951,6.9535,6.9468,6.9428,6.9437,6.9438,6.9375,6.9417,6.9374,6.9369,6.9386,6.9358,6.9282,6.9267,6.9217,6.916,6.9268,6.92,6.9233,6.9202,6.9233,6.9233,6.9213,6.9281,6.929,6.9347,6.9358,6.9317,6.9303,6.9309,6.9442,6.9496,6.9409,6.9362,6.94,6.9483,6.9488,6.9477,6.956,6.9608,6.9616,6.9649,6.9581,6.9612,6.9597,6.9602,6.9704,6.9625,6.9806,6.9935,7.0014,7.0352,7.0516,7.0381,7.0357,7.0235,7.0123,7.0056,7.005,6.9968,6.976,6.9689,6.9584,6.9539,6.9487,6.9434,6.9434,6.9323,6.9266,6.9215,6.9234,6.9249,6.9254,6.9152,6.8637,6.7247,6.6894,6.8685,7.0381,7.1816,7.6831,8.1056,8.2869,8.4268,7.9302,7.1492,6.9371,6.8908,6.8769,6.8902,6.8802,6.8983,6.9007,6.9333,6.9222,6.9358,6.9308,6.9375,6.9263,6.9225,6.9191,6.9164,6.9092,6.895,6.8757,6.8704,6.8652,6.8743,6.8753,6.8856,6.8878,6.9062,6.9073,6.9296,6.9263,6.9445,6.9704,6.9915,7.0092,7.0256,7.0316,7.0626,7.0885,7.1101,7.1329,7.145,7.1703,7.1872,7.1917,7.1983,7.2028,7.2133,7.2201,7.2114,7.2199,7.2074,7.2053,7.178,7.1447,7.1082,7.091,7.0645,7.0402,7.0231,6.9997,6.9743,6.9602,6.9411,6.9386,6.9263,6.914,6.9112,6.9137,6.9079,6.9088,6.9036,6.9067,6.9129,6.9183,6.9193,6.9141,6.9152,6.92,6.9231,6.9119,6.9061,6.9156,6.9074,6.9039,6.905,6.8946,6.8876,6.8821,6.8809,6.86,6.8514,6.8525,6.8558,6.8553,6.8445,6.8413,6.8324,6.8306,6.8236,6.8223,6.8191,6.818,6.8133,6.8154,6.813,6.8167,6.8131,6.8081,6.8059,6.803,6.7987,6.7999,6.7971,6.801,6.8044,6.7953,6.7938,6.7999,6.792,6.7901,6.7929,6.784,6.7886,6.7899,6.7878,6.7893,6.7834,6.7754,6.7734,6.7807,6.7647,6.7687,6.7658,6.7718,6.775,6.7731,6.7709,6.7707,6.7766,6.7744,6.7744,6.7786,6.7732,6.7669,6.7764,6.7715,6.7704,6.7604,6.7633,6.7758,6.7578,6.7739,6.7756,6.7886,6.8331,6.8545,6.843,6.8247,6.8289,6.833,6.8243,6.8107,6.8001,6.7854,6.7648,6.7583,6.7609,6.7481,6.7374,6.7331,6.7387,6.7324,6.7234,6.7173,6.7214,6.7152,6.7095,6.6904,6.5965,6.4636,6.5573,6.7779,6.993,7.458,7.876,8.0666,8.2125,7.7439,6.977,6.7498,6.6974,6.6823,6.7006,6.6962,6.7166,6.7184,6.7425,6.7462,6.7547,6.7545,6.7618,6.7486,6.7497,6.7457,6.7433,6.7289,6.7271,6.7077,6.7092,6.7081,6.7175,6.7181,6.73,6.7289,6.7385,6.7532,6.7655,6.777,6.7823,6.7856,6.8024,6.8309,6.8433,6.868,6.8843,6.9103,6.9327,6.9626,6.9862,6.9992,7.026,7.0482,7.0634,7.0642,7.0737,7.08,7.0873,7.0851,7.0786,7.0749,7.0616,7.0412,7.021,6.987,6.9558,6.9312,6.9012,6.8793,6.8516,6.8384,6.8258,6.8182,6.8049,6.7993,6.7901,6.7924,6.7898,6.7912,6.7916,6.7882,6.7918,6.7933,6.7978,6.8023,6.7979,6.8049,6.811,6.807,6.8055,6.8112,6.8113,6.8103,6.8115,6.811,6.8044,6.8062,6.8033,6.8103,6.7942,6.7895,6.7881,6.7978,6.8027,6.8033,6.7975,6.7842,6.7859,6.7826,6.7825,6.7772,6.7749,6.7704,6.775,6.7775,6.7798,6.7734,6.7706,6.7731,6.7719,6.7711,6.7682,6.7611,6.7677,6.7655,6.7597,6.7577,6.759,6.7617,6.757,6.7652,6.7625,6.7697,6.7715,6.7691,6.7615,6.7634,6.763,6.7652,6.7683,6.7693,6.7724,6.7733,6.7823,6.7899,6.7931,6.8002,6.7931,6.7946,6.802,6.7987,6.7923,6.7935,6.8044,6.8116,6.8115,6.8067,6.8229,6.8356,6.8406,6.8709,6.881,6.8747,6.8679,6.8528,6.8536,6.8608,6.8512,6.8444,6.8209,6.8089,6.7995,6.7932,6.7905,6.7848,6.7699,6.7722,6.7629,6.7623,6.7586,6.7563,6.7502,6.7335,6.6509,6.5051,6.5611,6.7929,6.9926,7.4145,7.8648,8.0576,8.2002,7.8264,7.054,6.7886,6.7265,6.7167,6.7291,6.7125,6.7302,6.7263,6.7561,6.757,6.7718,6.7757,6.787,6.7784,6.7826,6.7643,6.7639,6.7639,6.7608,6.7467,6.742,6.7281,6.7324,6.7305,6.742,6.7419,6.7578,6.7646,6.7847,6.7826,6.7929,6.8013,6.8261,6.8514,6.8603,6.8774,6.9011,6.9289,6.9551,6.9768,7.0019,7.0258,7.0465,7.0615,7.0813,7.0929,7.0956,7.1009,7.1073,7.1044,7.1015,7.0953,7.082,7.0565,7.0269,6.9924,6.9632,6.9292,6.9003,6.8667,6.8402,6.8193,6.8055,6.7983,6.7832,6.7643,6.7582,6.7522,6.7482,6.7539,6.7515,6.7409,6.7356,6.7413,6.7493,6.7512,6.7473,6.7449,6.7396,6.7413,6.731,6.7387,6.7383,6.7538,6.7485,6.7417,6.7324,6.7313,6.7233,6.7214,6.7085,6.7126,6.7059,6.7126,6.7096,6.7136,6.7116,6.6986,6.6971,6.6937,6.6948,6.6915,6.6792,6.6778,6.6704,6.6668,6.6655,6.6623,6.658,6.6543,6.6517,6.6561,6.6507,6.6369,6.6308,6.629,6.6235,6.614,6.6094,6.6085,6.6065,6.6154,6.6144,6.6238,6.6231,6.6202,6.6256,6.6322,6.6405,6.6335,6.6311,6.6296,6.634,6.6403,6.6433,6.6501,6.655,6.654,6.6555,6.6665,6.6694,6.6755,6.6754,6.6788,6.692,6.7008,6.716,6.7183,6.7245,6.7409,6.7414,6.7444,6.7604,6.7587,6.7469,6.7521,6.7519,6.735,6.7183,6.7034,6.6989,6.6922,6.6901,6.6786,6.6813,6.6721,6.6616,6.6582,6.6563,6.6588,6.6593,6.6571,6.616,6.4845,6.4075,6.5916,6.7936,7.0766,7.59,7.8793,7.9971,8.048,7.3379,6.7746,6.6842,6.6234,6.6602,6.6532,6.6498,6.6513,6.6812,6.6929,6.7098,6.7194,6.7344,6.7215,6.7309,6.7211,6.7203,6.7048,6.6978,6.6764,6.6668,6.652,6.6356,6.6256,6.6377,6.634,6.6582,6.6565,6.6772,6.6927,6.7095,6.7245,6.7444,6.7607,6.7932,6.8127,6.8404,6.8653,6.896,6.9191,6.9541,6.9854,7.0131,7.0323,7.0533,7.0732,7.0739,7.0853,7.0896,7.0864,7.0898,7.0901,7.0694,7.0436,7.0152,6.9821,6.9476,6.9169,6.8871,6.8612,6.8382,6.8165,6.8012,6.7844,6.7725,6.7735,6.7638,6.7641,6.7613,6.7637,6.7643,6.7651,6.7552,6.7563,6.7542,6.7556,6.7587,6.7593,6.7676,6.7778,6.777,6.7722,6.7657,6.7605,6.7555,6.7622,6.7561,6.755,6.7489,6.7501,6.743,6.7368,6.7253,6.7216,6.7144,6.7237,6.7165,6.7141,6.702,6.6938,6.6899,6.6897,6.6788,6.6666,6.6624,6.6723,6.6712,6.6668,6.6611,6.6506,6.6537,6.6503,6.6397,6.627,6.6157,6.6249,6.6316,6.6308,6.6229,6.6152,6.6201,6.6215,6.6329,6.644,6.6397,6.6484,6.66,6.6724,6.6769,6.6775,6.6825,6.6903,6.6923,6.7039,6.7078,6.7114,6.7165,6.7259,6.7392,6.7407,6.7401,6.7556,6.7699,6.7773,6.7858,6.7992,6.8132,6.829,6.8391,6.8439,6.8616,6.8764,6.875,6.8651,6.8745,6.8738,6.872,6.8502,6.841,6.8386,6.8267,6.8263,6.8216,6.8162,6.8103,6.8007,6.7995,6.7982,6.787,6.7815,6.7469,6.6302,6.5488,6.5707,6.7967,7.0013,7.3609,7.8323,8.0129,8.1369,7.9135,7.1493,6.8056,6.7463,6.7121,6.7245,6.702,6.727,6.7225,6.7568,6.7698,6.8052,6.8176,6.8344,6.8224,6.8197,6.7958,6.7939,6.7738,6.7647,6.7293,6.7105,6.6915,6.6883,6.6783,6.687,6.687,6.7093,6.7237,6.7361,6.7459,6.7648,6.7836,6.7994,6.8265,6.852,6.8687,6.9076,6.9468,6.9859,7.0162,7.0441,7.0709,7.0967,7.1111,7.1253,7.1391,7.1478,7.1491,7.1514,7.1395,7.1249,7.1091,7.1235,7.0835,7.0468,7.0242,6.9814,6.9602,6.9222,6.8984,6.8624,6.8423,6.8254,6.8236,6.8103,6.8043,6.7935,6.8041,6.7911,6.7989,6.7927,6.787,6.7796,6.7846,6.7799,6.7881,6.7912,6.8012,6.8034,6.8135,6.8068,6.8054,6.8031,6.8034,6.8023,6.8048,6.7915,6.7949,6.79,6.7887,6.7846,6.777,6.7696,6.7736,6.7741,6.7658,6.7633,6.7548,6.7495,6.7516,6.7468,6.7466,6.735,6.7343,6.7287,6.7289,6.7234,6.7237,6.7119,6.7146,6.7124,6.7197,6.7085,6.703,6.6976,6.7003,6.7045,6.7024,6.6972,6.7055,6.7143,6.7236,6.7303,6.7375,6.7304,6.7314,6.7455,6.7519,6.7611,6.7619,6.7612,6.7743,6.7691,6.7748,6.7783,6.7865,6.7909,6.7908,6.7927,6.8022,6.8158,6.8166,6.8135,6.8079,6.8191,6.8225,6.8352,6.8286,6.837,6.8449,6.8494,6.8551,6.8688,6.856,6.8665,6.8832,6.8803,6.8654,6.8633,6.8603,6.8595,6.8426,6.823,6.813,6.8093,6.8131,6.8131,6.8101,6.7971,6.7837,6.7908,6.7871,6.7863,6.7777,6.7532,6.7049,6.564,6.5752,6.821,7.0222,7.3909,7.8476,8.0332,8.1553,7.956,7.1991,6.8681,6.7915,6.7716,6.7928,6.7763,6.7934,6.8066,6.8336,6.856,6.8795,6.8971,6.9132,6.9001,6.8892,6.8724,6.873,6.8588,6.8458,6.8084,6.7827,6.7649,6.7442,6.7258,6.7207,6.7078,6.7182,6.7103,6.7336,6.7493,6.7616,6.7805,6.8077,6.837,6.8729,6.9181,6.9624,7.0049,7.0358,7.0574,7.0878,7.1175,7.1498,7.1745,7.1976,7.214,7.2273,7.2307,7.2355,7.2298,7.2148,7.2114,7.2034,7.174,7.1467,7.1229,7.0906,7.0656,7.0385,7.0108,6.9843,6.9685,6.9513,6.9396,6.9209,6.9166,6.9159,6.9144,6.9139,6.9164,6.9053,6.9021,6.8989,6.8964,6.9021,6.9034,6.9063,6.9108,6.9188,6.9254,6.9208,6.9195,6.9156,6.9189,6.9176,6.9071,6.9025,6.9086,6.9131,6.9071,6.9011,6.8956,6.8921,6.8898,6.8873,6.8853,6.8801,6.8785,6.8765,6.8746,6.8717,6.8659,6.8658,6.8662,6.8628,6.8646,6.8715,6.8711,6.8685,6.8703,6.8682,6.8711,6.8751,6.8781,6.8816,6.8871,6.8869,6.8826,6.8783,6.8913,6.9003,6.9028,6.9184,6.9248,6.934,6.9439,6.9441,6.9575,6.9634,6.9731,6.9854,6.9911,7.0015,7.0138,7.027,7.0303,7.0427,7.0578,7.08,7.0934,7.0972,7.1103,7.1298,7.1455,7.1714,7.1901,7.2002,7.231,7.2495,7.2668,7.2867,7.2924,7.2904,7.2986,7.313,7.3089,7.3042,7.3003,7.3022,7.3018,7.3178,7.3212,7.312,7.3176,7.3306,7.3342,7.328,7.3261,7.3378,7.3324,7.2684,7.1278,7.1862,7.3181,7.5374,7.8164,8.2976,8.5794,8.6413,8.7028,8.0051,7.474,7.3664,7.2969,7.3032,7.2912,7.2866,7.2911,7.3086,7.3173,7.3287,7.3264,7.3253,7.3224,7.3238,7.3033,7.3039,7.2927,7.2749,7.2692,7.2573,7.2416,7.2207,7.2135,7.2074,7.2108,7.2197,7.2274,7.2349,7.2462,7.2615,7.2706,7.2831,7.2899,7.3178,7.3421,7.3713,7.3884,7.4057,7.4314,7.463,7.4785,7.4963,7.4967,7.5098,7.5344,7.5484,7.5551,7.5504,7.5493,7.5457,7.54,7.5123,7.4867,7.4686,7.4434,7.4167,7.383,7.3515,7.3114,7.2859,7.26,7.2267,7.2131,7.2037,7.1905,7.1822,7.1729,7.1611,7.1601,7.1627,7.1627,7.1512,7.1456,7.1381,7.1334,7.1364,7.137,7.1341,7.1364,7.1391,7.1519,7.1437,7.1385,7.1298,7.1279,7.1292,7.1319,7.1335,7.1223,7.1248,7.1216,7.1215,7.1132,7.1103,7.113,7.1168,7.1129,7.1047,7.098,7.0924,7.1028,7.1092,7.0977,7.0902,7.0817,7.0818,7.0878,7.0823,7.0828,7.0796,7.0813,7.0834,7.0678,7.0658,7.0664,7.0706,7.0691,7.0552,7.0504,7.0547,7.0565,7.0524,7.0567,7.0518,7.0405,7.0462,7.0528,7.0579,7.0648,7.0759,7.0769,7.0925,7.0978,7.0993,7.1084,7.116,7.1073,7.105,7.1104,7.0969,7.0762,7.0692,7.0711,7.0601,7.0591,7.0514,7.055,7.0503,7.0498,7.0507,7.0482,7.0515,7.0565,7.0405,7.0227,6.92,6.8217,6.967,7.2417,7.4975,7.9277,8.2163,8.2367,8.2871,7.6536,7.1572,7.0967,6.9968,7.0239,7.0213,7.039,7.03,7.0525,7.0603,7.0826,7.0758,7.095,7.0907,7.1038,7.0878,7.1062,7.1042,7.1095,7.1052,7.1036,7.093,7.0958,7.0865,7.0979,7.0974,7.1068,7.1152,7.1297,7.1403,7.1486,7.1514,7.1639,7.1907,7.213,7.2243,7.2449,7.2592,7.2849,7.3094,7.3325,7.3529,7.3732,7.3894,7.3981,7.4152,7.4208,7.4271,7.4324,7.439,7.4302,7.4266,7.4057,7.3889,7.3527,7.3238,7.2932,7.2633,7.2304,7.2012,7.18,7.1626,7.1238,7.1114,7.1032,7.0989,7.0861,7.075,7.0754,7.0718,7.0673,7.0687,7.0617,7.0723,7.07,7.0665,7.0564,7.0627,7.0676,7.0754,7.084,7.0769,7.0627,7.0623,7.0665,7.0811,7.0822,7.0838,7.0693,7.0795,7.0752,7.0653,7.0631,7.0663,7.0735,7.0785,7.0762,7.0715,7.0539,7.0564,7.0575,7.0528,7.0424,7.0348,7.0339,7.0387,7.0404,7.033,7.0292,7.0363,7.053,7.0557,7.055,7.0593,7.0733,7.1024,7.1085,7.1152,7.1139,7.0955,7.0751,7.055,7.0377,7.0305,7.0167,7.0227,7.0149,7.0089,7.0199,7.0195,7.017,7.0218,7.0173,7.0188,7.0159,7.0157,7.0159,6.9871,6.8711,6.7962,6.9752,7.1907,7.4613,7.9765,8.2634,8.345,8.394,7.6494,7.0993,7.0085,6.9616,6.9907,6.9766,6.9873,6.9824,7.003,7.0138,7.0406,7.0391,7.0553,7.0534,7.0616,7.0516,7.0637,7.0521,7.0561,7.047,7.0518,7.0325,7.034,7.0214,7.0211,7.0242,7.0312,7.0381,7.0472,7.0517,7.0764,7.0828,7.0988,7.1231,7.1471,7.1672,7.1868,7.2192,7.2479,7.2718,7.3015,7.3341,7.363,7.3844,7.406,7.4157,7.4278,7.4326,7.4376,7.4434,7.4325,7.4275,7.3986,7.3693,7.3399,7.3096,7.2807,7.2487,7.2179,7.2047,7.1791,7.1583,7.1437,7.137,7.1233,7.1211,7.1179,7.1211,7.1138,7.1207,7.1213,7.127,7.1221,7.1291,7.1197,7.1309,7.1383,7.15,7.1541,7.1574,7.1524,7.1572,7.1551,7.1536,7.1567,7.1587,7.1594,7.1609,7.1584,7.1566,7.1614,7.1594,7.1454,7.148,7.1438,7.1506,7.1404,7.1437,7.1344,7.1254,7.1269,7.1215,7.1146,7.1097,7.1052,7.1107,7.1121,7.1243,7.1282,7.1342,7.1353,7.1637,7.1953,7.2027,7.2029,7.1935,7.1798,7.1582,7.1328,7.1139,7.1016,7.0891,7.0919,7.0863,7.0756,7.0668,7.0754,7.0832,7.0815,7.0807,7.075,7.0776,7.0795,7.0844,7.068,6.9767,6.8547,6.9683,7.2204,7.4546,7.9167,8.3032,8.4261,8.5586,8.021,7.3181,7.1401,7.0739,7.0883,7.0897,7.087,7.0878,7.1083,7.1269,7.1383,7.143,7.1539,7.1634,7.1684,7.1649,7.1691,7.1631,7.1648,7.1548,7.1471,7.1306,7.1101,7.095,7.0932,7.0931,7.0947,7.095,7.1088,7.1129,7.1166,7.1327,7.1439,7.1629,7.1936,7.2183,7.2432,7.2747,7.3138,7.3509,7.3823,7.4065,7.4347,7.4603,7.4847,7.4917,7.5053,7.5167,7.5311,7.526,7.518,7.5085,7.4817,7.463,7.4316,7.4045,7.3639,7.3342,7.3101,7.2777,7.2616,7.2359,7.2166,7.2045,7.1903,7.1888,7.1882,7.1858,7.1793,7.1737,7.18,7.1759,7.1691,7.1662,7.1711,7.1645,7.1701,7.1732,7.1783,7.18,7.1847,7.1726,7.1563,7.1503,7.1457,7.1475,7.1457,7.1418,7.1326,7.1331,7.1352,7.1277,7.1145,7.1089,7.1072,7.1092,7.1097,7.0905,7.0802,7.0726,7.0642,7.0653,7.0646,7.057,7.0497,7.0488,7.0466,7.0354,7.0333,7.0434,7.054,7.0539,7.0498,7.0485,7.0478,7.0708,7.1016,7.125,7.1227,7.114,7.111,7.0963,7.0818,7.0566,7.0464,7.0473,7.0458,7.0468,7.0522,7.0431,7.0399,7.0482,7.0527,7.0538,7.0529,7.053,7.0679,7.0757,7.082,7.0418,6.9544,6.8506,6.9891,7.2361,7.4925,7.9963,8.3386,8.4102,8.5094,8.2695,7.4939,7.1544,7.0899,7.0655,7.0743,7.0594,7.0741,7.0668,7.0981,7.1099,7.1407,7.1547,7.1672,7.1609,7.1679,7.1605,7.165,7.1529,7.1434,7.1197,7.0892,7.0683,7.065,7.045,7.0471,7.0475,7.0673,7.0766,7.0954,7.1028,7.1105,7.1281,7.1494,7.178,7.2052,7.23,7.2561,7.2714,7.3119,7.3442,7.3712,7.401,7.4263,7.4505,7.4673,7.4799,7.4939,7.5026,7.4991,7.493,7.4783,7.4569,7.4253,7.3853,7.3537,7.3226,7.2931,7.2675,7.2556,7.2265,7.2015,7.1714,7.1535,7.1504,7.1423,7.1422,7.1271,7.1283,7.123,7.1241,7.117,7.1164,7.1031,7.11,7.119,7.1289,7.1298,7.1435,7.1444,7.1473,7.1376,7.1413,7.1339,7.1342,7.1263,7.1243,7.1176,7.1209,7.123,7.1193,7.1093,7.0966,7.0915,7.0863,7.0902,7.0807,7.0617,7.0524,7.0454,7.0353,7.022,7.0157,7.0029,7.0068,7.0003,6.9826,6.972,6.9636,6.9681,6.9785,6.978,6.9835,6.9811,6.9874,6.9973,7.0105,7.011,7.0039,7.0117,7.0137,7.021,7.0334,7.0409,7.0596,7.0676,7.0765,7.0951,7.1086,7.125,7.1832,7.2126,7.2138,7.2095,7.2132,7.216,7.2178,7.2077,7.1912,7.1885,7.1809,7.1883,7.1908,7.1908,7.1874,7.197,7.1981,7.1895,7.1808,7.179,7.176,7.1761,7.1592,7.1094,6.9749,6.8995,7.0778,7.2984,7.6028,8.1131,8.2806,8.4226,8.5515,8.1637,7.4387,7.1885,7.136,7.1139,7.1365,7.12,7.1484,7.1459,7.184,7.1938,7.223,7.2356,7.2536,7.2363,7.2412,7.2254,7.2319,7.2238,7.2233,7.1788,7.1536,7.1325,7.1226,7.1102,7.1159,7.1075,7.1267,7.146,7.1745,7.1887,7.2127,7.2381,7.2676,7.2964,7.3267,7.3562,7.3825,7.4035,7.452,7.4864,7.5161,7.5447,7.5735,7.6049,7.6189,7.6358,7.6418,7.6483,7.658,7.6599,7.645,7.6225,7.5969,7.5688,7.5326,7.5051,7.471,7.459,7.4326,7.4109,7.3907,7.3655,7.3481,7.3438,7.3339,7.3271,7.3168,7.315,7.3074,7.3132,7.2998,7.2952,7.2931,7.2988,7.3055,7.3113,7.3189,7.3286,7.3314,7.3373,7.3315,7.3301,7.3244,7.3231,7.3247,7.3266,7.3286,7.3282,7.3256,7.3284,7.3253,7.3196,7.3016,7.3096,7.3145,7.3207,7.3175,7.3176,7.3185,7.3149,7.3134,7.3061,7.3034,7.3004,7.297,7.2971,7.2953,7.2934,7.2887,7.2914,7.2961,7.2982,7.2955,7.2947,7.2895,7.2962,7.2957,7.296,7.2972,7.3019,7.3075,7.3148,7.3291,7.3449,7.3426,7.3507,7.3699,7.3846,7.4227,7.4654,7.4795,7.4789,7.4806,7.4784,7.4778,7.4794,7.4751,7.4717,7.4614,7.4675,7.4722,7.4768,7.4854,7.4809,7.4881,7.5019,7.5045,7.5183,7.5215,7.5194,7.514,7.4781,7.3836,7.2683,7.4171,7.6682,7.9352,8.4229,8.7519,8.819,8.9134,8.6921,7.9448,7.614,7.5562,7.5351,7.5582,7.5444,7.5662,7.573,7.6095,7.6245,7.6619,7.6668,7.6919,7.6979,7.6962,7.6865,7.6946,7.6766,7.6871,7.6662,7.6643,7.6439,7.6336,7.6329,7.6422,7.6461,7.6724,7.6759,7.71,7.7403,7.7767,7.8182,7.9005,7.974,8.0769,8.1501,8.2308,8.3313,8.3747,8.438,8.491,8.5135,8.5377,8.5458,8.5559,8.5552,8.5504,8.5372,8.524,8.4988,8.4767,8.4422,8.4005,8.3562,8.3092,8.2653,8.2165,8.1689,8.1471,8.108,8.0713,8.0439,8.0128,7.9724,7.95,7.9375,7.9232,7.9141,7.8901,7.8877,7.8808,7.8651,7.8484,7.8454,7.8397,7.8325,7.8206,7.8119,7.8048,7.8017,7.7816,7.7768,7.76,7.757,7.7484,7.7377,7.7212,7.7046,7.6889,7.6839,7.6756,7.6763,7.6653,7.6441,7.6417,7.6412,7.6384,7.6196,7.6024,7.606,7.5981,7.5924,7.5854,7.5778,7.5603,7.5579,7.5471,7.5506,7.5485,7.5489,7.5402,7.5492,7.5554,7.5637,7.5729,7.6134,7.6302,7.6259,7.6171,7.6126,7.5938,7.5652,7.5385,7.5262,7.5043,7.5011,7.5002,7.4971,7.493,7.483,7.4901,7.4885,7.4945,7.4842,7.479,7.4815,7.4889,7.4726,7.3845,7.3006,7.251,7.4566,7.7171,8.0157,8.5094,8.6919,8.7212,8.5855,7.8735,7.5018,7.4515,7.386,7.4157,7.4082,7.4057,7.4083,7.4374,7.4323,7.441,7.4275,7.4333,7.4446,7.4621,7.4543,7.4667,7.458,7.4639,7.4587,7.4624,7.4552,7.4652,7.4588,7.4652,7.474,7.4774,7.4717,7.4935,7.4971,7.5111,7.5195,7.5312,7.5466,7.5674,7.5804,7.6036,7.6216,7.6526,7.679,7.7125,7.7259,7.7444,7.7507,7.7666,7.7869,7.7921,7.8007,7.7987,7.7959,7.7907,7.7743,7.7641,7.7357,7.6988,7.6768,7.6459,7.6139,7.5832,7.5603,7.5438,7.5274,7.5094,7.4969,7.4952,7.5015,7.4873,7.4823,7.4782,7.481,7.4813,7.4787,7.4683,7.4697,7.4597,7.4655,7.4671,7.4794,7.474,7.4648,7.4562,7.4614,7.4544,7.4552,7.4481,7.4491,7.4437,7.4364,7.4249,7.4278,7.4266,7.43,7.424,7.4181,7.4114,7.4172,7.4148,7.41,7.4044,7.3948,7.394,7.3921,7.3925,7.3914,7.3828,7.3998,7.3995,7.4051,7.4228,7.4466,7.4532,7.4554,7.4564,7.444,7.4237,7.4005,7.3692,7.3574,7.3458,7.3317,7.3316,7.321,7.3297,7.3264,7.3229,7.3174,7.3218,7.3246,7.3261,7.3218,7.3284,7.322,7.2573,7.1163,7.092,7.262,7.4997,7.7788,8.2981,8.5829,8.6296,8.6908,7.9763,7.4216,7.3323,7.2669,7.2959,7.2886,7.2938,7.295,7.3122,7.3224,7.3468,7.3423,7.3502,7.3399,7.348,7.3338,7.346,7.3358,7.3403,7.3177,7.3129,7.2988,7.2814,7.2656,7.2652,7.2627,7.2631,7.2658,7.2655,7.2714,7.2797,7.2951,7.305,7.3198,7.3311,7.3528,7.3846,7.4084,7.4366,7.449,7.498,7.5157,7.5382,7.56,7.5849,7.5976,7.6126,7.621,7.6255,7.6152,7.5975,7.5838,7.5574,7.5452,7.5043,7.472,7.4355,7.4054,7.3649,7.3282,7.2931,7.2744,7.2501,7.2321,7.2088,7.1934,7.1826,7.1806,7.1653,7.1602,7.1484,7.1311,7.1206,7.1166,7.1076,7.1083,7.1265,7.1493,7.152,7.1442,7.129,7.1165,7.1037,7.0809,7.0663,7.0551,7.0588,7.0636,7.0586,7.0494,7.045,7.0468,7.0432,7.0426,7.0487,7.0454,7.0585,7.0586,7.0478,7.0446,7.0339,7.0451,7.0405,7.0306,7.0156,7.0028,6.9806,6.9797,6.9768,6.961,6.9607,6.9686,6.9741,6.9864,6.9908,6.9985,7.0166,7.0294,7.037,7.0551,7.0972,7.1314,7.1327,7.1406,7.1477,7.1236,7.1046,7.0845,7.0773,7.0634,7.0449,7.0242,7.0141,7.0187,7.0217,7.0273,7.0339,7.0596,7.0795,7.0994,7.1127,7.1182,7.1238,7.0794,6.9468,6.9395,7.1615,7.3625,7.7333,8.2325,8.4833,8.5962,8.4542,7.6616,7.3565,7.2369,7.1573,7.1954,7.1729,7.1989,7.1842,7.2243,7.2229,7.2788,7.2857,7.3253,7.3082,7.3221,7.3133,7.3399,7.3145,7.3123,7.2776,7.2727,7.2478,7.2519,7.2136,7.208,7.211,7.2309,7.2353,7.2587,7.2658,7.2918,7.3136,7.3477,7.372,7.3973,7.426,7.4647,7.5011,7.542,7.5717,7.6092,7.649,7.667,7.6901,7.7097,7.717,7.7318,7.7354,7.7406,7.7358,7.7311,7.7222,7.7017,7.6749,7.6368,7.6047,7.5777,7.5496,7.516,7.4971,7.4702,7.4548,7.4449,7.4388,7.4313,7.4271,7.4239,7.4274,7.4117,7.4159,7.4028,7.4025,7.4007,7.4026,7.3934,7.4036,7.4049,7.4223,7.4267,7.4416,7.421,7.4199,7.4171,7.4224,7.4234,7.4151,7.4061,7.4132,7.4137,7.4121,7.3979,7.402,7.3982,7.4021,7.4079,7.4205,7.4165,7.4235,7.4172,7.4126,7.3997,7.4031,7.4102,7.4142,7.4081,7.4061,7.3994,7.3991,7.3968,7.3955,7.3922,7.389,7.3839,7.3903,7.381,7.3847,7.3783,7.3883,7.3925,7.3977,7.3998,7.4002,7.4037,7.4091,7.4101,7.4127,7.4108,7.4147,7.4192,7.4247,7.4165,7.4303,7.4547,7.4604,7.4984,7.5445,7.5488,7.5515,7.5562,7.5486,7.5409,7.5272,7.5133,7.5008,7.4987,7.4899,7.4854,7.4707,7.452,7.4527,7.4434,7.438,7.4279,7.4245,7.4252,7.4219,7.4215,7.3916,7.3015,7.1649,7.2605,7.4983,7.7298,8.1927,8.4409,8.6639,8.7703,8.6976,7.9551,7.4537,7.4129,7.3506,7.3844,7.3538,7.3839,7.3666,7.4142,7.4052,7.4545,7.4431,7.4647,7.4292,7.4355,7.4162,7.4341,7.4051,7.4124,7.3714,7.3629,7.334,7.3459,7.3236,7.3404,7.3447,7.3704,7.3719,7.3994,7.3986,7.4251,7.4338,7.4673,7.4884,7.5131,7.5246,7.5602,7.5688,7.6036,7.6295,7.6517,7.6797,7.7112,7.7308,7.7509,7.7504,7.7592,7.7643,7.76,7.7635,7.7546,7.7426,7.7263,7.7006,7.6739,7.6373,7.6182,7.6096,7.5773,7.5421,7.5091,7.494,7.4757,7.4654,7.4517,7.4523,7.4368,7.439,7.434,7.435,7.4197,7.4237,7.4286,7.4332,7.4308,7.4399,7.4468,7.4531,7.4568,7.4634,7.455,7.4535,7.4537,7.459,7.4439,7.4471,7.4381,7.4424,7.4416,7.4476,7.4409,7.4389,7.4354,7.4366,7.4239,7.4338,7.4342,7.438,7.4315,7.4298,7.4238,7.4241,7.4165,7.4167,7.4195,7.4152,7.4048,7.4064,7.399,7.4099,7.4028,7.3943,7.3947,7.398,7.3898,7.3938,7.3862,7.389,7.3804,7.3833,7.3742,7.3791,7.3796,7.3813,7.3827,7.3895,7.3815,7.38,7.3952,7.402,7.4062,7.4111,7.4142,7.4305,7.4379,7.4506,7.4587,7.4519,7.452,7.4855,7.4982,7.534,7.581,7.5993,7.596,7.5947,7.583,7.5682,7.5676,7.5593,7.5433,7.5349,7.5214,7.5213,7.5196,7.5158,7.5123,7.513,7.5102,7.5115,7.5117,7.5075,7.505,7.5,7.4921,7.4309,7.2757,7.2845,7.5187,7.7361,8.1333,8.5915,8.7671,8.878,8.6692,7.8971,7.5586,7.4968,7.4773,7.4924,7.4841,7.4888,7.4919,7.5193,7.5382,7.5658,7.5614,7.5727,7.5569,7.5604,7.5492,7.5555,7.5295,7.512,7.4913,7.4818,7.4671,7.4652,7.4489,7.4717,7.4691,7.4861,7.4971,7.5143,7.5276,7.5377,7.5535,7.5768,7.5973,7.6218,7.6533,7.6809,7.7041,7.7264,7.7619,7.7935,7.818,7.8369,7.8547,7.8716,7.8811,7.883,7.8923,7.8897,7.886,7.8843,7.8772,7.8588,7.8369,7.8018,7.7744,7.7411,7.7168,7.6798,7.6528,7.6318,7.6254,7.5978,7.5902,7.5776,7.5779,7.5669,7.5661,7.5536,7.5511,7.5446,7.5456,7.5432,7.5428,7.5356,7.5433,7.549,7.5607,7.5675,7.5735,7.5705,7.5719,7.5698,7.5692,7.5614,7.5605,7.563,7.5751,7.5665,7.5655,7.5556,7.5558,7.5463,7.5302,7.5263,7.5297,7.5331,7.5382,7.536,7.5295,7.518,7.5124,7.514,7.5114,7.5065,7.4994,7.5006,7.5005,7.485,7.4768,7.4662,7.4699,7.4649,7.4653,7.4648,7.4587,7.4623,7.4689,7.4672,7.4692,7.4607,7.4639,7.4801,7.4913,7.4977,7.5024,7.5087,7.513,7.5171,7.5193,7.5244,7.5308,7.543,7.5568,7.571,7.5745,7.5746,7.5899,7.6088,7.6125,7.6167,7.6292,7.6271,7.6545,7.6719,7.6856,7.7065,7.754,7.772,7.7574,7.7594,7.7477,7.7416,7.733,7.7325,7.7233,7.7106,7.7057,7.7037,7.6976,7.7012,7.698,7.7049,7.71,7.714,7.7109,7.7115,7.7069,7.7131,7.7015,7.6275,7.4808,7.5224,7.7735,7.9866,8.3804,8.8234,8.9936,9.123,8.868,8.0991,7.7888,7.7373,7.7312,7.755,7.7364,7.7601,7.7599,7.8012,7.8291,7.8702,7.8769,7.8924,7.8939,7.9097,7.9002,7.9041,7.8796,7.8788,7.8374,7.8157,7.7925,7.7814,7.7664,7.7808,7.7776,7.7931,7.7902,7.8059,7.8262,7.8529,7.8715,7.902,7.9278,7.9714,8.0119,8.0527,8.0921,8.1207,8.1539,8.195,8.2259,8.2487,8.2751,8.3172,8.3507,8.3788,8.3837,8.3905,8.3917,8.3872,8.3875,8.3748,8.3697,8.3843,8.3777,8.3579,8.348,8.3315,8.3235,8.3386,8.3562,8.3513,8.3484,8.3517,8.3396,8.3245,8.3101,8.2975,8.2908,8.2798,8.2756,8.2496,8.2263,8.2119,8.2082,8.2013,8.1955,8.1892,8.1856,8.1663,8.1571,8.1415,8.139,8.1299,8.1256,8.1129,8.0999,8.092,8.0843,8.0725,8.077,8.06,8.0517,8.0413,8.0295,8.0186,8.0165,7.9988,7.9934,7.9793,7.9691,7.9537,7.9407,7.9293,7.9208,7.9208,7.9156,7.8997,7.8995,7.8893,7.8872,7.884,7.8792,7.8572,7.8551,7.8575,7.8605,7.8581,7.8485,7.8484,7.8471,7.847,7.8408,7.8287,7.8244,7.8292,7.836,7.8276,7.8221,7.8259,7.8209,7.8208,7.8148,7.8176,7.8223,7.8136,7.8283,7.8475,7.8519,7.8862,7.9155,7.9091,7.8954,7.8905,7.8765,7.8575,7.8547,7.8287,7.82,7.8112,7.7956,7.7979,7.7926,7.7866,7.7875,7.7807,7.7794,7.7862,7.7787,7.7662,7.7618,7.7602,7.7406,7.6442,7.5173,7.6302,7.8885,8.1319,8.5775,8.8,8.9759,9.0648,8.9236,8.196,7.7905,7.7527,7.6822,7.7223,7.7012,7.7256,7.7102,7.7472,7.7359,7.7529,7.7397,7.7542,7.7438,7.7697,7.768,7.7891,7.7595,7.7619,7.7492,7.7699,7.7601,7.7661,7.7531,7.7704,7.7651,7.7781,7.771,7.7944,7.795,7.8162,7.8274,7.8449,7.8534,7.8763,7.8938,7.9086,7.9164,7.9433,7.9635,7.998,8.0139,8.0374,8.0493,8.0734,8.0951,8.1,8.1016,8.104,8.113,8.1182,8.1058,8.0906,8.064,8.0427,8.0206,7.9908,7.9753,7.9407,7.9111,7.8945,7.8722,7.8498,7.8319,7.8129,7.8065,7.8028,7.7952,7.7921,7.7879,7.7844,7.7794,7.7742,7.7742,7.7715,7.7786,7.777,7.7871,7.7792,7.7786,7.7774,7.7817,7.7725,7.773,7.7636,7.7686,7.7685,7.7606,7.7545,7.76,7.7522,7.7525,7.743,7.7401,7.7373,7.743,7.7374,7.7464,7.7332,7.7325,7.7215,7.72,7.7107,7.7088,7.6981,7.7061,7.7001,7.6877,7.68,7.685,7.6813,7.6806,7.6701,7.6689,7.6652,7.6721,7.6693,7.6754,7.6773,7.674,7.6673,7.6745,7.675,7.6798,7.6745,7.6939,7.6953,7.7015,7.6967,7.7003,7.6968,7.7024,7.7296,7.7294,7.7606,7.7986,7.7999,7.795,7.7947,7.7889,7.7784,7.7841,7.7744,7.7535,7.7369,7.7333,7.7286,7.7237,7.7123,7.7032,7.6953,7.6968,7.6958,7.6978,7.6985,7.6907,7.6854,7.6609,7.6238,7.4792,7.4645,7.6993,7.903,8.2674,8.7434,8.9204,9.027,8.8729,8.0983,7.7148,7.648,7.6225,7.6461,7.6346,7.6533,7.6496,7.686,7.6943,7.7325,7.7259,7.7413,7.7243,7.7319,7.7192,7.726,7.7102,7.7003,7.685,7.6827,7.6607,7.6575,7.6395,7.6517,7.6571,7.6675,7.6638,7.6705,7.6835,7.7062,7.7126,7.7395,7.7518,7.7789,7.8051,7.836,7.8614,7.8856,7.9165,7.9435,7.9677,7.9981,8.0193,8.0468,8.0557,8.0628,8.0697,8.0734,8.0706,8.0632,8.0529,8.0353,8.0058,7.9739,7.9378,7.9081,7.8775,7.8391,7.7949,7.7697,7.7497,7.7314,7.7178,7.7033,7.6969,7.6932,7.6841,7.6794,7.6747,7.6656,7.6699,7.6655,7.6563,7.6428,7.6457,7.6517,7.6601,7.6647,7.6728,7.6801,7.6772,7.6639,7.6593,7.6554,7.6584,7.6566,7.6515,7.6455,7.6373,7.6333,7.626,7.6243,7.6181,7.6049,7.6051,7.6046,7.6138,7.6064,7.6058,7.5977,7.5866,7.5806,7.5684,7.5473,7.5392,7.53,7.5083,7.5086,7.5042,7.4873,7.4805,7.4811,7.475,7.4626,7.4511,7.4565,7.4704,7.4738,7.4784,7.4727,7.4792,7.486,7.4942,7.4933,7.4934,7.4986,7.5111,7.5178,7.5263,7.5332,7.5388,7.5449,7.5582,7.5599,7.5737,7.5792,7.5948,7.6022,7.6183,7.6342,7.6423,7.6636,7.6819,7.6922,7.7091,7.7198,7.7076,7.7142,7.7181,7.6956,7.6783,7.6669,7.6678,7.6633,7.6618,7.6534,7.656,7.6523,7.6498,7.6427,7.6378,7.6325,7.6212,7.6127,7.5807,7.4674,7.3456,7.4727,7.709,7.9682,8.4594,8.799,8.8745,8.9937,8.8764,8.0927,7.7007,7.6478,7.625,7.6442,7.626,7.6544,7.6604,7.709,7.7127,7.7484,7.7675,7.7919,7.7811,7.7871,7.7619,7.7742,7.7546,7.7538,7.7131,7.6948,7.6608,7.639,7.614,7.6233,7.6221,7.6321,7.6497,7.6738,7.6907,7.7198,7.7421,7.772,7.803,7.8377,7.8513,7.8873,7.9229,7.9248,7.9566,8.0159,8.0399,8.075,8.1064,8.1262,8.1408,8.1503,8.1604,8.1688,8.1667,8.1594,8.1504,8.1338,8.1147,8.0803,8.0521,8.0219,7.9969,7.9822,7.963,7.9365,7.909,7.8883,7.8765,7.8637,7.8521,7.8414,7.8329,7.8337,7.8405,7.8358,7.8309,7.8216,7.8185,7.8163,7.8155,7.8154,7.8257,7.8333,7.8355,7.8354,7.8305,7.8195,7.8222,7.8209,7.8153,7.7988,7.7916,7.7904,7.7964,7.7916,7.7936,7.7905,7.7865,7.7869,7.7881,7.7809,7.7809,7.782,7.7821,7.7756,7.7698,7.7559,7.7516,7.7415,7.7414,7.736,7.7322,7.7269,7.7284,7.7267,7.7273,7.717,7.7093,7.6869,7.6901,7.6847,7.6759,7.6716,7.6743,7.6777,7.6829,7.684,7.6791,7.6852,7.6842,7.6906,7.6937,7.694,7.7047,7.7067,7.7077,7.7162,7.7195,7.7277,7.7318,7.7422,7.7545,7.7615,7.7786,7.7938,7.8041,7.8177,7.8348,7.8432,7.8628,7.8785,7.8603,7.8524,7.8535,7.8454,7.8278,7.8102,7.7926,7.7894,7.7802,7.7851,7.7734,7.7648,7.7605,7.7599,7.7592,7.7526,7.7485,7.7397,7.7307,7.6639,7.5131,7.5415,7.7821,7.9983,8.3875,8.8321,9.0016,9.1091,8.8949,8.1268,7.791,7.7243,7.6988,7.7151,7.6976,7.7059,7.7043,7.7343,7.74,7.7764,7.7848,7.806,7.7959,7.798,7.7884,7.7935,7.7732,7.767,7.7356,7.7149,7.6739,7.6642,7.6382,7.6384,7.628,7.6351,7.6539,7.6775,7.6927,7.7232,7.7518,7.7849,7.8097,7.8386,7.8731,7.9108,7.9444,7.9769,8.0097,8.0461,8.0747,8.0975,8.1264,8.1442,8.156,8.1749,8.1827,8.1858,8.1822,8.1769,8.1785,8.1694,8.1425,8.1185,8.0975,8.0724,8.0467,8.0076,7.9784,7.9574,7.9395,7.9218,7.9051,7.8947,7.892,7.8915,7.8838,7.8758,7.8647,7.857,7.8579,7.8578,7.8652,7.8647,7.8655,7.863,7.8721,7.873,7.8898,7.8903,7.8923,7.8834,7.8819,7.8757,7.8772,7.8793,7.8795,7.8877,7.8889,7.8787,7.8791,7.8715,7.8713,7.8688,7.8651,7.8716,7.8741,7.8662,7.8643,7.8583,7.8549,7.857,7.8576,7.8523,7.8498,7.8462,7.8562,7.8565,7.8564,7.8452,7.848,7.8405,7.8417,7.8421,7.8411,7.8381,7.8488,7.8516,7.8459,7.8451,7.8539,7.8601,7.8676,7.8756,7.8783,7.8795,7.8878,7.8941,7.9111,7.9172,7.9121,7.9233,7.9307,7.9372,7.9519,7.9629,7.9919,7.9948,8.0179,8.0365,8.0376,8.0643,8.0854,8.0839,8.0861,8.0892,8.0891,8.0899,8.0749,8.063,8.0601,8.0628,8.0621,8.0664,8.0633,8.064,8.0634,8.0654,8.0664,8.0706,8.0663,8.0533,7.9744,7.8373,7.8993,8.164,8.2634,8.5644,9.0718,9.3217,9.3924,9.4222,8.7227,8.2163,8.1524,8.0858,8.1196,8.1178,8.1434,8.1517,8.2158,8.2822,8.3394,8.3723,8.414,8.4073,8.4186,8.3977,8.4084,8.3963,8.3922,8.3525,8.3265,8.2977,8.2865,8.2619,8.2617,8.2534,8.2777,8.2974,8.3146,8.3212,8.3399,8.3642,8.4178,8.4829,8.5149,8.5308,8.5873,8.6932,8.7809,8.8284,8.9328,9.0171,9.0577,9.0902,9.1077,9.1063,9.1077,9.0986,9.0848,9.0723,9.0411,9.0142,8.9802,8.9361,8.8919,8.8619,8.8251,8.7814,8.7301,8.6855,8.6396,8.6048,8.5776,8.5522,8.5161,8.4866,8.4643,8.4546,8.4339,8.409,8.3936,8.3865,8.3667,8.3502,8.3309,8.3249,8.3169,8.3161,8.311,8.306,8.2913,8.2723,8.265,8.2674,8.2504,8.2418,8.2301,8.2225,8.2206,8.2134,8.1983,8.1951,8.1939,8.1867,8.1762,8.171,8.1683,8.1739,8.1541,8.1448,8.1365,8.1224,8.1162,8.1185,8.1121,8.0995,8.0831,8.084,8.0736,8.0729,8.0717,8.0612,8.0524,8.049,8.042,8.0398,8.0327,8.0338,8.0263,8.0203,8.0124,8.0098,8.0021,8.0129,8.0159,8.0292,8.0367,8.0387,8.0472,8.0393,8.045,8.0563,8.0454,8.0412,8.0352,8.0279,8.0189,7.9996,7.9873,7.9846,7.9718,7.9765,7.9625,7.9677,7.9706,7.9661,7.9647,7.9659,7.9626,7.9567,7.9483,7.9089,7.7683,7.7549,7.9953,8.2452,8.5507,8.7963,9.1042,9.1499,9.1955,8.6358,8.0764,7.9845,7.8864,7.9178,7.8965,7.9191,7.9038,7.9423,7.9424,7.9652,7.9564,7.9746,7.9675,7.9871,7.9669,7.9839,7.9631,7.9858,7.9795,7.9939,7.9845,7.992,7.9866,8.0003,7.9948,8.011,8.0108,8.0232,8.0259,8.0361,8.0455,8.0583,8.0766,8.1014,8.1173,8.1275,8.1439,8.1676,8.1971,8.2189,8.2411,8.2524,8.2686,8.2897,8.3111,8.317,8.3216,8.3213,8.3311,8.3272,8.325,8.3025,8.292,8.2617,8.2292,8.1857,8.1738,8.1338,8.1137,8.0887,8.0642,8.0316,8.0215,8.0088,8.0076,7.9901,7.9791,7.9668,7.9732,7.9746,7.9717,7.9551,7.9552,7.9568,7.9592,7.956,7.9567,7.9446,7.9505,7.9478,7.9534,7.9463,7.9382,7.9368,7.9474,7.9429,7.9399,7.9275,7.9305,7.9201,7.9174,7.9055,7.9077,7.9058,7.9076,7.894,7.8931,7.8756,7.8654,7.8631,7.8572,7.8398,7.8315,7.8201,7.8107,7.8016,7.7965,7.795,7.7864,7.7811,7.7874,7.7831,7.7807,7.7841,7.813,7.8336,7.8451,7.8366,7.8315,7.8188,7.795,7.7626,7.7493,7.7316,7.7167,7.7085,7.7085,7.7082,7.7023,7.7008,7.703,7.6966,7.6952,7.687,7.6892,7.7016,7.6961,7.6809,7.5975,7.4693,7.5492,7.8014,8.0177,8.4535,8.8531,8.9899,9.1175,8.6675,7.9324,7.6961,7.6313,7.634,7.6316,7.6088,7.6213,7.6278,7.6421,7.6456,7.6559,7.674,7.6972,7.7056,7.6915,7.6937,7.6827,7.6778,7.6628,7.634,7.6107,7.5903,7.574,7.5654,7.5397,7.5273,7.5237,7.5339,7.5577,7.5741,7.5774,7.588,7.6077,7.6448,7.6775,7.7004,7.7277,7.7595,7.7983,7.8326,7.8635,7.8933,7.9195,7.9554,7.9778,8.0064,8.0171,8.0228,8.0288,8.0374,8.0286,8.0257,7.9908,7.9682,7.9313,7.8929,7.8566,7.8196,7.7746,7.7499,7.7239,7.6783,7.6471,7.6438,7.6319,7.6139,7.6072,7.6006,7.6056,7.6205,7.6201,7.6284,7.6262,7.631,7.6391,7.6457,7.6495,7.6697,7.6787,7.6961,7.6982,7.6993,7.6993,7.7001,7.7023,7.7096,7.7042,7.7018,7.6823,7.6884,7.6866,7.6806,7.6857,7.6838,7.6872,7.6982,7.708,7.7191,7.7159,7.7224,7.7191,7.7026,7.6948,7.6893,7.6986,7.7061,7.7253,7.7326,7.7485,7.7709,7.7826,7.793,7.8226,7.8558,7.8695,7.8807,7.8863,7.8772,7.8539,7.8374,7.8337,7.8368,7.8267,7.8194,7.8292,7.8298,7.8396,7.8444,7.8482,7.8571,7.8733,7.8773,7.8901,7.8947,7.896,7.8966,7.8363,7.6975,7.7617,8.0166,8.2347,8.6661,9.0974,9.2543,9.3737,9.0139,8.2673,7.9931,7.9242,7.9112,7.9278,7.9125,7.9237,7.9303,7.9515,7.9669,7.9896,7.9873,8.01,8.0058,8.0157,8.0104,8.012,8.0029,7.992,7.9832,7.9725,7.9532,7.9446,7.9269,7.9333,7.9311,7.9345,7.9459,7.9632,7.9682,7.9909,8.0068,8.0275,8.0461,8.069,8.0966,8.1249,8.1462,8.1747,8.2019,8.2364,8.2674,8.2973,8.3198,8.3394,8.3576,8.3709,8.3788,8.3907,8.3839,8.3843,8.3656,8.3313,8.3012,8.2726,8.2445,8.2139,8.1801,8.1603,8.137,8.1108,8.0977,8.0859,8.0757,8.0706,8.0702,8.0713,8.071,8.0641,8.0637,8.0559,8.063,8.0752,8.077,8.0731,8.0771,8.0802,8.0894,8.0864,8.089,8.0913,8.0871,8.0939,8.0862,8.0826,8.0778,8.0772,8.0806,8.0811,8.0786,8.0749,8.0746,8.071,8.0679,8.0652,8.0694,8.0724,8.0671,8.0604,8.0561,8.0577,8.0561,8.0485,8.0438,8.0401,8.0367,8.0373,8.0377,8.0337,8.0266,8.0219,8.0253,8.017,8.0249,8.0242,8.0261,8.0549,8.1006,8.124,8.1252,8.1279,8.1245,8.1083,8.1001,8.0742,8.0715,8.0635,8.059,8.0593,8.0571,8.0558,8.0612,8.065,8.069,8.0745,8.0753,8.0776,8.0877,8.0977,8.0883,8.0178,7.8729,7.9088,8.1555,8.3596,8.7546,9.209,9.3964,9.4372,9.4833,8.7848,8.2136,8.1264,8.0639,8.0862,8.0607,8.0704,8.0645,8.0921,8.0996,8.1281,8.1314,8.1581,8.146,8.1607,8.145,8.1449,8.1261,8.1328,8.1159,8.1054,8.0793,8.0691,8.0587,8.061,8.0497,8.0656,8.0742,8.101,8.1139,8.1346,8.1489,8.1762,8.2055,8.236,8.265,8.3,8.326,8.3614,8.3768,8.4127,8.442,8.4581,8.4859,8.5007,8.5125,8.5248,8.5319,8.5309,8.5319,8.5218,8.5098,8.4868,8.4638,8.4312,8.4006,8.3708,8.3389,8.3108,8.301,8.2777,8.2621,8.2432,8.2314,8.2251,8.2187,8.2123,8.2104,8.2007,8.2108,8.2106,8.2111,8.2051,8.2007,8.2027,8.2125,8.2164,8.2243,8.2267,8.2335,8.2301,8.234,8.2336,8.2299,8.2305,8.2314,8.2342,8.2386,8.237,8.2339,8.233,8.2371,8.2308,8.2296,8.2254,8.2348,8.239,8.2363,8.2204,8.2235,8.2175,8.2217,8.2153,8.2044,8.2008,8.2078,8.2055,8.1992,8.1845,8.1754,8.1745,8.1742,8.1577,8.1456,8.143,8.1461,8.1598,8.1631,8.1644,8.1697,8.18,8.2031,8.2196,8.264,8.2827,8.2833,8.2817,8.2762,8.2584,8.2486,8.2388,8.2303,8.2286,8.2222,8.2206,8.2261,8.2311,8.2414,8.2411,8.2389,8.2415,8.2375,8.2463,8.2422,8.2397,8.2375,8.2095,8.1002,7.9977,8.1395,8.3684,8.6352,9.1334,9.4495,9.5503,9.6131,8.9539,8.38,8.2771,8.2008,8.215,8.2096,8.2139,8.2118,8.2366,8.2418,8.2753,8.2857,8.3115,8.3058,8.3116,8.3133,8.3102,8.2922,8.2919,8.268,8.2577,8.2455,8.2409,8.2236,8.2266,8.2292,8.2455,8.2617,8.2798,8.2839,8.305,8.3246,8.348,8.3617,8.3815,8.4084,8.4426,8.4726,8.5055,8.5332,8.5629,8.5897,8.6213,8.6389,8.6585,8.6629,8.6788,8.6878,8.6945,8.7005,8.694,8.6881,8.6732,8.652,8.6285,8.5924,8.574,8.5555,8.5362,8.5167,8.4928,8.4821,8.466,8.4589,8.4546,8.4547,8.4535,8.4558,8.4555,8.4553,8.4454,8.4506,8.4489,8.4515,8.4535,8.4604,8.4698,8.4868,8.5004,8.5081,8.5042,8.5037,8.5107,8.5233,8.53,8.5396,8.5347,8.5429,8.5496,8.5582,8.5618,8.5633,8.5774,8.5865,8.5825,8.5882,8.5902,8.5999,8.6108,8.6245,8.6316,8.6508,8.6754,8.707,8.7269,8.7402,8.7508,8.7512,8.7599,8.7713,8.7744,8.7864,8.818,8.8483,8.8573,8.8524,8.8396,8.8175,8.7977,8.773,8.7665,8.7557,8.7546,8.7633,8.7565,8.7613,8.7801,8.8029,8.82,8.8502,8.8699,8.8934,8.9152,8.9682,8.9878,8.9847,8.8993,8.8698,9.0942,9.3754,9.6922,10.202,10.452,10.489,10.459,9.6936,9.1941,9.1544,9.0574,9.049,9.032,9.0109,8.9984,9.0014,8.9894,8.9948,8.9793,8.9716,8.9539,8.9505,8.9315,8.9225,8.8959,8.8922,8.8778,8.8722,8.8473,8.8439,8.8242,8.8178,8.8092,8.8029,8.8003,8.7938,8.79,8.7918,8.7969,8.7979,8.8096,8.8242,8.8454,8.8611,8.8744,8.8867,8.906,8.9387,8.9564,8.9718,8.9744,8.9937,9.0023
