9.7133,9.7029,9.631,9.5595,9.5833,9.7227,9.9711,10.302,10.656,10.773,10.367,9.777,9.5295,9.5783,9.6514,9.713,9.7206,9.7408,9.6949,9.6678,9.7107,9.7409,9.7587,9.7192,9.747,9.7769,9.8124,9.7952,9.7816,9.7663,9.8143,9.847,9.8149,9.785,9.7932,9.7871,9.7994,9.8009,9.7761,9.7729,9.8118,9.8349,9.8569,9.8286,9.8307,9.8566,9.9161,9.9091,9.8608,9.8749,9.9194,9.9538,9.982,9.9574,9.9151,9.9648,10.024,10.048,10.038,10.015,10.051,10.095,10.084,10.078,10.05,10.072,10.094,10.102,10.054,9.9945,9.9575,9.9732,9.9642,9.9299,9.8697,9.8738,9.8952,9.901,9.8855,9.8611,9.8168,9.802,9.8356,9.853,9.8372,9.8444,9.8318,9.8781,9.8695,9.8202,9.8074,9.8248,9.8691,9.8713,9.8403,9.8249,9.8436,9.8584,9.8727,9.8483,9.83,9.8628,9.8959,9.8931,9.8485,9.8412,9.8623,9.8796,9.9037,9.8877,9.8859,9.884,9.8803,9.8812,9.8282,9.8134,9.8351,9.847,9.8686,9.8453,9.8173,9.8209,9.8424,9.856,9.8443,9.8139,9.8098,9.8502,9.8897,9.9108,9.9039,9.9382,9.9285,9.9485,9.9533,9.949,9.9734,9.9791,10.038,10.033,9.9484,9.9143,9.9241,9.9339,9.9111,9.8168,9.8042,9.7755,9.8004,9.7981,9.7732,9.7784,9.778,9.7988,9.7976,9.7707,9.73,9.7559,9.772,9.7808,9.7671,9.748,9.7197,9.665,9.6586,9.6715,9.8375,10.153,10.645,11.081,10.837,10.143,9.6726,9.6554,9.7195,9.739,9.7335,9.7465,9.7797,9.798,9.7947,9.7167,9.7003,9.7246,9.7584,9.7563,9.7448,9.7514,9.7977,9.8187,9.7725,9.7279,9.7149,9.738,9.7732,9.7551,9.7408,9.7198,9.7203,9.7388,9.756,9.7376,9.7259,9.761,9.8233,9.8394,9.8021,9.8123,9.8282,9.8659,9.8943,9.8694,9.8792,9.8881,9.9329,9.9364,9.9108,9.9112,9.9307,9.9725,10.018,10.005,9.9981,10.028,10.066,10.084,10.059,10.019,9.9942,10.009,10.004,9.9617,9.9071,9.908,9.9,9.8692,9.8246,9.8135,9.8025,9.7915,9.8147,9.7824,9.7439,9.7491,9.753,9.8094,9.8123,9.7671,9.7568,9.7748,9.7968,9.7937,9.7585,9.7526,9.7851,9.8138,9.7925,9.7682,9.7648,9.762,9.7707,9.798,9.7845,9.7769,9.784,9.8097,9.8171,9.7913,9.7787,9.7671,9.8055,9.8171,9.7714,9.7509,9.7724,9.7953,9.8194,9.7991,9.7665,9.7516,9.7657,9.7812,9.7689,9.7374,9.7432,9.7653,9.7898,9.7905,9.7496,9.7674,9.758,9.7731,9.7717,9.7609,9.7891,9.8386,9.889,9.8949,9.871,9.8621,9.8912,9.9549,9.981,9.955,9.9321,9.9626,9.9688,9.966,9.9294,9.8953,9.9041,9.8775,9.8359,9.7839,9.7808,9.7954,9.8139,9.8285,9.7861,9.7652,9.7791,9.7998,9.8389,9.8254,9.7714,9.7855,9.7894,9.7999,9.7711,9.6902,9.6707,9.7472,9.8567,10.065,10.466,10.871,11.007,10.494,9.8467,9.6234,9.664,9.7411,9.8388,9.8611,9.811,9.796,9.7865,9.8053,9.8043,9.7652,9.7671,9.7816,9.8313,9.8251,9.803,9.8117,9.8348,9.8414,9.8252,9.774,9.7638,9.763,9.7855,9.7924,9.7727,9.7709,9.7825,9.8177,9.8054,9.8053,9.8225,9.8353,9.8686,9.8709,9.8544,9.8505,9.8875,9.9433,9.9563,9.9021,9.8989,9.9267,9.9491,10.001,9.9779,9.9558,9.9678,10.012,10.058,10.025,10.006,10.033,10.07,10.079,10.048,10.009,9.9673,9.9867,9.9759,9.9202,9.8881,9.8599,9.8545,9.8555,9.8435,9.8006,9.8039,9.8031,9.8079,9.8055,9.7731,9.7674,9.7677,9.8069,9.7898,9.7688,9.7455,9.7804,9.8026,9.7973,9.7695,9.7508,9.7614,9.818,9.7962,9.7668,9.7687,9.7796,9.8157,9.8414,9.8235,9.7934,9.8024,9.8382,9.85,9.8152,9.7772,9.7787,9.7926,9.8069,9.8001,9.7948,9.8126,9.8124,9.821,9.8101,9.7715,9.7789,9.8193,9.8501,9.8185,9.779,9.7805,9.8025,9.8073,9.8206,9.7811,9.7737,9.7959,9.8429,9.8654,9.8645,9.8743,9.8694,9.8937,9.9168,9.9023,9.9039,9.9356,9.9496,9.9569,9.9143,9.8841,9.872,9.8681,9.8336,9.76,9.7321,9.7673,9.8055,9.8071,9.7476,9.7295,9.7282,9.7578,9.7769,9.7793,9.7265,9.7394,9.7418,9.7574,9.7402,9.6985,9.6922,9.6712,9.6428,9.6681,9.7944,10.065,10.447,10.741,10.768,10.461,9.86,9.5475,9.5956,9.6839,9.6846,9.7031,9.7606,9.7576,9.7317,9.6844,9.6855,9.7247,9.7652,9.7691,9.7248,9.707,9.7335,9.7805,9.7921,9.7592,9.7452,9.7672,9.7824,9.8097,9.7731,9.754,9.7692,9.7982,9.8021,9.7771,9.772,9.7734,9.8338,9.8431,9.8198,9.803,9.8046,9.8354,9.8697,9.8541,9.8489,9.8725,9.9005,9.9175,9.8862,9.871,9.8807,9.9155,9.9717,9.9508,9.9476,9.9361,9.9925,10.002,9.9925,9.9752,9.9543,9.9582,9.9548,9.9272,9.8775,9.8644,9.8559,9.8467,9.8186,9.7866,9.7709,9.7526,9.799,9.7865,9.7352,9.7456,9.7627,9.7801,9.7926,9.7239,9.7301,9.7701,9.7924,9.8014,9.7592,9.7144,9.7389,9.7922,9.8012,9.7746,9.7429,9.7551,9.8222,9.8128,9.7945,9.752,9.7813,9.7976,9.8009,9.7896,9.7722,9.7825,9.7954,9.7849,9.7642,9.7391,9.7166,9.753,9.7508,9.7317,9.7194,9.7064,9.7434,9.77,9.6943,9.6836,9.6974,9.7428,9.8002,9.8037,9.7878,9.7812,9.8151,9.8726,9.8846,9.8605,9.83,9.8583,9.8711,9.8771,9.8301,9.793,9.7766,9.7834,9.7362,9.7008,9.6881,9.7105,9.7201,9.7197,9.6812,9.6582,9.6687,9.7049,9.7213,9.6984,9.6871,9.6972,9.7061,9.7371,9.7156,9.6559,9.6102,9.6187,9.7028,9.83,10.077,10.471,10.859,10.793,10.217,9.6398,9.5528,9.6442,9.6813,9.7298,9.7315,9.7288,9.7516,9.7712,9.7587,9.6943,9.7067,9.7403,9.7648,9.7832,9.7746,9.7594,9.8011,9.8196,9.808,9.7828,9.7816,9.8032,9.8057,9.8097,9.7688,9.7603,9.7663,9.8169,9.8459,9.8179,9.7982,9.8281,9.8832,9.9041,9.8619,9.8693,9.8914,9.9362,9.944,9.9319,9.9114,9.9366,10.003,10.023,10,9.9716,9.9878,10.032,10.069,10.085,10.051,10.031,10.073,10.09,10.082,10.025,10.018,10.025,9.995,9.9658,9.9279,9.8938,9.9047,9.9006,9.8768,9.8531,9.8378,9.8347,9.8468,9.8303,9.7847,9.792,9.8227,9.852,9.8336,9.8145,9.8081,9.8078,9.8489,9.8545,9.8052,9.7904,9.8078,9.8336,9.8755,9.8476,9.7946,9.7831,9.8244,9.8701,9.843,9.8389,9.8533,9.8578,9.8678,9.856,9.8316,9.8233,9.8538,9.8771,9.8594,9.8461,9.8186,9.7912,9.8091,9.8087,9.7722,9.7737,9.802,9.837,9.8144,9.7876,9.7762,9.7771,9.8237,9.797,9.768,9.7651,9.8062,9.8407,9.8093,9.8022,9.865,9.9029,9.9182,9.9311,9.8955,9.8586,9.905,9.9532,9.9905,9.9695,9.9255,9.951,9.9329,9.9137,9.8432,9.8094,9.7922,9.7848,9.7831,9.744,9.7516,9.7334,9.7501,9.8005,9.7576,9.7133,9.7132,9.7437,9.7791,9.7341,9.7242,9.7327,9.7526,9.7148,9.6368,9.6468,9.696,9.9801,10.414,10.851,10.998,10.551,10.192,9.7192,9.6554,9.6869,9.7144,9.7768,9.7759,9.8222,9.766,9.7271,9.7435,9.7782,9.7444,9.7218,9.7329,9.7779,9.7986,9.8181,9.7638,9.71,9.7052,9.7752,9.7718,9.7674,9.7152,9.7639,9.7602,9.7697,9.7399,9.7441,9.7825,9.7956,9.8131,9.8128,9.7846,9.8007,9.8324,9.8709,9.8205,9.8353,9.8384,9.8794,9.932,9.9358,9.9164,9.9292,9.9309,9.9933,9.9985,9.9738,10.005,10.034,10.042,10.052,10.043,10.015,10.014,10.024,10.007,9.9557,9.9262,9.9208,9.919,9.8988,9.8373,9.8161,9.8217,9.8139,9.8038,9.7735,9.7567,9.7744,9.8069,9.7885,9.7614,9.7415,9.7805,9.7999,9.8126,9.7837,9.7739,9.7665,9.7853,9.8238,9.8079,9.7696,9.7862,9.8077,9.8255,9.8104,9.8076,9.8034,9.853,9.889,9.8428,9.8007,9.8013,9.8336,9.8566,9.8477,9.8373,9.8412,9.8467,9.8517,9.822,9.803,9.7919,9.8219,9.8584,9.8597,9.8102,9.7783,9.8033,9.8362,9.837,9.816,9.8195,9.8133,9.8338,9.8168,9.8,9.7793,9.8027,9.8466,9.8369,9.8362,9.8615,9.8996,9.9366,9.927,9.9105,9.9121,9.9611,9.9998,10.025,9.9739,9.9697,9.921,9.9457,9.9361,9.8848,9.8698,9.814,9.8341,9.851,9.8055,9.7712,9.7642,9.8027,9.8199,9.8254,9.7977,9.774,9.778,9.7992,9.7865,9.7641,9.7737,9.7858,9.7584,9.7007,9.7153,9.748,9.942,10.318,10.739,10.988,10.674,10.018,9.6793,9.709,9.7446,9.7685,9.8192,9.8392,9.841,9.8008,9.7958,9.7999,9.8436,9.8416,9.7932,9.7586,9.7762,9.8241,9.8682,9.8308,9.8045,9.8002,9.833,9.8105,9.795,9.7821,9.771,9.7547,9.7953,9.791,9.7729,9.8147,9.8263,9.8659,9.8522,9.8425,9.8246,9.8615,9.9073,9.9344,9.8839,9.8903,9.9289,9.9381,9.965,9.9383,9.961,10.01,10.042,10.013,9.9981,10.008,10.036,10.071,10.061,10.056,10.063,10.06,10.066,10.037,9.9815,9.9721,9.9613,9.9719,9.9638,9.8891,9.8336,9.8293,9.8735,9.8581,9.8042,9.7995,9.8203,9.8525,9.8542,9.8059,9.7874,9.8069,9.7998,9.8317,9.8338,9.7852,9.7841,9.8371,9.8363,9.8306,9.8079,9.7976,9.821,9.8332,9.8426,9.8229,9.8411,9.8577,9.8788,9.8447,9.8153,9.8176,9.8491,9.8878,9.8688,9.8539,9.8137,9.8074,9.8247,9.8336,9.801,9.8007,9.8179,9.8577,9.831,9.7867,9.7881,9.8074,9.8721,9.8524,9.8386,9.8094,9.844,9.9156,9.9397,9.8957,9.8996,9.9276,9.9766,10.003,9.9737,9.9735,9.9549,9.9752,9.9844,9.9667,9.8973,9.8585,9.8478,9.8546,9.8374,9.7887,9.7995,9.7922,9.8363,9.844,9.8008,9.7936,9.8248,9.8357,9.8226,9.7984,9.7982,9.8144,9.8345,9.7819,9.6803,9.6794,9.7678,9.9525,10.097,10.415,10.713,10.789,10.456,9.8828,9.6418,9.6661,9.7542,9.8306,9.8637,9.8417,9.815,9.8217,9.8698,9.8513,9.8279,9.8234,9.8565,9.8801,9.8538,9.832,9.8411,9.8343,9.8957,9.8916,9.868,9.8094,9.8298,9.8756,9.8841,9.8614,9.8239,9.8428,9.8963,9.8914,9.8524,9.8567,9.8858,9.9406,9.9612,9.9556,9.924,9.9429,9.9873,10.012,10.003,9.9808,9.9754,10.022,10.083,10.066,10.054,10.04,10.082,10.135,10.113,10.076,10.095,10.13,10.146,10.142,10.098,10.066,10.005,10.014,10.012,9.9605,9.9446,9.9362,9.9506,9.967,9.9115,9.8764,9.8782,9.9056,9.926,9.9,9.8938,9.8818,9.9144,9.9165,9.903,9.8619,9.8715,9.948,9.9594,9.9334,9.889,9.9021,9.914,9.946,9.9278,9.9241,9.9172,9.9566,9.9579,9.9553,9.9198,9.9243,9.9633,9.9628,9.9589,9.9182,9.9101,9.918,9.9358,9.9517,9.9298,9.9069,9.9094,9.9532,9.994,9.9753,9.9823,9.9979,10.021,10.038,10.011,10.057,10.081,10.098,10.082,10.084,10.053,10.034,10.007,10.031,9.9329,9.8751,9.8835,9.9336,9.9344,9.9013,9.9147,9.922,9.9283,9.9179,9.8898,9.8877,9.9058,9.9263,9.9513,9.9319,9.8978,9.8511,9.8159,9.8339,9.864,9.9649,10.244,10.639,10.968,10.891,10.296,9.7896,9.7355,9.8188,9.8766,9.8736,9.9285,9.9518,9.9619,9.9284,9.9023,9.8782,9.8971,9.9276,9.9506,9.923,9.9074,9.9171,9.9549,9.9601,9.9266,9.9056,9.9201,9.9471,9.9456,9.8744,9.8816,9.9195,9.9227,9.9346,9.9318,9.9096,9.9339,9.9661,9.995,9.9842,9.9728,9.9808,10.033,10.05,10.034,10.022,10.042,10.07,10.112,10.08,10.082,10.103,10.119,10.131,10.138,10.117,10.114,10.153,10.194,10.176,10.147,10.112,10.08,10.082,10.033,9.9814,9.9574,9.9781,9.9891,9.9693,9.923,9.9168,9.9341,9.9493,9.9257,9.8882,9.8705,9.9099,9.9449,9.9567,9.9261,9.9129,9.9181,9.9717,9.9791,9.9346,9.903,9.9278,9.9784,9.9856,9.9557,9.9544,9.9862,10.003,10.037,10.023,10.01,10.007,10.026,10.07,10.044,10.023,10.03,10.079,10.075,10.041,10.017,10.02,10.048,10.062,10.026,9.9835,9.9958,10.024,10.073,10.104,10.085,10.101,10.119,10.157,10.157,10.148,10.142,10.179,10.183,10.165,10.125,10.092,10.092,10.087,10.061,10.002,10.004,10.007,10.008,10.027,10.011,9.9703,9.992,10.021,10.051,10.028,10.001,10.024,10.063,10.073,10.02,9.9589,9.9144,9.9672,10.065,10.256,10.621,11.067,11.273,11.199,10.573,9.9526,9.9006,9.9558,10.049,10.079,10.039,10.01,10.043,10.071,10.068,10.001,10.013,10.024,10.068,10.065,10.056,10.066,10.087,10.114,10.103,10.062,10.012,10.022,10.058,10.065,10.033,10.036,10.053,10.072,10.116,10.083,10.078,10.102,10.135,10.152,10.136,10.145,10.158,10.191,10.233,10.224,10.227,10.193,10.228,10.253,10.242,10.229,10.257,10.291,10.33,10.303,10.284,10.31,10.319,10.331,10.308,10.248,10.2,10.183,10.181,10.171,10.08,10.08,10.064,10.103,10.077,10.041,10.026,10.041,10.061,10.044,9.9966,10.025,10.041,10.058,10.066,10.011,9.9926,10.009,10.042,10.059,10.022,9.9981,10,10.011,10.036,10.017,10.014,10.026,10.04,10.072,10.047,10.051,10.032,10.087,10.095,10.048,10.046,10.056,10.055,10.093,10.082,10.033,10.036,10.017,10.037,10.043,10.022,10.033,10.054,10.059,10.052,10.025,10.024,10.047,10.085,10.066,10.047,10.077,10.129,10.189,10.154,10.131,10.155,10.18,10.231,10.26,10.228,10.192,10.178,10.199,10.162,10.107,10.059,10.026,10.057,10.052,10.014,9.9969,9.9923,10.015,10.026,9.9962,9.9921,9.9958,10.024,10.026,9.9879,9.9638,9.9792,9.9734,9.9334,9.8901,9.9168,10.055,10.34,10.763,11.195,11.168,10.892,10.266,9.9163,9.9466,9.9547,9.991,10.011,10.009,9.9868,9.9653,9.9505,9.9593,9.9843,9.9773,9.9338,9.9615,9.9906,10.01,10.001,9.9969,9.9813,9.9768,9.9841,10.008,9.9476,9.9272,9.9498,10,10.018,10.003,9.9751,10.004,10.052,10.058,10.032,10.037,10.056,10.114,10.124,10.12,10.108,10.12,10.15,10.184,10.182,10.167,10.184,10.22,10.261,10.248,10.225,10.244,10.265,10.312,10.309,10.302,10.292,10.303,10.283,10.231,10.203,10.173,10.159,10.169,10.154,10.086,10.067,10.082,10.076,10.063,10.016,10.002,10.021,10.046,10.037,10.001,9.9976,10.021,10.049,10.021,10.009,9.9946,10.009,10.034,10.036,10.021,9.9989,10.002,10.038,10.044,10.01,9.9837,9.9994,10.03,10.03,9.9887,9.9676,9.9789,10.004,10.003,9.9768,9.9602,9.9677,9.9715,9.9892,9.9627,9.935,9.9238,9.9549,9.9781,9.9821,9.9283,9.9235,9.9239,9.9387,9.9314,9.9144,9.9315,9.9439,9.9683,9.9725,9.944,9.9323,9.9329,9.9671,10,9.9933,10.016,10.038,10.047,10.059,10.057,10.066,10.077,10.125,10.131,10.075,10.068,10.054,10.069,10.038,10,9.9189,9.8989,9.9266,9.9551,9.9113,9.8759,9.8839,9.9037,9.9355,9.9063,9.8813,9.8927,9.9404,9.955,9.9387,9.9075,9.9097,9.8886,9.8548,9.8395,9.866,9.9859,10.256,10.692,11.114,11.054,10.443,9.9133,9.849,9.8622,9.9021,9.9545,9.9872,9.9776,9.9652,9.9162,9.9089,9.9244,9.9464,9.9346,9.9075,9.9096,9.9338,9.9718,10.004,9.9667,9.9329,9.9111,9.9333,9.9471,9.9164,9.8962,9.8852,9.9154,9.9392,9.922,9.8966,9.9176,9.9515,9.9877,9.9779,9.9902,9.9895,10.017,10.056,10.036,10.02,10.033,10.077,10.117,10.119,10.104,10.085,10.126,10.161,10.158,10.155,10.193,10.17,10.196,10.197,10.16,10.154,10.166,10.175,10.16,10.101,10.061,10.063,10.045,10.004,9.971,9.9364,9.9544,9.9696,9.9517,9.9227,9.8826,9.8821,9.9488,9.951,9.9192,9.9056,9.9297,9.9574,9.9557,9.9095,9.8998,9.8989,9.9171,9.9424,9.9187,9.8829,9.9147,9.9512,9.9643,9.9397,9.9334,9.9144,9.9468,9.9444,9.9446,9.8988,9.8731,9.9059,9.9203,9.9168,9.8507,9.8391,9.8779,9.8983,9.8722,9.8484,9.8677,9.8615,9.8503,9.8371,9.8162,9.8048,9.817,9.8439,9.8791,9.8715,9.8511,9.8459,9.9039,9.9357,9.9332,9.9365,9.9181,9.9676,10.012,9.9993,9.9972,9.992,10.019,10.018,9.973,9.9488,9.9394,9.9526,9.9205,9.8658,9.8002,9.814,9.8561,9.8755,9.8323,9.79,9.7784,9.8104,9.8358,9.8107,9.7682,9.7698,9.791,9.8101,9.7607,9.7428,9.6927,9.6477,9.6848,9.7347,9.873,10.156,10.535,10.804,10.6,9.9826,9.5936,9.6056,9.6631,9.7308,9.7382,9.745,9.7651,9.7736,9.7769,9.7378,9.7198,9.7688,9.7716,9.7514,9.7619,9.7474,9.7593,9.7679,9.7873,9.7597,9.7227,9.7442,9.7653,9.7828,9.749,9.7383,9.7202,9.7475,9.7555,9.7337,9.7153,9.777,9.8097,9.8329,9.8069,9.8057,9.7997,9.8081,9.8777,9.8656,9.8229,9.832,9.8675,9.9005,9.9144,9.8863,9.8908,9.9195,9.9462,9.9384,9.918,9.9255,9.9576,9.9837,9.9915,9.9293,9.9162,9.8977,9.9081,9.8991,9.8369,9.7948,9.7987,9.8413,9.7855,9.7252,9.7216,9.7208,9.7395,9.7183,9.6821,9.6826,9.7062,9.7201,9.7283,9.7272,9.6905,9.6828,9.7075,9.7178,9.7084,9.6909,9.695,9.7292,9.7471,9.722,9.6927,9.7042,9.7487,9.7747,9.7421,9.7185,9.7292,9.7388,9.7504,9.726,9.6984,9.6834,9.6867,9.6987,9.679,9.637,9.6298,9.6588,9.6893,9.6459,9.6181,9.6091,9.5931,9.6403,9.6626,9.6525,9.6953,9.7037,9.7335,9.7484,9.6763,9.6711,9.7222,9.7774,9.7948,9.7495,9.7402,9.7125,9.7531,9.7102,9.6592,9.6172,9.5801,9.5994,9.623,9.5788,9.5641,9.5789,9.5847,9.6201,9.5861,9.5766,9.5569,9.5933,9.6366,9.618,9.5813,9.5753,9.5726,9.5312,9.5252,9.5508,9.7626,10.118,10.513,10.712,10.408,9.7969,9.5584,9.5066,9.5401,9.5704,9.6021,9.6532,9.6703,9.6843,9.6097,9.6156,9.6308,9.6498,9.6645,9.6591,9.6297,9.6868,9.7162,9.7325,9.6648,9.6633,9.65,9.6913,9.7145,9.6893,9.6243,9.6659,9.6871,9.6991,9.6642,9.6555,9.6999,9.7337,9.7614,9.7695,9.7397,9.755,9.8273,9.8508,9.8048,9.796,9.8044,9.8657,9.9072,9.8857,9.8808,9.9159,9.9363,9.9543,9.9736,9.9283,9.9392,9.9904,10.033,10.043,10.003,9.9459,9.9665,9.9647,9.9265,9.8792,9.8749,9.877,9.8938,9.8522,9.782,9.7671,9.795,9.812,9.7975,9.7563,9.7447,9.7773,9.8038,9.8113,9.7651,9.7579,9.7782,9.7931,9.7892,9.7507,9.7486,9.7495,9.7694,9.7829,9.7597,9.7378,9.7445,9.7441,9.7873,9.7832,9.7927,9.7372,9.7808,9.8302,9.7841,9.7472,9.7736,9.7989,9.7998,9.773,9.7579,9.7511,9.7815,9.8069,9.776,9.7103,9.7205,9.7521,9.775,9.7558,9.7139,9.7007,9.7224,9.7513,9.7583,9.7412,9.7863,9.8366,9.8641,9.868,9.8134,9.8064,9.8507,9.8921,9.9009,9.88,9.8869,9.8969,9.9171,9.8931,9.8139,9.7804,9.7575,9.7659,9.7486,9.7272,9.699,9.7297,9.7092,9.7275,9.6938,9.6745,9.7037,9.7244,9.7423,9.698,9.6484,9.6614,9.6766,9.6638,9.6037,9.5944,9.6643,9.8791,10.229,10.67,10.935,10.571,9.915,9.5592,9.5826,9.5918,9.6191,9.7048,9.7412,9.7156,9.6836,9.6716,9.6516,9.6665,9.6758,9.6574,9.654,9.68,9.704,9.6994,9.677,9.673,9.6963,9.7201,9.6974,9.6418,9.6342,9.6528,9.6743,9.6917,9.6711,9.6613,9.664,9.6982,9.7339,9.7124,9.6842,9.7061,9.7478,9.7664,9.7602,9.7498,9.7909,9.8229,9.8355,9.8134,9.8115,9.8167,9.8592,9.8921,9.8975,9.8734,9.8663,9.9025,9.9363,9.9419,9.913,9.9207,9.936,9.929,9.8876,9.8479,9.8054,9.7995,9.8026,9.7889,9.7624,9.7297,9.7052,9.7355,9.7609,9.7216,9.6964,9.7354,9.7454,9.763,9.7369,9.7389,9.7625,9.7867,9.7704,9.7235,9.7217,9.7363,9.7442,9.7416,9.7341,9.7022,9.6975,9.7193,9.7123,9.6731,9.6447,9.6621,9.6771,9.6982,9.6576,9.6262,9.6347,9.6799,9.6949,9.6774,9.6424,9.6167,9.6481,9.6446,9.596,9.5771,9.5608,9.5529,9.5655,9.5362,9.492,9.4919,9.4817,9.4996,9.4919,9.4442,9.4132,9.4302,9.4631,9.446,9.4123,9.3957,9.4158,9.4371,9.4606,9.4799,9.4726,9.5041,9.5163,9.5181,9.5252,9.5109,9.5388,9.5649,9.5674,9.5196,9.5117,9.5088,9.4978,9.4894,9.4122,9.361,9.3808,9.382,9.3661,9.3562,9.3415,9.3254,9.3251,9.3233,9.3122,9.2899,9.2987,9.3191,9.3273,9.3188,9.2812,9.2497,9.2238,9.2448,9.2964,9.5002,9.8542,10.299,10.64,10.591,9.9735,9.3761,9.2759,9.3596,9.4399,9.4459,9.4585,9.4693,9.4853,9.5078,9.4777,9.4894,9.4843,9.4912,9.524,9.5187,9.5262,9.5345,9.5545,9.5276,9.5203,9.4826,9.4996,9.5335,9.5582,9.5437,9.5313,9.5598,9.5795,9.6083,9.6146,9.5983,9.6247,9.638,9.6533,9.6331,9.6476,9.6743,9.7183,9.7371,9.7389,9.7114,9.7305,9.7331,9.751,9.7753,9.7662,9.7791,9.7751,9.7853,9.8139,9.8047,9.8043,9.7827,9.8385,9.8937,9.8561,9.8076,9.7867,9.7636,9.7531,9.6955,9.6842,9.6884,9.6542,9.6476,9.6518,9.5805,9.544,9.5637,9.55,9.5308,9.53,9.5754,9.5722,9.5766,9.5248,9.5139,9.5145,9.5396,9.5449,9.5464,9.5315,9.5252,9.5323,9.5674,9.5598,9.5406,9.5506,9.5933,9.6359,9.6262,9.6181,9.6351,9.6445,9.6825,9.6853,9.6792,9.6741,9.6834,9.6902,9.6982,9.669,9.6856,9.6802,9.6828,9.6873,9.6549,9.6337,9.6612,9.6658,9.653,9.65,9.6449,9.6473,9.6604,9.6716,9.6789,9.7015,9.7236,9.7085,9.7058,9.7282,9.7289,9.7403,9.731,9.7205,9.6485,9.6771,9.7018,9.6539,9.622,9.5306,9.447,9.4253,9.4755,9.4621,9.466,9.4263,9.3995,9.4249,9.4164,9.4381,9.3783,9.3763,9.3682,9.3701,9.3785,9.3548,9.3258,9.2752,9.2841,9.3119,9.4601,9.7509,10.12,10.4,10.152,9.5065,9.1057,9.1469,9.1971,9.2507,9.3111,9.3251,9.3495,9.3568,9.3732,9.3588,9.3694,9.3619,9.357,9.3455,9.3689,9.3643,9.3584,9.3995,9.3877,9.3687,9.3406,9.3406,9.3655,9.3701,9.3739,9.3711,9.3583,9.3581,9.3959,9.383,9.3603,9.3595,9.3677,9.4076,9.4112,9.4129,9.4359,9.4442,9.4338,9.4371,9.4452,9.4466,9.4587,9.4762,9.4801,9.4625,9.4813,9.5053,9.5332,9.5211,9.5012,9.5054,9.5109,9.5228,9.5185,9.5137,9.4815,9.4455,9.421,9.399,9.339,9.3512,9.371,9.3842,9.3645,9.3275,9.3349,9.3255,9.3379,9.3214,9.2859,9.289,9.3045,9.3223,9.2843,9.2862,9.251,9.2666,9.3273,9.2901,9.2569,9.248,9.2549,9.2652,9.2724,9.2355,9.2243,9.2577,9.2757,9.2514,9.2291,9.2457,9.2768,9.246,9.2125,9.1752,9.1864,9.1719,9.2048,9.1893,9.1483,9.131,9.1352,9.1396,9.1566,9.1523,9.1327,9.1697,9.1698,9.2124,9.242,9.2368,9.2444,9.2303,9.2036,9.2417,9.2789,9.2642,9.216,9.2131,9.1955,9.1755,9.1412,9.1287,9.1024,9.0804,9.0625,9.0653,9.0626,9.0726,9.0496,9.0351,9.0493,9.0571,9.0509,9.0417,9.0415,9.0396,9.0189,9.0702,9.0815,8.9934,8.9009,8.9084,8.9317,9.0774,9.3321,9.6628,9.953,9.9641,9.4839,8.9672,8.8213,8.9047,8.9626,9.0018,9.0372,8.9935,8.9784,8.9963,9.033,8.9986,8.9782,8.9692,8.9813,8.982,9.0062,8.987,9.0078,9.0351,9.0635,9.0161,8.9794,8.964,8.9969,9.0014,9.0224,9.0062,8.9848,8.9763,8.9704,8.9639,8.9651,8.969,8.9757,9.0156,9.0331,9.0274,9.0274,9.0252,9.0574,9.0713,9.0694,9.0312,9.068,9.0984,9.063,9.0526,9.064,9.0853,9.1145,9.1456,9.0875,9.0756,9.0943,9.1107,9.1383,9.1018,9.0463,9.0095,8.9812,9.0099,8.9852,8.947,8.9144,8.9027,8.9169,8.8915,8.8808,8.8647,8.9005,8.9342,8.9217,8.9029,8.8986,8.9019,8.9175,8.9505,8.9426,8.9087,8.8986,8.9096,8.941,8.9243,8.9353,8.9386,8.982,8.9642,8.9571,8.9707,8.9831,9.0022,9.0116,9.0431,9.0196,9.0282,9.0304,9.0494,9.0227,9.0207,9.0271,9.0307,9.0396,9.0383,9.0206,9.0207,9.1219,9.1406,9.1125,9.1372,9.1231,9.1441,9.1828,9.189,9.1925,9.2291,9.209,9.2115,9.2138,9.1535,9.1287,9.1189,9.11,9.0688,9.0296,9.0555,9.0638,9.0623,9.0849,9.0689,9.0406,9.0706,9.1053,9.1141,9.0931,9.0782,9.059,9.0848,9.0982,9.0535,8.9823,8.9932,9.056,9.2515,9.4866,9.8625,10.235,10.104,9.4363,8.948,8.9536,9.0209,9.0966,9.1689,9.1461,9.1223,9.1359,9.1463,9.1689,9.174,9.124,9.1378,9.1555,9.1814,9.1887,9.1806,9.1839,9.2007,9.2298,9.2172,9.1862,9.1851,9.2045,9.2265,9.2322,9.2253,9.2313,9.2243,9.2362,9.2541,9.2706,9.2537,9.2664,9.2855,9.3085,9.3193,9.3187,9.3439,9.3613,9.3801,9.3814,9.3946,9.4028,9.3973,9.4676,9.4495,9.4438,9.4422,9.4764,9.4945,9.4938,9.4572,9.4712,9.4959,9.4998,9.4572,9.4201,9.4038,9.3834,9.389,9.3504,9.3152,9.3013,9.3146,9.3152,9.315,9.3002,9.2807,9.2698,9.2787,9.2855,9.2567,9.2523,9.2662,9.298,9.2942,9.2376,9.2365,9.2349,9.3064,9.3245,9.266,9.2256,9.2723,9.2977,9.2966,9.2792,9.2516,9.2498,9.2936,9.2856,9.2647,9.2626,9.2683,9.3052,9.3063,9.3072,9.2637,9.2463,9.2467,9.2418,9.1968,9.2063,9.213,9.2165,9.2303,9.2188,9.1884,9.205,9.2405,9.2613,9.309,9.3334,9.3314,9.3502,9.3845,9.3778,9.3691,9.3861,9.4225,9.4315,9.3717,9.3539,9.3663,9.3407,9.327,9.3226,9.2979,9.2323,9.2251,9.1978,9.1769,9.1747,9.1701,9.1657,9.2122,9.2116,9.1938,9.1891,9.1767,9.2012,9.215,9.1697,9.1191,9.0846,9.0791,9.1399,9.1804,9.3564,9.697,10.1,10.363,10.038,9.3543,8.9727,9.0528,9.1441,9.1907,9.2285,9.2165,9.1847,9.1649,9.1676,9.1374,9.1414,9.1553,9.1825,9.195,9.217,9.1869,9.1799,9.1795,9.1935,9.1891,9.1844,9.1689,9.1722,9.161,9.1735,9.1672,9.1913,9.2399,9.1956,9.1823,9.1797,9.1833,9.2249,9.2229,9.2387,9.2562,9.2647,9.2586,9.2666,9.2451,9.2727,9.2835,9.3026,9.3101,9.3083,9.3235,9.3379,9.3644,9.4057,9.3804,9.3764,9.4494,9.4345,9.3953,9.3985,9.3857,9.3509,9.3616,9.3531,9.3217,9.2921,9.2648,9.2557,9.2514,9.2139,9.2151,9.1983,9.1931,9.2192,9.2285,9.2152,9.1965,9.1863,9.2053,9.2076,9.1641,9.1653,9.1717,9.2092,9.2132,9.174,9.1587,9.1725,9.179,9.1952,9.1661,9.1605,9.1751,9.1957,9.2376,9.1946,9.1756,9.1944,9.2061,9.1808,9.1846,9.1803,9.2213,9.2098,9.1716,9.1573,9.1804,9.2018,9.2048,9.1817,9.1659,9.1433,9.147,9.1743,9.1785,9.1761,9.1433,9.1567,9.2041,9.2344,9.2641,9.252,9.2533,9.2535,9.2842,9.2974,9.2965,9.31,9.3157,9.3428,9.3333,9.3225,9.2933,9.2727,9.2234,9.1702,9.1109,9.1116,9.1699,9.1741,9.1735,9.1381,9.1401,9.1258,9.1494,9.1482,9.1203,9.1566,9.1589,9.1698,9.1605,9.124,9.0642,9.0615,9.0791,9.1179,9.226,9.4735,9.8682,10.272,10.36,9.958,9.2607,8.9629,9.0756,9.1214,9.1623,9.1687,9.1702,9.1974,9.2318,9.1785,9.1968,9.1754,9.1506,9.1928,9.2077,9.1774,9.2177,9.2156,9.2014,9.2033,9.2251,9.2249,9.193,9.1767,9.2107,9.1624,9.1936,9.2133,9.2391,9.2252,9.1864,9.2232,9.2375,9.2944,9.2803,9.2737,9.2452,9.2897,9.3179,9.3591,9.337,9.3418,9.3409,9.3448,9.3919,9.3852,9.378,9.3999,9.414,9.4345,9.4286,9.4146,9.4433,9.469,9.455,9.4407,9.4411,9.4296,9.4266,9.426,9.3802,9.3485,9.3496,9.359,9.3446,9.2968,9.2511,9.2799,9.3285,9.3539,9.3248,9.324,9.3165,9.3334,9.3422,9.3556,9.3251,9.3325,9.3431,9.3518,9.3609,9.3394,9.3541,9.3545,9.3768,9.3861,9.3559,9.3358,9.3409,9.3788,9.3414,9.313,9.3052,9.3087,9.3117,9.277,9.2678,9.2807,9.2598,9.2513,9.247,9.2126,9.2015,9.2094,9.2077,9.2068,9.1876,9.1671,9.1585,9.1554,9.1965,9.1922,9.1674,9.1536,9.205,9.196,9.2023,9.226,9.215,9.2427,9.2387,9.2296,9.2472,9.2375,9.2495,9.2594,9.271,9.2115,9.1638,9.1488,9.102,9.0584,9.0227,9.0091,9.0352,9.0676,9.0384,9.0033,9.0058,9.0153,9.044,9.0605,9.0415,9.0761,9.0645,9.058,9.06,9.0234,8.9585,8.9561,9.0083,9.1727,9.4539,9.8118,10.114,10.001,9.3855,8.9182,8.9233,8.9566,9.0388,9.1293,9.1373,9.1348,9.1681,9.2181,9.184,9.0767,9.0739,9.1278,9.1659,9.1748,9.1483,9.112,9.1272,9.1467,9.1629,9.1299,9.0982,9.0997,9.1221,9.1676,9.1612,9.1427,9.1524,9.1409,9.1648,9.1573,9.1601,9.1738,9.1929,9.2314,9.2433,9.2385,9.2429,9.2631,9.307,9.3139,9.2981,9.3113,9.3275,9.3464,9.3446,9.3114,9.3143,9.3377,9.3782,9.3969,9.3858,9.3909,9.4137,9.4522,9.4387,9.3717,9.3573,9.3429,9.35,9.3047,9.2601,9.2041,9.1866,9.1633,9.1431,9.1278,9.1137,9.1282,9.1399,9.1786,9.137,9.0957,9.0867,9.103,9.1178,9.0825,9.0863,9.0984,9.129,9.1455,9.115,9.1227,9.1163,9.1411,9.1665,9.1752,9.1332,9.1396,9.1503,9.1764,9.1687,9.1629,9.1568,9.1669,9.1767,9.1638,9.1167,9.1158,9.1326,9.1377,9.1302,9.1169,9.0897,9.103,9.1241,9.1477,9.1322,9.1606,9.1785,9.1874,9.2135,9.1881,9.208,9.247,9.277,9.2357,9.1783,9.1454,9.1339,9.1114,9.1083,9.0442,8.9948,9.0018,9.018,9.0436,9.0226,9.0228,9.0354,9.0641,9.0935,9.1093,9.0621,9.0672,9.1423,9.1931,9.1782,9.1194,9.1214,9.151,9.2085,9.3216,9.5369,9.7056,10.066,10.378,10.342,9.7734,9.3003,9.2286,9.2993,9.369,9.3465,9.3743,9.3723,9.3833,9.3434,9.3024,9.2912,9.3324,9.3549,9.3151,9.2303,9.2341,9.232,9.2801,9.2862,9.2933,9.2013,9.1979,9.2545,9.2553,9.1949,9.2006,9.1826,9.2194,9.2534,9.2817,9.2054,9.1791,9.2518,9.3002,9.2708,9.2873,9.3142,9.3,9.3602,9.3986,9.4216,9.389,9.3869,9.4616,9.4629,9.3931,9.4726,9.4955,9.5198,9.5228,9.46,9.4644,9.4888,9.4386,9.4464,9.4115,9.3979,9.3845,9.4203,9.4327,9.3677,9.3184,9.3455,9.3494,9.352,9.3169,9.2706,9.2628,9.2738,9.2885,9.3196,9.312,9.3017,9.3116,9.2731,9.28,9.2644,9.2838,9.322,9.3366,9.3245,9.3052,9.3051,9.3827,9.3794,9.3513,9.3502,9.3315,9.3656,9.3877,9.4053,9.3439,9.3225,9.3564,9.3855,9.362,9.3592,9.378,9.4254,9.4008,9.3843,9.3948,9.4015,9.4616,9.5069,9.4669,9.412,9.4301,9.4661,9.4849,9.4896,9.438,9.4198,9.4062,9.3897,9.2956,9.268,9.2606,9.296,9.3389,9.3563,9.2875,9.2321,9.2745,9.3218,9.3225,9.2889,9.2596,9.2832,9.3256,9.3477,9.2745,9.2042,9.201,9.2523,9.4247,9.5223,9.8287,10.213,10.308,9.9521,9.375,9.1217,9.1375,9.2172,9.3119,9.2939,9.2937,9.3351,9.3424,9.3299,9.274,9.2439,9.2684,9.3474,9.3583,9.3208,9.2942,9.2724,9.3477,9.3495,9.3547,9.3643,9.3364,9.3427,9.3479,9.353,9.3425,9.3106,9.3392,9.3982,9.3989,9.3687,9.3908,9.4041,9.4349,9.4358,9.4011,9.4065,9.4358,9.4771,9.5035,9.4481,9.4701,9.5046,9.5243,9.4899,9.4973,9.5328,9.5383,9.5732,9.5921,9.5516,9.5456,9.5983,9.6253,9.5891,9.5827,9.5116,9.4719,9.5013,9.4922,9.4887,9.4338,9.4266,9.4251,9.4282,9.4131,9.3914,9.3488,9.3887,9.4415,9.4401,9.357,9.3648,9.4011,9.4154,9.4137,9.3738,9.3615,9.3873,9.4166,9.4256,9.4002,9.3982,9.4206,9.4319,9.443,9.426,9.4104,9.4147,9.4561,9.4473,9.4073,9.4028,9.4205,9.4639,9.4808,9.4549,9.4659,9.4679,9.5215,9.4973,9.5273,9.5191,9.5072,9.5174,9.534,9.48,9.4136,9.4285,9.4392,9.3876,9.3295,9.3096,9.3027,9.3411,9.3515,9.3579,9.314,9.3027,9.3462,9.3949,9.3547,9.3091,9.296,9.2994,9.34,9.327,9.257,9.2488,9.2899,9.4363,9.6996,10.04,10.349,10.372,9.8664,9.5669,9.3322,9.1761,9.2802,9.371,9.4303,9.3638,9.3853,9.3868,9.4026,9.424,9.3914,9.383,9.3853,9.3779,9.419,9.4106,9.4211,9.4371,9.462,9.468,9.4432,9.412,9.4018,9.4461,9.4799,9.4479,9.4347,9.45,9.3776,9.3627,9.4289,9.4366,9.4807,9.4855,9.4955,9.5035,9.5039,9.5416,9.5784,9.5937,9.6263,9.6181,9.5832,9.6154,9.6608,9.663,9.6548,9.6641,9.7095,9.7366,9.7323,9.7347,9.7042,9.7183,9.7375,9.7092,9.6826,9.6321,9.6305,9.6742,9.6381,9.5928,9.5604,9.5564,9.5935,9.5912,9.553,9.5128,9.5056,9.546,9.5493,9.5248,9.5187,9.5364,9.5765,9.5751,9.5127,9.5127,9.5179,9.5596,9.585,9.5723,9.5403,9.5215,9.5614,9.5912,9.5527,9.5438,9.558,9.5724,9.6253,9.6229,9.6198,9.6486,9.6653,9.682,9.6777,9.6607,9.6542,9.7121,9.7465,9.7399,9.7425,9.6954,9.6743,9.6884,9.6886,9.6505,9.63,9.601,9.5928,9.561,9.531,9.504,9.5214,9.5908,9.61,9.5614,9.507,9.4877,9.5188,9.5642,9.554,9.5394,9.5537,9.5634,9.5632,9.4765,9.4292,9.4687,9.6092,9.8513,10.221,10.624,10.734,10.297,9.6506,9.4031,9.4513,9.5444,9.598,9.6205,9.6158,9.5844,9.5845,9.5823,9.6204,9.5917,9.5358,9.5386,9.5848,9.6274,9.641,9.6375,9.6098,9.622,9.6441,9.6206,9.5728,9.5699,9.5831,9.6002,9.6204,9.6053,9.5644,9.5697,9.6108,9.6246,9.5173,9.5105,9.5801,9.6526,9.6669,9.6603,9.6746,9.6998,9.7327,9.7627,9.7079,9.7174,9.7568,9.7859,9.8228,9.7983,9.7798,9.8126,9.8466,9.8558,9.8537,9.8387,9.842,9.8612,9.8548,9.8018,9.76,9.7515,9.7441,9.745,9.6953,9.6466,9.6377,9.6395,9.6737,9.6469,9.6193,9.6056,9.5981,9.6292,9.6172,9.571,9.5775,9.6187,9.6426,9.6471,9.6196,9.5921,9.5865,9.6052,9.6013,9.5662,9.5984,9.6148,9.6376,9.6592,9.6065,9.5855,9.6065,9.6213,9.6413,9.6312,9.6313,9.6475,9.6831,9.6987,9.6935,9.7136,9.7104,9.7105,9.7323,9.7369,9.7326,9.7241,9.7406,9.7659,9.7089,9.6624,9.6517,9.6441,9.6489,9.6062,9.5326,9.5005,9.5013,9.5232,9.5042,9.4677,9.4615,9.4793,9.4975,9.4728,9.4617,9.4791,9.4714,9.4857,9.5122,9.4503,9.44,9.3946,9.3738,9.4099,9.4356,9.6289,10.021,10.511,10.762,10.342,9.6327,9.2926,9.3782,9.4324,9.4689,9.4779,9.4745,9.4966,9.4808,9.4588,9.4349,9.4435,9.4617,9.5028,9.4441,9.4124,9.44,9.486,9.4956,9.4791,9.4549,9.4499,9.4385,9.4447,9.4552,9.4373,9.4262,9.4275,9.4737,9.473,9.4557,9.467,9.5158,9.5593,9.534,9.4996,9.5255,9.5569,9.5933,9.587,9.555,9.5885,9.6209,9.6235,9.6317,9.6594,9.6867,9.6603,9.6402,9.6753,9.6642,9.6675,9.7012,9.7299,9.7358,9.6802,9.6212,9.6388,9.6408,9.627,9.5694,9.5014,9.5003,9.5151,9.4782,9.4308,9.4172,9.4085,9.4278,9.42,9.3862,9.3649,9.3838,9.4037,9.4079,9.3849,9.3641,9.3677,9.3893,9.4019,9.3702,9.3224,9.3473,9.3816,9.3737,9.3371,9.3033,9.3082,9.3326,9.3706,9.3576,9.3406,9.3362,9.364,9.416,9.4344,9.417,9.4288,9.404,9.4443,9.4704,9.4588,9.456,9.4727,9.4918,9.4641,9.4373,9.4097,9.3986,9.3896,9.3709,9.2914,9.2361,9.2245,9.2443,9.2693,9.2329,9.1954,9.207,9.2113,9.2355,9.2205,9.2118,9.2096,9.2566,9.2766,9.2217,9.184,9.1316,9.1118,9.1204,9.1555,9.321,9.5924,10.033,10.43,10.292,9.6018,9.083,9.0888,9.1798,9.2252,9.2442,9.2207,9.2413,9.2389,9.1963,9.1785,9.1892,9.1987,9.2074,9.2135,9.1962,9.1852,9.199,9.2316,9.2312,9.1966,9.1756,9.1769,9.2058,9.2127,9.1876,9.1398,9.1676,9.2276,9.2306,9.2235,9.2247,9.2229,9.2594,9.2989,9.2798,9.2642,9.2863,9.3481,9.3765,9.3216,9.213,9.2883,9.3653,9.3864,9.3714,9.3709,9.4093,9.4355,9.4771,9.4193,9.4173,9.4449,9.4953,9.5224,9.5001,9.462,9.4563,9.4474,9.427,9.4106,9.3682,9.3348,9.3407,9.3732,9.3031,9.2664,9.2605,9.2901,9.2994,9.2911,9.2874,9.2886,9.2915,9.3225,9.3441,9.2974,9.2905,9.3178,9.335,9.3367,9.2811,9.2827,9.3168,9.3328,9.3479,9.3102,9.2764,9.2901,9.3284,9.3645,9.3657,9.377,9.4127,9.4296,9.4489,9.4326,9.4121,9.4099,9.4625,9.4859,9.454,9.3988,9.3807,9.395,9.3968,9.338,9.2688,9.2222,9.2359,9.2503,9.2029,9.1922,9.1919,9.2056,9.2226,9.2189,9.1679,9.1916,9.182,9.2098,9.1963,9.1607,9.1538,9.1473,9.1378,9.0702,9.0778,9.1482,9.3845,9.7771,10.221,10.402,10.287,9.6591,9.1354,9.1173,9.1624,9.2066,9.2103,9.2345,9.2348,9.2077,9.2052,9.228,9.2609,9.2614,9.2036,9.224,9.2735,9.3012,9.2589,9.238,9.2246,9.2284,9.2525,9.2732,9.2679,9.2291,9.2252,9.2637,9.2957,9.2916,9.2891,9.2835,9.328,9.3525,9.3467,9.3461,9.3268,9.3963,9.4209,9.4013,9.3759,9.4235,9.4355,9.4677,9.4763,9.447,9.4589,9.5017,9.53,9.5263,9.5084,9.4966,9.5427,9.5367,9.5533,9.5183,9.5127,9.5134,9.5156,9.4782,9.4447,9.3957,9.3933,9.4062,9.3861,9.3473,9.3279,9.3109,9.2962,9.3153,9.2881,9.2813,9.3003,9.3242,9.3244,9.2957,9.2874,9.3198,9.3631,9.3411,9.3416,9.3239,9.3056,9.346,9.3796,9.3589,9.3363,9.3244,9.34,9.3724,9.3558,9.3628,9.3911,9.369,9.3875,9.4149,9.4293,9.4577,9.4862,9.5006,9.5017,9.4835,9.4945,9.5439,9.5642,9.5762,9.5304,9.5359,9.517,9.5123,9.4675,9.4074,9.335,9.3416,9.3858,9.3879,9.3579,9.3441,9.3546,9.3801,9.3856,9.3659,9.3359,9.3416,9.3792,9.4006,9.3723,9.3489,9.3319,9.3278,9.3094,9.2264,9.2695,9.3814,9.6588,10.089,10.482,10.482,9.8741,9.3155,9.244,9.3076,9.3215,9.3475,9.3966,9.3916,9.3793,9.3381,9.3516,9.3874,9.4252,9.3807,9.3412,9.3561,9.3948,9.4241,9.4214,9.3938,9.381,9.3828,9.3864,9.3859,9.3682,9.3621,9.3981,9.4155,9.4362,9.4207,9.3801,9.4347,9.4764,9.4629,9.4632,9.4661,9.5032,9.5475,9.5573,9.5539,9.5348,9.5545,9.6082,9.6157,9.6059,9.5753,9.5867,9.65,9.6809,9.6534,9.6101,9.6408,9.6759,9.7369,9.7157,9.6815,9.6729,9.6742,9.6814,9.6271,9.5878,9.5951,9.6194,9.6252,9.5909,9.5199,9.4742,9.51,9.5464,9.5445,9.5214,9.5165,9.5176,9.5392,9.5449,9.5327,9.5185,9.534,9.5766,9.5703,9.5602,9.5379,9.5382,9.5706,9.5789,9.577,9.5624,9.585,9.596,9.6219,9.5759,9.5584,9.5871,9.6247,9.6417,9.5839,9.5731,9.575,9.6018,9.6395,9.6525,9.665,9.6552,9.6692,9.6851,9.6838,9.6758,9.7014,9.6953,9.7461,9.725,9.6679,9.6701,9.6669,9.6659,9.6079,9.5626,9.5306,9.5234,9.5324,9.4995,9.4915,9.4996,9.5255,9.5441,9.5202,9.4925,9.4769,9.5094,9.5524,9.5606,9.4959,9.4671,9.4537,9.4344,9.3997,9.3937,9.5213,9.795,10.223,10.584,10.531,9.866,9.3694,9.3472,9.402,9.4418,9.4819,9.5382,9.5248,9.5233,9.499,9.4536,9.4707,9.5026,9.5152,9.5071,9.4839,9.5058,9.5168,9.5773,9.5323,9.5046,9.5015,9.5137,9.5218,9.514,9.4748,9.5014,9.5212,9.5551,9.5373,9.5357,9.5431,9.5586,9.5978,9.613,9.6003,9.5967,9.6385,9.6597,9.6839,9.6389,9.6488,9.6543,9.6988,9.7426,9.6803,9.6708,9.6956,9.7336,9.7526,9.7479,9.7262,9.7443,9.7862,9.7996,9.7537,9.7432,9.7419,9.7478,9.7448,9.6743,9.6291,9.618,9.6318,9.6399,9.6418,9.583,9.538,9.558,9.5675,9.5579,9.535,9.5593,9.5469,9.5829,9.5682,9.501,9.5271,9.5443,9.5734,9.5556,9.5399,9.5315,9.5439,9.5647,9.5732,9.5483,9.5553,9.5687,9.6118,9.6073,9.5884,9.5469,9.5581,9.5758,9.5598,9.5323,9.5553,9.5867,9.6454,9.6435,9.6221,9.6034,9.6141,9.6351,9.6611,9.6601,9.6666,9.6805,9.6873,9.6843,9.6255,9.5798,9.5667,9.5714,9.5551,9.4613,9.4411,9.4486,9.4817,9.4957,9.4426,9.4389,9.4558,9.456,9.4775,9.4747,9.4358,9.438,9.4678,9.4829,9.471,9.4204,9.3375,9.3341,9.4244,9.5949,9.8576,10.223,10.475,10.304,9.6791,9.2894,9.2577,9.337,9.4302,9.4791,9.4543,9.4286,9.4715,9.4964,9.4851,9.4512,9.4381,9.4691,9.5105,9.5106,9.4806,9.4788,9.4899,9.5109,9.5192,9.4837,9.4744,9.4753,9.5204,9.5527,9.5219,9.4852,9.4802,9.5142,9.5613,9.5489,9.556,9.5638,9.5553,9.5733,9.5732,9.5681,9.5927,9.6356,9.649,9.6415,9.6235,9.6401,9.658,9.7005,9.6865,9.6686,9.6398,9.6619,9.7196,9.7006,9.6822,9.6896,9.7322,9.7513,9.6947,9.6334,9.6312,9.6313,9.6404,9.5991,9.5438,9.5326,9.5413,9.5667,9.5455,9.4968,9.4902,9.5097,9.5441,9.5337,9.4986,9.5161,9.5069,9.5194,9.5275,9.4975,9.4824,9.4986,9.5282,9.5644,9.5305,9.5216,9.531,9.5462,9.5728,9.5518,9.5391,9.5235,9.5469,9.5696,9.5571,9.5513,9.5741,9.59,9.6165,9.6155,9.6007,9.6105,9.6475,9.6778,9.6674,9.6706,9.6733,9.6762,9.6837,9.6906,9.6256,9.6,9.5754,9.5722,9.5195,9.4766,9.4629,9.4713,9.518,9.5172,9.4746,9.4537,9.4654,9.503,9.503,9.4563,9.4512,9.4424,9.4728,9.4906,9.4309,9.3574,9.3428,9.4087,9.5374,9.7663,10.133,10.401,10.398,9.8912,9.3737,9.2439,9.3161,9.421,9.4752,9.4689,9.434,9.4288,9.4383,9.4648,9.4428,9.4258,9.4324,9.4716,9.4914,9.4835,9.4498,9.4528,9.4769,9.5211,9.4838,9.4383,9.4233,9.4377,9.4704,9.4556,9.4411,9.4468,9.4648,9.4865,9.4919,9.4752,9.4697,9.5123,9.5378,9.5525,9.5463,9.5368,9.5644,9.5949,9.5711,9.5525,9.5693,9.5792,9.6235,9.6236,9.6057,9.5987,9.6052,9.6524,9.7018,9.6666,9.6376,9.6571,9.6504,9.6566,9.6233,9.5894,9.6016,9.6049,9.5949,9.5414,9.4926,9.4987,9.5287,9.5305,9.4883,9.4801,9.4549,9.4878,9.5068,9.4951,9.4585,9.4707,9.5068,9.5112,9.4908,9.4512,9.469,9.4779,9.5073,9.5029,9.4812,9.4754,9.4819,9.4991,9.4915,9.4748,9.4661,9.4611,9.5063,9.5207,9.5156,9.5086,9.533,9.5708,9.5884,9.5292,9.5139,9.5401,9.6093,9.6126,9.589,9.5736,9.5771,9.5592,9.5421,9.517,9.4746,9.441,9.4516,9.4535,9.4198,9.4039,9.4201,9.4364,9.4657
