1.5508,1.552,1.5744,1.58,1.5778,1.5732,1.588,1.6044,1.586,1.5981,1.6125,1.6161,1.5971,1.5692,1.5754,1.6119,1.5992,1.5747,1.547,1.5399,1.5574,1.5473,1.5016,1.5052,1.5284,1.5526,1.55,1.506,1.5176,1.5205,1.5327,1.5443,1.5271,1.5117,1.52,1.5351,1.5328,1.5324,1.5116,1.5118,1.5275,1.5193,1.5264,1.5044,1.5245,1.5507,1.5222,1.5269,1.5351,1.5215,1.5197,1.538,1.5546,1.5357,1.5107,1.5438,1.5367,1.5271,1.525,1.5189,1.5312,1.5349,1.517,1.53,1.5224,1.5259,1.5176,1.5453,1.5201,1.5171,1.5155,1.5162,1.5201,1.5242,1.5162,1.5136,1.5098,1.5321,1.5223,1.4989,1.4869,1.5084,1.5021,1.5213,1.4937,1.4828,1.5148,1.5297,1.519,1.4918,1.4802,1.5032,1.5292,1.5009,1.5045,1.5163,1.496,1.518,1.5153,1.5207,1.4853,1.5073,1.5211,1.5038,1.5157,1.4998,1.4971,1.5288,1.5204,1.502,1.4907,1.4975,1.5082,1.5264,1.5323,1.5091,1.4972,1.5376,1.5329,1.5269,1.5369,1.5541,1.5688,1.5541,1.5748,1.5928,1.6016,1.6125,1.6181,1.5923,1.5552,1.5249,1.5687,1.563,1.4912,1.4686,1.4968,1.4714,1.5102,1.4939,1.4848,1.4904,1.4938,1.4902,1.4864,1.5088,1.5057,1.4813,1.4821,1.4583,1.4442,1.3207,1.3084,1.3305,1.4453,1.5436,1.8851,2.3417,2.7088,2.91,3.2216,3.0067,2.3534,1.7708,1.3103,1.1591,1.0001,0.96024,1.1077,1.2675,1.358,1.4625,1.4458,1.4828,1.4922,1.5068,1.4899,1.4915,1.5175,1.5355,1.524,1.5264,1.4936,1.5395,1.5451,1.5358,1.5268,1.5381,1.5124,1.5215,1.549,1.5462,1.5425,1.5304,1.5257,1.5496,1.5566,1.5295,1.5127,1.5441,1.5671,1.5696,1.5461,1.5405,1.5479,1.5721,1.5682,1.5613,1.5628,1.5519,1.5838,1.5748,1.5593,1.56,1.5727,1.5839,1.5781,1.5703,1.5757,1.5589,1.5997,1.5732,1.604,1.5832,1.5828,1.6203,1.5951,1.609,1.6093,1.6009,1.6273,1.6217,1.6273,1.6328,1.6418,1.6596,1.6609,1.6596,1.6453,1.6546,1.6355,1.6292,1.6506,1.647,1.6197,1.5773,1.6067,1.614,1.6049,1.6108,1.5751,1.5996,1.5906,1.5888,1.5845,1.5559,1.6041,1.5659,1.5656,1.5885,1.5727,1.5665,1.5906,1.5749,1.5651,1.5624,1.5707,1.5776,1.572,1.5453,1.5451,1.5742,1.5619,1.5547,1.5929,1.5557,1.551,1.5996,1.5671,1.5566,1.5577,1.5484,1.5761,1.5585,1.5291,1.5403,1.5455,1.562,1.542,1.5278,1.5562,1.5516,1.5375,1.5273,1.5365,1.5524,1.5242,1.5469,1.5376,1.5605,1.5359,1.5279,1.5291,1.5404,1.5346,1.5232,1.5246,1.5258,1.5354,1.5359,1.5008,1.5272,1.5255,1.543,1.5417,1.5385,1.5145,1.515,1.5451,1.5212,1.5395,1.521,1.5558,1.5389,1.5513,1.5271,1.5354,1.5195,1.5166,1.5465,1.5411,1.5385,1.5136,1.5303,1.5243,1.5392,1.528,1.5409,1.5169,1.5443,1.5615,1.5423,1.5479,1.5311,1.5309,1.5567,1.5749,1.5672,1.5759,1.5826,1.5951,1.6107,1.5977,1.5879,1.609,1.6194,1.5999,1.5773,1.562,1.5875,1.5797,1.5431,1.5186,1.5141,1.5135,1.5204,1.4897,1.4876,1.4847,1.5307,1.5291,1.5152,1.5041,1.4964,1.5208,1.4959,1.4715,1.456,1.3902,1.3665,1.382,1.4196,1.6375,2.1034,2.5359,2.8334,2.9858,3.1345,2.7582,2.0965,1.572,1.2238,1.1572,0.998,0.98599,1.0467,1.1397,1.2706,1.3989,1.4809,1.5315,1.5014,1.523,1.5112,1.5252,1.5316,1.5363,1.5393,1.5299,1.5242,1.5539,1.556,1.5399,1.5245,1.5555,1.5416,1.5517,1.5472,1.5422,1.5483,1.5583,1.5753,1.5666,1.5681,1.5621,1.5635,1.5909,1.5776,1.5689,1.5618,1.5595,1.5669,1.5783,1.5675,1.5742,1.583,1.5899,1.5864,1.5442,1.5636,1.5896,1.592,1.6005,1.6081,1.5746,1.5709,1.5951,1.591,1.5807,1.5851,1.5942,1.6096,1.6065,1.5897,1.5946,1.6135,1.6155,1.6228,1.6594,1.6383,1.6471,1.6385,1.6517,1.6713,1.6423,1.6781,1.6542,1.6584,1.6449,1.6473,1.6327,1.6207,1.6205,1.6142,1.6119,1.6001,1.5828,1.5874,1.6025,1.5668,1.5699,1.5746,1.5737,1.5748,1.5843,1.5853,1.5823,1.6043,1.5901,1.5745,1.5629,1.5739,1.5661,1.5958,1.5907,1.6015,1.5937,1.5704,1.5796,1.5837,1.5804,1.5872,1.5623,1.5614,1.58,1.5956,1.5605,1.5832,1.5683,1.5845,1.5668,1.5692,1.5797,1.5675,1.575,1.5833,1.5752,1.5707,1.5456,1.5552,1.5605,1.5441,1.539,1.5632,1.5438,1.559,1.566,1.5287,1.543,1.5544,1.5655,1.5481,1.5506,1.5431,1.5498,1.5516,1.5519,1.5465,1.5372,1.5572,1.5431,1.5067,1.5534,1.5573,1.5605,1.5469,1.55,1.5275,1.5605,1.5726,1.5836,1.5846,1.5866,1.5886,1.6265,1.5824,1.5999,1.612,1.6176,1.6238,1.6216,1.6285,1.5941,1.601,1.5887,1.5846,1.5352,1.4968,1.5085,1.5054,1.5263,1.5348,1.5062,1.4879,1.5154,1.5405,1.5099,1.4726,1.4898,1.5092,1.536,1.5271,1.4981,1.4296,1.3582,1.3494,1.394,1.5574,1.9302,2.162,2.5485,2.8405,3.0005,3.2196,2.7224,2.0944,1.522,1.1937,1.0714,0.98724,1.0188,1.1687,1.2955,1.4023,1.5096,1.4939,1.5133,1.5163,1.5173,1.5132,1.5222,1.5458,1.5497,1.5405,1.5437,1.4999,1.5489,1.5471,1.5436,1.5429,1.5398,1.5539,1.5764,1.5539,1.5515,1.521,1.5589,1.561,1.5319,1.5428,1.5509,1.5511,1.5661,1.5658,1.5464,1.5752,1.552,1.5631,1.5785,1.5505,1.552,1.5579,1.5536,1.5487,1.5498,1.5782,1.5546,1.5639,1.5611,1.5661,1.5674,1.569,1.5881,1.6205,1.5646,1.5642,1.581,1.5961,1.585,1.5916,1.5919,1.5992,1.6068,1.6323,1.603,1.6232,1.6352,1.6412,1.6402,1.6089,1.608,1.6079,1.6365,1.6504,1.6129,1.6068,1.5937,1.5742,1.576,1.578,1.5631,1.5478,1.5482,1.5663,1.5588,1.5217,1.5153,1.5462,1.5616,1.5636,1.563,1.5024,1.5405,1.5344,1.5409,1.5434,1.5303,1.543,1.5379,1.5561,1.5387,1.53,1.5397,1.5593,1.5399,1.5256,1.5481,1.5361,1.5273,1.5266,1.533,1.5251,1.5393,1.5442,1.5207,1.5451,1.523,1.513,1.5267,1.5464,1.5466,1.5112,1.5048,1.5348,1.5405,1.5385,1.5186,1.5011,1.4968,1.5135,1.5296,1.5109,1.4999,1.5113,1.5001,1.5053,1.5369,1.5035,1.5365,1.5362,1.5245,1.5397,1.4869,1.4945,1.5234,1.5136,1.5159,1.5002,1.4998,1.5041,1.5185,1.5154,1.495,1.5035,1.5092,1.5186,1.5129,1.4932,1.499,1.4853,1.5073,1.5154,1.5418,1.5054,1.52,1.4895,1.507,1.5202,1.5184,1.5562,1.5782,1.5303,1.5543,1.5495,1.5574,1.6011,1.5952,1.6053,1.5597,1.548,1.5454,1.5293,1.4934,1.4674,1.4409,1.4932,1.4809,1.4726,1.4643,1.4757,1.4585,1.4802,1.4716,1.4515,1.4786,1.4586,1.4919,1.4884,1.4585,1.4159,1.3356,1.3236,1.315,1.4169,1.7005,2.1526,2.3924,2.7365,2.9341,3.2066,2.9587,2.2936,1.7103,1.2462,1.0892,0.93249,0.99565,1.0909,1.2525,1.375,1.4557,1.4635,1.49,1.459,1.4728,1.4833,1.5017,1.5006,1.5181,1.4839,1.4874,1.5033,1.5431,1.5032,1.5019,1.5024,1.5048,1.4983,1.5229,1.5124,1.5124,1.52,1.513,1.5253,1.5022,1.5056,1.5124,1.5114,1.5364,1.5317,1.4987,1.4947,1.5216,1.5257,1.5359,1.5159,1.5211,1.5575,1.5572,1.5181,1.5121,1.5173,1.5419,1.5566,1.5518,1.5233,1.5395,1.5446,1.539,1.5705,1.5509,1.5562,1.5745,1.5641,1.5587,1.5854,1.5669,1.6035,1.5941,1.6012,1.5911,1.5928,1.5941,1.602,1.6408,1.6294,1.6126,1.6522,1.6223,1.6121,1.6041,1.5673,1.5834,1.5755,1.5781,1.559,1.5518,1.545,1.5254,1.5374,1.5347,1.5489,1.534,1.5388,1.5159,1.5253,1.5298,1.4993,1.4995,1.5541,1.5405,1.5396,1.5144,1.5036,1.5251,1.5352,1.5153,1.5157,1.5203,1.53,1.5155,1.5132,1.4912,1.5133,1.5125,1.5167,1.496,1.4916,1.5172,1.5032,1.5011,1.4805,1.5002,1.4889,1.487,1.4831,1.4948,1.4803,1.4744,1.5002,1.5074,1.5024,1.4719,1.4892,1.4754,1.4615,1.4945,1.4901,1.478,1.4906,1.4968,1.488,1.4792,1.466,1.4743,1.4847,1.4858,1.458,1.4768,1.4601,1.4774,1.4971,1.481,1.4573,1.452,1.4764,1.4723,1.4933,1.4525,1.4256,1.4851,1.4765,1.4602,1.4431,1.4673,1.4754,1.4782,1.4675,1.4336,1.4673,1.4546,1.4691,1.4604,1.46,1.4637,1.4515,1.458,1.4538,1.4754,1.4663,1.4747,1.4919,1.4927,1.5178,1.5148,1.5057,1.5308,1.5466,1.5339,1.5255,1.5319,1.5498,1.5386,1.5126,1.492,1.4763,1.4429,1.442,1.4305,1.4145,1.4259,1.4366,1.4504,1.4439,1.43,1.4292,1.4611,1.4226,1.4315,1.4368,1.4418,1.403,1.3719,1.3269,1.2846,1.2785,1.2973,1.4889,1.8838,2.3262,2.6567,2.8145,3.0313,2.8372,2.1959,1.5588,1.1901,1.059,0.92565,0.96282,0.9433,1.0769,1.2261,1.2801,1.357,1.4446,1.4223,1.4367,1.4416,1.4632,1.4525,1.458,1.4637,1.4813,1.4681,1.4592,1.4584,1.4604,1.5186,1.4948,1.4941,1.4918,1.4654,1.4603,1.4864,1.4891,1.4951,1.5026,1.5188,1.5027,1.5018,1.4903,1.5051,1.4934,1.5352,1.522,1.5012,1.5264,1.5277,1.5129,1.5174,1.5154,1.4915,1.5038,1.5318,1.5199,1.5462,1.5337,1.5163,1.5406,1.5372,1.536,1.5149,1.5303,1.5594,1.549,1.5347,1.5571,1.5703,1.5747,1.5694,1.5432,1.5579,1.5706,1.5775,1.6091,1.6172,1.5998,1.6011,1.627,1.6173,1.6241,1.6057,1.5789,1.61,1.5998,1.5817,1.5764,1.5575,1.5663,1.5498,1.5509,1.5488,1.5305,1.5496,1.54,1.5402,1.5419,1.5185,1.5261,1.5356,1.5457,1.5524,1.5435,1.5415,1.56,1.5428,1.5234,1.5341,1.5545,1.5697,1.532,1.5488,1.5507,1.5424,1.5375,1.5602,1.5652,1.5165,1.5195,1.5316,1.5659,1.5455,1.5292,1.5356,1.5562,1.5552,1.5427,1.5281,1.5301,1.5602,1.5422,1.5543,1.5197,1.5105,1.5193,1.543,1.5453,1.5199,1.5139,1.5262,1.547,1.5436,1.4765,1.5114,1.5033,1.5474,1.5513,1.507,1.5101,1.4948,1.5227,1.5353,1.5172,1.5506,1.5666,1.5727,1.5742,1.5666,1.542,1.5778,1.6115,1.5983,1.6025,1.5746,1.5724,1.5385,1.5402,1.5649,1.5117,1.476,1.4673,1.4817,1.5106,1.4648,1.4727,1.4654,1.4766,1.4908,1.4868,1.4709,1.4779,1.5049,1.4822,1.4966,1.4555,1.3906,1.3603,1.3342,1.3392,1.4058,1.5109,1.8516,2.3302,2.6911,2.8498,3.1316,2.9838,2.369,1.7669,1.2861,1.0923,0.95048,0.97616,1.0744,1.1781,1.2865,1.4328,1.4551,1.4858,1.4592,1.4649,1.481,1.4834,1.4967,1.5116,1.4759,1.5007,1.4999,1.5134,1.5004,1.501,1.5028,1.5366,1.5097,1.5295,1.5102,1.529,1.5235,1.5042,1.5281,1.5213,1.4947,1.4991,1.5501,1.5548,1.5174,1.4992,1.5088,1.5381,1.5378,1.5146,1.5403,1.5235,1.5253,1.5497,1.5475,1.521,1.5155,1.558,1.5797,1.5499,1.552,1.5517,1.5723,1.5572,1.5308,1.5569,1.5649,1.5574,1.5736,1.5722,1.579,1.5724,1.5798,1.5901,1.612,1.6088,1.6217,1.6245,1.6242,1.6278,1.6297,1.6099,1.6203,1.6162,1.6385,1.6056,1.5501,1.5865,1.5844,1.5868,1.5597,1.5443,1.5589,1.531,1.5465,1.5531,1.5394,1.5341,1.5393,1.545,1.5542,1.5499,1.5379,1.5301,1.5302,1.5415,1.5381,1.5457,1.5742,1.5546,1.542,1.5506,1.5593,1.5536,1.5416,1.5429,1.5384,1.5364,1.5496,1.5517,1.5473,1.549,1.5465,1.5482,1.5501,1.5401,1.5323,1.5185,1.5178,1.5448,1.5502,1.5199,1.5407,1.5214,1.546,1.5198,1.5532,1.524,1.4978,1.5267,1.5541,1.5185,1.5282,1.5234,1.5142,1.5436,1.5032,1.4923,1.5317,1.4979,1.5506,1.5501,1.4822,1.5167,1.4958,1.5214,1.542,1.5365,1.5166,1.5293,1.5653,1.5706,1.5726,1.5859,1.5756,1.5867,1.5976,1.6059,1.6042,1.6024,1.5997,1.6151,1.5614,1.559,1.552,1.5479,1.5154,1.4899,1.4918,1.4978,1.4926,1.486,1.497,1.4611,1.498,1.4943,1.4861,1.4908,1.4828,1.4734,1.4996,1.4979,1.4784,1.3658,1.3279,1.3241,1.3778,1.4937,1.8379,2.3023,2.6771,2.882,3.1535,3.0629,2.3995,1.8009,1.3089,1.1247,0.98099,0.96075,1.0321,1.2087,1.3595,1.4219,1.4566,1.4773,1.4805,1.4971,1.4715,1.5115,1.4855,1.51,1.5096,1.5055,1.4758,1.5024,1.5138,1.5153,1.5016,1.4981,1.5216,1.5191,1.5125,1.4982,1.4941,1.5316,1.5284,1.5023,1.5314,1.533,1.5158,1.5011,1.5294,1.5602,1.5267,1.5116,1.5323,1.5515,1.547,1.5132,1.5258,1.5224,1.546,1.554,1.5369,1.5172,1.5277,1.5319,1.558,1.5618,1.542,1.5413,1.5466,1.5632,1.5732,1.5599,1.5809,1.5827,1.604,1.5964,1.5878,1.5857,1.6163,1.633,1.6117,1.6121,1.6218,1.6374,1.6613,1.6434,1.6054,1.6206,1.6259,1.6232,1.6224,1.6087,1.6166,1.6084,1.6034,1.5696,1.5693,1.5632,1.5522,1.6016,1.5754,1.5742,1.5702,1.5625,1.5472,1.5648,1.5716,1.5616,1.5629,1.5563,1.6017,1.566,1.5513,1.574,1.5707,1.5623,1.5526,1.5392,1.5358,1.531,1.5643,1.5814,1.56,1.5362,1.5466,1.5526,1.5504,1.5799,1.5358,1.5309,1.543,1.5502,1.5492,1.5186,1.5488,1.544,1.5159,1.5283,1.538,1.5282,1.5323,1.5263,1.5275,1.4943,1.5268,1.5223,1.5282,1.5236,1.5101,1.5193,1.5297,1.578,1.5665,1.5304,1.5644,1.5626,1.5904,1.5896,1.6088,1.6066,1.6018,1.623,1.6195,1.614,1.5669,1.5825,1.58,1.5793,1.5224,1.4714,1.4777,1.4796,1.46,1.5027,1.4818,1.5029,1.5034,1.4993,1.5001,1.4712,1.4738,1.4939,1.486,1.4985,1.4995,1.4826,1.4532,1.3817,1.315,1.3278,1.3634,1.5747,2.0455,2.4827,2.8043,2.9181,3.2283,2.8575,2.1869,1.5582,1.3364,1.1248,0.97637,0.98568,1.021,1.2139,1.3583,1.4779,1.4668,1.5009,1.4861,1.5017,1.5059,1.5321,1.5,1.5098,1.493,1.527,1.5225,1.5239,1.507,1.5413,1.5251,1.5572,1.53,1.5588,1.5203,1.5279,1.5397,1.5674,1.5375,1.5408,1.5387,1.5691,1.53,1.5448,1.5332,1.5497,1.5692,1.5694,1.5574,1.5511,1.5315,1.5309,1.5633,1.564,1.5793,1.5445,1.5787,1.5814,1.5698,1.5732,1.58,1.5673,1.585,1.5674,1.5648,1.5795,1.5984,1.5991,1.5849,1.6013,1.5879,1.5941,1.6129,1.6156,1.607,1.6264,1.6308,1.6676,1.6653,1.6445,1.6368,1.6493,1.6682,1.6407,1.6349,1.6241,1.6363,1.6344,1.6039,1.5883,1.5927,1.5971,1.5893,1.5855,1.5886,1.5605,1.56,1.5621,1.5919,1.5988,1.5751,1.5532,1.5929,1.5877,1.5987,1.5703,1.5374,1.5377,1.5804,1.6012,1.5695,1.552,1.577,1.5772,1.5913,1.5687,1.5785,1.5566,1.5668,1.5722,1.5635,1.5717,1.568,1.5938,1.5826,1.5405,1.545,1.5301,1.5605,1.5875,1.569,1.5495,1.5471,1.5429,1.5793,1.5479,1.5445,1.5639,1.5742,1.5682,1.5629,1.5437,1.5545,1.5563,1.5545,1.5604,1.5451,1.5489,1.5618,1.5591,1.5494,1.5457,1.5282,1.568,1.5613,1.5575,1.5555,1.548,1.5461,1.5439,1.5522,1.551,1.5571,1.5651,1.5566,1.5678,1.5691,1.5463,1.5825,1.5577,1.6164,1.5961,1.5721,1.6198,1.6198,1.6285,1.6164,1.6181,1.6285,1.6405,1.6381,1.592,1.5514,1.5653,1.5015,1.5366,1.5114,1.5313,1.529,1.5284,1.5026,1.5334,1.528,1.5101,1.4993,1.5168,1.5375,1.5226,1.522,1.5174,1.5257,1.4397,1.3718,1.3465,1.3732,1.5226,1.6625,2.0848,2.5591,2.7903,2.9654,3.178,2.8022,2.1253,1.5686,1.2168,1.1097,0.99081,1.0093,1.0733,1.2142,1.3823,1.4924,1.5068,1.5527,1.5341,1.5478,1.541,1.538,1.5205,1.5385,1.5739,1.5594,1.5588,1.559,1.5325,1.5791,1.557,1.5418,1.5317,1.5689,1.5894,1.5588,1.5642,1.5494,1.556,1.5707,1.568,1.5723,1.5645,1.5676,1.5718,1.5879,1.5877,1.5616,1.5589,1.5747,1.576,1.5579,1.5555,1.5825,1.566,1.5836,1.5646,1.5677,1.5704,1.5979,1.5925,1.5579,1.5956,1.5679,1.5749,1.5923,1.6118,1.5745,1.5847,1.5862,1.5895,1.6207,1.6177,1.5959,1.6258,1.6111,1.631,1.6405,1.6376,1.6469,1.668,1.6713,1.669,1.6429,1.662,1.64,1.6471,1.6374,1.6195,1.6324,1.6079,1.6164,1.6053,1.6043,1.5966,1.5926,1.6149,1.6235,1.6291,1.594,1.6104,1.6347,1.6029,1.593,1.5822,1.5885,1.6159,1.62,1.5848,1.5744,1.5535,1.5865,1.6124,1.5957,1.5768,1.5945,1.6094,1.6186,1.5978,1.5787,1.5858,1.607,1.6185,1.6207,1.6127,1.5865,1.5837,1.5709,1.6089,1.612,1.5959,1.5935,1.5918,1.5713,1.5756,1.5804,1.5851,1.5972,1.5752,1.5708,1.5612,1.5831,1.561,1.5674,1.5599,1.5468,1.5749,1.5717,1.5712,1.5795,1.5689,1.5702,1.5852,1.5902,1.6283,1.5959,1.603,1.6147,1.621,1.6624,1.6418,1.6419,1.6642,1.6385,1.6304,1.6378,1.6097,1.61,1.6086,1.5492,1.5436,1.526,1.5441,1.5408,1.5544,1.5449,1.5227,1.5172,1.521,1.5474,1.5353,1.5052,1.5206,1.5543,1.5476,1.5517,1.4804,1.3863,1.3876,1.3765,1.4227,1.6677,2.1131,2.5518,2.8029,2.9792,3.1019,3.0103,2.4436,1.8282,1.3863,1.1644,1.0427,1.0346,1.0864,1.1873,1.3283,1.4029,1.5149,1.5707,1.5366,1.532,1.535,1.53,1.5488,1.562,1.5653,1.5348,1.5721,1.5785,1.5774,1.5709,1.5534,1.5616,1.5798,1.6095,1.5754,1.5632,1.5851,1.5797,1.5885,1.5711,1.5661,1.5748,1.5737,1.6089,1.5995,1.5868,1.5658,1.5778,1.6269,1.6264,1.58,1.5852,1.5781,1.5912,1.6117,1.5785,1.5988,1.5993,1.6151,1.5802,1.5839,1.5852,1.5868,1.5857,1.6048,1.6214,1.6183,1.6027,1.6074,1.6109,1.615,1.6182,1.6277,1.6297,1.6351,1.6691,1.6471,1.657,1.6481,1.6541,1.6767,1.6649,1.6503,1.6678,1.6652,1.657,1.634,1.6355,1.6237,1.6193,1.6271,1.5941,1.5918,1.5971,1.6056,1.6033,1.5703,1.5673,1.5965,1.5991,1.5932,1.6029,1.5698,1.5937,1.5831,1.5886,1.5885,1.5912,1.5854,1.5698,1.5802,1.622,1.5722,1.5661,1.5863,1.5879,1.5835,1.5761,1.5756,1.598,1.6092,1.5987,1.6016,1.5688,1.5742,1.5803,1.5807,1.5715,1.558,1.5605,1.5886,1.6033,1.5862,1.5456,1.5285,1.5898,1.5867,1.5697,1.5704,1.5776,1.5817,1.5751,1.5911,1.5749,1.5525,1.5331,1.5786,1.5727,1.575,1.5626,1.5636,1.577,1.5666,1.5459,1.5508,1.5394,1.5757,1.5923,1.5646,1.5647,1.5666,1.5705,1.5464,1.5654,1.5516,1.5581,1.5525,1.564,1.5946,1.5629,1.612,1.6372,1.6244,1.608,1.5913,1.6353,1.6436,1.6658,1.6617,1.6532,1.6366,1.6123,1.6113,1.614,1.5917,1.5261,1.536,1.5489,1.5433,1.5278,1.5339,1.5087,1.5268,1.5273,1.5544,1.5255,1.5394,1.5556,1.5212,1.5392,1.522,1.4776,1.434,1.3786,1.3619,1.3918,1.5285,1.8499,2.307,2.7301,2.9089,3.155,3.1478,2.5409,1.8833,1.381,1.1688,1.0761,1.0023,1.0884,1.2031,1.2989,1.4569,1.5257,1.5198,1.5291,1.5065,1.5418,1.5552,1.5417,1.5166,1.5596,1.5557,1.5739,1.5624,1.5454,1.5779,1.5791,1.573,1.5888,1.5762,1.5594,1.5702,1.5411,1.596,1.575,1.5593,1.5725,1.5758,1.602,1.5848,1.5736,1.571,1.5768,1.6105,1.5959,1.5813,1.5943,1.5773,1.5952,1.6042,1.5984,1.5746,1.5785,1.6104,1.6141,1.6027,1.596,1.5864,1.5926,1.5839,1.6123,1.6105,1.5977,1.6051,1.6233,1.6077,1.5993,1.6076,1.6453,1.6464,1.6336,1.6213,1.6371,1.6694,1.6646,1.6687,1.6799,1.6763,1.6812,1.6773,1.6624,1.6719,1.68,1.6466,1.6438,1.6466,1.6332,1.636,1.6111,1.6055,1.6137,1.6464,1.6242,1.6129,1.6363,1.6307,1.6234,1.6081,1.5882,1.5995,1.6248,1.6079,1.613,1.6123,1.6461,1.6173,1.6215,1.6234,1.5903,1.608,1.5942,1.6011,1.592,1.605,1.6216,1.6074,1.6047,1.5938,1.5797,1.6189,1.6126,1.6068,1.5759,1.5888,1.6082,1.6052,1.5776,1.5692,1.6003,1.6173,1.61,1.5938,1.5775,1.5914,1.5742,1.5996,1.5931,1.5809,1.559,1.5974,1.6128,1.5913,1.6044,1.5783,1.5644,1.584,1.6158,1.5854,1.5673,1.5707,1.5732,1.5798,1.5639,1.5686,1.5717,1.5834,1.6023,1.5723,1.5592,1.5605,1.5751,1.5809,1.584,1.5876,1.5782,1.5741,1.5554,1.5981,1.5897,1.5651,1.5734,1.5843,1.5737,1.5884,1.5684,1.5624,1.5699,1.5867,1.5691,1.5531,1.5646,1.6036,1.5726,1.574,1.5748,1.5385,1.5875,1.567,1.5859,1.5432,1.5583,1.5901,1.5751,1.5649,1.5979,1.5889,1.5573,1.599,1.6147,1.5997,1.604,1.6007,1.6301,1.6267,1.6452,1.6532,1.6399,1.6786,1.681,1.6269,1.5914,1.5918,1.6019,1.537,1.5473,1.5364,1.5356,1.5553,1.5675,1.5421,1.5141,1.5372,1.5491,1.5465,1.5467,1.5092,1.5397,1.5588,1.5303,1.4782,1.4011,1.3744,1.3696,1.4862,1.7502,2.1763,2.6111,2.8734,3.0339,3.2019,2.7774,2.0539,1.5065,1.2147,1.1211,1.0253,1.0313,1.0661,1.2105,1.3273,1.4666,1.5221,1.515,1.5192,1.5619,1.5501,1.5333,1.5636,1.5735,1.5627,1.5601,1.5327,1.5617,1.5627,1.5661,1.5796,1.5636,1.5532,1.5761,1.5744,1.5735,1.5627,1.5708,1.5698,1.5865,1.5959,1.5643,1.5934,1.5764,1.5775,1.597,1.5805,1.5595,1.5759,1.5776,1.5736,1.5795,1.5718,1.5517,1.6059,1.6057,1.5936,1.5595,1.5459,1.5845,1.5999,1.598,1.5821,1.5951,1.6064,1.5732,1.5955,1.5873,1.5759,1.5892,1.5858,1.619,1.6196,1.6089,1.6224,1.6266,1.6321,1.6358,1.6301,1.605,1.6596,1.6793,1.6719,1.6629,1.6712,1.6442,1.6388,1.6394,1.6221,1.6299,1.6373,1.6398,1.6244,1.5817,1.6065,1.5797,1.6111,1.6072,1.5626,1.5765,1.5824,1.6056,1.591,1.5907,1.5881,1.5856,1.5682,1.581,1.5597,1.6054,1.6225,1.6231,1.6066,1.5865,1.6026,1.583,1.6126,1.6064,1.6033,1.578,1.5787,1.5966,1.6029,1.5835,1.6106,1.6012,1.5909,1.5918,1.6012,1.5822,1.5692,1.5773,1.6009,1.5962,1.5799,1.5861,1.5946,1.5966,1.5818,1.5835,1.5798,1.5772,1.5759,1.57,1.5547,1.5856,1.5795,1.5752,1.5734,1.5708,1.5611,1.5615,1.5685,1.5906,1.5827,1.5603,1.5487,1.5768,1.589,1.5729,1.538,1.5526,1.5956,1.5656,1.5882,1.5687,1.5587,1.5873,1.5833,1.5697,1.5685,1.6062,1.6112,1.6399,1.6282,1.623,1.6158,1.651,1.6572,1.6924,1.6506,1.6342,1.6404,1.6251,1.6114,1.585,1.5422,1.5586,1.5798,1.5398,1.5413,1.542,1.5392,1.547,1.5716,1.567,1.5355,1.525,1.544,1.5848,1.5646,1.5455,1.5329,1.4476,1.3892,1.3718,1.457,1.693,2.1263,2.5465,2.7267,2.8546,3.1515,3.1059,2.5306,1.9088,1.4152,1.1874,1.07,1.0412,1.0639,1.2054,1.3817,1.4637,1.5514,1.5349,1.5561,1.5232,1.568,1.5862,1.5937,1.5634,1.5793,1.5576,1.5829,1.6019,1.5997,1.5888,1.5713,1.6022,1.5776,1.5972,1.5859,1.5915,1.6052,1.6069,1.6222,1.5942,1.6171,1.6314,1.6087,1.6096,1.609,1.5907,1.6148,1.628,1.6235,1.604,1.6163,1.6191,1.6206,1.605,1.6146,1.611,1.5995,1.6224,1.6221,1.6054,1.6055,1.61,1.6348,1.6261,1.6483,1.6305,1.6013,1.647,1.6406,1.6478,1.6364,1.6285,1.6489,1.6375,1.6645,1.6654,1.6562,1.6967,1.6628,1.6825,1.675,1.6815,1.665,1.6915,1.6799,1.6613,1.6615,1.6654,1.6596,1.6586,1.6144,1.6245,1.6272,1.6316,1.618,1.5905,1.5918,1.5908,1.6075,1.6004,1.5885,1.5913,1.5962,1.617,1.6182,1.6257,1.6115,1.5995,1.5889,1.6144,1.5984,1.5977,1.603,1.6256,1.5954,1.5948,1.5849,1.5818,1.6216,1.6168,1.6127,1.5755,1.5852,1.5989,1.602,1.6289,1.5991,1.5858,1.5957,1.6011,1.6023,1.5827,1.5867,1.5947,1.5861,1.5793,1.5629,1.6059,1.6004,1.6168,1.601,1.5926,1.5889,1.6048,1.5641,1.5765,1.5946,1.5653,1.5718,1.5781,1.591,1.5691,1.5713,1.5566,1.5857,1.5799,1.5799,1.5907,1.5937,1.5875,1.6062,1.5878,1.5765,1.5708,1.5768,1.5788,1.5862,1.5596,1.5744,1.5619,1.5934,1.5805,1.5643,1.5646,1.5914,1.5817,1.5819,1.645,1.6205,1.6377,1.6454,1.6274,1.6319,1.6079,1.6627,1.6591,1.7023,1.6558,1.6392,1.6328,1.6463,1.6299,1.6094,1.5331,1.5637,1.5674,1.5641,1.585,1.542,1.5461,1.5777,1.5836,1.5654,1.5552,1.5435,1.5609,1.6032,1.5749,1.5369,1.5097,1.4247,1.4138,1.4039,1.481,1.6332,2.0553,2.5436,2.861,3.015,3.1784,3.19,2.6624,2.0265,1.4982,1.2014,1.1019,1.0208,1.0889,1.2153,1.4069,1.5168,1.5804,1.5508,1.5586,1.5454,1.5671,1.5677,1.5901,1.5977,1.5939,1.585,1.5818,1.6048,1.5926,1.5927,1.6079,1.5801,1.6137,1.6039,1.6024,1.6163,1.5737,1.6003,1.6261,1.6442,1.5838,1.5907,1.6247,1.6136,1.6084,1.5849,1.6208,1.6115,1.6023,1.6176,1.603,1.6253,1.6218,1.6543,1.6152,1.5974,1.6061,1.5935,1.6146,1.6374,1.6548,1.616,1.618,1.6339,1.6474,1.6371,1.6103,1.5879,1.6533,1.656,1.6474,1.6757,1.6583,1.6587,1.6614,1.6867,1.6715,1.6857,1.6893,1.7157,1.6861,1.691,1.6837,1.662,1.7086,1.7088,1.6676,1.6825,1.6773,1.6712,1.6799,1.6425,1.5983,1.6418,1.6706,1.6584,1.6156,1.6315,1.5935,1.5948,1.6328,1.6466,1.6613,1.6479,1.6441,1.6484,1.6481,1.6227,1.6157,1.6461,1.6494,1.6213,1.6378,1.619,1.6252,1.655,1.6554,1.6229,1.63,1.6213,1.6447,1.63,1.6266,1.6351,1.6385,1.6619,1.6372,1.6021,1.6124,1.6209,1.6232,1.6428,1.6331,1.6083,1.6238,1.6291,1.6325,1.6162,1.6061,1.6176,1.617,1.6265,1.6278,1.6003,1.6201,1.6277,1.6252,1.61,1.6185,1.6247,1.6092,1.5956,1.5987,1.6017,1.6203,1.6257,1.617,1.6282,1.613,1.6203,1.6127,1.6096,1.6276,1.611,1.6137,1.6031,1.6156,1.6288,1.6243,1.6157,1.6073,1.5977,1.6243,1.6206,1.6091,1.6105,1.6039,1.6211,1.6311,1.6152,1.6095,1.6249,1.6138,1.6248,1.5881,1.5755,1.6487,1.6274,1.6375,1.5879,1.5715,1.6496,1.6132,1.6058,1.6027,1.6164,1.6233,1.6412,1.639,1.637,1.6177,1.6931,1.7048,1.675,1.6447,1.6663,1.671,1.708,1.7133,1.6876,1.7218,1.683,1.6697,1.647,1.6574,1.6338,1.5975,1.62,1.5963,1.6028,1.5738,1.5638,1.5864,1.5889,1.6199,1.5858,1.5832,1.6115,1.5682,1.6187,1.5774,1.5287,1.4693,1.412,1.4266,1.472,1.6885,2.157,2.6066,2.8781,3.0651,3.236,3.1928,2.631,1.9925,1.4778,1.2267,1.1034,1.0696,1.1275,1.2553,1.3642,1.4836,1.5817,1.596,1.5796,1.5588,1.5942,1.6014,1.6129,1.5941,1.5998,1.5789,1.6124,1.5837,1.5978,1.6067,1.5889,1.6025,1.6027,1.6005,1.5985,1.5869,1.5903,1.5833,1.6055,1.5849,1.5847,1.6152,1.5868,1.6104,1.6133,1.5908,1.5938,1.6312,1.6178,1.593,1.6035,1.6113,1.5982,1.5858,1.5972,1.5968,1.6106,1.6212,1.6326,1.6141,1.5979,1.6143,1.6075,1.6112,1.6238,1.6096,1.6009,1.661,1.6189,1.6427,1.6336,1.6378,1.6489,1.674,1.6508,1.6268,1.6532,1.6704,1.6871,1.6787,1.6767,1.6574,1.6719,1.6905,1.7227,1.6782,1.6745,1.6891,1.664,1.681,1.6449,1.6519,1.6387,1.6231,1.6287,1.6243,1.5984,1.6326,1.6415,1.6318,1.6174,1.6079,1.5948,1.6158,1.6127,1.6431,1.6313,1.6099,1.6181,1.6205,1.6299,1.5909,1.6181,1.6296,1.6284,1.6126,1.6112,1.6165,1.6118,1.6065,1.6237,1.6133,1.6052,1.6013,1.6102,1.6437,1.6373,1.6205,1.5972,1.601,1.6029,1.6456,1.6018,1.5779,1.6106,1.6012,1.6236,1.5706,1.5749,1.6153,1.6075,1.6133,1.6015,1.6059,1.6119,1.6004,1.5979,1.5642,1.5888,1.5974,1.6144,1.5861,1.6081,1.5801,1.5964,1.5947,1.5821,1.6059,1.574,1.5661,1.5931,1.6043,1.6145,1.596,1.5806,1.6053,1.6202,1.6595,1.6381,1.6321,1.6373,1.6313,1.6507,1.6589,1.6735,1.672,1.6693,1.6901,1.6646,1.6146,1.618,1.6188,1.5897,1.5783,1.5724,1.5659,1.5916,1.5647,1.5709,1.5653,1.5459,1.5658,1.5534,1.5431,1.5607,1.58,1.5787,1.5725,1.5209,1.4379,1.3822,1.4071,1.4293,1.5542,1.8921,2.3518,2.7335,2.946,3.1472,3.1325,2.5532,1.1099,1.0283,1.1427,1.1509,1.3611,1.4374,1.5717,1.5263,1.586,1.5279,1.6135,1.5443,1.6027,1.5722,1.6252,1.5734,1.5888,1.5754,1.6255,1.616,1.6061,1.5786,1.621,1.6151,1.6212,1.605,1.6292,1.5964,1.6277,1.6186,1.6277,1.5944,1.6321,1.6265,1.6458,1.6199,1.616,1.6018,1.6407,1.6376,1.621,1.6415,1.6131,1.6182,1.6386,1.6582,1.595,1.6237,1.6337,1.6436,1.6294,1.6234,1.6167,1.6278,1.6394,1.6594,1.6318,1.6489,1.6572,1.6766,1.6543,1.6575,1.6362,1.6689,1.6919,1.6954,1.6874,1.7083,1.6786,1.7142,1.6953,1.7137,1.6826,1.696,1.6943,1.683,1.6547,1.676,1.6605,1.6642,1.6452,1.641,1.6362,1.6126,1.6323,1.63,1.6222,1.626,1.6022,1.6065,1.5992,1.64,1.6206,1.5945,1.6232,1.6277,1.6097,1.6233,1.6172,1.6104,1.6344,1.6254,1.6209,1.6007,1.6042,1.6491,1.6397,1.6291,1.6167,1.631,1.605,1.647,1.6365,1.6153,1.5982,1.6305,1.6255,1.6262,1.5993,1.6198,1.622,1.6165,1.6067,1.6072,1.5981,1.6136,1.6331,1.6163,1.5935,1.5906,1.5937,1.6083,1.5986,1.5923,1.5698,1.5805,1.617,1.6203,1.6054,1.584,1.5882,1.5988,1.5841,1.5826,1.5874,1.581,1.5869,1.5829,1.6103,1.5776,1.565,1.5663,1.5756,1.5674,1.5434,1.5996,1.5909,1.5939,1.6019,1.5745,1.5817,1.6052,1.6398,1.6528,1.6416,1.6382,1.6096,1.6514,1.6848,1.6587,1.6787,1.6865,1.6952,1.6403,1.65,1.6214,1.6094,1.5772,1.5753,1.5555,1.5753,1.5644,1.591,1.5678,1.5475,1.5691,1.5596,1.5547,1.5693,1.5639,1.5726,1.5591,1.5469,1.5674,1.4957,1.3862,1.406,1.4345,1.5862,1.9297,2.3829,2.7835,2.9551,3.2502,3.154,2.8409,2.2154,1.5721,1.2914,1.1301,1.0588,1.0624,1.2044,1.3571,1.5008,1.5465,1.57,1.5793,1.6018,1.5528,1.5878,1.544,1.5866,1.5911,1.6126,1.6063,1.6061,1.576,1.6101,1.6142,1.6047,1.5841,1.5896,1.5945,1.6059,1.5897,1.6324,1.6113,1.6151,1.614,1.6218,1.6272,1.565,1.6107,1.6372,1.5968,1.6076,1.5957,1.6052,1.6235,1.6289,1.6091,1.595,1.6065,1.6315,1.6289,1.6231,1.6257,1.6163,1.6172,1.6249,1.6257,1.6119,1.6112,1.6233,1.6547,1.6618,1.6252,1.6282,1.628,1.6643,1.6504,1.6532,1.66,1.6277,1.6654,1.7119,1.6997,1.6841,1.6919,1.6942,1.6858,1.6938,1.6783,1.662,1.6942,1.6775,1.6691,1.6452,1.6567,1.6426,1.6592,1.6216,1.6314,1.6156,1.6312,1.6499,1.6382,1.5965,1.6082,1.6068,1.6371,1.624,1.6281,1.6212,1.6186,1.6144,1.6305,1.6019,1.6172,1.5955,1.6484,1.6288,1.6057,1.6125,1.6307,1.622,1.6332,1.6353,1.6164,1.5883,1.6047,1.6137,1.5938,1.6119,1.6109,1.6271,1.6089,1.6089,1.593,1.6088,1.5956,1.6128,1.6187,1.6004,1.5965,1.637,1.6197,1.5934,1.5855,1.6073,1.6098,1.6013,1.6104,1.5926,1.5973,1.6002,1.6197,1.59,1.5876,1.595,1.5832,1.5803,1.6047,1.5863,1.599,1.5872,1.6039,1.6102,1.5837,1.5944,1.6104,1.5812,1.5907,1.5882,1.6036,1.5971,1.5939,1.5979,1.5807,1.5835,1.567,1.6284,1.604,1.6044,1.587,1.5874,1.605,1.5971,1.5864,1.5811,1.6144,1.6484,1.6625,1.6551,1.6378,1.6334,1.67,1.6838,1.6823,1.6822,1.6626,1.6453,1.6471,1.6288,1.6103,1.5709,1.5921,1.5575,1.5417,1.5808,1.5724,1.5668,1.5462,1.5773,1.5572,1.5362,1.5537,1.5701,1.5716,1.5774,1.5394,1.5291,1.4549,1.4117,1.3978,1.4683,1.6795,2.1224,2.5832,2.8776,2.9823,3.1598,3.1886,2.61,1.9606,1.4544,1.2052,1.0619,1.0436,1.1216,1.2277,1.3588,1.4671,1.5536,1.5512,1.5857,1.548,1.5582,1.5726,1.6115,1.5783,1.5684,1.6062,1.5786,1.5938,1.5839,1.5898,1.6,1.5816,1.6095,1.6211,1.5976,1.5637,1.6129,1.6232,1.6115,1.6121,1.602,1.605,1.6197,1.607,1.6134,1.5804,1.6036,1.6149,1.6008,1.6117,1.6183,1.6137,1.6225,1.6344,1.6148,1.6366,1.6217,1.6357,1.6145,1.6106,1.623,1.6184,1.6453,1.6411,1.6346,1.6338,1.6476,1.6392,1.6768,1.6609,1.6566,1.6548,1.6418,1.6828,1.6826,1.6908,1.6941,1.7172,1.7341,1.7048,1.7149,1.7086,1.698,1.7106,1.695,1.6984,1.6866,1.6841,1.6873,1.6824,1.6676,1.6411,1.6452,1.6643,1.6718,1.6506,1.6394,1.635,1.6428,1.6237,1.6188,1.6366,1.6283,1.6426,1.6397,1.6513,1.6171,1.617,1.6129,1.6549,1.6252,1.6319,1.6244,1.6123,1.6211,1.5871,1.6037,1.6232,1.6228,1.6287,1.6398,1.6229,1.6308,1.6095,1.6115,1.599,1.6043,1.5941,1.5908,1.6116,1.6068,1.6041,1.5929,1.5892,1.61,1.6296,1.6046,1.588,1.5822,1.5874,1.5876,1.6066,1.5842,1.5974,1.5788,1.5922,1.6017,1.6045,1.5632,1.5936,1.5972,1.5906,1.589,1.5759,1.5924,1.5796,1.5739,1.5839,1.564,1.6228,1.6179,1.5822,1.6012,1.5786,1.5945,1.6186,1.6009,1.5966,1.599,1.6314,1.6265,1.6432,1.6395,1.615,1.646,1.6758,1.6771,1.6675,1.6571,1.6397,1.6674,1.6407,1.6409,1.6207,1.5949,1.5601,1.5561,1.581,1.5748,1.5713,1.5725,1.5921,1.5801,1.5709,1.5591,1.5784,1.5919,1.583,1.5768,1.5624,1.5262,1.482,1.4339,1.4333,1.4153,1.532,1.8625,2.3335,2.7116,2.8936,3.1044,3.14,2.6108,1.959,1.476,1.2313,1.1181,1.0852,1.1117,1.1822,1.334,1.3829,1.5194,1.5433,1.5826,1.5762,1.5621,1.5856,1.6061,1.6039,1.6106,1.5872,1.6146,1.6153,1.6093,1.6134,1.6089,1.618,1.6352,1.6247,1.6358,1.6179,1.6194,1.6102,1.6323,1.7207,1.7388,1.7366,1.7456,1.7191,1.7194,1.7051,1.7397,1.6841,1.6977,1.6928,1.6703,1.6718,1.684,1.6727,1.6517,1.6704,1.6614,1.6604,1.659,1.665,1.6684,1.6806,1.6912,1.6709,1.6657,1.6576,1.663,1.6789,1.6661,1.6466,1.6329,1.6501,1.6946,1.6567,1.6529,1.6952,1.6883,1.6794,1.6866,1.6559,1.6582,1.6662,1.6796,1.6659,1.6776,1.6546,1.6488,1.6591,1.6479,1.6666,1.6402,1.665,1.6637,1.6934,1.6633,1.6568,1.6376,1.6386,1.6457,1.6411,1.6258,1.6356,1.6474,1.6472,1.6498,1.6487,1.6325,1.6429,1.6538,1.6614,1.6218,1.6417,1.62,1.6449,1.6385,1.6242,1.6479,1.6293,1.6422,1.6532,1.6299,1.6353,1.6541,1.6488,1.6608,1.6966,1.6815,1.6771,1.6894,1.7065,1.7374,1.7266,1.7247,1.7198,1.7083,1.696,1.6646,1.6921,1.6498,1.5998,1.6271,1.629,1.5811,1.6034,1.6216,1.6357,1.585,1.5871,1.6047,1.6077,1.5912,1.5896,1.5932,1.6128,1.6097,1.5766,1.5206,1.4476,1.4326,1.475,1.6755,1.8546,2.2508,2.7087,2.961,3.1488,3.3243,2.8075,2.1228,1.5878,1.2813,1.1556,1.0486,1.1434,1.2903,1.4705,1.5391,1.5686,1.5892,1.6219,1.613,1.6257,1.6024,1.6206,1.6045,1.6388,1.6312,1.6152,1.6335,1.6344,1.6378,1.6649,1.6406,1.6226,1.6306,1.6501,1.6262,1.6344,1.6449,1.6402,1.6551,1.6541,1.6249,1.6187,1.655,1.6376,1.6666,1.6608,1.6452,1.6529,1.6604,1.6803,1.6597,1.6556,1.6493,1.6411,1.6718,1.6544,1.6624,1.6642,1.6498,1.646,1.6631,1.6561,1.6572,1.646,1.6743,1.7068,1.666,1.6836,1.6681,1.7081,1.7066,1.7078,1.6966,1.708,1.7384,1.7275,1.7346,1.7156,1.7164,1.7457,1.767,1.76,1.7452,1.7555,1.7481,1.7167,1.7112,1.6986,1.6996,1.6874,1.7067,1.6793,1.6781,1.6517,1.6873,1.6871,1.6875,1.6601,1.6741,1.66,1.68,1.6958,1.6708,1.6556,1.6821,1.7012,1.7106,1.6758,1.6659,1.6665,1.6748,1.6775,1.6773,1.6621,1.6608,1.6795,1.6947,1.6822,1.6709,1.6523,1.6636,1.676,1.665,1.6528,1.6511,1.656,1.6964,1.6705,1.6518,1.6672,1.6827,1.6986,1.6705,1.6417,1.6613,1.6646,1.6504,1.6539,1.6573,1.6548,1.6234,1.6797,1.6746,1.6622,1.6329,1.6487,1.6638,1.6636,1.6708,1.6381,1.6521,1.6675,1.6566,1.6716,1.6432,1.664,1.6409,1.6596,1.6434,1.6466,1.6629,1.6571,1.6407,1.6541,1.6408,1.6282,1.6506,1.6791,1.6604,1.6595,1.657,1.644,1.6474,1.6647,1.6473,1.6482,1.6719,1.6626,1.6604,1.6763,1.6933,1.7016,1.7198,1.6991,1.7131,1.7342,1.7348,1.7491,1.7399,1.7466,1.7349,1.7052,1.6988,1.6741,1.6629,1.6243,1.6116,1.6254,1.6503,1.6391,1.6259,1.6202,1.6237,1.6277,1.6062,1.6389,1.6312,1.6105,1.6437,1.6247,1.6034,1.5683,1.4973,1.4645,1.4706,1.5596,1.684,2.0587,2.578,2.9043,3.0269,3.267,3.0483,2.4438,1.8253,1.4164,1.2416,1.107,1.1183,1.1602,1.3056,1.4405,1.5501,1.6039,1.6372,1.6297,1.6257,1.581,1.624,1.6353,1.6434,1.6463,1.6258,1.6057,1.6488,1.6562,1.646,1.6508,1.6376,1.6485,1.6728,1.631,1.6395,1.6565,1.6458,1.6537,1.6506,1.6418,1.6658,1.6575,1.6457,1.6726,1.6524,1.6389,1.6701,1.6649,1.6396,1.6493,1.6452,1.6621,1.6509,1.6641,1.6648,1.6588,1.6791,1.6755,1.669,1.6704,1.6699,1.6665,1.6704,1.7022,1.6711,1.6657,1.6723,1.6861,1.6799,1.678,1.7053,1.7019,1.7,1.7283,1.7155,1.7192,1.736,1.7527,1.7377,1.726,1.7153,1.7176,1.7471,1.7496,1.7236,1.6908,1.6877,1.7102,1.7321,1.6999,1.6866,1.6718,1.7062,1.6907,1.6723,1.6368,1.6617,1.6729,1.6644,1.6674,1.658,1.648,1.6553,1.6835,1.6785,1.6598,1.6537,1.6454,1.6773,1.6776,1.6704,1.6647,1.6732,1.6916,1.6727,1.6742,1.6382,1.6511,1.6539,1.6643,1.6626,1.6607,1.6656,1.6472,1.6396,1.6764,1.6512,1.6554,1.657,1.6639,1.6603,1.6468,1.643,1.6626,1.6561,1.6545,1.6646,1.6519,1.6593,1.6274,1.651,1.662,1.6323,1.6205,1.6611,1.6478,1.6197,1.6372,1.6412,1.677,1.6443,1.6216,1.623,1.6492,1.6617,1.6428,1.6457,1.6273,1.6056,1.6602,1.7046,1.6979,1.6837,1.6702,1.6953,1.7047,1.7205,1.7461,1.7182,1.7241,1.7295,1.6891,1.6706,1.6502,1.6338,1.6185,1.6159,1.5985,1.6061,1.6025,1.6151,1.5914,1.6218,1.5942,1.6079,1.6175,1.6042,1.6077,1.5863,1.6181,1.6271,1.5833,1.485,1.4452,1.431,1.5035,1.577,1.8293,2.311,2.7,2.9454,3.1446,3.2115,2.6902,2.0694,1.5402,1.2707,1.1799,1.0724,1.1264,1.1986,1.3713,1.4676,1.5677,1.5753,1.6082,1.624,1.6301,1.6031,1.6256,1.6037,1.6354,1.6539,1.633,1.642,1.6473,1.6449,1.6553,1.65,1.6326,1.6465,1.653,1.6407,1.6489,1.6571,1.6593,1.6614,1.6659,1.6642,1.6415,1.6642,1.6621,1.6827,1.6759,1.6483,1.6547,1.688,1.6751,1.6862,1.6629,1.6809,1.6703,1.6534,1.693,1.6787,1.6638,1.6861,1.71,1.706,1.6845,1.6653,1.6848,1.7063,1.6916,1.6881,1.6836,1.6914,1.7079,1.7123,1.741,1.7126,1.7154,1.7376,1.7521,1.7692,1.7398,1.7255,1.7379,1.7525,1.7718,1.7455,1.7533,1.7366,1.742,1.733,1.711,1.7179,1.678,1.7035,1.6934,1.6805,1.664,1.67,1.6948,1.6701,1.6721,1.6562,1.6561,1.672,1.6592,1.6749,1.662,1.6375,1.6575,1.6699,1.6592,1.6756,1.6701,1.6682,1.6756,1.6868,1.6423,1.6407,1.6744,1.6795,1.6642,1.6422,1.6588,1.6506,1.6644,1.6911,1.6681,1.6364,1.6559,1.6777,1.6527,1.6407,1.6461,1.6541,1.6691,1.6763,1.6571,1.6569,1.641,1.6478,1.6418,1.6691,1.6315,1.6358,1.6421,1.6581,1.6382,1.6374,1.6251,1.6492,1.6462,1.6415,1.6337,1.6266,1.6308,1.6466,1.6577,1.6309,1.6147,1.6276,1.6408,1.6574,1.6274,1.6055,1.6325,1.6609,1.6263,1.6244,1.6247,1.6126,1.6302,1.6321,1.6102,1.6189,1.618,1.6103,1.638,1.6023,1.5825,1.6218,1.6428,1.6229,1.6326,1.6528,1.6881,1.6938,1.6774,1.6667,1.6712,1.6892,1.7006,1.7306,1.7224,1.6792,1.6863,1.6738,1.6555,1.6343,1.6142,1.5761,1.6118,1.5975,1.5996,1.5855,1.6023,1.5944,1.5691,1.5828,1.5905,1.5947,1.6173,1.5953,1.6025,1.5753,1.5352,1.4719,1.4388,1.4784,1.5025,1.612,1.9954,2.4649,2.818,2.9892,3.326,3.1443,2.5103,1.8979,1.4243,1.2044,1.1084,1.1006,1.1911,1.3722,1.4993,1.5815,1.5968,1.6034,1.6084,1.6188,1.6223,1.6084,1.6065,1.6272,1.6175,1.6162,1.6166,1.6543,1.6432,1.6489,1.6372,1.6372,1.6595,1.6695,1.6415,1.6234,1.632,1.6413,1.6381,1.6474,1.6578,1.6481,1.6648,1.6664,1.6577,1.6335,1.6223,1.6714,1.6548,1.6771,1.6551,1.638,1.6702,1.648,1.6583,1.6549,1.6501,1.6518,1.6695,1.6838,1.6752,1.6621,1.6651,1.6907,1.6965,1.6572,1.6543,1.6982,1.7061,1.6994,1.6888,1.6895,1.6951,1.7154,1.7074,1.6937,1.6991,1.7146,1.7361,1.7532,1.7394,1.7287,1.7174,1.7318,1.7396,1.7236,1.7095,1.7154,1.7069,1.7083,1.6992,1.6853,1.6745,1.6599,1.6922,1.7047,1.664,1.6615,1.6572,1.6731,1.6585,1.6748,1.644,1.6546,1.7085,1.6612,1.6795,1.6453,1.6637,1.6806,1.6782,1.6688,1.6774,1.6773,1.6707,1.6647,1.6662,1.6574,1.6501,1.6605,1.6839,1.6695,1.6631,1.655,1.6553,1.6647,1.6727,1.638,1.6599,1.6647,1.6587,1.6561,1.6416,1.6444,1.6393,1.6498,1.6581,1.6524,1.6435,1.6373,1.648,1.6787,1.6321,1.6465,1.6361,1.6791,1.6644,1.6445,1.6335,1.6518,1.6411,1.6491,1.6694,1.6482,1.6452,1.6488,1.6476,1.6457,1.6264,1.6252,1.6312,1.6472,1.6605,1.6386,1.6363,1.6254,1.6412,1.639,1.6206,1.6367,1.6334,1.6438,1.6399,1.6272,1.6147,1.6221,1.6297,1.6474,1.6408,1.6178,1.645,1.6412,1.6345,1.6042,1.6267,1.6184,1.6362,1.6394,1.6438,1.6321,1.6141,1.6518,1.6541,1.6459,1.6643,1.6822,1.6761,1.6657,1.6997,1.7003,1.6973,1.7152,1.7484,1.7257,1.6799,1.6612,1.6439,1.6547,1.6029,1.5892,1.6148,1.5939,1.612,1.6183,1.6117,1.5921,1.5854,1.6281,1.6092,1.6007,1.5715,1.5909,1.6143,1.6074,1.5551,1.4722,1.4159,1.4402,1.508,1.7205,2.1315,2.5843,2.8786,3.049,3.2762,3.1536,2.5568,1.942,1.4815,1.2351,1.1186,1.0746,1.1277,1.221,1.3478,1.4585,1.5521,1.5801,1.5893,1.5973,1.6034,1.594,1.5971,1.6285,1.6358,1.6261,1.5994
