6.6981,6.6787,6.7012,6.7225,6.7216,6.6979,6.6994,6.7164,6.7165,6.7316,6.7262,6.7439,6.7409,6.7547,6.7634,6.7788,6.7829,6.7986,6.8303,6.8189,6.8204,6.8334,6.8163,6.872,6.8667,6.8561,6.8674,6.8589,6.8811,6.8906,6.8667,6.85,6.8332,6.8224,6.8015,6.7815,6.7707,6.7528,6.7276,6.7062,6.6893,6.6521,6.6496,6.6475,6.6357,6.6202,6.6082,6.6208,6.6422,6.6072,6.6345,6.6226,6.6036,6.6184,6.6212,6.5998,6.5971,6.6067,6.5961,6.5937,6.6201,6.6228,6.6171,6.6062,6.6199,6.6306,6.6139,6.6093,6.6139,6.6051,6.6043,6.608,6.6008,6.5983,6.6056,6.6023,6.6161,6.5932,6.6045,6.5884,6.5934,6.5928,6.5913,6.5779,6.5854,6.601,6.6029,6.5764,6.5922,6.5877,6.5874,6.584,6.5936,6.5822,6.5735,6.5767,6.5973,6.5925,6.559,6.5724,6.5756,6.5777,6.5681,6.5575,6.5764,6.5951,6.5614,6.5627,6.5824,6.5935,6.5951,6.6056,6.6262,6.6172,6.6264,6.6179,6.6316,6.6284,6.6252,6.6393,6.6239,6.6726,6.6206,6.5978,6.5952,6.5868,6.5814,6.5608,6.55,6.549,6.5493,6.5636,6.5649,6.5479,6.5251,6.5232,6.5511,6.5702,6.5398,6.5431,6.5397,6.5264,6.5202,6.5821,6.5868,6.5228,6.5401,6.549,6.5484,6.5481,6.5823,6.6222,6.638,6.7153,6.8494,7.0064,7.176,7.195,6.939,6.6121,6.3944,6.3524,6.3964,6.4773,6.5184,6.5703,6.5767,6.5747,6.5836,6.5839,6.5861,6.5987,6.6032,6.5737,6.5845,6.5843,6.5934,6.6171,6.625,6.5882,6.5803,6.6017,6.626,6.6236,6.5952,6.6007,6.6284,6.6026,6.6232,6.6247,6.6181,6.6206,6.6473,6.6532,6.6226,6.6208,6.6341,6.6438,6.6502,6.6628,6.6767,6.6775,6.6787,6.7156,6.7066,6.7183,6.7124,6.7252,6.742,6.7766,6.7952,6.7723,6.7792,6.7928,6.7992,6.8066,6.8195,6.8323,6.8087,6.8063,6.8053,6.7738,6.7558,6.7646,6.761,6.7126,6.6854,6.6739,6.6588,6.6304,6.6447,6.6475,6.6149,6.6155,6.6071,6.6036,6.6065,6.594,6.5972,6.6081,6.6074,6.5864,6.584,6.5934,6.5898,6.6018,6.621,6.6019,6.5759,6.6115,6.6269,6.5984,6.6094,6.6052,6.6234,6.6287,6.6115,6.599,6.6152,6.623,6.6117,6.5963,6.6047,6.644,6.6264,6.6039,6.6144,6.6107,6.5963,6.6174,6.5978,6.6065,6.6064,6.5954,6.6211,6.6292,6.5997,6.6024,6.6026,6.5993,6.6127,6.6329,6.6439,6.652,6.6678,6.6793,6.6851,6.6488,6.6421,6.6604,6.6831,6.6646,6.6671,6.6628,6.6436,6.6648,6.6707,6.6331,6.6001,6.6068,6.595,6.5894,6.5804,6.5771,6.5728,6.5763,6.5936,6.5842,6.5713,6.5801,6.597,6.603,6.574,6.5848,6.5695,6.5733,6.5781,6.5836,6.6011,6.5771,6.6019,6.6017,6.5733,6.6022,6.6706,6.7798,6.9057,7.0452,7.2161,7.2212,6.9674,6.6265,6.443,6.4094,6.4429,6.5177,6.579,6.6289,6.6297,6.6241,6.6488,6.6315,6.6325,6.6225,6.6419,6.6092,6.6613,6.6639,6.6476,6.6502,6.6638,6.6295,6.656,6.6705,6.6393,6.657,6.6575,6.6644,6.6897,6.6961,6.6596,6.6655,6.6682,6.6756,6.6738,6.6912,6.6915,6.6992,6.7179,6.6906,6.7079,6.7245,6.7383,6.744,6.7516,6.7614,6.7726,6.7868,6.7803,6.8086,6.8351,6.8472,6.8293,6.8491,6.8453,6.8617,6.8726,6.8749,6.8707,6.8866,6.8795,6.8791,6.8652,6.8392,6.8345,6.8134,6.7869,6.7561,6.7444,6.7305,6.7093,6.7008,6.6764,6.6916,6.6618,6.673,6.6796,6.6699,6.6432,6.6351,6.6351,6.649,6.6555,6.6601,6.6527,6.6402,6.6569,6.6477,6.6502,6.6515,6.6464,6.6479,6.6464,6.6419,6.6579,6.6718,6.6801,6.6399,6.6576,6.6572,6.6404,6.6498,6.6595,6.6773,6.6561,6.6701,6.649,6.6461,6.652,6.6586,6.6815,6.6716,6.6609,6.6314,6.6613,6.6872,6.6384,6.6307,6.6518,6.661,6.6553,6.6572,6.6677,6.6823,6.6882,6.6884,6.694,6.7044,6.7249,6.7019,6.7015,6.7068,6.7014,6.7126,6.7255,6.7456,6.7371,6.6887,6.6919,6.6745,6.6951,6.6504,6.6115,6.6178,6.6355,6.6338,6.6269,6.6257,6.6328,6.6343,6.6258,6.6192,6.6179,6.6098,6.6106,6.6268,6.6253,6.6136,6.631,6.6229,6.626,6.6343,6.6099,6.6262,6.6484,6.6848,6.6947,6.7488,6.8676,7.0185,7.1672,7.2787,7.1626,6.8416,6.5202,6.4662,6.4532,6.4631,6.5409,6.6224,6.6779,6.6622,6.6713,6.6624,6.6566,6.6719,6.6774,6.6666,6.6629,6.667,6.684,6.696,6.6864,6.6765,6.7,6.6991,6.6939,6.6921,6.7035,6.7012,6.7198,6.715,6.7059,6.7131,6.7046,6.7094,6.7122,6.7166,6.7306,6.7504,6.725,6.7265,6.7342,6.7385,6.7658,6.7734,6.7801,6.765,6.8111,6.7927,6.8075,6.8345,6.8576,6.8434,6.862,6.8802,6.8889,6.9088,6.8928,6.9004,6.9184,6.9347,6.9016,6.8902,6.878,6.8802,6.8862,6.8745,6.8349,6.8126,6.7889,6.7737,6.7771,6.7317,6.7228,6.7219,6.7006,6.7025,6.6965,6.6824,6.6901,6.6964,6.6899,6.7208,6.6666,6.6615,6.6705,6.6691,6.6671,6.6776,6.6783,6.6953,6.6921,6.6799,6.6698,6.6927,6.6848,6.6737,6.694,6.679,6.6877,6.686,6.7006,6.7055,6.6905,6.7073,6.7007,6.6833,6.6805,6.6819,6.7061,6.6786,6.6922,6.7034,6.6781,6.7021,6.6938,6.6668,6.6862,6.6986,6.6788,6.6793,6.6949,6.7008,6.6993,6.6829,6.7016,6.7338,6.7366,6.7374,6.7214,6.733,6.7379,6.7432,6.7751,6.7473,6.7701,6.7597,6.7426,6.7498,6.7348,6.731,6.7263,6.7186,6.6913,6.6997,6.6596,6.665,6.658,6.6703,6.6783,6.6648,6.6614,6.6533,6.6478,6.66,6.6532,6.6657,6.6642,6.6659,6.6556,6.6444,6.6477,6.6558,6.6628,6.6907,6.6836,6.6416,6.6825,6.7037,6.766,6.8097,6.9344,7.0945,7.2514,7.3473,7.1722,6.8235,6.5241,6.4547,6.4806,6.5661,6.6416,6.7007,6.6987,6.6881,6.7273,6.6782,6.6983,6.7045,6.7081,6.7061,6.6979,6.693,6.7153,6.7265,6.7244,6.7108,6.7097,6.7256,6.7673,6.7295,6.7049,6.7171,6.7165,6.7424,6.7731,6.7334,6.739,6.7475,6.7447,6.7429,6.7383,6.7604,6.7697,6.7621,6.7683,6.7785,6.7964,6.8017,6.8212,6.8204,6.8257,6.8342,6.8678,6.9059,6.8701,6.8992,6.8851,6.8848,6.9172,6.9288,6.9364,6.9412,6.9257,6.9328,6.9421,6.9379,6.9091,6.9055,6.9016,6.8675,6.8441,6.8282,6.7916,6.7855,6.7806,6.7357,6.7507,6.7172,6.7104,6.7168,6.7119,6.6986,6.6889,6.7008,6.6989,6.7015,6.7102,6.697,6.6994,6.6891,6.696,6.6918,6.6743,6.7046,6.6871,6.7237,6.7195,6.6758,6.6729,6.708,6.7046,6.6971,6.7,6.7091,6.7091,6.7125,6.6865,6.6964,6.6851,6.7118,6.7265,6.7161,6.6811,6.6854,6.6964,6.7089,6.6962,6.6794,6.6657,6.7001,6.7136,6.6815,6.6946,6.6976,6.7019,6.6811,6.6959,6.6697,6.6748,6.6941,6.7014,6.7052,6.7146,6.7348,6.7443,6.7506,6.7417,6.7334,6.7178,6.7624,6.7686,6.7299,6.7402,6.7238,6.7184,6.7141,6.7004,6.6851,6.6609,6.6658,6.6645,6.6428,6.641,6.637,6.6516,6.6525,6.6375,6.6256,6.6383,6.633,6.623,6.6301,6.634,6.6302,6.6427,6.6467,6.6441,6.6402,6.6372,6.6167,6.6197,6.6307,6.6614,6.6896,6.7543,6.8934,7.037,7.1265,7.3159,7.1594,6.7924,6.4882,6.4378,6.4686,6.5039,6.5698,6.6471,6.6875,6.6395,6.6457,6.664,6.6695,6.6367,6.6677,6.6354,6.6919,6.6625,6.6627,6.6498,6.6542,6.663,6.6769,6.6682,6.6794,6.6662,6.6736,6.6723,6.6914,6.7101,6.7004,6.6964,6.6975,6.679,6.7073,6.711,6.7133,6.7096,6.7074,6.7268,6.7266,6.7185,6.7238,6.7546,6.7585,6.7791,6.779,6.7965,6.8035,6.812,6.8165,6.8057,6.8345,6.8516,6.8508,6.8671,6.8575,6.8681,6.9133,6.8998,6.8635,6.8597,6.8512,6.8571,6.8233,6.8075,6.7737,6.7503,6.7371,6.7265,6.706,6.7,6.6937,6.6691,6.6648,6.6536,6.6587,6.6417,6.5994,6.6241,6.6348,6.6267,6.6142,6.6238,6.6487,6.6198,6.6243,6.6066,6.62,6.6341,6.6285,6.6156,6.6091,6.6185,6.6247,6.6257,6.6183,6.6252,6.6326,6.6675,6.6239,6.5935,6.6103,6.6521,6.6126,6.6087,6.6028,6.6056,6.6147,6.6079,6.6163,6.6124,6.6034,6.5967,6.6166,6.6256,6.599,6.5958,6.5947,6.5984,6.6049,6.603,6.5924,6.5898,6.6083,6.6071,6.5903,6.5799,6.5837,6.6159,6.6295,6.6254,6.6299,6.638,6.6437,6.644,6.6365,6.6402,6.6587,6.6329,6.643,6.6444,6.6388,6.6264,6.6107,6.6022,6.5885,6.5722,6.5557,6.5583,6.5534,6.5621,6.556,6.5467,6.5412,6.5591,6.5547,6.5576,6.5403,6.5382,6.5743,6.5429,6.5379,6.5098,6.5202,6.5434,6.5188,6.5068,6.5238,6.5529,6.5068,6.5344,6.5678,6.5971,6.7094,6.8558,7.0039,7.1699,7.1665,6.8769,6.5285,6.3453,6.3169,6.3652,6.4325,6.5126,6.5473,6.5304,6.5471,6.5517,6.5142,6.5209,6.5648,6.5462,6.5161,6.5264,6.5345,6.5439,6.542,6.5394,6.5356,6.5332,6.5669,6.5731,6.5562,6.5336,6.555,6.5398,6.5442,6.547,6.5356,6.5515,6.5577,6.5583,6.5617,6.5548,6.568,6.5706,6.5702,6.5737,6.5721,6.6097,6.6028,6.5989,6.6204,6.6054,6.6464,6.664,6.6619,6.6643,6.6731,6.6711,6.6894,6.7255,6.725,6.6957,6.7043,6.7025,6.7258,6.7218,6.709,6.6811,6.6629,6.6549,6.6385,6.6254,6.6024,6.5553,6.5377,6.5354,6.5404,6.5147,6.4929,6.4859,6.4801,6.4769,6.4724,6.4633,6.4748,6.4748,6.4615,6.4768,6.4521,6.4562,6.4799,6.4435,6.449,6.4662,6.4648,6.4685,6.4585,6.4544,6.4743,6.4755,6.4577,6.4569,6.4495,6.4802,6.4657,6.4884,6.479,6.4569,6.449,6.4441,6.4385,6.4587,6.4803,6.4431,6.4495,6.4439,6.4406,6.4488,6.4431,6.4518,6.4568,6.4418,6.4384,6.4448,6.4588,6.4946,6.453,6.4768,6.4924,6.4859,6.4894,6.5081,6.4909,6.4964,6.5095,6.5189,6.5172,6.4951,6.497,6.4831,6.4633,6.4493,6.4333,6.4131,6.4102,6.4032,6.4118,6.4119,6.4112,6.4158,6.4039,6.4079,6.4091,6.4065,6.4052,6.3978,6.3869,6.4017,6.4047,6.4118,6.3923,6.4311,6.4036,6.378,6.3974,6.3945,6.4063,6.4087,6.4393,6.4879,6.5993,6.7361,6.9119,7.0419,6.9758,6.6857,6.3864,6.2716,6.2406,6.2727,6.3125,6.3773,6.4727,6.4117,6.4101,6.4117,6.436,6.4397,6.424,6.4151,6.4277,6.4353,6.4443,6.4442,6.4421,6.4431,6.4529,6.4612,6.4391,6.4464,6.4465,6.451,6.4695,6.4694,6.4604,6.4803,6.4937,6.4467,6.4486,6.4529,6.4524,6.4648,6.4733,6.4882,6.5109,6.4899,6.504,6.5041,6.5055,6.5236,6.5231,6.555,6.5665,6.5732,6.5684,6.5918,6.6168,6.6146,6.6259,6.6642,6.6419,6.587,6.6274,6.6524,6.6393,6.6359,6.6094,6.6162,6.5977,6.5691,6.5521,6.5346,6.5019,6.502,6.4982,6.4541,6.4326,6.4456,6.444,6.4357,6.4233,6.4029,6.3989,6.4258,6.4315,6.3979,6.3937,6.3891,6.395,6.4122,6.4026,6.4041,6.4033,6.4036,6.4019,6.4091,6.3852,6.3916,6.3956,6.4335,6.419,6.4008,6.3948,6.4217,6.3989,6.4108,6.4205,6.3988,6.3978,6.391,6.394,6.4019,6.3749,6.3978,6.4,6.4,6.3925,6.3902,6.3936,6.3988,6.3887,6.4051,6.4234,6.4241,6.4623,6.4532,6.4524,6.4289,6.4142,6.4765,6.4856,6.4673,6.4471,6.4296,6.4447,6.4306,6.4153,6.3915,6.3886,6.3776,6.3778,6.3647,6.3599,6.3646,6.3546,6.3637,6.3542,6.3411,6.3469,6.3531,6.3613,6.3544,6.3568,6.3415,6.3625,6.3553,6.3817,6.379,6.3472,6.3576,6.3801,6.3681,6.3349,6.3706,6.4179,6.4616,6.6033,6.7352,6.8766,7.0029,6.9197,6.6157,6.2774,6.1733,6.1713,6.2025,6.2897,6.3634,6.394,6.3837,6.4138,6.411,6.4013,6.4013,6.3783,6.3768,6.4044,6.4055,6.4117,6.3693,6.3945,6.3989,6.4159,6.4075,6.3945,6.4164,6.4166,6.3968,6.4124,6.4178,6.4176,6.4043,6.4081,6.4116,6.4156,6.4187,6.4593,6.4642,6.4086,6.4424,6.4762,6.4485,6.4624,6.4796,6.4736,6.482,6.5165,6.5119,6.5027,6.5272,6.5442,6.5545,6.582,6.5854,6.5865,6.5883,6.5978,6.6126,6.6119,6.6026,6.6221,6.588,6.5797,6.583,6.5429,6.5245,6.5187,6.5042,6.4788,6.4575,6.4323,6.4452,6.4153,6.4062,6.3917,6.365,6.3638,6.3766,6.3591,6.3615,6.3706,6.3947,6.3834,6.3589,6.37,6.36,6.343,6.3631,6.3648,6.3589,6.3554,6.3721,6.3699,6.3634,6.3717,6.401,6.3721,6.3601,6.3733,6.3707,6.3783,6.3781,6.3631,6.364,6.3546,6.3959,6.3672,6.3608,6.3644,6.36,6.3592,6.3521,6.3708,6.3759,6.3609,6.3544,6.3534,6.353,6.3609,6.368,6.3763,6.383,6.3949,6.4004,6.4108,6.4037,6.4003,6.4065,6.4454,6.4023,6.403,6.4079,6.4196,6.4302,6.4029,6.3807,6.3645,6.3712,6.3717,6.3494,6.3329,6.3371,6.3258,6.3294,6.3322,6.3144,6.3008,6.3266,6.318,6.3117,6.3279,6.311,6.3133,6.3104,6.3044,6.3125,6.3025,6.3288,6.3046,6.3083,6.3084,6.3134,6.3029,6.3324,6.3841,6.4787,6.5854,6.7134,6.8852,6.9847,6.8055,6.4604,6.147,6.1167,6.148,6.1975,6.2992,6.3433,6.3517,6.3584,6.3511,6.3671,6.3573,6.3476,6.3536,6.3399,6.3562,6.381,6.3511,6.3421,6.3679,6.358,6.3574,6.3569,6.3842,6.3698,6.369,6.3583,6.3559,6.3552,6.3894,6.3692,6.3821,6.3834,6.4045,6.3908,6.3966,6.4069,6.4123,6.4112,6.4188,6.4299,6.4356,6.4397,6.4669,6.4755,6.4739,6.4826,6.507,6.5167,6.517,6.5237,6.5392,6.5554,6.5602,6.5446,6.5502,6.5737,6.5819,6.5639,6.5691,6.5736,6.5575,6.5461,6.5228,6.4888,6.47,6.456,6.4279,6.4203,6.4223,6.4021,6.4068,6.3922,6.3327,6.3343,6.3458,6.3598,6.3401,6.3279,6.3402,6.3524,6.3392,6.3219,6.3354,6.3353,6.3422,6.3296,6.3344,6.3488,6.3593,6.3551,6.3487,6.3298,6.327,6.3406,6.3525,6.3526,6.3505,6.3296,6.3404,6.3328,6.3432,6.3449,6.342,6.3168,6.3239,6.3422,6.3322,6.3227,6.3228,6.3377,6.3406,6.3387,6.3199,6.3101,6.3212,6.3426,6.3182,6.3171,6.3438,6.3163,6.3144,6.3342,6.3355,6.3219,6.297,6.3377,6.3379,6.3279,6.3413,6.3721,6.3663,6.3658,6.3878,6.3328,6.3496,6.3738,6.3833,6.3757,6.3725,6.3614,6.3596,6.3566,6.3293,6.3118,6.2889,6.2849,6.2684,6.2725,6.275,6.2839,6.2724,6.2827,6.2832,6.2439,6.2568,6.2706,6.2699,6.2671,6.2617,6.2607,6.2593,6.2647,6.2799,6.2505,6.2453,6.2685,6.2705,6.2745,6.277,6.3157,6.3521,6.4072,6.5189,6.6879,6.8395,6.94,6.7746,6.4164,6.0961,6.0513,6.0933,6.1554,6.239,6.2904,6.2931,6.2935,6.2935,6.3004,6.2949,6.303,6.2898,6.2928,6.2902,6.3009,6.3154,6.3061,6.2992,6.3088,6.311,6.3344,6.3147,6.2979,6.3251,6.3383,6.304,6.3053,6.3285,6.3243,6.3381,6.333,6.3264,6.3425,6.3508,6.3452,6.3348,6.3515,6.3711,6.3641,6.3681,6.3974,6.3888,6.3999,6.4124,6.4421,6.4489,6.4282,6.4689,6.4794,6.4877,6.4941,6.495,6.4742,6.5068,6.5021,6.5257,6.5124,6.518,6.503,6.5029,6.4892,6.4516,6.4499,6.417,6.3958,6.3963,6.3744,6.3557,6.3028,6.3231,6.3171,6.2926,6.281,6.2765,6.2866,6.2877,6.2849,6.2736,6.2669,6.274,6.27,6.2739,6.2692,6.2614,6.2629,6.2836,6.2822,6.2654,6.269,6.2827,6.2811,6.3061,6.2887,6.282,6.2834,6.2887,6.2943,6.28,6.2768,6.2822,6.2856,6.289,6.2767,6.2707,6.2601,6.2639,6.2759,6.2696,6.2626,6.2634,6.2768,6.2875,6.2641,6.2592,6.2602,6.2615,6.2668,6.2591,6.2701,6.2549,6.2579,6.2764,6.2659,6.2383,6.273,6.2555,6.2458,6.2578,6.257,6.2559,6.2648,6.2816,6.2869,6.2944,6.308,6.3107,6.3253,6.3038,6.2891,6.3102,6.3362,6.3313,6.3348,6.3233,6.3003,6.3099,6.2973,6.2634,6.2797,6.2498,6.2211,6.2123,6.2176,6.2208,6.2244,6.2091,6.2218,6.2323,6.2109,6.2166,6.2096,6.2092,6.2226,6.2273,6.2185,6.1991,6.2156,6.2301,6.223,6.2023,6.2256,6.2366,6.2232,6.2354,6.2731,6.3002,6.4001,6.5481,6.7089,6.8145,6.8919,6.72,6.365,6.073,6.0353,6.0521,6.0987,6.1887,6.2244,6.2553,6.2473,6.255,6.2423,6.2597,6.2506,6.2651,6.271,6.2608,6.2348,6.2809,6.2822,6.2624,6.2667,6.2556,6.2552,6.2888,6.2492,6.2757,6.273,6.273,6.2615,6.2736,6.2884,6.3042,6.2955,6.2734,6.2792,6.2872,6.2976,6.3078,6.3009,6.3029,6.3029,6.3419,6.3588,6.329,6.3467,6.3636,6.3829,6.3928,6.3919,6.4161,6.4344,6.441,6.4576,6.4425,6.4473,6.4506,6.4769,6.4888,6.4699,6.4711,6.4643,6.4659,6.4545,6.4256,6.3959,6.3774,6.3874,6.3577,6.3131,6.2936,6.2872,6.2762,6.2733,6.2627,6.2435,6.2449,6.2503,6.2473,6.2458,6.2342,6.2339,6.2278,6.2325,6.2591,6.2242,6.2206,6.2395,6.2354,6.22,6.2315,6.2418,6.2394,6.2268,6.2354,6.2565,6.2628,6.2154,6.2373,6.2551,6.2393,6.2354,6.2302,6.2326,6.2267,6.2448,6.244,6.2413,6.229,6.2365,6.2194,6.2532,6.2289,6.2191,6.2388,6.2279,6.2278,6.2204,6.2106,6.2182,6.2368,6.2091,6.22,6.2124,6.2169,6.2467,6.2239,6.215,6.1992,6.2185,6.2072,6.208,6.1972,6.2047,6.2326,6.2476,6.2501,6.2651,6.26,6.2569,6.2538,6.2727,6.2633,6.2671,6.267,6.2669,6.2567,6.2442,6.2374,6.2383,6.2223,6.2066,6.1808,6.1761,6.1507,6.1657,6.1987,6.1565,6.1692,6.1422,6.1559,6.163,6.1603,6.1658,6.1605,6.1643,6.1539,6.152,6.1462,6.1581,6.1652,6.1653,6.1726,6.1678,6.1715,6.1634,6.1965,6.2264,6.2774,6.3918,6.5542,6.7618,6.8312,6.6939,6.3718,6.1741,6.0301,5.9775,6.0248,6.0819,6.1453,6.1886,6.1986,6.1733,6.1974,6.196,6.2137,6.2012,6.2017,6.1955,6.2011,6.2029,6.2173,6.2047,6.2073,6.2064,6.2141,6.2176,6.2236,6.2293,6.2173,6.2291,6.2248,6.2151,6.2267,6.2172,6.228,6.2311,6.2376,6.2275,6.2353,6.2242,6.2464,6.2538,6.2521,6.2806,6.2886,6.2842,6.2983,6.3175,6.3255,6.3184,6.3344,6.3467,6.3544,6.3765,6.3757,6.3971,6.4111,6.3998,6.4146,6.4169,6.422,6.4309,6.4129,6.3879,6.3866,6.3779,6.3746,6.3683,6.3196,6.2995,6.2944,6.2752,6.2382,6.2318,6.2265,6.2267,6.244,6.1957,6.1931,6.1951,6.198,6.206,6.2049,6.1745,6.1881,6.1884,6.1956,6.2121,6.1892,6.174,6.1821,6.1986,6.2062,6.1828,6.1841,6.2142,6.1966,6.1953,6.1998,6.1917,6.1961,6.2043,6.2222,6.2013,6.1983,6.2011,6.1931,6.1923,6.2071,6.2139,6.184,6.1957,6.1988,6.1976,6.1888,6.1968,6.1941,6.214,6.1994,6.1864,6.1945,6.2053,6.1882,6.1893,6.169,6.1978,6.2256,6.2055,6.2103,6.2178,6.2078,6.242,6.2573,6.2562,6.2606,6.2406,6.2422,6.2399,6.2511,6.257,6.2593,6.2703,6.252,6.2676,6.2389,6.2182,6.215,6.2023,6.1884,6.1819,6.1725,6.1746,6.1896,6.1668,6.1926,6.1984,6.1602,6.1834,6.1645,6.179,6.2038,6.2042,6.1794,6.1722,6.1871,6.1801,6.1881,6.185,6.1865,6.1966,6.192,6.1963,6.2168,6.2637,6.3718,6.5057,6.6464,6.8089,6.8241,6.5427,6.2021,6.0478,6.0361,6.039,6.0969,6.1954,6.243,6.2347,6.2276,6.2283,6.2243,6.2277,6.2182,6.2249,6.2458,6.2446,6.2462,6.2418,6.2459,6.2391,6.2436,6.2475,6.249,6.2519,6.2537,6.2561,6.2512,6.2456,6.2594,6.2515,6.2641,6.2964,6.2636,6.2576,6.2976,6.3021,6.2845,6.2844,6.2874,6.3195,6.3168,6.315,6.3308,6.3405,6.3599,6.3688,6.3621,6.3914,6.3985,6.4204,6.4295,6.4239,6.4234,6.4264,6.4679,6.4716,6.4669,6.4481,6.4523,6.4665,6.4634,6.454,6.4322,6.4203,6.3964,6.381,6.3622,6.3346,6.3185,6.3173,6.3049,6.2935,6.2711,6.2441,6.246,6.2669,6.2487,6.2547,6.2492,6.2674,6.2515,6.24,6.2293,6.2209,6.2394,6.2421,6.2418,6.2345,6.2501,6.2584,6.2772,6.2667,6.2443,6.2357,6.2545,6.2529,6.246,6.2518,6.2607,6.2419,6.2754,6.246,6.2467,6.2618,6.2765,6.2611,6.2428,6.2446,6.2365,6.2479,6.2625,6.2638,6.2452,6.2442,6.2497,6.248,6.2598,6.264,6.2432,6.2472,6.2637,6.2626,6.2484,6.2505,6.2377,6.2555,6.2673,6.2665,6.3035,6.2714,6.2975,6.3036,6.306,6.2903,6.2993,6.306,6.325,6.3251,6.3295,6.2941,6.289,6.2936,6.2837,6.2753,6.2609,6.2397,6.2363,6.2388,6.2239,6.2595,6.2384,6.2165,6.2104,6.2089,6.2426,6.2325,6.2005,6.2112,6.22,6.2275,6.2096,6.2266,6.2354,6.2325,6.2284,6.2193,6.2466,6.2338,6.2435,6.2748,6.3593,6.4885,6.6139,6.7563,6.9125,6.8012,6.6235,6.2991,6.0691,6.0761,6.0601,6.1244,6.2321,6.2615,6.2569,6.2681,6.2454,6.2777,6.2691,6.2711,6.26,6.2746,6.2859,6.2855,6.271,6.2822,6.2878,6.2989,6.285,6.313,6.2931,6.2818,6.2819,6.305,6.2896,6.2968,6.3063,6.3099,6.3043,6.3135,6.3378,6.3207,6.3254,6.3215,6.324,6.3396,6.3266,6.3324,6.3648,6.3706,6.3684,6.3913,6.3976,6.4506,6.4414,6.4491,6.4484,6.47,6.477,6.484,6.4954,6.5047,6.5188,6.5158,6.5173,6.5428,6.5329,6.5024,6.4846,6.4757,6.4869,6.4615,6.4417,6.3996,6.3717,6.3709,6.3424,6.3244,6.3182,6.31,6.323,6.3016,6.2839,6.296,6.3015,6.2997,6.2703,6.278,6.2967,6.3023,6.2959,6.3007,6.2811,6.2758,6.2905,6.2912,6.2949,6.2914,6.2904,6.3071,6.302,6.293,6.3006,6.2977,6.3103,6.3073,6.3175,6.3111,6.3119,6.3332,6.3331,6.2938,6.2823,6.2721,6.3135,6.3389,6.2848,6.286,6.2875,6.2873,6.2927,6.2932,6.2985,6.2786,6.2879,6.297,6.2976,6.2917,6.2886,6.2978,6.3028,6.3064,6.3134,6.2831,6.3067,6.2882,6.2948,6.2875,6.3035,6.2857,6.3109,6.3139,6.3388,6.3378,6.3373,6.3568,6.3408,6.3465,6.3471,6.3465,6.3445,6.3518,6.3507,6.3418,6.3286,6.349,6.327,6.2908,6.3012,6.29,6.2499,6.2643,6.2798,6.2749,6.2588,6.233,6.2489,6.2734,6.2577,6.259,6.2725,6.2501,6.2568,6.2536,6.2583,6.2519,6.2576,6.286,6.2774,6.2498,6.2678,6.3158,6.3337,6.3987,6.5219,6.6697,6.825,6.9568,6.8068,6.4494,6.1392,6.0709,6.0898,6.1155,6.2024,6.2564,6.3113,6.2959,6.2908,6.2911,6.3114,6.3004,6.3117,6.3165,6.3117,6.3379,6.306,6.3294,6.3216,6.3123,6.3243,6.3222,6.3314,6.3333,6.3281,6.3331,6.348,6.3388,6.344,6.3429,6.3365,6.3429,6.3663,6.3777,6.3463,6.3461,6.3733,6.3731,6.3619,6.3792,6.3927,6.3908,6.4156,6.4477,6.4264,6.4298,6.4404,6.4752,6.4928,6.4866,6.4856,6.5027,6.5358,6.5235,6.5263,6.5521,6.5263,6.5459,6.569,6.5528,6.5418,6.5275,6.5054,6.479,6.4629,6.4417,6.4486,6.4434,6.3813,6.3605,6.3601,6.3475,6.3416,6.3359,6.3201,6.307,6.3234,6.3096,6.3143,6.3129,6.3107,6.3089,6.3084,6.321,6.3001,6.3093,6.3083,6.3074,6.319,6.3226,6.3117,6.3012,6.3161,6.3303,6.3102,6.3139,6.3352,6.305,6.3115,6.3128,6.3379,6.3192,6.3039,6.3164,6.3217,6.3247,6.3083,6.2925,6.3036,6.3045,6.3091,6.3312,6.3188,6.3178,6.3071,6.2968,6.3005,6.315,6.3022,6.3389,6.3265,6.2735,6.273,6.3058,6.2736,6.2958,6.2965,6.2838,6.2918,6.2933,6.2851,6.2894,6.2976,6.2909,6.2907,6.31,6.3312,6.2978,6.3096,6.3341,6.352,6.3668,6.335,6.3202,6.3553,6.3442,6.3577,6.35,6.3379,6.3539,6.3425,6.3297,6.3164,6.2968,6.2731,6.263,6.2571,6.2485,6.2603,6.2673,6.249,6.2566,6.2819,6.2393,6.2345,6.2556,6.2709,6.2563,6.2493,6.253,6.229,6.2621,6.2771,6.2537,6.2439,6.2407,6.2459,6.2566,6.2705,6.3079,6.3771,6.5027,6.6377,6.8135,6.94,6.8398,6.4844,6.1262,6.0357,6.0727,6.0937,6.1737,6.2558,6.2891,6.2775,6.2882,6.3011,6.2721,6.2796,6.2638,6.2765,6.3252,6.2927,6.2934,6.288,6.2965,6.2957,6.2926,6.2937,6.2971,6.3023,6.3004,6.3089,6.304,6.3154,6.3015,6.308,6.3207,6.311,6.314,6.3588,6.3293,6.3155,6.3228,6.31,6.3286,6.3574,6.3547,6.3594,6.3666,6.3776,6.3812,6.3954,6.4054,6.4359,6.4517,6.4364,6.4601,6.466,6.4773,6.4784,6.4913,6.5176,6.5257,6.4988,6.4826,6.4993,6.4922,6.4916,6.4713,6.4547,6.4296,6.432,6.409,6.3769,6.3499,6.325,6.3234,6.3006,6.2791,6.2951,6.294,6.267,6.2702,6.2824,6.2618,6.2523,6.2564,6.2825,6.2545,6.2582,6.2605,6.2629,6.2684,6.2489,6.2666,6.2644,6.2582,6.2682,6.267,6.2647,6.2667,6.2656,6.2669,6.2705,6.2825,6.2629,6.2644,6.2549,6.2615,6.2551,6.2416,6.2653,6.2924,6.2567,6.2429,6.2536,6.2494,6.2564,6.2692,6.2437,6.2391,6.264,6.257,6.2482,6.2496,6.2475,6.2325,6.2456,6.2654,6.2616,6.2639,6.2393,6.2338,6.2333,6.2231,6.2421,6.238,6.229,6.2334,6.2674,6.2398,6.2335,6.2338,6.2305,6.2321,6.2369,6.2293,6.239,6.2871,6.2728,6.2705,6.2969,6.3087,6.2887,6.2902,6.2996,6.2997,6.3089,6.3101,6.3098,6.2935,6.2904,6.2785,6.258,6.2673,6.2327,6.1997,6.2135,6.2114,6.2129,6.2135,6.2181,6.1965,6.214,6.2213,6.2033,6.215,6.1933,6.2028,6.1896,6.2026,6.2065,6.2083,6.1897,6.2001,6.1946,6.2038,6.1984,6.1957,6.2282,6.2646,6.3559,6.4604,6.6082,6.7725,6.8496,6.8469,6.5371,6.1842,6.038,6.0081,6.0335,6.114,6.2043,6.2208,6.2307,6.2236,6.205,6.2066,6.2318,6.24,6.2159,6.2114,6.215,6.2223,6.2257,6.2202,6.2208,6.2109,6.2436,6.2493,6.2408,6.2397,6.2287,6.2391,6.2297,6.2463,6.242,6.238,6.2335,6.2716,6.2532,6.2287,6.2419,6.2511,6.2631,6.2611,6.2624,6.2669,6.2677,6.2806,6.3161,6.315,6.3298,6.3347,6.3408,6.3344,6.3707,6.374,6.3795,6.4041,6.4103,6.4212,6.4166,6.3927,6.4042,6.4038,6.4444,6.4301,6.3962,6.3919,6.3706,6.3529,6.3438,6.2905,6.2676,6.2592,6.2559,6.2252,6.2131,6.1907,6.1932,6.1813,6.1795,6.1967,6.164,6.1737,6.1798,6.1624,6.1667,6.145,6.1515,6.1537,6.1579,6.1511,6.1549,6.1487,6.186,6.1601,6.1721,6.1614,6.1556,6.1572,6.1536,6.1607,6.1595,6.1651,6.1605,6.1498,6.143,6.1574,6.1335,6.147,6.1677,6.1613,6.1336,6.1453,6.1424,6.149,6.155,6.1586,6.1295,6.1419,6.1358,6.1797,6.1378,6.1165,6.1332,6.1284,6.1293,6.1218,6.1195,6.1324,6.1383,6.1425,6.1223,6.1109,6.1308,6.1492,6.1076,6.1179,6.1289,6.1465,6.165,6.1642,6.1783,6.1801,6.1806,6.1572,6.2009,6.1882,6.187,6.1862,6.1899,6.1878,6.1778,6.1792,6.1714,6.1481,6.1248,6.0998,6.0898,6.1178,6.0994,6.1151,6.1097,6.0905,6.0888,6.0905,6.1055,6.1057,6.0977,6.0887,6.1253,6.1265,6.1046,6.0882,6.0861,6.1211,6.1132,6.099,6.0993,6.1059,6.1325,6.1752,6.2413,6.3844,6.5146,6.6599,6.7715,6.62,6.3022,6.1192,5.972,5.9406,5.9749,6.0294,6.1291,6.1475,6.1388,6.1516,6.1649,6.1643,6.1373,6.1504,6.1343,6.1533,6.1538,6.184,6.1741,6.1612,6.1804,6.1793,6.1921,6.1736,6.1838,6.1838,6.2075,6.191,6.1908,6.1934,6.2068,6.2038,6.1985,6.218,6.2198,6.2074,6.2135,6.2261,6.2214,6.2475,6.278,6.2438,6.2527,6.2629,6.2812,6.331,6.3093,6.2991,6.3322,6.3388,6.3392,6.3574,6.3695,6.3746,6.4031,6.4091,6.4067,6.4083,6.4254,6.4228,6.4321,6.3853,6.3737,6.3723,6.3599,6.377,6.3574,6.3234,6.2828,6.2723,6.2595,6.2312,6.212,6.2075,6.2258,6.2176,6.207,6.1995,6.1896,6.2055,6.2225,6.1892,6.1892,6.1992,6.2138,6.1918,6.2006,6.2095,6.1986,6.2106,6.2079,6.1981,6.2159,6.2085,6.217,6.22,6.2288,6.2267,6.2202,6.2131,6.2105,6.2182,6.2009,6.2294,6.2337,6.2217,6.2151,6.2285,6.229,6.2175,6.2133,6.2198,6.2195,6.203,6.2182,6.2539,6.2116,6.2054,6.2297,6.2357,6.2059,6.22,6.2112,6.1988,6.2194,6.2623,6.2619,6.2471,6.2537,6.2686,6.2801,6.2825,6.2695,6.2706,6.2606,6.316,6.2888,6.2981,6.2767,6.2763,6.2704,6.2485,6.2206,6.2101,6.1982,6.1911,6.2217,6.2108,6.2121,6.1925,6.2095,6.2001,6.2091,6.2034,6.2159,6.1947,6.2276,6.2017,6.2133,6.2127,6.1926,6.2052,6.2075,6.2062,6.2092,6.1944,6.2196,6.2477,6.3076,6.3423,6.4766,6.6248,6.776,6.8884,6.7151,6.3889,6.0874,6.0409,6.0803,6.0879,6.1756,6.2511,6.2682,6.2618,6.2579,6.2537,6.2552,6.2462,6.2522,6.2724,6.2636,6.272,6.2782,6.2642,6.2734,6.2727,6.277,6.2896,6.2965,6.3044,6.2783,6.2999,6.3115,6.2758,6.2999,6.3028,6.3048,6.3124,6.3005,6.3053,6.3272,6.3189,6.3168,6.3238,6.3212,6.3319,6.3582,6.3615,6.3711,6.3736,6.3845,6.3829,6.4323,6.4429,6.4273,6.4544,6.4619,6.4651,6.4724,6.4811,6.4985,6.4977,6.5081,6.522,6.5038,6.4852,6.4672,6.4685,6.4542,6.4321,6.4183,6.4075,6.3748,6.3759,6.3469,6.3385,6.305,6.2815,6.282,6.2893,6.2871,6.2779,6.2711,6.2796,6.2789,6.289,6.2598,6.2488,6.2676,6.2703,6.2642,6.2716,6.2685,6.2694,6.265,6.2679,6.275,6.2842,6.2868,6.3269,6.2718,6.263,6.271,6.2787,6.2892,6.2886,6.2624,6.2884,6.2919,6.2815,6.2824,6.2583,6.2816,6.2716,6.2837,6.282,6.2733,6.2782,6.2689,6.2969,6.283,6.2652,6.2717,6.2851,6.271,6.2765,6.2798,6.27,6.2716,6.2733,6.3017,6.2562,6.2716,6.2669,6.2738,6.3005,6.2995,6.2951,6.3238,6.3202,6.3273,6.3242,6.3239,6.3138,6.3235,6.3588,6.3412,6.3357,6.3252,6.3093,6.3125,6.2912,6.2748,6.273,6.2435,6.2399,6.2655,6.244,6.2342,6.2156,6.2316,6.2227,6.232,6.2283,6.2403,6.2454,6.251,6.2592,6.2442,6.2089,6.232,6.2474,6.2461,6.2372,6.2295,6.2481,6.2649,6.2869,6.352,6.4529,6.6,6.7561,6.8934,6.861,6.7104,6.3552,6.0808,6.0527,6.0845,6.1548,6.217,6.2868,6.2866,6.2801,6.2735,6.2793,6.3015,6.2999,6.2895,6.2844,6.2839,6.3114,6.2876,6.2907,6.2918,6.3037,6.2986,6.3052,6.3124,6.3091,6.3113,6.3316,6.3207,6.313,6.3189,6.3326,6.3263,6.3486,6.33,6.3535,6.319,6.3369,6.3503,6.3601,6.3788,6.3816,6.3742,6.391,6.3827,6.3886,6.415,6.4232,6.4434,6.4595,6.4607,6.4622,6.4784,6.4984,6.5169,6.5073,6.5178,6.5163,6.5401,6.5592,6.5307,6.4923,6.5006,6.4993,6.4902,6.4633,6.4433,6.4263,6.4034,6.394,6.363,6.3429,6.3287,6.317,6.3118,6.3056,6.3005,6.2941,6.2863,6.2781,6.3015,6.32,6.275,6.2701,6.3072,6.2848,6.2954,6.2723,6.2669,6.2939,6.2968,6.287,6.2989,6.2881,6.2946,6.2893,6.2988,6.2776,6.2784,6.2924,6.3093,6.2811,6.277,6.2937,6.294,6.2716,6.2967,6.3236,6.2951,6.2908,6.2867,6.28,6.2932,6.2846,6.28,6.2737,6.276,6.2764,6.261,6.282,6.2888,6.2751,6.271,6.2668,6.2812,6.2829,6.2717,6.2756,6.2648,6.2676,6.2825,6.2973,6.3479,6.3051,6.3137,6.3456,6.3199,6.3254,6.3278,6.3355,6.3362,6.3328,6.33,6.3243,6.3022,6.3028,6.3154,6.3098,6.2764,6.2533,6.2428,6.2543,6.2408,6.2566,6.2427,6.2536,6.2346,6.2471,6.2322,6.2327,6.2416,6.2543,6.2386,6.2334,6.2367,6.2302,6.2321,6.24,6.2614,6.2596,6.2216,6.2292,6.2789,6.3123,6.3968,6.524,6.6795,6.8413,6.9212,6.6981,6.3428,6.0592,6.0454,6.0807,6.1302,6.2271,6.2525,6.273,6.2829,6.274,6.2555,6.2668,6.2802,6.3004,6.2788,6.2791,6.2591,6.2819,6.2868,6.2945,6.2794,6.2859,6.2961,6.3009,6.2973,6.2971,6.295,6.2939,6.3266,6.327,6.3015,6.2985,6.3107,6.3278,6.3186,6.3154,6.3331,6.3282,6.3214,6.359,6.361,6.356,6.3658,6.3652,6.3856,6.3968,6.3908,6.4251,6.4344,6.4401,6.4617,6.4475,6.4796,6.5138,6.4801,6.4714,6.4952,6.506,6.5169,6.5096,6.508,6.4851,6.4822,6.4644,6.4374,6.4233,6.3966,6.3693,6.3538,6.3415,6.3399,6.2974,6.281,6.2848,6.2754,6.2709,6.2731,6.2576,6.2506,6.2663,6.2667,6.243,6.2604,6.2504,6.2595,6.2562,6.2553,6.2486,6.2654,6.2454,6.2633,6.2504,6.2487,6.2566,6.2603,6.2615,6.269,6.2653,6.2635,6.2709,6.2649,6.232,6.2565,6.2916,6.2672,6.2387,6.2238,6.2299,6.2188,6.2238,6.2347,6.2383,6.2371,6.2118,6.2172,6.2325,6.2291,6.227,6.2213,6.2262,6.2237,6.2098,6.2044,6.218,6.2156,6.2163,6.2171,6.2158,6.2302,6.2443,6.2327,6.2436,6.2719,6.27,6.2613,6.2548,6.2541,6.2678,6.2716,6.2813,6.2619,6.2635,6.2632,6.2384,6.2276,6.2332,6.2129,6.1825,6.176,6.1702,6.161,6.1791,6.1753,6.1665,6.163,6.1704,6.1688,6.1742,6.1644,6.1472,6.1548,6.1592,6.1589,6.1716,6.1527,6.1585,6.1639,6.1513,6.1531,6.1563,6.18,6.2189,6.2934,6.3519,6.4771,6.6367,6.8008,6.8061,6.4964,6.1286,5.9411,5.9657,6.0116,6.053,6.1333,6.178,6.1853,6.1947,6.1912,6.1798,6.1853,6.1739,6.1828,6.1974,6.1729,6.1723,6.1909,6.1806,6.193,6.1941,6.1856,6.2057,6.16,6.1962,6.1899,6.178,6.1925,6.2064,6.209,6.206,6.2037,6.2192,6.2016,6.2294,6.2219,6.2269,6.2273,6.2399,6.2325,6.2326,6.2406,6.294,6.3111,6.2684,6.2755,6.303,6.3206,6.3379,6.3565,6.3385,6.3339,6.3516,6.3781,6.4004,6.3706,6.3784,6.4121,6.3929,6.3974,6.3619,6.3897,6.3566,6.3346,6.3507,6.3083,6.2673,6.2638,6.2296,6.1958,6.1906,6.1911,6.1732,6.1706,6.171,6.151,6.1522,6.1519,6.1272,6.1386,6.1332,6.1361,6.1423,6.1379,6.1403,6.1158,6.1307,6.1478,6.1378,6.1191,6.106,6.1301,6.1162,6.1393,6.1416,6.1255,6.132,6.1207,6.1102,6.1301,6.1439,6.1289,6.0962,6.1296,6.1228,6.109,6.1012,6.1001,6.0939,6.1092,6.1023,6.1047,6.0843,6.1021,6.0905,6.0766,6.0911,6.0984,6.0969,6.0821,6.1066,6.1016,6.1511,6.1374,6.1342,6.1179,6.1345,6.131,6.1338,6.1218,6.1504,6.1158,6.0845,6.08,6.0993,6.081,6.0378,6.0596,5.9982,5.9919,6.0517,6.0482,6.0183,5.9741,5.9889,6.0119,5.9878,5.9539,6.0289,6.0152,5.996,5.9911,5.9942,5.9825,5.9763,5.9742,5.9666,5.9505,5.9303,5.9856,5.9548,5.9871,6.0389,6.1486,6.2553,6.4179,6.5577,6.5809,6.2861,5.9821,5.8027,5.7917,5.7731,5.8435,5.9046,5.9772,5.9544,5.9546,5.9575,5.9816,5.9556,5.9632,5.9593,5.9403,5.9127,5.9587,5.9372,5.9155,5.9353,5.9126,5.9787,5.9101,5.9633,5.95,5.9442,5.9391,5.9415,5.9364,5.9548,5.9462,5.9463,5.9527,5.9515,5.9672,5.9564,5.9446,5.953,5.9586,5.9848,5.9761,5.978,6.0049,6.0106,6.0239,6.0351,6.0097,6.0575,6.0152,6.0673,6.0589,6.0617,6.0962,6.1082,6.0845,6.1039,6.0935,6.1317,6.1196,6.1288,6.1121,6.0864,6.0691,6.0404,6.0303,6.01,5.9683,5.9611,5.9887,5.9179,5.93,5.9157,5.8938,5.9059,5.9254,5.896,5.863,5.8532,5.8598,5.8533,5.9111,5.88,5.8566,5.8369,5.8462,5.8631,5.8331,5.8198,5.8543,5.8769,5.8642,5.8403,5.8508,5.8738,5.8676,5.8544,5.8754,5.8452,5.8459,5.842,5.859,5.867,5.828,5.8686,5.8194,5.8469,5.8497,5.8251,5.8483,5.8261,5.8345,5.8458,5.8533,5.8999,5.8598,5.8731,5.8687,5.8818,5.8815,5.8889,5.8669,5.8605,5.8876,5.88,5.8894,5.8725,5.8825,5.8345,5.8154,5.8158,5.8087,5.7857,5.7636,5.7485,5.7837,5.7631,5.7776,5.7681,5.7417,5.7631,5.7138,5.7702,5.7635,5.7293,5.7488,5.751,5.759,5.7462,5.7519,5.7534,5.7299,5.7548,5.7754,5.7301,5.8162,5.8345,5.969,6.0156,6.1346,6.3228,6.3524,6.1234,5.7971,5.6135,5.5605,5.5953,5.6387,5.7476,5.7323,5.7274,5.7762,5.7354,5.7548,5.7299,5.7168,5.7324,5.78,5.7496,5.7308,5.7526,5.7249,5.7849,5.7525,5.7721,5.73,5.7581,5.7317,5.7248,5.7569,5.7702,5.7495,5.7468,5.7429,5.7601,5.748,5.7497,5.8192,5.7451,5.754,5.7875,5.785,5.8015,5.7978,5.7999,5.8045,5.8136,5.8153,5.8434,5.8822,5.8299,5.8533,5.895,5.8802,5.882,5.9196,5.9392,5.8673,5.9124,5.923,5.9293,5.938,5.8417,5.8914,5.9031,5.8541,5.8506,5.804,5.8004,5.7654,5.7794,5.7321,5.712,5.6834,5.6977,5.6485,5.7121,5.6754,5.6448,5.681,5.6787,5.6695,5.6631,5.6439,5.6706,5.6377,5.67,5.6664,5.6276,5.6653,5.6646,5.6509,5.6639,5.6613,5.6757,5.6626,5.644,5.6491,5.65,5.6786,5.6451,5.6529,5.6461,5.6471,5.6348,5.6305,5.6521,5.66,5.6074,5.6727,5.6747,5.7172,5.6905,5.7171,5.6715,5.7101,5.7251,5.7115,5.654,5.6935,5.7301,5.7322,5.7142,5.7119,5.6679,5.6534,5.6533,5.628,5.5822,5.6215,5.5939,5.5831,5.6096,5.5833,5.5801,5.6024,5.5658,5.5986,5.5772,5.5742,5.5811,5.5652,5.557,5.5831,5.5743,5.5746,5.6179,5.5678,5.5883,5.5709,5.5827,5.6037,5.6559,5.7195,5.8551,6.028,6.2017,6.2269,5.9358,5.5765,5.4379,5.4183,5.4181,5.4812,5.5325,5.5877,5.6194,5.586,5.6105,5.5766,5.5926,5.6092,5.5913,5.6068,5.6167,5.6176,5.5832,5.5909,5.6516,5.5981,5.6231,5.5928,5.645,5.6376,5.607,5.6248,5.6242,5.6481,5.6306,5.606,5.6288,5.6556,5.6314,5.6441,5.6588,5.6449,5.6716,5.6741,5.6688,5.6439,5.7034,5.7014,5.7127,5.7383,5.7054,5.7116,5.749,5.7796,5.7517,5.7521,5.7978,5.8015,5.8157,5.8241,5.8153,5.8162,5.8022,5.8124,5.8309,5.8187,5.7777,5.7602,5.7264,5.718,5.7208,5.6607,5.632,5.6456,5.6534,5.6448,5.6237,5.5924,5.5933,5.5874,5.5631,5.5847,5.5889,5.57,5.5283,5.5812,5.5613,5.5703,5.6193,5.5867,5.5025,5.5586,5.5572,5.5614,5.5853,5.5873,5.5641,5.5923,5.5935,5.5785,5.5885,5.5643,5.5774,5.5527,5.5568,5.5664,5.6379,5.6112,5.6408,5.6412,5.6813,5.6667,5.6382,5.6073,5.6223,5.669,5.6781,5.6711,5.6302,5.6404,5.6233,5.572,5.5993,5.5794,5.5169,5.5845,5.5525,5.5218,5.5771,5.5589,5.534,5.5402,5.527,5.5338,5.5233,5.5143,5.5429,5.5166,5.553,5.5536,5.5347,5.5349,5.5419,5.5313,5.5483,5.5126,5.5389,5.5772,5.6442,5.7052,5.8411,6.0181,6.1678,6.1621,5.8896,5.7144,5.4102,5.3858,5.3768,5.3932,5.5289,5.5873,5.577,5.5896,5.5617,5.5801,5.575,5.5637,5.5911,5.58,5.5991,5.565,5.5891,5.5781,5.5995,5.6168,5.6016,5.5885,5.616,5.5895,5.6103,5.5736,5.6189,5.584,5.6362,5.6229,5.6169,5.6233,5.6218,5.6245,5.6337,5.6312,5.6601,5.64,5.673,5.6833,5.6945,5.7109,5.7179,5.7005,5.7005,5.7284,5.7407,5.7726,5.7528,5.768,5.7694,5.7982,5.7997,5.8107,5.7903,5.8386,5.8057,5.7707,5.785,5.7927,5.7573,5.7788,5.7462,5.7009,5.682,5.7109,5.6783,5.6646,5.6056,5.631,5.5898,5.6251,5.5974,5.6083,5.6006,5.5975,5.5806,5.5972,5.5653,5.582,5.5896,5.5602,5.6102,5.603,5.6021,5.5965,5.565,5.5839,5.5658,5.5891,5.5691,5.6091,5.5941,5.5857,5.6036,5.5832,5.5887,5.592,5.59,5.5822,5.592,5.6124,5.5875,5.592,5.5979,5.579,5.6101,5.597,5.6307,5.6056,5.6543,5.6726,5.6939,5.6522,5.6515,5.6826,5.6591,5.6824,5.6689,5.6564,5.652,5.6641,5.6151,5.6115,5.6003,5.5899,5.5874,5.5711,5.5581,5.555,5.5916,5.5432,5.5307,5.5796,5.5915,5.5537,5.5427,5.5425,5.5744,5.5509,5.5725,5.5453,5.5436,5.5348,5.5622,5.5756,5.5614,5.5696,5.5895,5.5934,5.6227,5.7347,5.8585,6.0294,6.2044,6.2035,5.8915,5.5512,5.4231,5.3837,5.4409,5.4698,5.5849,5.5981,5.5953,5.6058,5.5962,5.591,5.5916,5.5872,5.6235,5.5884,5.6032,5.6182,5.6095,5.626,5.6177,5.5819,5.5962,5.6241,5.6412,5.617,5.6387,5.6361,5.6316,5.6194,5.6443,5.6523,5.6197,5.6685,5.6609,5.6701,5.6628,5.6279,5.69,5.6619,5.6817,5.7151,5.7098,5.7458,5.7101,5.7518,5.7444,5.7548,5.7485,5.8277,5.7971,5.799,5.805,5.8003,5.8311,5.8235,5.8296,5.8623,5.8411,5.8459,5.8449,5.8229,5.7943,5.7989,5.7763,5.7324,5.7413,5.7328,5.6925,5.6772,5.6517,5.6697,5.6532,5.6525,5.6259,5.6326,5.6293,5.6213,5.6367,5.6117,5.6141,5.6335,5.63,5.6062,5.6483,5.631,5.5925,5.6392,5.6268,5.6517,5.6347,5.5752,5.6222,5.6367,5.6403,5.6288,5.6369,5.6448,5.6399,5.6433,5.624,5.6496,5.619,5.6001,5.6472,5.6125,5.6306,5.6023,5.6588,5.643,5.6704,5.6658,5.6929,5.6903,5.7111,5.7103,5.7082,5.7216,5.71,5.703,5.7355,5.7027,5.7205,5.7219,5.6887,5.6609,5.6365,5.6356,5.6069,5.6086,5.6007,5.6277,5.6228,5.611,5.5824,5.5727,5.5972,5.6374,5.5993,5.5555,5.6054,5.6363,5.6091,5.6144,5.5852,5.6258,5.6028,5.6104,5.5885,5.6102,5.6072,5.6329,5.6341,5.6701,5.7144,5.8846,6.0251,6.1896,6.2432,6.06,5.7493,5.4962,5.462,5.4514,5.5309,5.5733,5.6501,5.6682,5.6341,5.6626,5.6474,5.653,5.6299,5.6389,5.6484,5.6766,5.6291,5.6606,5.6708,5.6918,5.6636,5.668,5.6385,5.6766,5.6897,5.6938,5.6897,5.7043,5.6836,5.6815,5.6936,5.6734,5.7198,5.7166,5.7223,5.701,5.7212,5.7238,5.7387,5.7375,5.768,5.7444,5.7714,5.7754,5.8019,5.8023,5.806,5.8278,5.835,5.8418,5.8408,5.8454,5.8619,5.875,5.8805,5.8797,5.9168,5.9071,5.9057,5.8663,5.8907,5.8901,5.8398,5.8122,5.819,5.7941,5.7779,5.769,5.7858,5.7123,5.6999,5.6851,5.7051,5.6969,5.7131,5.7078,5.6712,5.6689,5.6935,5.6836,5.6691,5.6618,5.691,5.6682,5.6698,5.6634,5.6722,5.6785,5.6712,5.6679,5.698,5.6682,5.6689,5.699,5.7103,5.7168,5.6792,5.689,5.6892,5.7067,5.6888,5.6919,5.6746,5.7102,5.6867,5.6967,5.6693,5.7122,5.705,5.6964,5.7084,5.6786,5.6833,5.6859,5.7263,5.7158,5.697,5.7062,5.7502,5.7551,5.7773,5.7752,5.7801,5.7661,5.7646,5.7597,5.7217,5.7897,5.7645,5.7941,5.7565,5.7399,5.6976,5.7012,5.6918,5.6841,5.6633,5.6763,5.6727,5.6803,5.6808,5.6894,5.6838,5.6556,5.68,5.6428,5.6759,5.659,5.676,5.6688,5.6617,5.6665
