2.0676,2.0573,2.0392,2.0622,2.0484,2.0602,2.0618,2.0307,2.0327,2.0574,2.0592,2.0214,2.0397,2.0404,2.0763,2.0589,2.0512,2.0429,2.0369,2.0515,2.0504,2.0404,2.0227,2.0196,2.0587,2.0441,2.0307,2.0292,2.014,2.0365,2.0411,2.0434,2.0426,2.0117,2.0071,2.0332,2.034,2.013,2.0375,2.0344,2.0425,2.0441,2.021,2.0265,2.0159,2.0282,1.999,2.0078,2.0072,2.0062,2.0064,2.0492,2.0182,2.0086,2.0276,2.0343,2.0199,2.0095,1.993,2.0202,2.0088,2.0283,2.0168,2.0198,2.057,2.0684,2.0639,2.0595,2.0595,2.0694,2.0911,2.1225,2.0996,2.0811,2.1085,2.1073,2.0818,2.0844,2.0709,2.0437,1.9969,1.9816,1.9745,1.9807,1.9961,2.0116,2.0033,1.9898,1.9877,1.9781,1.9646,1.9967,2.0121,1.9724,1.9689,1.9805,1.9813,1.8934,1.8464,1.8415,1.8888,2.0712,2.4411,2.8516,3.1963,3.3513,3.6233,3.3778,3.0447,2.4563,1.9038,1.6687,1.5183,1.5332,1.5449,1.6887,1.8552,1.9736,1.9819,1.9796,1.9648,1.9898,1.9853,2.0194,2.0004,2.0233,1.9926,2.0175,1.9968,1.9921,1.9935,2.0276,2.0241,2.0241,2.031,2.0187,2.0365,2.0468,2.0128,1.9978,2.0072,2.0342,2.0291,2.0287,1.9925,2.0189,2.0216,2.0198,2.0362,2.0139,2.0362,2.0206,2.0351,2.0564,2.0431,2.0323,1.9944,2.017,2.0307,2.0203,2.046,2.0187,2.032,2.0282,2.0323,2.0384,2.0449,2.0329,2.0581,2.04,2.0492,2.0232,2.0394,2.061,2.0527,2.0572,2.0683,2.0777,2.1247,2.0687,2.0761,2.0911,2.0951,2.1103,2.1095,2.1029,2.1121,2.1019,2.1174,2.09,2.0444,2.0563,2.0883,2.0736,2.0695,2.0595,2.0427,2.0397,2.0497,2.0551,2.0409,2.004,2.0235,2.0669,2.0675,2.0355,2.0368,2.0336,2.0375,2.0316,2.029,2.0323,2.0274,2.0481,2.0444,2.0621,2.0231,2.0106,2.0392,2.0325,2.0224,2.0099,2.0277,2.0235,2.0082,2.0077,1.9963,2.0119,2.0213,2.0074,2.016,1.9975,2.0004,1.9975,2.0157,2.0248,1.995,1.9983,2.0041,2.0098,2.0142,1.9909,1.9957,1.9774,1.9845,1.9863,1.9929,2.0053,1.9911,2.0248,2.0126,1.9901,1.971,1.9993,1.9922,1.9906,2.0016,2.0373,2.0353,2.0717,2.0532,2.0609,2.0248,2.033,2.0766,2.0833,2.0929,2.086,2.0817,2.091,2.0631,2.0317,2.024,2.0147,1.9827,1.9982,1.9812,1.9692,1.971,1.9813,1.975,1.9826,1.9691,1.9647,1.9344,1.9401,1.9766,1.9979,1.9821,1.9518,1.9798,1.9037,1.8298,1.809,1.8274,2.0074,2.3772,2.8196,3.1416,3.2731,3.4808,3.3008,2.7456,2.1414,1.908,1.7015,1.5573,1.4987,1.4961,1.568,1.6687,1.8104,1.9331,1.9735,1.9582,1.9921,1.9855,1.9816,1.9561,1.9942,1.9882,2.0152,2.0197,2.0023,1.9693,1.994,2.0064,2.0364,2.0169,2.0461,2.0049,2.0309,2.0362,2.0241,2.0067,2.0112,2.0354,2.0077,2.0277,2.041,2.0171,2.0508,2.0205,2.0407,2.0336,2.0523,2.0228,2.0517,2.0523,2.0333,2.0159,2.0363,2.0513,2.0344,2.0285,2.0334,2.0578,2.04,2.0051,2.0461,2.0333,2.0308,2.0455,2.0419,2.052,2.0399,2.065,2.0523,2.0775,2.0682,2.0411,2.0504,2.0831,2.0915,2.0829,2.0938,2.0943,2.1131,2.1119,2.0812,2.0901,2.1019,2.1329,2.0966,2.1118,2.0662,2.0527,2.0271,2.0527,2.0463,2.0207,2.0315,2.0244,2.0307,2.0222,2.0126,2.0177,2.0049,2.0092,2.0335,2.001,2.0238,2.0349,2.0317,2.0469,1.9991,2.0106,2.0327,2.0338,2.0171,2.0287,2.027,2.0319,2.0131,2.0439,2.0243,2.0133,2.038,2.0094,2.0131,2.0708,2.0113,2.0088,2.0225,2.0382,2.0008,1.9879,2.0141,2.0189,2,2.0355,2.0127,1.9937,2.0093,1.9909,1.9993,1.9891,2.0232,2.0327,2.0488,2.065,2.0492,2.0406,2.0406,2.056,2.0896,2.1215,2.0876,2.0701,2.0849,2.1077,2.0607,2.0413,2.0168,2.0065,1.967,1.9775,1.9724,1.9577,1.9589,1.9517,1.9798,1.9656,1.9415,1.9709,1.957,1.9682,1.9669,1.9685,1.974,1.9744,1.9725,1.8729,1.8172,1.7975,1.852,1.9881,2.3268,2.7521,3.1152,3.2851,3.3764,3.5056,3.0918,2.5127,1.9676,1.6723,1.5437,1.4418,1.4901,1.579,1.7215,1.822,1.9142,1.9406,1.9671,1.9536,1.9594,1.9415,1.9999,1.9793,1.9858,1.9492,1.9996,1.9715,1.9931,2.0102,2.0034,1.9686,1.9748,1.9493,1.9665,2.0204,1.9814,2.0081,1.9952,1.9789,1.9916,2.0047,2.0252,1.9779,2.0041,1.9874,1.9746,1.9646,2.0115,2.0121,2.015,1.9726,1.992,2.003,2.0255,2.0094,1.9878,2.0008,2.002,2.0111,1.9925,2.0139,1.9903,1.9751,2.031,2.0358,2.0186,2.0132,1.9995,2.0321,2.0247,2.026,2.0087,2.009,2.0489,2.0633,2.0509,2.0404,2.05,2.0842,2.0929,2.0854,2.0472,2.0509,2.0399,2.036,2.0487,2.0492,2.0317,2.0412,2.0283,2.0328,2.0148,1.9907,2.0323,1.9974,1.967,1.9773,2.0124,1.9952,2.0016,2.0104,1.9643,1.9928,1.9926,1.993,2.0276,1.9986,1.9912,1.9941,1.9812,1.9994,1.9793,2.0293,1.9882,1.9978,1.9883,1.9943,1.9577,1.9907,1.9964,1.9911,2.0019,2.0097,1.9798,1.9819,1.9697,1.9806,1.9735,1.9891,1.98,2.0016,1.9959,1.9673,1.9703,1.9719,1.9802,1.9833,1.9711,1.9607,1.976,1.9814,1.9859,1.9835,1.9772,1.9741,1.9172,1.9371,2.0398,2.0067,2.0085,1.994,2.0372,2.0398,2.0592,2.0575,2.0751,2.0804,2.0616,2.0904,2.1071,2.1375,2.1369,2.1127,2.0811,2.0678,2.0802,2.0821,2.0611,2.0428,1.9647,1.9891,1.9823,1.9726,1.9852,1.9588,1.9529,1.9786,1.9919,1.9834,1.9517,1.9306,1.9831,1.9578,1.9695,1.977,1.968,1.9191,1.8463,1.8049,1.7964,1.9218,2.173,2.5801,3.0092,3.2315,3.4163,3.5955,3.1178,2.4816,1.9554,1.7358,1.619,1.4642,1.4967,1.5699,1.7266,1.8216,1.9718,1.964,2.0087,1.9751,2.0142,1.988,2.0157,1.9752,1.9954,1.9972,2.0142,2.0109,2.0233,2.0186,2.0136,2.0188,2.0351,2.0409,2.0572,2.0264,2.0392,2.0311,2.0502,2.0234,2.025,2.0367,2.0526,2.0281,2.0035,2.0398,2.0014,2.0176,2.0022,2.0336,2.0199,2.0124,2.0181,2.0155,2.0161,2.0124,2.0099,2.0203,2.0338,2.0122,1.9938,2.0294,2.0128,2.0233,1.9997,2.0032,1.9891,2.028,2.0241,2.0304,2.0255,2.0357,2.0588,2.0612,2.0512,2.0458,2.0555,2.081,2.0686,2.0789,2.0886,2.0811,2.0867,2.1039,2.0832,2.0868,2.068,2.0888,2.1038,2.0686,2.0381,2.0699,2.0636,2.0578,2.0436,2.021,2.0377,2.035,2.0477,2.0469,2.0308,2.0124,2.0488,2.0421,2.0141,2.004,2.0513,2.0795,2.0698,2.0615,2.0355,2.0382,2.0214,2.0678,2.0382,2.0303,2.017,2.0172,2.0394,2.0323,2.0127,2.0096,2.0284,2.0381,2.0404,2.0317,2.019,2.0073,2.0271,2.0273,2.0269,2.0311,1.998,2.0099,2.0363,2.0276,2.0066,1.9902,2.0308,2.0343,2.0045,2.0075,2.0078,2.0111,2.0339,2.021,2.0085,2.0155,2.01,2.0285,2.0232,1.9944,1.9875,2.0309,2.0276,1.9868,2.0042,2.0106,2.001,2.0257,1.9377,1.9994,1.9996,2.0256,2.0074,1.9888,2.0258,1.956,2.012,2,1.9924,2.0233,1.9838,1.9412,1.9955,1.9945,1.9798,1.9894,1.9516,1.9675,1.9733,1.9598,1.9586,1.9552,1.9661,1.9815,1.9964,1.967,1.9386,1.9285,1.9781,1.9829,1.9631,1.941,1.9506,1.9687,1.9663,1.9577,1.9505,1.9606,1.9699,1.9609,1.9607,1.9433,1.9716,1.955,1.9358,1.9518,1.9472,1.9383,1.9552,1.9533,1.9484,1.9417,1.9364,1.9535,1.9789,1.932,1.9486,1.9799,1.9434,1.9623,1.9542,1.9591,1.9809,1.9763,1.9922,1.9972,2.0258,2.0069,2.021,2.0528,2.0267,2.0193,2.0288,1.9979,2.0095,1.9797,1.9575,1.9054,1.9213,1.9573,1.9229,1.9285,1.918,1.9323,1.9328,1.9408,1.9294,1.8928,1.9028,1.9454,1.9629,1.9462,1.9397,1.8783,1.8262,1.7904,1.7733,1.8759,2.1113,2.5366,2.9542,3.1958,3.3771,3.5259,3.3845,2.7837,2.2111,1.7764,1.5825,1.4851,1.4384,1.5291,1.6125,1.7422,1.8647,1.9243,1.9391,1.9388,1.917,1.9583,1.9577,1.9398,1.944,1.9695,1.9554,1.969,1.947,1.9806,2.0012,1.9607,1.9692,1.9603,1.9771,1.968,1.961,1.9702,1.943,1.9649,1.9567,1.9586,2.0183,1.9908,1.9852,2.0005,1.9513,1.959,1.9564,1.992,1.9887,1.9903,1.967,2.0092,2.0156,1.9676,1.9887,2.0036,1.9931,1.9625,1.9791,1.9634,1.9926,1.9945,1.9714,1.9948,1.9857,1.9965,2.0228,2.0045,1.9684,1.9768,2.0039,2.0309,2.0213,1.9955,1.9956,2.0043,2.0529,2.0538,2.054,2.0472,2.0415,2.0659,2.0773,2.0852,2.0815,2.0757,2.067,2.0487,2.0677,2.0478,2.0476,2.039,2.0465,2.0375,2.0145,1.9986,2.0032,2.0231,2.027,2.016,1.9941,1.9983,2.0078,2.0451,2.0191,2.0213,2.0195,2.0173,1.9999,2.0115,2.0029,1.9966,2.0121,2.0402,2.0243,2.0294,1.9714,2.0051,2.053,2.0498,2.0094,1.9772,2.0204,2.0067,2.0038,1.9731,1.9934,2.0091,2.0072,2.0195,1.9759,1.9634,2.0084,2.0327,1.9899,1.9891,1.973,2.0059,1.9833,1.9761,1.9763,2.0001,2.0026,1.9754,1.9877,1.9688,1.9833,1.9943,1.991,1.9938,1.9562,1.9707,2.0007,2.0095,1.9974,1.9555,1.9854,1.9754,1.9811,1.9793,1.9896,1.9496,1.9562,1.9768,1.9993,1.9865,1.9871,1.9664,1.9604,1.9712,1.981,1.9468,1.9726,1.9894,2.013,2.0172,2.0037,2.0151,2.0307,2.0331,2.052,2.0381,2.0547,2.0641,2.0691,2.0485,2.0056,1.9897,1.9832,1.9688,1.973,1.9491,1.9155,1.9428,1.9451,1.9546,1.9435,1.9479,1.9723,1.9751,1.9406,1.9576,1.9297,1.9328,1.9674,1.9524,1.885,1.7688,1.7629,1.8184,1.9198,2.2194,2.617,3.0364,3.2564,3.4011,3.42,2.8911,2.3123,2.0584,1.7282,1.573,1.4496,1.4606,1.516,1.6104,1.7747,1.8685,1.9086,1.9283,1.9658,1.9486,1.949,1.9534,1.9525,1.9727,1.9847,1.9429,1.9737,1.9687,1.9841,1.9689,2.0074,1.9654,1.9753,1.9931,2.0178,1.9997,1.9566,1.9403,2.0056,2.0143,1.975,1.9805,1.978,2.0137,1.978,1.9714,1.9843,2.0164,1.9993,1.9899,1.9991,1.9868,1.9806,1.9851,2.0038,1.9735,1.9692,1.9715,1.9764,1.9915,1.9945,1.9758,1.9942,1.9919,1.9909,1.9901,1.9893,1.9651,1.9721,1.993,2.0207,2.0211,2.0124,2.0003,2.02,2.0255,2.0216,2.0312,2.0275,2.064,2.0423,2.0501,2.044,2.05,2.0425,2.0229,2.0366,2.0484,2.0192,2.0058,2.0198,1.9803,1.9764,1.9721,2.0049,1.9978,1.9877,1.9538,1.9684,1.9834,1.9823,1.9855,1.9441,1.9386,1.9474,2.0011,1.9624,1.9951,1.9581,1.9729,1.9837,2.003,1.9926,1.9588,1.9797,1.9999,1.9961,1.9913,1.9821,1.9791,1.975,1.9648,2.0108,2.0103,1.9926,1.9838,1.9859,1.9901,1.9918,1.9727,1.9648,1.9875,1.9705,1.9846,1.9586,1.9631,1.9903,1.9821,1.9764,1.9682,1.9827,1.9727,1.9695,1.9526,1.9538,1.9715,1.9687,1.9869,1.9504,1.9494,1.9644,1.9632,1.9517,1.9573,1.9782,1.9458,1.9644,1.9741,1.9536,1.9531,1.9633,1.9783,1.949,1.9355,1.9411,1.945,1.9348,1.9639,1.9764,1.9663,1.9438,1.9444,1.9734,1.9721,1.9765,1.9468,1.9387,1.9735,1.9607,1.9378,1.9396,1.9413,1.9607,1.948,1.9374,1.9324,1.965,1.9791,1.9561,1.96,1.9736,1.9914,2.0078,2.0113,2.0025,2.0032,2.0427,2.0156,2.0367,2.017,2.0187,2.0133,2.0213,2.0177,2.0071,1.9654,1.919,1.9275,1.9325,1.9317,1.9299,1.928,1.929,1.943,1.9382,1.9294,1.9118,1.9117,1.9301,1.9463,1.93,1.9263,1.8724,1.8459,1.7857,1.7822,1.8633,2.1023,2.5183,2.9444,3.2178,3.3828,3.6012,3.1783,2.5518,2.0014,1.6212,1.529,1.4427,1.5072,1.5872,1.7318,1.8474,1.9067,1.9647,1.9522,1.9314,1.968,1.9417,1.9752,1.9552,1.962,1.9565,1.9756,1.9943,1.9748,1.9516,1.996,1.9801,1.9833,1.9955,1.9943,2.0004,2.0127,1.9996,2.0058,1.9699,1.9743,1.9847,1.9765,2.0234,2.0023,2.0086,2.0007,2.0034,1.9875,1.9685,2.0036,2.0229,2.0371,2.0177,2.0071,1.9908,1.9752,2.0207,2.0182,1.995,2.0283,2.0008,2.0123,2.0255,2.0074,2.0022,2.008,2.0185,1.9937,2.0356,2.0026,2.0302,2.0683,2.0465,2.0427,2.0263,2.0097,2.0497,2.0899,2.0658,2.06,2.0687,2.0714,2.0726,2.06,2.0593,2.083,2.0624,2.0675,2.0649,2.0514,2.0537,2.0405,2.0412,2.0344,2.0302,1.9919,2.0061,2.004,2.0027,1.9682,2.0238,2.0324,2.0093,2.0057,2.0343,2.0152,1.9987,2.026,2.008,2.0024,1.9993,1.998,2.0009,2.005,2.0024,2.0261,2.0271,1.9896,2.0133,2.0201,1.9903,1.9821,1.9907,2.008,2.0328,2.0045,1.9931,1.9964,2.0049,2.0148,2.003,1.9751,1.977,1.9927,2.0147,1.9994,1.9931,1.9875,1.9788,1.9932,1.953,1.9895,1.9936,1.98,1.9848,1.9873,1.9834,1.9852,1.9998,1.9663,1.9635,1.967,1.9805,1.9867,1.9959,1.982,1.9696,1.9603,1.9702,1.981,1.9743,1.9841,1.9536,1.9692,1.9978,1.9831,1.9721,1.9863,1.9969,1.975,1.9668,1.9642,1.9675,1.96,1.9652,1.9738,1.9843,1.9486,1.9616,1.9821,2.0008,1.9822,1.9547,1.9562,2.0013,1.9838,1.9927,1.9768,1.9753,1.9753,1.9801,1.9686,1.95,1.9491,1.9624,1.9791,1.9779,1.9629,1.9896,1.973,1.9794,1.9794,1.9608,1.9733,1.962,1.9865,1.9851,1.9608,1.9725,1.9941,1.9923,1.9803,1.9728,2.0087,1.9798,1.9896,1.9898,1.9894,1.9776,1.9965,1.9776,1.9788,1.9816,1.965,1.9901,2.0381,2.0211,2.0316,2.0159,2.0504,2.0595,2.0624,2.0423,2.044,2.0426,2.0532,2.0518,2.0298,1.9902,1.9677,1.9635,1.9699,1.9613,1.9488,1.9327,1.9919,1.9747,1.9478,1.9387,1.9389,1.955,1.9802,1.9783,1.9656,1.9626,1.8867,1.847,1.8085,1.8199,1.9354,2.1517,2.6168,3.0166,3.2596,3.409,3.5469,3.0731,2.4313,1.9352,1.6598,1.6199,1.4907,1.515,1.5414,1.6554,1.7678,1.8944,1.947,1.9663,1.9552,1.9458,1.9453,1.9952,1.9869,1.9635,1.9604,1.9902,1.9747,2.006,2.0082,1.99,1.9932,1.9986,2.0002,1.9897,1.9882,1.975,1.9968,2.0011,1.9944,1.9918,2.004,2.0188,1.9913,2.0038,1.97,1.9882,2.0302,2.0398,2.0224,2.0058,2.022,1.9882,2.0167,1.9932,2.0064,2.0069,1.9932,2.0238,2.0318,2.0213,2.0064,2.0026,2.0279,1.9935,1.9978,2.0224,2.0164,2.0457,2.0559,2.0204,2.0025,2.0242,2.0539,2.0442,2.0326,2.0414,2.0428,2.0675,2.0561,2.071,2.0682,2.0611,2.0792,2.0877,2.0915,2.0756,2.0696,2.0773,2.0693,2.0468,2.0447,2.0476,2.044,2.0383,2.0244,2.0159,1.9906,2.001,2.0161,2.0266,2.0015,2.0057,2.0009,2.0103,2.0067,1.9818,1.9922,1.9935,2.0021,2.0288,2.022,1.9919,2.0038,2.0251,2.0075,2.0182,2.004,2.0061,1.9985,2.0011,2.0162,1.9891,2.0068,2.02,2.0255,2.0261,2.007,1.9894,2.0064,2.0232,2.0179,1.997,1.9854,1.9925,1.9868,2.0082,1.9906,1.9658,1.9696,1.9884,2.0261,1.989,1.9864,1.9967,1.9822,2.0005,1.9652,1.956,1.9665,1.9882,1.9828,1.9638,1.9462,1.9853,1.9997,1.9984,1.9865,1.9448,1.9698,2.0053,2.0015,1.9659,1.9656,1.9794,1.9869,1.9907,1.9602,1.9475,1.956,1.9482,1.9697,1.9795,1.9666,1.9685,1.9818,1.9759,1.9842,1.969,1.9695,1.9743,1.98,1.9764,1.9925,2.0006,2.0131,2.0133,2.0026,2.0239,2.0436,2.0472,2.0564,2.0538,2.0334,2.0242,2.0016,2.0151,2.004,1.9558,1.9379,1.933,1.941,1.9543,1.9205,1.9168,1.9357,1.9447,1.9369,1.9116,1.9203,1.9608,1.956,1.9727,1.9395,1.8836,1.8038,1.7823,1.7978,1.8773,2.0895,2.4894,2.9028,3.2146,3.3588,3.5354,3.1529,2.5854,2.3231,1.8119,1.6151,1.4767,1.4546,1.5259,1.6289,1.7454,1.8417,1.9277,1.9573,1.9466,1.9351,1.9554,1.948,1.9668,1.9451,1.9561,1.9524,1.9477,1.9682,1.974,1.9578,1.9727,1.9822,1.9916,1.988,1.9869,1.9752,1.9763,1.9819,1.9738,1.9927,1.9853,1.9707,1.9644,1.9988,2.0086,1.9792,1.9919,1.9942,1.9806,2.0036,1.9636,2.0154,2.0023,2.0022,2.019,1.9825,1.9939,1.982,1.9934,2.0161,2.0002,1.9936,1.9877,2.0158,2.0266,2.0103,2.004,2.0201,2.0287,2.0412,2.0451,2.0345,2.0305,2.0383,2.0185,2.0465,2.0406,2.0395,2.0578,2.0688,2.0665,2.0384,2.0677,2.0884,2.066,2.0456,2.0284,2.0659,2.0599,2.03,2.025,1.9865,1.9936,1.9808,2.0015,1.9982,1.9679,1.9558,1.9727,1.9397,2.0253,1.9463,1.963,1.9717,1.9591,1.9827,2.0145,1.9728,1.9165,1.957,1.9445,1.9528,1.9538,1.954,1.9734,1.9955,1.972,1.9525,1.941,1.9602,1.9665,1.9389,1.9493,1.964,1.9576,1.987,1.9535,1.9416,1.9522,1.9517,1.9652,1.973,1.9639,1.9384,1.9435,1.9699,1.954,1.9377,1.9339,1.9372,1.9537,1.9381,1.9263,1.927,1.919,1.9769,1.9263,1.9242,1.9336,1.9482,1.9376,1.9567,1.9249,1.9533,1.9206,1.9547,1.9372,1.9226,1.9377,1.9168,1.9551,1.9596,1.9428,1.9555,1.9366,1.9156,1.9524,1.9382,1.9575,2.004,1.997,2.0068,2,1.9854,2.0258,2.0348,2.0303,2.011,2,2.0214,1.99,2.0061,1.9853,1.98,1.9667,1.9185,1.93,1.9078,1.9036,1.9102,1.936,1.9268,1.9223,1.9113,1.9005,1.9041,1.9427,1.9525,1.9392,1.9136,1.8736,1.7778,1.7709,1.7799,1.797,1.9472,2.3239,2.7572,3.1364,3.2811,3.5545,3.3649,2.7696,2.2068,1.7202,1.5728,1.4511,1.437,1.5281,1.6593,1.8088,1.9312,1.9168,1.9312,1.9291,1.9377,1.927,1.957,1.9117,1.916,1.9659,1.955,1.9701,1.9806,1.9573,1.9435,1.9818,1.984,1.9656,1.968,1.9607,1.9534,1.9702,1.9488,1.9764,1.9463,1.9907,1.9651,1.9815,1.9883,1.9793,1.9658,1.9755,1.9725,1.9989,1.9838,1.9824,1.9685,1.9957,2.014,1.9792,1.9826,2.0086,1.9884,2.0092,1.9938,1.998,2.0023,1.9998,2.032,2.0223,2.0156,2.0228,2.011,2.0256,2.0542,2.0214,2.0408,2.0183,2.048,2.0379,2.0542,2.0503,2.0861,2.0905,2.0762,2.0515,2.0707,2.069,2.074,2.0704,2.0572,2.034,2.0506,2.0387,2.0066,2.0016,1.9863,1.9853,2.0128,1.994,1.9737,2.0179,1.9781,1.9923,1.9843,1.9789,1.959,1.9696,2.003,2.0051,1.9786,1.9679,1.9829,1.979,1.971,1.9732,1.9668,1.9617,1.9958,1.9863,1.9795,1.9641,1.9784,1.9632,1.9532,1.9736,1.9708,1.9718,1.994,1.9757,1.9554,1.959,1.9547,1.9698,1.9678,1.9564,1.9621,1.926,1.9874,1.9832,1.9752,1.9545,1.9407,1.9655,1.958,1.9673,1.9456,1.9579,1.956,1.9709,1.9578,1.9466,1.9449,1.9396,1.9518,1.9753,1.9427,1.9269,1.9468,1.9512,1.9622,1.9624,1.9138,1.9668,1.9627,1.948,1.9543,1.9788,1.9861,2.0033,2.0018,1.9889,1.9942,2.0154,2.034,1.9985,2.0312,2.0235,2.0332,2.0239,2.0034,2.0048,1.9549,1.9539,1.9523,1.9433,1.9237,1.9012,1.9027,1.9171,1.9213,1.9151,1.9161,1.9074,1.936,1.9244,1.9242,1.9013,1.9264,1.9137,1.8891,1.8129,1.757,1.7775,1.8537,2.1029,2.5199,2.9334,3.1851,3.3172,3.4756,3.0518,2.4537,1.8904,1.5905,1.5146,1.4379,1.4862,1.4648,1.5642,1.6946,1.8118,1.8855,1.8925,1.898,1.9158,1.9219,1.9531,1.9163,1.8947,1.9371,1.9371,1.9218,1.8993,1.9619,1.9635,1.9443,1.941,1.9377,1.9678,1.9216,1.9431,1.9786,1.9345,1.9293,1.9503,1.934,1.9607,1.9386,1.9624,1.9118,1.9717,1.9835,1.9599,1.9326,1.9641,1.9733,1.974,1.9699,1.9548,1.9538,1.9481,1.9586,1.9625,1.9448,1.9507,1.9679,1.9913,1.9849,1.9867,1.9763,1.9615,1.9935,1.9888,1.9775,1.9731,2.0028,2.0345,2.0048,2.0292,2.0148,2.0023,2.0469,2.0172,2.0229,2.0199,2.041,2.0516,2.0507,2.0321,2.0244,2.012,2.0239,2.003,1.9851,1.9534,1.9798,1.9916,1.9915,1.9704,1.9345,1.9712,1.9674,1.9258,1.9604,1.9689,1.9493,1.9606,1.9474,1.9511,1.9258,1.9401,1.9391,1.9423,1.9601,1.926,1.9428,1.9542,1.9351,1.9594,1.966,1.9607,1.9332,1.9552,1.9579,1.9452,1.9197,1.9626,1.97,1.957,1.9533,1.9433,1.9383,1.9397,1.9607,1.9461,1.9452,1.9414,1.9412,1.9446,1.9273,1.8955,1.9566,1.9257,1.9222,1.9236,1.9113,1.9227,1.9208,1.9075,1.9268,1.8987,1.9294,1.9273,1.9112,1.9538,1.9339,1.9159,1.9242,1.9543,1.9759,1.9637,1.9649,1.9661,1.9605,1.9813,1.9945,1.9973,2.0112,2.0135,2.0072,1.978,1.9637,1.957,1.9506,1.9112,1.8966,1.8892,1.8812,1.8906,1.8901,1.8899,1.902,1.8869,1.8933,1.9118,1.8483,1.8863,1.8856,1.9165,1.9107,1.8826,1.8214,1.7911,1.7475,1.746,1.792,1.8847,2.1999,2.6406,3.0285,3.2024,3.3794,3.3586,2.8214,2.2333,1.7776,1.5377,1.4274,1.3878,1.4466,1.5415,1.6903,1.765,1.8528,1.8694,1.9114,1.8889,1.8852,1.8902,1.8917,1.9165,1.9225,1.9009,1.9028,1.9151,1.8878,1.9455,1.926,1.9213,1.9265,1.9101,1.9323,1.9219,1.8958,1.9157,1.9542,1.942,1.9201,1.9278,1.9237,1.9534,1.9503,1.9352,1.9338,1.913,1.9552,1.9666,1.939,1.9432,1.9342,1.9535,1.9667,1.9449,1.948,1.9386,1.9361,1.9708,1.9634,1.9411,1.9681,1.9648,1.984,1.9543,1.9439,1.9702,1.985,2.0057,2.0003,1.983,1.9765,1.9971,1.9816,1.9986,2.0035,2.0138,2.0015,2.0525,2.0463,2.0281,2.0043,2.0023,2.0116,2.019,1.9974,2.0061,2.0011,1.9887,1.9739,1.9548,1.9604,1.941,1.9538,1.9342,1.9476,1.9402,1.9594,1.923,1.9462,1.917,1.9093,1.932,1.9419,1.9505,1.942,1.9215,1.9198,1.9488,1.9279,1.9259,1.9186,1.9371,1.9611,1.9473,1.9504,1.9224,1.9101,1.9233,1.9405,1.9336,1.9156,1.9175,1.9357,1.9383,1.9432,1.8994,1.8918,1.9295,1.9339,1.9278,1.9071,1.9305,1.9279,1.9358,1.9349,1.9144,1.8938,1.8957,1.9169,1.9097,1.8931,1.8893,1.9271,1.9084,1.9212,1.8997,1.8838,1.9226,1.9137,1.8926,1.9221,1.9045,1.9077,1.8973,1.9019,1.9173,1.9046,1.8986,1.8804,1.9007,1.9249,1.9115,1.8972,1.9058,1.9191,1.9504,1.9238,1.9371,1.9515,1.9496,1.996,2.0073,1.9712,1.9909,1.9935,1.9936,1.9853,1.9344,1.9281,1.9601,1.9447,1.8971,1.873,1.8846,1.8653,1.8946,1.875,1.8898,1.8551,1.8933,1.8866,1.8957,1.8836,1.8835,1.89,1.8958,1.88,1.8546,1.7816,1.7113,1.723,1.7846,1.949,2.3213,2.7326,3.0727,3.2508,3.5395,3.3296,2.709,2.1286,1.6825,1.5766,1.4361,1.399,1.45,1.5956,1.7362,1.8136,1.865,1.9183,1.8911,1.917,1.9021,1.8851,1.9136,1.9369,1.9237,1.9362,1.9191,1.9157,1.9121,1.934,1.8944,1.9124,1.9282,1.9549,1.9371,1.9183,1.947,1.9266,1.9237,1.9637,1.9475,1.948,1.9404,1.9533,1.9323,1.9165,1.9378,1.9369,1.9374,1.9638,1.9388,1.9326,1.9549,1.9613,1.9707,1.9637,1.9453,1.9393,1.9683,1.9773,1.956,1.9653,1.9506,1.9942,1.9956,1.9689,1.945,1.9923,2.0072,2.0085,2.0099,1.9985,2.0075,1.9764,2.0003,2.0396,2.0257,2.0327,2.0569,2.063,2.0552,2.0267,2.0154,2.0466,2.0436,2.0469,2.0468,2.0276,2.0179,2.0286,2.0232,1.9872,2.0028,2.0156,2.033,1.9801,2.0048,1.9608,1.9894,1.9907,1.9944,1.9923,1.9732,1.9942,1.9866,1.9713,1.9956,2.0002,1.9775,1.9825,2.0069,1.9862,1.9874,1.9684,1.9744,1.987,1.9876,1.9705,1.9638,1.9787,2.0013,1.9898,1.9748,1.946,1.9724,1.9576,1.9927,1.9823,1.9681,1.9638,1.9795,1.9995,1.9725,1.9598,1.9559,1.974,1.9776,1.9764,1.9708,1.9659,1.985,1.9863,1.9746,1.9674,1.9568,1.9713,1.9541,1.9472,1.9602,1.9563,1.9626,1.9684,1.954,1.9354,1.9301,1.9689,1.9675,1.9716,1.9206,1.9457,1.9589,1.9741,1.96,1.9357,1.9569,1.9561,1.9604,1.9611,1.9507,1.9313,1.9444,1.9479,1.9594,1.9509,1.9585,1.9541,1.9406,1.9681,1.9381,1.9771,1.9602,2.0016,2.0076,1.9826,2,2.0078,2.0273,2.0353,2.0395,2.025,2.0162,2.0322,1.9964,1.9896,1.9633,1.9432,1.9401,1.9528,1.9335,1.9257,1.9216,1.9237,1.9425,1.9417,1.9217,1.9318,1.9406,1.9287,1.9386,1.9545,1.9427,1.9066,1.8755,1.8273,1.7991,1.8039,1.8896,2.2173,2.6457,3.0179,3.2284,3.4214,3.4562,2.9552,2.3357,2.0309,1.7256,1.5683,1.4712,1.4539,1.5239,1.587,1.7806,1.86,1.9236,1.9236,1.9382,1.9368,1.9574,1.9651,1.9552,1.9481,1.9776,1.959,1.9562,1.9501,1.9659,1.974,1.9864,1.9825,1.9465,1.9577,1.9608,1.9757,1.9618,1.9763,1.9728,1.9813,2.0152,1.974,1.958,1.9691,1.9821,1.9866,1.9923,1.9826,1.9714,1.984,1.9978,1.9837,2.0022,1.9692,1.9842,1.9916,1.9564,2.0013,1.9989,1.9877,1.9983,1.9977,2.0032,1.9876,1.9868,2.0111,2.0203,2.0088,2.004,2.0241,2.0333,2.0439,2.0476,2.0427,2.0385,2.035,2.0571,2.0647,2.073,2.0665,2.0785,2.0782,2.1001,2.0767,2.0413,2.0508,2.066,2.0763,2.0585,2.0335,2.025,2.0172,2.0111,2.0103,2.0094,2.0088,2.0186,2.0101,1.9905,1.9801,1.9895,2.0202,2.0088,2.017,1.9923,1.9855,2.0026,2.0166,2.0226,1.9764,2.0118,2.0098,2.0253,1.9993,1.9828,2.0144,2.0079,2.0047,2.002,2.0272,1.998,1.9877,2.0246,2.0243,2.0064,2.005,1.9886,1.9976,1.9988,1.9917,1.9922,1.9928,1.9954,2.0148,1.9929,1.9786,1.9478,1.9864,1.9896,2.0143,1.989,1.9936,1.9833,1.9995,2.0143,1.9752,1.9795,1.9697,1.9954,1.9846,1.9831,1.9731,1.9584,1.9596,1.9821,1.9903,2.0129,1.9861,1.9812,1.9684,1.9553,1.9689,2.009,2.0389,2.04,2.0262,2.0037,2.0334,2.0543,2.0323,2.0618,2.0553,2.0496,2.0479,2.0159,2.0329,1.9981,1.9617,1.9437,1.952,1.9619,1.9565,1.9449,1.9551,1.9652,1.9647,1.9585,1.9385,1.9258,1.9593,1.9607,1.9609,1.9483,1.9536,1.9079,1.8339,1.8116,1.7969,1.8866,2.0945,2.5038,2.9072,3.1952,3.2667,3.453,3.4049,2.8632,2.2851,1.8104,1.6212,1.542,1.4867,1.5054,1.5766,1.7408,1.8611,1.9294,1.9485,1.9697,1.9754,1.9684,1.9777,1.9707,1.9702,1.9905,2.0108,1.9732,1.9606,1.9959,1.9941,2.0081,2.0129,2.0025,1.9932,2.0009,2.01,2.0007,1.9773,1.9764,2.0045,2.0095,1.9965,1.9902,2.002,2.0278,2.0188,2.033,2.0373,1.9969,2.009,2.0271,2.0344,2.0166,2.0294,2.0082,2.0375,2.0217,2.0098,1.9781,2.0369,2.04,2.0542,2.0437,2.0392,2.0195,2.0446,2.0688,2.0396,2.0326,2.0363,2.0404,2.0701,2.0715,2.0632,2.0753,2.0643,2.0673,2.091,2.0942,2.0901,2.0996,2.1251,2.1313,2.0833,2.0743,2.0836,2.1176,2.0987,2.0657,2.0429,2.0542,2.047,2.0394,2.0452,2.0228,2.0155,2.0459,2.0276,2.0333,2.0277,2.0117,2.0273,2.0291,2.0214,2.0222,2.0134,2.0264,2.0297,2.0246,2.0129,2.0061,2.004,2.0081,2.0521,2.0108,2.0243,2.045,2.0275,2.0255,2.0004,2.0451,2.0593,2.0603,2.0512,2.0374,2.0176,2.0073,2.034,2.0408,2.0418,2.029,1.9989,2.0009,2.0283,2.0546,2.0263,2.0286,2.0322,2.0295,2.0189,2.0086,2.0103,2.0137,2.0061,2.0275,1.9835,1.9909,2.0126,2.0154,2.015,1.9833,1.9848,1.9931,1.9955,2.0354,2.0085,1.9901,2.0066,2.006,2.0213,1.9965,2.0087,2.0509,2.0666,2.052,2.0614,2.0598,2.0613,2.0792,2.1065,2.0947,2.0775,2.0703,2.047,2.0426,2.0477,2.0294,2.0181,1.9877,1.9781,1.9724,1.9458,1.9935,2.0027,1.9861,1.9953,1.9701,1.9602,1.965,1.9894,1.9776,1.9613,1.9421,1.965,1.9391,1.9031,1.8404,1.8216,1.8855,2.072,2.2637,2.6266,3.0543,3.2469,3.4701,3.5475,3.0293,2.4302,1.9059,1.6385,1.5593,1.4971,1.553,1.6565,1.8079,1.8931,1.9843,1.9663,1.9714,1.9927,2.0222,1.9949,2.0055,1.9732,2.0114,1.991,1.9993,1.9773,2.0008,2.0026,2.016,2.009,2.0339,1.9911,2.0238,2.032,2.0128,2.0036,2.0036,2.0011,2.0247,2.0356,2.0195,2.0257,2.0148,2.019,2.0203,2.0189,2.0217,2.0149,2.0358,2.0484,2.031,2.037,2.0305,2.0541,2.0372,2.0079,2.0336,2.0203,2.0253,2.05,2.0499,2.0375,2.044,2.0526,2.039,2.085,2.016,2.0809,2.0928,2.0682,2.0698,2.0809,2.0718,2.0763,2.0961,2.1063,2.1017,2.1039,2.0922,2.1322,2.1187,2.0767,2.078,2.0911,2.1403,2.1039,2.065,2.0476,2.0559,2.0752,2.0687,2.048,2.0249,2.0352,2.0309,2.0347,2.0388,2.0299,2.0272,2.0521,2.0524,2.0482,2.0225,2.0339,2.0443,2.0606,2.0514,2.0455,2.0076,2.049,2.0541,2.0499,2.0105,2.0141,2.0449,2.0387,2.0399,2.0362,2.0261,2.0243,2.0512,2.0501,2.015,2.0075,2.0148,2.0486,2.0455,2.0061,2.0242,2.0423,2.0567,2.0205,1.9997,2.0417,2.0315,2.0168,2.0174,2.0325,2.0001,2.006,2.0293,2.0087,2.0341,2.0208,2.0137,2.0266,2.0298,2.0233,2.0093,2.0405,2.0235,2.0265,2.0282,2.0395,2.0306,2.0247,2.0296,2.0317,2.0165,2.0189,2.02,2.023,2.035,2.033,2.0367,2.025,2.0223,2.0155,2.0087,1.9933,1.9871,2.0455,2.0349,2.0329,2.033,2.0188,2.0417,2.0131,2.0147,2.0114,2.0369,2.0723,2.0858,2.0776,2.0635,2.0503,2.0628,2.0789,2.1208,2.097,2.105,2.1362,2.1076,2.0706,2.0477,2.0433,2.0164,2.0163,2.0068,1.9825,1.991,1.9773,1.9853,1.9826,2.0128,1.9769,1.9942,2.0044,2.0095,1.98,1.9874,1.9798,2.014,1.9647,1.9105,1.8367,1.8315,1.8918,2.0167,2.3187,2.7605,3.1697,3.329,3.6373,3.4949,2.8998,2.3386,1.84,1.6479,1.523,1.5034,1.626,1.7573,1.8805,1.9222,1.956,2.0096,2.005,2.0057,2.002,1.9768,2.013,2.0218,2.0247,2.0332,1.9971,2.0077,2.0208,2.042,2.0316,2.021,2.0023,2.0343,2.0195,2.0263,2.0404,2.0339,2.052,2.0333,2.0434,2.0518,2.0385,2.0439,2.0524,2.0463,2.0455,2.039,2.0233,2.0558,2.055,2.0705,2.0358,2.0446,2.0513,2.0497,2.0745,2.0563,2.0319,2.0828,2.0883,2.0637,2.0481,2.0411,2.0779,2.0791,2.0947,2.0731,2.0926,2.0949,2.0998,2.1121,2.1064,2.1106,2.1336,2.1257,2.118,2.1256,2.1284,2.1281,2.163,2.1488,2.146,2.1365,2.1375,2.1499,2.1161,2.1303,2.1098,2.1316,2.1209,2.1084,2.1086,2.044,2.0531,2.0822,2.0908,2.0934,2.0732,2.0645,2.0827,2.0601,2.0693,2.0707,2.0702,2.0793,2.0737,2.0656,2.0734,2.0466,2.078,2.0698,2.0606,2.0386,2.0659,2.0556,2.0938,2.0506,2.058,2.0695,2.0659,2.0607,2.055,2.0585,2.0686,2.0354,2.0803,2.0729,2.0323,2.061,2.0492,2.0573,2.0606,2.0691,2.0591,2.0381,2.0277,2.0716,2.05,2.0367,2.0389,2.0261,2.0587,2.0519,2.0286,2.0297,2.0392,2.0582,2.0538,2.0508,2.0467,2.0525,2.0409,2.0308,2.039,2.0186,2.0174,2.0606,2.0466,2.0452,2.0227,2.0468,2.0602,2.0437,2.0506,2.0355,2.0364,2.0472,2.0323,2.0448,2.0514,2.0348,2.0272,2.0477,2.0217,2.0274,2.0307,2.0194,2.0556,2.0361,2.0271,2.0466,2.0496,2.039,2.0351,2.0312,2.0294,2.0353,2.0348,2.0337,2.0323,2.021,2.0432,2.0485,2.025,2.0503,2.0285,2.0156,2.0487,2.0403,2.0553,2.0432,2.0179,2.0392,2.0502,2.0572,2.0104,2.0289,2.0356,2.0439,2.0363,2.0339,2.029,2.05,2.0288,2.0187,2.0262,2.0347,2.0465,2.0511,2.0297,2.0458,2.0553,2.0743,2.0998,2.0749,2.069,2.0844,2.1107,2.1254,2.1147,2.1116,2.1216,2.105,2.0879,2.0699,2.0766,2.0271,2.0035,2.0258,2.0317,2.0377,2.0199,2.014,2.0492,2.0102,1.9909,2.0123,2.0205,2.0475,2.0344,2.0374,2.0099,1.9683,1.9212,1.8639,1.8575,1.9147,2.1347,2.5426,2.9444,3.2599,3.3723,3.5477,3.2325,2.6478,2.1136,1.7497,1.6288,1.5367,1.5776,1.5609,1.6538,1.7717,1.9077,1.9801,2.0257,2.0248,2.0074,2.0246,2.0512,2.0465,2.0434,2.032,2.0337,2.0489,2.06,2.0465,2.0423,2.0556,2.0849,2.074,2.0608,2.0377,2.0491,2.0737,2.0475,2.0569,2.0766,2.0424,2.078,2.0719,2.075,2.0298,2.0509,2.0778,2.0544,2.0706,2.0607,2.0615,2.0762,2.0721,2.0792,2.0463,2.073,2.0666,2.0824,2.0847,2.0684,2.0725,2.099,2.0821,2.0877,2.0753,2.0325,2.0914,2.0747,2.0684,2.0967,2.087,2.0892,2.1095,2.1012,2.0969,2.0987,2.1089,2.1266,2.1381,2.1447,2.1558,2.1325,2.1322,2.1847,2.1494,2.0846,2.1609,2.1516,2.1532,2.1362,2.1245,2.1131,2.0979,2.1145,2.1093,2.0812,2.0859,2.0848,2.1125,2.0859,2.0942,2.0792,2.0668,2.0967,2.0621,2.0706,2.0902,2.0631,2.0933,2.1085,2.0909,2.0706,2.0733,2.0902,2.0755,2.0749,2.0599,2.0874,2.092,2.084,2.1059,2.0756,2.0839,2.0936,2.0623,2.1086,2.0819,2.0768,2.0654,2.0881,2.0841,2.0709,2.0571,2.0868,2.0749,2.0706,2.0522,2.0508,2.0806,2.0898,2.0803,2.0618,2.0498,2.0378,2.071,2.0504,2.066,2.0308,2.0553,2.0616,2.06,2.0472,2.0585,2.0485,2.0354,2.0156,2.0504,2.0548,2.0355,2.0711,2.0714,2.0568,2.0316,2.0369,2.0429,2.0521,2.0397,2.0353,2.0084,2.0078,2.0247,2.066,2.0383,2.0066,2.0403,2.0375,2.0327,2.0323,2.0362,2.0463,2.0534,2.053,2.0289,2.0287,2.0322,2.0409,2.046,2.016,2.006,2.0063,2.0492,2.0386,2.0151,2.0416,2.0236,2.023,2.0298,2.0564,2.0345,2.018,2.0673,2.067,2.0621,2.0703,2.0885,2.0655,2.0753,2.1054,2.09,2.1207,2.1023,2.1246,2.1197,2.0719,2.0846,2.0498,2.0452,2.0128,2.0018,1.9986,2.0115,2.0112,2.0077,1.9807,1.9946,2.0185,2.0222,2.0132,2.018,1.9999,1.9893,2.0345,1.99,1.911,1.8083,1.8418,1.9317,2.1516,2.538,2.953,3.2657,3.3963,3.6486,3.2649,2.6847,2.1273,1.7728,1.7109,1.5693,1.5206,1.5643,1.7163,1.8447,1.9693,1.9675,1.9976,1.9967,2.0151,2.0376,2.0276,1.9883,2.0648,2.068,2.0493,2.0128,2.0413,2.0568,2.0638,2.0664,2.0533,2.0378,2.0294,2.0706,2.109,2.0695,2.0515,2.056,2.0362,2.037,2.0785,2.0691,2.0667,2.0962,2.086,2.0566,2.0733,2.057,2.049,2.0673,2.0548,2.0702,2.0694,2.0718,2.0766,2.0459,2.0714,2.0651,2.0634,2.0904,2.1013,2.073,2.0407,2.1192,2.1161,2.093,2.0673,2.0705,2.0936,2.1002,2.0918,2.0899,2.1159,2.1172,2.1273,2.1242,2.1111,2.1155,2.1529,2.1633,2.1501,2.1357,2.1386,2.1429,2.1309,2.1364,2.1171,2.1234,2.1004,2.0941,2.0944,2.0852,2.0857,2.0842,2.0724,2.0711,2.089,2.1119,2.0429,2.0761,2.0812,2.0539,2.0621,2.0595,2.0767,2.0808,2.061,2.0707,2.0795,2.0758,2.082,2.0958,2.0656,2.072,2.0681,2.0895,2.0691,2.0685,2.0719,2.0657,2.0823,2.0653,2.0866,2.0675,2.0657,2.0803,2.0747,2.0949,2.0578,2.0512,2.0528,2.086,2.0753,2.0572,2.0652,2.0734,2.0691,2.0741,2.0657,2.0445,2.0589,2.0691,2.0572,2.0546,2.0657,2.0623,2.0763,2.0604,2.066,2.0576,2.0647,2.0513,2.0495,2.0475,2.0731,2.0565,2.0729,2.0695,2.0528,2.073,2.0626,2.0511,2.0495,2.0456,2.0373,2.0365,2.0569,2.0616,2.0618,2.0513,2.0531,2.0475,2.0492,2.0413,2.045,2.0472,2.0395,2.0518,2.0598,2.0279,2.0371,2.0451,2.03,2.0572,2.0582,2.0579,2.056,2.0606,2.0548,2.0282,2.033,2.0474,2.0629,2.0723,2.0568,2.0625,2.0586,2.0575,2.0611,2.0916,2.1006,2.1063,2.1064,2.1016,2.1074,2.1041,2.0997,2.1244,2.1452,2.1516,2.1224,2.093,2.095,2.0549,2.0762,2.0171,2.0165,2.0217,2.0333,2.0195,2.0226,2.0287,2.0332,2.0343,2.0146,2.0098,2.0056,2.0188,2.0481,2.0182,1.9401,1.8891,1.8671,1.8841,2.0163,2.35,2.7642,3.1535,3.3666,3.5522,3.5463,2.9941,2.4261,1.93,1.7673,1.6492,1.5077,1.5276,1.5971,1.7362,1.8538,1.9633,2.0077,2.0222,2.0214,2.0159,2.0046,2.0119,2.051,2.0577,2.0325,2.0355,2.0377,2.0626,2.0547,2.0639,2.0423,2.0522,2.0473,2.0669,2.0382,2.0587,2.0654,2.0441,2.0568,2.0747,2.0509,2.0345,2.0478,2.0887,2.0652,2.0494,2.0628,2.0701,2.0603,2.0904,2.0701,2.0579,2.05,2.0634,2.1046,2.0862,2.0686,2.0837,2.0783,2.1049,2.0634,2.0683,2.0719,2.0698,2.0747,2.1079,2.0806,2.0785,2.0865,2.1079,2.1238,2.1041,2.1146,2.0892,2.1127,2.1381,2.1314,2.1229,2.1566,2.1606,2.1568,2.1312,2.1308,2.1225,2.1414,2.1482,2.1326,2.1154,2.1134,2.1177,2.1197,2.1064,2.069,2.0817,2.0977,2.09,2.0759,2.0536,2.0663,2.0677,2.0878,2.0655,2.0516,2.0537,2.0709,2.0753,2.0749,2.0526,2.0401,2.068,2.0642,2.0805,2.068,2.0634,2.0965,2.0922,2.0757,2.0612,2.0538,2.0674,2.0959,2.0727,2.0865,2.0549,2.0578,2.0588,2.0657,2.0633,2.064,2.051,2.041,2.0528,2.0964,2.0743,2.0581,2.0752,2.0523,2.0579,2.059,2.0321,2.0409,2.0538,2.0546,2.0319,2.0491,2.0418,2.0351,2.0549,2.0403,2.0479,2.0663,2.0387,2.0476,2.0314,2.0424,2.0537,2.0575,2.039,2.0478,2.0722,2.0927,2.0996,2.1076,2.0956,2.0665,2.1081,2.1419,2.1318,2.1273,2.1175,2.1052,2.1022,2.0993,2.0975,2.0679,2.0436,2.017,2.0217,2.0102,2.0008,2.0125,2.0551,2.0174,2.0166,2.0056,2.0185,2.0071,2.0064,2.0182,2.0407,2.0255,1.9999,1.9468,1.8769,1.8721,1.9272,2.0763,2.4346,2.861,3.1926,3.3401,3.5694,3.4454,2.821,2.2456,1.9946,1.7476,1.6215,1.5548,1.5471,1.6456,1.7593,1.9248,1.9869,1.9941,1.988,2.0297,2.0315,2.0563,2.0348,2.0463,2.0334,2.0559,2.0645,2.0662,2.0494,2.0789,2.0608,2.0603,2.0583,2.0405,2.0414,2.0511,2.0762,2.0904,2.0651,2.0628,2.0757,2.0736,2.0673,2.0785,2.0868,2.0694,2.0742,2.0681,2.0777,2.0767,2.0924,2.091,2.0643,2.0788,2.075,2.0833,2.1057,2.0683,2.0927,2.0729,2.0991,2.092,2.1007,2.1142,2.0893,2.0957,2.1183,2.1084,2.1201,2.0982,2.1076,2.109,2.1015,2.1266,2.1276,2.1525,2.1434,2.1429,2.1522,2.163,2.1535,2.1783,2.1516,2.149,2.1137,2.1276,2.1416,2.1323,2.0987,2.1059,2.0917,2.0791,2.1003,2.0883,2.0704,2.0478,2.0674,2.0625,2.0539,2.0531,2.0391,2.0504,2.0685,2.0575,2.0506,2.0425,2.0467,2.0459,2.0596,2.0522,2.0397,2.0382,2.0407,2.0642,2.0781,2.0411,2.0386,2.0773,2.0693,2.0468,2.0486,2.0481,2.0528,2.0563,2.0407,2.0206,2.0375,2.0674,2.0602,2.0605,2.0599,2.041,2.048,2.042,2.0305,2.0392,2.0481,2.0349,2.0389,2.0435,2.0384,2.0186,2.0347,2.0536,2.046,2.0387,2.0297,2.0255,2.045,2.029,2.0191,2.0417,2.0191,2.0356,2.0107,2.0181,2.0266,2.0328,2.0378,2.0447,2.0572,2.0596,2.0739,2.0831,2.0707,2.0589,2.0955,2.0883,2.1087,2.1165,2.1052,2.0789,2.0635,2.0605,2.0567,2.0479,1.994,1.9821,2.0074,1.9858,1.9672,1.9474,2.0093,2.0098,2.0076,2.003,1.9837,1.9674,1.986,1.9736,1.9944,1.9972,1.9557,1.9049,1.8383,1.8559,1.8445,1.9525,2.2908,2.7366,3.1376,3.3151,3.529,3.509,2.9398,2.6571,2.0839,1.6983,1.5704,1.472,1.5103,1.6264,1.7527,1.8875,1.9688,1.9842,2.0092,1.9545,1.9863,1.9968,2.0296,2.0138,2.0085,1.9898,1.9924,2.0067,2.0348,2.0239,1.9874,2.0094,2.0287,2.0273,2.0421,2.0079,2.0185,2.029,2.0399,2.033,2.0351,2,2.0323,2.0356,2.0419,2.0346,2.0265,2.0208,2.0473,2.0312,2.0255,2.0098,2.0196,2.0619,2.0774,2.0561,2.0313,2.0394,2.0426,2.0694,2.0447,2.0275,2.0628,2.0862,2.0388,2.0474,2.0586,2.0831,2.0822,2.0641,2.0873,2.0583,2.0707,2.0821,2.1364,2.1204,2.1102,2.1353,2.1382,2.1501,2.118,2.1361,2.1066,2.145,2.1378,2.1265,2.0704,2.1033,2.086,2.115,2.0851,2.0538,2.0802,2.084,2.0614,2.0566,2.0781,2.0721,2.0367,2.069,2.0478,2.0373,2.0495,2.0246,2.0612,2.0467,2.0432,2.0324,2.0369,2.0528,2.0596,2.0542,2.039,2.0461,2.0468,2.054,2.0468,2.0524,2.041,2.0593,2.0543,2.0475,2.018,2.05,2.0593,2.0488,2.0461,2.0384,2.0508,2.0342,2.068,2.0425,2.0378,2.0234,2.0503,2.0519,2.065,2.0328,2.0375,2.0116,2.0213,2.0366,2.0571,2.0389,2.0433,2.028,2.0592,2.0407,2.0145,2.032,2.0261,2.0324,2.0242,2.0496,2.0371,2.0293,2.0289,2.0327,2.0259,2.0213,2.0145,2.0144,2.0323,2.0339,2.0517,2.0063,2.0214,2.0594,2.0191,2.0158,2.0365,2.0454,2.0325,2.0078,2.0063,2.0128,2.0595,2.0604,2.0731,2.0647,2.0756,2.0848,2.1149,2.1045,2.1014,2.0902,2.0977,2.1061,2.1203,2.0872,2.0429,2.0693,2.0251,2.0165,2.0051,2.0096,2.0212,2.0144,1.9933,1.9929,2.0022,1.9968,2.005,2.0141,2.0025,2.0104,2.0068,2.0262,1.9941,1.9522,1.8808,1.8473,1.8669,1.9585,2.1842,2.615,3.0362,3.294,3.4288,3.5849,3.1469,2.5415,2.0439,1.8616,1.6873,1.5217,1.5255,1.581,1.6969,1.835,1.9761,1.967,2.0072,1.9966,2.0579,2.0318,2.0354,2.0365,2.0513,2.0421,2.0591,2.0355,2.0467,2.0301,2.0327,2.0425,2.0663,2.064,2.0909,2.061,2.0685,2.0544,2.0429,2.0666,2.0742,2.0529,2.0409,2.0548,2.0607,2.0703,2.0437,2.0665,2.0676,2.0802,2.075,2.0537,2.0647,2.0697,2.0723,2.0761,2.0576,2.056,2.0515,2.0876,2.0886,2.1036,2.0757,2.0878,2.0998,2.0962,2.0946,2.0694,2.0783,2.0945,2.123,2.1175,2.1183,2.1069,2.1085,2.1312,2.1362,2.1273,2.1451,2.1492,2.1477,2.1611,2.1602,2.1652,2.146,2.1405,2.1528,2.1261,2.1419,2.1061,2.141,2.113,2.0874,2.0894,2.0655,2.0817,2.1138,2.0887,2.0827,2.0758,2.0734,2.0811,2.0686,2.0747,2.047,2.0701,2.0785,2.0809,2.0689,2.0808,2.0733,2.0803,2.0662,2.0715,2.0616,2.0703,2.0884,2.0882,2.0714,2.0676,2.0746,2.084,2.0534,2.0633,2.0602,2.0837,2.0899,2.0826,2.0736,2.0408,2.0474,2.0588,2.0758,2.0727,2.0577,2.0455,2.0542,2.0661,2.0533,2.0592,2.0428,2.0654,2.0594,2.0478,2.0435,2.0545,2.0443,2.0706,2.0539,2.042,2.0307,2.0503,2.0605,2.0566,2.0397,2.0295,2.0647,2.076,2.0844,2.0829,2.0747,2.0918,2.1414
