8.3534,8.3677,8.3782,8.3939,8.4016,8.4006,8.3876,8.3608,8.3104,8.2735,8.2192,8.1822,8.1366,8.0994,8.0482,8.035,8.0073,8.0021,7.9755,7.9721,7.9483,7.9437,7.946,7.9394,7.9282,7.9239,7.9274,7.9308,7.922,7.9228,7.9246,7.9322,7.9396,7.9292,7.9236,7.9328,7.942,7.9457,7.9429,7.9469,7.9505,7.9608,7.954,7.9644,7.957,7.9603,7.9602,7.9551,7.9557,7.9601,7.9434,7.9511,7.9463,7.9479,7.9378,7.935,7.9268,7.926,7.9279,7.9231,7.9258,7.9291,7.9343,7.9384,7.9462,7.9551,7.9623,7.9677,7.9732,7.9855,7.9949,8.0076,8.0004,8.0013,7.9853,7.956,7.9236,7.9169,7.9019,7.8791,7.859,7.8506,7.8427,7.8384,7.8312,7.8209,7.8146,7.8116,7.8152,7.8105,7.8033,7.8044,7.7974,7.8044,7.7921,7.7374,7.61,7.5626,7.6464,7.8716,8.1246,8.5628,8.9842,9.1506,9.2374,8.8833,8.0644,7.7973,7.7632,7.734,7.7628,7.7483,7.7544,7.7348,7.7638,7.7513,7.7662,7.7441,7.7605,7.7415,7.7573,7.7421,7.7637,7.7473,7.7502,7.7268,7.7365,7.7069,7.7014,7.6909,7.6946,7.6704,7.6785,7.6729,7.693,7.6919,7.7004,7.6951,7.7211,7.7275,7.747,7.7478,7.7788,7.7864,7.8194,7.8272,7.8513,7.8677,7.8895,7.9042,7.9311,7.9536,7.9732,7.9763,7.9873,7.9962,7.9974,7.9898,7.966,7.9354,7.8983,7.8513,7.8066,7.7657,7.7274,7.698,7.6647,7.6322,7.6083,7.5948,7.5765,7.5645,7.558,7.5491,7.5474,7.5436,7.5329,7.5327,7.5315,7.5299,7.5206,7.5192,7.5068,7.513,7.5102,7.5154,7.5096,7.511,7.5066,7.5246,7.5279,7.5325,7.5298,7.5389,7.526,7.5309,7.5271,7.5234,7.5088,7.5041,7.4904,7.4898,7.4752,7.476,7.4701,7.4651,7.4619,7.463,7.4513,7.4598,7.4583,7.4596,7.4575,7.4607,7.4676,7.4736,7.4758,7.479,7.4747,7.479,7.472,7.4755,7.48,7.478,7.4721,7.4754,7.4762,7.48,7.4734,7.469,7.4632,7.4666,7.4625,7.458,7.4487,7.4484,7.4333,7.4335,7.4296,7.4291,7.4262,7.4294,7.4329,7.4327,7.4266,7.426,7.4312,7.4257,7.4304,7.4284,7.4224,7.4262,7.4245,7.4288,7.4247,7.425,7.4223,7.4256,7.4258,7.4163,7.4217,7.4245,7.4194,7.4292,7.4261,7.4219,7.4278,7.428,7.4334,7.4309,7.4336,7.4332,7.4356,7.4374,7.4358,7.4367,7.4363,7.4339,7.439,7.435,7.4403,7.4407,7.4393,7.4418,7.4412,7.44,7.4429,7.4413,7.4419,7.4371,7.4335,7.4294,7.4339,7.4328,7.4315,7.4305,7.4376,7.4409,7.4371,7.4447,7.4487,7.4448,7.4554,7.4672,7.4677,7.4681,7.4666,7.4612,7.4558,7.4517,7.4459,7.436,7.4262,7.4113,7.4117,7.3973,7.3994,7.3981,7.3889,7.386,7.3819,7.3731,7.3708,7.3729,7.3747,7.3703,7.3662,7.3671,7.3352,7.2155,7.1188,7.2271,7.4372,7.7325,8.2437,8.6102,8.7928,8.8433,8.8141,8.0064,7.4224,7.381,7.3397,7.3543,7.3381,7.3545,7.3398,7.3728,7.3626,7.3851,7.3644,7.3947,7.3688,7.395,7.3882,7.3947,7.3749,7.3813,7.3648,7.3677,7.3505,7.3522,7.338,7.347,7.3354,7.3504,7.3505,7.3686,7.3778,7.3941,7.4052,7.4234,7.4423,7.4588,7.4841,7.5089,7.5276,7.5367,7.5628,7.5949,7.6266,7.6504,7.6731,7.6973,7.7228,7.7445,7.7697,7.7902,7.8091,7.8274,7.8423,7.8469,7.8337,7.8191,7.7934,7.7605,7.7282,7.706,7.6664,7.6307,7.5989,7.5695,7.5378,7.5218,7.5085,7.4828,7.4799,7.4642,7.4614,7.4538,7.4559,7.4532,7.4596,7.4522,7.4595,7.4599,7.479,7.4771,7.4784,7.4741,7.481,7.4866,7.501,7.505,7.5226,7.5284,7.5399,7.5351,7.5458,7.5336,7.5382,7.536,7.5418,7.5349,7.5247,7.5176,7.5207,7.5139,7.509,7.5099,7.5089,7.514,7.5171,7.5053,7.5057,7.5033,7.509,7.5082,7.5098,7.5127,7.5155,7.5138,7.5274,7.5267,7.5307,7.5251,7.5295,7.5283,7.531,7.5217,7.5242,7.5168,7.5171,7.5082,7.5047,7.501,7.4967,7.4927,7.4873,7.4822,7.4865,7.4852,7.4792,7.4788,7.474,7.4747,7.4819,7.4787,7.4851,7.488,7.4897,7.5021,7.5019,7.5069,7.5042,7.5034,7.5016,7.5122,7.5189,7.5161,7.5187,7.5205,7.5223,7.5298,7.5296,7.5366,7.5351,7.5441,7.5391,7.5396,7.5419,7.5592,7.5579,7.574,7.5736,7.5782,7.5889,7.5956,7.5966,7.6091,7.6,7.5934,7.5858,7.5884,7.5818,7.5711,7.5631,7.5661,7.5559,7.5483,7.5477,7.5452,7.5376,7.5464,7.5457,7.5558,7.5481,7.5524,7.5476,7.5539,7.5542,7.5548,7.5279,7.4132,7.3146,7.4339,7.6581,7.7619,8.1553,8.6518,8.888,8.9765,8.928,8.173,7.6442,7.5958,7.5524,7.5737,7.5588,7.5707,7.5576,7.5858,7.5736,7.5961,7.5767,7.5919,7.578,7.5953,7.5914,7.6117,7.5952,7.5919,7.5724,7.5645,7.5505,7.554,7.5338,7.5252,7.5117,7.5226,7.5182,7.5309,7.5298,7.5512,7.5606,7.5896,7.6064,7.6187,7.6391,7.67,7.689,7.7133,7.747,7.7761,7.808,7.8398,7.8601,7.8905,7.9193,7.9398,7.9675,7.993,8.0128,8.0236,8.0316,8.0251,8.0144,7.9958,7.9692,7.9236,7.8829,7.8351,7.7957,7.7467,7.7217,7.6863,7.6588,7.6319,7.6142,7.6014,7.5978,7.5815,7.5799,7.5734,7.5707,7.5697,7.5707,7.5659,7.5763,7.5748,7.5853,7.5847,7.5916,7.5915,7.5996,7.5991,7.6171,7.6176,7.6376,7.6487,7.6588,7.663,7.6695,7.6673,7.675,7.6732,7.6713,7.6669,7.6661,7.6587,7.6596,7.6536,7.6507,7.6464,7.6549,7.6477,7.6485,7.6432,7.637,7.6392,7.6388,7.6436,7.6463,7.6495,7.6493,7.6502,7.6549,7.6512,7.6531,7.6488,7.6423,7.6433,7.6453,7.6493,7.6441,7.6413,7.6413,7.6402,7.6373,7.6315,7.6296,7.6332,7.6357,7.6351,7.6295,7.6269,7.6309,7.631,7.6409,7.6387,7.6402,7.641,7.6466,7.6526,7.6589,7.6585,7.6622,7.6656,7.6628,7.6665,7.6658,7.667,7.6788,7.6791,7.6777,7.6828,7.6885,7.6902,7.6943,7.6924,7.6936,7.6992,7.697,7.6985,7.6984,7.7078,7.713,7.7206,7.7331,7.7337,7.7376,7.7471,7.7528,7.762,7.7655,7.7643,7.7552,7.7551,7.7597,7.7532,7.7431,7.7228,7.7193,7.7216,7.7076,7.7022,7.6954,7.6929,7.6938,7.6947,7.6885,7.6916,7.6943,7.6904,7.696,7.6952,7.6791,7.6473,7.5148,7.4691,7.6386,7.8514,8.1927,8.7048,8.9817,9.0646,9.1243,8.5164,7.8755,7.7653,7.7089,7.7156,7.7174,7.7183,7.7187,7.7266,7.7331,7.7401,7.7448,7.7508,7.7555,7.7574,7.7601,7.7735,7.7721,7.7701,7.7664,7.7635,7.7513,7.7471,7.7297,7.7167,7.713,7.713,7.7104,7.7143,7.717,7.7232,7.7357,7.7532,7.7694,7.7845,7.8014,7.8202,7.8427,7.8661,7.8904,7.916,7.9455,7.9848,8.0124,8.0384,8.0614,8.088,8.1108,8.1381,8.1529,8.1611,8.1728,8.1845,8.1856,8.1715,8.1441,8.1162,8.0789,8.0386,7.9995,7.9763,7.937,7.9079,7.8808,7.8625,7.8453,7.8303,7.823,7.814,7.8124,7.8087,7.8047,7.804,7.8084,7.8032,7.8135,7.8127,7.8163,7.8238,7.8297,7.836,7.8405,7.8496,7.8549,7.8643,7.8786,7.8926,7.9021,7.9122,7.9162,7.9169,7.925,7.9271,7.9262,7.9284,7.9224,7.92,7.9258,7.9244,7.926,7.9275,7.9259,7.9342,7.9411,7.9417,7.9496,7.9464,7.9517,7.9597,7.9631,7.967,7.9744,7.9742,7.9772,7.9693,7.974,7.9706,7.9645,7.9659,7.9673,7.9676,7.9658,7.9662,7.9702,7.9754,7.9758,7.9775,7.9735,7.9759,7.9779,7.9824,7.9861,7.9865,7.9891,7.9883,7.9888,7.9924,8.0017,8.0034,8.022,8.028,8.0366,8.0429,8.047,8.0615,8.0671,8.0779,8.0786,8.0801,8.0859,8.092,8.0916,8.1005,8.1004,8.1079,8.1233,8.1266,8.1292,8.1275,8.1307,8.14,8.1506,8.1612,8.1773,8.1848,8.2002,8.2071,8.2148,8.2197,8.2204,8.2209,8.2145,8.217,8.2172,8.2089,8.1998,8.1882,8.1858,8.1777,8.1715,8.1727,8.166,8.1725,8.1666,8.1694,8.1754,8.1719,8.1752,8.1753,8.1775,8.1753,8.1282,7.9977,7.9476,8.1249,8.3659,8.6829,9.18,9.4423,9.5009,9.5658,8.9691,8.356,8.2544,8.1851,8.2054,8.1995,8.2043,8.2071,8.2261,8.2373,8.2452,8.2509,8.2455,8.2428,8.245,8.2584,8.2675,8.268,8.2637,8.2541,8.2522,8.2532,8.2368,8.2266,8.2252,8.2154,8.2251,8.2201,8.2225,8.2287,8.2493,8.2577,8.2701,8.2874,8.3055,8.3226,8.3407,8.3673,8.3875,8.4095,8.4361,8.466,8.4942,8.5105,8.5449,8.5646,8.5855,8.6089,8.6334,8.642,8.6548,8.6769,8.6802,8.6738,8.6567,8.6333,8.5909,8.5629,8.5152,8.4723,8.4314,8.3894,8.3532,8.3241,8.2922,8.2746,8.2569,8.2511,8.2365,8.2251,8.2079,8.208,8.2029,8.1959,8.1898,8.1895,8.1916,8.1907,8.1849,8.1809,8.1797,8.1744,8.1818,8.1827,8.1842,8.1924,8.1912,8.192,8.18,8.1773,8.1751,8.1784,8.1785,8.1794,8.1716,8.1637,8.1632,8.1576,8.1614,8.1602,8.1501,8.1503,8.1438,8.1452,8.1361,8.1399,8.1398,8.1414,8.1442,8.1377,8.1394,8.1368,8.1337,8.1384,8.1314,8.1281,8.1256,8.1206,8.1199,8.1148,8.1111,8.1148,8.1077,8.1045,8.1087,8.1044,8.1005,8.103,8.0978,8.0994,8.0956,8.0905,8.0893,8.0841,8.0914,8.0808,8.0777,8.0729,8.07,8.0678,8.0619,8.0615,8.0562,8.0584,8.0696,8.0638,8.0658,8.0732,8.0822,8.0868,8.0899,8.0925,8.093,8.1056,8.1059,8.0991,8.0964,8.0864,8.0821,8.0658,8.0469,8.0366,8.0264,8.0254,8.0143,8.0041,7.9989,7.9904,7.9854,7.9827,7.9778,7.9682,7.9668,7.9617,7.962,7.9371,7.8406,7.7196,7.8058,8.0575,8.3106,8.724,9.1131,9.2167,9.2925,8.9558,8.2311,7.9839,7.925,7.8881,7.9133,7.9047,7.9042,7.8925,7.9053,7.9163,7.9256,7.9123,7.9105,7.9074,7.9099,7.9108,7.9163,7.9103,7.9134,7.9031,7.8903,7.879,7.8714,7.8603,7.8553,7.8455,7.8409,7.8334,7.8343,7.8344,7.8447,7.8519,7.8572,7.8672,7.8877,7.8977,7.9083,7.9213,7.9479,7.971,7.9916,8.0193,8.0497,8.0676,8.0879,8.1105,8.1328,8.1563,8.1671,8.1845,8.1995,8.2075,8.1974,8.1848,8.1526,8.1134,8.0642,8.0135,7.9731,7.9288,7.8849,7.8522,7.8135,7.8017,7.7819,7.7565,7.7411,7.7261,7.7127,7.7045,7.6984,7.6954,7.6844,7.6802,7.6716,7.6673,7.6623,7.6599,7.6539,7.6496,7.65,7.6504,7.6466,7.6501,7.6588,7.6706,7.6762,7.671,7.6668,7.6733,7.6739,7.6777,7.6711,7.6688,7.6596,7.6537,7.649,7.6451,7.6441,7.6384,7.64,7.6398,7.6333,7.6315,7.6342,7.6327,7.6353,7.6341,7.6339,7.6323,7.6298,7.6308,7.6316,7.6319,7.6274,7.6262,7.6268,7.6239,7.6134,7.6114,7.6126,7.6088,7.6041,7.6017,7.5974,7.5923,7.5844,7.5794,7.5756,7.5694,7.5654,7.5637,7.5654,7.5588,7.561,7.5607,7.5685,7.5729,7.575,7.5722,7.5812,7.5908,7.5927,7.5904,7.6012,7.5988,7.6035,7.614,7.6153,7.6179,7.6179,7.6214,7.6321,7.6351,7.6346,7.6295,7.6375,7.6451,7.6457,7.6406,7.6444,7.6461,7.6511,7.6535,7.6518,7.6665,7.6742,7.6754,7.6936,7.6882,7.6915,7.7025,7.7036,7.6931,7.6863,7.6892,7.6827,7.6719,7.6595,7.6526,7.6458,7.6393,7.641,7.6384,7.6345,7.6309,7.6352,7.6369,7.6391,7.6445,7.6359,7.63,7.6328,7.5963,7.4718,7.3975,7.5556,7.7853,8.0743,8.5802,8.8836,8.9826,9.0746,8.9092,8.1364,7.7183,7.6668,7.63,7.6537,7.6447,7.6522,7.6437,7.6717,7.681,7.6975,7.6822,7.6902,7.6846,7.7047,7.7072,7.7249,7.7108,7.713,7.6962,7.6988,7.6823,7.6728,7.65,7.6572,7.6518,7.653,7.6463,7.6601,7.6704,7.6811,7.6928,7.7106,7.7282,7.7513,7.7648,7.7897,7.807,7.8346,7.8507,7.8825,7.9099,7.9322,7.9565,7.9851,8.0077,8.0334,8.0562,8.0701,8.0951,8.1061,8.1145,8.1202,8.1104,8.0877,8.0626,8.0208,7.982,7.9362,7.9202,7.873,7.8413,7.8045,7.7745,7.7493,7.7349,7.7144,7.6991,7.6877,7.6849,7.6797,7.6764,7.6765,7.6638,7.6642,7.6617,7.6614,7.659,7.6556,7.6518,7.6565,7.6529,7.6584,7.6671,7.6705,7.6785,7.6901,7.6926,7.6937,7.6981,7.6945,7.7053,7.696,7.6961,7.6858,7.6899,7.6866,7.6909,7.6812,7.6819,7.6734,7.6818,7.6791,7.6823,7.6774,7.6769,7.6747,7.6763,7.6752,7.6755,7.6758,7.6779,7.6776,7.6754,7.6769,7.6782,7.682,7.6878,7.6797,7.6775,7.6772,7.6752,7.68,7.676,7.6737,7.6697,7.6713,7.6715,7.6714,7.6657,7.6655,7.6662,7.6658,7.6665,7.6589,7.6595,7.6608,7.6613,7.6681,7.6678,7.6668,7.6663,7.6683,7.6743,7.6762,7.6784,7.679,7.6812,7.6812,7.6879,7.6833,7.6858,7.6835,7.6912,7.6939,7.6921,7.6918,7.6924,7.69,7.6896,7.6914,7.6899,7.6914,7.6896,7.6893,7.6883,7.6913,7.6926,7.6977,7.6949,7.6948,7.7047,7.7056,7.706,7.7196,7.7218,7.7308,7.7373,7.738,7.7412,7.746,7.7427,7.7323,7.7331,7.7341,7.7237,7.7104,7.6984,7.693,7.6798,7.6768,7.6721,7.6706,7.6698,7.6708,7.6675,7.6638,7.6648,7.6671,7.6665,7.6689,7.6566,7.6295,7.5234,7.4197,7.5347,7.7725,8.0243,8.4962,8.8522,8.9914,9.0796,8.7033,7.9728,7.7297,7.6771,7.6652,7.6749,7.6628,7.6698,7.6658,7.6926,7.6885,7.7069,7.6971,7.7075,7.7039,7.712,7.7155,7.728,7.7245,7.7187,7.7096,7.7032,7.6864,7.6781,7.6638,7.6641,7.6543,7.6549,7.6545,7.6718,7.6732,7.6861,7.6993,7.7201,7.7368,7.7499,7.77,7.7899,7.8185,7.8402,7.8628,7.8925,7.919,7.9507,7.9775,7.999,8.0143,8.0278,8.0501,8.0778,8.0876,8.1097,8.1144,8.1181,8.1128,8.0961,8.0624,8.0303,7.9918,7.9513,7.9103,7.8693,7.8354,7.8034,7.7722,7.7427,7.7229,7.7144,7.7037,7.6922,7.684,7.6739,7.6686,7.6622,7.6617,7.658,7.6551,7.6486,7.6524,7.6574,7.6544,7.6509,7.6585,7.66,7.6694,7.6748,7.692,7.6911,7.6963,7.6948,7.7031,7.7023,7.7093,7.7103,7.7099,7.7035,7.7079,7.7009,7.699,7.6944,7.6995,7.6956,7.6941,7.6919,7.6932,7.6939,7.6891,7.6857,7.6834,7.6834,7.6817,7.6823,7.6837,7.6838,7.6818,7.6836,7.6871,7.6815,7.6838,7.678,7.6856,7.68,7.677,7.6791,7.6837,7.6781,7.6811,7.6779,7.6766,7.6717,7.6761,7.6765,7.6719,7.6662,7.6653,7.674,7.6701,7.6714,7.6682,7.675,7.6735,7.6852,7.6846,7.6912,7.688,7.6901,7.69,7.6923,7.6922,7.6933,7.6952,7.6975,7.7007,7.7001,7.701,7.7034,7.6997,7.7044,7.7027,7.7013,7.7015,7.7033,7.702,7.6979,7.6953,7.7021,7.7032,7.7073,7.7007,7.7011,7.702,7.7028,7.7016,7.6961,7.7087,7.7094,7.7155,7.7191,7.7172,7.7328,7.7391,7.7433,7.7476,7.7519,7.7495,7.7429,7.7421,7.7463,7.7403,7.7267,7.7059,7.7081,7.7027,7.6952,7.6829,7.6822,7.6762,7.6811,7.6721,7.6782,7.6775,7.6781,7.6779,7.6784,7.6642,7.5922,7.4563,7.4361,7.5799,7.8139,8.0927,8.5693,8.8953,8.9898,9.0871,8.629,7.9379,7.7432,7.6826,7.6776,7.6858,7.6759,7.68,7.6894,7.7036,7.7037,7.7185,7.7101,7.7176,7.7175,7.7321,7.731,7.7431,7.7312,7.7316,7.7165,7.7121,7.6941,7.692,7.6742,7.6749,7.6702,7.679,7.6804,7.6909,7.6898,7.7119,7.7151,7.733,7.7497,7.7637,7.7794,7.8021,7.8264,7.8527,7.8737,7.8965,7.9183,7.9523,7.9733,7.9973,8.0147,8.0393,8.0565,8.0798,8.0953,8.1046,8.1063,8.1148,8.108,8.0951,8.0655,8.0267,7.991,7.9482,7.9095,7.8635,7.8305,7.7916,7.7675,7.7408,7.7211,7.7022,7.6894,7.679,7.669,7.6626,7.6602,7.6524,7.6537,7.6488,7.6457,7.6445,7.6509,7.6422,7.6477,7.6438,7.6428,7.6487,7.6567,7.667,7.6787,7.6836,7.6902,7.6889,7.6912,7.6919,7.6923,7.6921,7.6914,7.6902,7.6877,7.689,7.6869,7.6846,7.6902,7.689,7.6855,7.6752,7.6729,7.6711,7.6736,7.6644,7.6675,7.6673,7.6647,7.6625,7.6627,7.6619,7.6635,7.6646,7.6683,7.665,7.6632,7.6635,7.6665,7.6637,7.6642,7.662,7.6622,7.6652,7.6619,7.6566,7.6625,7.6611,7.6568,7.6599,7.6572,7.6548,7.6507,7.6516,7.6565,7.6539,7.6533,7.6548,7.6554,7.6612,7.6601,7.661,7.6624,7.6636,7.6637,7.6635,7.6647,7.6699,7.6688,7.6717,7.6748,7.6737,7.6748,7.6732,7.675,7.6778,7.6737,7.6736,7.6779,7.6732,7.6747,7.673,7.6704,7.6697,7.67,7.6756,7.6701,7.6681,7.6738,7.6761,7.6783,7.6832,7.6774,7.6886,7.7037,7.7076,7.7217,7.7147,7.7178,7.7373,7.7319,7.721,7.7174,7.7134,7.7124,7.7048,7.6839,7.6731,7.6742,7.6661,7.6706,7.6622,7.6578,7.659,7.6599,7.6649,7.6619,7.6628,7.6599,7.6631,7.6595,7.6284,7.5204,7.4215,7.5496,7.8111,8.0715,8.5346,8.8832,8.9924,9.0085,8.973,8.2787,7.7982,7.7443,7.6709,7.7077,7.6943,7.707,7.6981,7.7241,7.7268,7.7464,7.7282,7.7474,7.7436,7.7703,7.7658,7.781,7.7748,7.785,7.7801,7.7766,7.7591,7.7587,7.7492,7.7519,7.7447,7.7484,7.7466,7.767,7.7746,7.7861,7.7962,7.8122,7.8266,7.8465,7.8703,7.8935,7.9062,7.9222,7.954,7.9815,8.0057,8.0357,8.0586,8.0864,8.1128,8.1355,8.1542,8.178,8.1972,8.2162,8.2264,8.2318,8.2302,8.2165,8.1955,8.1546,8.1156,8.094,8.0605,8.0178,7.9849,7.9421,7.9069,7.8811,7.8673,7.8415,7.8309,7.8154,7.814,7.8051,7.8031,7.7968,7.7967,7.7949,7.7989,7.7912,7.7913,7.793,7.8012,7.7968,7.8072,7.8062,7.8168,7.823,7.8421,7.8507,7.8595,7.8624,7.8599,7.8701,7.8799,7.8738,7.871,7.8665,7.8657,7.868,7.866,7.8553,7.8668,7.8587,7.8634,7.8609,7.8597,7.8595,7.8661,7.8656,7.8697,7.8742,7.8747,7.8736,7.8788,7.8897,7.8849,7.8894,7.8905,7.8947,7.8931,7.8925,7.8957,7.8979,7.9062,7.9028,7.9064,7.9055,7.9147,7.9083,7.9153,7.9213,7.923,7.9255,7.9265,7.9293,7.9324,7.9326,7.9339,7.9423,7.9398,7.9384,7.9463,7.9508,7.9535,7.9592,7.9706,7.9678,7.9716,7.9844,7.9867,7.9853,7.9882,7.9922,7.9866,7.9915,7.9916,7.9966,8.0006,8.0065,8.0074,8.0154,8.0053,8.0055,8.0045,8.0008,7.9986,7.9921,7.9854,7.9773,7.9703,7.9633,7.9508,7.9531,7.9466,7.9396,7.934,7.9219,7.9049,7.8995,7.8857,7.8738,7.8536,7.8327,7.8103,7.782,7.751,7.7348,7.7087,7.6847,7.6706,7.6547,7.6447,7.6312,7.6113,7.5885,7.5682,7.5557,7.5338,7.5122,7.4971,7.4578,7.3401,7.2059,7.272,7.5108,7.7449,8.1552,8.5164,8.6155,8.67,8.3452,7.6288,7.3418,7.2599,7.2146,7.2207,7.2007,7.181,7.1697,7.1832,7.1889,7.1997,7.1949,7.1946,7.1887,7.1899,7.1957,7.2054,7.2,7.2067,7.1937,7.1971,7.1917,7.1957,7.1984,7.2091,7.2107,7.2213,7.2292,7.2524,7.255,7.2815,7.2985,7.3234,7.3542,7.3833,7.4144,7.449,7.4779,7.5143,7.5513,7.588,7.6218,7.6568,7.6905,7.7242,7.7504,7.7783,7.7992,7.8136,7.8419,7.8658,7.8866,7.8959,7.888,7.887,7.8606,7.837,7.7994,7.7597,7.7206,7.6826,7.6497,7.6171,7.5926,7.5686,7.5543,7.5366,7.5276,7.524,7.5163,7.51,7.5111,7.5072,7.5072,7.5075,7.5117,7.5104,7.5103,7.5075,7.5083,7.5046,7.5084,7.5083,7.5075,7.5144,7.5231,7.528,7.5373,7.5386,7.5331,7.5312,7.532,7.5326,7.5312,7.5199,7.5142,7.5054,7.5031,7.496,7.4891,7.4813,7.4798,7.4669,7.464,7.4533,7.4507,7.4482,7.44,7.4386,7.4375,7.4315,7.4327,7.4324,7.4316,7.4303,7.4267,7.4224,7.4226,7.4179,7.4156,7.4137,7.4137,7.4119,7.412,7.4052,7.4078,7.4123,7.4119,7.4097,7.4016,7.3977,7.4038,7.3988,7.3943,7.3884,7.3867,7.3921,7.3959,7.3965,7.4021,7.4039,7.4099,7.418,7.4242,7.4353,7.4401,7.4459,7.455,7.4611,7.4657,7.4666,7.4707,7.4775,7.4793,7.4857,7.4858,7.4932,7.4909,7.5014,7.5094,7.5135,7.5157,7.5288,7.5371,7.5445,7.5511,7.5507,7.5609,7.5696,7.571,7.5648,7.561,7.5635,7.559,7.5545,7.5314,7.5261,7.5176,7.5221,7.5142,7.5059,7.5003,7.5027,7.5069,7.5008,7.4987,7.4976,7.4963,7.4982,7.4921,7.4512,7.3271,7.2712,7.4367,7.6842,7.9743,8.455,8.7239,8.7819,8.855,8.3019,7.6979,7.5697,7.4987,7.5164,7.5197,7.5148,7.5103,7.5189,7.5305,7.5436,7.5545,7.5597,7.5633,7.5624,7.57,7.5698,7.5705,7.5741,7.5728,7.5636,7.5463,7.5295,7.5105,7.5012,7.4864,7.4737,7.4702,7.472,7.4854,7.5007,7.5141,7.5265,7.5497,7.5712,7.5963,7.6127,7.6387,7.6618,7.6886,7.722,7.7496,7.7768,7.8088,7.8338,7.8634,7.886,7.9049,7.9177,7.9359,7.9508,7.964,7.9779,7.9783,7.9716,7.9508,7.924,7.8835,7.8442,7.8058,7.7685,7.7293,7.6971,7.6697,7.6431,7.6282,7.6106,7.5948,7.5871,7.5769,7.5708,7.5679,7.5697,7.5666,7.5644,7.5662,7.5683,7.5723,7.5714,7.5752,7.5738,7.5769,7.5788,7.5817,7.5856,7.5953,7.611,7.6272,7.628,7.6371,7.6405,7.6417,7.6472,7.6534,7.6508,7.6502,7.6484,7.6532,7.6483,7.6505,7.6501,7.6455,7.6444,7.6522,7.6524,7.65,7.6515,7.6555,7.6518,7.6469,7.648,7.6586,7.6544,7.651,7.6438,7.6377,7.6292,7.6241,7.6254,7.6198,7.6141,7.6106,7.6112,7.6036,7.5961,7.5936,7.5893,7.5832,7.5823,7.5696,7.5654,7.5595,7.5512,7.5444,7.5338,7.5318,7.528,7.5174,7.5168,7.511,7.5106,7.5084,7.5126,7.5116,7.5098,7.5084,7.508,7.5068,7.5086,7.5092,7.5007,7.5004,7.4945,7.4895,7.4822,7.4755,7.4721,7.4588,7.4519,7.4461,7.4433,7.4469,7.4485,7.4542,7.4609,7.4646,7.4729,7.4722,7.4737,7.4916,7.4961,7.4845,7.49,7.4944,7.4933,7.483,7.472,7.4745,7.4726,7.4759,7.4692,7.4629,7.47,7.4782,7.4801,7.4822,7.4859,7.4926,7.4982,7.5022,7.5034,7.4624,7.3464,7.287,7.4598,7.7153,8.0147,8.4865,8.757,8.8057,8.8772,8.3224,7.7438,7.6243,7.5539,7.5691,7.5693,7.581,7.5723,7.5803,7.5913,7.6014,7.6066,7.6131,7.607,7.6053,7.6047,7.6078,7.6155,7.6205,7.6163,7.6067,7.5941,7.5894,7.5793,7.5656,7.5539,7.5492,7.5482,7.5547,7.5587,7.563,7.5704,7.5856,7.6003,7.6197,7.6354,7.6581,7.6785,7.7051,7.732,7.7603,7.7933,7.8206,7.8573,7.8887,7.9211,7.9464,7.9608,7.991,8.0159,8.0323,8.0526,8.0653,8.0646,8.0507,8.0299,7.9993,7.9606,7.9172,7.8786,7.8312,7.793,7.7538,7.7195,7.6938,7.671,7.6481,7.64,7.6212,7.6098,7.6065,7.5966,7.5907,7.5808,7.5764,7.5742,7.5622,7.5594,7.5535,7.5501,7.5451,7.539,7.525,7.5241,7.5282,7.5327,7.5354,7.5398,7.5421,7.5453,7.541,7.5441,7.5419,7.5403,7.5388,7.5359,7.5284,7.5192,7.5139,7.5156,7.5098,7.5025,7.4933,7.4863,7.4827,7.4865,7.4825,7.4736,7.4671,7.4598,7.4542,7.4548,7.4539,7.4512,7.4485,7.4466,7.4398,7.4388,7.4322,7.4307,7.4267,7.4236,7.427,7.4291,7.4309,7.4373,7.435,7.4347,7.4377,7.4344,7.4439,7.4437,7.448,7.442,7.4471,7.4448,7.454,7.4564,7.4638,7.464,7.4731,7.476,7.4802,7.4876,7.4897,7.4855,7.4899,7.4867,7.4904,7.4923,7.4836,7.486,7.4844,7.4812,7.4776,7.4749,7.4773,7.4776,7.4796,7.4772,7.4769,7.484,7.4956,7.4926,7.5096,7.5083,7.5085,7.5145,7.5218,7.527,7.5178,7.5243,7.5208,7.5012,7.477,7.465,7.4568,7.454,7.4468,7.4403,7.425,7.428,7.4142,7.4096,7.4059,7.4,7.3873,7.3806,7.3691,7.3293,7.2213,7.1084,7.2149,7.4707,7.707,8.1389,8.4623,8.5593,8.6428,8.286,7.6116,7.3614,7.3056,7.2906,7.3035,7.291,7.3095,7.3022,7.3238,7.3284,7.3429,7.3332,7.3267,7.3026,7.2943,7.2751,7.2733,7.2667,7.262,7.2399,7.2089,7.1867,7.1776,7.1579,7.1596,7.1635,7.1693,7.166,7.1756,7.1755,7.176,7.18,7.1838,7.1944,7.2126,7.2292,7.253,7.2721,7.3026,7.3352,7.3696,7.4029,7.4479,7.4847,7.5244,7.5579,7.5897,7.6057,7.6364,7.6684,7.6936,7.7099,7.7185,7.7235,7.7143,7.6901,7.6548,7.6236,7.5867,7.5481,7.5108,7.4798,7.4502,7.4257,7.4007,7.3839,7.3613,7.3554,7.3429,7.3384,7.3294,7.3234,7.319,7.3189,7.3185,7.333,7.3265,7.3266,7.3256,7.3244,7.3257,7.3295,7.3255,7.3296,7.3351,7.3448,7.3492,7.3483,7.3531,7.3668,7.3628,7.3661,7.3695,7.368,7.3668,7.3679,7.3657,7.3657,7.3668,7.3682,7.368,7.3696,7.3722,7.389,7.3842,7.3807,7.3816,7.3798,7.3747,7.3786,7.3825,7.3843,7.3875,7.3926,7.3969,7.3985,7.3985,7.3957,7.4019,7.4004,7.4073,7.4111,7.4066,7.4098,7.4142,7.4151,7.4234,7.4246,7.4224,7.4259,7.426,7.4248,7.4276,7.4374,7.448,7.4395,7.4352,7.4321,7.4265,7.4199,7.4246,7.4313,7.4375,7.4357,7.4334,7.4348,7.4394,7.4392,7.4392,7.4423,7.4417,7.4532,7.4638,7.4715,7.4814,7.4857,7.4933,7.5038,7.4998,7.5111,7.523,7.5276,7.5191,7.5203,7.5175,7.5073,7.5022,7.4905,7.4829,7.4752,7.4717,7.4649,7.4588,7.4546,7.4566,7.4533,7.4551,7.452,7.4511,7.4464,7.4439,7.4255,7.3443,7.2158,7.2722,7.5307,7.7802,7.9573,8.4238,8.6798,8.69,8.741,8.1503,7.6176,7.5035,7.4324,7.4419,7.4495,7.4488,7.4509,7.4566,7.4754,7.4802,7.4867,7.4839,7.4882,7.4839,7.4871,7.4967,7.5045,7.5095,7.5122,7.5108,7.5059,7.4997,7.4959,7.4882,7.4836,7.481,7.477,7.4786,7.4906,7.4984,7.5146,7.5251,7.5405,7.5576,7.5662,7.5901,7.6105,7.6284,7.6541,7.6826,7.7137,7.7474,7.7769,7.8066,7.8333,7.8598,7.8853,7.9057,7.9228,7.9391,7.9551,7.9588,7.9508,7.9368,7.9236,7.8882,7.8452,7.8059,7.7612,7.7227,7.6897,7.6564,7.6271,7.6006,7.5771,7.5628,7.5518,7.5424,7.5334,7.5327,7.5292,7.527,7.516,7.5149,7.5124,7.5107,7.5069,7.5017,7.4996,7.4982,7.4949,7.4943,7.493,7.4966,7.5007,7.514,7.5259,7.545,7.5397,7.5431,7.5414,7.5477,7.5423,7.5403,7.5361,7.5362,7.5354,7.5343,7.5368,7.5301,7.534,7.5287,7.5251,7.5217,7.5209,7.5235,7.5243,7.5288,7.5234,7.5375,7.5387,7.5452,7.5513,7.5528,7.5546,7.5527,7.558,7.5574,7.5556,7.5522,7.5508,7.5489,7.5523,7.5514,7.5451,7.543,7.5433,7.543,7.5455,7.5395,7.5403,7.5445,7.5454,7.5458,7.5444,7.5403,7.5438,7.5402,7.5452,7.545,7.5462,7.549,7.5573,7.5647,7.5701,7.574,7.5729,7.5799,7.5835,7.596,7.594,7.605,7.6192,7.6224,7.6279,7.6358,7.6366,7.6514,7.6694,7.6637,7.6573,7.6578,7.6648,7.6553,7.6411,7.6236,7.6226,7.6259,7.6226,7.6194,7.6121,7.6172,7.6248,7.6248,7.6269,7.626,7.6242,7.6274,7.6293,7.615,7.5366,7.4052,7.4417,7.6964,7.9525,8.3282,8.7817,8.9222,8.9255,8.764,8.078,7.7308,7.6901,7.6291,7.659,7.6498,7.6606,7.642,7.6686,7.6792,7.706,7.7079,7.7237,7.7119,7.7201,7.7226,7.7399,7.7453,7.7522,7.752,7.7519,7.7423,7.7462,7.7401,7.7379,7.7328,7.726,7.7224,7.7257,7.7383,7.7507,7.7654,7.7867,7.8019,7.8319,7.8506,7.8835,7.9029,7.934,7.9663,7.9905,8.0204,8.0503,8.0879,8.102,8.1346,8.1598,8.1841,8.2071,8.2282,8.2522,8.267,8.2766,8.2695,8.2544,8.2299,8.193,8.1474,8.1072,8.0693,8.0302,7.9898,7.9584,7.9366,7.927,7.9045,7.8873,7.8698,7.8637,7.8636,7.855,7.8591,7.8514,7.8496,7.8504,7.8488,7.8473,7.8469,7.8447,7.8434,7.8438,7.8445,7.85,7.8504,7.8495,7.8593,7.8583,7.8746,7.8674,7.8723,7.8743,7.8791,7.8742,7.8735,7.8661,7.8687,7.8587,7.8555,7.8556,7.8559,7.8539,7.8466,7.8364,7.8335,7.83,7.8387,7.8322,7.8292,7.8326,7.8409,7.8417,7.8462,7.8466,7.8431,7.8396,7.8432,7.8411,7.8362,7.8333,7.831,7.8256,7.8224,7.8278,7.834,7.8275,7.8301,7.83,7.8301,7.8227,7.8214,7.8236,7.8321,7.8342,7.842,7.8466,7.8493,7.8557,7.8511,7.8551,7.8759,7.8716,7.8641,7.8674,7.8575,7.85,7.843,7.8224,7.8158,7.8047,7.7933,7.7951,7.7878,7.7836,7.7798,7.7653,7.7604,7.7559,7.7507,7.7441,7.7304,7.7239,7.68,7.5619,7.4895,7.5473,7.7876,8.0713,8.4369,8.8537,8.8886,8.8631,8.5727,7.9571,7.7078,7.636,7.5559,7.577,7.5671,7.5636,7.55,7.5503,7.5623,7.5601,7.5646,7.5564,7.5473,7.5388,7.5367,7.534,7.5338,7.5197,7.5067,7.4911,7.4733,7.4561,7.4305,7.4132,7.39,7.375,7.3635,7.3466,7.3446,7.3407,7.3446,7.3514,7.3562,7.3737,7.3871,7.4053,7.4236,7.4452,7.4642,7.4918,7.5192,7.5425,7.5649,7.5871,7.6124,7.6329,7.6557,7.6704,7.6816,7.6912,7.6936,7.6927,7.6743,7.6385,7.6007,7.5581,7.5094,7.4608,7.4104,7.3705,7.3325,7.3036,7.2693,7.2456,7.2249,7.2134,7.1993,7.1944,7.1794,7.1747,7.1708,7.1691,7.1654,7.1568,7.1489,7.1416,7.1374,7.1365,7.1299,7.1184,7.1138,7.1185,7.1241,7.1294,7.1374,7.1444,7.1453,7.1475,7.1414,7.1436,7.142,7.1431,7.1421,7.1384,7.1304,7.1275,7.1316,7.1309,7.1292,7.1298,7.13,7.1253,7.1231,7.1244,7.1168,7.1158,7.1163,7.1144,7.1149,7.1107,7.111,7.1146,7.1108,7.1087,7.1013,7.0958,7.0907,7.0894,7.0878,7.0816,7.0789,7.0796,7.0774,7.0749,7.0695,7.0667,7.0669,7.0608,7.0581,7.0551,7.0691,7.0684,7.0607,7.0548,7.057,7.0647,7.0759,7.1165,7.1617,7.174,7.1716,7.1717,7.1703,7.1582,7.1455,7.1336,7.1329,7.1241,7.1261,7.1198,7.1244,7.127,7.1356,7.1433,7.1509,7.1543,7.1515,7.1617,7.1683,7.1686,7.167,7.1514,7.0805,6.9383,6.9633,7.1925,7.4177,7.807,8.2928,8.4799,8.5099,8.5601,8.0681,7.408,7.2407,7.1828,7.1898,7.192,7.1928,7.1972,7.2083,7.2213,7.2295,7.2353,7.2351,7.2311,7.2289,7.2362,7.244,7.2568,7.2572,7.251,7.2452,7.2357,7.2269,7.2147,7.1963,7.1797,7.1694,7.1655,7.1656,7.1685,7.1786,7.1937,7.2141,7.2337,7.2478,7.272,7.2943,7.3175,7.3456,7.3604,7.3871,7.4225,7.4541,7.4905,7.5214,7.5495,7.5729,7.6073,7.6323,7.6558,7.6722,7.684,7.6908,7.6868,7.6662,7.637,7.5969,7.5581,7.5185,7.5003,7.4571,7.4239,7.3909,7.362,7.3407,7.3207,7.3041,7.2919,7.2852,7.2779,7.273,7.2666,7.2641,7.2629,7.2632,7.2604,7.2578,7.2567,7.2572,7.2583,7.2573,7.2595,7.2603,7.2648,7.2716,7.2769,7.284,7.298,7.3083,7.3121,7.3108,7.3133,7.3129,7.3084,7.3012,7.2938,7.2915,7.2905,7.2873,7.2856,7.2851,7.281,7.2795,7.284,7.2788,7.2757,7.2724,7.2681,7.2701,7.2712,7.2746,7.2759,7.2798,7.2835,7.2822,7.2836,7.2866,7.2867,7.2888,7.2892,7.2867,7.2879,7.287,7.2901,7.2942,7.2931,7.2928,7.2875,7.2882,7.2866,7.2872,7.287,7.2841,7.2847,7.2908,7.2891,7.298,7.3154,7.3644,7.3769,7.377,7.3868,7.3853,7.3779,7.3604,7.3397,7.3287,7.3268,7.3094,7.3065,7.3019,7.295,7.2909,7.2958,7.2981,7.3019,7.3019,7.3,7.3003,7.2998,7.2953,7.2981,7.2929,7.2521,7.1367,7.0409,7.1787,7.432,7.7084,8.194,8.5145,8.5879,8.6383,8.1387,7.5051,7.3416,7.2758,7.28,7.2851,7.2837,7.283,7.2892,7.301,7.3067,7.3101,7.3109,7.3104,7.3095,7.3116,7.3128,7.3235,7.3303,7.3302,7.3174,7.3123,7.3101,7.3008,7.2885,7.2783,7.2715,7.2697,7.2665,7.2752,7.2805,7.2957,7.3079,7.3288,7.349,7.3663,7.3858,7.4092,7.4319,7.4566,7.483,7.5147,7.5406,7.5736,7.6047,7.6307,7.6425,7.6656,7.6856,7.7128,7.7254,7.7356,7.7408,7.7359,7.7189,7.685,7.6461,7.605,7.562,7.5168,7.4756,7.4377,7.4022,7.3779,7.3525,7.3349,7.3228,7.3105,7.2928,7.2909,7.2823,7.2733,7.2665,7.2664,7.2644,7.2638,7.2618,7.2562,7.2575,7.2575,7.2573,7.2591,7.2593,7.262,7.2711,7.2764,7.2824,7.2889,7.2887,7.292,7.2966,7.2934,7.2911,7.2839,7.2768,7.2712,7.2748,7.2624,7.2614,7.2612,7.2608,7.255,7.2483,7.2482,7.2465,7.2439,7.2417,7.2368,7.2334,7.2351,7.2357,7.2355,7.2362,7.235,7.2394,7.2374,7.237,7.2315,7.2318,7.23,7.2303,7.2323,7.2294,7.2292,7.2306,7.2331,7.2349,7.2358,7.2321,7.2314,7.2312,7.23,7.2282,7.227,7.2265,7.2284,7.2272,7.2315,7.2314,7.2364,7.2351,7.2409,7.2475,7.2472,7.252,7.252,7.257,7.2526,7.2569,7.2563,7.2689,7.2769,7.2708,7.2779,7.2914,7.3011,7.3455,7.3651,7.3548,7.3434,7.3412,7.3369,7.3349,7.328,7.311,7.3014,7.3006,7.2884,7.2809,7.2759,7.2653,7.2642,7.2616,7.2615,7.2563,7.2568,7.2552,7.259,7.2591,7.2564,7.2554,7.228,7.1303,7.0169,7.1263,7.3856,7.49,7.8423,8.3432,8.5489,8.5718,8.5467,7.8692,7.3759,7.3214,7.2501,7.2807,7.2727,7.2857,7.2766,7.3023,7.3001,7.3195,7.3098,7.3228,7.311,7.3224,7.3214,7.3379,7.3294,7.3359,7.3187,7.3201,7.3113,7.3069,7.2896,7.2882,7.2796,7.2804,7.2756,7.2837,7.2907,7.3049,7.3144,7.3296,7.3385,7.3462,7.365,7.3875,7.4027,7.4245,7.4476,7.4761,7.5051,7.5384,7.5658,7.5921,7.6177,7.6459,7.6637,7.6834,7.7026,7.7144,7.7244,7.7285,7.7204,7.7106,7.6904,7.6543,7.6169,7.5798,7.5368,7.5015,7.4728,7.4453,7.4181,7.3876,7.373,7.3604,7.3583,7.3476,7.3434,7.343,7.3455,7.3444,7.3504,7.3492,7.3506,7.3515,7.3548,7.3536,7.3612,7.3535,7.3627,7.3704,7.3881,7.3975,7.4146,7.4211,7.4268,7.4321,7.4321,7.4397,7.4436,7.4311,7.4299,7.4259,7.4237,7.4207,7.4287,7.4249,7.4179,7.407,7.4129,7.4143,7.4146,7.4144,7.412,7.407,7.415,7.4225,7.4293,7.4236,7.4373,7.445,7.4481,7.4439,7.4475,7.4468,7.446,7.4502,7.4516,7.4451,7.4511,7.4529,7.4547,7.4576,7.4517,7.4517,7.4594,7.4575,7.467,7.4617,7.4623,7.4582,7.4684,7.4763,7.4768,7.4811,7.4956,7.504,7.5346,7.5867,7.597,7.6114,7.6023,7.608,7.6058,7.5933,7.5875,7.5742,7.5739,7.5655,7.5597,7.5587,7.5577,7.5595,7.5615,7.5679,7.5753,7.5716,7.5799,7.5793,7.5834,7.5799,7.5855,7.5905,7.5649,7.4624,7.3656,7.495,7.7699,8.0509,8.4736,8.8154,8.8577,8.8425,8.7429,8.1001,7.7163,7.6802,7.6028,7.6446,7.6305,7.6476,7.6446,7.6827,7.6951,7.7104,7.7,7.7029,7.6998,7.7082,7.7183,7.7346,7.7266,7.7341,7.7279,7.7281,7.7252,7.7189,7.7093,7.7017,7.7036,7.7118,7.7134,7.7156,7.726,7.7499,7.7621,7.7895,7.8149,7.8437,7.8645,7.8868,7.9133,7.9418,7.954,7.9807,8.0139,8.0484,8.0718,8.1089,8.127,8.1557,8.174,8.2009,8.226,8.2362,8.2394,8.242,8.2158,8.1962,8.1613,8.122,8.0741,8.0573,8.0188,7.9728,7.9383,7.906,7.8782,7.8499,7.8414,7.8201,7.8067,7.7945,7.7967,7.7923,7.7799,7.777,7.7671,7.7686,7.7766,7.7697,7.7699,7.7619,7.7617,7.7606,7.7608,7.7522,7.7661,7.7695,7.78,7.7741,7.7689,7.7683,7.7761,7.7731,7.7759,7.7619,7.7555,7.7482,7.7489,7.7477,7.741,7.7363,7.7286,7.7254,7.7201,7.7107,7.7059,7.6986,7.7038,7.6984,7.6951,7.6881,7.6901,7.6812,7.681,7.6772,7.6711,7.6626,7.6611,7.6588,7.6621,7.6589,7.6692,7.6859,7.7088,7.7036,7.696,7.6976,7.6821,7.6502,7.6089,7.5818,7.5582,7.5359,7.5203,7.5051,7.4888,7.4789,7.4671,7.4571,7.449,7.4449,7.4423,7.4373,7.4313,7.4252,7.4263,7.4161,7.4048,7.3248,7.1849,7.2202,7.4705,7.7426,8.1188,8.5549,8.6291,8.6043,8.3373,7.6933,7.4203,7.3872,7.3018,7.2949,7.3044,7.295,7.2796,7.2766,7.2801,7.289,7.2965,7.2911,7.286,7.2732,7.2714,7.2717,7.2739,7.2704,7.2604,7.2418,7.2227,7.2115,7.1967,7.1753,7.1508,7.1316,7.1197,7.1093,7.109,7.1118,7.1261,7.1386,7.1498,7.1642,7.1867,7.2039,7.2265,7.248,7.2676,7.2923,7.3207,7.3334,7.3561,7.3837,7.4049,7.4313,7.4492,7.4636,7.4768,7.4871,7.4942,7.489,7.4647,7.4309,7.3885,7.3483,7.3029,7.264,7.2166,7.1783,7.1455,7.1305,7.1056,7.0841,7.0636,7.0523,7.0417,7.0396,7.0267,7.0207,7.0174,7.0137,7.0126,7.011,7.0062,7.0029,6.9998,7.0018,6.9993,7.0028,7.0042,7.0063,7.0213,7.0305,7.0421,7.0468,7.0532,7.0603,7.0603,7.0579,7.0549,7.0529,7.0469,7.0451,7.0367,7.0353,7.0344,7.0409,7.038,7.0328,7.0275,7.0263,7.0289,7.0315,7.0243,7.0225,7.0244,7.0255,7.0293,7.0282,7.0257,7.0251,7.0258,7.0266,7.0224,7.0241,7.0256,7.0265,7.0294,7.0282,7.0282,7.029,7.0271,7.0284,7.0265,7.0272,7.0242,7.0289,7.0252,7.0255,7.0282,7.0275,7.0459,7.0573,7.0933,7.1323,7.143,7.1561,7.1603,7.1527,7.1326,7.1213,7.113,7.1148,7.108,7.0994,7.0983,7.0956,7.1007,7.1072,7.113,7.1154,7.12,7.1263,7.1325,7.1332,7.137,7.1399,7.1252,7.0473,6.9079,6.8918,7.0655,7.2935,7.5991,8.1027,8.3944,8.4564,8.5228,7.9515,7.3169,7.1836,7.1344,7.1451,7.1538,7.1481,7.1551,7.1611,7.1804,7.189,7.192,7.1881,7.1857,7.1813,7.1908,7.2004,7.2084,7.2062,7.2014,7.1947,7.1901,7.1733,7.1581,7.1418,7.1335,7.1341,7.1317,7.1308,7.1392,7.1551,7.1732,7.1844,7.1991,7.2172,7.2394,7.2621,7.2845,7.3079,7.3378,7.3681,7.4006,7.4308,7.4596,7.4915,7.5183,7.5456,7.5644,7.5862,7.6036,7.6212,7.6316,7.6358,7.6312,7.614,7.5891,7.5506,7.5101,7.4694,7.4287,7.394,7.3677,7.342,7.3159,7.2937,7.2886,7.2786,7.2738,7.2707,7.2626,7.2661,7.2661,7.2674,7.2657,7.2622,7.2635,7.2667,7.2641,7.2607,7.2572,7.2615,7.2616,7.2676,7.2733,7.2781,7.2895,7.2978,7.3014,7.3012,7.297,7.2989,7.2899,7.2883,7.2806,7.2692,7.265,7.259,7.25,7.2442,7.2397,7.2328,7.2345,7.2308,7.2278,7.2192,7.2151,7.209,7.2071,7.2071,7.2054,7.204,7.2044,7.2015,7.2008,7.2009,7.1926,7.1899,7.1826,7.1844,7.1841,7.1788,7.182,7.1839,7.1807,7.1778,7.174,7.1739,7.1745,7.1709,7.1706,7.1673,7.1658,7.1664,7.1707,7.1665,7.1672,7.168,7.1735,7.1746,7.1754,7.1736,7.1784,7.1816,7.184,7.1877,7.1861,7.1872,7.191,7.1959,7.1949,7.1945,7.191,7.1936,7.1945,7.2001,7.2038,7.2056,7.2131,7.2148,7.2159,7.2423,7.2721,7.293,7.3004,7.3017,7.2959,7.2772,7.2556,7.2409,7.2245,7.2195,7.2109,7.2041,7.1945,7.1898,7.186,7.1829,7.1818,7.1834,7.1888,7.1848,7.18,7.1762,7.1776,7.175,7.1661,7.0891,6.9517,6.9806,7.2153,7.4366,7.8299,8.1131,8.3981,8.4968,8.554,8.0754,7.3949,7.2501,7.1725,7.1971,7.1885,7.2028,7.192,7.2154,7.2234,7.2372,7.2303,7.2417,7.2337,7.2422,7.2393,7.2511,7.2427,7.2529,7.2371,7.2345,7.2168,7.2068,7.1951,7.1969,7.1919,7.1917,7.1847,7.195,7.2054,7.2213,7.2305,7.2536,7.2657,7.2869,7.3055,7.3189,7.3412,7.3616,7.3893,7.4232,7.4513,7.4815,7.5071,7.5317,7.5573,7.5834,7.6048,7.6245,7.6454,7.6622,7.6705,7.6746,7.6736,7.6559,7.6304,7.6107,7.573,7.529,7.4934,7.4511,7.4136,7.3741,7.3443,7.3163,7.2993,7.2777,7.261,7.2524,7.2514,7.2474,7.2439,7.2334,7.2374,7.2337,7.2398,7.2361,7.2395,7.237,7.2441,7.241,7.2524,7.2502,7.2642,7.2665,7.2788,7.282,7.2901,7.2863,7.289,7.2908,7.2907,7.289,7.2865,7.2831,7.2866,7.2835,7.284,7.2757,7.2736,7.2687,7.2676,7.2606,7.2519,7.2477,7.2466,7.2399,7.2369,7.2352,7.2301,7.2261,7.2287,7.2262,7.223,7.2229,7.2191,7.2193,7.2216,7.2205,7.2214,7.2203,7.2255,7.2304,7.2297,7.2272,7.2314,7.2332,7.2358,7.2338,7.2329,7.2354,7.2358,7.2342,7.232,7.2297,7.2333,7.2351,7.239,7.2436,7.2433,7.2412,7.2476,7.2492,7.2533,7.2624,7.2658,7.2712,7.2799,7.2826,7.3009,7.3313,7.365,7.3743,7.3738,7.3684,7.3641,7.3572,7.3423,7.3281,7.3098,7.3099,7.3003,7.2982,7.2917,7.2856,7.2841,7.2821,7.2879,7.2905,7.2918,7.2917,7.2942,7.299,7.3005,7.3001,7.271,7.235,7.0996,7.0723,7.2808,7.5092,7.8487,8.3483,8.5712,8.5821,8.5874,7.9281,7.4276,7.3599,7.2912,7.3159,7.3103,7.3186,7.3124,7.3306,7.3306,7.3401,7.3293,7.3351,7.3206,7.3236,7.3175,7.3273,7.321,7.3217,7.3062,7.2991,7.2843,7.281,7.2672,7.255,7.247,7.2523,7.255,7.2687,7.2681,7.2805,7.2938,7.3083,7.3278,7.3554,7.3709,7.3948,7.419,7.453,7.481,7.5163,7.5542,7.5933,7.6279,7.6575,7.6812,7.7078,7.7369,7.7599,7.7812,7.7889,7.8099,7.8244,7.8284,7.8192,7.7925,7.7612,7.7222,7.6887,7.6514,7.6118,7.5769,7.5478,7.516,7.4963,7.483,7.4666,7.4601,7.4539,7.4472,7.4431,7.4343,7.4345,7.4306,7.4334,7.4343,7.4323,7.4418,7.4435,7.4472,7.4452,7.4535,7.4656,7.4785,7.4904,7.5055,7.5057,7.5173,7.5179,7.5268,7.5238,7.5263,7.5284,7.5238,7.5301,7.5324,7.5307,7.5335,7.5355,7.5394,7.5389,7.5441,7.5495,7.5464,7.5505,7.5555,7.5562,7.5628,7.5646,7.5718,7.5716,7.5691,7.5784,7.5833,7.5906,7.5928,7.5832,7.589,7.5872,7.5919,7.59,7.5917,7.5991,7.605,7.5934,7.6111,7.6136,7.6177,7.6128,7.6158,7.6176,7.6261,7.6288,7.6336,7.6412,7.6523,7.6805,7.714,7.7376,7.7536,7.7656,7.7676,7.7537,7.7351,7.715,7.7067,7.704,7.7019,7.696,7.6813,7.6835,7.6892,7.6949,7.693,7.6853,7.6975,7.7087,7.705,7.6974,7.7109,7.7172,7.7059,7.662,7.5383,7.5068,7.7312,7.996,8.3166,8.7878,8.961,8.9576,8.9943,8.5953,8.0111,7.8007,7.7408,7.7062,7.7439,7.7464,7.7498,7.7544,7.78,7.8006,7.8048,7.8076,7.7885,7.8022,7.8073,7.8179,7.8211,7.8178,7.8208,7.8185,7.8067,7.8056,7.8026,7.8007,7.795,7.7887,7.7822,7.7904,7.7961,7.8074,7.8262,7.8443,7.8575,7.8785,7.9049,7.9287,7.9525,7.9669,8.0021,8.0261,8.057,8.0857,8.1156,8.1466,8.1724,8.2005,8.2231,8.2455,8.2608,8.2716,8.2865,8.2947,8.2887,8.2731,8.2406,8.1978,8.1509,8.1319,8.1009,8.0538,8.0206
