5.5332,5.55,5.5458,5.5579,5.5547,5.5576,5.5742,5.5665,5.5377,5.5537,5.5908,5.565,5.5633,5.5515,5.5795,5.5869,5.5864,5.5815,5.5816,5.5973,5.6117,5.6065,5.5998,5.6009,5.6168,5.629,5.6508,5.6725,5.6607,5.6605,5.6769,5.6834,5.6958,5.7185,5.7217,5.7287,5.727,5.7403,5.769,5.7619,5.7832,5.7761,5.7606,5.7646,5.7416,5.748,5.7381,5.7038,5.6794,5.6956,5.6784,5.6258,5.6129,5.6056,5.5927,5.5719,5.5452,5.5485,5.5529,5.5412,5.5401,5.5432,5.532,5.503,5.5147,5.5548,5.5502,5.5196,5.5322,5.513,5.5199,5.5391,5.5085,5.5171,5.5232,5.5216,5.5294,5.5351,5.5236,5.5168,5.5227,5.5313,5.498,5.5319,5.5302,5.5199,5.5114,5.5,5.538,5.5362,5.5367,5.5157,5.5078,5.517,5.4987,5.5177,5.5064,5.5079,5.5026,5.5011,5.5017,5.5287,5.5131,5.5061,5.5043,5.5273,5.5049,5.5074,5.5057,5.495,5.4967,5.4933,5.5082,5.5027,5.5205,5.5194,5.5597,5.5589,5.5476,5.5458,5.5502,5.5561,5.5789,5.5804,5.5671,5.5627,5.5537,5.5542,5.5353,5.5328,5.5231,5.5011,5.5052,5.4918,5.477,5.4841,5.4952,5.4962,5.4999,5.4695,5.4869,5.4929,5.5019,5.4648,5.4887,5.4934,5.487,5.5009,5.493,5.4948,5.4632,5.4826,5.4753,5.4895,5.4923,5.4878,5.4999,5.5256,5.5923,5.7046,5.8036,5.975,6.1063,6.0787,5.7497,5.4082,5.3171,5.3089,5.3344,5.3842,5.4725,5.5311,5.5373,5.5283,5.5176,5.5099,5.5145,5.533,5.5431,5.5297,5.5051,5.5193,5.5261,5.5349,5.536,5.5215,5.535,5.5237,5.5487,5.5549,5.5318,5.5227,5.5596,5.5606,5.5522,5.5664,5.5356,5.5606,5.5648,5.5748,5.5604,5.5801,5.5829,5.5873,5.5857,5.5989,5.5942,5.6478,5.6281,5.6337,5.6338,5.6505,5.6604,5.6842,5.6739,5.6838,5.6877,5.7087,5.7297,5.7152,5.7168,5.738,5.7536,5.7424,5.7468,5.7407,5.7118,5.7099,5.6906,5.6614,5.6396,5.6132,5.6136,5.5917,5.6118,5.5695,5.5466,5.5215,5.5267,5.5241,5.5244,5.4942,5.5082,5.5149,5.5167,5.5032,5.5021,5.4904,5.5137,5.4968,5.5016,5.4753,5.4862,5.4962,5.4979,5.5132,5.5222,5.4913,5.4978,5.5052,5.4882,5.507,5.5062,5.5019,5.5186,5.5097,5.5106,5.4832,5.5106,5.5233,5.5034,5.5002,5.5191,5.4922,5.4883,5.5105,5.4965,5.4824,5.495,5.5196,5.4992,5.4847,5.4862,5.5016,5.4936,5.4731,5.5038,5.4921,5.4799,5.4995,5.4941,5.4739,5.5064,5.5074,5.5031,5.4868,5.4826,5.4972,5.4985,5.521,5.5454,5.5416,5.5273,5.5286,5.5422,5.5481,5.565,5.5283,5.5361,5.5774,5.5307,5.5176,5.5345,5.5124,5.5003,5.4882,5.4422,5.4693,5.4626,5.455,5.4585,5.4699,5.4576,5.4298,5.4704,5.4664,5.4568,5.4578,5.4318,5.4589,5.4615,5.4567,5.4412,5.456,5.4388,5.458,5.4556,5.4642,5.4592,5.4509,5.5098,5.5363,5.6458,5.759,5.8915,6.0764,6.0424,5.7757,5.4357,5.3157,5.2951,5.3073,5.37,5.4254,5.4965,5.4945,5.4953,5.4989,5.4833,5.4897,5.4788,5.479,5.4945,5.4801,5.4741,5.4925,5.5064,5.5007,5.4857,5.4952,5.5073,5.4926,5.4931,5.4929,5.5274,5.5268,5.5164,5.5161,5.5183,5.514,5.527,5.5329,5.5306,5.5158,5.5355,5.5309,5.5282,5.5602,5.5562,5.5521,5.5767,5.5945,5.5874,5.59,5.5678,5.6268,5.6347,5.6441,5.6483,5.6709,5.6499,5.6663,5.6635,5.6818,5.6772,5.6752,5.6906,5.6869,5.687,5.667,5.6557,5.6455,5.6186,5.5889,5.5671,5.5595,5.5259,5.5449,5.4988,5.5006,5.4843,5.456,5.4855,5.4697,5.4759,5.4664,5.4651,5.4651,5.4574,5.4371,5.4426,5.4452,5.4585,5.463,5.456,5.4364,5.4348,5.4297,5.4428,5.4459,5.4465,5.4544,5.4461,5.4411,5.4425,5.4485,5.4351,5.4614,5.4363,5.4368,5.4513,5.4333,5.4724,5.4466,5.4329,5.4464,5.4401,5.4526,5.4475,5.4458,5.4244,5.422,5.4392,5.4369,5.4452,5.4274,5.4303,5.4252,5.4439,5.4236,5.4264,5.4285,5.4488,5.4264,5.4485,5.4341,5.4723,5.4721,5.4659,5.488,5.4692,5.4761,5.4576,5.477,5.4839,5.4778,5.4753,5.4844,5.4766,5.4764,5.452,5.417,5.4335,5.3891,5.3994,5.4102,5.3944,5.3885,5.3929,5.3915,5.4041,5.4005,5.3641,5.3894,5.3828,5.3701,5.393,5.3832,5.3796,5.4006,5.3634,5.371,5.3879,5.4047,5.3965,5.3908,5.3807,5.4045,5.4538,5.5076,5.5824,5.7043,5.8238,5.9812,5.983,5.7001,5.3994,5.2845,5.2633,5.2578,5.2937,5.3565,5.4193,5.4196,5.4192,5.434,5.4203,5.4144,5.4439,5.4319,5.4116,5.4152,5.4119,5.4328,5.4569,5.4382,5.4342,5.4214,5.4501,5.4486,5.4436,5.4344,5.4514,5.4512,5.4573,5.4549,5.4476,5.4563,5.4618,5.468,5.4829,5.4759,5.4713,5.4675,5.4912,5.4977,5.4955,5.4942,5.5146,5.5297,5.5237,5.5348,5.5475,5.5572,5.5756,5.5832,5.5872,5.5907,5.5928,5.6223,5.6076,5.6192,5.612,5.6185,5.637,5.642,5.6029,5.5956,5.5845,5.5805,5.5358,5.5598,5.5347,5.4799,5.4807,5.4528,5.4402,5.4474,5.4397,5.4347,5.4263,5.411,5.3967,5.3956,5.3976,5.4089,5.3978,5.4017,5.4019,5.3948,5.4025,5.397,5.3766,5.3868,5.4103,5.4091,5.3934,5.4081,5.3924,5.3917,5.4137,5.4015,5.3856,5.3914,5.4026,5.3867,5.4083,5.4061,5.3803,5.3918,5.411,5.412,5.3958,5.3965,5.405,5.4021,5.406,5.3991,5.3974,5.382,5.4013,5.4002,5.3989,5.3778,5.3728,5.3815,5.4094,5.403,5.4152,5.4235,5.4325,5.4543,5.4433,5.4255,5.4187,5.4561,5.455,5.4522,5.4605,5.4449,5.4402,5.4373,5.41,5.4037,5.3904,5.3768,5.3613,5.3624,5.3569,5.3461,5.364,5.3554,5.3641,5.3477,5.3097,5.35,5.365,5.3712,5.3537,5.3482,5.34,5.3516,5.35,5.3663,5.371,5.3586,5.3669,5.3539,5.3683,5.3718,5.406,5.4701,5.5937,5.7071,5.8534,5.9875,5.9013,5.5982,5.2891,5.2029,5.1966,5.2371,5.3015,5.3681,5.3956,5.3777,5.3918,5.4026,5.3949,5.3777,5.3869,5.4059,5.4063,5.3883,5.4074,5.3957,5.4083,5.403,5.4117,5.3957,5.3984,5.4112,5.4295,5.4209,5.4161,5.4212,5.4376,5.4312,5.4232,5.4198,5.4232,5.4174,5.4496,5.4535,5.4574,5.4588,5.4577,5.4859,5.4769,5.4794,5.485,5.5083,5.5187,5.5028,5.536,5.5407,5.5658,5.5724,5.5617,5.5916,5.5944,5.5843,5.6051,5.6121,5.6151,5.6085,5.5972,5.6128,5.6185,5.5917,5.5651,5.5632,5.5336,5.5275,5.5008,5.4635,5.4596,5.4667,5.4452,5.4275,5.4107,5.418,5.4052,5.4034,5.3879,5.3861,5.3812,5.3803,5.3791,5.3944,5.3763,5.3817,5.3897,5.4088,5.3901,5.3817,5.3936,5.3978,5.3971,5.4028,5.389,5.3964,5.3892,5.3927,5.397,5.4037,5.4013,5.4015,5.3997,5.3922,5.4094,5.3876,5.4057,5.4059,5.4093,5.387,5.3948,5.3985,5.4101,5.4104,5.3979,5.3936,5.3845,5.4057,5.401,5.3909,5.3892,5.3878,5.3973,5.4028,5.3897,5.391,5.3991,5.4214,5.4325,5.4208,5.4312,5.4388,5.4492,5.4632,5.4467,5.4553,5.4458,5.4744,5.4461,5.4741,5.4553,5.4357,5.423,5.4211,5.4202,5.3907,5.3809,5.3799,5.3792,5.3732,5.3753,5.3761,5.3833,5.3941,5.3868,5.3743,5.3633,5.3857,5.3915,5.3797,5.3754,5.373,5.3958,5.3702,5.3794,5.3809,5.4021,5.3909,5.4011,5.4044,5.447,5.4999,5.6218,5.7748,5.9114,5.9951,6.0029,5.747,5.4227,5.2358,5.2105,5.2434,5.2987,5.3953,5.4558,5.4452,5.4223,5.4146,5.4277,5.4479,5.4271,5.4222,5.4353,5.4604,5.4471,5.4435,5.4335,5.4358,5.4486,5.4496,5.4324,5.4426,5.4592,5.471,5.4623,5.4558,5.4658,5.4588,5.4554,5.4766,5.4718,5.4813,5.4817,5.4852,5.4958,5.493,5.4957,5.5019,5.518,5.5256,5.5255,5.536,5.5495,5.55,5.5851,5.583,5.6004,5.5993,5.6141,5.6154,5.6355,5.6368,5.6408,5.6536,5.6745,5.6416,5.6649,5.6761,5.6464,5.6466,5.6285,5.597,5.5883,5.5737,5.5333,5.5305,5.5155,5.4882,5.4673,5.4691,5.4551,5.4498,5.4377,5.452,5.4486,5.4425,5.4276,5.4237,5.4179,5.4501,5.4311,5.4466,5.434,5.4239,5.4393,5.4598,5.4347,5.4203,5.4319,5.4227,5.4481,5.4598,5.4535,5.4181,5.459,5.4684,5.446,5.4419,5.4359,5.444,5.4356,5.4579,5.4386,5.4252,5.4291,5.4462,5.4524,5.4441,5.4478,5.4446,5.4475,5.4375,5.4398,5.4382,5.4394,5.4497,5.4476,5.4246,5.441,5.4369,5.4407,5.445,5.441,5.4386,5.4325,5.4494,5.4581,5.4762,5.4787,5.4957,5.4875,5.4893,5.4777,5.4949,5.4975,5.5166,5.5051,5.4839,5.4818,5.4745,5.4998,5.4803,5.4613,5.4467,5.4165,5.4076,5.4279,5.414,5.4152,5.4032,5.4084,5.4078,5.4368,5.401,5.396,5.3946,5.4201,5.4168,5.4067,5.4084,5.413,5.4131,5.4085,5.4134,5.4133,5.4194,5.407,5.4132,5.4621,5.4666,5.5713,5.7179,5.8432,6.0153,6.0596,5.8317,5.4977,5.2792,5.2216,5.2566,5.3179,5.3721,5.4364,5.4842,5.4378,5.4577,5.4495,5.4599,5.4445,5.4597,5.4476,5.4415,5.4788,5.4762,5.4487,5.4648,5.4604,5.4746,5.4753,5.4616,5.4716,5.4756,5.4944,5.4879,5.46,5.4841,5.4758,5.4846,5.4807,5.4954,5.4853,5.4944,5.5103,5.5252,5.5141,5.5062,5.5204,5.5283,5.54,5.5573,5.5553,5.5677,5.5887,5.5666,5.5857,5.6014,5.6393,5.642,5.6473,5.6389,5.6558,5.6601,5.6752,5.688,5.6783,5.6581,5.6626,5.6625,5.6556,5.6319,5.597,5.5879,5.5664,5.5702,5.5375,5.5178,5.4974,5.5076,5.4763,5.4682,5.4616,5.4446,5.458,5.4481,5.4484,5.442,5.4433,5.4392,5.4394,5.4349,5.4229,5.4276,5.4553,5.4553,5.4531,5.4207,5.4211,5.4443,5.4453,5.4454,5.4303,5.4373,5.4307,5.435,5.4562,5.4453,5.4287,5.4357,5.4343,5.4391,5.4443,5.4334,5.4385,5.4346,5.447,5.4391,5.4148,5.4237,5.4439,5.4195,5.4166,5.4073,5.4289,5.4066,5.4273,5.4269,5.4334,5.4321,5.4423,5.458,5.4559,5.4632,5.4691,5.4765,5.4776,5.4711,5.4458,5.4859,5.5012,5.4807,5.4878,5.4755,5.462,5.4784,5.4459,5.4367,5.4212,5.3966,5.4006,5.4004,5.4125,5.3844,5.3857,5.3998,5.4058,5.4004,5.3939,5.383,5.3786,5.3978,5.4005,5.3829,5.3941,5.3877,5.398,5.3854,5.3771,5.3859,5.4031,5.3978,5.3901,5.4213,5.4499,5.5577,5.6524,5.805,5.885,5.9996,5.9499,5.6643,5.3505,5.2574,5.2289,5.2458,5.3345,5.3888,5.4439,5.4355,5.4291,5.4181,5.4293,5.4225,5.4235,5.4259,5.4332,5.4421,5.4272,5.4151,5.4325,5.4455,5.4522,5.4483,5.4299,5.4279,5.442,5.4417,5.455,5.4431,5.4516,5.4504,5.4618,5.4616,5.4643,5.463,5.4742,5.4653,5.4944,5.486,5.481,5.5024,5.5093,5.5025,5.498,5.5314,5.5435,5.5384,5.5467,5.5482,5.5742,5.5867,5.6011,5.6006,5.6015,5.6121,5.5972,5.6411,5.6362,5.6274,5.6228,5.6247,5.6213,5.5975,5.5736,5.5541,5.531,5.5319,5.5033,5.4899,5.4701,5.4654,5.4404,5.4389,5.419,5.4163,5.3972,5.4007,5.3961,5.3751,5.3839,5.3959,5.3925,5.3965,5.3849,5.3923,5.3955,5.372,5.4027,5.3759,5.3795,5.3819,5.3823,5.3895,5.4071,5.3731,5.3739,5.3856,5.3978,5.3825,5.3983,5.3904,5.3921,5.3815,5.392,5.3873,5.3691,5.3878,5.3978,5.3942,5.3732,5.3685,5.3589,5.4024,5.3876,5.3862,5.3852,5.3945,5.4082,5.4093,5.4259,5.4288,5.4419,5.445,5.4191,5.4347,5.4329,5.4382,5.4512,5.4597,5.4322,5.4185,5.4178,5.4249,5.4107,5.3901,5.3547,5.3604,5.3891,5.3557,5.3632,5.3577,5.3417,5.3521,5.3708,5.3627,5.3599,5.3603,5.3504,5.3595,5.3614,5.3646,5.3496,5.3668,5.3711,5.368,5.3494,5.3752,5.3804,5.3767,5.3791,5.4301,5.4852,5.5297,5.6703,5.823,5.9683,5.9715,5.7022,5.4117,5.2512,5.233,5.2245,5.2803,5.3572,5.4057,5.4115,5.4061,5.4127,5.409,5.4228,5.4041,5.4157,5.4046,5.4119,5.4149,5.4235,5.4026,5.4197,5.4188,5.4237,5.4274,5.4256,5.4219,5.4152,5.4473,5.4515,5.4258,5.4449,5.4529,5.4614,5.469,5.4507,5.4616,5.4813,5.4766,5.4819,5.4639,5.4851,5.4922,5.5147,5.5165,5.5181,5.5336,5.5232,5.5539,5.5753,5.58,5.5888,5.5996,5.5996,5.6168,5.6144,5.6239,5.6312,5.6391,5.6399,5.648,5.6283,5.6075,5.6259,5.5956,5.5783,5.5562,5.5446,5.5349,5.5027,5.4732,5.4597,5.4514,5.453,5.4358,5.4341,5.4263,5.4221,5.4108,5.4212,5.4097,5.4108,5.4014,5.4076,5.4104,5.4186,5.4058,5.4024,5.4088,5.4196,5.403,5.4151,5.4145,5.4168,5.4261,5.4097,5.4145,5.4017,5.4214,5.4173,5.4129,5.4114,5.4272,5.4221,5.4197,5.4166,5.418,5.413,5.4261,5.4208,5.4276,5.4171,5.4185,5.427,5.4194,5.4223,5.4085,5.4082,5.4153,5.422,5.4205,5.4091,5.4334,5.4245,5.4418,5.4597,5.4581,5.452,5.4793,5.4719,5.4703,5.4499,5.4529,5.4764,5.466,5.4708,5.4501,5.4472,5.4529,5.4466,5.426,5.4222,5.3841,5.381,5.3834,5.3829,5.3937,5.3732,5.3904,5.3666,5.3881,5.387,5.3839,5.3839,5.3858,5.3976,5.3869,5.3715,5.3788,5.4035,5.3942,5.3917,5.3778,5.4039,5.3948,5.3957,5.4369,5.4639,5.5339,5.6645,5.8034,5.9431,6.0394,5.828,5.5157,5.2934,5.2357,5.2305,5.2852,5.3797,5.4232,5.4508,5.4418,5.4366,5.4309,5.4386,5.4217,5.4367,5.4552,5.4422,5.439,5.4437,5.435,5.4388,5.4529,5.4591,5.4542,5.4519,5.4465,5.4606,5.4615,5.4682,5.4474,5.4481,5.4439,5.4802,5.4591,5.4703,5.4694,5.4766,5.4893,5.4735,5.4997,5.5027,5.5055,5.5199,5.5207,5.5383,5.5321,5.5449,5.5537,5.569,5.5842,5.5906,5.5875,5.6166,5.6313,5.6167,5.6461,5.6304,5.6422,5.657,5.6504,5.6382,5.6501,5.6455,5.6144,5.5912,5.5678,5.5736,5.5575,5.5289,5.5061,5.4756,5.4662,5.468,5.4528,5.4466,5.4336,5.4405,5.4272,5.4308,5.4397,5.4095,5.418,5.431,5.4248,5.4169,5.4257,5.4022,5.4174,5.4216,5.4323,5.4196,5.4039,5.4166,5.4275,5.4319,5.4276,5.4273,5.4125,5.4203,5.4367,5.4237,5.4295,5.4118,5.4208,5.4263,5.423,5.4279,5.4219,5.4254,5.4295,5.4054,5.4012,5.4052,5.4299,5.4126,5.4187,5.3992,5.3998,5.4114,5.4134,5.3896,5.4043,5.4042,5.397,5.3914,5.4008,5.3942,5.3996,5.4283,5.4476,5.4804,5.4528,5.4784,5.4775,5.4627,5.4379,5.4587,5.4588,5.478,5.474,5.4719,5.4394,5.4313,5.4281,5.4212,5.4145,5.3827,5.3581,5.3669,5.3799,5.3925,5.3691,5.3634,5.3682,5.3767,5.3817,5.381,5.3858,5.3669,5.3706,5.3934,5.3842,5.3786,5.3695,5.3647,5.3996,5.3825,5.3865,5.3802,5.3882,5.4094,5.4664,5.5471,5.6623,5.7423,5.8872,6.0197,5.927,5.612,5.2934,5.2247,5.2211,5.2504,5.3403,5.3947,5.4223,5.4226,5.4083,5.4044,5.4319,5.4142,5.4203,5.4214,5.415,5.4092,5.418,5.4489,5.4131,5.421,5.4393,5.4312,5.4212,5.4271,5.4296,5.4305,5.4353,5.4464,5.4209,5.4348,5.4425,5.4617,5.4596,5.4559,5.4467,5.457,5.4668,5.4685,5.474,5.4787,5.4858,5.4853,5.5109,5.5124,5.5196,5.5262,5.5535,5.5572,5.5553,5.5914,5.5871,5.5978,5.6172,5.5962,5.6034,5.6228,5.6162,5.626,5.6544,5.6246,5.5993,5.5848,5.5904,5.5791,5.542,5.5206,5.5236,5.4964,5.4564,5.4607,5.4397,5.4378,5.4215,5.4246,5.404,5.3871,5.3984,5.4092,5.4021,5.3848,5.391,5.3744,5.3905,5.3784,5.3944,5.3746,5.3811,5.3898,5.3789,5.3809,5.3747,5.3712,5.389,5.3736,5.3807,5.389,5.3829,5.3889,5.384,5.3905,5.3818,5.3833,5.3983,5.3945,5.3801,5.383,5.3792,5.3762,5.3772,5.3689,5.3744,5.3752,5.393,5.3824,5.3815,5.3693,5.3714,5.3743,5.3727,5.3789,5.3517,5.3602,5.3805,5.3804,5.3611,5.3634,5.3612,5.3785,5.3723,5.3621,5.3758,5.3891,5.4006,5.4133,5.4214,5.4264,5.4176,5.4135,5.4296,5.4336,5.4316,5.4406,5.4053,5.4321,5.4243,5.3927,5.3911,5.3898,5.3744,5.3739,5.3698,5.3383,5.3471,5.3656,5.3298,5.3423,5.3342,5.3391,5.3541,5.3351,5.3341,5.3412,5.3288,5.3454,5.3446,5.3465,5.3412,5.3365,5.3314,5.3457,5.3503,5.329,5.3369,5.3484,5.4028,5.4329,5.5261,5.6633,5.8118,5.9643,5.9587,5.814,5.4803,5.2019,5.1609,5.1778,5.2332,5.297,5.3734,5.3895,5.3834,5.3725,5.3669,5.357,5.3887,5.3696,5.388,5.3889,5.3926,5.3836,5.3829,5.3929,5.402,5.3891,5.3932,5.3898,5.3971,5.4067,5.3901,5.4005,5.4128,5.4047,5.3976,5.4213,5.4218,5.4172,5.413,5.4435,5.4405,5.4443,5.4397,5.4615,5.4661,5.4426,5.4723,5.5021,5.4983,5.5049,5.5023,5.514,5.5217,5.5322,5.5354,5.5485,5.5824,5.5851,5.5761,5.5874,5.5921,5.5987,5.5996,5.6058,5.5874,5.5854,5.5779,5.5606,5.5477,5.5226,5.4897,5.4676,5.4668,5.457,5.4214,5.4129,5.4021,5.405,5.3901,5.3839,5.368,5.3809,5.3924,5.3748,5.3678,5.3588,5.3653,5.3696,5.3717,5.3768,5.3668,5.3634,5.3673,5.3695,5.365,5.3537,5.3658,5.3587,5.3946,5.375,5.3741,5.3652,5.3746,5.3881,5.3695,5.3629,5.3576,5.3707,5.3793,5.3687,5.3727,5.3702,5.3761,5.3708,5.373,5.3661,5.3497,5.3594,5.3837,5.3614,5.3598,5.3489,5.3516,5.3605,5.3599,5.3474,5.3649,5.3567,5.3493,5.35,5.3465,5.3361,5.3491,5.3496,5.3524,5.3701,5.3651,5.3791,5.4048,5.3829,5.3857,5.3788,5.3858,5.4134,5.4132,5.4009,5.3998,5.4128,5.3952,5.4016,5.3873,5.362,5.3534,5.3353,5.3227,5.303,5.2957,5.318,5.3125,5.3253,5.307,5.3089,5.3108,5.3093,5.3217,5.3067,5.3022,5.3066,5.3231,5.3197,5.2897,5.2957,5.3012,5.3222,5.3113,5.3114,5.2959,5.3041,5.3357,5.3785,5.442,5.5766,5.7086,5.8645,5.9293,5.7509,5.4354,5.1894,5.1368,5.1273,5.1927,5.245,5.3146,5.3379,5.3532,5.3578,5.3387,5.339,5.3319,5.3417,5.342,5.3283,5.3589,5.3463,5.3362,5.3545,5.3594,5.3571,5.3496,5.3678,5.3593,5.3754,5.344,5.367,5.363,5.3888,5.3581,5.3802,5.3817,5.376,5.3867,5.3985,5.4,5.3919,5.4042,5.4135,5.4126,5.4096,5.4257,5.442,5.4452,5.4532,5.4605,5.4553,5.487,5.5031,5.4941,5.5279,5.5181,5.5227,5.5375,5.5485,5.5437,5.5558,5.5672,5.5688,5.5498,5.5429,5.5243,5.5282,5.5022,5.4835,5.4734,5.4415,5.4129,5.4057,5.4099,5.3511,5.3624,5.3453,5.3615,5.3526,5.3358,5.3139,5.3453,5.3318,5.341,5.3287,5.3236,5.3241,5.3338,5.331,5.3323,5.3209,5.3266,5.3303,5.3162,5.3147,5.3293,5.3283,5.3254,5.3345,5.3187,5.3379,5.3471,5.3189,5.3279,5.3361,5.3272,5.3316,5.3476,5.3442,5.3412,5.3244,5.3231,5.3284,5.3373,5.3447,5.3457,5.3183,5.3279,5.3367,5.3215,5.3155,5.317,5.3353,5.3335,5.3403,5.3384,5.3541,5.3637,5.3911,5.3747,5.3714,5.3627,5.3587,5.3862,5.4014,5.3967,5.3943,5.3952,5.3922,5.3713,5.375,5.3279,5.3489,5.3267,5.3051,5.3085,5.2942,5.2918,5.305,5.3054,5.2951,5.2955,5.2841,5.2965,5.2959,5.3029,5.3019,5.2943,5.3019,5.3124,5.2991,5.2876,5.2914,5.319,5.3019,5.2974,5.2992,5.279,5.3251,5.3491,5.4135,5.4717,5.5885,5.7442,5.8852,5.9267,5.6457,5.3471,5.1915,5.1876,5.1718,5.1938,5.2293,5.3164,5.3482,5.3529,5.35,5.3398,5.3573,5.3635,5.343,5.3319,5.3599,5.3377,5.3565,5.3863,5.3637,5.3485,5.3609,5.377,5.3783,5.3494,5.3711,5.363,5.3855,5.3985,5.3832,5.3872,5.3931,5.4033,5.3817,5.4158,5.4122,5.3934,5.4164,5.437,5.4346,5.429,5.4432,5.4489,5.4773,5.4689,5.4719,5.4757,5.4973,5.5313,5.5207,5.5427,5.5291,5.5455,5.5621,5.5677,5.5661,5.5714,5.5884,5.5888,5.5783,5.5631,5.5551,5.5419,5.5244,5.5209,5.4878,5.4674,5.4564,5.4209,5.419,5.4068,5.386,5.3818,5.377,5.3725,5.3705,5.368,5.3721,5.3659,5.3667,5.3605,5.3712,5.3624,5.3572,5.3599,5.3673,5.3532,5.3619,5.374,5.3617,5.3676,5.3639,5.372,5.3707,5.367,5.3702,5.361,5.3735,5.3815,5.3817,5.3808,5.3736,5.3711,5.3692,5.3757,5.3962,5.3819,5.382,5.3798,5.3779,5.3907,5.3934,5.3948,5.4251,5.4457,5.4621,5.446,5.4564,5.4575,5.4707,5.4677,5.4583,5.4779,5.4632,5.4496,5.4444,5.4093,5.3815,5.3922,5.3766,5.3729,5.3502,5.3402,5.3703,5.3549,5.3436,5.3507,5.3459,5.3524,5.3612,5.3485,5.3425,5.3471,5.3387,5.3586,5.3522,5.3402,5.3403,5.3477,5.3574,5.3608,5.3625,5.3593,5.3702,5.4101,5.4913,5.6243,5.7469,5.9091,5.9737,5.9593,5.6701,5.3193,5.2185,5.2109,5.2363,5.2773,5.3552,5.4002,5.4273,5.3942,5.4007,5.3787,5.395,5.4029,5.4048,5.411,5.4098,5.4142,5.4209,5.4363,5.4094,5.4061,5.4195,5.4252,5.4355,5.4463,5.4235,5.4225,5.4329,5.4582,5.4455,5.4565,5.4521,5.4538,5.4512,5.4533,5.4684,5.4789,5.4694,5.4773,5.4996,5.4911,5.5151,5.5243,5.5142,5.5411,5.5542,5.5461,5.5544,5.5791,5.5999,5.5962,5.6113,5.6166,5.6092,5.6285,5.6292,5.6498,5.6325,5.6311,5.6476,5.6236,5.5893,5.5825,5.5806,5.5438,5.5397,5.5046,5.4859,5.4787,5.4678,5.4432,5.4484,5.424,5.414,5.4395,5.4232,5.4127,5.4133,5.4108,5.4096,5.4062,5.3999,5.3875,5.3913,5.4266,5.406,5.4021,5.4013,5.4185,5.4299,5.3994,5.4106,5.405,5.4189,5.412,5.4393,5.4164,5.4239,5.4188,5.4173,5.4159,5.4073,5.4164,5.4202,5.4353,5.4252,5.4298,5.416,5.3987,5.4189,5.4051,5.4375,5.4121,5.4199,5.4218,5.4106,5.4048,5.438,5.4485,5.4928,5.5046,5.4998,5.5191,5.4905,5.4957,5.4699,5.5075,5.4806,5.5066,5.4905,5.4919,5.4702,5.4398,5.4222,5.4297,5.4134,5.4074,5.4002,5.3884,5.3998,5.3938,5.3933,5.3824,5.3734,5.3962,5.3991,5.3943,5.385,5.394,5.3857,5.3966,5.3878,5.4047,5.3758,5.3835,5.3958,5.4023,5.412,5.4146,5.4421,5.5374,5.6396,5.7013,5.8388,6.0037,6.0206,5.758,5.4389,5.2356,5.2319,5.2631,5.3074,5.402,5.4474,5.4418,5.4462,5.4458,5.4334,5.4332,5.4455,5.4449,5.4488,5.4487,5.4467,5.4503,5.4634,5.4571,5.4608,5.4538,5.465,5.4741,5.4824,5.4736,5.4639,5.4791,5.4804,5.4833,5.4858,5.4807,5.4801,5.5064,5.4983,5.5106,5.4967,5.4865,5.5152,5.5271,5.5209,5.5355,5.5495,5.5427,5.5528,5.5799,5.5767,5.595,5.5993,5.6155,5.6257,5.6195,5.6354,5.6496,5.6643,5.6579,5.6656,5.6507,5.6721,5.6439,5.6497,5.6272,5.6039,5.5961,5.5936,5.5673,5.5328,5.4888,5.5015,5.5004,5.4768,5.4628,5.4537,5.4415,5.4393,5.435,5.4392,5.4354,5.4139,5.4317,5.4208,5.4329,5.4201,5.4166,5.4217,5.4274,5.4301,5.4316,5.4172,5.422,5.413,5.4268,5.4297,5.4254,5.4225,5.434,5.4452,5.4285,5.4276,5.4238,5.4295,5.4252,5.4253,5.4266,5.4253,5.4454,5.4206,5.4131,5.4157,5.4302,5.4153,5.4322,5.4246,5.409,5.4175,5.4237,5.4113,5.4347,5.4674,5.4822,5.4986,5.5041,5.5007,5.483,5.4776,5.4985,5.4897,5.5026,5.5021,5.5013,5.5048,5.4581,5.4365,5.4195,5.3958,5.4046,5.3899,5.3931,5.3843,5.3902,5.4047,5.3882,5.3972,5.3606,5.3773,5.3795,5.3872,5.3758,5.3771,5.3671,5.3829,5.3709,5.3929,5.376,5.373,5.3779,5.3845,5.3803,5.3991,5.4434,5.4655,5.5493,5.691,5.8182,5.9739,5.9903,5.7561,5.4219,5.1996,5.1959,5.2293,5.2921,5.3689,5.409,5.4114,5.4114,5.411,5.4167,5.4066,5.4137,5.4107,5.4012,5.412,5.4035,5.4134,5.4164,5.41,5.4444,5.4392,5.4073,5.4237,5.425,5.4436,5.4266,5.4411,5.4451,5.4445,5.4579,5.4472,5.4414,5.4537,5.4466,5.453,5.472,5.458,5.4653,5.4818,5.4864,5.5016,5.4864,5.5072,5.5254,5.5291,5.5411,5.5597,5.559,5.564,5.5786,5.5785,5.5942,5.5986,5.6249,5.6047,5.6238,5.6149,5.6255,5.6055,5.6068,5.5858,5.5784,5.553,5.5272,5.5114,5.5097,5.4749,5.4375,5.451,5.4471,5.4174,5.3926,5.3902,5.4135,5.3906,5.386,5.3835,5.4022,5.3966,5.3727,5.3901,5.3797,5.3851,5.362,5.3746,5.3885,5.3758,5.3805,5.372,5.383,5.39,5.3763,5.3728,5.3698,5.3909,5.3923,5.4049,5.3726,5.3781,5.3768,5.3743,5.384,5.3715,5.3907,5.3781,5.3833,5.3782,5.369,5.3652,5.3765,5.3798,5.3957,5.3702,5.3631,5.3604,5.3911,5.3831,5.3758,5.3531,5.3534,5.3685,5.3627,5.3515,5.4072,5.4354,5.4439,5.4683,5.4319,5.4415,5.4341,5.432,5.4347,5.4583,5.4571,5.4456,5.436,5.4114,5.3978,5.3678,5.3551,5.3656,5.3444,5.3359,5.3288,5.3266,5.346,5.3379,5.3267,5.326,5.3324,5.3332,5.3052,5.3181,5.312,5.3295,5.3276,5.3286,5.3206,5.3325,5.3366,5.3093,5.3151,5.3487,5.3356,5.3487,5.4044,5.5073,5.6133,5.7736,5.9124,5.9552,5.7072,5.3704,5.1392,5.1268,5.1639,5.2415,5.3398,5.3485,5.3799,5.3626,5.3662,5.376,5.3684,5.3524,5.3639,5.3558,5.3634,5.3667,5.3598,5.3721,5.3922,5.3713,5.3974,5.3857,5.3841,5.398,5.395,5.4067,5.4069,5.3918,5.4069,5.3996,5.3903,5.4019,5.3932,5.4018,5.3982,5.4106,5.405,5.4234,5.44,5.4484,5.4415,5.446,5.4504,5.4815,5.4861,5.4784,5.4839,5.494,5.512,5.5223,5.5017,5.5455,5.5504,5.5445,5.554,5.5671,5.57,5.5605,5.5719,5.5605,5.5337,5.5053,5.4861,5.4598,5.4817,5.4547,5.4302,5.4015,5.408,5.37,5.3659,5.3478,5.3427,5.336,5.3326,5.3489,5.3353,5.3279,5.3137,5.3188,5.3288,5.3033,5.31,5.2886,5.3231,5.331,5.3066,5.2898,5.3037,5.3295,5.3086,5.3221,5.3096,5.3134,5.325,5.3267,5.3325,5.3122,5.3084,5.3277,5.308,5.3199,5.3178,5.305,5.3136,5.3105,5.3059,5.308,5.3078,5.3089,5.3013,5.3066,5.3052,5.2715,5.2944,5.3079,5.3104,5.3113,5.3466,5.3674,5.371,5.3615,5.3525,5.3427,5.3416,5.339,5.3676,5.3815,5.3689,5.3629,5.3586,5.3261,5.3086,5.2918,5.2891,5.2826,5.267,5.2728,5.2584,5.2554,5.2693,5.2648,5.253,5.2421,5.2577,5.2689,5.2536,5.2535,5.2393,5.2447,5.2415,5.2668,5.2546,5.2559,5.2501,5.247,5.2593,5.2712,5.2517,5.2838,5.3234,5.3755,5.5103,5.6477,5.7797,5.8889,5.7021,5.3832,5.1422,5.1089,5.1041,5.1056,5.1618,5.2459,5.2869,5.2755,5.293,5.2858,5.2796,5.2739,5.2745,5.2884,5.2936,5.2716,5.2763,5.277,5.2882,5.3041,5.2913,5.2787,5.2864,5.2992,5.3205,5.3046,5.2722,5.2975,5.2994,5.3005,5.3071,5.2981,5.3156,5.3292,5.3197,5.3197,5.3266,5.32,5.339,5.3455,5.3495,5.3488,5.3648,5.3835,5.3957,5.3977,5.385,5.411,5.4167,5.4137,5.4614,5.4444,5.4431,5.4581,5.4677,5.4694,5.465,5.4722,5.4639,5.4551,5.4456,5.4048,5.4094,5.3976,5.3989,5.3785,5.35,5.3221,5.3072,5.2872,5.2842,5.2686,5.2613,5.2371,5.2553,5.2439,5.2232,5.228,5.2349,5.2452,5.2477,5.2294,5.226,5.2474,5.2335,5.2213,5.2229,5.2195,5.2214,5.232,5.2564,5.2261,5.2243,5.2144,5.2404,5.2433,5.2303,5.2371,5.2159,5.2446,5.2526,5.2384,5.2036,5.2337,5.2409,5.2433,5.2349,5.2242,5.2394,5.2773,5.2876,5.302,5.2961,5.2994,5.3112,5.3013,5.3066,5.3145,5.3259,5.3168,5.3039,5.2948,5.2547,5.247,5.2236,5.2018,5.197,5.2042,5.2037,5.1998,5.1748,5.2049,5.18,5.1905,5.1882,5.2003,5.2034,5.1965,5.1724,5.1772,5.1999,5.1988,5.1835,5.1818,5.1663,5.1831,5.2165,5.1873,5.1678,5.1794,5.2129,5.2595,5.3125,5.4357,5.5694,5.6965,5.8428,5.6628,5.346,5.1092,5.0572,5.0305,5.048,5.1338,5.1945,5.2271,5.2259,5.2231,5.2251,5.2211,5.2139,5.2311,5.2352,5.2243,5.2134,5.2137,5.2355,5.2341,5.2281,5.2358,5.2328,5.2552,5.245,5.231,5.2437,5.2604,5.2523,5.2781,5.2494,5.244,5.2668,5.2722,5.2869,5.2867,5.2708,5.2866,5.2948,5.3167,5.3172,5.3051,5.3222,5.3403,5.3461,5.3755,5.3634,5.3667,5.3899,5.4056,5.4006,5.4061,5.414,5.4505,5.4479,5.4457,5.4447,5.4424,5.453,5.4289,5.4377,5.4339,5.4035,5.3708,5.3979,5.3549,5.3265,5.3044,5.3139,5.2869,5.2722,5.2657,5.2491,5.2346,5.2556,5.2455,5.2319,5.2279,5.2183,5.2188,5.2303,5.2177,5.2328,5.2378,5.2203,5.2319,5.2174,5.2185,5.2027,5.2516,5.2178,5.2248,5.2376,5.226,5.2266,5.2404,5.2272,5.2282,5.2388,5.2452,5.2404,5.2152,5.254,5.223,5.2515,5.2322,5.2403,5.2247,5.2436,5.2311,5.2291,5.2246,5.2167,5.2381,5.2314,5.2311,5.2374,5.2429,5.262,5.3104,5.3165,5.3033,5.2992,5.2946,5.2947,5.3037,5.2955,5.2947,5.3162,5.3173,5.2863,5.2568,5.2433,5.2379,5.2251,5.2135,5.2373,5.2036,5.2028,5.2062,5.1974,5.2116,5.2016,5.189,5.1742,5.2025,5.2022,5.1996,5.1984,5.2051,5.1976,5.1927,5.1816,5.1922,5.1939,5.1935,5.218,5.2119,5.2046,5.2537,5.3263,5.4162,5.5428,5.6959,5.8527,5.7424,5.4283,5.1061,5.0333,5.0175,5.0843,5.1392,5.2072,5.2353,5.2415,5.2233,5.2473,5.2288,5.2301,5.2372,5.2445,5.2547,5.2306,5.2621,5.2412,5.2387,5.2339,5.2477,5.2407,5.2512,5.2442,5.2611,5.2483,5.2543,5.2633,5.2836,5.2826,5.2696,5.2648,5.2748,5.2832,5.2914,5.2602,5.279,5.2918,5.308,5.3078,5.3243,5.3237,5.3214,5.3431,5.35,5.3557,5.377,5.3872,5.3961,5.3932,5.4294,5.4294,5.4265,5.4293,5.4616,5.464,5.4506,5.4429,5.4596,5.4786,5.4419,5.4271,5.4189,5.3849,5.3778,5.3578,5.3324,5.3158,5.2884,5.2965,5.2814,5.2739,5.2489,5.2441,5.2612,5.2432,5.2552,5.2212,5.2142,5.2488,5.2457,5.2361,5.2325,5.2149,5.2432,5.2297,5.232,5.2504,5.2336,5.2297,5.2323,5.2338,5.2338,5.2383,5.2434,5.247,5.2438,5.2372,5.2373,5.2438,5.2527,5.2356,5.2394,5.2321,5.2435,5.2511,5.2173,5.2482,5.2285,5.2362,5.2383,5.2295,5.2355,5.2183,5.2353,5.2267,5.2361,5.2584,5.2612,5.3081,5.3154,5.3045,5.2881,5.3132,5.3048,5.2895,5.2854,5.3207,5.3263,5.3164,5.2971,5.2727,5.2545,5.2173,5.2323,5.2119,5.1903,5.2167,5.2066,5.1999,5.2129,5.1967,5.2082,5.1909,5.1942,5.2124,5.2102,5.1919,5.2012,5.1935,5.2106,5.211,5.2061,5.2026,5.1824,5.1912,5.2185,5.2115,5.2331,5.2402,5.2862,5.4134,5.5416,5.6814,5.8417,5.8105,5.4926,5.1597,5.0415,5.0117,5.0534,5.1545,5.2267,5.2484,5.2442,5.2463,5.2415,5.2442,5.2403,5.2542,5.2395,5.2565,5.2707,5.2533,5.2582,5.2649,5.2577,5.2758,5.2734,5.2526,5.2796,5.2855,5.2702,5.268,5.2621,5.2786,5.2737,5.2933,5.2707,5.2922,5.2994,5.3085,5.3184,5.3026,5.3122,5.319,5.3367,5.346,5.3418,5.3426,5.3713,5.3698,5.3778,5.3875,5.3871,5.4071,5.4281,5.4449,5.4462,5.4478,5.4564,5.4676,5.4618,5.4851,5.4829,5.473,5.4721,5.461,5.4486,5.4226,5.4019,5.4006,5.3839,5.3696,5.3219,5.3162,5.3102,5.3053,5.2896,5.2923,5.2666,5.2627,5.2635,5.2518,5.2505,5.2587,5.2531,5.2646,5.265,5.2349,5.2646,5.2627,5.2545,5.2716,5.2684,5.2674,5.2328,5.2497,5.2834,5.2673,5.2547,5.268,5.2716,5.2768,5.2777,5.2448,5.255,5.2731,5.2825,5.2712,5.2549,5.2582,5.2776,5.2804,5.2627,5.2584,5.2636,5.2805,5.2807,5.2565,5.2609,5.2588,5.2699,5.2758,5.2945,5.2607,5.2753,5.2772,5.2746,5.284,5.2732,5.3011,5.2976,5.3147,5.3346,5.3347,5.3318,5.3058,5.3203,5.3525,5.3501,5.3322,5.3165,5.3297,5.3271,5.3094,5.2882,5.2822,5.2697,5.2574,5.2466,5.2528,5.2612,5.2731,5.27,5.2375,5.2458,5.248,5.2532,5.2554,5.268,5.2462,5.2523,5.2689,5.2577,5.2505,5.2484,5.2673,5.2621,5.2756,5.2631,5.2603,5.279,5.2951,5.3678,5.4647,5.5908,5.7588,5.8374,5.911,5.7174,5.3738,5.1199,5.0701,5.1087,5.1762,5.2518,5.269,5.3069,5.2896,5.3006,5.294,5.3204,5.305,5.2856,5.2886,5.289,5.3192,5.3217,5.304,5.3163,5.3049,5.3144,5.3093,5.326,5.3034,5.317,5.3034,5.3104,5.3355,5.3372,5.3207,5.3215,5.3129,5.3306,5.3418,5.3426,5.3353,5.348,5.3567,5.3649,5.3709,5.3705,5.3721,5.4017,5.4029,5.4065,5.433,5.4296,5.4394,5.4575,5.4895,5.48,5.5014,5.5201,5.5054,5.5257,5.5259,5.5219,5.5366,5.5354,5.5292,5.5102,5.4819,5.4844,5.4585,5.4404,5.4178,5.3882,5.3715,5.3484,5.3587,5.3366,5.313,5.3104,5.3245,5.3213,5.2969,5.2917,5.2949,5.3145,5.2883,5.2794,5.2856,5.2785,5.3005,5.2914,5.2989,5.2814,5.2801,5.2998,5.3017,5.2891,5.3052,5.2974,5.3215,5.3086,5.3041,5.2867,5.291,5.2909,5.3056,5.2959,5.2787,5.2977,5.2927,5.2944,5.261,5.2733,5.2998,5.3033,5.2887,5.2826,5.301,5.312,5.3084,5.3658,5.348,5.3491,5.3601,5.3599,5.3591,5.3543,5.3845,5.3697,5.3546,5.3639,5.3733,5.3545,5.332,5.3405,5.33,5.2942,5.2901,5.2761,5.2983,5.2781,5.2873,5.2811,5.2974,5.2833,5.2946,5.2785,5.2816,5.2714,5.2705,5.2821,5.2843,5.2861,5.2869,5.2908,5.2851,5.281,5.2796,5.2753,5.2902,5.3072,5.3392,5.3984,5.485,5.6212,5.7776,5.9122,5.9428,5.7152,5.4151,5.1922,5.155,5.1548,5.1753,5.2546,5.3259,5.3435,5.3379,5.3321,5.3107,5.3389,5.3374,5.339,5.3267,5.3308,5.3417,5.3332,5.3279,5.3324,5.3399,5.3921,5.4724,5.4965,5.4226,5.3324,5.3016,5.3632,5.4077,5.3812,5.3449,5.3388,5.3176,5.3498,5.3573,5.3494,5.3728,5.392,5.4005,5.4027,5.3884,5.4104,5.4154,5.4369,5.4315,5.4564,5.4575,5.4833,5.5049,5.5058,5.4829,5.5284,5.5297,5.5426,5.5281,5.542,5.5525,5.5604,5.5689,5.5414,5.5465,5.5051,5.4967,5.4831,5.4699,5.4451,5.4345,5.4275,5.4011,5.3894,5.3751,5.3517,5.3477,5.3421,5.347,5.3366,5.3128,5.332,5.3348,5.3291,5.3329,5.3084,5.3202,5.3316,5.3176,5.3212,5.3161,5.3154,5.3275,5.3259,5.3133,5.3167,5.3316,5.3453,5.34,5.341,5.3554,5.3409,5.3501,5.3598,5.3624,5.3765,5.3828,5.3979,5.4065,5.4296,5.4201,5.4451,5.4494,5.4167,5.4254,5.4296,5.4342,5.4182,5.402,5.4009,5.3643,5.3525,5.3431,5.342,5.3432,5.3276,5.3313,5.3281,5.3427,5.3341,5.3265,5.3227,5.329,5.3382,5.3443,5.3153,5.3321,5.3449,5.346,5.346,5.3356,5.344,5.3442,5.3465,5.3521,5.3541,5.3649,5.3794,5.4494,5.5383,5.6532,5.7878,5.9571,6.0068,5.7074,5.4013,5.252,5.1982,5.2175,5.2685,5.3468,5.3916,5.411,5.4356,5.4088,5.4203,5.4501,5.4367,5.4244,5.4047,5.4132,5.4019,5.3987,5.4099,5.414,5.4152,5.4136,5.41,5.444,5.4401,5.449,5.4249,5.4424,5.4483,5.4517,5.4472,5.4385,5.4443,5.4473,5.4602,5.472,5.4822,5.4823,5.4885,5.4897,5.511,5.5181,5.5199,5.543,5.5624,5.5478,5.5616,5.5688,5.5885,5.6047,5.6015,5.6097,5.6195,5.6258,5.6343,5.6509,5.6465,5.65,5.6344,5.6302,5.6329,5.6173,5.5946,5.5812,5.5671,5.5399,5.5117,5.501,5.4799,5.4724,5.4687,5.4542,5.4475,5.4419,5.4431,5.4362,5.4482,5.443,5.4318,5.4394,5.4242,5.432,5.478,5.4281,5.4101,5.418,5.4382,5.4299,5.4251,5.4525,5.4621,5.4598,5.4362,5.4186,5.4372,5.4284,5.4317,5.427,5.426,5.4586,5.4615,5.4766,5.4806,5.5008,5.5213,5.533,5.5372,5.5346,5.5377,5.5108,5.535,5.5569,5.5243,5.5175,5.5007,5.488,5.4704,5.4514,5.4337,5.4351,5.4395,5.4378,5.4178,5.4235,5.4309,5.4323,5.4426,5.4336,5.4197,5.4197,5.4363,5.4258,5.4259,5.4224,5.4294,5.4342,5.426,5.4215,5.4227,5.4311,5.4318,5.4589,5.486,5.5502,5.6765,5.8213,5.9802,6.112,5.9637,5.6086,5.322,5.2675,5.2728,5.314,5.3997,5.462,5.485,5.4678,5.4663,5.4722,5.4867,5.4757,5.4766,5.4676,5.4785,5.4887,5.4984,5.4726,5.468,5.4837,5.4849,5.4951,5.5111,5.5022,5.52,5.5124,5.5275,5.5195,5.5073,5.5225,5.5264,5.5321,5.5418,5.5472,5.5461,5.5522,5.5594,5.5579,5.5628,5.5667,5.5902,5.6062,5.6149,5.6247,5.6344,5.6542,5.6508,5.6636,5.6646,5.6668,5.696,5.7118,5.7227,5.7296,5.714,5.7395,5.7451,5.737,5.7307,5.7137,5.6948,5.7113,5.6963,5.6591,5.6446,5.6261,5.6073,5.6135,5.6126,5.5613,5.5505,5.559,5.5501,5.5238,5.5184,5.5207,5.5367,5.5354,5.531,5.5153,5.524,5.5272,5.536,5.5428,5.5333,5.5281,5.5357,5.541,5.5444,5.5281,5.5358,5.5488,5.5327,5.5531,5.567,5.5638,5.5913,5.6079,5.6197,5.6229,5.6217,5.6382,5.6419,5.6334,5.6152,5.629,5.6422,5.6365,5.6191,5.6129,5.5911,5.5673,5.5669,5.5552,5.5518,5.554,5.529,5.5315,5.5461,5.5275,5.5144,5.5134,5.5121,5.5234,5.5172,5.5134,5.5117,5.5212,5.5255,5.5246,5.5293,5.5188,5.507,5.5206,5.52,5.5197,5.5263,5.5715,5.6198,5.7261,5.869,6.0184,6.1641,6.0983,5.7646,5.4337,5.3622,5.3533,5.4007,5.4655,5.5349,5.5613,5.5606,5.5625,5.5603,5.559,5.5497,5.5625,5.5588,5.5699,5.5597,5.5677,5.5694,5.5865,5.5772,5.5695,5.5808,5.5933,5.5789,5.6043,5.5914,5.58,5.5857,5.6143,5.6127,5.5955,5.6067,5.6059,5.6167,5.6196,5.6197,5.6297,5.6307,5.6417,5.6495,5.6659,5.6669,5.6794,5.6932,5.6962,5.7105,5.7134,5.716,5.7278,5.7346,5.7499,5.75,5.7552,5.7624,5.7728,5.779,5.7777,5.7726,5.7697,5.7643,5.7509,5.725,5.7132,5.6938,5.687,5.6645,5.6363,5.6175,5.6136,5.6146,5.6034,5.59,5.5814,5.5877,5.5983,5.5909,5.5557,5.5747,5.5816,5.5789,5.5722,5.5505,5.5441,5.5415,5.5555,5.5624,5.5412,5.5596,5.5545,5.5548,5.5634,5.5722,5.5951,5.5728,5.5993,5.6108,5.6096,5.6299,5.6343,5.6459,5.6444,5.6375,5.6204,5.6418,5.6394,5.6624,5.6476,5.6188,5.5937,5.5982,5.5808,5.5551,5.5419,5.5339,5.5349,5.5368,5.5211,5.526,5.5121,5.531,5.5075,5.5089,5.485,5.4972,5.5086,5.504,5.519,5.5168,5.4996,5.5017,5.5147,5.5129,5.5177,5.5071,5.5079,5.5026,5.5277,5.5418,5.6117,5.7448,5.8844,6.0518,6.2009,6.0268,5.6696,5.385,5.3252,5.3293,5.3866,5.4763,5.5148,5.5347,5.5384,5.5327,5.5223,5.5313,5.5234,5.5172,5.5253,5.5325,5.5355,5.531,5.525,5.5215,5.5428,5.5486,5.5495,5.5556,5.5515,5.5385,5.5515,5.5646,5.5611,5.5675,5.5587,5.5775,5.5813,5.5691,5.5671,5.5625,5.5732,5.5892,5.5785,5.5782,5.5978,5.6123,5.6076,5.6365,5.6362,5.6503,5.6615,5.6831,5.6768,5.6879,5.6846,5.7086,5.7156,5.7201,5.7217,5.7176,5.7263,5.7461,5.7426,5.716,5.7064,5.7052,5.6817,5.6687,5.6506,5.6222,5.5984,5.5834,5.5868,5.5488,5.5429,5.5329,5.5424,5.5403,5.5173,5.5127,5.5123,5.509,5.4985,5.5164,5.5146,5.5074,5.5111,5.5011,5.5073,5.5171,5.5168,5.5261,5.5257,5.5114,5.5063,5.5118,5.5206,5.5345,5.5396,5.5089,5.5142,5.5137,5.5234,5.4875,5.4875,5.5095,5.5305,5.505,5.5082,5.5049,5.5078,5.4997,5.4869,5.5293,5.5358,5.548,5.574,5.5842,5.5768,5.565,5.5741,5.5747,5.586,5.5924,5.5964,5.5607,5.558,5.5466,5.5216,5.499,5.4853,5.4781,5.4748,5.4453,5.4529,5.4204,5.4422,5.4505,5.4452,5.438,5.433,5.4311,5.4168,5.4312,5.4369,5.4263,5.4164,5.402,5.4151,5.4198,5.4217,5.4154,5.3993,5.411,5.4056,5.4306,5.4732,5.5804,5.6978,5.8429,5.9905,6.0678,5.8053,5.4613,5.2332,5.1899,5.2314,5.3193,5.4017,5.4119,5.4247,5.4407,5.4462,5.4363,5.4251,5.4374,5.4463,5.4243,5.4291,5.4372,5.4261,5.4383,5.4433,5.4459,5.462,5.4521,5.4457,5.4579,5.4513,5.462,5.4683,5.4435,5.4698,5.4697,5.4704,5.4591,5.4448,5.4699,5.4672,5.4661,5.4714,5.4965,5.4971,5.4809,5.4997,5.5307,5.5287,5.5281,5.5399,5.5759,5.5618,5.5682,5.5985,5.592,5.596,5.6215,5.6324,5.6388,5.641,5.6425,5.6372,5.646,5.6178,5.6176,5.6175,5.6148,5.5838,5.5612,5.5518,5.5283,5.5127,5.4651,5.4726,5.4644,5.4608,5.4216,5.4393,5.4309,5.4425,5.4274,5.4278,5.4113,5.4238,5.4337,5.4125,5.4097,5.4258,5.4252,5.4095,5.4124,5.412,5.4323,5.4302,5.4249,5.4357,5.4311,5.4163,5.4078,5.4187,5.423,5.4301,5.4352,5.4222,5.4196,5.4145,5.43,5.4291,5.4184,5.416,5.4247,5.4332,5.4113,5.4263,5.4109,5.4029,5.418,5.432,5.4518,5.4777,5.4874,5.5041,5.5055,5.5095,5.4858,5.4839,5.499,5.4892,5.5006,5.5162,5.5081,5.4694,5.4523,5.412,5.413,5.4169,5.396,5.395,5.3992,5.3876,5.3926,5.3904,5.4001,5.3814,5.3996,5.3746,5.3741,5.3768,5.3721,5.3693,5.3926,5.3941,5.3845,5.3834,5.3926,5.3641,5.405,5.4002,5.3993,5.4165,5.4784,5.5287,5.6359,5.7458,5.8923,6.0519,5.9227,5.5659,5.259,5.1991,5.2213,5.2709,5.3622,5.4165,5.4218,5.3957,5.419,5.4395,5.4242,5.4087,5.4146,5.4294,5.4266,5.4156,5.4182,5.4339,5.425,5.4353,5.426,5.4202,5.4267,5.4186,5.42,5.4438,5.4395,5.4498,5.4276,5.4454,5.4477,5.4375,5.435,5.4726,5.4654,5.4564,5.4818,5.4581,5.4767,5.4801,5.4884,5.498,5.495,5.5012,5.5338,5.5336,5.5378,5.5415,5.5529,5.5658,5.5728,5.5803,5.5775,5.6086,5.6166,5.6185,5.5915,5.6064,5.6082,5.6138,5.5864,5.573,5.5394,5.5363,5.5207,5.5044,5.4627,5.4419,5.4359,5.4402,5.4255,5.4018,5.3875,5.3892,5.4014,5.3873,5.3789,5.3858,5.3687,5.3652,5.3652,5.3832,5.393,5.3736,5.378,5.3675,5.3821,5.3749,5.3517,5.3841,5.3756,5.372,5.3834,5.3728,5.3696,5.3955,5.3873,5.3647,5.3636,5.363,5.3789,5.3652,5.3751,5.3496,5.3495,5.3744,5.3592,5.3501,5.3658,5.3772,5.4238,5.4412,5.4313,5.4316,5.4204,5.4199,5.4274,5.4342,5.4338,5.4398,5.4385,5.4311,5.404,5.3832,5.3647,5.3429,5.3413,5.3261,5.3346,5.3098,5.3046,5.3198,5.3226,5.3105,5.2843,5.2965,5.3155,5.2978
