-2.5452,-2.5562,-2.5565,-2.5483,-2.5597,-2.5615,-2.5621,-2.5588,-2.5575,-2.5607,-2.564,-2.5593,-2.5553,-2.551,-2.5599,-2.5597,-2.5527,-2.5542,-2.555,-2.5597,-2.5591,-2.5638,-2.5677,-2.5646,-2.5646,-2.5666,-2.5633,-2.5528,-2.564,-2.5688,-2.566,-2.559,-2.548,-2.5415,-2.5371,-2.532,-2.53,-2.5148,-2.5148,-2.506,-2.494,-2.4948,-2.513,-2.5295,-2.525,-2.534,-2.5458,-2.566,-2.5645,-2.5658,-2.5727,-2.571,-2.5772,-2.5795,-2.5814,-2.5801,-2.5675,-2.5775,-2.5843,-2.5707,-2.5775,-2.5761,-2.5973,-2.5988,-2.5558,-2.4291,-2.2252,-2.0365,-1.8807,-1.8857,-1.9759,-2.3518,-2.8301,-2.9969,-2.8547,-2.7572,-2.7208,-2.6576,-2.6173,-2.5679,-2.5441,-2.5227,-2.5293,-2.5052,-2.5114,-2.494,-2.509,-2.4768,-2.4751,-2.4618,-2.4546,-2.4391,-2.43,-2.4315,-2.419,-2.4273,-2.4341,-2.4184,-2.4166,-2.4026,-2.4039,-2.3922,-2.4029,-2.3896,-2.3769,-2.3711,-2.3785,-2.3673,-2.3623,-2.3507,-2.3463,-2.3417,-2.3355,-2.3229,-2.3135,-2.3054,-2.2896,-2.273,-2.2601,-2.2452,-2.2291,-2.2134,-2.1829,-2.1634,-2.157,-2.1443,-2.1235,-2.108,-2.0916,-2.0901,-2.0773,-2.0693,-2.06,-2.0617,-2.0548,-2.0553,-2.0508,-2.0493,-2.0581,-2.0831,-2.1087,-2.1412,-2.178,-2.2201,-2.2657,-2.3006,-2.3465,-2.3752,-2.3982,-2.4484,-2.4477,-2.462,-2.4852,-2.5102,-2.5077,-2.521,-2.5238,-2.5372,-2.5268,-2.5391,-2.5389,-2.5497,-2.5361,-2.5378,-2.5438,-2.5416,-2.5319,-2.5352,-2.5429,-2.5266,-2.5191,-2.5148,-2.5117,-2.5159,-2.5087,-2.5088,-2.5037,-2.4994,-2.4949,-2.4807,-2.4853,-2.4982,-2.4883,-2.4829,-2.4783,-2.48,-2.484,-2.4771,-2.4873,-2.4894,-2.4912,-2.4889,-2.4892,-2.4877,-2.4771,-2.4977,-2.5007,-2.503,-2.498,-2.4947,-2.4961,-2.4938,-2.4927,-2.5029,-2.4983,-2.4939,-2.4951,-2.4898,-2.4915,-2.5005,-2.5032,-2.5026,-2.5019,-2.503,-2.5084,-2.5015,-2.5005,-2.4969,-2.4867,-2.475,-2.4537,-2.4601,-2.4587,-2.4562,-2.4409,-2.435,-2.4159,-2.4078,-2.4305,-2.4428,-2.4561,-2.4708,-2.4728,-2.4633,-2.4827,-2.4973,-2.5026,-2.5042,-2.5175,-2.5123,-2.5122,-2.5084,-2.5221,-2.5159,-2.5139,-2.5161,-2.5195,-2.5168,-2.5136,-2.5128,-2.5299,-2.5182,-2.493,-2.4918,-2.1648,-1.9466,-1.7684,-1.7638,-2.058,-2.4982,-2.9761,-2.9251,-2.8175,-2.7379,-2.6658,-2.5918,-2.5469,-2.5222,-2.504,-2.4883,-2.4898,-2.4858,-2.4989,-2.4933,-2.4816,-2.4761,-2.4812,-2.4683,-2.475,-2.4707,-2.4625,-2.4586,-2.4554,-2.4567,-2.4538,-2.4439,-2.4437,-2.4461,-2.4431,-2.4352,-2.4248,-2.4307,-2.4229,-2.4191,-2.4096,-2.4047,-2.4022,-2.393,-2.3844,-2.3703,-2.3529,-2.3526,-2.3493,-2.3256,-2.3109,-2.3024,-2.2776,-2.2631,-2.2398,-2.2178,-2.201,-2.1716,-2.1596,-2.1493,-2.1299,-2.1049,-2.0915,-2.0776,-2.0616,-2.0525,-2.0373,-2.0311,-2.0381,-2.0382,-2.0492,-2.0766,-2.0949,-2.1458,-2.189,-2.2382,-2.2939,-2.3417,-2.3827,-2.4014,-2.4379,-2.4694,-2.4935,-2.5213,-2.5382,-2.5469,-2.5523,-2.5622,-2.5709,-2.5812,-2.587,-2.5922,-2.599,-2.6072,-2.6046,-2.6047,-2.6047,-2.6078,-2.6024,-2.6057,-2.6037,-2.6038,-2.5973,-2.6094,-2.5864,-2.5832,-2.5972,-2.5879,-2.5833,-2.5809,-2.5685,-2.5718,-2.5712,-2.5657,-2.564,-2.5571,-2.5597,-2.5628,-2.5555,-2.5543,-2.5519,-2.5552,-2.5554,-2.5488,-2.5535,-2.5567,-2.5543,-2.5538,-2.5666,-2.5638,-2.5589,-2.5655,-2.5654,-2.5669,-2.5621,-2.5568,-2.5619,-2.5599,-2.5633,-2.5661,-2.5677,-2.5652,-2.5654,-2.5606,-2.5599,-2.5653,-2.5594,-2.5654,-2.5675,-2.564,-2.5623,-2.5637,-2.5631,-2.563,-2.5611,-2.5592,-2.5598,-2.5409,-2.5225,-2.5169,-2.5107,-2.5142,-2.5209,-2.5151,-2.4838,-2.4582,-2.4438,-2.4537,-2.4844,-2.501,-2.507,-2.5153,-2.531,-2.5474,-2.5532,-2.5655,-2.5692,-2.5709,-2.5685,-2.5678,-2.5672,-2.573,-2.5686,-2.5683,-2.5694,-2.562,-2.5658,-2.5641,-2.5668,-2.5727,-2.5811,-2.576,-2.5232,-2.3513,-2.134,-1.9234,-1.754,-1.8118,-2.1568,-2.6618,-2.9428,-3.0373,-2.9154,-2.7977,-2.7253,-2.6336,-2.6031,-2.57,-2.5513,-2.5349,-2.5366,-2.5264,-2.5274,-2.5215,-2.5234,-2.5151,-2.5125,-2.5062,-2.5068,-2.4978,-2.5012,-2.4919,-2.4981,-2.487,-2.4933,-2.4875,-2.4856,-2.4741,-2.48,-2.464,-2.4686,-2.46,-2.4585,-2.4559,-2.4468,-2.4341,-2.4248,-2.419,-2.4098,-2.4004,-2.3898,-2.3814,-2.3706,-2.3559,-2.343,-2.3256,-2.3087,-2.2899,-2.2637,-2.249,-2.2266,-2.1993,-2.1824,-2.1585,-2.1356,-2.122,-2.1036,-2.0869,-2.0781,-2.066,-2.0538,-2.0484,-2.0453,-2.0401,-2.0496,-2.0667,-2.0887,-2.1232,-2.1693,-2.2178,-2.2652,-2.3165,-2.3597,-2.3966,-2.4396,-2.4742,-2.4976,-2.5241,-2.5399,-2.5508,-2.5603,-2.5638,-2.57,-2.575,-2.5818,-2.5868,-2.5866,-2.5966,-2.591,-2.596,-2.5951,-2.5941,-2.5922,-2.5899,-2.5901,-2.5904,-2.5922,-2.5904,-2.5856,-2.5868,-2.5858,-2.5866,-2.5833,-2.5802,-2.5726,-2.5733,-2.5713,-2.57,-2.5644,-2.5617,-2.5637,-2.556,-2.5549,-2.556,-2.5539,-2.5548,-2.5513,-2.5562,-2.5551,-2.5541,-2.5562,-2.5549,-2.5533,-2.5562,-2.5536,-2.5585,-2.5604,-2.5629,-2.5602,-2.567,-2.562,-2.5639,-2.561,-2.5654,-2.5666,-2.5643,-2.5671,-2.5655,-2.567,-2.5646,-2.5665,-2.5622,-2.5615,-2.5672,-2.567,-2.5678,-2.5657,-2.5644,-2.5665,-2.5665,-2.5648,-2.567,-2.5618,-2.562,-2.5576,-2.562,-2.5614,-2.5623,-2.5597,-2.5594,-2.5639,-2.5604,-2.5624,-2.5651,-2.564,-2.5615,-2.5627,-2.5661,-2.562,-2.5625,-2.5604,-2.5582,-2.5638,-2.5658,-2.5644,-2.5667,-2.5653,-2.5661,-2.5653,-2.5643,-2.5669,-2.5658,-2.5685,-2.5651,-2.5634,-2.5633,-2.561,-2.5463,-2.5335,-2.5399,-2.5419,-2.537,-2.5252,-2.5152,-2.4968,-2.4792,-2.4804,-2.5146,-2.5222,-2.5311,-2.531,-2.54,-2.5559,-2.5547,-2.5678,-2.5643,-2.5795,-2.5768,-2.5771,-2.5768,-2.5763,-2.5784,-2.5728,-2.5713,-2.5757,-2.5769,-2.5739,-2.5803,-2.59,-2.5839,-2.5202,-2.3497,-2.1364,-2.0251,-1.8258,-1.7957,-1.9928,-2.437,-2.965,-3.0275,-2.8977,-2.7986,-2.7249,-2.6399,-2.6019,-2.5739,-2.5611,-2.5522,-2.5547,-2.5409,-2.5474,-2.5343,-2.5382,-2.5322,-2.5365,-2.529,-2.5282,-2.5165,-2.5162,-2.512,-2.514,-2.5129,-2.5093,-2.506,-2.5073,-2.5004,-2.5004,-2.4958,-2.4867,-2.4861,-2.4824,-2.4735,-2.4725,-2.4687,-2.4607,-2.452,-2.4446,-2.4296,-2.4187,-2.4122,-2.4011,-2.3834,-2.3723,-2.3588,-2.3421,-2.3233,-2.3017,-2.2857,-2.2598,-2.2438,-2.2238,-2.2006,-2.1795,-2.173,-2.1546,-2.1383,-2.1242,-2.1136,-2.098,-2.0905,-2.0818,-2.0788,-2.0783,-2.0852,-2.0985,-2.1235,-2.1536,-2.1929,-2.2398,-2.2886,-2.3317,-2.3767,-2.4174,-2.4566,-2.4666,-2.4962,-2.52,-2.54,-2.5539,-2.5703,-2.5778,-2.5869,-2.5938,-2.597,-2.5973,-2.5994,-2.6037,-2.606,-2.6,-2.6015,-2.5987,-2.5984,-2.5989,-2.6001,-2.6028,-2.6048,-2.5997,-2.6039,-2.5977,-2.6005,-2.5983,-2.5977,-2.5922,-2.5898,-2.5856,-2.5813,-2.5744,-2.5732,-2.5699,-2.5681,-2.5641,-2.561,-2.5582,-2.5574,-2.5565,-2.556,-2.5545,-2.5549,-2.5574,-2.5609,-2.5604,-2.5624,-2.5611,-2.5621,-2.5643,-2.562,-2.5651,-2.5653,-2.5698,-2.5697,-2.5724,-2.5698,-2.5682,-2.5731,-2.5756,-2.5781,-2.5782,-2.5772,-2.5817,-2.5791,-2.5766,-2.5757,-2.5743,-2.5758,-2.5731,-2.5748,-2.574,-2.5763,-2.5746,-2.5741,-2.5695,-2.5711,-2.571,-2.5722,-2.5776,-2.5748,-2.5808,-2.5772,-2.578,-2.576,-2.5804,-2.5803,-2.5806,-2.5762,-2.5662,-2.5517,-2.5497,-2.5537,-2.5578,-2.5465,-2.5346,-2.5191,-2.5037,-2.4915,-2.4965,-2.5122,-2.5372,-2.5448,-2.5472,-2.551,-2.5611,-2.5732,-2.5826,-2.5881,-2.5924,-2.5924,-2.5917,-2.5964,-2.5942,-2.5927,-2.5879,-2.5844,-2.5857,-2.5867,-2.5883,-2.5864,-2.5981,-2.5956,-2.5707,-2.4208,-2.2217,-2.0233,-1.8117,-1.8384,-2.1127,-2.6197,-3.1244,-3.0738,-2.8905,-2.8023,-2.703,-2.6261,-2.5809,-2.5748,-2.5436,-2.5478,-2.5413,-2.5494,-2.5396,-2.5427,-2.5351,-2.5345,-2.5289,-2.5289,-2.5246,-2.5233,-2.5172,-2.5165,-2.5134,-2.5146,-2.5098,-2.5117,-2.5105,-2.5059,-2.5011,-2.5046,-2.4978,-2.5032,-2.4987,-2.4984,-2.4925,-2.4824,-2.4703,-2.4733,-2.4597,-2.4442,-2.4403,-2.4205,-2.4158,-2.3981,-2.3847,-2.3664,-2.3432,-2.3289,-2.3107,-2.283,-2.2745,-2.2475,-2.2321,-2.2131,-2.1886,-2.1705,-2.1515,-2.1354,-2.1215,-2.1121,-2.1022,-2.0955,-2.0925,-2.0942,-2.1053,-2.1232,-2.1486,-2.1807,-2.2255,-2.274,-2.2752,-2.35,-2.4074,-2.442,-2.4899,-2.5231,-2.5599,-2.577,-2.6001,-2.6124,-2.6289,-2.6383,-2.6504,-2.658,-2.6656,-2.6666,-2.6761,-2.6746,-2.6813,-2.6775,-2.6815,-2.6792,-2.6794,-2.6716,-2.6714,-2.6708,-2.6723,-2.6645,-2.66,-2.6546,-2.6542,-2.6471,-2.6492,-2.642,-2.6371,-2.6368,-2.6319,-2.6318,-2.6216,-2.6215,-2.6227,-2.6177,-2.6151,-2.6139,-2.6112,-2.61,-2.6076,-2.6067,-2.6071,-2.6039,-2.6048,-2.605,-2.6018,-2.6065,-2.6004,-2.6025,-2.6025,-2.6014,-2.6014,-2.6002,-2.5994,-2.6006,-2.605,-2.5995,-2.6036,-2.593,-2.5723,-2.5591,-2.553,-2.5555,-2.5626,-2.5547,-2.5215,-2.4897,-2.4811,-2.4849,-2.5139,-2.5303,-2.5417,-2.5521,-2.567,-2.5738,-2.5746,-2.5942,-2.5965,-2.5999,-2.6019,-2.6043,-2.6088,-2.6023,-2.6087,-2.6059,-2.6,-2.5976,-2.5971,-2.5983,-2.5962,-2.6039,-2.6038,-2.6058,-2.5644,-2.4981,-2.3176,-2.1009,-1.8851,-1.7979,-1.9912,-2.4479,-2.9864,-3.1759,-2.991,-2.8374,-2.7389,-2.6255,-2.5782,-2.5472,-2.525,-2.5109,-2.5092,-2.4987,-2.4903,-2.4883,-2.4827,-2.4794,-2.4735,-2.4694,-2.4618,-2.45,-2.4466,-2.4366,-2.4366,-2.4292,-2.4238,-2.4234,-2.4236,-2.4199,-2.4206,-2.4102,-2.4102,-2.406,-2.3983,-2.3992,-2.394,-2.3876,-2.3788,-2.3685,-2.3557,-2.3431,-2.3335,-2.3245,-2.3102,-2.2927,-2.272,-2.2566,-2.2324,-2.2139,-2.191,-2.1682,-2.1439,-2.1204,-2.0929,-2.0834,-2.0652,-2.0448,-2.0306,-2.0112,-1.9994,-1.9855,-1.9739,-1.9656,-1.9604,-1.9614,-1.977,-1.9983,-2.0294,-2.0664,-2.1142,-2.1708,-2.2242,-2.2772,-2.3252,-2.3773,-2.3962,-2.4368,-2.4626,-2.4881,-2.5113,-2.5291,-2.5425,-2.5568,-2.5727,-2.5819,-2.5844,-2.5912,-2.5961,-2.5973,-2.5914,-2.5924,-2.5953,-2.5932,-2.5935,-2.5926,-2.5943,-2.5945,-2.5963,-2.6035,-2.6018,-2.5935,-2.5884,-2.5861,-2.5851,-2.5717,-2.5735,-2.5658,-2.5644,-2.5663,-2.5613,-2.5591,-2.5577,-2.5498,-2.5437,-2.5409,-2.5426,-2.5464,-2.5453,-2.5443,-2.5419,-2.5409,-2.543,-2.5414,-2.5498,-2.5496,-2.5472,-2.547,-2.5516,-2.5536,-2.5584,-2.5629,-2.5598,-2.5558,-2.5572,-2.5654,-2.5696,-2.5736,-2.5667,-2.5602,-2.562,-2.5682,-2.5731,-2.5667,-2.5684,-2.5707,-2.5625,-2.5356,-2.5295,-2.5174,-2.5174,-2.5241,-2.5127,-2.4714,-2.4507,-2.4428,-2.4485,-2.468,-2.4885,-2.4987,-2.5111,-2.5144,-2.5302,-2.5361,-2.5456,-2.557,-2.5533,-2.5563,-2.5543,-2.5543,-2.5606,-2.5667,-2.5649,-2.5638,-2.5581,-2.5539,-2.5554,-2.5532,-2.5515,-2.5628,-2.5717,-2.5524,-2.4663,-2.2792,-2.0756,-1.8723,-1.7924,-1.9913,-2.4372,-2.9095,-3.0151,-2.8881,-2.8048,-2.7353,-2.6651,-2.6023,-2.5798,-2.5766,-2.553,-2.5474,-2.5449,-2.5438,-2.5381,-2.5349,-2.5264,-2.5274,-2.5193,-2.5191,-2.5185,-2.5164,-2.5133,-2.5141,-2.5103,-2.4996,-2.4967,-2.4967,-2.4919,-2.484,-2.4813,-2.4867,-2.4787,-2.4712,-2.4591,-2.4538,-2.4512,-2.4435,-2.4357,-2.4183,-2.411,-2.4025,-2.3888,-2.3782,-2.3664,-2.3485,-2.3306,-2.3191,-2.2995,-2.2923,-2.2762,-2.2612,-2.2394,-2.2192,-2.2028,-2.186,-2.1763,-2.1599,-2.1387,-2.1343,-2.1268,-2.1187,-2.1083,-2.1007,-2.1043,-2.1079,-2.1144,-2.1361,-2.1717,-2.2083,-2.232,-2.2589,-2.3016,-2.3514,-2.4001,-2.4405,-2.4761,-2.506,-2.5317,-2.5451,-2.5683,-2.5835,-2.5905,-2.6017,-2.6053,-2.6149,-2.6252,-2.6266,-2.6256,-2.6235,-2.6221,-2.6212,-2.6226,-2.6257,-2.6209,-2.6115,-2.6097,-2.599,-2.6059,-2.6056,-2.6019,-2.5915,-2.5843,-2.5818,-2.5769,-2.5786,-2.5785,-2.5741,-2.5745,-2.5703,-2.5684,-2.5668,-2.5679,-2.5757,-2.579,-2.5794,-2.5779,-2.5711,-2.5731,-2.5764,-2.5753,-2.5749,-2.5743,-2.5765,-2.5766,-2.5789,-2.579,-2.5803,-2.576,-2.5598,-2.5489,-2.5496,-2.5401,-2.5319,-2.5385,-2.5353,-2.5064,-2.4698,-2.4647,-2.4687,-2.4944,-2.5123,-2.5189,-2.5327,-2.5427,-2.5559,-2.5621,-2.5736,-2.5759,-2.5725,-2.5765,-2.5773,-2.5784,-2.5712,-2.5718,-2.5768,-2.5754,-2.5735,-2.5649,-2.5694,-2.5704,-2.5661,-2.5737,-2.5764,-2.5729,-2.5262,-2.3687,-2.1706,-1.9669,-1.8054,-1.8782,-2.0349,-2.4912,-2.9402,-2.9697,-2.8431,-2.784,-2.719,-2.6591,-2.6027,-2.5699,-2.5647,-2.5334,-2.5316,-2.5233,-2.5242,-2.514,-2.5196,-2.5149,-2.5158,-2.5052,-2.5026,-2.4911,-2.4975,-2.4913,-2.4866,-2.4757,-2.474,-2.4733,-2.4779,-2.4653,-2.4673,-2.4624,-2.4648,-2.4522,-2.4448,-2.4399,-2.4382,-2.4241,-2.418,-2.4097,-2.4075,-2.394,-2.3757,-2.3697,-2.363,-2.3472,-2.3316,-2.3151,-2.3011,-2.2834,-2.2633,-2.2436,-2.2226,-2.2036,-2.1852,-2.1645,-2.1481,-2.1339,-2.12,-2.1121,-2.1062,-2.0973,-2.0859,-2.0853,-2.0797,-2.085,-2.0975,-2.124,-2.1474,-2.1918,-2.2273,-2.2752,-2.3302,-2.3718,-2.4146,-2.4512,-2.4815,-2.5048,-2.5237,-2.5474,-2.555,-2.5665,-2.5749,-2.5871,-2.5993,-2.6043,-2.6067,-2.6064,-2.6089,-2.6109,-2.6068,-2.604,-2.6026,-2.5965,-2.593,-2.5914,-2.5901,-2.5931,-2.5922,-2.5933,-2.5792,-2.5783,-2.5752,-2.568,-2.5637,-2.5527,-2.5585,-2.5566,-2.5468,-2.5568,-2.5857,-2.562,-2.5545,-2.5432,-2.5513,-2.5512,-2.5451,-2.5663,-2.5721,-2.546,-2.5545,-2.5697,-2.5502,-2.5583,-2.5573,-2.5719,-2.5664,-2.5754,-2.5721,-2.5764,-2.574,-2.5789,-2.5761,-2.5808,-2.5863,-2.5873,-2.567,-2.5505,-2.5427,-2.5306,-2.5266,-2.5443,-2.544,-2.5115,-2.4808,-2.4699,-2.4869,-2.5072,-2.5276,-2.5423,-2.5419,-2.5575,-2.5567,-2.5635,-2.5736,-2.581,-2.589,-2.5969,-2.5878,-2.5932,-2.5935,-2.5987,-2.6028,-2.6098,-2.5942,-2.6118,-2.6089,-2.6064,-2.6103,-2.609,-2.6218,-2.6036,-2.491,-2.3099,-2.0868,-1.8855,-1.8232,-2.0093,-2.4625,-2.9633,-3.1002,-3.0254,-2.9209,-2.8235,-2.7463,-2.6677,-2.6462,-2.6166,-2.6114,-2.594,-2.5995,-2.5848,-2.5914,-2.5815,-2.5839,-2.5699,-2.576,-2.5666,-2.5616,-2.5504,-2.5498,-2.5456,-2.5518,-2.5448,-2.5457,-2.538,-2.5422,-2.5287,-2.5254,-2.5175,-2.5219,-2.5145,-2.5108,-2.505,-2.5013,-2.4903,-2.4882,-2.4651,-2.4604,-2.4436,-2.4273,-2.4191,-2.4126,-2.3999,-2.3819,-2.3633,-2.3435,-2.3151,-2.2996,-2.278,-2.2614,-2.2491,-2.2274,-2.2097,-2.1894,-2.1772,-2.1717,-2.1636,-2.1514,-2.1401,-2.1332,-2.1293,-2.1319,-2.1394,-2.1584,-2.185,-2.2188,-2.2662,-2.3111,-2.3636,-2.4111,-2.4594,-2.5037,-2.5413,-2.5761,-2.6104,-2.6385,-2.6522,-2.6674,-2.6753,-2.6934,-2.6999,-2.7006,-2.7136,-2.7109,-2.7116,-2.7041,-2.71,-2.7013,-2.7036,-2.7012,-2.7013,-2.6967,-2.695,-2.6752,-2.6668,-2.6619,-2.667,-2.6688,-2.6433,-2.6183,-2.6572,-2.6554,-2.6581,-2.6389,-2.6365,-2.6309,-2.6278,-2.6329,-2.6253,-2.6317,-2.6305,-2.6404,-2.6237,-2.6082,-2.6,-2.6101,-2.6259,-2.6448,-2.6418,-2.6307,-2.63,-2.63,-2.6321,-2.6376,-2.6343,-2.6345,-2.6461,-2.6517,-2.6427,-2.6493,-2.6617,-2.6524,-2.6608,-2.6663,-2.6611,-2.659,-2.6703,-2.6774,-2.6721,-2.6715,-2.6683,-2.6792,-2.6824,-2.6757,-2.6776,-2.674,-2.6718,-2.6748,-2.6804,-2.6781,-2.6769,-2.6702,-2.6699,-2.6687,-2.6644,-2.6652,-2.6622,-2.6582,-2.6577,-2.6452,-2.6503,-2.6362,-2.6363,-2.6419,-2.6392,-2.6296,-2.6185,-2.6236,-2.617,-2.6075,-2.6021,-2.6002,-2.6027,-2.5978,-2.5905,-2.5893,-2.5763,-2.5736,-2.5766,-2.5698,-2.5667,-2.5606,-2.5566,-2.5511,-2.54,-2.536,-2.5166,-2.5249,-2.5291,-2.5014,-2.4829,-2.4678,-2.4647,-2.4824,-2.4974,-2.51,-2.5214,-2.5383,-2.5614,-2.5646,-2.5728,-2.5799,-2.58,-2.5802,-2.5873,-2.5744,-2.5879,-2.5849,-2.5764,-2.5711,-2.5647,-2.5702,-2.5741,-2.5626,-2.5715,-2.5809,-2.5892,-2.5173,-2.3643,-2.1547,-1.9444,-1.8105,-1.8617,-1.9721,-2.4229,-2.9728,-3.0984,-2.9334,-2.7957,-2.7121,-2.6133,-2.5843,-2.552,-2.5343,-2.5221,-2.5259,-2.5171,-2.5074,-2.4971,-2.5052,-2.4884,-2.4913,-2.4754,-2.4771,-2.4679,-2.4685,-2.4539,-2.456,-2.4473,-2.4517,-2.4384,-2.4372,-2.4307,-2.4329,-2.4259,-2.4267,-2.4122,-2.408,-2.3997,-2.396,-2.3867,-2.3856,-2.3673,-2.3664,-2.3543,-2.3443,-2.3314,-2.3218,-2.3071,-2.2941,-2.2796,-2.2721,-2.2531,-2.2308,-2.2096,-2.1887,-2.1726,-2.1505,-2.1316,-2.1165,-2.1019,-2.0815,-2.0692,-2.0635,-2.0474,-2.0368,-2.0307,-2.0207,-2.0247,-2.0215,-2.0142,-2.0309,-2.0612,-2.088,-2.1207,-2.1577,-2.2035,-2.2442,-2.2918,-2.3299,-2.3617,-2.3927,-2.418,-2.4284,-2.4387,-2.4529,-2.4593,-2.4669,-2.4813,-2.4816,-2.4891,-2.4874,-2.499,-2.5071,-2.4981,-2.496,-2.5065,-2.5102,-2.5111,-2.5038,-2.5111,-2.5059,-2.5048,-2.5028,-2.5037,-2.4979,-2.496,-2.4926,-2.4848,-2.4814,-2.4764,-2.4694,-2.4659,-2.463,-2.457,-2.4524,-2.4463,-2.4455,-2.4577,-2.4454,-2.4382,-2.432,-2.4376,-2.4325,-2.4317,-2.4336,-2.4348,-2.4383,-2.445,-2.434,-2.4355,-2.4349,-2.4399,-2.4384,-2.4474,-2.4427,-2.4428,-2.4427,-2.4512,-2.4576,-2.45,-2.4569,-2.4586,-2.4504,-2.4561,-2.4656,-2.4584,-2.4624,-2.4718,-2.457,-2.4558,-2.4583,-2.4632,-2.458,-2.467,-2.4694,-2.4594,-2.4576,-2.4745,-2.4691,-2.4693,-2.4734,-2.4673,-2.466,-2.4609,-2.4667,-2.4772,-2.4716,-2.4812,-2.4553,-2.4509,-2.5091,-2.5018,-2.532,-2.5102,-2.4523,-2.4424,-2.4352,-2.4689,-2.4944,-2.493,-2.4507,-2.3992,-2.4675,-2.5322,-2.5554,-2.5533,-2.53,-2.5054,-2.4684,-2.4579,-2.4655,-2.4744,-2.46,-2.4275,-2.4147,-2.4269,-2.4481,-2.4537,-2.494,-2.5229,-2.5474,-2.56,-2.5704,-2.6217,-2.6458,-2.6675,-2.6648,-2.6465,-2.6733,-2.693,-2.7077,-2.6882,-2.7137,-2.7157,-2.713,-2.7173,-2.7168,-2.7244,-2.7361,-2.6922,-2.5505,-2.3731,-2.1837,-2.0362,-2.0609,-2.2413,-2.6861,-3.1995,-3.3118,-3.1742,-3.106,-3.0583,-2.9967,-2.9613,-2.9479,-2.9207,-2.9421,-2.9709,-2.9737,-2.9661,-2.9424,-2.9367,-2.9429,-2.9336,-2.9145,-2.882,-2.8592,-2.8549,-2.8125,-2.7961,-2.7753,-2.7517,-2.7424,-2.7426,-2.7449,-2.7415,-2.7217,-2.6797,-2.6564,-2.6533,-2.6051,-2.6158,-2.5937,-2.5697,-2.5466,-2.5104,-2.5145,-2.5217,-2.4966,-2.4504,-2.4349,-2.4446,-2.422,-2.3845,-2.3552,-2.3168,-2.3059,-2.3068,-2.2928,-2.2555,-2.1897,-2.1753,-2.1366,-2.1409,-2.1307,-2.1454,-2.1227,-2.1277,-2.1248,-2.0874,-2.0859,-2.0873,-2.0692,-2.0481,-2.06,-2.0724,-2.1022,-2.1342,-2.1615,-2.1836,-2.2284,-2.2591,-2.2863,-2.3174,-2.3172,-2.3084,-2.3419,-2.3441,-2.3769,-2.3916,-2.4184,-2.4156,-2.397,-2.4112,-2.4138,-2.4045,-2.4005,-2.3773,-2.3754,-2.3725,-2.3797,-2.3812,-2.3852,-2.3682,-2.349,-2.3544,-2.3385,-2.3162,-2.33,-2.361,-2.3586,-2.3822,-2.4049,-2.3705,-2.3506,-2.3713,-2.3932,-2.3765,-2.3521,-2.3706,-2.362,-2.385,-2.3978,-2.3892,-2.381,-2.3558,-2.3664,-2.4008,-2.425,-2.4384,-2.4686,-2.4589,-2.4029,-2.4159,-2.4446,-2.4237,-2.4123,-2.4123,-2.4458,-2.4438,-2.4176,-2.4054,-2.4147,-2.4121,-2.4112,-2.4048,-2.3922,-2.3898,-2.3817,-2.3454,-2.3407,-2.3379,-2.3509,-2.3918,-2.3979,-2.3873,-2.4147,-2.4257,-2.4435,-2.4257,-2.4267,-2.4318,-2.448,-2.4507,-2.4498,-2.4674,-2.4741,-2.4688,-2.4391,-2.4292,-2.4219,-2.441,-2.4343,-2.43,-2.4593,-2.4597,-2.4447,-2.386,-2.2422,-2.0407,-1.8727,-1.7619,-1.854,-2.2217,-2.6036,-2.8255,-2.779,-2.6411,-2.6221,-2.5738,-2.5102,-2.4778,-2.4572,-2.4263,-2.4166,-2.4154,-2.4146,-2.3996,-2.408,-2.4089,-2.4011,-2.3908,-2.3717,-2.3669,-2.3924,-2.4008,-2.3805,-2.3766,-2.3672,-2.383,-2.3657,-2.389,-2.3845,-2.3634,-2.3488,-2.3584,-2.3649,-2.3471,-2.3455,-2.3412,-2.33,-2.3431,-2.3465,-2.3356,-2.284,-2.3047,-2.2998,-2.2906,-2.2828,-2.2594,-2.2609,-2.2563,-2.2249,-2.2075,-2.1928,-2.176,-2.1506,-2.1474,-2.1468,-2.1146,-2.0848,-2.0983,-2.1015,-2.0989,-2.0762,-2.0558,-2.0635,-2.0814,-2.0697,-2.0807,-2.0758,-2.1079,-2.1689,-2.1992,-2.2167,-2.2417,-2.2961,-2.3209,-2.3803,-2.4158,-2.4344,-2.456,-2.4565,-2.4933,-2.4728,-2.4798,-2.5367,-2.544,-2.5327,-2.5362,-2.5139,-2.5098,-2.5289,-2.5534,-2.5642,-2.5324,-2.5243,-2.5074,-2.534,-2.5192,-2.5154,-2.5174,-2.53,-2.5438,-2.524,-2.5197,-2.4985,-2.5089,-2.5089,-2.5021,-2.5103,-2.4931,-2.5031,-2.5032,-2.5256,-2.5181,-2.4869,-2.4919,-2.5181,-2.5429,-2.5504,-2.5416,-2.5433,-2.5266,-2.5242,-2.5343,-2.5021,-2.486,-2.4863,-2.5057,-2.5069,-2.4938,-2.4748,-2.4483,-2.4147,-2.4442,-2.4692,-2.5199,-2.5528,-2.5415,-2.5275,-2.5513,-2.5555,-2.5493,-2.5553,-2.5756,-2.5738,-2.5733,-2.5723,-2.5976,-2.5948,-2.5929,-2.5709,-2.5604,-2.5762,-2.5685,-2.5898,-2.6071,-2.6148,-2.5668,-2.5472,-2.4272,-2.2817,-2.1078,-1.9205,-1.8557,-2.0639,-2.4832,-2.6935,-2.9865,-2.9262,-2.8491,-2.7785,-2.6844,-2.6488,-2.5853,-2.6048,-2.5465,-2.5567,-2.5222,-2.5915,-2.554,-2.5658,-2.5322,-2.5437,-2.5259,-2.5149,-2.521,-2.5489,-2.4959,-2.5102,-2.5135,-2.5156,-2.4908,-2.4883,-2.5017,-2.518,-2.5094,-2.5048,-2.4763,-2.5025,-2.5082,-2.4888,-2.4544,-2.4658,-2.4666,-2.4719,-2.4334,-2.4242,-2.3896,-2.3932,-2.401,-2.405,-2.4054,-2.4141,-2.3983,-2.3186,-2.2764,-2.2611,-2.2991,-2.2844,-2.2396,-2.2103,-2.1866,-2.1767,-2.1891,-2.1939,-2.1684,-2.1655,-2.1284,-2.1069,-2.1201,-2.1194,-2.1799,-2.2356,-2.2717,-2.2835,-2.3016,-2.3637,-2.4351,-2.4755,-2.5439,-2.5503,-2.5632,-2.5631,-2.5595,-2.5914,-2.6178,-2.5897,-2.6154,-2.634,-2.6637,-2.6521,-2.6708,-2.6652,-2.6405,-2.6448,-2.6615,-2.6708,-2.647,-2.6221,-2.6573,-2.656,-2.6482,-2.6504,-2.6639,-2.6396,-2.6586,-2.6411,-2.6463,-2.6648,-2.6697,-2.6541,-2.6366,-2.6389,-2.6426,-2.6449,-2.6331,-2.6329,-2.6518,-2.6202,-2.6441,-2.6356,-2.6319,-2.637,-2.6413,-2.6391,-2.6315,-2.647,-2.6622,-2.6257,-2.6471,-2.6386,-2.6505,-2.604,-2.5752,-2.5841,-2.596,-2.5683,-2.5396,-2.5142,-2.5421,-2.5341,-2.5866,-2.585,-2.6097,-2.6237,-2.6092,-2.6225,-2.6096,-2.5866,-2.5795,-2.6083,-2.6525,-2.6594,-2.6116,-2.6054,-2.5802,-2.594,-2.6006,-2.6285,-2.5875,-2.6095,-2.6198,-2.6235,-2.5928,-2.6017,-2.523,-2.3873,-2.2998,-2.0907,-1.8728,-1.7969,-2.0067,-2.4949,-2.945,-3.054,-2.9421,-2.8426,-2.7457,-2.7041,-2.624,-2.6085,-2.6127,-2.6039,-2.5793,-2.5642,-2.572,-2.5803,-2.5773,-2.6037,-2.5772,-2.5381,-2.5131,-2.5855,-2.6016,-2.5731,-2.5353,-2.5282,-2.5363,-2.5442,-2.5615,-2.5463,-2.5369,-2.5359,-2.558,-2.5534,-2.5409,-2.5297,-2.5283,-2.5153,-2.493,-2.5103,-2.492,-2.4519,-2.4375,-2.4387,-2.448,-2.4419,-2.4191,-2.3945,-2.3721,-2.3355,-2.3169,-2.3096,-2.301,-2.2808,-2.2622,-2.2217,-2.2136,-2.2109,-2.1894,-2.1423,-2.1192,-2.1666,-2.1497,-2.1272,-2.1174,-2.1256,-2.1533,-2.1926,-2.2195,-2.2826,-2.313,-2.32,-2.3647,-2.4333,-2.4699,-2.4984,-2.5089,-2.5355,-2.5727,-2.6052,-2.5775,-2.5988,-2.614,-2.6313,-2.6181,-2.6215,-2.6394,-2.6062,-2.5895,-2.6109,-2.6506,-2.6623,-2.6353,-2.5985,-2.6042,-2.6332,-2.6417,-2.6369,-2.6275,-2.6176,-2.6174,-2.5979,-2.615,-2.6241,-2.6105,-2.6034,-2.6372,-2.6226,-2.6325,-2.6084,-2.5909,-2.5797,-2.5764,-2.579,-2.5807,-2.604,-2.6079,-2.5873,-2.5793,-2.5492,-2.5907,-2.6075,-2.6116,-2.6015,-2.5984,-2.5856,-2.5845,-2.5748,-2.58,-2.5775,-2.5775,-2.5923,-2.5867,-2.5804,-2.5786,-2.5759,-2.5766,-2.5623,-2.5525,-2.5522,-2.5633,-2.5989,-2.5857,-2.5601,-2.5528,-2.5766,-2.6002,-2.5966,-2.5826,-2.5716,-2.5578,-2.5432,-2.567,-2.5742,-2.5558,-2.5595,-2.5489,-2.5475,-2.5329,-2.5355,-2.5221,-2.5182,-2.5049,-2.5226,-2.5128,-2.4819,-2.4479,-2.4645,-2.4901,-2.5167,-2.5279,-2.5281,-2.5119,-2.5308,-2.5413,-2.5425,-2.5533,-2.5591,-2.5569,-2.5489,-2.5446,-2.5671,-2.5754,-2.5706,-2.58,-2.5706,-2.5656,-2.5524,-2.5644,-2.5774,-2.5747,-2.5756,-2.5432,-2.44,-2.2881,-2.0706,-1.8675,-1.7721,-1.7956,-2.0763,-2.5493,-3.0377,-2.9885,-2.8317,-2.7565,-2.6807,-2.6291,-2.5828,-2.5521,-2.5072,-2.5235,-2.5048,-2.5273,-2.5175,-2.5249,-2.512,-2.5254,-2.4942,-2.4963,-2.4842,-2.4897,-2.5094,-2.5046,-2.4715,-2.4723,-2.4587,-2.4568,-2.4718,-2.4888,-2.4611,-2.4669,-2.4705,-2.5009,-2.4595,-2.4237,-2.4126,-2.3957,-2.3745,-2.3929,-2.4006,-2.4124,-2.3862,-2.3653,-2.3579,-2.3452,-2.3165,-2.2839,-2.2568,-2.2686,-2.2792,-2.2331,-2.1747,-2.1691,-2.143,-2.1346,-2.1282,-2.1101,-2.1083,-2.1074,-2.1021,-2.076,-2.0512,-2.0452,-2.0193,-2.0334,-2.0428,-2.0516,-2.0713,-2.0875,-2.1183,-2.1695,-2.2201,-2.277,-2.3404,-2.3641,-2.3958,-2.4259,-2.4716,-2.4874,-2.4892,-2.4499,-2.4576,-2.5178,-2.5557,-2.546,-2.529,-2.5031,-2.5268,-2.5302,-2.5408,-2.5337,-2.5439,-2.5309,-2.5351,-2.5362,-2.5131,-2.5203,-2.5486,-2.5624,-2.5458,-2.5059,-2.5256,-2.5268,-2.5275,-2.5054,-2.5144,-2.5497,-2.5422,-2.5143,-2.5406,-2.511,-2.4419,-2.4378,-2.4962,-2.5499,-2.57,-2.4988,-2.4397,-2.4989,-2.5505,-2.58,-2.5511,-2.5074,-2.4987,-2.5112,-2.5506,-2.5446,-2.5128,-2.5268,-2.5426,-2.5258,-2.528,-2.509,-2.5193,-2.5202,-2.496,-2.5067,-2.5272,-2.5122,-2.5047,-2.5136,-2.5332,-2.5327,-2.5246,-2.5086,-2.4831,-2.5112,-2.5152,-2.5007,-2.5241,-2.5084,-2.4945,-2.5179,-2.5561,-2.563,-2.5502,-2.5149,-2.4875,-2.4991,-2.4977,-2.4973,-2.5068,-2.5162,-2.4902,-2.4527,-2.4835,-2.5344,-2.5284,-2.4911,-2.4975,-2.5192,-2.5314,-2.5273,-2.4993,-2.4872,-2.4832,-2.4638,-2.4703,-2.4996,-2.4962,-2.5035,-2.4861,-2.4603,-2.5099,-2.5264,-2.5301,-2.5153,-2.4869,-2.4996,-2.4848,-2.5068,-2.497,-2.5059,-2.502,-2.5129,-2.4984,-2.4891,-2.4723,-2.4583,-2.4901,-2.4902,-2.5082,-2.535,-2.5397,-2.5063,-2.4869,-2.5072,-2.4457,-2.4395,-2.4518,-2.4503,-2.4875,-2.5102,-2.4788,-2.3882,-2.3575,-2.3497,-2.3994,-2.4418,-2.4671,-2.4785,-2.4687,-2.4589,-2.446,-2.4852,-2.5076,-2.488,-2.4674,-2.4839,-2.4937,-2.4962,-2.5029,-2.5,-2.4837,-2.4928,-2.4415,-2.4554,-2.4694,-2.5066,-2.4905,-2.5104,-2.4983,-2.3648,-2.2185,-2.0465,-1.8438,-1.7142,-1.8259,-2.249,-2.7362,-2.9239,-2.8003,-2.696,-2.6299,-2.5517,-2.4928,-2.4811,-2.5013,-2.4786,-2.4774,-2.443,-2.4385,-2.407,-2.4359,-2.467,-2.4769,-2.4527,-2.4078,-2.4171,-2.4156,-2.4392,-2.4317,-2.4071,-2.4203,-2.4348,-2.4193,-2.4408,-2.4628,-2.4408,-2.4025,-2.3684,-2.3724,-2.3837,-2.4205,-2.3875,-2.3825,-2.3472,-2.3952,-2.3971,-2.3666,-2.326,-2.3187,-2.3316,-2.2771,-2.3009,-2.2993,-2.2982,-2.2433,-2.2323,-2.2067,-2.199,-2.1897,-2.1704,-2.1763,-2.1243,-2.1539,-2.1299,-2.1007,-2.0989,-2.0925,-2.117,-2.0913,-2.0519,-2.0598,-2.0914,-2.0861,-2.0879,-2.1049,-2.1083,-2.1347,-2.1849,-2.2515,-2.2858,-2.3311,-2.3218,-2.3441,-2.3731,-2.4115,-2.4574,-2.4939,-2.5119,-2.5145,-2.5045,-2.4571,-2.4968,-2.5463,-2.5612,-2.5309,-2.5384,-2.5086,-2.5345,-2.5523,-2.5544,-2.5508,-2.5366,-2.5317,-2.508,-2.5098,-2.517,-2.4873,-2.4509,-2.5063,-2.5647,-2.5384,-2.4822,-2.4925,-2.5391,-2.5482,-2.5321,-2.5346,-2.5007,-2.4956,-2.4896,-2.4739,-2.4716,-2.5044,-2.5002,-2.4523,-2.4562,-2.5046,-2.5476,-2.5697,-2.5476,-2.5273,-2.5364,-2.5387,-2.531,-2.5138,-2.4994,-2.5357,-2.5097,-2.4793,-2.4971,-2.5617,-2.5831,-2.568,-2.5245,-2.5241,-2.5446,-2.537,-2.5603,-2.5419,-2.5231,-2.5061,-2.5109,-2.4862,-2.4792,-2.5261,-2.5766,-2.553,-2.5264,-2.5141,-2.5269,-2.5594,-2.5586,-2.5441,-2.5303,-2.5111,-2.5221,-2.5107,-2.4969,-2.5061,-2.5401,-2.5484,-2.5015,-2.481,-2.5157,-2.5327,-2.5811,-2.5645,-2.5359,-2.5593,-2.515,-2.4999,-2.4998,-2.4881,-2.5276,-2.5627,-2.5349,-2.513,-2.499,-2.5019,-2.5503,-2.5386,-2.4995,-2.4859,-2.4799,-2.4806,-2.4973,-2.4742,-2.4943,-2.4618,-2.3984,-2.3711,-2.387,-2.4682,-2.5044,-2.4786,-2.489,-2.5264,-2.4979,-2.5033,-2.5073,-2.5522,-2.5608,-2.5112,-2.4946,-2.4853,-2.4983,-2.4983,-2.5382,-2.5506,-2.5294,-2.5208,-2.5093,-2.5326,-2.5346,-2.5,-2.4166,-2.2709,-2.1541,-2.023,-1.8634,-1.8947,-2.1861,-2.5808,-2.9075,-2.7965,-2.6779,-2.6394,-2.5972,-2.561,-2.5284,-2.5353,-2.516,-2.5121,-2.4599,-2.443,-2.4343,-2.4184,-2.4024,-2.4399,-2.4508,-2.4372,-2.449,-2.4591,-2.4356,-2.4255,-2.4333,-2.4411,-2.427,-2.4467,-2.4133,-2.3961,-2.3711,-2.3783,-2.3936,-2.4199,-2.4241,-2.4096,-2.3723,-2.3727,-2.3714,-2.3818,-2.3693,-2.3629,-2.3706,-2.3674,-2.3176,-2.2854,-2.3001,-2.299,-2.2958,-2.2621,-2.2615,-2.2638,-2.235,-2.2169,-2.1813,-2.1675,-2.1535,-2.1543,-2.1655,-2.155,-2.1483,-2.1249,-2.129,-2.1039,-2.0983,-2.0924,-2.0856,-2.1037,-2.107,-2.1341,-2.1477,-2.1904,-2.2188,-2.2479,-2.2731,-2.2999,-2.3522,-2.4043,-2.4235,-2.4314,-2.4671,-2.4702,-2.4848,-2.5145,-2.5581,-2.5643,-2.5384,-2.5519,-2.5766,-2.5549,-2.5661,-2.5457,-2.533,-2.5447,-2.559,-2.5528,-2.5372,-2.5278,-2.5062,-2.5418,-2.5554,-2.5686,-2.5617,-2.5558,-2.5458,-2.5109,-2.5005,-2.5223,-2.5511,-2.5569,-2.5528,-2.5454,-2.5229,-2.4689,-2.4283,-2.4338,-2.5453,-2.6022,-2.6029,-2.5867,-2.5661,-2.581,-2.6027,-2.6065,-2.5982,-2.5571,-2.5515,-2.5598,-2.548,-2.5344,-2.5557,-2.5644,-2.5818,-2.5917,-2.5935,-2.5982,-2.5878,-2.5497,-2.5202,-2.545,-2.589,-2.6107,-2.5854,-2.5823,-2.5683,-2.5616,-2.5473,-2.5392,-2.5408,-2.5415,-2.5385,-2.5341,-2.5449,-2.5283,-2.5377,-2.5331,-2.515,-2.5114,-2.5394,-2.5007,-2.4502,-2.4313,-2.4358,-2.4361,-2.4822,-2.4934,-2.5106,-2.5265,-2.5424,-2.5531,-2.5612,-2.5361,-2.4692,-2.4806,-2.5278,-2.5834,-2.6069,-2.6221,-2.602,-2.5615,-2.5364,-2.559,-2.5517,-2.5431,-2.5462,-2.5768,-2.5846,-2.5718,-2.4919,-2.3463,-2.1644,-2.0708,-1.8913,-1.8251,-1.9662,-2.3598,-2.8,-2.9518,-2.8812,-2.8294,-2.7785,-2.6737,-2.5892,-2.559,-2.562,-2.5334,-2.5339,-2.5317,-2.5423,-2.5104,-2.4845,-2.4838,-2.5016,-2.4819,-2.481,-2.4541,-2.4916,-2.526,-2.4944,-2.4296,-2.4301,-2.4356,-2.4508,-2.4699,-2.4717,-2.4693,-2.4884,-2.4757,-2.4751,-2.4477,-2.4336,-2.4219,-2.4243,-2.4125,-2.4089,-2.3741,-2.3542,-2.3599,-2.3592,-2.3468,-2.328,-2.3415,-2.324,-2.3452,-2.288,-2.2519,-2.2161,-2.2228,-2.205,-2.1871,-2.1648,-2.1116,-2.1072,-2.1025,-2.1036,-2.0828,-2.0779,-2.0851,-2.0969,-2.0886,-2.099,-2.0935,-2.1306,-2.1693,-2.1819,-2.2305,-2.2584,-2.3134,-2.3212,-2.3579,-2.3896,-2.4548,-2.4577,-2.4737,-2.5226,-2.5397,-2.551,-2.576,-2.6209,-2.5917,-2.5667,-2.5543,-2.5572,-2.5717,-2.6038,-2.5836,-2.5226,-2.5455,-2.5671,-2.5875,-2.5391,-2.5104,-2.5083,-2.5339,-2.5616,-2.5597,-2.5428,-2.5095,-2.511,-2.5182,-2.5135,-2.5115,-2.4862,-2.4671,-2.4667,-2.4921,-2.5233,-2.5077,-2.4848,-2.4921,-2.4733,-2.4797,-2.4898,-2.4767,-2.4992,-2.5367,-2.5042,-2.4616,-2.4491,-2.4872,-2.4991,-2.5101,-2.4632,-2.4419,-2.4747,-2.4993,-2.4886,-2.4872,-2.5033,-2.4772,-2.4364,-2.4694,-2.4861,-2.4847,-2.4893,-2.4914,-2.5044,-2.4755,-2.4927,-2.5061,-2.5036,-2.4764,-2.4523,-2.4332,-2.4567,-2.4635,-2.4854,-2.4559,-2.4131,-2.3641,-2.3451,-2.3449,-2.3897,-2.3944,-2.4139,-2.4332,-2.4674,-2.4844,-2.4872,-2.4818,-2.5137,-2.5205,-2.5104,-2.5159,-2.5001,-2.5123,-2.4999,-2.4743,-2.5143,-2.4912,-2.4982,-2.5247,-2.5174,-2.5059,-2.4779,-2.4775,-2.472,-2.446,-2.3,-2.1266,-1.9342,-1.743,-1.7683,-2.116,-2.6003,-3.0015,-2.8663,-2.7544,-2.7021,-2.6277,-2.5881,-2.4963,-2.46,-2.4471,-2.4586,-2.4645,-2.5084,-2.4889,-2.4945,-2.4546,-2.4059,-2.3852,-2.4168,-2.4259,-2.4093,-2.4273,-2.4412,-2.4046,-2.4101,-2.3938,-2.3914,-2.406,-2.3929,-2.3679,-2.3397,-2.32,-2.3429,-2.4013,-2.4024,-2.3844,-2.3634,-2.3508,-2.3497,-2.3087,-2.3394,-2.3237,-2.3179,-2.2408,-2.2114,-2.1963,-2.1834,-2.1695,-2.1847,-2.1972,-2.1873,-2.1265,-2.1038,-2.1353,-2.1377,-2.0891,-2.0484,-2.0353,-2.0374,-2.0047,-1.966,-1.9634,-1.9684,-1.9901,-1.9551,-1.9947,-2.0068,-2.03,-2.0785,-2.1211,-2.142,-2.1736,-2.2036,-2.2442,-2.3242,-2.3632,-2.359,-2.3962,-2.3973,-2.4214,-2.454,-2.4747,-2.4551,-2.4671,-2.4903,-2.5312,-2.533,-2.5137,-2.5142,-2.5439,-2.5496,-2.5344,-2.5171,-2.4965,-2.4413,-2.4645,-2.5513,-2.5473,-2.5348,-2.5287,-2.5158,-2.476,-2.4746,-2.4985,-2.5119,-2.5232,-2.4872,-2.4695,-2.4617,-2.4655,-2.4619,-2.4573,-2.433,-2.4708,-2.4977,-2.505,-2.4914,-2.4923,-2.4581,-2.4976,-2.5287,-2.5124,-2.4808,-2.4791,-2.4906,-2.4988,-2.4852,-2.4094,-2.425,-2.5047,-2.5289,-2.5227,-2.5072,-2.4958,-2.4584,-2.4698,-2.4738,-2.4471,-2.3752,-2.3354,-2.3623,-2.4163,-2.4565,-2.4245,-2.4416,-2.4673,-2.4914,-2.4829,-2.5248,-2.5255,-2.5049,-2.5015,-2.5181,-2.5059,-2.4883,-2.4285,-2.4521,-2.5183,-2.5678,-2.5717,-2.5354,-2.5269,-2.5863,-2.6473,-2.5694,-2.5233,-2.4209,-2.1985,-2.0242,-1.9061,-1.8622,-1.8849,-2.1479,-2.5825,-2.9509,-2.8703,-2.7468,-2.7287,-2.6692,-2.6735,-2.5598,-2.5226,-2.5312,-2.5254,-2.5327,-2.5231,-2.5057,-2.4653,-2.439,-2.4977,-2.536,-2.5171,-2.4877,-2.4803,-2.4892,-2.5133,-2.5409,-2.5277,-2.5034,-2.4975,-2.5054,-2.4974,-2.4721,-2.4875,-2.5018,-2.489,-2.4738,-2.47,-2.4408,-2.422,-2.4192,-2.3977,-2.3907,-2.4313,-2.4118,-2.3794,-2.3429,-2.3764,-2.3651,-2.3274,-2.3253,-2.2519,-2.2565,-2.2224,-2.1985,-2.1862,-2.2072,-2.1918,-2.2191,-2.2243,-2.1704,-2.1224,-2.1122,-2.1059,-2.0638,-2.1106,-2.1294,-2.1014,-2.1547,-2.1933,-2.1633,-2.141,-2.186,-2.2456,-2.2993,-2.3458,-2.4027,-2.4406,-2.4585,-2.4625,-2.4781,-2.5074,-2.5183,-2.5264,-2.5525,-2.5735,-2.5671,-2.558,-2.5612,-2.5676,-2.5855,-2.5787,-2.5482,-2.5422,-2.5766,-2.6084,-2.5643,-2.5167,-2.5541,-2.5865,-2.558,-2.5564,-2.5569,-2.5877,-2.5898,-2.5665,-2.5529,-2.5408,-2.5415,-2.5581,-2.5574,-2.5037,-2.5092,-2.5424,-2.5712,-2.5781,-2.5728,-2.572,-2.5665,-2.5965,-2.586,-2.5528,-2.5413,-2.5482,-2.5429,-2.5411,-2.5569,-2.5641,-2.496,-2.462,-2.4887,-2.5161,-2.5042,-2.4824,-2.4441,-2.4439,-2.4741,-2.5096,-2.5105,-2.5211,-2.5303,-2.532,-2.541,-2.5684,-2.5491,-2.5414,-2.5644,-2.5629,-2.5638,-2.5851,-2.5603,-2.5356,-2.5047,-2.5341,-2.5991,-2.6515,-2.6463,-2.63,-2.581,-2.5304,-2.5003,-2.4018,-2.2677,-2.1883,-2.0294,-1.9215,-2.0284,-2.3687,-2.7751,-3.0556,-2.965,-2.8721,-2.8152,-2.7345,-2.681,-2.6109,-2.6091,-2.5856,-2.6165,-2.5768,-2.544,-2.5161,-2.5845,-2.59,-2.5693,-2.5162,-2.474,-2.5049,-2.5763,-2.5944,-2.5822,-2.5634,-2.572,-2.5255,-2.4916,-2.4676,-2.5049,-2.5143,-2.5225,-2.5183,-2.5391,-2.4717,-2.4144,-2.4147,-2.4361,-2.4608,-2.4496,-2.4499,-2.4496,-2.3962,-2.3838,-2.3524,-2.3407,-2.3378,-2.3246,-2.3055,-2.2991,-2.2801,-2.2478,-2.2251,-2.2255,-2.21,-2.1621,-2.1464,-2.1133,-2.1208,-2.1591,-2.1594,-2.1341,-2.1138,-2.0688,-2.0852,-2.1046,-2.1394,-2.181,-2.2042,-2.2274,-2.2637,-2.3222,-2.3866,-2.4168,-2.455,-2.4759,-2.4782,-2.5056,-2.515,-2.5241,-2.5764,-2.5677,-2.5666,-2.6,-2.5969,-2.5877,-2.5897,-2.6089,-2.5922,-2.594,-2.5679,-2.5823,-2.6074,-2.5884,-2.5827,-2.5943,-2.592,-2.6024,-2.6211,-2.6112,-2.594,-2.5856,-2.5843,-2.5678,-2.5507,-2.5268,-2.5375,-2.5424,-2.5592,-2.573,-2.5663,-2.5757,-2.5707,-2.5602,-2.5306,-2.4746,-2.5376,-2.5643,-2.5704,-2.5441,-2.5259,-2.5689,-2.5935,-2.6049,-2.5063,-2.4587,-2.5061,-2.5132,-2.5073,-2.4755,-2.4653,-2.4362,-2.4812,-2.5475,-2.5396,-2.5479,-2.5248,-2.5355,-2.5772,-2.5751,-2.634,-2.6498,-2.6755,-2.6794,-2.6986,-2.6988,-2.708,-2.7128,-2.7111,-2.7408,-2.7524,-2.7362,-2.7303,-2.7243,-2.7619,-2.7602,-2.7879,-2.7929,-2.7636,-2.6609,-2.4906,-2.3199,-2.1226,-2.0223,-2.2135,-2.6713,-3.1151,-3.2388,-3.1229,-3.0027,-2.892,-2.8022,-2.742,-2.7272,-2.6935,-2.6669,-2.6447,-2.6666,-2.6113,-2.5817,-2.594,-2.6138,-2.6046,-2.5875,-2.5922,-2.555,-2.5018,-2.5324,-2.5832,-2.6117,-2.5528,-2.5487,-2.5399,-2.5487,-2.5787,-2.5887,-2.5954,-2.5643,-2.5569,-2.5227,-2.4791,-2.4803,-2.5404,-2.5737,-2.5743,-2.5512,-2.5118,-2.4882,-2.4699,-2.4789,-2.4836,-2.4224,-2.3742,-2.3697,-2.3473,-2.374,-2.352,-2.3415,-2.3318,-2.2772,-2.2663,-2.2284,-2.2105,-2.1981,-2.2129,-2.2011,-2.2038,-2.1901,-2.1887,-2.1982,-2.2285,-2.2589,-2.2646,-2.2798,-2.2872,-2.346,-2.443,-2.5256,-2.5657,-2.6174,-2.6641,-2.6721,-2.6747,-2.6825,-2.6885,-2.7006,-2.679,-2.6659,-2.6791,-2.673,-2.6895,-2.6879,-2.6643,-2.6319,-2.6339,-2.6352,-2.6073,-2.6058,-2.6082,-2.616,-2.6268,-2.6188,-2.6183,-2.6097,-2.5757,-2.5411,-2.522,-2.5104,-2.53,-2.5282,-2.5266,-2.5505,-2.536,-2.5047,-2.4448,-2.4474,-2.4712,-2.5278,-2.5461,-2.5078,-2.4992,-2.4905,-2.4815,-2.4841,-2.4954,-2.4989,-2.5229,-2.5244,-2.532,-2.5152,-2.5177,-2.5335,-2.5261,-2.5481,-2.556,-2.5369,-2.5214,-2.5091,-2.4907,-2.4815,-2.4654,-2.481,-2.474,-2.4295,-2.418,-2.4375,-2.4801,-2.5061,-2.5149,-2.5156,-2.5198,-2.5308,-2.5427,-2.5792,-2.5818,-2.5649,-2.5589,-2.5677,-2.5722,-2.5684,-2.5645,-2.5429,-2.5579,-2.578,-2.5936,-2.5871,-2.5656,-2.5641,-2.5666,-2.5861,-2.5652,-2.4754,-2.2973,-2.1251,-1.9327,-1.8276,-1.9694,-2.4179,-2.8708,-3.1006,-3.1043,-2.9696,-2.8579,-2.7759,-2.695,-2.6501,-2.6588,-2.6348,-2.6203,-2.5769,-2.5296,-2.5328,-2.5646,-2.6172,-2.6387,-2.6518,-2.628,-2.6018,-2.6027,-2.6192,-2.5914,-2.596,-2.5782,-2.569,-2.5636,-2.56,-2.5505,-2.5253,-2.5416,-2.5463,-2.5622,-2.5431,-2.5434,-2.5194,-2.5315,-2.5126,-2.4924,-2.4764,-2.4138,-2.4118,-2.4168,-2.4037,-2.384,-2.3799,-2.3641,-2.3465,-2.3223,-2.3099,-2.2579,-2.2429,-2.2671,-2.2529,-2.2113,-2.1542,-2.137,-2.1328,-2.126,-2.1312,-2.1148,-2.1317,-2.1334,-2.1181,-2.1115,-2.116,-2.1345,-2.1658,-2.2294,-2.262,-2.2954,-2.3582,-2.3991,-2.4072,-2.4393,-2.4871,-2.5044,-2.5398,-2.5521,-2.5524,-2.5714,-2.5423,-2.5442,-2.5534,-2.5906,-2.6217,-2.6249,-2.593,-2.5981,-2.6056,-2.6024,-2.593,-2.5852,-2.603,-2.6056,-2.5966,-2.5976,-2.5937,-2.589,-2.5825,-2.5693,-2.5786,-2.5782,-2.5779,-2.5794,-2.5667,-2.5629,-2.5539,-2.5616,-2.5573,-2.5541,-2.5789,-2.5843,-2.5759,-2.5719,-2.5742,-2.5738,-2.5584,-2.5595,-2.5725,-2.5906,-2.5885,-2.5765,-2.5852,-2.6002,-2.5792,-2.5951,-2.583,-2.6021,-2.6078,-2.6179,-2.6181,-2.5914,-2.6179,-2.6152,-2.6127,-2.591,-2.5831,-2.5858,-2.5792,-2.5755,-2.5617,-2.5632,-2.5442,-2.5304,-2.5318,-2.5525,-2.5567,-2.5275,-2.5237,-2.503,-2.5036,-2.5224,-2.5334,-2.5488,-2.5491,-2.5582,-2.5354,-2.5271,-2.5294,-2.5409,-2.5325,-2.5674,-2.5682,-2.5433,-2.5355,-2.5204,-2.5108,-2.5142,-2.5215,-2.5251,-2.5097,-2.443,-2.4101,-2.478,-2.5252,-2.5383,-2.5356,-2.5326,-2.542,-2.538,-2.5435,-2.5413,-2.5463,-2.5317,-2.5155,-2.5271,-2.5456,-2.5605,-2.5703,-2.5747,-2.5836,-2.5835,-2.5796,-2.5765,-2.6031,-2.6042,-2.6078,-2.6036,-2.5544,-2.3925,-2.2048,-2.0056,-1.9086,-1.8769,-2.0645,-2.529,-3.0403,-3.1934,-3.0055,-2.8736,-2.795,-2.6926,-2.6403,-2.5997,-2.5831,-2.5902,-2.5936,-2.5734,-2.5679,-2.5707,-2.5533,-2.538,-2.5264,-2.5263,-2.5341,-2.5322,-2.5221,-2.509,-2.5188,-2.5138,-2.507,-2.5081,-2.5023,-2.5134,-2.4878,-2.4815,-2.495,-2.5074,-2.4937,-2.5017,-2.4783,-2.4764,-2.4786,-2.4531,-2.4418,-2.444,-2.4503,-2.4406,-2.4352,-2.4157,-2.3905,-2.3812,-2.359,-2.3485,-2.3267,-2.3022,-2.2908,-2.2629,-2.2258,-2.2161,-2.2002,-2.1956,-2.1862,-2.1861,-2.1537,-2.1312,-2.111,-2.1057,-2.0945,-2.1029,-2.1167,-2.1306,-2.1448,-2.1604,-2.1869,-2.2201,-2.2779,-2.3269,-2.3694,-2.4143,-2.4761,-2.5097,-2.5344,-2.5249,-2.5538,-2.5665,-2.5948,-2.599,-2.5904,-2.6039,-2.6055,-2.5989,-2.6164,-2.6299,-2.6233,-2.6067,-2.6144,-2.6086,-2.6109,-2.6094,-2.6039,-2.6171,-2.6103,-2.6107,-2.6199,-2.6048,-2.5968,-2.5891,-2.5765,-2.5845,-2.5831,-2.6004,-2.5787,-2.5669,-2.5618,-2.5758,-2.5766,-2.5486,-2.5673,-2.5699,-2.5793,-2.5665,-2.5578,-2.5505,-2.5635,-2.5624,-2.5576,-2.5352,-2.5404,-2.5577,-2.5623,-2.5449,-2.5471,-2.5481,-2.5682,-2.5401,-2.5508,-2.533,-2.5512,-2.549,-2.5317,-2.527,-2.5401,-2.537,-2.5166,-2.5517,-2.5524,-2.5605,-2.5405,-2.5344,-2.5278,-2.5162,-2.5186,-2.5244,-2.547,-2.5408,-2.5166,-2.5507,-2.5251,-2.5029,-2.4852,-2.4935,-2.4921,-2.4847,-2.4608,-2.4719,-2.4323,-2.4099,-2.3794,-2.4217,-2.4397,-2.4703,-2.4646,-2.4749,-2.4975,-2.5173,-2.525,-2.5289,-2.5087,-2.4977,-2.5081,-2.5052,-2.5346,-2.5292,-2.5255,-2.5137,-2.5107,-2.5218,-2.5208,-2.5125,-2.5092,-2.5304,-2.5421,-2.5052,-2.3604,-2.1631,-1.965,-1.8077,-1.7677,-1.9984,-2.4366,-2.9086,-2.9938,-2.8415,-2.7967,-2.7238,-2.6568,-2.5649,-2.5187,-2.4989,-2.4848,-2.5051,-2.5196,-2.4918,-2.4651,-2.4423,-2.4546,-2.4611,-2.458,-2.4501,-2.4337,-2.4541,-2.4667,-2.4622,-2.4646,-2.4416,-2.436,-2.4432,-2.4254,-2.415,-2.4202,-2.413,-2.4236,-2.4199,-2.4122,-2.3979,-2.3717,-2.3684,-2.3879,-2.3805,-2.3634,-2.3303,-2.3229,-2.3278,-2.3055,-2.2854,-2.2615,-2.2512,-2.2573,-2.2406,-2.2419,-2.2123,-2.1866,-2.1671,-2.1531,-2.1251,-2.0937,-2.0836,-2.0817,-2.0755,-2.0718,-2.0476,-2.0378,-2.0418,-2.0996,-2.1052,-2.0742,-2.0774,-2.0943,-2.1233,-2.1571,-2.2161,-2.2412,-2.2921,-2.3254,-2.3645,-2.3954,-2.4293,-2.4662,-2.4865,-2.4891,-2.5177,-2.5317,-2.5356,-2.5257,-2.5063,-2.4995,-2.5238,-2.5511,-2.5704,-2.5425,-2.5232,-2.5327,-2.5267,-2.5474,-2.5367,-2.5395,-2.5077,-2.5058,-2.5056,-2.4868,-2.4643,-2.4849,-2.5059,-2.5257,-2.5293,-2.4979,-2.4939,-2.4877,-2.4861,-2.4836,-2.4878,-2.4823,-2.4751,-2.4911,-2.4907,-2.5048,-2.5073,-2.4914,-2.477,-2.4747,-2.4896,-2.4945,-2.4945,-2.511,-2.5174,-2.5113,-2.4866,-2.5124,-2.4969,-2.5109,-2.5441,-2.52,-2.5101,-2.5088,-2.5149,-2.5201,-2.5028,-2.4856,-2.4662,-2.4551,-2.4541,-2.4308,-2.4634,-2.4743,-2.4742,-2.4521,-2.4091,-2.3878,-2.4328,-2.4601,-2.455,-2.4283,-2.4455,-2.4873,-2.486,-2.5,-2.4888,-2.5107,-2.5227,-2.5331,-2.5426,-2.5361,-2.5065,-2.5139,-2.54,-2.5317,-2.5233,-2.5247,-2.5324,-2.5233,-2.5091,-2.5202,-2.5311,-2.498,-2.3787,-2.1985,-2.0106,-1.8375,-1.8391,-2.1281,-2.5868,-2.9733,-2.9317,-2.7985,-2.7517,-2.6937,-2.6452,-2.5785,-2.5363,-2.5077,-2.5005,-2.4908,-2.5138,-2.4789,-2.4444,-2.4544,-2.4918,-2.4818,-2.4913,-2.4726,-2.4633,-2.4452,-2.4541,-2.4524,-2.4649,-2.4624,-2.4588,-2.4408,-2.4133,-2.3935,-2.4257,-2.4356,-2.4313,-2.4363,-2.4046,-2.3639,-2.367,-2.3967,-2.3936,-2.3775,-2.374,-2.3492,-2.3306,-2.3256,-2.2824,-2.2648,-2.279,-2.2596,-2.2545,-2.2261,-2.2033,-2.1626,-2.1442,-2.1482,-2.1541,-2.1414,-2.1059,-2.0877,-2.0974,-2.0909,-2.0971,-2.0697,-2.0705,-2.0811,-2.0745,-2.1124,-2.1001,-2.1029,-2.1188,-2.1927,-2.2386,-2.2834,-2.3388,-2.3483,-2.3721,-2.4281,-2.4572,-2.4815,-2.4877,-2.5139,-2.534,-2.5332,-2.5459,-2.5564,-2.5693,-2.5648,-2.5515,-2.5688,-2.5841,-2.5755,-2.5707,-2.5708,-2.5522,-2.5689,-2.5875,-2.5732,-2.5418,-2.5532,-2.5383,-2.5414,-2.5141,-2.51,-2.5288,-2.5414,-2.5451,-2.5448,-2.534,-2.5117,-2.5226,-2.5279,-2.5234,-2.5291,-2.5565,-2.5668,-2.5353,-2.5255,-2.5382,-2.5738,-2.5728,-2.5543,-2.5482,-2.5567,-2.5545,-2.5494,-2.572
