5.5885,5.5916,5.5893,5.5873,5.5733,5.5986,5.585,5.6095,5.5976,5.5917,5.5904,5.5809,5.5982,5.5963,5.5927,5.5933,5.5768,5.5795,5.593,5.5766,5.5786,5.5786,5.5683,5.5818,5.5761,5.5728,5.563,5.5814,5.5626,5.6066,5.6276,5.6502,5.6499,5.6687,5.6536,5.6393,5.6562,5.647,5.6671,5.6663,5.665,5.6433,5.6145,5.5857,5.5804,5.5801,5.5478,5.5539,5.5419,5.5388,5.5414,5.5385,5.558,5.5297,5.5399,5.5353,5.5081,5.5222,5.5329,5.533,5.5182,5.5339,5.5252,5.527,5.5093,5.5259,5.516,5.5334,5.576,5.6022,5.7135,5.8602,5.9997,6.1475,6.0627,5.7206,5.3842,5.3165,5.3447,5.4231,5.4887,5.5288,5.5514,5.5462,5.5608,5.5511,5.5497,5.5459,5.5564,5.5657,5.549,5.5475,5.5435,5.5463,5.5809,5.5621,5.548,5.5514,5.5685,5.5609,5.5657,5.5657,5.555,5.5576,5.5754,5.6003,5.576,5.5789,5.5771,5.589,5.5775,5.585,5.6052,5.5978,5.601,5.6111,5.6145,5.6259,5.6419,5.6315,5.6809,5.6704,5.6885,5.6845,5.6877,5.7106,5.7216,5.7035,5.7154,5.7119,5.7417,5.7228,5.7216,5.7188,5.7088,5.6963,5.6942,5.6533,5.6343,5.6217,5.5941,5.576,5.5731,5.5547,5.5482,5.5303,5.5317,5.5234,5.5156,5.5219,5.4999,5.5218,5.5213,5.4905,5.5008,5.5004,5.5024,5.4917,5.5059,5.5215,5.5199,5.5035,5.5017,5.4987,5.5069,5.5293,5.503,5.499,5.5045,5.5165,5.5106,5.5011,5.4962,5.4803,5.5048,5.4934,5.496,5.4979,5.4889,5.4873,5.4896,5.4795,5.4836,5.4798,5.4552,5.5082,5.5212,5.5432,5.5625,5.5448,5.5453,5.5644,5.5461,5.5568,5.5548,5.5765,5.5771,5.5863,5.5425,5.5257,5.4922,5.4928,5.4621,5.4558,5.4504,5.4402,5.4371,5.4318,5.4433,5.4394,5.4286,5.43,5.4297,5.4166,5.417,5.4077,5.4231,5.4204,5.416,5.423,5.4053,5.419,5.422,5.4104,5.4458,5.4972,5.5592,5.6887,5.8085,5.9633,6.0329,5.9433,5.6247,5.323,5.2476,5.218,5.2822,5.3643,5.4147,5.3965,5.4494,5.4319,5.4093,5.4261,5.4238,5.4258,5.4408,5.4345,5.4401,5.4448,5.4599,5.4446,5.446,5.4521,5.4281,5.4347,5.4417,5.4471,5.4441,5.4611,5.4597,5.4418,5.4676,5.4642,5.4709,5.4776,5.4767,5.4649,5.4752,5.4702,5.4743,5.4855,5.5067,5.517,5.5178,5.5469,5.5363,5.5555,5.5877,5.5723,5.5676,5.6009,5.6041,5.623,5.6147,5.6008,5.6201,5.6365,5.6253,5.6414,5.6225,5.6071,5.6051,5.5847,5.5656,5.567,5.5444,5.5305,5.4919,5.5011,5.4736,5.4668,5.4664,5.4603,5.4489,5.4214,5.4239,5.4471,5.4317,5.4449,5.4381,5.4297,5.451,5.4431,5.4554,5.4336,5.4241,5.4502,5.4636,5.4443,5.4376,5.4554,5.4519,5.4289,5.4479,5.4381,5.4573,5.4302,5.4558,5.4378,5.4589,5.4874,5.5052,5.5438,5.5409,5.5341,5.5542,5.5153,5.5348,5.549,5.5408,5.5771,5.5555,5.5347,5.5423,5.5154,5.4933,5.4615,5.4437,5.4423,5.4313,5.4417,5.4452,5.4525,5.4461,5.4402,5.4332,5.4362,5.4373,5.4341,5.4292,5.4109,5.4593,5.451,5.453,5.4463,5.4337,5.4419,5.4495,5.4394,5.4479,5.4901,5.5105,5.6306,5.787,5.9262,6.0507,5.9494,5.7886,5.5203,5.3214,5.2925,5.3071,5.3643,5.4408,5.506,5.4793,5.4877,5.502,5.5015,5.4887,5.4922,5.476,5.4939,5.4995,5.5143,5.5068,5.5253,5.5168,5.5387,5.5119,5.5195,5.515,5.5212,5.5216,5.5476,5.5331,5.5435,5.54,5.5656,5.5432,5.5594,5.5612,5.5659,5.5608,5.5658,5.574,5.5676,5.6131,5.6048,5.5954,5.6339,5.6259,5.6253,5.6429,5.6686,5.6775,5.6828,5.6851,5.6972,5.7074,5.6954,5.7017,5.7122,5.7147,5.6871,5.6914,5.6931,5.6791,5.627,5.6384,5.6237,5.6118,5.5889,5.5753,5.5718,5.5585,5.5357,5.5394,5.5412,5.5387,5.5224,5.5279,5.5253,5.5201,5.5283,5.5287,5.5223,5.5184,5.5225,5.5248,5.5226,5.5374,5.5039,5.5443,5.5272,5.5347,5.5367,5.5291,5.5313,5.5393,5.5391,5.5496,5.5487,5.5383,5.5503,5.5301,5.5682,5.5402,5.533,5.5423,5.5527,5.5713,5.5652,5.5925,5.6157,5.6159,5.6321,5.6467,5.6304,5.6048,5.6452,5.6369,5.6343,5.6215,5.6324,5.6145,5.5727,5.5455,5.5403,5.5475,5.5366,5.5297,5.5206,5.5268,5.5061,5.5289,5.5399,5.5134,5.5255,5.5195,5.5111,5.5209,5.5092,5.5235,5.5084,5.5189,5.5084,5.5055,5.5207,5.5046,5.5225,5.5768,5.6633,5.7066,5.8264,5.9743,6.1159,6.1054,5.7663,5.4622,5.3546,5.3448,5.3882,5.4625,5.5332,5.5563,5.541,5.5593,5.5526,5.551,5.5423,5.5584,5.5592,5.5691,5.5701,5.5552,5.5606,5.5879,5.5744,5.5668,5.5662,5.5813,5.5753,5.5766,5.5735,5.5834,5.5776,5.6132,5.5756,5.5979,5.5872,5.6006,5.6194,5.5937,5.6151,5.6252,5.6332,5.6285,5.6753,5.6595,5.6598,5.682,5.6935,5.6992,5.7192,5.723,5.7201,5.7502,5.7521,5.7504,5.7673,5.7819,5.7775,5.7828,5.7713,5.7794,5.7655,5.7834,5.7417,5.7187,5.7103,5.6971,5.6808,5.6471,5.6446,5.6169,5.6099,5.6059,5.6029,5.5846,5.5848,5.5679,5.5853,5.5732,5.5694,5.5659,5.5755,5.5676,5.5795,5.5831,5.5786,5.5612,5.5727,5.5679,5.5777,5.5659,5.5488,5.5704,5.5837,5.5811,5.5745,5.5685,5.5704,5.5565,5.5723,5.5573,5.5753,5.5588,5.5733,5.569,5.5821,5.5411,5.5578,5.5789,5.5941,5.604,5.618,5.6273,5.6485,5.6361,5.632,5.6379,5.6341,5.6129,5.6424,5.6498,5.6447,5.6063,5.5791,5.5689,5.5494,5.5195,5.5192,5.5174,5.5306,5.5287,5.5205,5.5164,5.5111,5.5135,5.5035,5.5075,5.4917,5.5153,5.5,5.5049,5.5029,5.5082,5.5231,5.5188,5.5197,5.5126,5.4881,5.5335,5.5698,5.6525,5.7479,5.9053,6.0785,6.1566,5.9201,5.5562,5.339,5.3158,5.3774,5.4485,5.5128,5.5302,5.5392,5.5565,5.5537,5.5403,5.5305,5.529,5.5644,5.5455,5.5489,5.5645,5.5617,5.5428,5.5519,5.55,5.558,5.566,5.5404,5.572,5.553,5.5514,5.5532,5.5817,5.5821,5.586,5.5718,5.5794,5.5811,5.5979,5.5857,5.5922,5.5893,5.6068,5.6218,5.6167,5.6432,5.6364,5.6458,5.6825,5.682,5.6742,5.6907,5.7211,5.7084,5.7091,5.7182,5.7335,5.7477,5.7508,5.7489,5.7307,5.7372,5.7426,5.7254,5.7103,5.6905,5.6646,5.6317,5.6247,5.6341,5.593,5.5588,5.5584,5.563,5.5504,5.5317,5.5428,5.545,5.5492,5.5609,5.5389,5.527,5.5279,5.5389,5.5314,5.5331,5.5411,5.5257,5.5409,5.5448,5.5269,5.5319,5.5325,5.543,5.5318,5.5485,5.5386,5.5271,5.5498,5.5354,5.5413,5.5319,5.5468,5.5387,5.5486,5.5441,5.5294,5.5409,5.5305,5.5498,5.5336,5.5483,5.5155,5.5397,5.545,5.5331,5.5278,5.522,5.5491,5.5467,5.586,5.6261,5.6158,5.6075,5.6254,5.6065,5.6034,5.6125,5.6094,5.6322,5.6255,5.6079,5.6,5.5658,5.5459,5.5308,5.5379,5.5118,5.5126,5.5166,5.5026,5.5101,5.528,5.5184,5.5069,5.4954,5.5044,5.4925,5.5004,5.4967,5.4942,5.5112,5.5162,5.4943,5.5028,5.5222,5.5081,5.5139,5.5396,5.5891,5.6306,5.7691,5.9053,6.0607,6.1409,5.9066,5.5435,5.3193,5.3156,5.3533,5.4277,5.502,5.5263,5.5152,5.5212,5.5391,5.5345,5.5315,5.5348,5.5573,5.5384,5.5462,5.5294,5.5516,5.5312,5.5532,5.5598,5.5623,5.5523,5.5507,5.5528,5.5527,5.5465,5.5616,5.5478,5.5688,5.566,5.5545,5.5731,5.5656,5.5756,5.5911,5.592,5.5781,5.5953,5.5946,5.6086,5.6288,5.6276,5.6258,5.6392,5.6553,5.6871,5.6714,5.6907,5.7099,5.7311,5.7178,5.7357,5.7177,5.7206,5.7407,5.7341,5.7404,5.7379,5.7168,5.6976,5.67,5.6594,5.6457,5.6206,5.629,5.5899,5.578,5.5575,5.5524,5.5527,5.5542,5.5239,5.5191,5.5358,5.5381,5.5235,5.5296,5.52,5.5274,5.5405,5.5252,5.5273,5.5193,5.5204,5.5417,5.5354,5.5234,5.5047,5.5243,5.5195,5.5356,5.5299,5.5267,5.535,5.5505,5.5473,5.5231,5.5126,5.5153,5.5198,5.5186,5.54,5.5285,5.5192,5.5143,5.5138,5.5352,5.5225,5.5211,5.5183,5.5287,5.5233,5.5235,5.5254,5.5112,5.5202,5.5223,5.5226,5.4947,5.5197,5.529,5.532,5.5312,5.5563,5.5677,5.5956,5.5864,5.599,5.6031,5.5795,5.5936,5.6158,5.6229,5.6036,5.5934,5.5854,5.5461,5.5315,5.5048,5.4933,5.4912,5.5054,5.4978,5.4815,5.4846,5.481,5.4881,5.4762,5.495,5.4958,5.4835,5.472,5.4789,5.4603,5.4791,5.4804,5.4733,5.4775,5.4672,5.4912,5.4732,5.4994,5.5465,5.632,5.7633,5.9171,6.0817,6.076,5.7755,5.4386,5.2932,5.2937,5.3446,5.4192,5.4893,5.5213,5.5051,5.5115,5.49,5.5144,5.5142,5.5177,5.509,5.5125,5.5175,5.5217,5.527,5.529,5.5309,5.5192,5.5218,5.5316,5.5278,5.5305,5.5205,5.5297,5.5314,5.5424,5.5338,5.5444,5.5476,5.5594,5.5642,5.5561,5.5627,5.5577,5.5807,5.5792,5.5827,5.5643,5.6175,5.5919,5.6321,5.6341,5.6322,5.6547,5.6656,5.6815,5.6961,5.6805,5.694,5.7096,5.7135,5.7133,5.6959,5.7004,5.6877,5.7113,5.6857,5.6665,5.6497,5.6347,5.6308,5.6192,5.5934,5.5683,5.5496,5.541,5.5185,5.5381,5.5194,5.5137,5.5081,5.5188,5.5043,5.4968,5.5245,5.4997,5.51,5.4792,5.48,5.479,5.4966,5.4973,5.4927,5.5007,5.4802,5.5099,5.5035,5.5048,5.4882,5.4867,5.5039,5.5016,5.5229,5.4953,5.5047,5.4931,5.4978,5.5015,5.491,5.4923,5.5115,5.4702,5.4837,5.4866,5.4798,5.4926,5.4821,5.5177,5.4857,5.4811,5.48,5.4958,5.4971,5.475,5.4719,5.4629,5.488,5.496,5.4825,5.4789,5.4869,5.4926,5.4997,5.5468,5.5621,5.5644,5.5734,5.5364,5.5622,5.548,5.5533,5.575,5.584,5.5739,5.5505,5.5374,5.5091,5.4914,5.4915,5.4601,5.4374,5.4511,5.4445,5.4489,5.4361,5.4373,5.4627,5.4379,5.4538,5.4427,5.4305,5.4263,5.4655,5.4407,5.4384,5.4224,5.4245,5.4362,5.4482,5.4326,5.4596,5.4825,5.5629,5.6597,5.7909,5.9732,6.0564,5.8832,5.5325,5.276,5.2267,5.2562,5.3297,5.4184,5.4491,5.4493,5.4477,5.4676,5.4612,5.474,5.4493,5.4534,5.4554,5.4556,5.4724,5.4707,5.4679,5.4871,5.4638,5.4654,5.4516,5.4553,5.4646,5.4905,5.4742,5.4738,5.4796,5.4909,5.4824,5.4852,5.4707,5.4932,5.4891,5.4978,5.5083,5.4975,5.4981,5.5343,5.5192,5.5534,5.5236,5.5438,5.5624,5.5823,5.5792,5.5985,5.5842,5.6012,5.6011,5.637,5.6292,5.6436,5.6371,5.6414,5.6612,5.6333,5.6482,5.6177,5.6204,5.5846,5.5577,5.5416,5.5341,5.5436,5.5144,5.4791,5.4527,5.4577,5.4523,5.447,5.4394,5.4386,5.4226,5.4153,5.4409,5.4227,5.4277,5.4183,5.434,5.4315,5.4324,5.3938,5.4131,5.4134,5.4105,5.4327,5.4219,5.4235,5.4199,5.4346,5.4241,5.4189,5.4192,5.4313,5.4358,5.412,5.4227,5.4139,5.4244,5.4201,5.4158,5.4267,5.4084,5.4172,5.4305,5.4092,5.421,5.4142,5.4157,5.4134,5.417,5.4019,5.4041,5.4012,5.409,5.4009,5.3968,5.3856,5.3919,5.4108,5.4042,5.3826,5.3862,5.3937,5.3867,5.3972,5.4207,5.4376,5.4465,5.4805,5.4622,5.4606,5.4729,5.4325,5.4636,5.4766,5.4909,5.4628,5.4631,5.4328,5.4053,5.4123,5.3825,5.3627,5.3547,5.3596,5.3651,5.3576,5.3395,5.353,5.3622,5.3335,5.3472,5.3547,5.3443,5.3563,5.3581,5.3309,5.3588,5.343,5.3448,5.3618,5.3437,5.3408,5.3674,5.4131,5.4786,5.6145,5.7432,5.917,5.9543,5.7051,5.3863,5.1976,5.1874,5.2113,5.2253,5.3126,5.3765,5.3924,5.3799,5.3835,5.3868,5.408,5.3772,5.4021,5.4116,5.4002,5.4289,5.3929,5.4103,5.4124,5.4177,5.4075,5.4157,5.4326,5.4324,5.4533,5.4327,5.4535,5.4474,5.4438,5.4595,5.4683,5.4365,5.4786,5.4734,5.4858,5.4819,5.4926,5.5001,5.5093,5.5048,5.5155,5.541,5.5462,5.5579,5.5615,5.5857,5.5698,5.5829,5.5951,5.602,5.6053,5.6119,5.621,5.6361,5.6286,5.6309,5.6268,5.6261,5.6271,5.6148,5.5783,5.5601,5.5638,5.5559,5.5384,5.5179,5.4825,5.478,5.4645,5.4789,5.4626,5.4611,5.4432,5.4247,5.4523,5.4441,5.4382,5.4423,5.4321,5.4489,5.4443,5.4216,5.431,5.4418,5.4444,5.4442,5.4373,5.4298,5.4441,5.441,5.4437,5.4609,5.4462,5.4447,5.4513,5.466,5.4452,5.4437,5.432,5.4428,5.4457,5.4246,5.4607,5.4468,5.4544,5.4773,5.4791,5.466,5.4943,5.5135,5.5186,5.534,5.5389,5.5315,5.5644,5.5366,5.5492,5.5619,5.5314,5.5266,5.5055,5.4728,5.4539,5.4446,5.4452,5.4258,5.4221,5.4535,5.4265,5.4279,5.4219,5.4226,5.4086,5.4285,5.4194,5.4104,5.4329,5.4309,5.4092,5.4159,5.4202,5.4216,5.4141,5.4247,5.4274,5.3992,5.4461,5.4582,5.5361,5.6498,5.7836,5.9206,6.0424,5.8837,5.5278,5.3078,5.2843,5.2756,5.2948,5.3737,5.4372,5.4631,5.4632,5.4653,5.4421,5.447,5.4451,5.456,5.4552,5.448,5.4676,5.465,5.4754,5.4716,5.4543,5.4716,5.4487,5.4715,5.4748,5.4761,5.4746,5.4826,5.4895,5.4808,5.4896,5.49,5.4988,5.517,5.4942,5.4994,5.4968,5.5167,5.5301,5.5374,5.5314,5.5345,5.5505,5.5706,5.5709,5.5939,5.5915,5.6135,5.6095,5.6314,5.6325,5.6327,5.6377,5.6423,5.6649,5.6514,5.652,5.6502,5.6322,5.6188,5.6089,5.5872,5.5793,5.5473,5.542,5.5228,5.4987,5.4937,5.4816,5.4503,5.4565,5.4384,5.4503,5.4492,5.4465,5.4399,5.4261,5.4324,5.4324,5.4315,5.4266,5.4355,5.4223,5.4374,5.4353,5.424,5.4496,5.4234,5.4369,5.4419,5.4477,5.4406,5.4403,5.4459,5.4619,5.4573,5.4548,5.4525,5.451,5.4421,5.4504,5.4584,5.4482,5.4497,5.4582,5.4456,5.4635,5.4648,5.4528,5.4627,5.4566,5.4453,5.4364,5.4574,5.4764,5.4782,5.5202,5.5213,5.5493,5.5447,5.5324,5.5437,5.52,5.5431,5.5328,5.5479,5.5335,5.5287,5.5103,5.4812,5.4782,5.4518,5.4492,5.4395,5.4351,5.4471,5.4249,5.4212,5.4324,5.4343,5.4393,5.4247,5.4397,5.4371,5.4226,5.4156,5.4247,5.4233,5.3967,5.4323,5.4299,5.4224,5.4216,5.4544,5.4927,5.5669,5.6926,5.8299,6.0015,6.039,5.7699,5.5878,5.2872,5.1927,5.241,5.2859,5.3993,5.4232,5.4272,5.4122,5.4215,5.4149,5.4331,5.422,5.4409,5.4359,5.4439,5.4433,5.4404,5.4201,5.4508,5.4204,5.4539,5.4362,5.4447,5.4427,5.4374,5.4487,5.4522,5.4552,5.4807,5.4775,5.4629,5.4584,5.4777,5.4806,5.4752,5.4798,5.4822,5.4967,5.4984,5.5121,5.5221,5.5153,5.5265,5.5349,5.5711,5.5652,5.5811,5.5641,5.6009,5.6116,5.6116,5.6158,5.623,5.6506,5.6395,5.6248,5.6207,5.6169,5.5973,5.5886,5.5642,5.5649,5.5404,5.5183,5.4953,5.4799,5.4636,5.4453,5.4405,5.4505,5.4475,5.4179,5.4216,5.4415,5.4253,5.4217,5.4133,5.4298,5.4294,5.4292,5.4111,5.4308,5.4191,5.4181,5.427,5.4536,5.4223,5.4281,5.4431,5.4236,5.4275,5.4306,5.4311,5.4233,5.4228,5.4231,5.4224,5.4422,5.4167,5.4366,5.429,5.4172,5.4184,5.4263,5.4324,5.4636,5.4719,5.4822,5.5045,5.5106,5.5089,5.5265,5.495,5.4868,5.4841,5.5117,5.518,5.4991,5.4869,5.4482,5.4378,5.4126,5.4018,5.4113,5.3936,5.3875,5.3901,5.3799,5.3842,5.3915,5.3972,5.3955,5.4009,5.3914,5.4036,5.3885,5.4091,5.4051,5.3899,5.4086,5.4055,5.4203,5.4038,5.4084,5.4541,5.4953,5.5874,5.7343,5.8753,6.0178,6.0079,5.6561,5.3014,5.2013,5.2094,5.2666,5.3715,5.4299,5.4258,5.4262,5.4344,5.4205,5.4178,5.4097,5.4347,5.4332,5.4162,5.4374,5.4434,5.4473,5.4365,5.4453,5.4547,5.4445,5.4309,5.4403,5.4596,5.4533,5.443,5.4468,5.4541,5.4685,5.4741,5.4544,5.4663,5.4706,5.4735,5.4711,5.4795,5.4952,5.4987,5.5177,5.516,5.5378,5.5318,5.5518,5.5665,5.5843,5.5863,5.6114,5.6059,5.6357,5.6416,5.6318,5.6451,5.6417,5.6659,5.6656,5.6557,5.6478,5.6361,5.6171,5.6045,5.5875,5.5801,5.5452,5.5234,5.5141,5.4939,5.4977,5.4628,5.4828,5.4574,5.4448,5.4575,5.4536,5.4694,5.4408,5.443,5.4383,5.4541,5.4378,5.4522,5.4346,5.4407,5.4368,5.4523,5.4469,5.4563,5.439,5.4519,5.4536,5.4438,5.4407,5.4508,5.4467,5.4518,5.4607,5.4699,5.4535,5.4419,5.4415,5.4423,5.4511,5.4529,5.4513,5.4435,5.4564,5.4668,5.4781,5.4985,5.4966,5.5448,5.5357,5.5152,5.5318,5.5186,5.5128,5.5345,5.5492,5.5305,5.5187,5.5015,5.4702,5.4543,5.4328,5.4239,5.4188,5.4167,5.4269,5.4185,5.421,5.4165,5.4219,5.4144,5.4043,5.3929,5.406,5.4151,5.4158,5.4016,5.4022,5.4137,5.4258,5.4403,5.4042,5.3979,5.4377,5.4585,5.53,5.6551,5.7842,5.9307,6.0444,5.8771,5.5151,5.252,5.2174,5.2535,5.3209,5.3969,5.4337,5.4408,5.4355,5.4315,5.4281,5.4305,5.4106,5.4346,5.4268,5.4504,5.4461,5.4526,5.4372,5.4427,5.4431,5.4481,5.4559,5.4529,5.4506,5.4473,5.4542,5.4567,5.47,5.4628,5.4687,5.4835,5.4698,5.4538,5.4931,5.473,5.4793,5.4807,5.4927,5.4992,5.5056,5.5133,5.5253,5.5395,5.545,5.5493,5.5656,5.5783,5.5802,5.5902,5.6016,5.6038,5.6186,5.621,5.6338,5.6583,5.6368,5.6162,5.611,5.6029,5.5957,5.5793,5.5467,5.5363,5.521,5.513,5.4919,5.4708,5.4577,5.4398,5.4322,5.4323,5.4391,5.4345,5.422,5.3983,5.4309,5.4208,5.3991,5.4083,5.4081,5.416,5.4038,5.4156,5.419,5.4116,5.415,5.4167,5.4202,5.4018,5.4199,5.4366,5.3938,5.4071,5.407,5.427,5.4147,5.4289,5.4097,5.4114,5.4431,5.4102,5.413,5.4212,5.4582,5.4506,5.4971,5.5019,5.4976,5.5073,5.5074,5.5006,5.4995,5.4805,5.4904,5.5121,5.5056,5.483,5.4499,5.4306,5.4157,5.3986,5.405,5.4,5.391,5.3847,5.4039,5.3862,5.3846,5.4066,5.3771,5.4007,5.3737,5.3716,5.3806,5.3685,5.3917,5.3883,5.3734,5.4012,5.3916,5.382,5.3967,5.4348,5.4809,5.5801,5.7047,5.8613,6.0272,5.9194,5.6623,5.3124,5.2596,5.261,5.2558,5.3292,5.3811,5.4502,5.4419,5.4379,5.4428,5.4491,5.4487,5.4549,5.4379,5.4562,5.4615,5.4508,5.4635,5.4641,5.4673,5.5005,5.4744,5.4871,5.4678,5.4658,5.4606,5.4922,5.4917,5.4924,5.4827,5.5108,5.4998,5.5287,5.5101,5.5175,5.5183,5.5244,5.5644,5.5443,5.5621,5.5495,5.5723,5.5587,5.6015,5.5961,5.6059,5.6133,5.6044,5.6431,5.6297,5.6424,5.669,5.651,5.6604,5.6683,5.665,5.6687,5.6725,5.654,5.6533,5.6302,5.6088,5.5939,5.5824,5.5557,5.5508,5.5431,5.5302,5.5215,5.527,5.5095,5.4988,5.5134,5.4944,5.4916,5.5044,5.5028,5.5009,5.5082,5.4973,5.4923,5.4962,5.4932,5.5033,5.5092,5.5087,5.5009,5.4988,5.4984,5.5115,5.5168,5.5044,5.517,5.5258,5.5391,5.5508,5.5724,5.5912,5.5852,5.5845,5.5846,5.5808,5.5795,5.58,5.5942,5.5807,5.5761,5.5659,5.5407,5.5105,5.4991,5.4784,5.4745,5.4601,5.4458,5.4408,5.44,5.442,5.4305,5.4336,5.4195,5.4191,5.4245,5.4073,5.4106,5.3954,5.3878,5.4141,5.4052,5.4087,5.4078,5.4091,5.4033,5.4161,5.431,5.461,5.5574,5.6883,5.837,6.0049,5.9714,5.6377,5.3143,5.203,5.192,5.2335,5.3175,5.3773,5.402,5.3985,5.3736,5.3809,5.3774,5.3766,5.402,5.3861,5.3807,5.3643,5.3768,5.3751,5.3806,5.3706,5.3782,5.3705,5.3739,5.3602,5.3593,5.3663,5.3721,5.38,5.3836,5.3739,5.3639,5.3737,5.3875,5.3823,5.3919,5.3961,5.4183,5.4187,5.4154,5.4083,5.4238,5.4459,5.4472,5.4636,5.4693,5.4962,5.5062,5.5308,5.5381,5.5415,5.5464,5.5431,5.5461,5.5625,5.5582,5.5672,5.5581,5.5577,5.5347,5.5297,5.5125,5.4816,5.4639,5.4405,5.4442,5.4253,5.3948,5.3981,5.404,5.3771,5.3741,5.3722,5.3836,5.3906,5.3932,5.3798,5.3706,5.3817,5.373,5.3883,5.3768,5.3797,5.389,5.3889,5.386,5.3676,5.3734,5.3697,5.3864,5.3933,5.3924,5.3865,5.3878,5.4031,5.3995,5.4083,5.4068,5.3978,5.401,5.4087,5.4085,5.4328,5.4643,5.4771,5.4823,5.4765,5.4784,5.4739,5.4746,5.4638,5.4876,5.4664,5.4632,5.4763,5.4403,5.4122,5.3961,5.3863,5.3789,5.3771,5.3702,5.3719,5.3613,5.3688,5.3747,5.3747,5.3758,5.3623,5.367,5.3627,5.3616,5.3631,5.3646,5.3823,5.3758,5.3924,5.3894,5.378,5.3783,5.4208,5.4491,5.5485,5.6876,5.836,5.9814,6.0076,5.7137,5.3765,5.1986,5.2089,5.257,5.3356,5.3892,5.4163,5.4211,5.4124,5.4104,5.3989,5.4091,5.4251,5.4169,5.4138,5.4033,5.4014,5.4152,5.4178,5.419,5.4213,5.4294,5.4168,5.4204,5.4207,5.4297,5.4196,5.4206,5.4247,5.4434,5.4233,5.4377,5.4544,5.4476,5.4428,5.4478,5.4519,5.4726,5.4736,5.4818,5.4871,5.4927,5.5055,5.5277,5.5327,5.5429,5.5528,5.5819,5.5751,5.5536,5.5507,5.5701,5.5888,5.598,5.6092,5.5926,5.5925,5.5883,5.6137,5.6279,5.5861,5.5479,5.5208,5.5101,5.4862,5.4465,5.4561,5.419,5.4135,5.4218,5.4152,5.4114,5.4024,5.3977,5.3987,5.3964,5.3945,5.3923,5.3923,5.3924,5.3804,5.4004,5.3945,5.3984,5.4022,5.3938,5.3998,5.3925,5.4107,5.4087,5.4024,5.4008,5.4003,5.4171,5.4147,5.4147,5.4097,5.4125,5.4224,5.4414,5.416,5.41,5.4211,5.4178,5.4241,5.439,5.4194,5.421,5.425,5.3955,5.3965,5.4121,5.4059,5.3925,5.3951,5.3981,5.3945,5.3975,5.3853,5.4101,5.426,5.4592,5.4573,5.4722,5.4764,5.4734,5.4743,5.4794,5.4781,5.4788,5.4878,5.4907,5.4974,5.4739,5.4471,5.4076,5.4,5.3867,5.366,5.3615,5.3514,5.353,5.3609,5.3561,5.349,5.3461,5.3555,5.3498,5.3521,5.3474,5.3456,5.3449,5.3375,5.3361,5.3305,5.342,5.3509,5.3534,5.3558,5.3764,5.4446,5.5585,5.6989,5.849,5.9896,5.9235,5.562,5.2208,5.1377,5.1648,5.242,5.3339,5.3732,5.3852,5.3803,5.39,5.3945,5.4091,5.4039,5.3968,5.4,5.4071,5.4024,5.4025,5.3964,5.4079,5.4128,5.4204,5.412,5.4091,5.4135,5.425,5.4141,5.4141,5.4167,5.4161,5.4348,5.4369,5.4328,5.4365,5.4346,5.4427,5.46,5.4595,5.4542,5.4486,5.472,5.4813,5.4953,5.5021,5.5192,5.512,5.5137,5.5281,5.5509,5.5614,5.5652,5.5811,5.5881,5.5889,5.5956,5.6068,5.6219,5.6034,5.6064,5.5904,5.5781,5.5634,5.534,5.5112,5.5059,5.4791,5.4734,5.4653,5.4449,5.4109,5.4181,5.4037,5.399,5.3913,5.378,5.3701,5.3789,5.3895,5.3859,5.3773,5.379,5.3863,5.391,5.3713,5.3745,5.3861,5.3933,5.3871,5.3767,5.3888,5.391,5.3876,5.4012,5.3978,5.396,5.3921,5.3887,5.3958,5.3901,5.3883,5.3882,5.3966,5.3864,5.383,5.3741,5.3723,5.3796,5.3927,5.3923,5.3867,5.3795,5.3853,5.3808,5.3767,5.3583,5.3642,5.3697,5.3754,5.384,5.3766,5.3734,5.3828,5.3711,5.3769,5.4074,5.4428,5.459,5.4591,5.4588,5.4476,5.4459,5.4442,5.4482,5.448,5.4709,5.4598,5.4543,5.4403,5.4042,5.3932,5.3648,5.3656,5.3621,5.3557,5.3406,5.3376,5.3503,5.3551,5.359,5.3252,5.3174,5.3264,5.3333,5.3356,5.3304,5.327,5.3185,5.3328,5.338,5.3419,5.3358,5.3222,5.336,5.3732,5.4385,5.54,5.6693,5.8486,5.9985,5.8954,5.5567,5.211,5.1352,5.1585,5.2045,5.2464,5.3118,5.3643,5.3563,5.3628,5.3476,5.3676,5.3515,5.3598,5.3578,5.3669,5.368,5.3816,5.3864,5.3856,5.3584,5.3744,5.3716,5.3903,5.3878,5.3826,5.3744,5.3752,5.3936,5.3891,5.3901,5.3988,5.3889,5.3913,5.4033,5.4031,5.3989,5.4038,5.4133,5.4174,5.4265,5.4415,5.4507,5.469,5.4683,5.4693,5.4879,5.4956,5.5141,5.5387,5.5353,5.5307,5.5223,5.5368,5.5482,5.5477,5.5426,5.5443,5.5489,5.5407,5.538,5.5176,5.4926,5.4879,5.4595,5.4327,5.4124,5.4082,5.4066,5.3995,5.3845,5.3689,5.3656,5.3706,5.3582,5.3606,5.3524,5.3517,5.3446,5.3477,5.3618,5.3424,5.3439,5.3515,5.3574,5.3474,5.3596,5.3612,5.3524,5.3486,5.362,5.3676,5.3596,5.3585,5.3822,5.3672,5.3811,5.3657,5.39,5.3828,5.3809,5.3818,5.3923,5.37,5.3579,5.3752,5.3787,5.3717,5.3691,5.3717,5.3683,5.3943,5.4161,5.4257,5.4467,5.4539,5.475,5.4671,5.4516,5.4592,5.4559,5.4494,5.4572,5.4538,5.4451,5.4138,5.3975,5.3785,5.3566,5.3606,5.3577,5.3546,5.3471,5.3437,5.3432,5.3535,5.3367,5.3492,5.3498,5.3425,5.3414,5.3463,5.3389,5.3374,5.3363,5.3444,5.3499,5.341,5.3431,5.3399,5.3692,5.3963,5.4328,5.5158,5.6559,5.815,5.9626,5.9189,5.634,5.3098,5.2193,5.195,5.2298,5.2802,5.3485,5.3915,5.3963,5.4027,5.3819,5.3891,5.3875,5.4137,5.4308,5.4314,5.4183,5.4295,5.4301,5.4376,5.4364,5.4472,5.4452,5.4495,5.4488,5.4442,5.4643,5.4804,5.4742,5.4637,5.4733,5.4958,5.4918,5.4897,5.4884,5.4984,5.4922,5.5151,5.5167,5.5596,5.6129,5.6317,5.6571,5.6788,5.7065,5.713,5.7401,5.7647,5.785,5.8336,5.8565,5.8921,5.9054,5.9195,5.9405,5.9555,5.9702,5.997,5.9791,5.9903,5.9757,5.9405,5.9287,5.9293,5.9444,5.9508,5.9196,5.9019,5.8917,5.8875,5.9006,5.8911,5.8801,5.8418,5.853,5.8703,5.8593,5.8426,5.8596,5.8683,5.8534,5.8378,5.8245,5.8335,5.8659,5.8386,5.8384,5.8253,5.8089,5.8007,5.8011,5.7934,5.7904,5.7616,5.7525,5.765,5.751,5.7412,5.7445,5.7546,5.7883,5.781,5.7718,5.8002,5.7858,5.7875,5.7592,5.7379,5.7537,5.7369,5.7244,5.6857,5.6477,5.6416,5.6125,5.6018,5.5829,5.574,5.5641,5.5717,5.5849,5.5441,5.5287,5.5254,5.5399,5.538,5.5416,5.5316,5.5051,5.519,5.5304,5.5272,5.5159,5.5337,5.5329,5.519,5.5525,5.5706,5.6194,5.7216,5.8087,5.9454,6.1204,6.2043,5.9222,5.6069,5.4368,5.4294,5.4334,5.4562,5.5524,5.6022,5.6129,5.5957,5.5853,5.5929,5.6045,5.5905,5.5921,5.6078,5.6335,5.6174,5.6246,5.629,5.6417,5.6549,5.6654,5.6534,5.6664,5.6818,5.6886,5.6915,5.6944,5.7096,5.7198,5.7306,5.7192,5.7151,5.7126,5.7246,5.7411,5.7583,5.7679,5.7691,5.7728,5.775,5.8077,5.8078,5.8629,5.8551,5.8802,5.9152,5.9063,5.9193,5.9265,5.953,5.9742,5.9804,5.9951,6.0002,5.9956,5.994,6.0029,6.0156,6.0115,6.0087,5.9833,5.971,5.9516,5.9443,5.9407,5.9539,5.96,5.9821,5.9605,5.9625,5.9871,6.0205,6.0078,6.0431,6.0789,6.0779,6.0918,6.1243,6.1333,6.1271,6.1454,6.169,6.1858,6.2139,6.2392,6.2316,6.2379,6.2672,6.324,6.2865,6.2692,6.3139,6.3447,6.376,6.379,6.39,6.413,6.431,6.4114,6.417,6.4232,6.4225,6.456,6.4712,6.4594,6.4459,6.4675,6.4404,6.4409,6.4254,6.3576,6.3826,6.4003,6.4019,6.3806,6.3793,6.369,6.374,6.3803,6.3667,6.3643,6.3677,6.3439,6.3268,6.3375,6.3352,6.341,6.321,6.3073,6.292,6.3258,6.3204,6.336,6.4059,6.5064,6.6284,6.7929,6.8813,6.7039,6.3075,6.1367,5.9952,6.0035,6.0727,6.1528,6.2365,6.2057,6.2127,6.1916,6.1975,6.171,6.2117,6.1809,6.1788,6.1801,6.1658,6.1728,6.1899,6.1882,6.1842,6.2042,6.2109,6.2084,6.212,6.2292,6.2073,6.2079,6.2446,6.2271,6.2373,6.238,6.2531,6.2524,6.264,6.2728,6.2647,6.2529,6.2918,6.3047,6.3174,6.312,6.3057,6.3142,6.3404,6.3589,6.3447,6.3379,6.3437,6.3557,6.3482,6.3656,6.36,6.3644,6.3786,6.3788,6.3571,6.3442,6.3334,6.3228,6.3019,6.2878,6.2683,6.2387,6.2255,6.2227,6.2123,6.2145,6.1933,6.2071,6.1971,6.1949,6.1938,6.1884,6.1956,6.2002,6.1995,6.218,6.2143,6.2265,6.2246,6.2365,6.2416,6.2571,6.2696,6.2664,6.273,6.2746,6.2777,6.2864,6.2905,6.3046,6.3179,6.3068,6.3005,6.3266,6.3419,6.3738,6.3877,6.4024,6.4212,6.4284,6.3958,6.392,6.3868,6.3863,6.3867,6.4137,6.4064,6.3705,6.3746,6.3424,6.3262,6.2876,6.262,6.2904,6.2767,6.2556,6.2585,6.2677,6.2781,6.2658,6.2614,6.2476,6.2338,6.2448,6.2558,6.2483,6.2526,6.2541,6.2342,6.2302,6.2411,6.2257,6.2373,6.2567,6.3052,6.3846,6.4471,6.5848,6.8358,6.8668,6.5897,6.2282,6.0479,6.0496,6.0835,6.1609,6.2232,6.2653,6.269,6.2666,6.2851,6.2671,6.2837,6.2591,6.2832,6.2984,6.2953,6.2816,6.2843,6.2937,6.2947,6.2997,6.3058,6.2896,6.2871,6.303,6.3006,6.2915,6.2959,6.3091,6.3175,6.2965,6.3114,6.3347,6.3472,6.3259,6.3207,6.3413,6.3448,6.3467,6.3766,6.3756,6.3799,6.3934,6.4168,6.4117,6.4069,6.4381,6.4333,6.4342,6.4518,6.4659,6.4667,6.4767,6.4834,6.49,6.499,6.4792,6.4823,6.4702,6.4608,6.4411,6.4177,6.4022,6.3647,6.3649,6.3647,6.3458,6.337,6.3291,6.3137,6.3216,6.3177,6.3018,6.2937,6.293,6.2966,6.29,6.2973,6.3115,6.308,6.2796,6.2726,6.2751,6.2732,6.3174,6.2958,6.29,6.276,6.269,6.2789,6.2908,6.2929,6.2973,6.294,6.2928,6.2936,6.2875,6.2879,6.2856,6.2958,6.3432,6.3473,6.359,6.3557,6.3711,6.3738,6.3726,6.3537,6.348,6.3775,6.3844,6.3651,6.3368,6.3203,6.2794,6.2787,6.2615,6.277,6.2856,6.2303,6.2351,6.2403,6.2364,6.2615,6.251,6.2449,6.2408,6.2298,6.2418,6.2325,6.243,6.2543,6.2481,6.2439,6.2471,6.2425,6.2428,6.2354,6.2488,6.31,6.3966,6.5472,6.6774,6.8255,6.8304,6.5588,6.2147,6.0755,6.061,6.0825,6.1667,6.1977,6.2449,6.2655,6.2561,6.2523,6.2549,6.2587,6.2664,6.2773,6.2688,6.2727,6.2728,6.2655,6.2899,6.2668,6.2945,6.3053,6.2538,6.2621,6.2757,6.29,6.2868,6.2929,6.2748,6.2673,6.284,6.2917,6.2895,6.2878,6.3234,6.3186,6.3036,6.3071,6.3041,6.3251,6.3216,6.3215,6.3323,6.3397,6.3479,6.3611,6.3767,6.3898,6.3975,6.3804,6.3863,6.3937,6.3899,6.4066,6.4318,6.4069,6.3983,6.4278,6.3914,6.3522,6.3494,6.3469,6.3422,6.3082,6.2961,6.2974,6.2905,6.2913,6.2878,6.2649,6.2362,6.245,6.2473,6.2248,6.2009,6.2414,6.2309,6.2182,6.2338,6.2212,6.2162,6.2078,6.2123,6.2185,6.2033,6.2082,6.2087,6.2077,6.2042,6.1999,6.2036,6.1984,6.1958,6.2033,6.1942,6.1841,6.1967,6.2302,6.223,6.2411,6.269,6.2738,6.2883,6.3,6.2632,6.2264,6.2287,6.2565,6.2588,6.2241,6.2221,6.2238,6.1886,6.1675,6.192,6.1649,6.12,6.1486,6.1564,6.1477,6.131,6.1281,6.1391,6.1276,6.1321,6.1244,6.1163,6.1118,6.1272,6.119,6.1363,6.1425,6.0812,6.0989,6.1201,6.1189,6.1339,6.1924,6.2884,6.4086,6.5653,6.7401,6.7367,6.4146,6.0729,5.8908,5.9019,5.9715,6.0806,6.152,6.1683,6.1346,6.1303,6.1479,6.1618,6.1593,6.145,6.1249,6.1413,6.1652,6.1475,6.1632,6.146,6.1498,6.1438,6.1578,6.1681,6.1393,6.1541,6.1741,6.1797,6.1632,6.1665,6.199,6.1831,6.1511,6.177,6.1779,6.1933,6.2112,6.2133,6.1901,6.2019,6.2305,6.2262,6.2357,6.2309,6.25,6.2681,6.2729,6.2781,6.2934,6.3221,6.3293,6.308,6.3135,6.3221,6.3275,6.3355,6.3353,6.3241,6.3551,6.3237,6.299,6.283,6.2625,6.2631,6.2416,6.2193,6.2028,6.1891,6.1719,6.1679,6.1837,6.1737,6.1372,6.1558,6.1635,6.1464,6.1513,6.1288,6.1434,6.1419,6.1276,6.1363,6.143,6.1526,6.1488,6.1323,6.1423,6.1524,6.1399,6.13,6.1451,6.1749,6.1731,6.1689,6.1544,6.1578,6.1707,6.1737,6.164,6.1529,6.1558,6.1627,6.1692,6.1761,6.1782,6.199,6.231,6.2621,6.2435,6.2344,6.2231,6.2263,6.223,6.2458,6.2636,6.2463,6.2335,6.2101,6.1747,6.1586,6.1449,6.1366,6.1398,6.1341,6.135,6.1223,6.121,6.1362,6.1281,6.1316,6.1151,6.1135,6.1399,6.1252,6.1237,6.1293,6.1174,6.1262,6.1052,6.107,6.1138,6.1109,6.135,6.1763,6.2519,6.3667,6.5176,6.6955,6.7792,6.5509,6.1659,5.9015,5.9003,5.9613,6.0469,6.1027,6.1533,6.1335,6.1271,6.1433,6.113,6.1344,6.14,6.1354,6.151,6.1579,6.1408,6.1425,6.1595,6.1591,6.1497,6.1516,6.1347,6.1554,6.175,6.1638,6.1445,6.1704,6.1803,6.1784,6.1793,6.192,6.172,6.1816,6.188,6.1825,6.1903,6.1941,6.2128,6.2308,6.2249,6.2334,6.2289,6.244,6.2524,6.2736,6.2923,6.2682,6.2748,6.2805,6.2981,6.295,6.3064,6.3156,6.3271,6.3244,6.3259,6.3194,6.3204,6.3007,6.2809,6.2584,6.2387,6.2375,6.2241,6.1932,6.1669,6.1707,6.1571,6.1425,6.1482,6.1425,6.1077,6.1126,6.137,6.1292,6.113,6.1091,6.107,6.1268,6.125,6.109,6.1168,6.1153,6.1236,6.1149,6.1262,6.1086,6.1145,6.1304,6.1295,6.1202,6.1154,6.1296,6.1159,6.1246,6.1193,6.1127,6.1203,6.1164,6.128,6.1306,6.1233,6.1189,6.1386,6.1509,6.1413,6.1203,6.1444,6.1324,6.1196,6.1289,6.1153,6.1319,6.1646,6.156,6.1883,6.2049,6.2115,6.224,6.2071,6.1923,6.1876,6.1982,6.1881,6.2288,6.2339,6.1848,6.1538,6.1224,6.1178,6.1194,6.1078,6.0899,6.0961,6.0867,6.0957,6.1076,6.0752,6.0876,6.0948,6.0786,6.0851,6.0922,6.0813,6.0879,6.0817,6.0689,6.0854,6.0972,6.0873,6.0893,6.0878,6.1137,6.1328,6.2018,6.321,6.4642,6.6153,6.728,6.5635,6.2072,5.9295,5.8792,5.9239,5.9879,6.0671,6.1096,6.1186,6.1129,6.1168,6.1401,6.151,6.1397,6.1275,6.1115,6.1202,6.1238,6.1449,6.1583,6.1445,6.1243,6.1418,6.1522,6.1413,6.1488,6.1546,6.1507,6.1518,6.146,6.144,6.1868,6.1591,6.1456,6.1579,6.1464,6.177,6.163,6.1626,6.1698,6.1756,6.1913,6.2176,6.2129,6.2221,6.2368,6.2358,6.2556,6.2669,6.2577,6.2707,6.2874,6.3019,6.2942,6.2957,6.2969,6.3021,6.3058,6.3128,6.3034,6.2946,6.273,6.2695,6.2495,6.225,6.2216,6.1877,6.1804,6.163,6.1433,6.142,6.1256,6.1232,6.107,6.1212,6.126,6.0911,6.1054,6.1032,6.1107,6.1093,6.0959,6.1185,6.1095,6.1011,6.1035,6.0978,6.0859,6.1117,6.1168,6.1024,6.1011,6.122,6.1282,6.0973,6.1011,6.11,6.108,6.0943,6.0921,6.0993,6.0982,6.0958,6.1072,6.1064,6.0932,6.1141,6.1108,6.1016,6.0951,6.0772,6.0803,6.0932,6.0823,6.0893,6.0848,6.0979,6.0951,6.0738,6.0773,6.0788,6.0959,6.0694,6.0702,6.0742,6.0938,6.0861,6.1125,6.1568,6.16,6.1555,6.1521,6.1584,6.1549,6.1409,6.1406,6.1621,6.1652,6.1649,6.1821,6.1303,6.0989,6.0795,6.0682,6.0677,6.0676,6.0567,6.0617,6.0404,6.0536,6.055,6.0376,6.0451,6.042,6.0309,6.039,6.0351,6.0489,6.0609,6.063,6.0367,6.0323,6.027,6.0148,6.0295,6.0542,6.1027,6.1785,6.3262,6.4769,6.6338,6.6605,6.3854,6.0292,5.8397,5.8355,5.8905,5.947,6.024,6.062,6.0618,6.0615,6.0496,6.0455,6.0541,6.0762,6.0905,6.0682,6.0633,6.0745,6.0724,6.0681,6.0699,6.0778,6.0762,6.0845,6.0901,6.0732,6.0777,6.0929,6.0997,6.091,6.1034,6.088,6.1021,6.1029,6.1032,6.0905,6.0898,6.1035,6.0927,6.1137,6.1408,6.1292,6.1369,6.1511,6.1622,6.166,6.194,6.1994,6.1991,6.2131,6.2161,6.2063,6.2205,6.2394,6.244,6.2526,6.2474,6.2474,6.2524,6.2308,6.2281,6.223,6.1827,6.1814,6.1662,6.1521,6.1216,6.0951,6.0992,6.0942,6.0942,6.0693,6.0583,6.0646,6.0519,6.0353,6.0461,6.0471,6.0446,6.0449,6.0299,6.0211,6.0095,6.0194,6.0198,6.0197,6.0528,6.0291,6.0175,6.0305,6.0254,6.0262,6.0297,6.0263,6.0354,6.0334,6.0418,6.0324,6.0007,6.0141,6.0185,6.0167,6.0217,6.0133,6.0068,6.0262,6.0151,6.0159,6.0103,6.0048,5.9972,5.9967,6.0094,6.0188,5.9932,5.9914,6.0061,6.0097,6.0063,5.9984,6.0058,6.0165,6.0004,6.007,6.0231,6.0596,6.074,6.0525,6.0627,6.053,6.0533,6.0538,6.0737,6.078,6.0813,6.0743,6.0829,6.0495,6.0339,6.0139,6.0001,5.9753,5.978,5.9878,5.9634,5.9814,5.9659,5.9639,5.9562,5.9571,5.962,5.967,5.9671,5.9695,5.9643,5.9702,5.9771,5.9719,5.9488,5.9477,5.971,5.9724,5.9811,6.0038,6.0921,6.2209,6.2808,6.4213,6.624,6.412,6.1039,5.8302,5.7775,5.8037,5.8561,5.9151,5.9684,6.0048,5.9859,6.0069,5.9908,6.0154,5.9979,6.0114,5.9915,5.997,6.0042,6.0196,6.0231,6.011,6.0065,6.0281,6.0173,6.0193,5.9973,6.0312,6.0417,6.0369,6.0286,6.0502,6.0503,6.0398,6.0383,6.0497,6.0454,6.0545,6.0745,6.0854,6.0723,6.077,6.0854,6.1025,6.1121,6.1258,6.1306,6.1385,6.1458,6.1456,6.1708,6.1557,6.1681,6.1873,6.187,6.202,6.2204,6.2402,6.2214,6.2195,6.2176,6.208,6.1998,6.1884,6.1712,6.1413,6.1387,6.1202,6.1006,6.0827,6.0812,6.0745,6.0632,6.0559,6.047,6.0393,6.04,6.0346,6.0627,6.065,6.0315,6.0337,6.0532,6.0511,6.0778,6.0775,6.0554,6.054,6.0623,6.0683,6.0725,6.0707,6.0828,6.0881,6.0894,6.055,6.0535,6.05,6.0709,6.0841,6.0829,6.098,6.0688,6.0545,6.0959,6.0923,6.0712,6.0833,6.0934,6.0992,6.1314,6.1417,6.1543,6.1591,6.1445,6.1447,6.1423,6.1397,6.1391,6.1704,6.1616,6.1442,6.1028,6.0745,6.0651,6.0572,6.0479,6.0303,6.0316,6.0336,6.0407,6.0469,6.0417,6.0276,6.0377,6.03,6.0438,6.0669,6.0409,6.0176,6.0383,6.0382,6.0415,6.0389,6.0201,6.0281,6.038,6.055,6.0968,6.1805,6.3155,6.4691,6.6381,6.6726,6.5238,6.2336,5.9312,5.8865,5.8579,5.9173,5.9906,6.0293,6.0613,6.0499,6.0603,6.0591,6.0716,6.067,6.0599,6.0651,6.0778,6.0737,6.0886,6.0932,6.1032,6.0841,6.0892,6.1026,6.1059,6.088,6.106,6.1395,6.1156,6.1303,6.1322,6.1129,6.1239,6.1156,6.1135,6.1099,6.1235,6.1457,6.1471,6.141,6.1563,6.1673,6.181,6.1665,6.1846,6.1809,6.2037,6.238,6.2208,6.2314,6.2273,6.2374,6.259,6.2713,6.2782,6.2605,6.259,6.2664,6.2638,6.2654,6.2409,6.2188,6.2235,6.2146,6.1847,6.1611,6.1439,6.1347,6.1273,6.1118,6.0988,6.0798,6.0838,6.0865,6.0732,6.0734,6.0529,6.0667,6.0838,6.0846,6.0818,6.0699,6.0555,6.0578,6.0559,6.069,6.0629,6.0754,6.0686,6.0668,6.0678,6.0782,6.0714,6.069,6.0787,6.0958,6.0775,6.0828,6.0976,6.1099,6.1239,6.1445,6.149,6.1494,6.1677,6.1616,6.1613,6.1475,6.1617,6.1841,6.1644,6.1329,6.1184,6.089,6.0779,6.068,6.0537,6.0471,6.0601,6.0526,6.0365,6.0361,6.0312,6.0248,6.0326,6.0385,6.0436,6.0424,6.0339,6.0367,6.0417,6.0204,6.0301,6.0293,6.0409,6.0393,6.0215,6.0509,6.0747,6.1589,6.328,6.4349,6.5834,6.6743,6.4489,6.0929,5.9229,5.8597,5.8391,5.8815,5.9625,6.0464,6.0552,6.0593,6.0498,6.0509,6.0578,6.0526,6.0488,6.0397,6.0589,6.0891,6.0675,6.0639,6.0776,6.0904,6.0954,6.0925,6.0747,6.0767,6.0848,6.0978,6.095,6.0958,6.1015,6.1033,6.1074,6.0889,6.0984,6.1178,6.0984,6.1068,6.1239,6.1224,6.1202,6.1429,6.1489,6.157,6.1719,6.1792,6.1844,6.1898,6.2035,6.2088,6.2099,6.2387,6.2287,6.244,6.2597,6.2757,6.2339,6.2278,6.2464,6.2453,6.205,6.1921,6.1897,6.1618,6.1522,6.1281,6.1187,6.1107,6.1055,6.0781,6.0708,6.0718,6.0712,6.0587,6.0612,6.0546,6.0559,6.0341,6.0522,6.0424,6.0498,6.0402,6.043,6.052,6.0441,6.0357,6.0377,6.0546,6.0605,6.0603,6.0523,6.043,6.0512,6.057,6.0607,6.0356,6.0441,6.0743,6.0687,6.0786,6.062,6.0855,6.1213,6.1156,6.1161,6.1248,6.1249,6.1237,6.1177,6.1084,6.1307,6.1305,6.1165,6.1069,6.0825,6.0558,6.0377,6.0107,6.0261,6.032,5.9946,5.9923,6.0011,6.0061,6.0056,5.9881,5.9872,6.0031,6.0022,5.9991,5.9978,5.9942,5.9877,5.9958,5.9943,6.0158,6.0141,5.9986,5.9972,6.0207,6.0878,6.1728,6.3114,6.465,6.6376,6.632,6.3207,5.9576,5.8462,5.8079,5.8014,5.8856,5.9738,6.0274,6.0396,6.0376,6.026,6.0296,6.026,6.0325,6.0356,6.0392,6.0238,6.0404,6.0555,6.0364,6.0343,6.0465,6.0601,6.0756,6.0605,6.0518,6.0576,6.0468,6.0571,6.0595,6.061,6.0712,6.073,6.0976,6.0844,6.0729,6.0905,6.1015,6.1063,6.1126,6.1099,6.1104,6.1286,6.1373,6.1423,6.1586,6.1524,6.1747,6.1963,6.2047,6.2135,6.2231,6.1997,6.2255,6.2277,6.2191,6.2286,6.2474,6.2526,6.2278,6.2134,6.1661,6.1683,6.1514,6.1446,6.1305,6.1076,6.0896,6.0973,6.0723,6.0854,6.0572,6.0425,6.0461,6.0422,6.0409,6.0375,6.0391,6.056,6.0543,6.0392,6.0476,6.0449,6.0433,6.0463,6.0483,6.0425,6.0421,6.0414,6.0539,6.0549,6.0527,6.0604,6.0652,6.0694,6.0729,6.0611,6.0565,6.0744,6.0794,6.0569,6.0603,6.0631,6.0591,6.077,6.0734,6.0712,6.0528,6.0618,6.0579,6.0708,6.1223,6.137,6.1422,6.1478,6.1559,6.1569,6.1619,6.1499,6.1544,6.1551,6.1815,6.1603,6.1355,6.0987,6.0811,6.0804,6.0712,6.0505,6.0505,6.0555,6.035,6.043,6.0508,6.0423,6.0318,6.0391,6.0396,6.0323,6.0199,6.0325,6.0382,6.0338,6.0191,6.0421,6.0464,6.0309,6.0495,6.037,6.0571,6.1076,6.1866,6.3196,6.4532,6.6042,6.6781,6.4389,6.0812,5.8417,5.837,5.8675,5.9631,6.0306,6.0668,6.076,6.084,6.0795,6.0761,6.0585,6.0503,6.0637,6.0857,6.0925,6.0842,6.0829,6.0701,6.1033,6.0935,6.0974,6.0977,6.1113,6.1126,6.1055,6.1079,6.1247,6.1012,6.1284,6.1197,6.123,6.146,6.1519,6.13,6.1449,6.1659,6.1729,6.1639,6.1703,6.1809,6.2056,6.2071,6.2123,6.2221,6.2197,6.2435,6.2433,6.2411,6.2658,6.3113,6.2894,6.2813,6.287,6.2871,6.2939,6.3163,6.3192,6.2924,6.2912,6.2815,6.2594,6.225,6.2199,6.1936,6.1773,6.1637,6.1383,6.1325,6.1272,6.1263,6.1326,6.1235,6.1065,6.1062,6.1073,6.1067,6.0984,6.0888,6.0864,6.1055,6.0847,6.087,6.0859,6.0799,6.1017,6.0943,6.0948,6.0894,6.1114,6.1004,6.1115,6.1056,6.0941,6.1002,6.1035,6.0974,6.1001,6.1283,6.1071,6.0914,6.1053,6.105,6.108,6.1149,6.0854,6.0928,6.1067,6.1165,6.0939,6.0955,6.1246,6.1527,6.1617,6.1747,6.1807,6.1718
