4.2021,4.2337,4.2266,4.2467,4.2377,4.2254,4.2196,4.2385,4.2277,4.2198,4.215,4.2097,4.2143,4.1547,4.1356,4.1144,4.1045,4.1166,4.1113,4.1108,4.1137,4.1101,4.1152,4.074,4.0956,4.0719,4.0421,4.057,4.0774,4.0076,4.0039,3.9918,4.0645,4.2925,4.6525,5.0304,5.3833,5.5461,5.5312,5.2476,4.7825,4.4328,4.2833,4.1876,4.1389,4.1458,4.1582,4.1749,4.1288,4.1016,4.1039,4.104,4.1076,4.0956,4.1239,4.1197,4.1313,4.1226,4.124,4.0705,4.1266,4.1269,4.127,4.1147,4.0964,4.0834,4.1282,4.1775,4.1534,4.1273,4.1173,4.1242,4.1414,4.157,4.1652,4.1563,4.1439,4.1388,4.1829,4.2019,4.1812,4.1823,4.2179,4.2293,4.2137,4.2612,4.247,4.2866,4.3055,4.316,4.3566,4.3247,4.3332,4.3144,4.3444,4.3733,4.3774,4.3678,4.3805,4.3226,4.2955,4.2942,4.2851,4.3059,4.2334,4.2257,4.2026,4.1483,4.1602,4.1348,4.1876,4.1836,4.1236,4.1345,4.1111,4.1257,4.1329,4.159,4.1378,4.1575,4.1219,4.1374,4.1087,4.1488,4.1368,4.1107,4.1315,4.1486,4.1021,4.1382,4.1373,4.1137,4.1151,4.1168,4.0948,4.1375,4.1369,4.1507,4.1416,4.1269,4.1309,4.1268,4.1617,4.1472,4.1322,4.1487,4.1123,4.1338,4.1421,4.1096,4.1301,4.1455,4.1343,4.1519,4.1284,4.1095,4.0807,4.1233,4.1507,4.1563,4.1917,4.1708,4.2002,4.1773,4.1478,4.178,4.199,4.2153,4.2409,4.2642,4.2541,4.233,4.2142,4.1822,4.1923,4.172,4.1464,4.1285,4.0921,4.0722,4.1013,4.1131,4.1166,4.0845,4.1408,4.1061,4.1135,4.1315,4.1231,4.0975,4.0935,4.0918,4.0703,3.9976,3.9589,3.9964,4.1345,4.4182,4.7267,5.1286,5.4284,5.5945,5.563,5.2182,4.7089,4.399,4.2707,4.2152,4.1855,4.1959,4.1702,4.1522,4.1233,4.145,4.1211,4.1409,4.1369,4.1341,4.1127,4.1317,4.1154,4.1196,4.1406,4.127,4.1241,4.1463,4.1304,4.1065,4.1002,4.1076,4.1138,4.1349,4.1722,4.1659,4.1399,4.1053,4.1629,4.1634,4.1849,4.1844,4.2018,4.2062,4.2244,4.2137,4.2393,4.2356,4.256,4.2228,4.2482,4.2757,4.2817,4.3311,4.3529,4.3625,4.3627,4.3616,4.3796,4.3821,4.3951,4.3656,4.3819,4.3913,4.4144,4.3799,4.3757,4.3203,4.2993,4.2931,4.2653,4.2793,4.2605,4.2175,4.2029,4.1922,4.2053,4.19,4.1684,4.1709,4.161,4.1618,4.166,4.1784,4.1259,4.1268,4.1624,4.1654,4.1601,4.1655,4.154,4.1218,4.1278,4.1661,4.1953,4.2027,4.185,4.1845,4.1769,4.1694,4.1706,4.1614,4.1596,4.1894,4.1734,4.172,4.187,4.1905,4.1637,4.1375,4.1322,4.1519,4.2296,4.2073,4.1633,4.1734,4.1887,4.2296,4.2339,4.1919,4.186,4.2416,4.2728,4.2406,4.2729,4.2637,4.2658,4.2723,4.2814,4.3043,4.294,4.2593,4.2399,4.223,4.1647,4.1405,4.1527,4.1583,4.1113,4.1217,4.1519,4.1565,4.1505,4.1315,4.1493,4.1577,4.1465,4.1074,4.1058,4.1519,4.1491,4.1095,4.0295,4.0154,4.0715,4.305,4.6292,4.9992,5.3141,5.4499,5.5351,5.464,5.0942,4.7196,4.4589,4.3274,4.2698,4.2308,4.2057,4.2124,4.1873,4.1786,4.1973,4.1742,4.1655,4.1515,4.153,4.191,4.1954,4.208,4.2076,4.2057,4.1551,4.1262,4.1639,4.1552,4.1623,4.2021,4.1996,4.1697,4.1732,4.2177,4.2344,4.2286,4.3139,4.282,4.1639,4.1368,4.1485,4.2005,4.2018,4.1835,4.1921,4.2027,4.2301,4.3022,4.3478,4.401,4.353,4.325,4.3453,4.2921,4.3509,4.3811,4.3755,4.345,4.3224,4.3483,4.3198,4.3012,4.3169,4.3498,4.3913,4.4129,4.3592,4.2462,4.2276,4.229,4.2009,4.2395,4.2292,4.2226,4.2045,4.1626,4.1134,4.1171,4.1376,4.1344,4.1938,4.173,4.1155,4.065,4.1006,4.1453,4.1732,4.1489,4.1568,4.1326,4.1272,4.0726,4.1095,4.1206,4.0968,4.1244,4.1229,4.1938,4.1633,4.1105,4.1037,4.141,4.1649,4.1819,4.1176,4.0627,4.1129,4.1747,4.2149,4.206,4.1769,4.1542,4.1431,4.1837,4.2452,4.2739,4.2396,4.1876,4.1085,4.16,4.2605,4.2517,4.2108,4.1743,4.1605,4.1281,4.0911,4.1031,4.097,4.0815,4.1332,4.1214,4.0738,4.0672,4.0488,4.0776,4.1025,4.1415,4.0998,4.0095,3.954,3.9874,3.9973,4.1392,4.2613,4.5395,4.9061,5.2491,5.4474,5.3909,5.2069,4.7657,4.4072,4.2823,4.253,4.1837,4.1754,4.1834,4.1292,4.0778,4.1565,4.1511,4.1105,4.0725,4.0661,4.07,4.0889,4.1431,4.1608,4.1893,4.249,4.2454,4.1568,4.1968,4.2537,4.2008,4.1826,4.2056,4.2,4.1565,4.1833,4.2281,4.1847,4.1599,4.162,4.1827,4.1921,4.2431,4.2366,4.2613,4.2566,4.1919,4.1796,4.1793,4.2626,4.3455,4.3431,4.3066,4.2757,4.3503,4.3357,4.293,4.3391,4.3652,4.3881,4.3923,4.4109,4.3937,4.3753,4.3733,4.3599,4.3191,4.2763,4.2769,4.3485,4.3599,4.298,4.1766,4.19,4.1845,4.1589,4.1441,4.1794,4.2088,4.1745,4.1838,4.1562,4.1083,4.1612,4.2205,4.1604,4.1101,4.1641,4.2233,4.1981,4.1925,4.1754,4.1698,4.2127,4.1886,4.1812,4.1861,4.1288,4.0827,4.1146,4.1705,4.2724,4.2432,4.2055,4.1983,4.2228,4.2151,4.1826,4.211,4.2597,4.2812,4.2713,4.2507,4.2306,4.301,4.2753,4.2285,4.2069,4.2136,4.1998,4.1498,4.1596,4.1974,4.2245,4.2137,4.1648,4.1029,4.159,4.1619,4.0812,4.1605,4.1873,4.1266,4.1377,4.1117,4.1431,4.1447,4.0935,4.0564,4.0595,4.2288,4.3568,4.6608,5.046,5.2762,5.4107,5.4819,5.294,4.7957,4.394,4.2811,4.2494,4.1746,4.1253,4.0724,4.0867,4.1475,4.1613,4.1164,4.0985,4.1103,4.0456,4.0228,4.0674,4.102,4.1149,4.1046,4.0779,4.0812,4.1141,4.1551,4.1319,4.144,4.1506,4.0729,4.0792,4.1645,4.1549,4.0944,4.1127,4.1415,4.1796,4.1897,4.1619,4.1443,4.1974,4.2286,4.2382,4.18,4.1837,4.238,4.2517,4.2853,4.2777,4.2566,4.3131,4.3334,4.3285,4.3354,4.3529,4.3361,4.3462,4.3553,4.3586,4.3642,4.3305,4.3248,4.3197,4.2747,4.2425,4.2966,4.2828,4.2219,4.1714,4.1374,4.0986,4.1353,4.1977,4.1668,4.1158,4.1482,4.1518,4.1036,4.0876,4.0973,4.1069,4.1371,4.1308,4.13,4.1315,4.1238,4.1059,4.1015,4.1084,4.1519,4.2094,4.1743,4.1292,4.1102,4.077,4.1235,4.1207,4.1388,4.1097,4.0717,4.0674,4.1169,4.1462,4.1457,4.12,4.1076,4.1092,4.1003,4.1083,4.1473,4.1374,4.1476,4.1627,4.1568,4.1762,4.2255,4.2399,4.2337,4.2094,4.142,4.1774,4.2188,4.1977,4.2208,4.2239,4.1913,4.1166,4.054,4.0598,4.1081,4.1156,4.1014,4.1235,4.1503,4.1225,4.0703,4.0333,4.0544,4.1058,4.107,4.1095,4.0544,4.0788,4.0852,4.0394,3.9789,4.0233,4.0691,4.2645,4.4802,4.7769,5.1414,5.3929,5.4357,5.3017,4.9379,4.5518,4.3311,4.193,4.184,4.2368,4.2071,4.0463,4.0417,4.1204,4.0627,4.0127,4.1602,4.1893,4.065,4.0002,4.0743,4.0962,4.0918,4.0809,4.0812,4.1245,4.1296,4.0946,4.0791,4.0585,4.0864,4.1431,4.142,4.0957,4.1169,4.134,4.1181,4.1502,4.1682,4.1507,4.1417,4.17,4.1617,4.131,4.1871,4.2576,4.201,4.1751,4.2881,4.3317,4.2685,4.2484,4.2543,4.279,4.2926,4.3077,4.3523,4.3891,4.3504,4.3413,4.3228,4.3469,4.3739,4.3853,4.3381,4.3316,4.315,4.2694,4.2099,4.1941,4.1745,4.2119,4.2118,4.1535,4.1495,4.1615,4.1486,4.1535,4.1304,4.1047,4.0953,4.1369,4.1378,4.1519,4.172,4.1421,4.1139,4.1204,4.1837,4.1565,4.1299,4.1506,4.1322,4.1053,4.1091,4.146,4.1779,4.1627,4.1536,4.1526,4.162,4.1641,4.1526,4.1574,4.1328,4.124,4.1462,4.1604,4.1556,4.1187,4.1188,4.1355,4.1294,4.1128,4.125,4.1546,4.1746,4.1153,4.1185,4.1156,4.1016,4.1258,4.1201,4.1157,4.1562,4.0989,4.082,4.1286,4.1536,4.1297,4.1216,4.1281,4.1001,4.0931,4.1198,4.1313,4.1472,4.1509,4.1352,4.1029,4.1325,4.1435,4.1293,4.1589,4.1566,4.1248,4.1014,4.0952,4.1244,4.1358,4.1216,4.1309,4.1588,4.1349,4.1295,4.1202,4.1323,4.1991,4.1549,4.1417,4.1583,4.1707,4.1905,4.1777,4.214,4.233,4.2192,4.2083,4.21,4.2063,4.2362,4.2238,4.1807,4.1439,4.1408,4.1456,4.1024,4.1328,4.1332,4.128,4.1537,4.1418,4.1085,4.1142,4.0912,4.1101,4.1122,4.0841,4.1322,4.136,4.0832,4.0481,4.0117,4.0675,4.1687,4.4049,4.7591,5.0931,5.3728,5.5221,5.4628,5.142,4.7101,4.4099,4.3039,4.2438,4.1934,4.1853,4.1623,4.1608,4.12,4.104,4.1162,4.1646,4.1673,4.1312,4.1401,4.168,4.1867,4.124,4.0806,4.1202,4.1483,4.1542,4.139,4.1627,4.1757,4.1512,4.156,4.1566,4.1736,4.2126,4.2088,4.1869,4.1518,4.1537,4.2123,4.21,4.2314,4.2494,4.2493,4.2311,4.2151,4.2466,4.2771,4.266,4.3151,4.3394,4.3583,4.3186,4.3132,4.3401,4.3692,4.3814,4.4041,4.4307,4.4331,4.4542,4.4271,4.4042,4.4135,4.4214,4.4042,4.3942,4.3915,4.3922,4.3532,4.3211,4.3211,4.2705,4.2549,4.2376,4.2122,4.2116,4.234,4.2278,4.1943,4.1825,4.2393,4.2408,4.2195,4.2074,4.186,4.1924,4.1981,4.2243,4.2272,4.2403,4.2143,4.2008,4.2244,4.2446,4.2251,4.2141,4.1782,4.1823,4.1914,4.216,4.2469,4.2363,4.2148,4.22,4.227,4.2194,4.2207,4.233,4.2159,4.1784,4.1873,4.1861,4.1791,4.189,4.2188,4.2038,4.1887,4.1755,4.1853,4.2114,4.1784,4.184,4.202,4.2145,4.1754,4.1859,4.2291,4.2335,4.2282,4.1947,4.1714,4.1496,4.1855,4.2388,4.201,4.143,4.1261,4.1614,4.1918,4.1765,4.1703,4.1669,4.2027,4.2034,4.1951,4.1896,4.1853,4.2083,4.2239,4.2498,4.2515,4.2272,4.231,4.2634,4.2432,4.2097,4.2282,4.2503,4.2647,4.265,4.2637,4.2579,4.2482,4.2082,4.1875,4.1711,4.1747,4.1671,4.1326,4.1639,4.1735,4.1755,4.1537,4.1084,4.1438,4.15,4.135,4.1208,4.1034,4.1327,4.1341,4.1303,4.0574,4.0058,4.0427,4.2559,4.5205,4.859,5.1995,5.4604,5.493,5.3467,4.9612,4.5933,4.4079,4.3141,4.2222,4.1854,4.1917,4.1642,4.1623,4.144,4.1479,4.1439,4.1515,4.1058,4.125,4.1438,4.1399,4.1274,4.1287,4.1111,4.1716,4.1711,4.1607,4.1636,4.1606,4.1337,4.1274,4.1506,4.1666,4.1677,4.1782,4.1391,4.1511,4.1522,4.1894,4.2007,4.1776,4.1969,4.2294,4.2186,4.2139,4.2024,4.2356,4.2625,4.2752,4.2846,4.2806,4.2713,4.2917,4.3143,4.3459,4.3702,4.3606,4.3588,4.3541,4.4033,4.4267,4.409,4.3632,4.3571,4.3859,4.3335,4.2669,4.321,4.3069,4.2715,4.2629,4.2235,4.191,4.2072,4.2102,4.1987,4.1882,4.1317,4.0897,4.115,4.1527,4.1571,4.1788,4.1694,4.1342,4.1376,4.0912,4.1345,4.1536,4.1015,4.1183,4.147,4.1809,4.1374,4.0987,4.143,4.1282,4.1049,4.1172,4.149,4.1255,4.1384,4.1268,4.151,4.1715,4.1519,4.1561,4.144,4.107,4.1085,4.1152,4.1136,4.1058,4.1237,4.136,4.1514,4.1187,4.133,4.1389,4.156,4.1248,4.1096,4.0886,4.1073,4.15,4.1038,4.0713,4.0693,4.1065,4.1162,4.1176,4.1154,4.113,4.1267,4.1645,4.1249,4.0875,4.1385,4.1576,4.1822,4.2012,4.2045,4.2174,4.1832,4.1849,4.2024,4.2192,4.1598,4.0944,4.0839,4.1169,4.1425,4.0996,4.0472,4.085,4.0971,4.0681,4.1032,4.1181,4.0985,4.0933,4.0515,4.0448,4.0551,4.0695,4.0785,4.0783,4.0226,3.9394,3.9528,4.0087,4.2129,4.3469,4.6737,5.0673,5.3259,5.4496,5.4004,5.1014,4.6057,4.3159,4.2106,4.1747,4.151,4.1485,4.1173,4.0814,4.0639,4.0916,4.0497,4.0513,4.0548,4.083,4.0982,4.0979,4.066,4.0617,4.0768,4.086,4.0743,4.086,4.0668,4.068,4.0805,4.1192,4.135,4.0806,4.0609,4.088,4.1076,4.1237,4.1098,4.1354,4.1266,4.1273,4.1781,4.1758,4.1321,4.144,4.1634,4.1844,4.1888,4.2104,4.2266,4.2399,4.2449,4.2346,4.2593,4.2917,4.3147,4.3166,4.2996,4.3075,4.3295,4.3944,4.4124,4.3588,4.3305,4.3487,4.3536,4.3078,4.2409,4.2005,4.2183,4.1778,4.1408,4.1801,4.1821,4.1425,4.1285,4.1139,4.1285,4.132,4.1047,4.0917,4.0754,4.0941,4.0878,4.096,4.0859,4.0562,4.0867,4.083,4.1085,4.1039,4.1045,4.099,4.0933,4.0867,4.1393,4.1166,4.0684,4.0571,4.0981,4.1075,4.1287,4.1401,4.0838,4.0527,4.0811,4.1049,4.125,4.0923,4.0663,4.0717,4.11,4.0971,4.0936,4.0912,4.0947,4.088,4.1104,4.0897,4.0893,4.0966,4.1139,4.0651,4.038,4.0435,4.0578,4.1203,4.0894,4.0954,4.0868,4.0793,4.0535,4.0873,4.1241,4.1082,4.1202,4.1401,4.1305,4.1235,4.1352,4.1252,4.1374,4.1557,4.1696,4.1991,4.1742,4.1518,4.1546,4.1268,4.1316,4.1088,4.1038,4.088,4.0815,4.0712,4.0659,4.073,4.081,4.0643,4.0453,4.0359,4.0418,4.0495,4.0262,4.0418,4.0472,4.0461,4.0497,4.0121,3.9336,3.9152,3.9839,4.2296,4.58,4.9171,5.2504,5.5042,5.4811,5.244,4.8318,4.4728,4.3572,4.2391,4.1499,4.1374,4.1286,4.0551,4.0177,4.0425,4.0556,4.0518,4.0534,4.0635,4.0641,4.0512,4.0434,4.0523,4.1055,4.1062,4.0257,4.0189,4.0662,4.0884,4.0796,4.0607,4.0565,4.0675,4.0883,4.0952,4.0608,4.0664,4.0874,4.1306,4.1193,4.1168,4.1157,4.131,4.1478,4.1554,4.1332,4.154,4.1596,4.1656,4.1821,4.1997,4.2276,4.2453,4.2573,4.2533,4.2438,4.281,4.2724,4.3044,4.3432,4.3302,4.3676,4.4119,4.3101,4.2583,4.295,4.2533,4.2502,4.2563,4.2479,4.2163,4.1561,4.1793,4.1539,4.1279,4.1372,4.1438,4.1163,4.0518,4.0578,4.1129,4.1039,4.0376,4.0248,4.0713,4.0881,4.086,4.0726,4.0792,4.0915,4.0841,4.065,4.0958,4.0835,4.0343,4.0393,4.0948,4.1025,4.0692,4.087,4.1077,4.1139,4.0901,4.0726,4.0606,4.0373,4.0756,4.1024,4.0696,4.0651,4.0704,4.0635,4.0485,4.0708,4.0974,4.0873,4.0783,4.0859,4.0347,4.0504,4.0701,4.0592,4.0447,4.0333,4.0315,4.0591,4.0454,4.087,4.0871,4.0796,4.0771,4.0629,4.0442,4.0249,4.0553,4.0449,4.0576,4.0599,4.0506,4.0493,4.0022,4.0232,4.0999,4.1142,4.0755,4.0655,4.0942,4.1073,4.1119,4.1312,4.1457,4.1408,4.1469,4.1593,4.1361,4.0976,4.1032,4.1357,4.1124,4.0986,4.0521,4.0082,3.9967,4.0207,4.0506,4.0368,4.0532,4.0397,4.016,3.9839,3.9893,3.9909,4.0304,4.0422,3.989,3.9703,3.9797,3.9458,3.9102,3.9284,4.0413,4.3068,4.6234,5.026,5.3623,5.4775,5.3573,5.0636,4.6333,4.3341,4.2195,4.1762,4.073,4.0377,4.0556,4.0251,4.0324,4.0556,4.0185,4.0003,4.0479,4.0336,3.9981,3.989,4.0002,4.0278,4.0405,4.0442,4.0253,4.0022,4.0165,4.017,4.0106,4.0016,4.0365,4.0586,4.059,4.0589,4.0288,4.0639,4.057,4.0364,4.0517,4.0452,4.0946,4.1393,4.133,4.0985,4.0914,4.1171,4.1399,4.14,4.168,4.1518,4.1373,4.1976,4.2294,4.2219,4.2376,4.2679,4.2562,4.258,4.304,4.3327,4.3062,4.2824,4.2579,4.2545,4.2722,4.2887,4.2634,4.1776,4.1627,4.1396,4.1258,4.1452,4.134,4.1105,4.0702,4.051,4.0705,4.088,4.0751,4.0488,4.0291,4.0315,4.0556,4.05,4.0389,4.0636,4.0328,4.0187,4.0407,4.0537,4.0521,4.0503,4.0298,4.0344,4.0491,4.0336,4.0462,4.0769,4.0475,4.0374,4.0644,4.0469,4.0666,4.068,4.0305,4.021,4.0436,4.0452,4.0145,4.0204,4.0448,4.0455,4.0644,4.0659,4.043,4.0313,4.0491,4.0228,4.0061,4.0086,4.0266,4.0376,4.0474,4.0438,4.0716,4.0617,4.0399,3.9981,4.0164,4.0213,3.995,4.0451,4.018,4.0184,4.0648,4.0122,3.9883,4.0041,4.017,4.0151,4.0816,4.1253,4.088,4.0683,4.0811,4.096,4.1,4.1117,4.1379,4.1567,4.1373,4.1175,4.1096,4.0868,4.0563,4.0194,3.9779,3.9852,4.0348,4.0338,4.0356,4.0327,4.0072,3.9822,4.0024,4.012,4.0168,4.034,4.0007,3.9861,3.9718,3.9971,3.9453,3.8871,3.9129,4.0005,4.134,4.4109,4.8028,5.1323,5.3672,5.3888,5.1742,4.7126,4.3589,4.2502,4.144,4.0762,4.0638,4.0819,4.0752,4.0415,4.0442,3.9938,3.9556,3.9866,3.9839,4.0082,4.0096,4.0245,4.0112,3.9818,4.0148,4.0401,4.0365,4.0231,4.0249,4.0509,4.0668,4.0464,4.0317,4.0557,4.0205,4.0269,4.034,4.0465,4.0178,4.0659,4.0825,4.0785,4.0729,4.0886,4.1205,4.1494,4.1532,4.1419,4.1394,4.1487,4.1594,4.2038,4.2265,4.2183,4.2268,4.2209,4.2277,4.2557,4.2623,4.305,4.3092,4.2983,4.2921,4.2865,4.2985,4.2552,4.229,4.25,4.2516,4.2119,4.1645,4.1485,4.137,4.1028,4.0782,4.0596,4.0491,4.0707,4.1022,4.0802,4.071,4.0528,4.0586,4.0341,4.0267,4.0531,4.0783,4.0453,4.0144,3.9992,4.0201,4.0602,4.0707,4.0514,4.041,4.017,4.0648,4.076,4.0708,4.06,4.0515,4.057,4.0551,4.0364,4.0358,4.0343,4.0586,4.0652,4.0604,4.0178,4.0451,4.0516,4.0385,4.0581,4.0766,4.1058,4.063,4.0011,4.033,4.0418,4.0473,4.0171,4.0122,4.0469,4.0379,4.054,4.0741,4.0856,4.0582,4.0624,4.0867,4.0983,4.0738,4.0736,4.1168,4.1772,4.1545,4.1267,4.1453,4.1184,4.1022,4.0876,4.0942,4.0706,4.0105,4.0154,4.0256,4.0683,4.0118,3.9829,4.0044,3.9771,3.9995,4.0443,4.0333,4.0214,4.0021,4.015,4.0139,4.0351,4.0061,3.8856,3.8655,3.9074,4.0993,4.417,4.7673,5.1007,5.3612,5.4513,5.3458,4.9535,4.4764,4.2301,4.165,4.1461,4.1005,4.0701,4.0327,4.0201,4.0635,4.0577,4.0214,4.0472,4.0099,3.9857,4.0048,4.0383,4.0289,4.03,4.028,4.0497,4.0726,4.0552,4.044,4.0344,4.0174,4.0516,4.0631,4.0453,4.063,4.058,4.0522,4.0606,4.072,4.088,4.1121,4.1302,4.1235,4.1135,4.0962,4.1015,4.1392,4.1412,4.1503,4.1927,4.1977,4.1924,4.2225,4.2473,4.2722,4.2653,4.2635,4.2911,4.3028,4.3145,4.2966,4.3486,4.3793,4.3441,4.3005,4.2718,4.2462,4.2478,4.2473,4.2238,4.2189,4.1926,4.1444,4.144,4.155,4.1221,4.0967,4.0902,4.1063,4.0618,4.0518,4.0995,4.1239,4.0806,4.0633,4.0371,4.0567,4.101,4.0857,4.0767,4.0812,4.0915,4.1306,4.0715,4.0131,4.0736,4.0743,4.0597,4.0762,4.1023,4.1012,4.0776,4.0544,4.0485,4.0847,4.0659,4.0523,4.0914,4.096,4.0861,4.0916,4.0827,4.0793,4.0819,4.0845,4.0572,4.0529,4.0487,4.0372,4.0667,4.1108,4.037,4.0359,4.0652,4.0533,4.0578,4.0535,4.0383,4.0256,4.0629,4.0937,4.1099,4.0972,4.0371,4.0426,4.1159,4.0977,4.1188,4.1298,4.149,4.1511,4.1556,4.1586,4.1393,4.1314,4.1287,4.1132,4.1153,4.1032,4.0937,4.057,4.0372,4.0005,3.9821,4.0359,4.0802,4.0655,4.0283,4.0163,4.0095,4.0063,4.0326,4.0598,4.0068,4.0035,3.9877,3.9568,3.9142,3.9393,4.0015,4.212,4.5154,4.6977,5.0648,5.378,5.4731,5.3918,5.0468,4.5936,4.3009,4.1878,4.1346,4.1314,4.0816,4.0636,4.0533,4.0321,4.028,4.0198,4.025,4.0346,4.0428,4.0331,4.0388,4.0455,4.0397,4.0257,3.9963,4.0273,4.0396,4.0305,4.0861,4.0791,4.0708,4.0548,4.0417,4.0581,4.0551,4.1216,4.0924,4.0397,4.0778,4.1047,4.1098,4.11,4.109,4.0838,4.098,4.1616,4.1804,4.1389,4.1677,4.197,4.1992,4.2136,4.2224,4.2334,4.2581,4.2866,4.2781,4.2736,4.2965,4.32,4.3202,4.3245,4.3014,4.3,4.2862,4.2853,4.2841,4.2763,4.2157,4.1805,4.1551,4.1226,4.1221,4.1021,4.0925,4.0776,4.0763,4.0675,4.0731,4.0682,4.0833,4.0784,4.0744,4.0739,4.0613,4.0602,4.0709,4.0565,4.0336,4.0292,4.0493,4.0722,4.0816,4.0735,4.061,4.0775,4.0702,4.0908,4.0736,4.0579,4.0508,4.0648,4.095,4.0798,4.0852,4.078,4.0605,4.0582,4.0483,4.0476,4.0621,4.0769,4.0984,4.088,4.0025,4.0179,4.0397,4.0617,4.0731,4.0697,4.065,4.0526,4.0492,4.0937,4.044,3.9894,4.0347,4.0628,4.0862,4.0713,4.0393,4.0404,4.037,4.0216,4.0443,4.0539,4.1147,4.1379,4.0885,4.0584,4.0803,4.0953,4.108,4.1101,4.1547,4.167,4.1359,4.1325,4.1717,4.1565,4.0942,4.0707,4.0543,4.0388,4.0187,4.0326,4.0293,4.0239,4.036,4.0075,4.0255,4.0385,4.035,4.015,4.0173,4.014,4.043,4.0775,4.018,3.9764,3.9207,3.9195,3.9469,4.1064,4.3807,4.7161,5.1209,5.4231,5.5018,5.3489,4.9354,4.4953,4.3565,4.256,4.1725,4.1258,4.0867,4.0561,4.0394,4.0325,4.0292,4.0221,4.0403,4.0301,4.0514,4.0435,4.0566,4.0595,4.0172,4.0135,4.0233,4.0411,4.0476,4.0557,4.0709,4.0736,4.0524,4.0552,4.0546,4.0806,4.0894,4.0887,4.0781,4.0609,4.0843,4.0953,4.0802,4.0937,4.1297,4.1213,4.1098,4.1252,4.1586,4.1632,4.173,4.1718,4.1808,4.2186,4.226,4.2378,4.2703,4.3043,4.3158,4.301,4.2865,4.2886,4.2914,4.322,4.346,4.3004,4.2623,4.2845,4.282,4.2753,4.251,4.2214,4.2153,4.1685,4.1429,4.133,4.1106,4.1108,4.1029,4.1047,4.0812,4.0582,4.0583,4.1006,4.0969,4.056,4.0325,4.0513,4.0701,4.0739,4.0558,4.0515,4.08,4.0595,4.0619,4.0841,4.0706,4.0531,4.0377,4.0622,4.0695,4.0684,4.0654,4.0642,4.0781,4.071,4.0488,4.0354,4.0663,4.068,4.0646,4.0597,4.0284,4.0296,4.0589,4.0676,4.068,4.0472,4.0312,4.0369,4.0448,4.0295,4.0252,4.0445,4.0387,4.0265,4.0341,4.044,4.028,4.0187,4.0338,4.0384,4.0407,4.0668,4.0167,4.0514,4.0655,4.0664,4.0688,4.0716,4.1039,4.1363,4.1269,4.1278,4.1077,4.1549,4.1569,4.1129,4.0981,4.0525,4.0261,4.0312,4.0517,4.0089,3.9966,3.9808,3.9924,3.9803,3.9762,4.0021,4.0407,4.0325,4.0079,4.0744,3.9988,3.9852,4.0182,4.037,3.8482,3.8581,3.8953,3.9558,4.267,4.6033,4.9721,5.2167,5.4376,5.3903,5.0795,4.5615,4.2762,4.2119,4.1754,4.1012,4.0538,4.0171,4.0093,4.0234,4.0394,4.0096,4.032,4.0315,4.0046,3.9796,3.9857,3.9952,3.9937,4.0206,4.0278,4.017,4.0597,4.0627,4.0174,4.0057,4.013,4.0253,4.0597,4.0539,4.0597,4.0729,4.0552,4.0341,4.0542,4.0783,4.0921,4.086,4.111,4.1095,4.1135,4.1293,4.1301,4.1379,4.1574,4.1669,4.1886,4.2288,4.2719,4.2657,4.2529,4.2475,4.2484,4.2545,4.2657,4.312,4.3068,4.3193,4.3413,4.3366,4.2927,4.2746,4.2692,4.2251,4.159,4.1482,4.1587,4.1519,4.14,4.1319,4.1095,4.0857,4.0739,4.1135,4.0862,4.0554,4.0182,4.0342,4.0572,4.0604,4.0824,4.0932,4.0639,4.0538,4.0733,4.0685,4.053,4.0422,4.0476,4.0649,4.0657,4.0548,4.0677,4.0497,4.0508,4.0762,4.1078,4.0681,4.0477,4.0478,4.0519,4.079,4.0523,4.0827,4.1059,4.088,4.0541,4.0719,4.0426,4.0276,4.0427,4.0507,4.012,4.0301,4.0721,4.0861,4.0732,4.0613,4.0575,4.0629,4.0551,4.051,4.0756,4.0831,4.0519,4.0407,4.0341,4.036,4.0344,4.0324,4.0215,4.0465,4.0791,4.0778,4.0672,4.1015,4.0994,4.0993,4.1135,4.1452,4.1572,4.1263,4.1524,4.1594,4.1444,4.1268,4.15,4.0798,4.0158,4.0242,4.0186,4.0207,4.0469,4.0275,4.0219,4.0114,3.9848,4.0186,4.0614,4.0855,4.0331,4.0146,3.999,3.988,4.0092,3.962,3.8712,3.8824,3.9275,4.1824,4.5093,4.8682,5.2283,5.4845,5.4743,5.25,5.0654,4.5998,4.3084,4.216,4.134,4.0804,4.0511,4.0472,4.0165,4.0043,4.055,4.0555,4.0431,4.0281,4.039,4.0241,4.0031,3.997,4.0313,4.0475,4.02,4.0417,4.0471,4.0462,4.0214,4.0394,4.0734,4.0307,4.0146,4.0438,4.065,4.0608,4.057,4.0558,4.0468,4.0834,4.1083,4.1283,4.1089,4.0889,4.1558,4.1451,4.1552,4.1692,4.1552,4.1595,4.1519,4.1574,4.1937,4.2456,4.2638,4.2721,4.2767,4.269,4.2841,4.2981,4.2978,4.3148,4.333,4.3279,4.3269,4.2999,4.2526,4.2151,4.1861,4.1626,4.1752,4.1836,4.1268,4.0893,4.1279,4.0875,4.0467,4.0703,4.0672,4.0623,4.0398,4.0146,4.047,4.0479,4.0582,4.0531,4.0597,4.0493,4.0506,4.0477,4.0807,4.0903,4.0852,4.0744,4.0351,4.0571,4.0405,4.0568,4.074,4.0935,4.0927,4.0799,4.0571,4.046,4.0384,4.0548,4.081,4.0924,4.0485,4.04,4.058,4.0677,4.0473,4.0467,4.0771,4.0645,4.0488,4.0362,4.042,4.0295,4.0585,4.0833,4.0634,4.0459,4.0422,4.0544,4.0331,4.0216,4.0212,4.0251,4.063,4.0698,4.0648,4.0513,4.0188,4.0271,4.0787,4.1213,4.14,4.1024,4.0875,4.0981,4.1201,4.1314,4.1677,4.1402,4.1197,4.1368,4.1214,4.1146,4.0975,4.0941,4.0677,4.0381,4.0227,4.0413,4.0669,4.0518,3.9929,3.9992,3.998,4.032,4.0288,4.0581,4.021,3.9734,4.0099,4.0191,4.0134,3.9659,3.9201,3.9176,3.952,4.1513,4.4424,4.7886,5.2073,5.4727,5.4444,5.2969,4.8813,4.4465,4.2088,4.1335,4.103,4.0728,4.0675,4.0573,4.0405,4.0393,4.0972,4.0506,3.9987,4.0186,4.0281,3.99,4.0243,4.0495,4.0515,4.0259,4.0241,4.0216,4.0292,4.0265,4.0288,4.0676,4.0721,4.0519,4.051,4.0559,4.0675,4.1153,4.1267,4.0539,4.0251,4.0835,4.1176,4.0928,4.0951,4.1276,4.1441,4.1281,4.1304,4.1519,4.1607,4.1632,4.1983,4.2297,4.244,4.217,4.2362,4.2861,4.303,4.3281,4.3416,4.3175,4.3125,4.326,4.3153,4.2978,4.2907,4.2756,4.2568,4.2366,4.2175,4.2273,4.1795,4.1242,4.129,4.1135,4.1079,4.1136,4.0845,4.0983,4.1011,4.1058,4.1195,4.1095,4.036,4.0622,4.0813,4.0487,4.0644,4.0638,4.0623,4.0822,4.0894,4.0504,4.0759,4.0869,4.092,4.0556,4.0388,4.0908,4.1523,4.1293,4.0586,4.0881,4.0725,4.0724,4.0712,4.0449,4.07,4.0878,4.0805,4.0832,4.0915,4.1077,4.0809,4.0674,4.087,4.0578,4.0625,4.0789,4.0618,4.0445,4.0605,4.0744,4.0948,4.0745,4.0603,4.0661,4.0632,4.0442,4.0443,4.0665,4.0861,4.0923,4.0556,4.0552,4.0419,4.032,4.079,4.1129,4.0955,4.0733,4.1023,4.1167,4.0817,4.0896,4.1192,4.1729,4.1726,4.1489,4.1045,4.1451,4.1955,4.16,4.1363,4.1013,4.0909,4.1004,4.0994,4.0662,4.0663,4.0182,3.9854,3.9973,4.0345,4.0319,4.054,4.0369,4.0251,4.0209,3.9991,4.0067,4.0428,4.0318,4.0025,3.9031,3.8747,3.9066,4.0302,4.3155,4.6819,5.0343,5.3331,5.4865,5.3975,5.0564,4.6515,4.3506,4.1997,4.1458,4.1207,4.1087,4.0512,4.0204,4.0141,4.0634,4.0667,4.0456,4.0206,4.0391,4.0438,4.0304,4.0177,4.0354,4.0484,4.0713,4.0471,4.0491,4.036,4.0109,4.0252,4.0713,4.084,4.0779,4.0774,4.0773,4.0451,4.0464,4.0761,4.1012,4.1073,4.1491,4.1146,4.0706,4.0868,4.1266,4.1274,4.1217,4.1409,4.1809,4.2164,4.1983,4.1959,4.2074,4.2425,4.2625,4.2626,4.2955,4.2866,4.2824,4.3012,4.2973,4.3075,4.3162,4.2987,4.3007,4.2941,4.313,4.2733,4.2526,4.2572,4.2003,4.1327,4.1094,4.1448,4.1438,4.084,4.0702,4.0663,4.0443,4.0592,4.0714,4.0721,4.0719,4.0675,4.0603,4.0815,4.0934,4.0818,4.0394,4.0458,4.0602,4.0695,4.0767,4.0768,4.066,4.1113,4.0981,4.0957,4.081,4.0723,4.051,4.0821,4.1089,4.102,4.0591,4.0686,4.102,4.0756,4.0594,4.0635,4.071,4.0515,4.074,4.072,4.058,4.0921,4.1106,4.1469,4.1236,4.0379,4.0126,4.0309,4.061,4.0836,4.0434,4.0541,4.0663,4.0645,4.0718,4.0228,4.0054,4.0571,4.0868,4.0897,4.1002,4.0988,4.0461,4.0765,4.0839,4.0548,4.0525,4.0641,4.0922,4.1259,4.1338,4.1143,4.1228,4.1542,4.1639,4.1582,4.1725,4.1995,4.2032,4.1482,4.1688,4.1547,4.1156,4.0806,4.0723,4.0654,4.0769,4.0375,3.9904,3.9936,4.031,4.0408,4.0205,4.0077,3.9997,4.0032,3.9968,3.9794,3.9772,3.9698,3.9892,3.9748,3.8616,3.8498,3.971,4.1022,4.3919,4.7572,5.1155,5.4111,5.45,5.258,4.8037,4.3735,4.1967,4.1746,4.1188,4.0696,4.0767,4.0725,4.0806,4.0438,4.042,4.0687,4.0728,4.0723,4.0775,4.1213,4.1008,4.0541,4.0467,4.0555,4.0875,4.0976,4.0997,4.0816,4.0968,4.0826,4.0571,4.0765,4.1044,4.1094,4.1165,4.0936,4.0843,4.1038,4.1073,4.1002,4.0975,4.0833,4.1324,4.1964,4.1777,4.1347,4.1145,4.1168,4.1361,4.1432,4.1679,4.2304,4.2316,4.2494,4.253,4.2286,4.2274,4.2788,4.2959,4.2869,4.3239,4.3201,4.2699,4.245,4.2869,4.2731,4.2535,4.2186,4.1835,4.1914,4.1701,4.1701,4.13,4.1095,4.0982,4.0908,4.0906,4.077,4.0656,4.0745,4.0977,4.1315,4.0916,4.0907,4.1112,4.1107,4.0808,4.0605,4.0892,4.0839,4.0967,4.1155,4.1131,4.0836,4.0973,4.1152,4.0898,4.0837,4.0953,4.0694,4.0613,4.0887,4.0925,4.0659,4.0771,4.0712,4.0494,4.0453,4.0671,4.0922,4.0568,4.0726,4.0838,4.0775,4.0616,4.0791,4.0932,4.0538,4.0709,4.0581,4.0557,4.0776,4.0739,4.0343,4.0263,4.0288,4.0464,4.0742,4.0655,4.0633,4.1027,4.1164,4.0962,4.1003,4.1221,4.1588,4.1622,4.18,4.1833,4.1668,4.1018,4.117,4.1194,4.0741,4.0523,4.0272,4.0605,4.0559,4.0278,4.0502,4.0415,4.0177,4.0068,4.0064,4.0402,4.02,4.0135,4.0479,4.0726,4.0035,3.9717,3.9263,3.8661,3.872,3.924,4.1179,4.4027,4.788,5.2043,5.5176,5.525,5.3212,4.8444,4.4299,4.2675,4.2173,4.1622,4.0653,4.0499,4.0416,4.0525,4.0154,4.0169,4.0634,4.06,4.0013,4.0244,4.0319,4.0067,3.9957,4.0162,4.0023,4.0297,4.0618,4.0097,4.0153,4.0455,4.0288,4.0507,4.0627,4.0153,3.9986,4.0816,4.1286,4.0772,4.0413,4.0496,4.0319,4.0628,4.0923,4.0887,4.0959,4.1247,4.1201,4.1054,4.12,4.1874,4.1963,4.2229,4.2404,4.2191,4.2365,4.266,4.2657,4.2435,4.3015,4.2999,4.2579,4.261,4.2742,4.2944,4.3348,4.3067,4.2568,4.2632,4.2295,4.1946,4.1734,4.1418,4.1326,4.1544,4.1312,4.0475,4.0314,4.0572,4.0672,4.0651,4.064,4.0588,4.0334,4.0501,4.07,4.049,4.0453,4.045,4.0555,4.0377,4.0663,4.079,4.0331,4.0167,4.0504,4.0442,4.0205,4.0297,4.074,4.0928,4.0817,4.0614,4.0678,4.0549,4.0541,4.0453,4.075,4.0589,4.045,4.0456,4.0664,4.072,4.0345,4.004,4.0673,4.0799,4.0676,4.0467,4.0697,4.075,4.0472,4.0274,4.032,4.0577,4.0552,4.0524,4.0101,4.053,4.1021,4.1008,4.0989,4.0712,4.0734,4.1271,4.1941,4.2257,4.1933,4.1714,4.1833,4.1791,4.106,4.0804,4.087,4.04,3.9664,3.9688,4.0173,4.0392,3.9901,3.9896,4.0036,3.9927,3.9769,4.042,4.0203,3.9477,3.9491,3.9898,4.0334,4.0228,3.9863,3.9346,3.8537,3.8584,3.9869,4.2508,4.6215,5.0299,5.3048,5.4134,5.3424,5.031,4.5611,4.2859,4.2155,4.1402,4.0884,4.013,3.9807,4.0097,4.0777,4.0365,4.0046,4.0422,4.0475,4.0401,4.01,3.9991,3.9881,3.9594,4.0216,4.028,3.9728,3.9973,4.0077,3.9828,3.9778,4.0128,4.0771,4.0474,4.0016,3.9787,3.9925,4.015,4.0215,4.0581,4.1125,4.134,4.0892,4.0673,4.0696,4.0649,4.0921,4.1646,4.1826,4.1329,4.1075,4.1307,4.1913,4.2198,4.2439,4.2046,4.1889,4.2274,4.2807,4.3359,4.2815,4.1897,4.1862,4.2837,4.2766,4.2572,4.2223,4.2061,4.2,4.2045,4.1577,4.1466,4.1508,4.1196,4.0726,4.0071,4.0374,4.1036,4.0655,3.9999,3.9963,4.02,4.0445,4.0551,4.0432,4.055,4.0196,3.9988,4.0299,4.009,4.0058,4.0297,4.0194,4.0088,4.048,4.0142,3.9653,4.014,4.0602,4.0632,4.0533,4.0071,3.9697,4.0117,4.0524,4.0607,4.0316,3.9883,4.0072,4.0349,4.0052,4.04,4.0457,4.061,4.0485,4.0421,4.0453,4.0035,4.0441,4.0496,4.0643,4.114,4.1053,4.0968,4.0997,4.1191,4.1304,4.1139,4.1212,4.0914,4.0504,4.0036,3.9925,3.9822,3.9953,4.0174,4.0228,4.0239,4.0225,3.975,3.9276,3.9182,3.953,3.9774,4.0132,4.0057,4.0392,4.004,3.9443,3.8849,3.8507,3.8803,3.8753,3.9039,4.1298,4.5002,4.897,5.2435,5.4671,5.4698,5.1408,4.6734,4.3276,4.1409,4.0449,4.0375,4.0324,4.005,3.9535,3.9764,3.9991,3.9596,3.9615,3.9902,3.9823,3.9825,3.9631,3.9265,3.9579,4.0133,4.0013,3.9947,3.9558,3.9403,3.9551,3.9709,4.0004,3.9867,3.9824,4.0079,3.9765,3.9813,4.0017,3.9834,4.0373,4.0793,4.0647,4.036,4.0219,4.0343,4.0397,4.014,4.0309,4.0879,4.1392,4.1287,4.15,4.1707,4.1524,4.1479,4.1369,4.1676,4.2101,4.228,4.273,4.3179,4.26,4.1787,4.2276,4.2224,4.2054,4.2199,4.2148,4.1402,4.1213,4.1185,4.0556,4.0382,4.0176,4.0037,4.0084,4.0501,4.0635,4.0149,3.9669,3.9181,3.9494,3.9944,4.001,3.988,3.981,3.9799,3.9989,4.0093,4.0108,3.9618,3.9511,4.0082,4.0301,3.994,3.9805,3.9483,3.9904,4.0575,4.0536,3.9758,3.9716,3.9999,3.9798,3.9802,3.9674,3.9891,4.0348,4.0742,3.9808,3.9377,3.9799,4.0655,4.0188,3.9377,3.9096,3.9238,3.9791,3.9996,4.0297,4.0455,4.0176,4.0163,4.0402,4.0703,4.0694,4.0766,4.0749,4.0678,4.0734,4.0725,4.0653,4.0552,4.0463,3.9745,3.9369,3.9371,3.9382,3.9473,3.9514,3.9688,3.9732,3.9798,3.9469,3.9438,3.9306,3.9244,3.9468,3.9298,3.935,3.9332,3.934,3.9096,3.818,3.8376,4.0213,4.3385,4.7062,5.1239,5.4314,5.437,5.3499,5.0593,4.5813,4.2627,4.1063,4.0364,3.9839,3.9775,3.9594,4.0182,4.0204,3.9622,3.9415,3.9555,3.9202,3.9555,3.9141,3.9011,3.9041,3.9157,3.913,3.9329,3.923,3.943,3.947,3.9552,3.9677,3.9704,3.9844,3.9519,3.9417,3.9736,3.9999,3.9992,3.9645,3.9713,3.9707,3.955,3.9957,4.0151,4.0212,3.9928,4.0367,4.0544,4.0632,4.0766,4.1083,4.1624,4.1314,4.0555,4.0973,4.1554,4.1863,4.1768,4.1671,4.1996,4.2246,4.1904,4.1662,4.1586,4.1969,4.2038,4.1782,4.1534,4.1227,4.1031,4.1315,4.0792,4.0521,4.0414,4.0166,3.9352,3.9698,3.9789,3.9946,3.9971,3.9683,3.9372,3.9507,3.9701,3.9775,3.9691,3.9793,4.0027,3.9718,3.9233,3.9179,3.9596,3.9931,3.9696,3.9637,3.9984,3.9554,3.9628,3.9719,3.985,3.9909,3.9568,3.9453,3.9539,3.9555,3.955,3.9424,3.9663,3.9866,3.9725,3.9465,3.972,3.9912,3.9652,3.9767,3.997,3.9687,3.938,3.9231,3.9547,3.9937,3.9565,3.9236,3.9299,3.9766,3.94,3.921,3.9297,3.9706,3.9823,3.9604,3.9319,3.9641,3.9682,3.937,3.9451,3.9854,3.9848,3.9971,3.9987,3.9869,4.0135,3.9747,3.9951,4.0774,4.069,4.0684,4.1127,4.0671,4.0269,3.979,3.9903,3.9935,3.9321,3.9261,3.9947,3.9734,3.9188,3.9282,3.9562,3.9204,3.8712,3.8754,3.902,3.9209,3.9355,3.9289,3.9321,3.9229,3.8818,3.7663,3.7694,3.8202,3.995,4.2723,4.6386,5.099,5.4416,5.4913,5.2824,4.8443,4.4296,4.1836,4.0827,4.027,3.9779,3.9399,3.9229,3.9437,3.9354,3.9452,3.9535,3.9468,3.9163,3.9147,3.9431,3.933,3.9169,3.918,3.9006,3.9353,3.8901,3.9028,3.9553,3.9735,3.9798,3.9762,3.9709,3.9653,3.9424,3.9528,3.9398,3.9573,3.9352,3.9749,4.0019,4.0017,3.9907,4.0206,4.0188,4.021,4.0185,4.0298,4.0442,4.0534,4.0743,4.0573,4.1073,4.131,4.1704,4.1803,4.1701,4.1441,4.1604,4.2013,4.1901,4.1963,4.2034,4.2297,4.2248,4.1769,4.1718,4.1792,4.1439,4.0661,4.0505,4.0634,4.0567,4.0319,4.0065,4.0102,4.0196,3.9773,3.9677,3.9651,3.9691,3.9516,3.9211,3.9654,3.9963,3.9603,3.9424,3.9771,3.9532,3.9258,3.98,3.9962,4.0065,3.9739,3.9526,3.9353,3.9616,3.9556,3.9686,3.9607,3.9377,3.9853,4.0142,4.0211,3.9637,3.9506,3.9419,3.9064,3.9133,3.9495,3.9954,3.988,3.9879,3.9594,3.9547,3.9697,3.9763,3.9802,3.958,3.9435,3.9483,3.9881,3.9494,3.9136,3.9246,3.9473,3.9865,3.9728,3.956,3.9519,3.9434,3.918,3.9465,3.9687,3.9865,3.9692,3.9303,3.9027,3.9125,3.9452,3.9786,3.9844,3.9815,3.9264,3.9135,3.9401,3.9363,3.9348,3.9404,3.9362,3.9224,3.943,3.9901,4.0042,3.9825,3.964,3.9941,4.0186,3.9823,3.9716,3.9829,3.9972,4.1009,4.103,4.0122,4.0005,4.0458,4.0304,4.0414,4.0187,3.9524,3.9231,3.9428,3.9481,3.942,3.9392,3.9208,3.9367,3.9116,3.9005,3.9057,3.9206,3.913,3.9109,3.9043,3.9157,3.8987,3.9118,3.8385,3.7787,3.8088,3.9806,4.2608,4.6558,5.0487,5.2174,5.4487,5.38,5.0661,4.6332,4.2364,4.111,4.0504,4.0432,4.0022,3.9921,3.9635,3.9211,3.8863,3.9118,3.9249,3.9413,3.9007,3.9114,3.9101,3.9254,3.9301,3.936,3.9329,3.9725,3.9311,3.9279,3.9573,3.9854,3.9381,3.9201,3.9542,3.9869,3.9678,3.9486,3.9342,3.9452,3.9655,3.9962,4.0257,4.0418,4.0458,3.9851,3.9694,4.0327,4.0531,4.0562,4.0559,4.0649,4.0717,4.0976,4.1181,4.1311,4.1808,4.1961,4.1952,4.1628,4.1736,4.2201,4.2714,4.2444,4.2139,4.189,4.2268,4.2246,4.2048,4.1705,4.1371,4.062,4.0737,4.0795,4.0523,4.0076,4.0061,4.0053,4.0198,4.0311,3.9953,3.9518,3.9231,3.9422,3.9863,3.9926,3.9738,4.0021,4.0154,3.9949,3.9707,3.9412,3.9497,3.975,4.0234,3.9932,3.9062,3.916,3.9279,3.964,3.9603,3.963,3.9854,4.0172,3.9804,3.9582,3.9455,3.9588,3.9789,3.9763,3.992,3.9891,3.974,3.9897,3.9804,3.9586,3.9524,3.9501,3.9521,3.9882,3.9946,3.9438,3.9728,3.9971,3.9599,3.9256,3.9217,3.9338,3.9871,4.0178,3.9596,3.9392,3.9581,3.9491,3.9658,3.9555,3.9484,3.9443,3.9613,3.955,3.9953,3.9903,3.9708,3.9747,4.0148,3.9803,3.9614,4.037,4.0563,4.0315,4.0278,4.0233,4.0583,4.0564,4.0571,4.0102,4.0056,3.9992,3.99,3.9392,3.9345,3.9427,3.9505,3.9222,3.9229,3.9262,3.9305,3.9525,3.9394,3.932,3.9105,3.8939,3.9007,3.9241,3.9283,3.8967,3.8138,3.8388,3.8636,4.0927,4.4298,4.7772,5.1123,5.3498,5.3373,5.103,4.9166,4.4857,4.1784,4.0858,3.9961,3.9871,4.0074,4.0164,3.9634,3.967,3.9614,3.9303,3.9394,3.8646,3.8596,3.9617,3.9604,3.9133,3.8874,3.9308,3.9502,3.953,3.927,3.954,3.9762,3.9585,3.942,3.9461,3.9835,3.9967,3.9985,3.9663,3.9426,3.9877,4.0002,3.9794,3.9659,4.0192,4.038,4.0392,4.0394,4.0804,4.062,4.0406,4.053,4.1136,4.1347,4.1651,4.1702,4.1395,4.1354,4.1843,4.2369,4.2208,4.1419,4.2016,4.2762,4.2617,4.2252,4.2257,4.1766,4.1547,4.1633,4.1845,4.1321,4.0416,4.0421,4.0527,4.0221,4.0383,4.068,3.9945,3.9665,3.9389,3.9418,3.9329,3.9428,3.9682,4.0308,3.9585,3.9065,3.9518,3.9796,3.9533,3.9357,3.965,3.9955,3.9493,3.9106,3.9467,3.9773,3.9701,3.9769,3.9772,3.9697,3.9784,3.9217,3.9141,3.9784,3.998,3.9939,3.9588,3.9389,3.9412,3.954,3.9641,3.999,3.9849,3.94,3.9358,3.9425,3.9922,4.0206,4.0089,3.9469,3.8925,3.9316,3.9681,3.946,3.9871,4.026,4.0187,4.0077,4.0301,4.0697,4.0058,4.0121,4.0239,4.0293,4.05,4.0653,4.056,4.0054,3.9933,3.962,3.8982,3.9001,3.9204,3.9324,3.9452,3.9263,3.9493,3.9406,3.9078,3.856,3.9161,3.9466,3.9589,3.9377,3.8966,3.9434,3.8997,3.7444,3.7415,3.799,3.9701,4.2682,4.6199,5.0241,5.3356,5.4185,5.2856,4.8414,4.567,4.276,4.1446,4.121,4.0269,4.0042,3.9109,3.8922,3.8878,3.9546,3.9508,3.934,3.9168,3.9295,3.8872,3.9165,3.9416,3.9546,3.9202,3.9412,3.9272,3.9317,3.9555,3.9679,3.9421,3.9311,3.9186,3.9286,3.9475,3.975,3.9754,3.9972,3.9977,3.9574,3.9297,3.9804,4.02,4.0527,4.0245,4,4.0162,4.0324,4.0099,4.0596,4.0777,4.0805,4.1161,4.1249,4.1874,4.1713,4.1385,4.1925,4.2297,4.2111,4.189,4.2013,4.2321,4.2348,4.1868,4.1857,4.1633,4.1308,4.1188,4.1248,4.1048,4.056,4.0078,4.0222,4.0221,3.9892,4.0272,3.996,3.9685,3.9427,3.9524,3.9765,3.9629,3.9705,3.9797,3.9368,3.9294,3.9281,3.9584,3.9739,3.9562,3.9323,3.932,3.9585,4.0175,4.0016,3.9837,3.9513,3.9256,3.9493,3.9609,3.9393,3.9621,3.9872,3.9925,3.954,3.9139,3.9139,3.9382,3.9769,4.014,4.0202,3.9961,4.0008,3.99,3.9456,3.9808,3.9738,3.8959,3.9072,3.9535,3.9723,3.9322,3.9012,3.9142,3.9375,3.9654,3.9954,4.014,4.0195,3.9797,3.9158,4.0051,4.063,4.0547,3.9902,4.0209,4.0743,4.0286,4.0071,4.0428,4.0389,4.0031,3.957,3.9424,3.9385,3.962,3.9738,3.971,3.9582,3.9023,3.9077,3.9386,3.9324,3.9097,3.9128,3.9038,3.8815,3.889,3.9046,3.9014,3.9145,3.8242,3.7679,3.8262,4.0351,4.3268,4.6864,5.0589,5.2188,5.4306,5.3423,5.0608,4.6093,4.2755,4.1154,4.0533,4.0098,3.9503,3.9508,3.9507,3.9653,3.9531,3.9516,3.8771,3.8905,3.9308,3.9755,3.9487,3.8943,3.8786,3.9031,3.9266,3.9376,3.9429,3.987,3.9658,3.8779,3.8699,3.9216,3.9415,4.0073,4.0171,3.9748,3.9655,3.944,3.964,3.9726,3.9553,3.9727,3.9814,4.0153,4.0182,4.0004,4.0205,4.0724,4.096,4.0947,4.0765,4.1027,4.1394,4.1775,4.1999,4.1665,4.1752,4.2185,4.2079,4.1835,4.179,4.2311,4.2481,4.2066,4.1845,4.1769,4.1795,4.1349,4.0775,4.1036,4.0656,4.0658,4.0524,4.0242,4.0314,4.0079,3.958,3.9694,3.9837,3.957,3.9352,3.944,3.9626,3.97,3.9581,3.9419,3.9704,3.9712,3.967,3.9695,4.0047,4.0599,3.9908,3.9136,3.8996,3.9327,3.9527,3.9721,3.9928,4.0047,3.9783,3.9583,3.9394,3.9573,3.9609,3.9698,3.9999,3.9644,3.9831,4.0006,4.0059,3.9994,3.9047,3.9105,3.984,4.0068,3.9752,3.9447,3.9357,3.9302,3.9496,3.9528,3.9589,3.9491,3.9788,3.9738,3.9573,3.9541,3.9505,3.9649,3.9645,4.0023,3.9857,3.9268,3.9571,3.9451,3.9359,3.9317,3.9344,3.9601,3.9235,3.9415,3.9542,3.9553,3.9573,3.9303,3.946,3.9757,4.0044,4.0224,4.0433,3.973,3.9933,4.0059,4.0386,4.0562,4.0411,4.046,4.0638,4.0746,4.0633,4.0403,3.9879,3.9498,3.9358,3.9218,3.938,3.9559,3.9701,3.9787,3.9613,3.9438,3.9071,3.8929,3.8989,3.9161,3.9175,3.9071,3.9353,3.955,3.9069,3.8418,3.8138,3.8457
