-20.438,-20.445,-20.428,-20.428,-20.417,-20.426,-20.425,-20.415,-20.404,-20.407,-20.41,-20.404,-20.385,-20.379,-20.373,-20.382,-20.374,-20.364,-20.353,-20.344,-20.334,-20.341,-20.331,-20.304,-20.289,-20.284,-20.287,-20.274,-20.248,-20.225,-20.218,-20.202,-20.189,-20.166,-20.147,-20.136,-20.125,-20.11,-20.102,-20.079,-20.075,-20.072,-20.071,-20.058,-20.03,-20.034,-20.045,-20.045,-20.066,-20.079,-20.105,-20.151,-20.187,-20.214,-20.25,-20.277,-20.325,-20.353,-20.371,-20.378,-20.405,-20.421,-20.442,-20.455,-20.451,-20.458,-20.467,-20.47,-20.469,-20.464,-20.467,-20.478,-20.489,-20.48,-20.474,-20.461,-20.466,-20.472,-20.471,-20.462,-20.458,-20.45,-20.456,-20.46,-20.457,-20.448,-20.454,-20.455,-20.462,-20.459,-20.443,-20.433,-20.446,-20.453,-20.447,-20.442,-20.448,-20.457,-20.462,-20.451,-20.452,-20.452,-20.45,-20.458,-20.461,-20.465,-20.462,-20.463,-20.474,-20.467,-20.466,-20.457,-20.464,-20.485,-20.477,-20.48,-20.465,-20.469,-20.47,-20.485,-20.474,-20.468,-20.467,-20.469,-20.473,-20.479,-20.474,-20.465,-20.476,-20.484,-20.482,-20.474,-20.479,-20.489,-20.488,-20.484,-20.472,-20.464,-20.469,-20.484,-20.494,-20.487,-20.47,-20.469,-20.486,-20.495,-20.477,-20.471,-20.469,-20.471,-20.478,-20.484,-20.487,-20.482,-20.487,-20.487,-20.48,-20.479,-20.469,-20.474,-20.483,-20.484,-20.47,-20.468,-20.468,-20.483,-20.485,-20.469,-20.458,-20.463,-20.473,-20.461,-20.442,-20.434,-20.419,-20.425,-20.402,-20.385,-20.359,-20.37,-20.391,-20.408,-20.415,-20.407,-20.425,-20.45,-20.446,-20.45,-20.463,-20.478,-20.482,-20.496,-20.496,-20.475,-20.485,-20.5,-20.506,-20.502,-20.5,-20.503,-20.508,-20.518,-20.519,-20.503,-20.502,-20.51,-20.516,-20.516,-20.504,-20.52,-20.573,-20.603,-20.513,-20.319,-20.093,-19.857,-19.544,-19.337,-19.226,-19.344,-19.785,-20.193,-20.546,-20.62,-20.563,-20.49,-20.435,-20.421,-20.439,-20.442,-20.439,-20.451,-20.457,-20.449,-20.435,-20.428,-20.426,-20.433,-20.435,-20.428,-20.424,-20.424,-20.429,-20.425,-20.41,-20.406,-20.403,-20.416,-20.413,-20.395,-20.379,-20.383,-20.388,-20.383,-20.372,-20.363,-20.354,-20.357,-20.36,-20.358,-20.34,-20.32,-20.305,-20.311,-20.305,-20.283,-20.271,-20.259,-20.251,-20.23,-20.206,-20.189,-20.181,-20.171,-20.15,-20.132,-20.108,-20.108,-20.107,-20.089,-20.073,-20.04,-20.028,-20.035,-20.022,-20.015,-20.007,-20.012,-20.03,-20.049,-20.069,-20.086,-20.128,-20.174,-20.213,-20.241,-20.272,-20.289,-20.317,-20.351,-20.366,-20.376,-20.393,-20.415,-20.438,-20.444,-20.439,-20.437,-20.444,-20.458,-20.449,-20.442,-20.434,-20.438,-20.443,-20.442,-20.434,-20.422,-20.42,-20.422,-20.428,-20.422,-20.413,-20.411,-20.417,-20.419,-20.416,-20.411,-20.405,-20.411,-20.41,-20.413,-20.402,-20.403,-20.411,-20.417,-20.421,-20.42,-20.415,-20.42,-20.425,-20.424,-20.421,-20.423,-20.426,-20.442,-20.443,-20.435,-20.443,-20.437,-20.454,-20.455,-20.44,-20.445,-20.445,-20.455,-20.457,-20.453,-20.446,-20.442,-20.46,-20.474,-20.458,-20.452,-20.452,-20.45,-20.462,-20.457,-20.449,-20.465,-20.467,-20.467,-20.47,-20.46,-20.459,-20.466,-20.475,-20.474,-20.468,-20.456,-20.457,-20.474,-20.472,-20.47,-20.463,-20.463,-20.475,-20.474,-20.473,-20.464,-20.469,-20.476,-20.473,-20.45,-20.438,-20.427,-20.426,-20.427,-20.402,-20.363,-20.361,-20.38,-20.417,-20.424,-20.413,-20.415,-20.429,-20.441,-20.448,-20.452,-20.474,-20.491,-20.498,-20.503,-20.497,-20.497,-20.499,-20.51,-20.513,-20.51,-20.5,-20.509,-20.507,-20.515,-20.513,-20.507,-20.502,-20.506,-20.507,-20.499,-20.499,-20.509,-20.558,-20.609,-20.578,-20.442,-20.241,-20.116,-19.864,-19.537,-19.249,-19.186,-19.501,-19.951,-20.361,-20.602,-20.609,-20.546,-20.491,-20.428,-20.413,-20.412,-20.431,-20.438,-20.452,-20.421,-20.422,-20.416,-20.425,-20.427,-20.427,-20.416,-20.419,-20.418,-20.41,-20.405,-20.397,-20.387,-20.39,-20.402,-20.404,-20.378,-20.369,-20.374,-20.38,-20.368,-20.363,-20.359,-20.35,-20.343,-20.339,-20.33,-20.318,-20.325,-20.32,-20.308,-20.283,-20.268,-20.26,-20.26,-20.242,-20.23,-20.212,-20.197,-20.189,-20.17,-20.156,-20.141,-20.127,-20.112,-20.102,-20.086,-20.061,-20.052,-20.05,-20.043,-20.029,-20.018,-20.023,-20.028,-20.048,-20.065,-20.066,-20.1,-20.137,-20.169,-20.18,-20.215,-20.245,-20.291,-20.331,-20.351,-20.369,-20.384,-20.396,-20.42,-20.431,-20.435,-20.434,-20.443,-20.458,-20.468,-20.461,-20.448,-20.447,-20.452,-20.453,-20.457,-20.451,-20.448,-20.449,-20.454,-20.452,-20.438,-20.43,-20.431,-20.443,-20.442,-20.43,-20.425,-20.436,-20.447,-20.437,-20.432,-20.431,-20.432,-20.433,-20.431,-20.431,-20.42,-20.431,-20.444,-20.445,-20.444,-20.449,-20.442,-20.437,-20.441,-20.444,-20.451,-20.455,-20.451,-20.452,-20.455,-20.46,-20.455,-20.455,-20.469,-20.47,-20.461,-20.463,-20.466,-20.476,-20.473,-20.464,-20.458,-20.455,-20.465,-20.464,-20.459,-20.468,-20.469,-20.474,-20.477,-20.467,-20.47,-20.459,-20.463,-20.461,-20.455,-20.437,-20.438,-20.427,-20.412,-20.38,-20.354,-20.36,-20.385,-20.407,-20.422,-20.415,-20.426,-20.431,-20.448,-20.455,-20.466,-20.487,-20.481,-20.497,-20.499,-20.5,-20.49,-20.489,-20.503,-20.513,-20.507,-20.501,-20.503,-20.508,-20.51,-20.505,-20.49,-20.496,-20.504,-20.505,-20.501,-20.492,-20.511,-20.57,-20.622,-20.555,-20.384,-20.163,-19.889,-19.598,-19.269,-19.166,-19.418,-19.874,-20.285,-20.588,-20.578,-20.544,-20.5,-20.451,-20.431,-20.418,-20.427,-20.424,-20.437,-20.443,-20.439,-20.426,-20.429,-20.425,-20.426,-20.423,-20.42,-20.408,-20.415,-20.411,-20.408,-20.393,-20.393,-20.393,-20.399,-20.393,-20.386,-20.376,-20.373,-20.387,-20.382,-20.355,-20.357,-20.339,-20.343,-20.343,-20.336,-20.312,-20.306,-20.301,-20.302,-20.279,-20.265,-20.252,-20.254,-20.248,-20.219,-20.188,-20.183,-20.174,-20.167,-20.154,-20.124,-20.118,-20.104,-20.088,-20.072,-20.051,-20.046,-20.047,-20.038,-20.034,-20.026,-20.031,-20.054,-20.073,-20.094,-20.109,-20.133,-20.179,-20.211,-20.246,-20.27,-20.302,-20.33,-20.365,-20.381,-20.393,-20.409,-20.426,-20.448,-20.458,-20.444,-20.447,-20.45,-20.457,-20.464,-20.463,-20.462,-20.464,-20.465,-20.469,-20.462,-20.455,-20.452,-20.454,-20.459,-20.459,-20.448,-20.449,-20.443,-20.452,-20.442,-20.432,-20.439,-20.436,-20.447,-20.45,-20.441,-20.428,-20.433,-20.443,-20.444,-20.438,-20.435,-20.437,-20.449,-20.458,-20.45,-20.443,-20.448,-20.464,-20.46,-20.453,-20.451,-20.453,-20.456,-20.466,-20.462,-20.461,-20.465,-20.459,-20.473,-20.48,-20.467,-20.466,-20.468,-20.471,-20.468,-20.465,-20.461,-20.473,-20.486,-20.483,-20.474,-20.464,-20.464,-20.471,-20.472,-20.478,-20.483,-20.472,-20.489,-20.479,-20.476,-20.468,-20.474,-20.481,-20.479,-20.47,-20.449,-20.452,-20.457,-20.449,-20.436,-20.431,-20.413,-20.402,-20.383,-20.361,-20.366,-20.384,-20.406,-20.426,-20.434,-20.436,-20.447,-20.464,-20.485,-20.499,-20.494,-20.496,-20.5,-20.51,-20.506,-20.502,-20.503,-20.497,-20.512,-20.522,-20.512,-20.505,-20.507,-20.509,-20.515,-20.506,-20.504,-20.5,-20.51,-20.529,-20.567,-20.591,-20.515,-20.374,-20.168,-20.03,-19.772,-19.374,-19.187,-19.258,-19.652,-20.078,-20.459,-20.597,-20.593,-20.525,-20.457,-20.419,-20.416,-20.444,-20.439,-20.436,-20.425,-20.435,-20.43,-20.436,-20.427,-20.424,-20.424,-20.435,-20.419,-20.413,-20.404,-20.407,-20.396,-20.411,-20.407,-20.391,-20.381,-20.38,-20.374,-20.368,-20.357,-20.355,-20.351,-20.364,-20.351,-20.342,-20.328,-20.317,-20.32,-20.307,-20.301,-20.288,-20.278,-20.272,-20.256,-20.254,-20.223,-20.213,-20.204,-20.184,-20.161,-20.128,-20.122,-20.113,-20.1,-20.083,-20.066,-20.061,-20.05,-20.054,-20.034,-20.015,-20,-19.994,-20.013,-20.027,-20.031,-20.05,-20.083,-20.117,-20.154,-20.177,-20.189,-20.224,-20.265,-20.297,-20.32,-20.349,-20.379,-20.401,-20.414,-20.415,-20.415,-20.43,-20.449,-20.453,-20.46,-20.444,-20.444,-20.446,-20.456,-20.452,-20.447,-20.44,-20.446,-20.452,-20.453,-20.444,-20.437,-20.44,-20.451,-20.444,-20.433,-20.421,-20.424,-20.435,-20.435,-20.427,-20.425,-20.429,-20.431,-20.429,-20.424,-20.416,-20.422,-20.425,-20.425,-20.436,-20.428,-20.422,-20.436,-20.438,-20.444,-20.438,-20.442,-20.457,-20.451,-20.451,-20.446,-20.439,-20.452,-20.456,-20.462,-20.457,-20.439,-20.442,-20.451,-20.455,-20.452,-20.447,-20.447,-20.458,-20.459,-20.453,-20.446,-20.451,-20.464,-20.468,-20.46,-20.454,-20.457,-20.463,-20.469,-20.459,-20.45,-20.445,-20.453,-20.46,-20.457,-20.457,-20.456,-20.458,-20.468,-20.464,-20.462,-20.464,-20.467,-20.463,-20.459,-20.454,-20.451,-20.454,-20.463,-20.46,-20.456,-20.461,-20.453,-20.462,-20.471,-20.461,-20.453,-20.452,-20.453,-20.461,-20.456,-20.449,-20.45,-20.455,-20.458,-20.449,-20.44,-20.436,-20.433,-20.421,-20.411,-20.381,-20.352,-20.358,-20.381,-20.395,-20.397,-20.407,-20.402,-20.42,-20.425,-20.422,-20.434,-20.443,-20.473,-20.491,-20.481,-20.49,-20.491,-20.497,-20.501,-20.486,-20.484,-20.482,-20.49,-20.494,-20.481,-20.475,-20.484,-20.496,-20.496,-20.494,-20.487,-20.505,-20.545,-20.594,-20.546,-20.388,-20.286,-20.062,-19.827,-19.486,-19.182,-19.193,-19.534,-20,-20.355,-20.564,-20.558,-20.498,-20.439,-20.41,-20.399,-20.422,-20.411,-20.437,-20.419,-20.419,-20.418,-20.418,-20.418,-20.421,-20.414,-20.395,-20.395,-20.406,-20.399,-20.394,-20.38,-20.382,-20.382,-20.387,-20.374,-20.371,-20.363,-20.368,-20.364,-20.349,-20.342,-20.336,-20.34,-20.337,-20.333,-20.314,-20.308,-20.294,-20.297,-20.286,-20.267,-20.251,-20.248,-20.243,-20.226,-20.201,-20.177,-20.169,-20.161,-20.142,-20.126,-20.107,-20.091,-20.069,-20.066,-20.053,-20.025,-20.009,-20.011,-20.01,-19.997,-19.971,-19.972,-19.985,-19.998,-20.006,-20.021,-20.054,-20.094,-20.132,-20.148,-20.18,-20.199,-20.236,-20.289,-20.313,-20.334,-20.33,-20.348,-20.373,-20.393,-20.401,-20.401,-20.411,-20.426,-20.434,-20.434,-20.421,-20.425,-20.438,-20.446,-20.425,-20.408,-20.411,-20.411,-20.418,-20.414,-20.398,-20.4,-20.396,-20.415,-20.403,-20.401,-20.399,-20.402,-20.396,-20.402,-20.398,-20.377,-20.382,-20.385,-20.388,-20.38,-20.377,-20.389,-20.399,-20.406,-20.401,-20.399,-20.398,-20.404,-20.406,-20.398,-20.39,-20.398,-20.408,-20.424,-20.422,-20.408,-20.407,-20.406,-20.419,-20.423,-20.421,-20.414,-20.421,-20.428,-20.417,-20.419,-20.417,-20.424,-20.428,-20.425,-20.431,-20.419,-20.421,-20.431,-20.426,-20.425,-20.426,-20.426,-20.44,-20.423,-20.427,-20.422,-20.427,-20.428,-20.441,-20.44,-20.424,-20.417,-20.428,-20.446,-20.442,-20.436,-20.43,-20.43,-20.439,-20.431,-20.426,-20.421,-20.429,-20.431,-20.429,-20.414,-20.395,-20.391,-20.377,-20.354,-20.327,-20.332,-20.361,-20.391,-20.388,-20.379,-20.389,-20.404,-20.417,-20.426,-20.435,-20.431,-20.45,-20.461,-20.474,-20.472,-20.466,-20.467,-20.47,-20.48,-20.48,-20.466,-20.47,-20.475,-20.483,-20.47,-20.469,-20.471,-20.482,-20.494,-20.485,-20.48,-20.485,-20.538,-20.571,-20.493,-20.317,-20.087,-19.811,-19.489,-19.214,-19.176,-19.478,-19.939,-20.348,-20.59,-20.572,-20.502,-20.448,-20.405,-20.408,-20.397,-20.395,-20.403,-20.406,-20.414,-20.423,-20.397,-20.392,-20.399,-20.403,-20.397,-20.39,-20.388,-20.377,-20.391,-20.39,-20.379,-20.375,-20.364,-20.37,-20.366,-20.355,-20.347,-20.337,-20.347,-20.348,-20.337,-20.318,-20.322,-20.311,-20.316,-20.298,-20.282,-20.278,-20.263,-20.26,-20.242,-20.226,-20.222,-20.224,-20.216,-20.194,-20.172,-20.158,-20.141,-20.127,-20.115,-20.087,-20.07,-20.062,-20.06,-20.041,-20.028,-20.012,-19.987,-19.996,-20.001,-19.988,-19.988,-19.999,-20.018,-20.04,-20.062,-20.088,-20.121,-20.163,-20.192,-20.221,-20.249,-20.283,-20.324,-20.357,-20.365,-20.377,-20.395,-20.408,-20.419,-20.43,-20.428,-20.431,-20.43,-20.439,-20.431,-20.432,-20.433,-20.436,-20.437,-20.433,-20.431,-20.416,-20.429,-20.437,-20.433,-20.425,-20.407,-20.416,-20.429,-20.427,-20.418,-20.411,-20.416,-20.421,-20.426,-20.412,-20.402,-20.406,-20.414,-20.42,-20.433,-20.418,-20.413,-20.42,-20.438,-20.436,-20.422,-20.416,-20.432,-20.442,-20.438,-20.437,-20.433,-20.438,-20.453,-20.451,-20.445,-20.43,-20.442,-20.449,-20.456,-20.458,-20.437,-20.44,-20.447,-20.467,-20.468,-20.454,-20.456,-20.46,-20.46,-20.465,-20.455,-20.438,-20.441,-20.442,-20.431,-20.423,-20.421,-20.405,-20.387,-20.36,-20.34,-20.356,-20.375,-20.411,-20.421,-20.419,-20.411,-20.422,-20.449,-20.461,-20.482,-20.478,-20.474,-20.486,-20.495,-20.498,-20.493,-20.499,-20.496,-20.507,-20.509,-20.491,-20.493,-20.506,-20.503,-20.503,-20.499,-20.503,-20.511,-20.513,-20.514,-20.512,-20.542,-20.599,-20.588,-20.464,-20.244,-19.975,-19.684,-19.332,-19.19,-19.293,-19.721,-20.137,-20.532,-20.625,-20.567,-20.508,-20.435,-20.432,-20.397,-20.421,-20.408,-20.431,-20.423,-20.436,-20.418,-20.417,-20.406,-20.42,-20.414,-20.414,-20.389,-20.402,-20.395,-20.419,-20.388,-20.387,-20.378,-20.38,-20.387,-20.388,-20.369,-20.375,-20.367,-20.363,-20.359,-20.353,-20.342,-20.335,-20.335,-20.331,-20.319,-20.301,-20.283,-20.291,-20.278,-20.261,-20.251,-20.248,-20.232,-20.215,-20.203,-20.186,-20.175,-20.155,-20.143,-20.127,-20.106,-20.086,-20.079,-20.075,-20.07,-20.039,-20.032,-20.035,-20.037,-20.028,-20.023,-20.024,-20.039,-20.072,-20.11,-20.133,-20.156,-20.186,-20.227,-20.263,-20.296,-20.322,-20.354,-20.384,-20.402,-20.406,-20.414,-20.422,-20.438,-20.448,-20.455,-20.452,-20.453,-20.455,-20.472,-20.462,-20.461,-20.448,-20.456,-20.459,-20.46,-20.45,-20.448,-20.439,-20.452,-20.451,-20.442,-20.435,-20.444,-20.441,-20.444,-20.437,-20.427,-20.422,-20.443,-20.443,-20.439,-20.43,-20.441,-20.439,-20.449,-20.453,-20.437,-20.44,-20.444,-20.455,-20.46,-20.445,-20.446,-20.454,-20.46,-20.461,-20.45,-20.456,-20.458,-20.47,-20.471,-20.468,-20.455,-20.456,-20.473,-20.475,-20.477,-20.468,-20.469,-20.485,-20.47,-20.472,-20.468,-20.471,-20.476,-20.468,-20.454,-20.452,-20.459,-20.45,-20.449,-20.437,-20.398,-20.38,-20.366,-20.373,-20.387,-20.397,-20.423,-20.43,-20.442,-20.446,-20.444,-20.461,-20.469,-20.499,-20.509,-20.509,-20.501,-20.514,-20.521,-20.521,-20.515,-20.504,-20.509,-20.528,-20.532,-20.519,-20.509,-20.511,-20.517,-20.513,-20.514,-20.51,-20.512,-20.514,-20.549,-20.601,-20.588,-20.488,-20.302,-20.063,-19.804,-19.442,-19.209,-19.224,-19.606,-20.048,-20.43,-20.611,-20.593,-20.54,-20.47,-20.433,-20.42,-20.441,-20.446,-20.461,-20.447,-20.444,-20.427,-20.441,-20.443,-20.438,-20.42,-20.432,-20.431,-20.432,-20.418,-20.415,-20.413,-20.423,-20.407,-20.406,-20.394,-20.401,-20.392,-20.4,-20.387,-20.383,-20.369,-20.369,-20.369,-20.355,-20.335,-20.338,-20.329,-20.333,-20.319,-20.299,-20.286,-20.28,-20.278,-20.257,-20.244,-20.214,-20.203,-20.202,-20.199,-20.17,-20.147,-20.126,-20.12,-20.104,-20.088,-20.073,-20.058,-20.053,-20.046,-20.038,-20.026,-20.023,-20.029,-20.042,-20.051,-20.064,-20.088,-20.116,-20.162,-20.192,-20.216,-20.255,-20.297,-20.326,-20.356,-20.376,-20.387,-20.406,-20.427,-20.444,-20.437,-20.439,-20.455,-20.47,-20.473,-20.462,-20.459,-20.456,-20.473,-20.479,-20.47,-20.452,-20.461,-20.458,-20.453,-20.455,-20.444,-20.438,-20.449,-20.449,-20.449,-20.427,-20.442,-20.439,-20.444,-20.446,-20.439,-20.441,-20.436,-20.452,-20.447,-20.432,-20.428,-20.428,-20.439,-20.45,-20.449,-20.445,-20.447,-20.454,-20.463,-20.466,-20.454,-20.462,-20.456,-20.463,-20.471,-20.461,-20.457,-20.461,-20.479,-20.468,-20.458,-20.47,-20.464,-20.485,-20.481,-20.467,-20.467,-20.481,-20.496,-20.483,-20.476,-20.484,-20.48,-20.485,-20.478,-20.484,-20.463,-20.465,-20.483,-20.483,-20.479,-20.469,-20.476,-20.482,-20.484,-20.487,-20.484,-20.477,-20.492,-20.486,-20.482,-20.467,-20.476,-20.463,-20.484,-20.49,-20.484,-20.49,-20.477,-20.491,-20.493,-20.479,-20.476,-20.484,-20.49,-20.487,-20.489,-20.483,-20.485,-20.494,-20.486,-20.48,-20.476,-20.472,-20.484,-20.49,-20.482,-20.456,-20.463,-20.471,-20.467,-20.462,-20.447,-20.426,-20.437,-20.423,-20.386,-20.374,-20.385,-20.42,-20.436,-20.431,-20.431,-20.423,-20.439,-20.459,-20.456,-20.471,-20.489,-20.503,-20.512,-20.52,-20.511,-20.508,-20.51,-20.522,-20.518,-20.521,-20.509,-20.518,-20.527,-20.512,-20.503,-20.498,-20.503,-20.514,-20.521,-20.539,-20.556,-20.592,-20.548,-20.396,-20.172,-19.933,-19.655,-19.293,-19.204,-19.42,-19.858,-20.265,-20.567,-20.632,-20.599,-20.528,-20.446,-20.425,-20.431,-20.444,-20.433,-20.448,-20.433,-20.458,-20.442,-20.442,-20.427,-20.437,-20.442,-20.448,-20.434,-20.42,-20.407,-20.413,-20.411,-20.415,-20.393,-20.393,-20.394,-20.396,-20.381,-20.382,-20.375,-20.371,-20.361,-20.364,-20.356,-20.345,-20.337,-20.334,-20.325,-20.302,-20.297,-20.295,-20.3,-20.283,-20.272,-20.249,-20.232,-20.238,-20.221,-20.199,-20.172,-20.151,-20.143,-20.124,-20.108,-20.096,-20.081,-20.074,-20.052,-20.045,-20.027,-20.021,-20.024,-20.031,-20.03,-20.016,-20.02,-20.03,-20.064,-20.091,-20.104,-20.134,-20.176,-20.225,-20.267,-20.295,-20.329,-20.352,-20.382,-20.397,-20.41,-20.413,-20.43,-20.431,-20.449,-20.447,-20.448,-20.448,-20.454,-20.456,-20.453,-20.444,-20.448,-20.447,-20.463,-20.455,-20.434,-20.432,-20.442,-20.447,-20.445,-20.442,-20.435,-20.431,-20.436,-20.434,-20.431,-20.43,-20.426,-20.433,-20.444,-20.434,-20.425,-20.421,-20.431,-20.442,-20.437,-20.437,-20.441,-20.45,-20.449,-20.447,-20.443,-20.449,-20.455,-20.455,-20.455,-20.449,-20.447,-20.454,-20.468,-20.469,-20.463,-20.466,-20.467,-20.457,-20.474,-20.464,-20.475,-20.471,-20.472,-20.474,-20.463,-20.474,-20.475,-20.491,-20.483,-20.474,-20.463,-20.464,-20.474,-20.482,-20.476,-20.475,-20.471,-20.484,-20.491,-20.475,-20.468,-20.478,-20.491,-20.487,-20.471,-20.478,-20.482,-20.48,-20.487,-20.484,-20.48,-20.476,-20.479,-20.479,-20.466,-20.46,-20.463,-20.459,-20.458,-20.442,-20.429,-20.414,-20.387,-20.383,-20.387,-20.398,-20.415,-20.425,-20.429,-20.444,-20.446,-20.444,-20.454,-20.48,-20.494,-20.505,-20.496,-20.508,-20.526,-20.515,-20.515,-20.517,-20.51,-20.512,-20.531,-20.529,-20.513,-20.51,-20.514,-20.519,-20.523,-20.509,-20.519,-20.524,-20.524,-20.539,-20.574,-20.602,-20.533,-20.389,-20.172,-19.908,-19.606,-19.401,-19.239,-19.274,-19.674,-20.099,-20.496,-20.646,-20.615,-20.537,-20.458,-20.426,-20.427,-20.45,-20.452,-20.442,-20.437,-20.448,-20.447,-20.45,-20.432,-20.442,-20.429,-20.425,-20.428,-20.424,-20.421,-20.42,-20.421,-20.417,-20.413,-20.404,-20.398,-20.411,-20.393,-20.386,-20.377,-20.379,-20.381,-20.361,-20.359,-20.356,-20.345,-20.339,-20.338,-20.329,-20.307,-20.288,-20.282,-20.286,-20.264,-20.248,-20.237,-20.218,-20.215,-20.194,-20.168,-20.154,-20.141,-20.139,-20.11,-20.1,-20.088,-20.077,-20.07,-20.059,-20.044,-20.031,-20.031,-20.039,-20.037,-20.041,-20.037,-20.055,-20.088,-20.125,-20.154,-20.171,-20.211,-20.266,-20.293,-20.305,-20.327,-20.348,-20.374,-20.41,-20.425,-20.422,-20.441,-20.427,-20.454,-20.451,-20.451,-20.461,-20.461,-20.467,-20.461,-20.466,-20.469,-20.458,-20.455,-20.462,-20.46,-20.451,-20.449,-20.446,-20.454,-20.444,-20.434,-20.437,-20.443,-20.452,-20.445,-20.44,-20.447,-20.441,-20.436,-20.441,-20.438,-20.442,-20.445,-20.45,-20.45,-20.441,-20.444,-20.44,-20.454,-20.461,-20.454,-20.453,-20.461,-20.472,-20.468,-20.456,-20.449,-20.47,-20.479,-20.482,-20.473,-20.467,-20.474,-20.479,-20.486,-20.478,-20.463,-20.464,-20.478,-20.486,-20.485,-20.466,-20.481,-20.487,-20.488,-20.49,-20.468,-20.471,-20.484,-20.495,-20.495,-20.469,-20.475,-20.487,-20.493,-20.485,-20.478,-20.472,-20.469,-20.487,-20.488,-20.461,-20.451,-20.441,-20.434,-20.418,-20.386,-20.37,-20.389,-20.428,-20.433,-20.42,-20.417,-20.428,-20.456,-20.454,-20.463,-20.47,-20.488,-20.514,-20.521,-20.516,-20.496,-20.514,-20.517,-20.528,-20.523,-20.526,-20.508,-20.519,-20.518,-20.524,-20.519,-20.512,-20.514,-20.522,-20.518,-20.514,-20.502,-20.51,-20.54,-20.595,-20.617,-20.512,-20.331,-20.111,-19.831,-19.465,-19.228,-19.215,-19.577,-20.023,-20.225,-20.573,-20.624,-20.586,-20.525,-20.456,-20.431,-20.423,-20.453,-20.441,-20.453,-20.433,-20.443,-20.436,-20.451,-20.435,-20.434,-20.423,-20.423,-20.425,-20.426,-20.417,-20.42,-20.406,-20.413,-20.41,-20.402,-20.381,-20.389,-20.391,-20.395,-20.381,-20.364,-20.357,-20.361,-20.354,-20.358,-20.336,-20.327,-20.323,-20.331,-20.311,-20.29,-20.276,-20.267,-20.268,-20.265,-20.239,-20.216,-20.199,-20.199,-20.18,-20.157,-20.142,-20.126,-20.118,-20.104,-20.082,-20.069,-20.055,-20.061,-20.05,-20.032,-20.024,-20.023,-20.04,-20.046,-20.057,-20.071,-20.098,-20.13,-20.169,-20.201,-20.237,-20.265,-20.302,-20.34,-20.363,-20.373,-20.398,-20.41,-20.433,-20.447,-20.44,-20.443,-20.444,-20.463,-20.463,-20.449,-20.455,-20.462,-20.471,-20.468,-20.451,-20.449,-20.457,-20.463,-20.46,-20.453,-20.446,-20.436,-20.441,-20.443,-20.444,-20.432,-20.426,-20.435,-20.439,-20.432,-20.422,-20.426,-20.436,-20.435,-20.433,-20.428,-20.437,-20.435,-20.446,-20.452,-20.438,-20.441,-20.441,-20.447,-20.457,-20.449,-20.454,-20.445,-20.463,-20.453,-20.452,-20.444,-20.461,-20.466,-20.478,-20.47,-20.459,-20.458,-20.467,-20.471,-20.461,-20.456,-20.462,-20.458,-20.468,-20.479,-20.461,-20.465,-20.467,-20.474,-20.471,-20.463,-20.465,-20.472,-20.473,-20.464,-20.443,-20.442,-20.45,-20.462,-20.464,-20.45,-20.423,-20.429,-20.421,-20.399,-20.352,-20.332,-20.366,-20.41,-20.425,-20.417,-20.421,-20.424,-20.43,-20.439,-20.457,-20.466,-20.492,-20.501,-20.507,-20.508,-20.494,-20.502,-20.501,-20.501,-20.506,-20.496,-20.494,-20.498,-20.505,-20.502,-20.508,-20.502,-20.507,-20.512,-20.518,-20.507,-20.512,-20.539,-20.59,-20.602,-20.537,-20.381,-20.168,-19.922,-19.643,-19.292,-19.168,-19.376,-19.821,-20.239,-20.569,-20.616,-20.558,-20.5,-20.429,-20.421,-20.394,-20.421,-20.422,-20.448,-20.43,-20.43,-20.423,-20.434,-20.424,-20.436,-20.419,-20.408,-20.394,-20.42,-20.406,-20.407,-20.386,-20.394,-20.391,-20.407,-20.38,-20.378,-20.372,-20.373,-20.376,-20.364,-20.351,-20.344,-20.345,-20.338,-20.319,-20.308,-20.297,-20.301,-20.295,-20.283,-20.257,-20.258,-20.242,-20.232,-20.214,-20.195,-20.185,-20.18,-20.164,-20.144,-20.126,-20.099,-20.091,-20.094,-20.068,-20.053,-20.046,-20.026,-20.036,-20.012,-20.002,-19.999,-20.014,-20.016,-20.037,-20.057,-20.083,-20.093,-20.13,-20.175,-20.214,-20.249,-20.282,-20.31,-20.339,-20.364,-20.37,-20.386,-20.397,-20.421,-20.437,-20.434,-20.435,-20.433,-20.451,-20.444,-20.446,-20.433,-20.435,-20.444,-20.447,-20.448,-20.445,-20.437,-20.445,-20.437,-20.432,-20.429,-20.425,-20.421,-20.429,-20.422,-20.421,-20.425,-20.433,-20.433,-20.436,-20.421,-20.426,-20.42,-20.424,-20.423,-20.42,-20.42,-20.414,-20.432,-20.43,-20.422,-20.438,-20.438,-20.457,-20.448,-20.448,-20.442,-20.444,-20.462,-20.459,-20.45,-20.444,-20.453,-20.452,-20.458,-20.448,-20.44,-20.454,-20.459,-20.472,-20.459,-20.449,-20.453,-20.466,-20.476,-20.462,-20.463,-20.468,-20.474,-20.477,-20.472,-20.473,-20.467,-20.477,-20.484,-20.487,-20.476,-20.471,-20.464,-20.476,-20.473,-20.45,-20.451,-20.462,-20.476,-20.474,-20.453,-20.448,-20.422,-20.425,-20.42,-20.4,-20.359,-20.357,-20.389,-20.42,-20.427,-20.409,-20.419,-20.438,-20.449,-20.443,-20.455,-20.463,-20.493,-20.509,-20.505,-20.495,-20.506,-20.511,-20.521,-20.524,-20.516,-20.502,-20.51,-20.515,-20.516,-20.501,-20.497,-20.499,-20.509,-20.502,-20.515,-20.511,-20.523,-20.557,-20.587,-20.554,-20.409,-20.299,-20.092,-19.839,-19.523,-19.214,-19.197,-19.521,-19.98,-20.353,-20.589,-20.587,-20.53,-20.468,-20.42,-20.414,-20.427,-20.434,-20.444,-20.438,-20.432,-20.43,-20.437,-20.435,-20.432,-20.42,-20.409,-20.402,-20.417,-20.401,-20.398,-20.389,-20.387,-20.391,-20.391,-20.384,-20.376,-20.374,-20.379,-20.365,-20.355,-20.34,-20.337,-20.341,-20.341,-20.335,-20.312,-20.306,-20.305,-20.312,-20.295,-20.269,-20.247,-20.242,-20.245,-20.225,-20.209,-20.191,-20.172,-20.168,-20.142,-20.132,-20.115,-20.106,-20.095,-20.083,-20.05,-20.027,-20.025,-20.03,-20.024,-20.011,-19.99,-19.989,-20.011,-20.015,-20.034,-20.061,-20.089,-20.126,-20.164,-20.179,-20.2,-20.239,-20.277,-20.322,-20.348,-20.364,-20.383,-20.396,-20.419,-20.429,-20.431,-20.431,-20.438,-20.453,-20.458,-20.452,-20.435,-20.442,-20.457,-20.457,-20.447,-20.456,-20.443,-20.441,-20.444,-20.435,-20.432,-20.432,-20.436,-20.435,-20.421,-20.425,-20.425,-20.431,-20.444,-20.445,-20.422,-20.428,-20.432,-20.441,-20.434,-20.429,-20.433,-20.427,-20.442,-20.434,-20.45,-20.449,-20.444,-20.457,-20.456,-20.45,-20.444,-20.453,-20.457,-20.466,-20.459,-20.452,-20.456,-20.464,-20.476,-20.469,-20.46,-20.464,-20.468,-20.483,-20.476,-20.456,-20.46,-20.469,-20.47,-20.474,-20.47,-20.472,-20.47,-20.486,-20.494,-20.474,-20.472,-20.474,-20.488,-20.485,-20.475,-20.474,-20.481,-20.493,-20.491,-20.471,-20.458,-20.467,-20.475,-20.475,-20.467,-20.453,-20.454,-20.443,-20.429,-20.407,-20.374,-20.372,-20.376,-20.404,-20.43,-20.43,-20.421,-20.426,-20.449,-20.452,-20.454,-20.48,-20.508,-20.51,-20.504,-20.497,-20.508,-20.51,-20.521,-20.528,-20.506,-20.503,-20.511,-20.517,-20.517,-20.517,-20.511,-20.519,-20.528,-20.521,-20.517,-20.505,-20.509,-20.537,-20.589,-20.606,-20.516,-20.344,-20.121,-19.978,-19.513,-19.48,-19.245,-19.326,-19.813,-20.189,-20.584,-20.606,-20.608,-20.51,-20.479,-20.411,-20.434,-20.433,-20.459,-20.44,-20.447,-20.422,-20.449,-20.43,-20.443,-20.422,-20.428,-20.412,-20.434,-20.43,-20.422,-20.408,-20.411,-20.405,-20.412,-20.396,-20.383,-20.382,-20.391,-20.395,-20.395,-20.36,-20.365,-20.368,-20.368,-20.358,-20.346,-20.328,-20.33,-20.325,-20.316,-20.283,-20.279,-20.276,-20.273,-20.262,-20.243,-20.222,-20.203,-20.2,-20.182,-20.155,-20.132,-20.128,-20.117,-20.115,-20.096,-20.077,-20.067,-20.072,-20.055,-20.048,-20.021,-20.03,-20.036,-20.057,-20.059,-20.069,-20.099,-20.145,-20.178,-20.215,-20.222,-20.268,-20.284,-20.325,-20.349,-20.381,-20.384,-20.408,-20.43,-20.442,-20.441,-20.444,-20.447,-20.463,-20.469,-20.47,-20.457,-20.462,-20.473,-20.47,-20.452,-20.458,-20.45,-20.453,-20.467,-20.467,-20.447,-20.448,-20.447,-20.455,-20.447,-20.434,-20.44,-20.452,-20.453,-20.441,-20.427,-20.438,-20.431,-20.451,-20.447,-20.434,-20.436,-20.445,-20.445,-20.453,-20.453,-20.444,-20.445,-20.46,-20.463,-20.452,-20.453,-20.458,-20.471,-20.469,-20.466,-20.467,-20.475,-20.474,-20.474,-20.465,-20.46,-20.471,-20.472,-20.485,-20.486,-20.479,-20.477,-20.483,-20.492,-20.486,-20.47,-20.473,-20.473,-20.484,-20.473,-20.452,-20.449,-20.449,-20.436,-20.417,-20.396,-20.363,-20.369,-20.391,-20.418,-20.432,-20.426,-20.436,-20.45,-20.464,-20.481,-20.49,-20.515,-20.51,-20.527,-20.518,-20.504,-20.513,-20.518,-20.518,-20.526,-20.526,-20.513,-20.521,-20.52,-20.514,-20.516,-20.513,-20.519,-20.526,-20.527,-20.519,-20.514,-20.532,-20.597,-20.615,-20.528,-20.352,-20.124,-19.858,-19.705,-19.355,-19.193,-19.332,-19.758,-20.181,-20.555,-20.632,-20.585,-20.541,-20.471,-20.458,-20.425,-20.451,-20.431,-20.464,-20.445,-20.446,-20.439,-20.461,-20.449,-20.45,-20.421,-20.432,-20.425,-20.446,-20.429,-20.423,-20.405,-20.413,-20.407,-20.412,-20.402,-20.402,-20.395,-20.397,-20.383,-20.38,-20.364,-20.367,-20.36,-20.363,-20.353,-20.342,-20.325,-20.329,-20.328,-20.303,-20.287,-20.279,-20.262,-20.261,-20.242,-20.224,-20.215,-20.198,-20.185,-20.167,-20.146,-20.122,-20.122,-20.118,-20.11,-20.097,-20.074,-20.06,-20.062,-20.045,-20.047,-20.039,-20.053,-20.078,-20.098,-20.105,-20.118,-20.144,-20.201,-20.235,-20.268,-20.28,-20.308,-20.336,-20.376,-20.389,-20.412,-20.413,-20.434,-20.447,-20.46,-20.441,-20.46,-20.464,-20.482,-20.485,-20.472,-20.473,-20.476,-20.482,-20.473,-20.461,-20.461,-20.461,-20.477,-20.462,-20.459,-20.458,-20.454,-20.462,-20.461,-20.452,-20.441,-20.447,-20.454,-20.449,-20.449,-20.438,-20.439,-20.448,-20.461,-20.457,-20.452,-20.443,-20.449,-20.448,-20.462,-20.455,-20.455,-20.452,-20.478,-20.476,-20.464,-20.462,-20.459,-20.476,-20.47,-20.467,-20.47,-20.472,-20.484,-20.486,-20.479,-20.466,-20.466,-20.479,-20.485,-20.483,-20.475,-20.484,-20.492,-20.501,-20.479,-20.48,-20.477,-20.49,-20.501,-20.494,-20.475,-20.484,-20.471,-20.477,-20.477,-20.462,-20.453,-20.449,-20.451,-20.431,-20.395,-20.373,-20.368,-20.395,-20.423,-20.431,-20.424,-20.442,-20.456,-20.463,-20.471,-20.484,-20.507,-20.516,-20.517,-20.526,-20.501,-20.515,-20.521,-20.534,-20.518,-20.518,-20.517,-20.536,-20.534,-20.534,-20.516,-20.519,-20.518,-20.517,-20.531,-20.509,-20.517,-20.531,-20.592,-20.612,-20.539,-20.379,-20.157,-19.906,-19.597,-19.268,-19.199,-19.469,-19.942,-20.341,-20.61,-20.628,-20.569,-20.521,-20.454,-20.445,-20.441,-20.445,-20.45,-20.473,-20.457,-20.453,-20.444,-20.451,-20.451,-20.447,-20.426,-20.437,-20.431,-20.443,-20.438,-20.431,-20.413,-20.42,-20.428,-20.418,-20.4,-20.407,-20.396,-20.404,-20.396,-20.384,-20.354,-20.361,-20.369,-20.367,-20.366,-20.347,-20.337,-20.336,-20.322,-20.315,-20.288,-20.282,-20.272,-20.256,-20.242,-20.227,-20.214,-20.2,-20.201,-20.174,-20.152,-20.129,-20.132,-20.114,-20.1,-20.084,-20.075,-20.065,-20.067,-20.044,-20.04,-20.033,-20.056,-20.071,-20.085,-20.097,-20.112,-20.141,-20.187,-20.22,-20.259,-20.277,-20.313,-20.347,-20.386,-20.394,-20.417,-20.436,-20.446,-20.453,-20.463,-20.46,-20.449,-20.464,-20.484,-20.49,-20.479,-20.47,-20.47,-20.484,-20.481,-20.467,-20.468,-20.472,-20.476,-20.472,-20.466,-20.456,-20.462,-20.469,-20.466,-20.453,-20.45,-20.454,-20.467,-20.466,-20.459,-20.454,-20.45,-20.445,-20.459,-20.461,-20.447,-20.459,-20.461,-20.468,-20.472,-20.464,-20.46,-20.474,-20.487,-20.481,-20.476,-20.48,-20.488,-20.494,-20.498,-20.486,-20.485,-20.495,-20.503,-20.5,-20.49,-20.489,-20.493,-20.506,-20.505,-20.493,-20.493,-20.499,-20.507,-20.505,-20.503,-20.504,-20.508,-20.515,-20.509,-20.515,-20.497,-20.505,-20.503,-20.506,-20.508,-20.497,-20.502,-20.508,-20.512,-20.509,-20.502,-20.514,-20.522,-20.52,-20.512,-20.498,-20.501,-20.5,-20.517,-20.526,-20.511,-20.508,-20.511,-20.521,-20.524,-20.512,-20.501,-20.496,-20.5,-20.5,-20.494,-20.483,-20.461,-20.465,-20.45,-20.41,-20.398,-20.399,-20.401,-20.433,-20.45,-20.443,-20.449,-20.469,-20.484,-20.502,-20.506,-20.529,-20.533,-20.536,-20.549,-20.532,-20.538,-20.542,-20.542,-20.542,-20.537,-20.536,-20.546,-20.557,-20.563,-20.555,-20.543,-20.544,-20.558,-20.552,-20.574,-20.598,-20.632,-20.593,-20.421,-20.213,-19.958,-19.693,-19.358,-19.261,-19.478,-19.682,-20.124,-20.526,-20.682,-20.666,-20.574,-20.508,-20.469,-20.481,-20.487,-20.494,-20.483,-20.497,-20.499,-20.492,-20.484,-20.492,-20.485,-20.485,-20.471,-20.474,-20.472,-20.462,-20.462,-20.475,-20.46,-20.439,-20.443,-20.439,-20.445,-20.443,-20.423,-20.414,-20.422,-20.419,-20.406,-20.387,-20.386,-20.389,-20.385,-20.384,-20.367,-20.345,-20.332,-20.331,-20.324,-20.315,-20.298,-20.283,-20.288,-20.266,-20.237,-20.22,-20.202,-20.199,-20.185,-20.152,-20.139,-20.125,-20.114,-20.114,-20.1,-20.085,-20.075,-20.074,-20.077,-20.069,-20.063,-20.077,-20.099,-20.129,-20.151,-20.169,-20.208,-20.246,-20.285,-20.304,-20.327,-20.358,-20.399,-20.423,-20.441,-20.448,-20.446,-20.469,-20.483,-20.496,-20.49,-20.486,-20.486,-20.503,-20.491,-20.478,-20.47,-20.479,-20.5,-20.508,-20.491,-20.485,-20.485,-20.48,-20.489,-20.481,-20.468,-20.468,-20.476,-20.48,-20.477,-20.455,-20.458,-20.466,-20.475,-20.475,-20.456,-20.46,-20.464,-20.475,-20.474,-20.473,-20.464,-20.462,-20.472,-20.487,-20.482,-20.478,-20.469,-20.486,-20.488,-20.486,-20.485,-20.479,-20.488,-20.497,-20.491,-20.486,-20.499,-20.502,-20.51,-20.495,-20.484,-20.496,-20.492,-20.501,-20.507,-20.499,-20.497,-20.506,-20.505,-20.507,-20.496,-20.484,-20.488,-20.502,-20.507,-20.5,-20.496,-20.502,-20.515,-20.509,-20.509,-20.49,-20.493,-20.503,-20.501,-20.511,-20.498,-20.506,-20.507,-20.505,-20.502,-20.491,-20.505,-20.5,-20.511,-20.499,-20.483,-20.482,-20.494,-20.505,-20.495,-20.472,-20.472,-20.449,-20.452,-20.437,-20.4,-20.382,-20.402,-20.443,-20.452,-20.45,-20.447,-20.465,-20.473,-20.476,-20.484,-20.502,-20.515,-20.533,-20.533,-20.535,-20.525,-20.522,-20.532,-20.529,-20.542,-20.525,-20.528,-20.541,-20.544,-20.538,-20.531,-20.531,-20.539,-20.547,-20.544,-20.551,-20.59,-20.614,-20.59,-20.449,-20.239,-20,-19.754,-19.403,-19.254,-19.357,-19.762,-20.187,-20.545,-20.659,-20.605,-20.533,-20.453,-20.464,-20.45,-20.466,-20.443,-20.46,-20.461,-20.479,-20.458,-20.454,-20.45,-20.465,-20.45,-20.461,-20.439,-20.433,-20.441,-20.447,-20.432,-20.428,-20.422,-20.423,-20.424,-20.418,-20.391,-20.402,-20.4,-20.408,-20.403,-20.385,-20.374,-20.365,-20.371,-20.365,-20.346,-20.335,-20.33,-20.328,-20.306,-20.297,-20.283,-20.266,-20.267,-20.251,-20.23,-20.203,-20.202,-20.189,-20.176,-20.163,-20.145,-20.124,-20.117,-20.108,-20.087,-20.062,-20.054,-20.052,-20.062,-20.043,-20.031,-20.042,-20.064,-20.1,-20.116,-20.125,-20.141,-20.18,-20.223,-20.26,-20.289,-20.312,-20.344,-20.382,-20.408,-20.416,-20.424,-20.449,-20.455,-20.467,-20.474,-20.471,-20.486,-20.493,-20.495,-20.481,-20.475,-20.475,-20.485,-20.489,-20.489,-20.472,-20.478,-20.466,-20.473,-20.481,-20.468,-20.464,-20.459,-20.476,-20.472,-20.457,-20.47,-20.463,-20.472,-20.467,-20.453,-20.454,-20.459,-20.468,-20.47,-20.468,-20.463,-20.468,-20.478,-20.475,-20.475,-20.465,-20.478,-20.481,-20.481,-20.488,-20.473,-20.478,-20.483,-20.499,-20.504,-20.488,-20.486,-20.482,-20.49,-20.498,-20.495,-20.485,-20.497,-20.506,-20.506,-20.488,-20.482,-20.492,-20.497,-20.502,-20.49,-20.481,-20.493,-20.508,-20.498,-20.487,-20.48,-20.486,-20.488,-20.499,-20.493,-20.486,-20.5,-20.499,-20.493,-20.483,-20.467,-20.511,-20.497,-20.499,-20.506,-20.495,-20.486,-20.473,-20.481,-20.493,-20.487,-20.471,-20.476,-20.482,-20.459,-20.44,-20.432,-20.378,-20.393,-20.409,-20.415,-20.43,-20.438,-20.454,-20.449,-20.453,-20.449,-20.47,-20.494,-20.502,-20.522,-20.508,-20.495,-20.501,-20.517,-20.514,-20.51,-20.518,-20.522,-20.54,-20.526,-20.512,-20.513,-20.517,-20.525,-20.523,-20.525,-20.509,-20.51,-20.534,-20.556,-20.588,-20.585,-20.496,-20.331,-20.109,-19.844,-19.481,-19.244,-19.252,-19.605,-20.032,-20.423,-20.626,-20.615,-20.548,-20.486,-20.459,-20.418,-20.434,-20.454,-20.446,-20.432,-20.446,-20.444,-20.436,-20.417,-20.436,-20.42,-20.437,-20.455,-20.454,-20.421,-20.395,-20.407,-20.418,-20.41,-20.412,-20.398,-20.412,-20.393,-20.405,-20.391,-20.369,-20.378,-20.375,-20.362,-20.369,-20.343,-20.325,-20.335,-20.337,-20.33,-20.288,-20.302,-20.293,-20.261,-20.263,-20.265,-20.256,-20.225,-20.217,-20.221,-20.185,-20.15,-20.157,-20.157,-20.127,-20.11,-20.105,-20.091,-20.092,-20.083,-20.066,-20.056,-20.053,-20.062,-20.066,-20.06,-20.059,-20.093,-20.107,-20.16,-20.185,-20.212,-20.247,-20.273,-20.311,-20.34,-20.353,-20.387,-20.405,-20.42,-20.45,-20.428,-20.437,-20.454,-20.472,-20.48,-20.449,-20.464,-20.485,-20.483,-20.471,-20.459,-20.458,-20.469,-20.464,-20.464,-20.467,-20.447,-20.466,-20.454,-20.46,-20.454,-20.44,-20.456,-20.451,-20.468,-20.461,-20.44,-20.431,-20.431,-20.444,-20.462,-20.454,-20.449,-20.453,-20.458,-20.462,-20.454,-20.446,-20.466,-20.463,-20.471,-20.462,-20.464,-20.469,-20.485,-20.484,-20.481,-20.469,-20.476,-20.49,-20.495,-20.482,-20.471,-20.469,-20.486,-20.478,-20.467,-20.449,-20.442,-20.43,-20.41,-20.384,-20.373,-20.376,-20.393,-20.428,-20.429,-20.438,-20.445,-20.461,-20.479,-20.493,-20.505,-20.518,-20.514,-20.525,-20.525,-20.517,-20.515,-20.526,-20.536,-20.534,-20.522,-20.528,-20.535,-20.539,-20.532,-20.53,-20.523,-20.526,-20.531,-20.531,-20.525,-20.534,-20.585,-20.631,-20.562,-20.395,-20.167,-19.896,-19.592,-19.284,-19.188,-19.265,-19.685,-20.129,-20.519,-20.644,-20.602,-20.555,-20.489,-20.473,-20.445,-20.455,-20.437,-20.465,-20.464,-20.473,-20.45,-20.456,-20.436,-20.456,-20.442,-20.448,-20.429,-20.43,-20.432,-20.436,-20.425,-20.426,-20.416,-20.425,-20.418,-20.406,-20.393,-20.393,-20.398,-20.404,-20.392,-20.373,-20.36,-20.364,-20.358,-20.36,-20.346,-20.336,-20.328,-20.327,-20.305,-20.289,-20.272,-20.262,-20.253,-20.243,-20.224,-20.204,-20.192,-20.179,-20.164,-20.138,-20.127,-20.112,-20.113,-20.105,-20.09,-20.066,-20.062,-20.065,-20.067,-20.06,-20.062,-20.072,-20.096,-20.122,-20.144,-20.17,-20.211,-20.255,-20.292,-20.309,-20.331,-20.356,-20.392,-20.408,-20.429,-20.428,-20.441,-20.453,-20.47,-20.473,-20.469,-20.47,-20.479,-20.489,-20.479,-20.477,-20.477,-20.471,-20.482,-20.48,-20.475,-20.468,-20.475,-20.473,-20.476,-20.464,-20.451,-20.451,-20.458,-20.462,-20.469,-20.453,-20.439,-20.446,-20.447,-20.454,-20.452,-20.454,-20.461,-20.466,-20.47,-20.448,-20.455,-20.457,-20.468,-20.467,-20.461,-20.455,-20.467,-20.478,-20.478,-20.48,-20.47,-20.467,-20.486,-20.481,-20.479,-20.474,-20.484,-20.494,-20.494,-20.491,-20.473,-20.462,-20.467,-20.474,-20.468,-20.45,-20.444,-20.437,-20.421,-20.396,-20.369,-20.366,-20.384,-20.426,-20.443,-20.433,-20.439,-20.453,-20.473,-20.484,-20.497,-20.505,-20.508,-20.523,-20.521,-20.522,-20.52,-20.524,-20.533,-20.53,-20.535,-20.522,-20.525,-20.535,-20.539,-20.534,-20.518,-20.525,-20.534,-20.526,-20.529,-20.545,-20.584,-20.607,-20.53,-20.347,-20.116,-19.845,-19.52,-19.255,-19.206,-19.531,-19.992,-20.408,-20.657,-20.639,-20.565,-20.496,-20.451,-20.441,-20.444,-20.458,-20.449,-20.458,-20.473,-20.468,-20.458,-20.455,-20.451,-20.448,-20.453,-20.443,-20.429,-20.432,-20.435,-20.439,-20.43,-20.412,-20.403,-20.411,-20.414,-20.414,-20.401,-20.403,-20.392,-20.391,-20.377,-20.358,-20.348,-20.359,-20.365,-20.353,-20.337,-20.324,-20.316,-20.314,-20.29,-20.275,-20.258,-20.25,-20.247,-20.231,-20.212,-20.188,-20.175,-20.158,-20.149,-20.131,-20.101,-20.094,-20.089,-20.077,-20.065,-20.045,-20.028,-20.036,-20.043,-20.048,-20.04,-20.058,-20.077,-20.112,-20.138,-20.169,-20.201,-20.235,-20.282,-20.304,-20.331,-20.352,-20.375,-20.398,-20.426,-20.43,-20.444,-20.45,-20.468,-20.464,-20.464,-20.466,-20.459,-20.466,-20.476,-20.478,-20.466,-20.47,-20.464,-20.463,-20.467,-20.457,-20.465,-20.461,-20.461,-20.467,-20.445,-20.453,-20.451,-20.463,-20.457,-20.447,-20.452,-20.449,-20.455,-20.46,-20.451,-20.449,-20.459,-20.457,-20.459,-20.451,-20.446,-20.456,-20.479,-20.478,-20.469,-20.47,-20.47,-20.492,-20.492,-20.468,-20.457,-20.479,-20.476,-20.484,-20.482,-20.468,-20.48,-20.488,-20.496,-20.488,-20.483,-20.482,-20.493,-20.502,-20.494,-20.482,-20.484,-20.495,-20.508,-20.501,-20.497,-20.483,-20.491,-20.494,-20.499,-20.503,-20.479,-20.485,-20.504,-20.499,-20.491,-20.492,-20.497,-20.503,-20.505,-20.5,-20.488,-20.494,-20.508,-20.505,-20.496,-20.5,-20.493,-20.497,-20.501,-20.507,-20.502,-20.495,-20.503,-20.513,-20.512,-20.493,-20.494,-20.483,-20.479,-20.478,-20.489,-20.494,-20.488,-20.477,-20.468,-20.453,-20.429,-20.411,-20.404,-20.398,-20.413,-20.426,-20.443,-20.451,-20.447,-20.462,-20.458,-20.464,-20.49,-20.507,-20.525,-20.528,-20.518,-20.533,-20.543,-20.536,-20.521,-20.526,-20.53,-20.541,-20.54,-20.527,-20.53,-20.538,-20.545,-20.531,-20.529,-20.542,-20.587,-20.627,-20.539,-20.353,-20.128,-19.898,-19.773,-19.412,-19.245,-19.351,-19.742,-20.201,-20.551,-20.667,-20.602,-20.543,-20.477,-20.469,-20.454,-20.458,-20.452,-20.471,-20.469,-20.485,-20.464,-20.476,-20.466,-20.494,-20.461,-20.459,-20.439,-20.447,-20.436,-20.438,-20.426,-20.424,-20.426,-20.44,-20.428,-20.431,-20.416,-20.418,-20.421,-20.418,-20.401,-20.387,-20.381,-20.38,-20.378,-20.37,-20.349,-20.347,-20.337,-20.336,-20.325,-20.302,-20.286,-20.266,-20.264,-20.238,-20.219,-20.218,-20.215,-20.205,-20.179,-20.156,-20.153,-20.139,-20.135,-20.123,-20.097,-20.085,-20.083,-20.076,-20.057,-20.05,-20.047,-20.061,-20.079,-20.079,-20.108,-20.124,-20.164,-20.2,-20.249,-20.268,-20.275,-20.321,-20.362,-20.387,-20.402,-20.402,-20.437,-20.451,-20.465,-20.471,-20.463,-20.476,-20.485,-20.483,-20.485,-20.479,-20.48,-20.477,-20.479,-20.471,-20.471,-20.465,-20.468,-20.479,-20.485,-20.472,-20.454,-20.45,-20.465,-20.47,-20.468,-20.461,-20.47,-20.454,-20.468,-20.464,-20.454,-20.466,-20.482,-20.488,-20.478,-20.467,-20.457,-20.462,-20.479,-20.47,-20.464,-20.472,-20.488,-20.493,-20.476,-20.482,-20.477,-20.48,-20.492,-20.491,-20.48,-20.482,-20.478,-20.492,-20.498,-20.492,-20.498,-20.493,-20.496,-20.501,-20.496,-20.488,-20.488,-20.496,-20.493,-20.496,-20.491,-20.49,-20.513,-20.509,-20.508,-20.492,-20.488,-20.496,-20.505,-20.507,-20.497,-20.485,-20.486,-20.501,-20.483,-20.48,-20.474,-20.458,-20.449,-20.444,-20.411,-20.383,-20.402,-20.43,-20.453,-20.441,-20.44,-20.449,-20.47,-20.473,-20.47,-20.496,-20.506,-20.537,-20.53,-20.538,-20.535,-20.526,-20.533,-20.545,-20.531,-20.529,-20.537,-20.548,-20.555,-20.548,-20.537,-20.543,-20.543,-20.543,-20.55,-20.541,-20.561,-20.601,-20.631,-20.544,-20.37,-20.154,-19.898,-19.593,-19.299,-19.251,-19.546,-20.001,-20.424,-20.667,-20.656,-20.631,-20.551,-20.497,-20.462,-20.458,-20.478,-20.489,-20.481,-20.47,-20.478,-20.457,-20.466,-20.47,-20.476,-20.466,-20.458,-20.455,-20.452,-20.444,-20.446,-20.433,-20.429,-20.419,-20.434,-20.438,-20.423,-20.411,-20.411,-20.413,-20.415,-20.405,-20.394,-20.378,-20.376,-20.371,-20.354
