-19.399,-19.417,-19.432,-19.441,-19.448,-19.461,-19.463,-19.463,-19.472,-19.48,-19.477,-19.478,-19.478,-19.485,-19.475,-19.485,-19.477,-19.481,-19.476,-19.478,-19.468,-19.47,-19.465,-19.473,-19.469,-19.469,-19.462,-19.45,-19.452,-19.463,-19.459,-19.463,-19.456,-19.458,-19.459,-19.457,-19.451,-19.459,-19.45,-19.455,-19.458,-19.461,-19.461,-19.466,-19.468,-19.472,-19.461,-19.457,-19.453,-19.456,-19.465,-19.467,-19.463,-19.464,-19.467,-19.469,-19.476,-19.474,-19.469,-19.463,-19.458,-19.454,-19.45,-19.449,-19.445,-19.446,-19.43,-19.407,-19.378,-19.369,-19.386,-19.404,-19.419,-19.418,-19.439,-19.448,-19.449,-19.454,-19.462,-19.484,-19.497,-19.498,-19.485,-19.49,-19.497,-19.498,-19.51,-19.499,-19.504,-19.502,-19.501,-19.506,-19.502,-19.498,-19.495,-19.496,-19.503,-19.512,-19.54,-19.586,-19.574,-19.443,-19.237,-18.971,-18.829,-18.516,-18.216,-18.179,-18.502,-18.956,-19.334,-19.597,-19.594,-19.541,-19.477,-19.438,-19.416,-19.428,-19.427,-19.428,-19.426,-19.437,-19.43,-19.426,-19.423,-19.418,-19.414,-19.42,-19.405,-19.408,-19.402,-19.404,-19.401,-19.392,-19.389,-19.387,-19.384,-19.379,-19.367,-19.353,-19.363,-19.364,-19.36,-19.341,-19.327,-19.323,-19.323,-19.32,-19.304,-19.297,-19.29,-19.279,-19.268,-19.245,-19.223,-19.216,-19.201,-19.191,-19.175,-19.156,-19.143,-19.125,-19.107,-19.087,-19.076,-19.065,-19.063,-19.056,-19.043,-19.018,-19.015,-19.013,-19.025,-19.026,-19.026,-19.047,-19.084,-19.114,-19.15,-19.181,-19.207,-19.245,-19.281,-19.309,-19.333,-19.34,-19.369,-19.393,-19.421,-19.421,-19.427,-19.436,-19.445,-19.439,-19.436,-19.449,-19.46,-19.456,-19.455,-19.452,-19.438,-19.453,-19.455,-19.463,-19.46,-19.459,-19.462,-19.452,-19.446,-19.459,-19.453,-19.452,-19.454,-19.451,-19.449,-19.445,-19.452,-19.449,-19.45,-19.452,-19.452,-19.446,-19.45,-19.452,-19.449,-19.45,-19.445,-19.453,-19.459,-19.463,-19.469,-19.468,-19.479,-19.492,-19.493,-19.487,-19.492,-19.493,-19.488,-19.485,-19.475,-19.472,-19.48,-19.49,-19.466,-19.45,-19.427,-19.422,-19.432,-19.448,-19.469,-19.474,-19.485,-19.488,-19.511,-19.53,-19.558,-19.556,-19.556,-19.557,-19.554,-19.548,-19.546,-19.55,-19.557,-19.561,-19.561,-19.558,-19.564,-19.566,-19.562,-19.545,-19.54,-19.543,-19.54,-19.536,-19.532,-19.534,-19.537,-19.577,-19.621,-19.575,-19.427,-19.201,-18.932,-18.775,-18.42,-18.192,-18.212,-18.591,-19.035,-19.422,-19.609,-19.586,-19.554,-19.484,-19.443,-19.409,-19.437,-19.43,-19.441,-19.418,-19.435,-19.426,-19.438,-19.43,-19.433,-19.41,-19.416,-19.411,-19.404,-19.386,-19.389,-19.377,-19.383,-19.375,-19.37,-19.36,-19.359,-19.35,-19.337,-19.329,-19.32,-19.319,-19.318,-19.315,-19.303,-19.276,-19.284,-19.268,-19.265,-19.255,-19.234,-19.224,-19.217,-19.195,-19.181,-19.149,-19.141,-19.131,-19.115,-19.095,-19.067,-19.053,-19.041,-19.037,-19.024,-19.011,-18.989,-18.985,-18.978,-18.97,-18.959,-18.968,-18.968,-18.997,-19.016,-19.038,-19.066,-19.104,-19.141,-19.179,-19.205,-19.243,-19.272,-19.291,-19.317,-19.331,-19.34,-19.36,-19.373,-19.387,-19.383,-19.396,-19.399,-19.407,-19.409,-19.402,-19.396,-19.398,-19.402,-19.403,-19.394,-19.396,-19.393,-19.397,-19.399,-19.391,-19.383,-19.388,-19.384,-19.392,-19.387,-19.387,-19.375,-19.385,-19.384,-19.388,-19.38,-19.394,-19.391,-19.391,-19.385,-19.384,-19.379,-19.382,-19.391,-19.396,-19.395,-19.39,-19.389,-19.399,-19.398,-19.396,-19.393,-19.403,-19.403,-19.397,-19.392,-19.411,-19.41,-19.41,-19.414,-19.403,-19.4,-19.403,-19.417,-19.409,-19.414,-19.413,-19.415,-19.427,-19.432,-19.414,-19.409,-19.419,-19.427,-19.424,-19.427,-19.412,-19.43,-19.412,-19.403,-19.426,-19.418,-19.416,-19.419,-19.427,-19.419,-19.437,-19.418,-19.401,-19.425,-19.382,-19.375,-19.371,-19.383,-19.383,-19.42,-19.418,-19.397,-19.414,-19.376,-19.429,-19.422,-19.402,-19.378,-19.412,-19.381,-19.373,-19.384,-19.391,-19.409,-19.387,-19.373,-19.324,-19.322,-19.328,-19.322,-19.309,-19.301,-19.335,-19.343,-19.36,-19.36,-19.353,-19.384,-19.384,-19.399,-19.37,-19.436,-19.403,-19.418,-19.418,-19.442,-19.414,-19.441,-19.417,-19.414,-19.438,-19.456,-19.445,-19.421,-19.438,-19.431,-19.395,-19.408,-19.467,-19.41,-19.387,-19.449,-19.464,-19.466,-19.442,-19.305,-19.044,-18.744,-18.471,-18.118,-18.055,-18.38,-18.808,-19.192,-19.444,-19.488,-19.455,-19.373,-19.386,-19.332,-19.354,-19.352,-19.326,-19.313,-19.339,-19.367,-19.326,-19.381,-19.318,-19.338,-19.307,-19.281,-19.348,-19.313,-19.287,-19.309,-19.305,-19.28,-19.288,-19.28,-19.3,-19.281,-19.255,-19.273,-19.263,-19.241,-19.266,-19.232,-19.215,-19.233,-19.203,-19.207,-19.167,-19.222,-19.195,-19.168,-19.137,-19.129,-19.114,-19.1,-19.143,-19.059,-19.066,-19.075,-19.012,-19.017,-18.988,-18.957,-18.936,-18.959,-18.93,-18.922,-18.908,-18.875,-18.919,-18.883,-18.863,-18.904,-18.873,-18.894,-18.926,-18.985,-18.94,-18.979,-19.057,-19.023,-19.119,-19.228,-19.193,-19.207,-19.268,-19.279,-19.289,-19.271,-19.307,-19.309,-19.331,-19.314,-19.313,-19.352,-19.333,-19.342,-19.33,-19.291,-19.329,-19.383,-19.292,-19.329,-19.361,-19.303,-19.299,-19.279,-19.344,-19.317,-19.33,-19.324,-19.308,-19.349,-19.324,-19.304,-19.295,-19.339,-19.315,-19.312,-19.285,-19.317,-19.345,-19.301,-19.322,-19.307,-19.313,-19.287,-19.321,-19.357,-19.335,-19.314,-19.274,-19.287,-19.341,-19.313,-19.311,-19.326,-19.334,-19.307,-19.341,-19.294,-19.309,-19.319,-19.34,-19.352,-19.31,-19.317,-19.324,-19.303,-19.32,-19.319,-19.359,-19.348,-19.305,-19.344,-19.304,-19.309,-19.376,-19.308,-19.306,-19.351,-19.336,-19.327,-19.305,-19.321,-19.333,-19.337,-19.326,-19.3,-19.33,-19.311,-19.302,-19.299,-19.32,-19.294,-19.303,-19.302,-19.272,-19.286,-19.24,-19.197,-19.211,-19.232,-19.287,-19.264,-19.276,-19.285,-19.304,-19.307,-19.299,-19.314,-19.35,-19.37,-19.365,-19.375,-19.335,-19.388,-19.39,-19.354,-19.355,-19.382,-19.353,-19.367,-19.378,-19.394,-19.34,-19.365,-19.404,-19.358,-19.368,-19.385,-19.403,-19.398,-19.35,-19.406,-19.447,-19.458,-19.319,-19.087,-18.875,-18.603,-18.215,-18.067,-18.188,-18.583,-19.021,-19.363,-19.46,-19.442,-19.388,-19.315,-19.301,-19.275,-19.297,-19.314,-19.32,-19.326,-19.322,-19.297,-19.318,-19.312,-19.302,-19.3,-19.316,-19.276,-19.275,-19.276,-19.312,-19.289,-19.268,-19.269,-19.253,-19.26,-19.246,-19.251,-19.262,-19.235,-19.225,-19.23,-19.222,-19.219,-19.214,-19.191,-19.207,-19.197,-19.179,-19.152,-19.166,-19.141,-19.129,-19.12,-19.096,-19.097,-19.077,-19.068,-19.033,-19.019,-19.01,-19.005,-19.007,-18.934,-18.925,-18.935,-18.914,-18.911,-18.912,-18.89,-18.866,-18.89,-18.896,-18.904,-18.908,-18.911,-18.959,-19.003,-19.031,-19.056,-19.084,-19.147,-19.172,-19.222,-19.206,-19.23,-19.268,-19.307,-19.305,-19.334,-19.34,-19.309,-19.327,-19.343,-19.33,-19.338,-19.354,-19.365,-19.359,-19.35,-19.336,-19.357,-19.332,-19.339,-19.331,-19.334,-19.352,-19.34,-19.355,-19.328,-19.326,-19.323,-19.323,-19.303,-19.322,-19.326,-19.339,-19.338,-19.316,-19.332,-19.318,-19.33,-19.331,-19.327,-19.326,-19.324,-19.339,-19.344,-19.357,-19.332,-19.331,-19.347,-19.329,-19.346,-19.368,-19.358,-19.354,-19.367,-19.375,-19.36,-19.358,-19.383,-19.367,-19.373,-19.363,-19.367,-19.373,-19.371,-19.375,-19.374,-19.373,-19.378,-19.359,-19.387,-19.376,-19.366,-19.378,-19.385,-19.361,-19.363,-19.374,-19.356,-19.358,-19.359,-19.344,-19.333,-19.353,-19.299,-19.28,-19.298,-19.277,-19.314,-19.329,-19.33,-19.35,-19.344,-19.338,-19.338,-19.388,-19.407,-19.422,-19.406,-19.42,-19.42,-19.437,-19.442,-19.446,-19.441,-19.476,-19.472,-19.464,-19.481,-19.496,-19.508,-19.49,-19.491,-19.504,-19.505,-19.556,-19.538,-19.544,-19.546,-19.584,-19.657,-19.671,-19.546,-19.355,-19.091,-18.788,-18.438,-18.322,-18.419,-18.84,-19.271,-19.634,-19.732,-19.683,-19.658,-19.561,-19.534,-19.535,-19.526,-19.494,-19.48,-19.475,-19.475,-19.426,-19.437,-19.414,-19.436,-19.392,-19.406,-19.369,-19.377,-19.343,-19.334,-19.345,-19.352,-19.34,-19.318,-19.302,-19.305,-19.291,-19.298,-19.27,-19.259,-19.253,-19.244,-19.235,-19.221,-19.218,-19.21,-19.183,-19.169,-19.181,-19.16,-19.149,-19.11,-19.116,-19.102,-19.104,-19.093,-19.08,-19.041,-19.014,-19.017,-19,-18.994,-18.956,-18.931,-18.937,-18.954,-18.935,-18.915,-18.904,-18.896,-18.917,-18.905,-18.906,-18.92,-18.944,-19.002,-18.998,-19.025,-19.083,-19.108,-19.133,-19.185,-19.195,-19.212,-19.269,-19.274,-19.277,-19.29,-19.285,-19.316,-19.338,-19.319,-19.314,-19.309,-19.345,-19.353,-19.318,-19.316,-19.327,-19.321,-19.352,-19.351,-19.312,-19.317,-19.331,-19.323,-19.32,-19.315,-19.335,-19.328,-19.326,-19.326,-19.321,-19.309,-19.308,-19.316,-19.304,-19.303,-19.291,-19.306,-19.311,-19.318,-19.322,-19.306,-19.306,-19.301,-19.323,-19.333,-19.327,-19.325,-19.336,-19.357,-19.355,-19.34,-19.318,-19.335,-19.325,-19.341,-19.342,-19.357,-19.336,-19.35,-19.355,-19.343,-19.346,-19.347,-19.326,-19.327,-19.315,-19.316,-19.304,-19.29,-19.265,-19.237,-19.241,-19.261,-19.288,-19.323,-19.318,-19.302,-19.32,-19.336,-19.347,-19.372,-19.391,-19.375,-19.406,-19.401,-19.377,-19.385,-19.391,-19.391,-19.403,-19.41,-19.408,-19.41,-19.402,-19.402,-19.399,-19.405,-19.408,-19.406,-19.413,-19.397,-19.416,-19.459,-19.501,-19.452,-19.281,-19.051,-18.917,-18.635,-18.256,-18.077,-18.164,-18.59,-19.009,-19.392,-19.526,-19.495,-19.429,-19.378,-19.357,-19.333,-19.351,-19.35,-19.362,-19.358,-19.356,-19.339,-19.356,-19.36,-19.355,-19.347,-19.345,-19.322,-19.349,-19.34,-19.336,-19.318,-19.325,-19.323,-19.331,-19.327,-19.299,-19.303,-19.3,-19.291,-19.285,-19.271,-19.27,-19.265,-19.274,-19.258,-19.238,-19.238,-19.21,-19.206,-19.201,-19.187,-19.17,-19.154,-19.155,-19.12,-19.113,-19.082,-19.079,-19.06,-19.062,-19.028,-19.012,-18.997,-19.001,-18.984,-18.972,-18.95,-18.936,-18.948,-18.939,-18.953,-18.96,-18.973,-18.999,-19.033,-19.06,-19.085,-19.113,-19.155,-19.194,-19.232,-19.243,-19.256,-19.288,-19.31,-19.325,-19.336,-19.337,-19.355,-19.358,-19.372,-19.358,-19.368,-19.375,-19.39,-19.373,-19.375,-19.384,-19.38,-19.383,-19.386,-19.385,-19.375,-19.366,-19.375,-19.373,-19.366,-19.364,-19.365,-19.384,-19.383,-19.371,-19.367,-19.378,-19.376,-19.377,-19.384,-19.373,-19.377,-19.389,-19.384,-19.377,-19.368,-19.385,-19.384,-19.38,-19.392,-19.389,-19.401,-19.39,-19.392,-19.388,-19.397,-19.394,-19.403,-19.406,-19.414,-19.403,-19.396,-19.403,-19.423,-19.417,-19.414,-19.411,-19.409,-19.419,-19.414,-19.408,-19.416,-19.399,-19.417,-19.417,-19.43,-19.425,-19.424,-19.434,-19.448,-19.446,-19.431,-19.436,-19.441,-19.444,-19.433,-19.434,-19.439,-19.447,-19.454,-19.453,-19.447,-19.445,-19.455,-19.461,-19.456,-19.445,-19.437,-19.443,-19.461,-19.447,-19.435,-19.429,-19.415,-19.414,-19.391,-19.372,-19.36,-19.376,-19.396,-19.403,-19.406,-19.401,-19.415,-19.437,-19.435,-19.426,-19.435,-19.468,-19.482,-19.485,-19.472,-19.465,-19.47,-19.485,-19.477,-19.472,-19.464,-19.461,-19.487,-19.475,-19.474,-19.473,-19.457,-19.475,-19.468,-19.465,-19.459,-19.461,-19.505,-19.541,-19.511,-19.368,-19.172,-19.053,-18.806,-18.44,-18.15,-18.172,-18.55,-18.988,-19.368,-19.576,-19.561,-19.48,-19.427,-19.389,-19.391,-19.406,-19.409,-19.415,-19.412,-19.401,-19.405,-19.406,-19.396,-19.395,-19.392,-19.362,-19.368,-19.373,-19.374,-19.357,-19.353,-19.357,-19.35,-19.358,-19.35,-19.344,-19.323,-19.326,-19.311,-19.303,-19.297,-19.289,-19.284,-19.292,-19.277,-19.262,-19.261,-19.242,-19.232,-19.226,-19.206,-19.195,-19.184,-19.175,-19.155,-19.139,-19.113,-19.105,-19.091,-19.079,-19.052,-19.042,-19.032,-19.02,-19.011,-18.992,-18.972,-18.97,-18.963,-18.957,-18.948,-18.955,-18.96,-19,-19.016,-19.037,-19.077,-19.111,-19.145,-19.18,-19.22,-19.239,-19.273,-19.315,-19.343,-19.35,-19.375,-19.387,-19.41,-19.417,-19.418,-19.435,-19.436,-19.439,-19.447,-19.443,-19.454,-19.459,-19.471,-19.459,-19.449,-19.44,-19.446,-19.449,-19.448,-19.445,-19.428,-19.442,-19.423,-19.441,-19.44,-19.426,-19.415,-19.426,-19.435,-19.417,-19.411,-19.421,-19.427,-19.438,-19.431,-19.414,-19.412,-19.409,-19.444,-19.432,-19.418,-19.419,-19.434,-19.432,-19.436,-19.438,-19.437,-19.439,-19.436,-19.453,-19.445,-19.44,-19.445,-19.447,-19.444,-19.444,-19.468,-19.461,-19.47,-19.466,-19.468,-19.464,-19.471,-19.489,-19.487,-19.487,-19.492,-19.478,-19.499,-19.499,-19.482,-19.483,-19.469,-19.489,-19.499,-19.487,-19.506,-19.505,-19.491,-19.486,-19.491,-19.498,-19.493,-19.487,-19.487,-19.494,-19.493,-19.484,-19.495,-19.501,-19.496,-19.485,-19.482,-19.483,-19.481,-19.465,-19.447,-19.444,-19.434,-19.414,-19.403,-19.397,-19.419,-19.457,-19.452,-19.44,-19.438,-19.447,-19.46,-19.473,-19.495,-19.493,-19.511,-19.516,-19.542,-19.526,-19.524,-19.527,-19.523,-19.52,-19.516,-19.511,-19.517,-19.518,-19.524,-19.518,-19.513,-19.501,-19.514,-19.516,-19.515,-19.517,-19.507,-19.536,-19.577,-19.603,-19.574,-19.452,-19.243,-19.009,-18.715,-18.32,-18.174,-18.307,-18.728,-19.151,-19.496,-19.604,-19.557,-19.53,-19.452,-19.425,-19.406,-19.419,-19.433,-19.451,-19.419,-19.425,-19.408,-19.43,-19.421,-19.442,-19.422,-19.415,-19.414,-19.424,-19.414,-19.419,-19.401,-19.432,-19.413,-19.423,-19.398,-19.405,-19.399,-19.415,-19.4,-19.372,-19.364,-19.379,-19.362,-19.357,-19.344,-19.348,-19.339,-19.336,-19.326,-19.283,-19.252,-19.257,-19.24,-19.237,-19.21,-19.208,-19.195,-19.171,-19.171,-19.163,-19.15,-19.139,-19.119,-19.109,-19.086,-19.063,-19.054,-19.043,-19.048,-19.036,-19.022,-19.028,-19.054,-19.076,-19.086,-19.103,-19.128,-19.168,-19.19,-19.23,-19.27,-19.297,-19.329,-19.356,-19.374,-19.388,-19.414,-19.42,-19.456,-19.452,-19.456,-19.464,-19.474,-19.469,-19.466,-19.464,-19.472,-19.457,-19.472,-19.468,-19.458,-19.451,-19.464,-19.475,-19.473,-19.467,-19.476,-19.476,-19.484,-19.484,-19.472,-19.458,-19.475,-19.464,-19.493,-19.477,-19.48,-19.472,-19.468,-19.474,-19.485,-19.484,-19.498,-19.495,-19.502,-19.489,-19.488,-19.491,-19.516,-19.512,-19.527,-19.511,-19.51,-19.508,-19.506,-19.517,-19.51,-19.513,-19.53,-19.534,-19.528,-19.523,-19.529,-19.527,-19.523,-19.529,-19.534,-19.525,-19.543,-19.544,-19.542,-19.532,-19.532,-19.527,-19.529,-19.529,-19.527,-19.508,-19.511,-19.506,-19.514,-19.507,-19.492,-19.485,-19.472,-19.467,-19.449,-19.429,-19.41,-19.396,-19.406,-19.447,-19.445,-19.443,-19.443,-19.452,-19.444,-19.45,-19.475,-19.487,-19.518,-19.507,-19.513,-19.517,-19.519,-19.514,-19.503,-19.504,-19.51,-19.523,-19.515,-19.523,-19.5,-19.514,-19.515,-19.527,-19.506,-19.512,-19.508,-19.515,-19.516,-19.543,-19.569,-19.587,-19.496,-19.321,-19.077,-18.794,-18.441,-18.208,-18.233,-18.589,-19.001,-19.409,-19.598,-19.584,-19.54,-19.461,-19.448,-19.421,-19.412,-19.426,-19.432,-19.435,-19.419,-19.423,-19.433,-19.421,-19.434,-19.43,-19.412,-19.383,-19.395,-19.4,-19.393,-19.392,-19.394,-19.376,-19.34,-19.346,-19.348,-19.38,-19.388,-19.356,-19.323,-19.317,-19.327,-19.283,-19.3,-19.297,-19.298,-19.286,-19.257,-19.242,-19.204,-19.218,-19.208,-19.196,-19.193,-19.189,-19.141,-19.131,-19.125,-19.098,-19.103,-19.062,-19.061,-19.048,-19.019,-18.981,-19.006,-19.001,-18.988,-18.97,-18.958,-18.965,-18.974,-18.978,-18.972,-19.006,-19.038,-19.072,-19.112,-19.143,-19.174,-19.207,-19.252,-19.299,-19.312,-19.342,-19.362,-19.404,-19.395,-19.408,-19.4,-19.412,-19.424,-19.427,-19.43,-19.419,-19.425,-19.437,-19.447,-19.435,-19.438,-19.421,-19.423,-19.426,-19.413,-19.42,-19.418,-19.41,-19.418,-19.422,-19.408,-19.415,-19.418,-19.404,-19.405,-19.413,-19.402,-19.429,-19.421,-19.425,-19.439,-19.421,-19.425,-19.452,-19.457,-19.446,-19.446,-19.439,-19.45,-19.459,-19.446,-19.462,-19.448,-19.456,-19.454,-19.464,-19.443,-19.457,-19.442,-19.46,-19.445,-19.438,-19.434,-19.404,-19.454,-19.436,-19.427,-19.42,-19.426,-19.444,-19.429,-19.427,-19.423,-19.417,-19.42,-19.424,-19.415,-19.404,-19.424,-19.418,-19.407,-19.386,-19.416,-19.41,-19.407,-19.408,-19.403,-19.384,-19.386,-19.382,-19.389,-19.362,-19.343,-19.328,-19.321,-19.293,-19.28,-19.297,-19.326,-19.339,-19.354,-19.345,-19.352,-19.359,-19.369,-19.394,-19.394,-19.396,-19.411,-19.422,-19.433,-19.429,-19.425,-19.421,-19.427,-19.422,-19.429,-19.418,-19.415,-19.425,-19.43,-19.43,-19.426,-19.432,-19.436,-19.437,-19.423,-19.449,-19.512,-19.515,-19.387,-19.199,-18.956,-18.681,-18.516,-18.175,-18.09,-18.356,-18.808,-19.224,-19.506,-19.533,-19.466,-19.413,-19.357,-19.359,-19.348,-19.376,-19.351,-19.359,-19.369,-19.374,-19.343,-19.348,-19.35,-19.364,-19.352,-19.344,-19.325,-19.331,-19.331,-19.34,-19.326,-19.32,-19.305,-19.326,-19.304,-19.306,-19.286,-19.294,-19.291,-19.28,-19.272,-19.257,-19.25,-19.257,-19.251,-19.245,-19.225,-19.203,-19.206,-19.191,-19.159,-19.154,-19.145,-19.137,-19.129,-19.105,-19.08,-19.068,-19.054,-19.035,-19.006,-18.993,-18.988,-18.978,-18.971,-18.955,-18.937,-18.921,-18.909,-18.906,-18.923,-18.929,-18.937,-18.955,-18.977,-19.012,-19.05,-19.086,-19.115,-19.164,-19.206,-19.23,-19.24,-19.262,-19.291,-19.306,-19.326,-19.324,-19.338,-19.357,-19.37,-19.364,-19.368,-19.373,-19.372,-19.381,-19.37,-19.364,-19.39,-19.376,-19.361,-19.362,-19.368,-19.372,-19.374,-19.373,-19.37,-19.352,-19.356,-19.349,-19.374,-19.377,-19.363,-19.362,-19.362,-19.365,-19.367,-19.347,-19.355,-19.347,-19.364,-19.361,-19.357,-19.343,-19.356,-19.378,-19.38,-19.367,-19.372,-19.371,-19.386,-19.384,-19.373,-19.378,-19.38,-19.382,-19.389,-19.376,-19.375,-19.386,-19.395,-19.395,-19.382,-19.389,-19.384,-19.386,-19.38,-19.384,-19.373,-19.382,-19.378,-19.381,-19.359,-19.358,-19.358,-19.344,-19.324,-19.281,-19.266,-19.277,-19.296,-19.325,-19.318,-19.315,-19.328,-19.35,-19.359,-19.375,-19.385,-19.411,-19.42,-19.425,-19.43,-19.415,-19.411,-19.408,-19.416,-19.43,-19.412,-19.424,-19.423,-19.418,-19.414,-19.417,-19.409,-19.428,-19.43,-19.419,-19.418,-19.427,-19.43,-19.493,-19.545,-19.447,-19.276,-19.033,-18.758,-18.43,-18.143,-18.105,-18.427,-18.873,-19.283,-19.475,-19.533,-19.514,-19.451,-19.407,-19.349,-19.348,-19.352,-19.366,-19.354,-19.354,-19.349,-19.354,-19.366,-19.359,-19.346,-19.334,-19.326,-19.347,-19.346,-19.343,-19.32,-19.314,-19.311,-19.329,-19.315,-19.304,-19.311,-19.291,-19.294,-19.292,-19.273,-19.265,-19.258,-19.248,-19.256,-19.238,-19.213,-19.223,-19.228,-19.218,-19.193,-19.168,-19.159,-19.16,-19.133,-19.133,-19.117,-19.085,-19.079,-19.056,-19.035,-19.021,-19.02,-18.992,-18.99,-18.962,-18.948,-18.95,-18.952,-18.95,-18.933,-18.938,-18.962,-18.951,-18.986,-19.001,-19.033,-19.062,-19.108,-19.137,-19.169,-19.206,-19.239,-19.26,-19.287,-19.303,-19.313,-19.342,-19.36,-19.36,-19.345,-19.353,-19.369,-19.368,-19.375,-19.371,-19.37,-19.374,-19.36,-19.379,-19.369,-19.367,-19.366,-19.373,-19.367,-19.353,-19.355,-19.361,-19.352,-19.351,-19.357,-19.356,-19.34,-19.355,-19.36,-19.352,-19.352,-19.347,-19.345,-19.345,-19.353,-19.36,-19.33,-19.341,-19.349,-19.361,-19.364,-19.362,-19.352,-19.361,-19.377,-19.359,-19.358,-19.36,-19.37,-19.376,-19.372,-19.374,-19.367,-19.369,-19.38,-19.366,-19.371,-19.369,-19.388,-19.374,-19.366,-19.366,-19.369,-19.365,-19.37,-19.36,-19.37,-19.36,-19.365,-19.355,-19.339,-19.326,-19.324,-19.311,-19.287,-19.252,-19.249,-19.246,-19.268,-19.308,-19.308,-19.316,-19.314,-19.315,-19.317,-19.341,-19.356,-19.38,-19.368,-19.388,-19.395,-19.381,-19.381,-19.383,-19.399,-19.4,-19.392,-19.381,-19.375,-19.386,-19.405,-19.385,-19.376,-19.392,-19.39,-19.39,-19.376,-19.425,-19.458,-19.461,-19.351,-19.157,-18.897,-18.628,-18.259,-18.059,-18.148,-18.547,-18.981,-19.361,-19.481,-19.464,-19.402,-19.36,-19.323,-19.297,-19.319,-19.304,-19.311,-19.298,-19.323,-19.302,-19.302,-19.3,-19.307,-19.294,-19.302,-19.278,-19.287,-19.266,-19.285,-19.258,-19.264,-19.254,-19.276,-19.273,-19.273,-19.249,-19.234,-19.242,-19.234,-19.206,-19.197,-19.2,-19.196,-19.194,-19.19,-19.18,-19.16,-19.145,-19.129,-19.119,-19.107,-19.095,-19.083,-19.077,-19.068,-19.038,-19.015,-19.002,-18.997,-18.973,-18.955,-18.92,-18.902,-18.915,-18.904,-18.888,-18.882,-18.872,-18.868,-18.866,-18.877,-18.878,-18.876,-18.921,-18.94,-18.985,-19.019,-19.044,-19.097,-19.129,-19.15,-19.185,-19.212,-19.217,-19.252,-19.28,-19.264,-19.298,-19.291,-19.308,-19.309,-19.299,-19.308,-19.319,-19.324,-19.315,-19.307,-19.311,-19.295,-19.304,-19.318,-19.308,-19.309,-19.31,-19.306,-19.321,-19.305,-19.299,-19.3,-19.304,-19.297,-19.282,-19.29,-19.278,-19.306,-19.299,-19.292,-19.286,-19.284,-19.282,-19.304,-19.298,-19.293,-19.302,-19.298,-19.288,-19.31,-19.297,-19.291,-19.318,-19.314,-19.318,-19.312,-19.31,-19.299,-19.33,-19.317,-19.308,-19.316,-19.312,-19.327,-19.33,-19.314,-19.305,-19.318,-19.339,-19.335,-19.327,-19.316,-19.311,-19.338,-19.34,-19.326,-19.319,-19.316,-19.335,-19.342,-19.329,-19.323,-19.333,-19.332,-19.343,-19.335,-19.327,-19.323,-19.333,-19.342,-19.335,-19.335,-19.322,-19.332,-19.339,-19.333,-19.328,-19.328,-19.331,-19.327,-19.334,-19.332,-19.334,-19.326,-19.329,-19.325,-19.325,-19.319,-19.314,-19.3,-19.29,-19.266,-19.263,-19.226,-19.225,-19.233,-19.249,-19.26,-19.265,-19.28,-19.292,-19.296,-19.288,-19.299,-19.332,-19.35,-19.35,-19.352,-19.361,-19.368,-19.358,-19.355,-19.354,-19.361,-19.365,-19.365,-19.359,-19.355,-19.364,-19.366,-19.364,-19.355,-19.356,-19.359,-19.368,-19.412,-19.456,-19.411,-19.307,-19.105,-18.854,-18.602,-18.194,-18.018,-18.162,-18.367,-18.812,-19.188,-19.415,-19.449,-19.371,-19.327,-19.269,-19.263,-19.269,-19.297,-19.288,-19.283,-19.273,-19.298,-19.299,-19.293,-19.258,-19.276,-19.263,-19.265,-19.264,-19.26,-19.248,-19.247,-19.246,-19.242,-19.227,-19.227,-19.217,-19.223,-19.219,-19.206,-19.187,-19.189,-19.179,-19.171,-19.162,-19.154,-19.142,-19.14,-19.122,-19.119,-19.098,-19.093,-19.083,-19.074,-19.048,-19.028,-19.02,-18.993,-18.982,-18.956,-18.934,-18.917,-18.904,-18.896,-18.856,-18.851,-18.837,-18.841,-18.828,-18.82,-18.81,-18.804,-18.808,-18.811,-18.834,-18.841,-18.866,-18.906,-18.948,-18.974,-18.998,-19.039,-19.069,-19.123,-19.146,-19.16,-19.191,-19.203,-19.233,-19.233,-19.247,-19.252,-19.264,-19.264,-19.274,-19.268,-19.268,-19.267,-19.279,-19.261,-19.271,-19.266,-19.251,-19.254,-19.26,-19.241,-19.245,-19.245,-19.252,-19.264,-19.25,-19.225,-19.245,-19.24,-19.252,-19.252,-19.251,-19.261,-19.254,-19.258,-19.263,-19.246,-19.249,-19.253,-19.269,-19.252,-19.255,-19.256,-19.24,-19.262,-19.279,-19.263,-19.272,-19.269,-19.271,-19.282,-19.27,-19.278,-19.285,-19.292,-19.289,-19.285,-19.275,-19.278,-19.276,-19.284,-19.28,-19.274,-19.287,-19.281,-19.295,-19.288,-19.283,-19.301,-19.298,-19.302,-19.297,-19.294,-19.3,-19.294,-19.301,-19.293,-19.293,-19.299,-19.304,-19.313,-19.279,-19.289,-19.302,-19.313,-19.316,-19.315,-19.304,-19.314,-19.296,-19.309,-19.313,-19.296,-19.299,-19.307,-19.312,-19.298,-19.282,-19.283,-19.28,-19.259,-19.24,-19.239,-19.18,-19.197,-19.222,-19.25,-19.268,-19.259,-19.261,-19.281,-19.27,-19.272,-19.303,-19.324,-19.34,-19.34,-19.345,-19.335,-19.35,-19.35,-19.334,-19.331,-19.35,-19.345,-19.378,-19.367,-19.358,-19.341,-19.355,-19.358,-19.354,-19.343,-19.344,-19.353,-19.372,-19.396,-19.451,-19.389,-19.262,-19.046,-18.785,-18.649,-18.321,-18.051,-18.079,-18.452,-18.901,-19.275,-19.451,-19.449,-19.392,-19.314,-19.281,-19.251,-19.293,-19.282,-19.301,-19.296,-19.292,-19.281,-19.296,-19.285,-19.283,-19.281,-19.284,-19.273,-19.266,-19.258,-19.271,-19.256,-19.263,-19.249,-19.24,-19.241,-19.24,-19.234,-19.239,-19.226,-19.206,-19.195,-19.199,-19.202,-19.191,-19.192,-19.179,-19.167,-19.153,-19.153,-19.127,-19.118,-19.112,-19.089,-19.08,-19.068,-19.044,-19.034,-19.02,-19.006,-18.975,-18.952,-18.948,-18.938,-18.91,-18.908,-18.892,-18.896,-18.892,-18.877,-18.862,-18.851,-18.867,-18.865,-18.885,-18.913,-18.926,-18.97,-19.006,-19.052,-19.079,-19.112,-19.146,-19.175,-19.197,-19.224,-19.243,-19.264,-19.288,-19.306,-19.302,-19.311,-19.312,-19.328,-19.327,-19.327,-19.314,-19.333,-19.335,-19.329,-19.328,-19.332,-19.33,-19.335,-19.331,-19.31,-19.31,-19.327,-19.319,-19.325,-19.316,-19.323,-19.316,-19.315,-19.321,-19.32,-19.313,-19.31,-19.318,-19.305,-19.314,-19.317,-19.331,-19.322,-19.326,-19.318,-19.324,-19.319,-19.319,-19.33,-19.338,-19.332,-19.334,-19.337,-19.351,-19.347,-19.311,-19.338,-19.345,-19.354,-19.354,-19.34,-19.341,-19.346,-19.349,-19.356,-19.338,-19.337,-19.35,-19.375,-19.364,-19.353,-19.351,-19.35,-19.356,-19.36,-19.349,-19.365,-19.362,-19.359,-19.348,-19.349,-19.348,-19.347,-19.337,-19.338,-19.324,-19.31,-19.299,-19.269,-19.257,-19.262,-19.284,-19.3,-19.314,-19.307,-19.311,-19.315,-19.322,-19.345,-19.376,-19.383,-19.39,-19.384,-19.4,-19.386,-19.385,-19.372,-19.385,-19.389,-19.406,-19.407,-19.395,-19.384,-19.404,-19.413,-19.393,-19.389,-19.389,-19.399,-19.409,-19.396,-19.41,-19.438,-19.487,-19.49,-19.372,-19.16,-18.88,-18.598,-18.226,-18.069,-18.18,-18.605,-19.029,-19.411,-19.506,-19.471,-19.424,-19.353,-19.342,-19.307,-19.324,-19.308,-19.334,-19.336,-19.35,-19.325,-19.339,-19.318,-19.336,-19.318,-19.315,-19.295,-19.327,-19.304,-19.314,-19.285,-19.294,-19.291,-19.298,-19.29,-19.279,-19.264,-19.271,-19.269,-19.268,-19.256,-19.242,-19.246,-19.245,-19.232,-19.232,-19.202,-19.199,-19.185,-19.179,-19.165,-19.145,-19.131,-19.124,-19.106,-19.088,-19.061,-19.052,-19.052,-19.032,-19.019,-18.989,-18.992,-18.979,-18.97,-18.958,-18.935,-18.932,-18.921,-18.929,-18.936,-18.929,-18.935,-18.957,-18.997,-19.019,-19.048,-19.054,-19.107,-19.143,-19.187,-19.219,-19.236,-19.262,-19.3,-19.32,-19.324,-19.321,-19.347,-19.354,-19.372,-19.371,-19.374,-19.377,-19.39,-19.383,-19.379,-19.37,-19.368,-19.374,-19.382,-19.37,-19.371,-19.367,-19.375,-19.383,-19.392,-19.372,-19.365,-19.374,-19.391,-19.374,-19.371,-19.38,-19.385,-19.388,-19.393,-19.395,-19.384,-19.387,-19.412,-19.396,-19.411,-19.419,-19.42,-19.431,-19.437,-19.399,-19.416,-19.426,-19.436,-19.45,-19.431,-19.437,-19.454,-19.446,-19.455,-19.445,-19.442,-19.446,-19.443,-19.459,-19.463,-19.466,-19.473,-19.467,-19.468,-19.475,-19.468,-19.477,-19.467,-19.47,-19.456,-19.456,-19.455,-19.455,-19.451,-19.436,-19.405,-19.377,-19.358,-19.377,-19.384,-19.369,-19.397,-19.392,-19.413,-19.414,-19.411,-19.439,-19.453,-19.466,-19.469,-19.471,-19.451,-19.461,-19.464,-19.465,-19.469,-19.461,-19.477,-19.479,-19.49,-19.482,-19.459,-19.469,-19.473,-19.48,-19.483,-19.475,-19.487,-19.488,-19.533,-19.574,-19.514,-19.398,-19.181,-19.06,-18.783,-18.399,-18.173,-18.189,-18.563,-18.999,-19.384,-19.575,-19.574,-19.508,-19.437,-19.382,-19.381,-19.418,-19.405,-19.403,-19.388,-19.399,-19.404,-19.402,-19.392,-19.374,-19.375,-19.367,-19.376,-19.376,-19.35,-19.343,-19.346,-19.343,-19.34,-19.335,-19.323,-19.326,-19.318,-19.314,-19.292,-19.289,-19.285,-19.286,-19.287,-19.262,-19.26,-19.242,-19.229,-19.237,-19.204,-19.19,-19.179,-19.163,-19.147,-19.126,-19.109,-19.096,-19.067,-19.058,-19.037,-19.019,-18.999,-18.993,-18.988,-18.967,-18.952,-18.934,-18.924,-18.918,-18.905,-18.898,-18.899,-18.915,-18.926,-18.95,-18.978,-19.016,-19.053,-19.087,-19.129,-19.161,-19.195,-19.215,-19.246,-19.277,-19.292,-19.318,-19.318,-19.328,-19.354,-19.353,-19.352,-19.379,-19.38,-19.363,-19.386,-19.403,-19.403,-19.399,-19.378,-19.37,-19.372,-19.37,-19.393,-19.385,-19.385,-19.379,-19.357,-19.401,-19.387,-19.369,-19.359,-19.37,-19.371,-19.379,-19.375,-19.356,-19.369,-19.361,-19.369,-19.363,-19.359,-19.364,-19.36,-19.353,-19.344,-19.358,-19.359,-19.367,-19.379,-19.379,-19.368,-19.367,-19.386,-19.379,-19.376,-19.378,-19.387,-19.385,-19.387,-19.364,-19.384,-19.379,-19.376,-19.393,-19.397,-19.386,-19.386,-19.388,-19.395,-19.396,-19.399,-19.382,-19.399,-19.404,-19.405,-19.409,-19.409,-19.393,-19.414,-19.415,-19.419,-19.417,-19.417,-19.396,-19.428,-19.411,-19.407,-19.419,-19.423,-19.442,-19.422,-19.411,-19.411,-19.429,-19.424,-19.439,-19.433,-19.43,-19.404,-19.436,-19.413,-19.402,-19.392,-19.365,-19.354,-19.355,-19.384,-19.412,-19.421,-19.405,-19.407,-19.427,-19.421,-19.436,-19.465,-19.473,-19.477,-19.477,-19.503,-19.513,-19.51,-19.514,-19.524,-19.523,-19.542,-19.543,-19.533,-19.527,-19.538,-19.553,-19.539,-19.544,-19.536,-19.529,-19.558,-19.594,-19.621,-19.599,-19.46,-19.242,-18.991,-18.842,-18.521,-18.193,-18.18,-18.545,-19.011,-19.383,-19.622,-19.626,-19.595,-19.512,-19.458,-19.475,-19.545,-19.543,-19.541,-19.533,-19.551,-19.547,-19.551,-19.534,-19.535,-19.535,-19.529,-19.521,-19.514,-19.511,-19.5,-19.499,-19.507,-19.537,-19.508,-19.488,-19.482,-19.477,-19.472,-19.456,-19.43,-19.426,-19.413,-19.397,-19.39,-19.377,-19.367,-19.338,-19.338,-19.315,-19.307,-19.278,-19.255,-19.265,-19.235,-19.217,-19.19,-19.163,-19.151,-19.126,-19.105,-19.079,-19.054,-19.049,-19.041,-19.022,-19.014,-19,-18.98,-18.965,-18.958,-18.949,-18.962,-18.958,-18.997,-19.025,-19.046,-19.08,-19.115,-19.142,-19.172,-19.239,-19.248,-19.3,-19.322,-19.337,-19.357,-19.368,-19.384,-19.415,-19.416,-19.434,-19.439,-19.449,-19.448,-19.457,-19.453,-19.464,-19.469,-19.469,-19.46,-19.48,-19.471,-19.464,-19.469,-19.482,-19.47,-19.474,-19.488,-19.489,-19.468,-19.478,-19.477,-19.499,-19.485,-19.47,-19.45,-19.467,-19.489,-19.494,-19.481,-19.484,-19.483,-19.473,-19.496,-19.487,-19.475,-19.476,-19.477,-19.508,-19.51,-19.484,-19.499,-19.498,-19.518,-19.495,-19.489,-19.502,-19.503,-19.505,-19.509,-19.494,-19.497,-19.495,-19.506,-19.5,-19.492,-19.486,-19.502,-19.5,-19.501,-19.504,-19.5,-19.489,-19.497,-19.488,-19.488,-19.502,-19.51,-19.471,-19.499,-19.478,-19.467,-19.486,-19.485,-19.49,-19.489,-19.447,-19.433,-19.417,-19.396,-19.403,-19.422,-19.452,-19.436,-19.442,-19.451,-19.449,-19.491,-19.482,-19.497,-19.526,-19.526,-19.533,-19.535,-19.53,-19.562,-19.555,-19.554,-19.578,-19.553,-19.565,-19.573,-19.575,-19.591,-19.612,-19.576,-19.575,-19.579,-19.596,-19.585,-19.588,-19.641,-19.705,-19.731,-19.636,-19.441,-19.18,-18.884,-18.534,-18.252,-18.21,-18.535,-18.985,-19.422,-19.675,-19.669,-19.623,-19.545,-19.52,-19.489,-19.512,-19.495,-19.508,-19.512,-19.529,-19.545,-19.526,-19.515,-19.5,-19.476,-19.514,-19.491,-19.476,-19.489,-19.483,-19.485,-19.46,-19.474,-19.468,-19.459,-19.441,-19.436,-19.43,-19.421,-19.414,-19.416,-19.399,-19.394,-19.365,-19.376,-19.36,-19.354,-19.336,-19.313,-19.327,-19.302,-19.283,-19.271,-19.251,-19.233,-19.233,-19.204,-19.179,-19.161,-19.134,-19.131,-19.108,-19.097,-19.08,-19.062,-19.044,-19.023,-19.017,-19.005,-19.009,-19.017,-19.016,-19.017,-19.039,-19.065,-19.104,-19.144,-19.158,-19.179,-19.231,-19.274,-19.313,-19.358,-19.378,-19.383,-19.411,-19.429,-19.447,-19.454,-19.458,-19.468,-19.473,-19.487,-19.463,-19.472,-19.488,-19.481,-19.461,-19.468,-19.477,-19.464,-19.475,-19.467,-19.468,-19.471,-19.485,-19.469,-19.44,-19.463,-19.464,-19.462,-19.473,-19.458,-19.446,-19.468,-19.473,-19.478,-19.459,-19.462,-19.461,-19.469,-19.485,-19.469,-19.47,-19.46,-19.474,-19.483,-19.472,-19.478,-19.482,-19.494,-19.497,-19.488,-19.481,-19.486,-19.494,-19.513,-19.509,-19.489,-19.491,-19.508,-19.512,-19.514,-19.504,-19.49,-19.495,-19.491,-19.481,-19.482,-19.468,-19.436,-19.422,-19.414,-19.402,-19.418,-19.426,-19.435,-19.439,-19.454,-19.461,-19.477,-19.508,-19.523,-19.529,-19.525,-19.531,-19.53,-19.538,-19.531,-19.522,-19.534,-19.54,-19.534,-19.541,-19.547,-19.542,-19.54,-19.524,-19.528,-19.543,-19.522,-19.539,-19.542,-19.546,-19.545,-19.59,-19.67,-19.632,-19.474,-19.241,-18.949,-18.635,-18.306,-18.151,-18.37,-18.835,-19.253,-19.617,-19.669,-19.62,-19.586,-19.531,-19.486,-19.462,-19.467,-19.457,-19.466,-19.459,-19.458,-19.448,-19.454,-19.458,-19.462,-19.447,-19.455,-19.434,-19.442,-19.449,-19.444,-19.435,-19.413,-19.407,-19.425,-19.412,-19.41,-19.389,-19.385,-19.373,-19.375,-19.352,-19.352,-19.352,-19.351,-19.344,-19.328,-19.32,-19.314,-19.3,-19.299,-19.29,-19.269,-19.245,-19.244,-19.239,-19.218,-19.193,-19.178,-19.162,-19.154,-19.134,-19.118,-19.104,-19.09,-19.078,-19.071,-19.058,-19.047,-19.052,-19.055,-19.059,-19.061,-19.079,-19.105,-19.142,-19.165,-19.2,-19.244,-19.278,-19.321,-19.349,-19.363,-19.393,-19.417,-19.447,-19.446,-19.451,-19.447,-19.469,-19.476,-19.481,-19.485,-19.481,-19.474,-19.478,-19.483,-19.492,-19.475,-19.474,-19.482,-19.489,-19.473,-19.47,-19.467,-19.482,-19.489,-19.487,-19.48,-19.476,-19.476,-19.483,-19.493,-19.487,-19.48,-19.487,-19.497,-19.509,-19.509,-19.51,-19.516,-19.522,-19.527,-19.527,-19.531,-19.536,-19.532,-19.543,-19.532,-19.544,-19.544,-19.544,-19.535,-19.531,-19.528,-19.526,-19.533,-19.535,-19.527,-19.515,-19.517,-19.51,-19.511,-19.495,-19.49,-19.485,-19.475,-19.476,-19.459,-19.427,-19.457,-19.392,-19.387,-19.404,-19.403,-19.436,-19.448,-19.456,-19.467,-19.469,-19.482,-19.506,-19.527,-19.535,-19.524,-19.534,-19.536,-19.539,-19.534,-19.543,-19.545,-19.549,-19.546,-19.549,-19.534,-19.535,-19.533,-19.54,-19.542,-19.53,-19.527,-19.544,-19.562,-19.608,-19.645,-19.579,-19.421,-19.193,-18.916,-18.592,-18.242,-18.178,-18.259,-18.678,-19.111,-19.488,-19.635,-19.605,-19.567,-19.486,-19.456,-19.441,-19.478,-19.467,-19.475,-19.454,-19.472,-19.46,-19.48,-19.447,-19.448,-19.431,-19.445,-19.436,-19.445,-19.418,-19.42,-19.413,-19.423,-19.405,-19.403,-19.379,-19.388,-19.389,-19.395,-19.367,-19.375,-19.37,-19.373,-19.356,-19.352,-19.345,-19.341,-19.33,-19.32,-19.293,-19.279,-19.271,-19.262,-19.239,-19.214,-19.188,-19.179,-19.17,-19.153,-19.123,-19.102,-19.085,-19.066,-19.059,-19.048,-19.039,-19.033,-19.032,-19.019,-19.025,-19.021,-19.028,-19.043,-19.068,-19.087,-19.104,-19.146,-19.182,-19.23,-19.256,-19.281,-19.309,-19.337,-19.372,-19.387,-19.39,-19.393,-19.42,-19.422,-19.433,-19.434,-19.442,-19.447,-19.45,-19.439,-19.429,-19.422,-19.433,-19.44,-19.44,-19.43,-19.44,-19.419,-19.441,-19.431,-19.43,-19.414,-19.429,-19.428,-19.42,-19.417,-19.416,-19.418,-19.422,-19.413,-19.411,-19.409,-19.406,-19.408,-19.408,-19.406,-19.414,-19.417,-19.421,-19.416,-19.416,-19.405,-19.41,-19.419,-19.421,-19.421,-19.426,-19.426,-19.435,-19.442,-19.442,-19.432,-19.432,-19.433,-19.436,-19.437,-19.438,-19.442,-19.446,-19.442,-19.437,-19.439,-19.442,-19.445,-19.45,-19.448,-19.445,-19.449,-19.442,-19.44,-19.438,-19.445,-19.446,-19.443,-19.462,-19.462,-19.439,-19.445,-19.454,-19.455,-19.455,-19.449,-19.448,-19.457,-19.458,-19.451,-19.439,-19.429,-19.437,-19.444,-19.445,-19.423,-19.417,-19.401,-19.401,-19.383,-19.35,-19.343,-19.352,-19.388,-19.396,-19.395,-19.382,-19.394,-19.411,-19.412,-19.428,-19.432,-19.441,-19.457,-19.455,-19.458,-19.464,-19.473,-19.487,-19.493,-19.479,-19.464,-19.465,-19.47,-19.481,-19.478,-19.468,-19.47,-19.467,-19.468,-19.467,-19.46,-19.471,-19.518,-19.574,-19.537,-19.374,-19.156,-18.909,-18.631,-18.232,-18.101,-18.296,-18.736,-18.965,-19.32,-19.56,-19.542,-19.517,-19.444,-19.414,-19.386,-19.406,-19.394,-19.42,-19.414,-19.418,-19.403,-19.42,-19.411,-19.419,-19.39,-19.39,-19.382,-19.39,-19.382,-19.386,-19.368,-19.375,-19.36,-19.362,-19.349,-19.365,-19.352,-19.359,-19.341,-19.328,-19.315,-19.316,-19.311,-19.307,-19.292,-19.28,-19.273,-19.263,-19.258,-19.254,-19.232,-19.209,-19.199,-19.19,-19.181,-19.151,-19.14,-19.121,-19.114,-19.093,-19.071,-19.039,-19.027,-19.025,-19.011,-18.987,-18.984,-18.977,-18.971,-18.973,-18.97,-18.962,-18.966,-18.989,-19.026,-19.032,-19.078,-19.119,-19.165,-19.195,-19.225,-19.261,-19.302,-19.325,-19.359,-19.369,-19.387,-19.393,-19.407,-19.409,-19.404,-19.405,-19.422,-19.443,-19.452,-19.431,-19.419,-19.435,-19.438,-19.422,-19.425,-19.425,-19.428,-19.437,-19.425,-19.414,-19.429,-19.422,-19.42,-19.413,-19.429,-19.426,-19.424,-19.419,-19.417,-19.42,-19.429,-19.411,-19.423,-19.422,-19.423,-19.422,-19.431,-19.421,-19.419,-19.42,-19.421,-19.424,-19.427,-19.445,-19.441,-19.438,-19.43,-19.437,-19.439,-19.447,-19.434,-19.427,-19.44,-19.442,-19.449,-19.447,-19.449,-19.448,-19.445,-19.451,-19.441,-19.443,-19.454,-19.455,-19.453,-19.449,-19.447,-19.445,-19.457,-19.463,-19.464,-19.459,-19.449,-19.449,-19.452,-19.445,-19.446,-19.454,-19.458,-19.458,-19.45,-19.449,-19.463,-19.466,-19.467,-19.458,-19.446,-19.459,-19.455,-19.474,-19.468,-19.457,-19.449,-19.454,-19.453,-19.467,-19.444,-19.439,-19.436,-19.433,-19.428,-19.42,-19.385,-19.359,-19.371,-19.385,-19.419,-19.405,-19.405,-19.423,-19.432,-19.431,-19.43,-19.464,-19.482,-19.496,-19.479,-19.486,-19.484,-19.503,-19.514,-19.513,-19.493,-19.501,-19.496,-19.505,-19.507,-19.499,-19.497,-19.499,-19.503,-19.501,-19.492,-19.499,-19.498,-19.503,-19.507,-19.522,-19.572,-19.599,-19.508,-19.321,-19.187,-18.937,-18.642,-18.279,-18.143,-18.333,-18.778,-19.205,-19.545,-19.61,-19.566,-19.519,-19.442,-19.438,-19.419,-19.43,-19.419,-19.444,-19.426,-19.438,-19.421,-19.433,-19.408,-19.433,-19.418,-19.421,-19.405,-19.416,-19.406,-19.405,-19.392,-19.392,-19.387,-19.399,-19.392,-19.383,-19.37,-19.369,-19.367,-19.366,-19.36,-19.351,-19.33,-19.339,-19.337,-19.322,-19.296,-19.291,-19.287,-19.288,-19.269,-19.251,-19.226,-19.212,-19.212,-19.19,-19.167,-19.155,-19.149,-19.131,-19.126,-19.09,-19.078,-19.07,-19.065,-19.049,-19.043,-19.022,-19.011,-19.013,-19.011,-19.001,-19.024,-19.045,-19.094,-19.108,-19.143,-19.163,-19.209,-19.244,-19.268,-19.305,-19.328,-19.345,-19.375,-19.393,-19.409,-19.416,-19.435,-19.447,-19.459,-19.442,-19.451,-19.452,-19.457,-19.465,-19.463,-19.459,-19.467,-19.454,-19.471,-19.47,-19.468,-19.447,-19.455,-19.463,-19.456,-19.446,-19.445,-19.449,-19.457,-19.447,-19.447,-19.438,-19.443,-19.445,-19.444,-19.441,-19.445,-19.451,-19.458,-19.455,-19.449,-19.436,-19.451,-19.45,-19.456,-19.444,-19.451,-19.461,-19.474,-19.472,-19.46,-19.459,-19.46,-19.472,-19.482,-19.471,-19.463,-19.476,-19.483,-19.476,-19.465,-19.462,-19.476,-19.48,-19.485,-19.471,-19.462,-19.471,-19.475,-19.465,-19.457,-19.447,-19.44,-19.441,-19.413,-19.382,-19.373,-19.386,-19.388,-19.42,-19.432,-19.425,-19.423,-19.443,-19.442,-19.451,-19.461,-19.479,-19.492,-19.502,-19.502,-19.5,-19.508,-19.509,-19.503,-19.506,-19.508,-19.504,-19.51,-19.516,-19.522,-19.513,-19.505,-19.502,-19.511,-19.524,-19.512,-19.512,-19.508,-19.515,-19.556,-19.607,-19.585,-19.473,-19.267,-19.01,-18.705,-18.328,-18.214,-18.191,-18.479,-18.949,-19.328,-19.609,-19.603,-19.574,-19.503,-19.459,-19.435,-19.455,-19.453,-19.45,-19.438,-19.449,-19.446,-19.448,-19.442,-19.443,-19.431,-19.439,-19.437,-19.437,-19.418,-19.42,-19.426,-19.431,-19.419,-19.407,-19.387,-19.385,-19.394,-19.397,-19.378,-19.385,-19.371,-19.375,-19.355,-19.345,-19.342,-19.335,-19.331,-19.317,-19.3,-19.295,-19.281,-19.267,-19.246,-19.242,-19.224,-19.205,-19.193,-19.169,-19.136,-19.121,-19.109,-19.093,-19.091,-19.071,-19.061,-19.044,-19.046,-19.042,-19.024,-19.015,-19.016,-19.029,-19.041,-19.06,-19.09,-19.12,-19.16,-19.195,-19.23,-19.262,-19.299,-19.335,-19.359,-19.379,-19.389,-19.407,-19.431,-19.439,-19.45,-19.454,-19.466,-19.468,-19.482,-19.482,-19.48,-19.472,-19.478,-19.481,-19.48,-19.468,-19.478,-19.476,-19.479,-19.473,-19.469,-19.465,-19.464,-19.462,-19.468,-19.463,-19.467,-19.46,-19.457,-19.459,-19.456,-19.451,-19.453,-19.45,-19.457,-19.447,-19.443,-19.447,-19.461,-19.458,-19.457,-19.447,-19.453,-19.462,-19.47,-19.475,-19.469,-19.472,-19.48,-19.484,-19.475,-19.47,-19.468,-19.478,-19.482,-19.472,-19.475,-19.479,-19.48,-19.485,-19.487,-19.478,-19.481,-19.482,-19.487,-19.487,-19.479,-19.479,-19.479,-19.493,-19.483,-19.479,-19.484,-19.484,-19.494,-19.49,-19.483,-19.478,-19.48,-19.488,-19.492,-19.484,-19.478,-19.474,-19.477,-19.483,-19.473,-19.455,-19.434,-19.431,-19.42,-19.387,-19.376,-19.382,-19.416,-19.43,-19.433,-19.428,-19.435,-19.448,-19.453,-19.454,-19.462,-19.478,-19.504,-19.511,-19.509,-19.503,-19.506,-19.513,-19.524,-19.513,-19.509,-19.518,-19.521,-19.517,-19.514,-19.516,-19.511,-19.507,-19.511,-19.51,-19.512,-19.513,-19.526,-19.564,-19.603,-19.557,-19.411,-19.204,-18.957,-18.674,-18.274,-18.147,-18.349,-18.798,-19.212,-19.538,-19.617,-19.569,-19.54,-19.47,-19.427,-19.409,-19.426,-19.434,-19.447,-19.437,-19.447,-19.436,-19.441,-19.436,-19.425,-19.42,-19.42,-19.421,-19.425,-19.41,-19.411,-19.404,-19.405,-19.395,-19.392,-19.378,-19.371,-19.369,-19.379,-19.366,-19.363,-19.358,-19.344,-19.341,-19.33,-19.314,-19.307,-19.302,-19.295,-19.269,-19.248,-19.245,-19.244,-19.236,-19.215,-19.191,-19.176,-19.162,-19.14,-19.129,-19.1,-19.084,-19.07,-19.061,-19.044,-19.019,-19.005,-19.001,-18.992,-18.985,-18.979,-18.985,-18.995,-19.004,-19.024,-19.049,-19.072,-19.109,-19.15,-19.185,-19.218,-19.254,-19.294,-19.329,-19.353,-19.361,-19.385,-19.411,-19.42,-19.431,-19.431,-19.442,-19.444,-19.451,-19.45,-19.453,-19.449,-19.446,-19.448,-19.45,-19.453,-19.459,-19.453,-19.46,-19.458,-19.447,-19.433,-19.429,-19.43,-19.442,-19.435,-19.44,-19.436,-19.437,-19.435,-19.434,-19.425,-19.43
