-2.1314,-2.1223,-2.1352,-2.1477,-2.1581,-2.1553,-2.1475,-2.1346,-2.1305,-2.1339,-2.1276,-2.1326,-2.1291,-2.1339,-2.1336,-2.1144,-2.1048,-2.1144,-2.1149,-2.1282,-2.1166,-2.1067,-2.116,-2.1167,-2.1113,-2.1172,-2.1087,-2.1117,-2.1139,-2.12,-2.1211,-2.1254,-2.1199,-2.1239,-2.1374,-2.1419,-2.1368,-2.121,-2.1299,-2.1348,-2.1344,-2.1386,-2.1158,-2.1252,-2.1399,-2.1443,-2.134,-2.1211,-2.1007,-2.0993,-2.0961,-2.1013,-2.1058,-2.0858,-2.0494,-2.0336,-2.02,-2.0312,-2.0582,-2.0735,-2.0791,-2.0978,-2.1021,-2.1062,-2.1217,-2.1339,-2.144,-2.1463,-2.1507,-2.1582,-2.1567,-2.1567,-2.1666,-2.1597,-2.1557,-2.1385,-2.1315,-2.1462,-2.1414,-2.1406,-2.1643,-2.1493,-2.061,-1.8662,-1.674,-1.495,-1.3846,-1.5733,-2.0182,-2.4588,-2.6244,-2.5533,-2.4301,-2.3606,-2.3051,-2.2362,-2.1863,-2.1652,-2.1455,-2.1288,-2.1225,-2.1355,-2.1325,-2.126,-2.1231,-2.1177,-2.1045,-2.1066,-2.1089,-2.117,-2.1225,-2.1073,-2.1128,-2.1162,-2.0983,-2.0844,-2.0847,-2.0864,-2.0841,-2.0752,-2.0743,-2.0678,-2.0633,-2.0572,-2.0441,-2.0492,-2.0392,-2.0409,-2.0306,-2.005,-1.9958,-1.9942,-1.9933,-1.9768,-1.9603,-1.9409,-1.9268,-1.9222,-1.9087,-1.8879,-1.8711,-1.835,-1.8158,-1.7897,-1.7673,-1.7428,-1.715,-1.7018,-1.7171,-1.6862,-1.6718,-1.6689,-1.6581,-1.6609,-1.6522,-1.6431,-1.6519,-1.6713,-1.6925,-1.7306,-1.7578,-1.7982,-1.8447,-1.9091,-1.96,-1.9899,-2.012,-2.0364,-2.0704,-2.0993,-2.1036,-2.1141,-2.1209,-2.1381,-2.1541,-2.1605,-2.1678,-2.1711,-2.1671,-2.1577,-2.1689,-2.1665,-2.1573,-2.17,-2.1701,-2.1546,-2.1534,-2.1508,-2.1607,-2.1561,-2.146,-2.139,-2.1354,-2.1405,-2.1334,-2.1409,-2.1405,-2.1301,-2.1333,-2.1287,-2.1092,-2.1149,-2.1293,-2.1432,-2.1476,-2.1333,-2.1291,-2.1265,-2.1306,-2.1385,-2.1359,-2.1423,-2.148,-2.1545,-2.155,-2.1503,-2.1493,-2.1546,-2.1422,-2.1512,-2.1598,-2.1508,-2.1427,-2.1451,-2.1492,-2.143,-2.1454,-2.1459,-2.1556,-2.1552,-2.1604,-2.1547,-2.1361,-2.1152,-2.0969,-2.0996,-2.1037,-2.1138,-2.1143,-2.0873,-2.0552,-2.038,-2.0422,-2.0618,-2.0855,-2.1007,-2.1021,-2.1138,-2.1257,-2.1359,-2.1576,-2.1544,-2.159,-2.1457,-2.1657,-2.1676,-2.1687,-2.1681,-2.1588,-2.1536,-2.169,-2.1687,-2.1581,-2.1421,-2.1593,-2.1784,-2.1743,-2.1286,-1.9762,-1.8864,-1.7034,-1.4937,-1.3659,-1.5,-1.935,-2.3935,-2.6427,-2.5204,-2.4101,-2.3405,-2.2679,-2.2194,-2.1721,-2.1545,-2.1425,-2.1456,-2.1352,-2.1351,-2.1339,-2.1337,-2.1266,-2.1345,-2.1286,-2.1225,-2.1182,-2.115,-2.1128,-2.1108,-2.092,-2.0903,-2.0946,-2.0874,-2.0895,-2.0719,-2.0732,-2.069,-2.075,-2.0606,-2.051,-2.0494,-2.0489,-2.0389,-2.0273,-2.0256,-2.019,-2.0061,-1.995,-1.9901,-1.9739,-1.9503,-1.9401,-1.9292,-1.9089,-1.8984,-1.8789,-1.8585,-1.8378,-1.8214,-1.7927,-1.7781,-1.7601,-1.7265,-1.7125,-1.6905,-1.6814,-1.676,-1.6574,-1.6444,-1.6419,-1.6265,-1.6254,-1.6328,-1.6469,-1.661,-1.6782,-1.7062,-1.7464,-1.8007,-1.8468,-1.8715,-1.919,-1.9578,-1.9947,-2.0293,-2.038,-2.0652,-2.092,-2.1119,-2.1057,-2.1024,-2.0992,-2.1134,-2.1391,-2.1393,-2.1304,-2.1419,-2.1443,-2.1553,-2.1512,-2.1582,-2.1605,-2.1378,-2.1436,-2.1609,-2.1524,-2.1394,-2.1302,-2.1365,-2.1444,-2.1568,-2.1378,-2.1271,-2.1244,-2.1281,-2.1269,-2.1255,-2.1026,-2.0961,-2.1254,-2.1327,-2.1294,-2.131,-2.1294,-2.128,-2.1219,-2.1179,-2.1247,-2.1302,-2.1281,-2.1353,-2.1301,-2.1177,-2.1163,-2.12,-2.1333,-2.1423,-2.1396,-2.131,-2.1234,-2.133,-2.1485,-2.1448,-2.1331,-2.1345,-2.1443,-2.1423,-2.1297,-2.1236,-2.1339,-2.1405,-2.1464,-2.1216,-2.1179,-2.1281,-2.1319,-2.1318,-2.1285,-2.1349,-2.1402,-2.1298,-2.1327,-2.1359,-2.1363,-2.1309,-2.1307,-2.1257,-2.1195,-2.1212,-2.1378,-2.1371,-2.1356,-2.1276,-2.125,-2.1136,-2.1202,-2.1305,-2.1348,-2.1455,-2.1354,-2.1343,-2.1394,-2.1215,-2.1187,-2.1322,-2.1374,-2.139,-2.1321,-2.1301,-2.1316,-2.1404,-2.1387,-2.1301,-2.1247,-2.1396,-2.1335,-2.1405,-2.1487,-2.1425,-2.1392,-2.1429,-2.1362,-2.1455,-2.1292,-2.1387,-2.1441,-2.1539,-2.1514,-2.1347,-2.143,-2.1436,-2.149,-2.1538,-2.1506,-2.1369,-2.1324,-2.1353,-2.1235,-2.1214,-2.1209,-2.1106,-2.1168,-2.1032,-2.09,-2.0685,-2.0756,-2.0935,-2.1158,-2.113,-2.1236,-2.1212,-2.1285,-2.1516,-2.1457,-2.1468,-2.1443,-2.1493,-2.1455,-2.1528,-2.1487,-2.1461,-2.1395,-2.1419,-2.1458,-2.1457,-2.1347,-2.1452,-2.1571,-2.1378,-2.0338,-1.8616,-1.6538,-1.4242,-1.3552,-1.514,-1.9026,-2.3895,-2.5867,-2.452,-2.3881,-2.3404,-2.2595,-2.1897,-2.1601,-2.1544,-2.1289,-2.1349,-2.1236,-2.1177,-2.1173,-2.1159,-2.1136,-2.1089,-2.0923,-2.0901,-2.0828,-2.0947,-2.0979,-2.0877,-2.0815,-2.095,-2.0784,-2.0703,-2.079,-2.0762,-2.0634,-2.0612,-2.066,-2.0597,-2.0629,-2.0513,-2.0288,-2.0277,-2.04,-2.043,-2.0205,-2.0108,-2.0113,-1.9977,-1.9933,-1.9933,-1.9747,-1.9502,-1.9428,-1.9383,-1.9175,-1.8903,-1.8702,-1.8523,-1.836,-1.8228,-1.8069,-1.788,-1.7696,-1.7533,-1.7358,-1.7167,-1.7061,-1.6926,-1.6942,-1.6746,-1.6601,-1.6537,-1.6511,-1.646,-1.6587,-1.664,-1.6844,-1.7179,-1.7597,-1.7988,-1.8348,-1.8664,-1.9176,-1.9584,-1.9882,-2.0088,-2.0363,-2.0497,-2.0663,-2.0811,-2.0921,-2.1053,-2.1094,-2.1141,-2.133,-2.1256,-2.133,-2.1352,-2.1264,-2.134,-2.1371,-2.1324,-2.1275,-2.1354,-2.1315,-2.1292,-2.1211,-2.1196,-2.1268,-2.1326,-2.1228,-2.1148,-2.1042,-2.1207,-2.1235,-2.1195,-2.1129,-2.1091,-2.1097,-2.1114,-2.1192,-2.118,-2.1068,-2.1206,-2.1108,-2.1038,-2.1032,-2.1027,-2.1205,-2.1279,-2.1205,-2.1189,-2.115,-2.1146,-2.1221,-2.1347,-2.1281,-2.1098,-2.122,-2.1316,-2.1312,-2.1252,-2.1232,-2.1267,-2.1312,-2.1262,-2.1196,-2.1137,-2.114,-2.1153,-2.1201,-2.1095,-2.1189,-2.1241,-2.1211,-2.1232,-2.1213,-2.1154,-2.1204,-2.1166,-2.1183,-2.1273,-2.1272,-2.1175,-2.1148,-2.1273,-2.1276,-2.1243,-2.134,-2.1271,-2.1225,-2.1197,-2.1179,-2.1283,-2.128,-2.1347,-2.1349,-2.1393,-2.1354,-2.1341,-2.1382,-2.1452,-2.1402,-2.1228,-2.1237,-2.142,-2.1469,-2.142,-2.1405,-2.1352,-2.1425,-2.1338,-2.1272,-2.1367,-2.1358,-2.1431,-2.1452,-2.1454,-2.1387,-2.1385,-2.1488,-2.1446,-2.1425,-2.1425,-2.1393,-2.1462,-2.1453,-2.1513,-2.1445,-2.1345,-2.1237,-2.112,-2.1124,-2.1217,-2.1137,-2.1137,-2.0995,-2.1004,-2.0839,-2.0602,-2.0724,-2.102,-2.1065,-2.1044,-2.107,-2.1178,-2.1344,-2.1341,-2.1431,-2.145,-2.154,-2.1559,-2.1608,-2.1492,-2.1542,-2.1478,-2.1444,-2.1401,-2.1545,-2.1537,-2.1599,-2.1691,-2.1679,-2.0803,-1.9034,-1.7054,-1.608,-1.4167,-1.4291,-1.6666,-2.0831,-2.5559,-2.5589,-2.4469,-2.3644,-2.2753,-2.2033,-2.1819,-2.1553,-2.1461,-2.1335,-2.1336,-2.127,-2.127,-2.123,-2.1204,-2.1195,-2.113,-2.1105,-2.1101,-2.1016,-2.0943,-2.0969,-2.0964,-2.0851,-2.0854,-2.0865,-2.0819,-2.0727,-2.076,-2.0739,-2.0736,-2.0601,-2.0445,-2.0539,-2.054,-2.046,-2.0415,-2.0323,-2.0253,-2.0197,-2.0095,-1.9928,-2.003,-1.988,-1.9671,-1.951,-1.9383,-1.933,-1.9075,-1.877,-1.8631,-1.8466,-1.8239,-1.8234,-1.7969,-1.7843,-1.7587,-1.7413,-1.7181,-1.7054,-1.6922,-1.6812,-1.6701,-1.6587,-1.6612,-1.644,-1.6501,-1.6393,-1.6612,-1.6689,-1.6797,-1.7193,-1.7546,-1.7942,-1.8455,-1.8711,-1.9163,-1.9509,-1.9816,-2.0227,-2.0502,-2.0665,-2.0841,-2.1115,-2.117,-2.1381,-2.1413,-2.1502,-2.1508,-2.1592,-2.1566,-2.1653,-2.1641,-2.1665,-2.1619,-2.1624,-2.1622,-2.157,-2.1603,-2.1642,-2.1591,-2.156,-2.1623,-2.1599,-2.1574,-2.1636,-2.1624,-2.1542,-2.1455,-2.1562,-2.1541,-2.1495,-2.135,-2.1524,-2.1658,-2.1568,-2.1541,-2.1409,-2.1458,-2.1501,-2.1452,-2.1417,-2.1507,-2.1432,-2.1537,-2.1679,-2.149,-2.1414,-2.1487,-2.1635,-2.1759,-2.1495,-2.147,-2.1589,-2.1746,-2.1717,-2.1618,-2.1486,-2.1504,-2.1505,-2.1433,-2.16,-2.1492,-2.1524,-2.1597,-2.1614,-2.1439,-2.1402,-2.1594,-2.1639,-2.1508,-2.153,-2.1532,-2.1503,-2.154,-2.1557,-2.158,-2.1504,-2.1499,-2.1525,-2.1413,-2.1324,-2.1197,-2.1439,-2.1575,-2.1573,-2.1485,-2.1475,-2.1502,-2.1342,-2.1597,-2.1584,-2.1573,-2.1602,-2.1618,-2.1489,-2.1452,-2.1551,-2.152,-2.1482,-2.1493,-2.1499,-2.1506,-2.1496,-2.1558,-2.1604,-2.1531,-2.1545,-2.1553,-2.1588,-2.1586,-2.1702,-2.1593,-2.1675,-2.1706,-2.1623,-2.1614,-2.1612,-2.1593,-2.1555,-2.1518,-2.1609,-2.1477,-2.143,-2.136,-2.1314,-2.1164,-2.1045,-2.0997,-2.1244,-2.1464,-2.1513,-2.1638,-2.1607,-2.1749,-2.1742,-2.1913,-2.1857,-2.1966,-2.2,-2.2044,-2.2076,-2.2059,-2.2026,-2.2037,-2.2102,-2.2132,-2.2131,-2.2189,-2.2035,-2.1703,-2.0425,-1.853,-1.6848,-1.579,-1.5016,-1.6319,-2.0019,-2.4384,-2.6539,-2.5169,-2.4213,-2.3796,-2.306,-2.2458,-2.2335,-2.2177,-2.2073,-2.2129,-2.2027,-2.1944,-2.192,-2.1894,-2.1962,-2.1944,-2.1842,-2.1797,-2.1838,-2.1742,-2.1749,-2.165,-2.1504,-2.169,-2.1789,-2.1658,-2.1535,-2.1438,-2.1418,-2.1453,-2.1373,-2.1239,-2.1252,-2.1237,-2.1154,-2.1071,-2.0938,-2.0905,-2.0783,-2.0759,-2.0686,-2.0522,-2.0441,-2.0232,-2.0174,-2.0107,-1.9992,-1.9865,-1.9625,-1.9377,-1.9251,-1.9134,-1.8991,-1.8593,-1.8485,-1.8397,-1.816,-1.8183,-1.788,-1.7884,-1.7756,-1.7719,-1.7549,-1.7422,-1.7404,-1.7315,-1.736,-1.7429,-1.7493,-1.772,-1.7973,-1.8188,-1.8427,-1.886,-1.9145,-1.9478,-1.9968,-2.0168,-2.0533,-2.0885,-2.1275,-2.1489,-2.163,-2.1772,-2.1922,-2.2043,-2.2141,-2.205,-2.2244,-2.2154,-2.2233,-2.2216,-2.2206,-2.219,-2.2134,-2.2174,-2.2057,-2.2047,-2.2095,-2.2039,-2.1927,-2.197,-2.1943,-2.19,-2.1907,-2.1892,-2.191,-2.1918,-2.1733,-2.1781,-2.1772,-2.1943,-2.1833,-2.1888,-2.1858,-2.1889,-2.1821,-2.1898,-2.1785,-2.1765,-2.1858,-2.1959,-2.1937,-2.1858,-2.1954,-2.1943,-2.1984,-2.2069,-2.2032,-2.1908,-2.2122,-2.2135,-2.2057,-2.2008,-2.1963,-2.2122,-2.2046,-2.2046,-2.2023,-2.2113,-2.2016,-2.2079,-2.2134,-2.2182,-2.21,-2.2092,-2.2146,-2.2077,-2.2126,-2.2005,-2.2087,-2.213,-2.2179,-2.2153,-2.2132,-2.2079,-2.2188,-2.219,-2.2236,-2.2155,-2.218,-2.2258,-2.2224,-2.2238,-2.2207,-2.2218,-2.2238,-2.2132,-2.2018,-2.1912,-2.189,-2.1926,-2.1754,-2.1528,-2.1619,-2.1461,-2.1351,-2.1403,-2.1581,-2.1691,-2.1873,-2.1851,-2.1919,-2.1956,-2.2035,-2.2179,-2.2204,-2.2312,-2.2256,-2.2244,-2.2322,-2.223,-2.227,-2.2264,-2.2232,-2.2226,-2.2215,-2.2295,-2.2357,-2.2275,-2.1447,-1.9608,-1.7997,-1.6263,-1.5309,-1.6841,-2.0619,-2.4713,-2.6559,-2.5394,-2.4589,-2.4092,-2.3518,-2.2932,-2.2642,-2.2534,-2.2291,-2.2202,-2.2147,-2.2278,-2.2088,-2.2064,-2.1982,-2.2037,-2.1946,-2.1981,-2.1925,-2.1946,-2.1861,-2.1879,-2.1733,-2.1737,-2.1704,-2.1752,-2.174,-2.1794,-2.1647,-2.1652,-2.1636,-2.163,-2.1442,-2.146,-2.1349,-2.1346,-2.1382,-2.1261,-2.1157,-2.1045,-2.1087,-2.0934,-2.0692,-2.0656,-2.0497,-2.0476,-2.0368,-2.0174,-1.9974,-1.9747,-1.9629,-1.9414,-1.9201,-1.9037,-1.8791,-1.863,-1.8527,-1.8421,-1.8174,-1.8015,-1.7854,-1.7673,-1.7539,-1.7527,-1.7513,-1.7476,-1.7536,-1.7461,-1.7528,-1.7816,-1.8106,-1.8371,-1.8912,-1.9195,-1.9678,-2.0135,-2.0548,-2.0866,-2.1245,-2.1487,-2.1772,-2.1976,-2.2109,-2.2184,-2.2298,-2.2335,-2.2326,-2.2366,-2.2411,-2.2531,-2.2432,-2.245,-2.2399,-2.2491,-2.2349,-2.2224,-2.2303,-2.2208,-2.2224,-2.2084,-2.2089,-2.2053,-2.2057,-2.1945,-2.1955,-2.2037,-2.2015,-2.1938,-2.1884,-2.1837,-2.1865,-2.1987,-2.1968,-2.1947,-2.1959,-2.197,-2.1965,-2.1945,-2.1965,-2.1902,-2.1952,-2.1949,-2.193,-2.2005,-2.2036,-2.2042,-2.2023,-2.2052,-2.2076,-2.2061,-2.2004,-2.2046,-2.1999,-2.2036,-2.2144,-2.2035,-2.1921,-2.1925,-2.1992,-2.2006,-2.193,-2.1799,-2.1902,-2.1904,-2.1863,-2.1932,-2.1898,-2.1954,-2.1818,-2.1885,-2.1825,-2.1838,-2.1892,-2.1869,-2.2111,-2.1963,-2.1859,-2.1903,-2.1891,-2.1686,-2.1582,-2.1494,-2.1574,-2.1605,-2.1458,-2.1392,-2.1094,-2.0848,-2.08,-2.0959,-2.1289,-2.1341,-2.1278,-2.1502,-2.1701,-2.1644,-2.1818,-2.1924,-2.1921,-2.1977,-2.2006,-2.2039,-2.2058,-2.1998,-2.2021,-2.1992,-2.2076,-2.196,-2.1859,-2.1963,-2.205,-2.2088,-2.1996,-2.1427,-1.978,-1.7794,-1.5883,-1.4363,-1.528,-1.8806,-2.3268,-2.6796,-2.5756,-2.45,-2.4254,-2.3559,-2.273,-2.2244,-2.2001,-2.1791,-2.176,-2.1553,-2.1672,-2.1706,-2.1641,-2.1682,-2.1634,-2.1481,-2.1541,-2.1473,-2.1476,-2.1456,-2.1328,-2.1297,-2.1325,-2.1201,-2.1354,-2.1194,-2.1257,-2.1148,-2.1158,-2.1,-2.1157,-2.1111,-2.099,-2.0979,-2.0888,-2.0861,-2.0744,-2.0598,-2.0566,-2.0492,-2.0444,-2.0324,-2.0223,-2.0223,-2.0042,-1.9811,-1.9519,-1.948,-1.9359,-1.9093,-1.8853,-1.8639,-1.8367,-1.8232,-1.8015,-1.7863,-1.7642,-1.7484,-1.7348,-1.7321,-1.7096,-1.7003,-1.6971,-1.6909,-1.6925,-1.6964,-1.6967,-1.6926,-1.7142,-1.7518,-1.7879,-1.8318,-1.8667,-1.9207,-1.9637,-1.9994,-2.0431,-2.0764,-2.0892,-2.1155,-2.1437,-2.1542,-2.1569,-2.1754,-2.1939,-2.1932,-2.1928,-2.1985,-2.1985,-2.2047,-2.2034,-2.1997,-2.1935,-2.2023,-2.2031,-2.2183,-2.2032,-2.1965,-2.1887,-2.1844,-2.1935,-2.1814,-2.1836,-2.1725,-2.1792,-2.1792,-2.1607,-2.159,-2.1645,-2.168,-2.1713,-2.1661,-2.1633,-2.1633,-2.1688,-2.1631,-2.1674,-2.1691,-2.1775,-2.1775,-2.1786,-2.1779,-2.1783,-2.1712,-2.1851,-2.1857,-2.1781,-2.1723,-2.1719,-2.1848,-2.1866,-2.1891,-2.1865,-2.1771,-2.1797,-2.1874,-2.1894,-2.1799,-2.1793,-2.1806,-2.1799,-2.187,-2.1918,-2.1854,-2.1759,-2.1744,-2.1816,-2.1897,-2.1881,-2.1878,-2.1821,-2.1811,-2.1797,-2.1867,-2.1895,-2.1975,-2.1974,-2.2054,-2.2064,-2.187,-2.1921,-2.1992,-2.2028,-2.1965,-2.1972,-2.1925,-2.1899,-2.2065,-2.2011,-2.1869,-2.1838,-2.1925,-2.1932,-2.1977,-2.1854,-2.1953,-2.2017,-2.2053,-2.1957,-2.1839,-2.1961,-2.2,-2.1981,-2.2014,-2.1985,-2.1844,-2.1598,-2.1542,-2.1567,-2.1574,-2.1533,-2.1347,-2.1275,-2.1079,-2.1025,-2.1223,-2.1386,-2.1471,-2.1406,-2.1452,-2.161,-2.1744,-2.2027,-2.1971,-2.1956,-2.1909,-2.1888,-2.1937,-2.1967,-2.1908,-2.184,-2.1791,-2.1783,-2.1846,-2.1934,-2.2011,-2.1942,-2.1549,-1.9873,-1.7891,-1.5914,-1.4868,-1.4272,-1.5983,-2.0149,-2.4844,-2.6393,-2.502,-2.416,-2.3473,-2.2691,-2.2102,-2.1935,-2.1679,-2.1701,-2.1574,-2.1551,-2.1522,-2.1627,-2.1546,-2.1502,-2.1423,-2.1427,-2.1335,-2.1337,-2.1215,-2.1173,-2.114,-2.113,-2.1174,-2.1228,-2.1158,-2.103,-2.0929,-2.0905,-2.0841,-2.0763,-2.0778,-2.0813,-2.073,-2.0654,-2.0571,-2.0496,-2.0341,-2.0366,-2.0086,-1.9986,-2.0056,-2.0069,-1.9943,-1.975,-1.9486,-1.9425,-1.9361,-1.9035,-1.8833,-1.8777,-1.8485,-1.8247,-1.812,-1.7788,-1.7718,-1.7612,-1.7406,-1.7278,-1.7128,-1.7086,-1.6886,-1.6728,-1.6695,-1.6719,-1.6625,-1.659,-1.6628,-1.6721,-1.6978,-1.7234,-1.7478,-1.7866,-1.8348,-1.8573,-1.8991,-1.928,-1.9666,-2.0126,-2.0347,-2.0688,-2.0817,-2.1,-2.1184,-2.1389,-2.1429,-2.1414,-2.1398,-2.1543,-2.1544,-2.1631,-2.1559,-2.1537,-2.1684,-2.167,-2.1572,-2.1427,-2.1569,-2.1516,-2.1571,-2.1545,-2.1586,-2.1437,-2.1436,-2.1421,-2.1391,-2.1372,-2.1325,-2.131,-2.1285,-2.1272,-2.1283,-2.1376,-2.139,-2.1449,-2.1448,-2.1343,-2.1417,-2.1456,-2.1436,-2.1483,-2.1625,-2.1669,-2.1634,-2.1645,-2.1784,-2.1676,-2.1676,-2.1531,-2.1724,-2.1868,-2.1807,-2.1771,-2.1822,-2.1867,-2.1882,-2.1917,-2.191,-2.1905,-2.1861,-2.1928,-2.1937,-2.1888,-2.1945,-2.1897,-2.2021,-2.207,-2.2101,-2.204,-2.21,-2.2102,-2.2097,-2.2051,-2.198,-2.1959,-2.2082,-2.2012,-2.2068,-2.2028,-2.2192,-2.2276,-2.2231,-2.2248,-2.2138,-2.2139,-2.2134,-2.2091,-2.2049,-2.2153,-2.2165,-2.2206,-2.2248,-2.2205,-2.2144,-2.2253,-2.2243,-2.2212,-2.2256,-2.2193,-2.2196,-2.2259,-2.2181,-2.2256,-2.2255,-2.2318,-2.2265,-2.2228,-2.2226,-2.2244,-2.2142,-2.196,-2.2059,-2.2118,-2.2036,-2.2113,-2.2019,-2.178,-2.1824,-2.1551,-2.1407,-2.1599,-2.1704,-2.1694,-2.1773,-2.1857,-2.1926,-2.2101,-2.2148,-2.2165,-2.2113,-2.2051,-2.2167,-2.2227,-2.2215,-2.2226,-2.2116,-2.2138,-2.2028,-2.2067,-2.1974,-2.2051,-2.2094,-2.1541,-1.988,-1.8115,-1.6489,-1.5099,-1.5906,-1.8934,-2.2945,-2.6207,-2.5235,-2.4271,-2.5171,-2.3558,-2.2793,-2.2432,-2.2132,-2.2002,-2.1733,-2.1701,-2.1716,-2.1854,-2.1721,-2.1582,-2.1577,-2.1627,-2.1407,-2.1503,-2.1414,-2.1433,-2.145,-2.132,-2.1266,-2.1356,-2.1215,-2.1252,-2.1321,-2.1296,-2.1231,-2.1191,-2.111,-2.1029,-2.1019,-2.0962,-2.0725,-2.0722,-2.0677,-2.0784,-2.0619,-2.0498,-2.0364,-2.0278,-2.0266,-2.0198,-2.0134,-1.9878,-1.9682,-1.9478,-1.9306,-1.9213,-1.9096,-1.8964,-1.8834,-1.858,-1.8259,-1.8146,-1.8016,-1.7851,-1.7713,-1.76,-1.7521,-1.7411,-1.7346,-1.7272,-1.7239,-1.7106,-1.7158,-1.725,-1.7367,-1.7494,-1.7698,-1.7986,-1.8345,-1.879,-1.9185,-1.9566,-1.9955,-2.0289,-2.0688,-2.0826,-2.1063,-2.1391,-2.1498,-2.162,-2.169,-2.1685,-2.166,-2.174,-2.1906,-2.1761,-2.176,-2.1837,-2.1704,-2.1731,-2.1722,-2.185,-2.1694,-2.1683,-2.1637,-2.1586,-2.1679,-2.1564,-2.1587,-2.1563,-2.1613,-2.149,-2.1464,-2.1538,-2.1631,-2.1557,-2.1534,-2.1583,-2.1463,-2.1518,-2.18,-2.1754,-2.174,-2.1636,-2.1797,-2.1811,-2.1865,-2.1756,-2.1778,-2.1948,-2.1834,-2.2037,-2.2021,-2.1966,-2.2043,-2.204,-2.2045,-2.2016,-2.2083,-2.2079,-2.2125,-2.2222,-2.215,-2.2144,-2.2034,-2.2075,-2.2163,-2.2128,-2.2098,-2.2085,-2.2155,-2.2158,-2.2175,-2.2191,-2.2211,-2.2209,-2.2219,-2.2237,-2.2226,-2.2067,-2.2221,-2.2224,-2.2319,-2.2256,-2.219,-2.218,-2.2346,-2.2202,-2.2154,-2.1985,-2.1835,-2.1963,-2.2036,-2.1916,-2.1758,-2.1767,-2.1537,-2.144,-2.1561,-2.1815,-2.1835,-2.1815,-2.2047,-2.2189,-2.2213,-2.242,-2.2465,-2.2443,-2.2485,-2.2442,-2.248,-2.2531,-2.2433,-2.2485,-2.2517,-2.2485,-2.2417,-2.2442,-2.2558,-2.2554,-2.253,-2.1732,-1.9836,-1.7969,-1.608,-1.4983,-1.6549,-1.8311,-2.2397,-2.6709,-2.6323,-2.5253,-2.4469,-2.399,-2.3332,-2.2749,-2.2446,-2.2257,-2.2209,-2.2147,-2.2132,-2.2097,-2.2165,-2.214,-2.1986,-2.2035,-2.2051,-2.2042,-2.1848,-2.1882,-2.1825,-2.1845,-2.1826,-2.1739,-2.1687,-2.1702,-2.157,-2.1642,-2.1689,-2.1625,-2.1509,-2.141,-2.1447,-2.1536,-2.1414,-2.1365,-2.1213,-2.1208,-2.1183,-2.1122,-2.0947,-2.0795,-2.0766,-2.0585,-2.0442,-2.0255,-2.0127,-1.9815,-1.976,-1.9664,-1.9318,-1.9126,-1.8919,-1.876,-1.8525,-1.822,-1.8053,-1.7974,-1.7879,-1.7753,-1.7666,-1.7472,-1.7461,-1.7351,-1.7424,-1.739,-1.7347,-1.7582,-1.7829,-1.8245,-1.8528,-1.8922,-1.9206,-1.9638,-2.0118,-2.0584,-2.0844,-2.1035,-2.1404,-2.1558,-2.182,-2.1954,-2.193,-2.2156,-2.2155,-2.2284,-2.2342,-2.2309,-2.2455,-2.2487,-2.2502,-2.2428,-2.2374,-2.2393,-2.24,-2.2503,-2.2296,-2.2281,-2.2329,-2.223,-2.2203,-2.2182,-2.2177,-2.2163,-2.2024,-2.1989,-2.2251,-2.2142,-2.2024,-2.2063,-2.2141,-2.2148,-2.2079,-2.2013,-2.204,-2.2085,-2.2088,-2.205,-2.2061,-2.203,-2.2041,-2.2079,-2.2082,-2.2003,-2.2035,-2.2133,-2.2185,-2.2169,-2.2166,-2.2142,-2.2121,-2.2176,-2.2247,-2.2152,-2.2214,-2.2197,-2.2236,-2.2211,-2.217,-2.2115,-2.22,-2.2325,-2.2258,-2.2165,-2.2258,-2.2264,-2.2382,-2.228,-2.2303,-2.2115,-2.2278,-2.2401,-2.2246,-2.233,-2.2372,-2.2415,-2.2425,-2.2435,-2.2371,-2.2259,-2.2278,-2.2308,-2.238,-2.2324,-2.2307,-2.236,-2.2439,-2.2268,-2.2251,-2.2395,-2.2426,-2.2396,-2.2325,-2.2346,-2.2304,-2.2312,-2.2256,-2.2335,-2.2461,-2.2368,-2.2049,-2.2047,-2.2077,-2.2115,-2.2078,-2.1905,-2.1811,-2.1556,-2.1374,-2.1525,-2.1827,-2.186,-2.1906,-2.2012,-2.1991,-2.2051,-2.2045,-2.2234,-2.2392,-2.23,-2.226,-2.233,-2.2435,-2.2321,-2.2327,-2.2192,-2.2158,-2.2313,-2.2435,-2.2311,-2.2436,-2.235,-2.1608,-1.9891,-1.7879,-1.5905,-1.4789,-1.4667,-1.6819,-2.1219,-2.5807,-2.64,-2.5105,-2.4407,-2.3429,-2.2649,-2.2215,-2.2324,-2.2017,-2.2005,-2.186,-2.1923,-2.1812,-2.187,-2.1743,-2.174,-2.1715,-2.1735,-2.1662,-2.1699,-2.1549,-2.1454,-2.1429,-2.1528,-2.1482,-2.146,-2.1283,-2.1413,-2.1428,-2.1464,-2.1268,-2.1257,-2.1248,-2.1171,-2.1179,-2.1039,-2.0982,-2.0955,-2.0929,-2.0846,-2.0737,-2.0723,-2.0647,-2.0594,-2.0499,-2.0359,-2.0082,-1.9755,-1.9718,-1.963,-1.9401,-1.9282,-1.8996,-1.884,-1.8638,-1.8349,-1.8157,-1.7883,-1.7931,-1.7808,-1.751,-1.7534,-1.745,-1.7312,-1.7293,-1.7121,-1.698,-1.7189,-1.7203,-1.7402,-1.7577,-1.7887,-1.8235,-1.8605,-1.9206,-1.9454,-1.9932,-2.033,-2.0565,-2.0872,-2.1192,-2.1446,-2.1644,-2.1796,-2.1868,-2.2118,-2.2181,-2.2212,-2.2103,-2.2136,-2.2234,-2.2249,-2.2243,-2.2298,-2.2267,-2.2234,-2.2241,-2.2239,-2.2235,-2.2209,-2.2226,-2.2171,-2.2135,-2.2233,-2.212,-2.2113,-2.211,-2.2139,-2.213,-2.199,-2.204,-2.2032,-2.2059,-2.1944,-2.2037,-2.207,-2.214,-2.2032,-2.1996,-2.1927,-2.2057,-2.2015,-2.214,-2.2074,-2.22,-2.217,-2.2124,-2.205,-2.2065,-2.2125,-2.2132,-2.2221,-2.2216,-2.2116,-2.2179,-2.22,-2.2166,-2.2151,-2.2205,-2.223,-2.2184,-2.2243,-2.2223,-2.215,-2.2092,-2.2174,-2.2238,-2.2096,-2.2073,-2.2143,-2.2175,-2.2169,-2.2168,-2.2123,-2.2068,-2.2118,-2.2229,-2.2198,-2.21,-2.2185,-2.2179,-2.2189,-2.2184,-2.2035,-2.2103,-2.2147,-2.2232,-2.2253,-2.2143,-2.2213,-2.2259,-2.2293,-2.2205,-2.2168,-2.2148,-2.2225,-2.2214,-2.2239,-2.2137,-2.2083,-2.2145,-2.2191,-2.2262,-2.2234,-2.2286,-2.2211,-2.2232,-2.2178,-2.222,-2.2262,-2.2043,-2.1925,-2.2006,-2.1991,-2.199,-2.1975,-2.1967,-2.1834,-2.1557,-2.1353,-2.1448,-2.1619,-2.173,-2.1833,-2.1838,-2.1965,-2.2045,-2.2082,-2.2261,-2.2252,-2.2253,-2.2325,-2.232,-2.2362,-2.2282,-2.222,-2.2246,-2.2179,-2.2148,-2.2185,-2.2162,-2.2178,-2.2155,-2.158,-1.985,-1.7839,-1.5919,-1.4571,-1.5705,-1.9143,-2.3688,-2.693,-2.562,-2.4502,-2.4305,-2.35,-2.2781,-2.2532,-2.2369,-2.1985,-2.193,-2.1895,-2.1914,-2.2026,-2.1981,-2.1924,-2.1806,-2.1809,-2.1846,-2.1748,-2.1758,-2.1603,-2.1644,-2.1533,-2.1581,-2.1526,-2.1412,-2.1417,-2.1441,-2.1333,-2.1265,-2.1285,-2.1206,-2.1057,-2.1182,-2.111,-2.0909,-2.074,-2.0874,-2.0843,-2.0669,-2.0616,-2.0469,-2.0407,-2.037,-2.0151,-2.0026,-1.9834,-1.9673,-1.9589,-1.9386,-1.9213,-1.8949,-1.8767,-1.8658,-1.8362,-1.8156,-1.7936,-1.7804,-1.7704,-1.7545,-1.7388,-1.7225,-1.7093,-1.7032,-1.6915,-1.6846,-1.6738,-1.6846,-1.7006,-1.7093,-1.7319,-1.7586,-1.7912,-1.8361,-1.8939,-1.9336,-1.96,-1.9978,-2.0348,-2.0676,-2.1039,-2.1182,-2.1465,-2.1623,-2.1686,-2.1679,-2.1668,-2.1744,-2.1803,-2.1893,-2.1915,-2.1839,-2.1746,-2.2005,-2.1989,-2.1913,-2.1845,-2.1798,-2.1908,-2.1876,-2.186,-2.1922,-2.1848,-2.1828,-2.1771,-2.1781,-2.1834,-2.1753,-2.1792,-2.1773,-2.1754,-2.1677,-2.1614,-2.1567,-2.1662,-2.1714,-2.1782,-2.1757,-2.1755,-2.1841,-2.1924,-2.1739,-2.185,-2.1858,-2.1945,-2.1809,-2.1926,-2.1969,-2.2032,-2.2074,-2.2163,-2.2032,-2.1989,-2.2017,-2.1921,-2.1915,-2.2109,-2.2092,-2.2093,-2.2131,-2.2309,-2.2211,-2.2184,-2.225,-2.2096,-2.2211,-2.2216,-2.2296,-2.2244,-2.2276,-2.2335,-2.23,-2.2347,-2.2305,-2.2281,-2.2372,-2.2282,-2.225,-2.2325,-2.2315,-2.2325,-2.2383,-2.2286,-2.2296,-2.2271,-2.2439,-2.231,-2.2247,-2.2367,-2.2338,-2.2367,-2.2513,-2.242,-2.2335,-2.2362,-2.2324,-2.2423,-2.2538,-2.2336,-2.245,-2.2482,-2.2497,-2.2445,-2.2446,-2.2442,-2.2579,-2.2458,-2.2521,-2.253,-2.2568,-2.2569,-2.258,-2.247,-2.2487,-2.2582,-2.2296,-2.243,-2.2443,-2.232,-2.2257,-2.2381,-2.2228,-2.215,-2.2007,-2.1814,-2.1813,-2.2029,-2.219,-2.2158,-2.2183,-2.2356,-2.2364,-2.2477,-2.2657,-2.2634,-2.256,-2.2498,-2.2631,-2.2702,-2.2711,-2.2565,-2.2502,-2.2499,-2.2637,-2.2573,-2.2671,-2.2646,-2.2627,-2.2161,-2.0466,-1.8696,-1.7083,-1.5728,-1.6446,-1.9453,-2.3389,-2.6872,-2.5922,-2.4723,-2.4296,-2.3717,-2.3139,-2.2799,-2.2785,-2.2477,-2.2384,-2.2246,-2.2348,-2.226,-2.2225,-2.2037,-2.2132,-2.2137,-2.211,-2.2065,-2.2042,-2.1856,-2.1859,-2.1873,-2.1877,-2.171,-2.1835,-2.1757,-2.1785,-2.1695,-2.1577,-2.1663,-2.1557,-2.1495,-2.1385,-2.1422,-2.1341,-2.1128,-2.1247,-2.1112,-2.1041,-2.0985,-2.0926,-2.0784,-2.0621,-2.045,-2.0364,-2.0264,-2.0274,-2.0075,-1.9914,-1.9674,-1.9531,-1.9375,-1.9215,-1.8912,-1.868,-1.8607,-1.8593,-1.8295,-1.8216,-1.8083,-1.789,-1.7838,-1.7833,-1.7713,-1.7635,-1.7566,-1.7571,-1.7718,-1.7754,-1.7899,-1.8038,-1.8389,-1.8886,-1.9241,-1.9571,-2.001,-2.0272,-2.0722,-2.0907,-2.1188,-2.1546,-2.1827,-2.1922,-2.2121,-2.2061,-2.1981,-2.1897,-2.2049,-2.2268,-2.2235,-2.2234,-2.2209,-2.2108,-2.2086,-2.2177,-2.2154,-2.2011,-2.2039,-2.2036,-2.1923,-2.1818,-2.1933,-2.1912,-2.1939,-2.1793,-2.1808,-2.1656,-2.1727,-2.1721,-2.1818,-2.1825,-2.1841,-2.182,-2.1903,-2.1919,-2.2068,-2.2061,-2.2007,-2.1994,-2.1957,-2.2028,-2.2067,-2.2166,-2.2182,-2.2146,-2.2099,-2.2111,-2.2185,-2.2209,-2.2315,-2.224,-2.2271,-2.2253,-2.2201,-2.2334,-2.2257,-2.2227,-2.2217,-2.2166,-2.2378,-2.225,-2.2344,-2.2476,-2.2379,-2.2334,-2.2369,-2.2386,-2.2334,-2.2287,-2.2566,-2.2571,-2.2549,-2.2459,-2.2505,-2.2552,-2.2523,-2.2531,-2.2485,-2.2438,-2.2602,-2.2567,-2.2428,-2.2617,-2.2542,-2.2551,-2.2474,-2.2426,-2.2273,-2.2426,-2.2511,-2.2254,-2.2146,-2.2211,-2.1876,-2.1929,-2.1855,-2.2248,-2.2182,-2.2229,-2.2305,-2.242,-2.2484,-2.2683,-2.2706,-2.2689,-2.2663,-2.2697,-2.2642,-2.2531,-2.2718,-2.269,-2.2635,-2.2474,-2.2529,-2.2574,-2.2672,-2.2835,-2.2668,-2.1995,-2.0334,-1.8589,-1.6905,-1.5518,-1.6237,-1.7581,-2.178,-2.6362,-2.67,-2.552,-2.4805,-2.4152,-2.3625,-2.3058,-2.2718,-2.252,-2.24,-2.2449,-2.2381,-2.2403,-2.2366,-2.2301,-2.2272,-2.2401,-2.2195,-2.2181,-2.2136,-2.2209,-2.2185,-2.1978,-2.1945,-2.2072,-2.1964,-2.1861,-2.1715,-2.164,-2.1715,-2.1767,-2.1606,-2.1506,-2.1512,-2.148,-2.1505,-2.1403,-2.1285,-2.1197,-2.1165,-2.1148,-2.0911,-2.0883,-2.0751,-2.0633,-2.0412,-2.0394,-2.0214,-1.9896,-1.9756,-1.9622,-1.9303,-1.9111,-1.8918,-1.8802,-1.8673,-1.838,-1.8255,-1.8069,-1.7894,-1.7854,-1.7773,-1.7587,-1.742,-1.7333,-1.7256,-1.7245,-1.7235,-1.7303,-1.7508,-1.7894,-1.8257,-1.8747,-1.9073,-1.9595,-1.9946,-2.0339,-2.0645,-2.0845,-2.1177,-2.1358,-2.1695,-2.1866,-2.194,-2.1931,-2.2185,-2.2172,-2.2294,-2.2191,-2.2251,-2.229,-2.2426,-2.2493,-2.2454,-2.2312,-2.2385,-2.2377,-2.2294,-2.215,-2.2132,-2.2069,-2.2118,-2.2185,-2.2103,-2.1999,-2.188,-2.1783,-2.1887,-2.1889,-2.194,-2.1906,-2.1883,-2.1817,-2.191,-2.1886,-2.1864,-2.1789,-2.1829,-2.189,-2.1866,-2.1732,-2.1859,-2.1858,-2.1914,-2.1835,-2.1824,-2.1884,-2.1971,-2.1866,-2.1811,-2.1951,-2.1866,-2.1983,-2.1983,-2.1958,-2.189,-2.1997,-2.1949,-2.186,-2.1922,-2.1895,-2.1906,-2.1827,-2.1778,-2.1894,-2.1736,-2.1654,-2.191,-2.1873,-2.1863,-2.1837,-2.1859,-2.1834,-2.1802,-2.1752,-2.1671,-2.1781,-2.1782,-2.1863,-2.1742,-2.178,-2.1714,-2.1802,-2.1706,-2.1843,-2.1854,-2.1759,-2.1751,-2.1884,-2.1843,-2.1806,-2.1734,-2.1762,-2.1911,-2.1888,-2.1866,-2.1831,-2.1826,-2.1834,-2.1906,-2.1894,-2.1909,-2.1824,-2.18,-2.1821,-2.1629,-2.1571,-2.1618,-2.1601,-2.1545,-2.1642,-2.1397,-2.1296,-2.1243,-2.1099,-2.1083,-2.1116,-2.1304,-2.1422,-2.1491,-2.1629,-2.1549,-2.1632,-2.1767,-2.1858,-2.1811,-2.1745,-2.1753,-2.1848,-2.1926,-2.1814,-2.1704,-2.1649,-2.178,-2.1915,-2.186,-2.1863,-2.1877,-2.1607,-2.0232,-1.8395,-1.6405,-1.4441,-1.4218,-1.6421,-2.0892,-2.5379,-2.5949,-2.4808,-2.3991,-2.3147,-2.2502,-2.2045,-2.1844,-2.1645,-2.1556,-2.1468,-2.1571,-2.1479,-2.165,-2.1464,-2.1459,-2.1277,-2.1241,-2.1221,-2.1385,-2.1286,-2.1211,-2.1174,-2.1012,-2.1145,-2.1057,-2.1014,-2.0917,-2.0883,-2.0975,-2.0947,-2.0768,-2.0807,-2.0754,-2.0774,-2.0691,-2.0581,-2.0548,-2.04,-2.0424,-2.0366,-2.0194,-1.999,-2.0114,-1.9881,-1.9741,-1.9671,-1.9534,-1.9343,-1.9123,-1.9064,-1.8883,-1.8563,-1.8313,-1.8152,-1.7985,-1.7743,-1.7372,-1.7398,-1.7345,-1.7155,-1.6899,-1.6724,-1.6692,-1.6724,-1.6567,-1.6539,-1.6572,-1.6593,-1.6804,-1.6883,-1.7163,-1.7373,-1.7792,-1.8291,-1.8727,-1.9182,-1.9542,-1.9977,-2.0134,-2.0532,-2.0936,-2.1042,-2.1098,-2.1304,-2.1423,-2.1509,-2.1504,-2.1517,-2.1456,-2.1509,-2.1666,-2.1704,-2.1621,-2.1571,-2.1666,-2.1626,-2.1575,-2.1506,-2.1468,-2.1445,-2.1479,-2.1437,-2.1532,-2.1516,-2.1398,-2.1358,-2.1396,-2.1504,-2.1468,-2.1473,-2.1491,-2.1362,-2.132,-2.1386,-2.1463,-2.1348,-2.1289,-2.1392,-2.1358,-2.1282,-2.142,-2.1477,-2.1373,-2.1408,-2.1262,-2.144,-2.1529,-2.151,-2.1471,-2.1449,-2.1467,-2.1531,-2.1539,-2.1376,-2.1434,-2.1429,-2.159,-2.1515,-2.1328,-2.1436,-2.1514,-2.1584,-2.1537,-2.141,-2.14,-2.1494,-2.1557,-2.1405,-2.1461,-2.1572,-2.1526,-2.1457,-2.1445,-2.1452,-2.1531,-2.1456,-2.153,-2.1599,-2.1509,-2.1494,-2.1507,-2.1497,-2.1505,-2.1573,-2.151,-2.1392,-2.1597,-2.1657,-2.155,-2.1616,-2.1558,-2.1406,-2.139,-2.1549,-2.1457,-2.143,-2.1383,-2.1472,-2.1512,-2.1452,-2.1374,-2.1349,-2.1467,-2.1464,-2.1454,-2.1549,-2.1463,-2.1409,-2.1437,-2.1489,-2.1484,-2.1509,-2.1485,-2.1443,-2.1458,-2.1493,-2.1393,-2.1426,-2.1474,-2.1426,-2.1423,-2.1453,-2.1504,-2.1316,-2.1354,-2.1329,-2.1283,-2.1286,-2.1214,-2.1227,-2.1164,-2.1202,-2.1098,-2.0955,-2.0942,-2.0781,-2.0689,-2.0769,-2.1002,-2.1015,-2.1078,-2.1173,-2.1273,-2.1383,-2.1375,-2.1347,-2.1399,-2.1423,-2.1403,-2.1467,-2.1374,-2.1267,-2.134,-2.1393,-2.1357,-2.1286,-2.1272,-2.1522,-2.1587,-2.1425,-2.0122,-1.8311,-1.6388,-1.4442,-1.4202,-1.5881,-1.9946,-2.4602,-2.5996,-2.5119,-2.3861,-2.3214,-2.2379,-2.1882,-2.1663,-2.13,-2.119,-2.1187,-2.1299,-2.1263,-2.1131,-2.1015,-2.105,-2.1057,-2.1128,-2.1073,-2.0975,-2.0922,-2.0953,-2.0745,-2.0824,-2.0797,-2.0768,-2.0742,-2.0736,-2.0709,-2.0641,-2.0629,-2.0679,-2.0608,-2.0505,-2.045,-2.0421,-2.0341,-2.0297,-2.0289,-2.019,-2.007,-2.007,-2.0011,-1.9882,-1.968,-1.9486,-1.9437,-1.9297,-1.9128,-1.8983,-1.8731,-1.8618,-1.8459,-1.8238,-1.7859,-1.7737,-1.7513,-1.7343,-1.7076,-1.6789,-1.6762,-1.6734,-1.6663,-1.652,-1.6452,-1.6285,-1.6309,-1.6306,-1.6331,-1.6353,-1.6434,-1.6718,-1.7009,-1.7423,-1.778,-1.8189,-1.861,-1.9068,-1.9411,-1.9684,-1.9824,-2.0131,-2.0516,-2.0737,-2.0739,-2.0886,-2.1088,-2.122,-2.13,-2.1364,-2.1306,-2.1315,-2.1415,-2.1423,-2.1456,-2.138,-2.144,-2.149,-2.1453,-2.1306,-2.1288,-2.1329,-2.1339,-2.1315,-2.1403,-2.1326,-2.131,-2.1338,-2.1346,-2.1238,-2.1274,-2.1332,-2.1338,-2.1338,-2.1407,-2.1362,-2.1274,-2.1161,-2.1329,-2.1335,-2.1344,-2.1475,-2.139,-2.1477,-2.1422,-2.1382,-2.1564,-2.1537,-2.1501,-2.1637,-2.1675,-2.1652,-2.1597,-2.1566,-2.1647,-2.1696,-2.1738,-2.1743,-2.1738,-2.1739,-2.1741,-2.1728,-2.1631,-2.1683,-2.1689,-2.1869,-2.1756,-2.1637,-2.1749,-2.1835,-2.185,-2.186,-2.1857,-2.1968,-2.204,-2.1946,-2.1943,-2.1944,-2.1974,-2.1909,-2.1889,-2.1891,-2.1904,-2.1888,-2.202,-2.1969,-2.1921,-2.1958,-2.2062,-2.2045,-2.2018,-2.2013,-2.2056,-2.2043,-2.2018,-2.1948,-2.2074,-2.2094,-2.2119,-2.2043,-2.2057,-2.2205,-2.2092,-2.2071,-2.207,-2.2159,-2.2226,-2.2192,-2.2169,-2.2082,-2.212,-2.2256,-2.2166,-2.2042,-2.2064,-2.2044,-2.2156,-2.216,-2.2123,-2.2077,-2.1983,-2.1964,-2.1987,-2.1886,-2.176,-2.1501,-2.1534,-2.1386,-2.1232,-2.138,-2.1507,-2.1577,-2.1671,-2.1657,-2.1835,-2.1994,-2.183,-2.1949,-2.206,-2.1999,-2.1849,-2.2034,-2.2084,-2.2111,-2.2083,-2.2047,-2.2125,-2.2127,-2.1995,-2.2024,-2.2102,-2.1996,-2.0954,-1.9211,-1.7475,-1.5745,-1.5275,-1.7037,-2.0778,-2.2737,-2.6001,-2.5422,-2.4052,-2.4113,-2.3344,-2.2883,-2.2237,-2.2352,-2.1866,-2.2014,-2.1801,-2.1903,-2.1823,-2.1977,-2.1779,-2.1866,-2.1683,-2.1733,-2.157,-2.1699,-2.1446,-2.1679,-2.1523,-2.1597,-2.1481,-2.1362,-2.1248,-2.1393,-2.1404,-2.1353,-2.114,-2.123,-2.1101,-2.1189,-2.1123,-2.1041,-2.0869,-2.0901,-2.0797,-2.0815,-2.0623,-2.0574,-2.0439,-2.0391,-2.0189,-2.0146,-1.994,-1.9762,-1.9697,-1.937,-1.9243,-1.9013,-1.9004,-1.8794,-1.8597,-1.8288,-1.8117,-1.8104,-1.791,-1.7783,-1.773,-1.7467,-1.7438,-1.7392,-1.7388,-1.7176,-1.715,-1.7209,-1.7388,-1.7283,-1.7547,-1.7812,-1.8053,-1.8501,-1.9088,-1.9403,-1.9611,-1.9862,-2.0482,-2.0636,-2.0936,-2.1074,-2.1275,-2.144,-2.1768,-2.1741,-2.1718,-2.1801,-2.1847,-2.1842,-2.1855,-2.183,-2.1899,-2.179,-2.194,-2.1998,-2.1788,-2.1727,-2.1736,-2.179,-2.1832,-2.1624,-2.1583,-2.1628,-2.1536,-2.1523,-2.177,-2.1584,-2.1628,-2.151,-2.1644,-2.1615,-2.1645,-2.1617,-2.159,-2.1652,-2.1694,-2.168,-2.1765,-2.179,-2.1856,-2.187,-2.1898,-2.1811,-2.1849,-2.1928,-2.205,-2.1995,-2.191,-2.1986,-2.2185,-2.2204,-2.1964,-2.2036,-2.2097,-2.2082,-2.2078,-2.2073,-2.2053,-2.2096,-2.2076,-2.2097,-2.214,-2.2098,-2.2126,-2.2095,-2.2152,-2.2171,-2.2056,-2.2095,-2.2123,-2.2275,-2.2186,-2.221,-2.2247,-2.2293,-2.2225,-2.2155,-2.2084,-2.2233,-2.2317,-2.2413,-2.2331,-2.2246,-2.2099,-2.2076,-2.2085,-2.2031,-2.2101,-2.1877,-2.1776,-2.1802,-2.167,-2.1545,-2.1727,-2.1946,-2.1971,-2.2035,-2.2007,-2.2101,-2.2146,-2.2368,-2.2396,-2.2499,-2.2451,-2.2506,-2.2436,-2.2482,-2.2529,-2.2359,-2.2379,-2.2401,-2.2581,-2.247,-2.2487,-2.2572,-2.2345,-2.1019,-1.9982,-1.8192,-1.6393,-1.5013,-1.5905,-1.953,-2.353,-2.695,-2.5877,-2.4902,-2.4336,-2.3506,-2.2865,-2.253,-2.2585,-2.2199,-2.2192,-2.2216,-2.2183,-2.2177,-2.2137,-2.2086,-2.1979,-2.1984,-2.1997,-2.2001,-2.1955,-2.1966,-2.189,-2.1764,-2.1581,-2.1599,-2.1618,-2.1497,-2.1504,-2.1619,-2.1532,-2.1325,-2.1399,-2.1414,-2.1463,-2.1451,-2.1238,-2.1214,-2.1217,-2.116,-2.0918,-2.0858,-2.0972,-2.0827,-2.0682,-2.0395,-2.0251,-1.992,-1.9753,-1.9721,-1.9403,-1.892,-1.8916,-1.8933,-1.8675,-1.8507,-1.8231,-1.7914,-1.7709,-1.7543,-1.7403,-1.7276,-1.7098,-1.6912,-1.6931,-1.6869,-1.6694,-1.6648,-1.684,-1.7041,-1.7395,-1.7798,-1.8067,-1.8294,-1.8891,-1.9347,-1.9779,-2.0147,-2.0361,-2.0834,-2.1135,-2.1385,-2.1409,-2.171,-2.181,-2.1785,-2.1944,-2.2062,-2.2011,-2.2023,-2.2253,-2.2073,-2.2127,-2.2151,-2.2105,-2.2196,-2.2123,-2.2023,-2.1982,-2.2016,-2.1999,-2.1952,-2.1958,-2.1758,-2.182,-2.1828,-2.1944,-2.172,-2.1728,-2.1631,-2.1725,-2.1728,-2.154,-2.1737,-2.1654,-2.1686,-2.1581,-2.161,-2.1535,-2.1569,-2.1683,-2.1632,-2.1407,-2.1601,-2.1686,-2.168,-2.1644,-2.1664,-2.1487,-2.1347,-2.1507,-2.152,-2.1392,-2.142,-2.1454,-2.147,-2.1394,-2.1378,-2.1377,-2.1348,-2.1438,-2.1393,-2.1233,-2.1381,-2.1345,-2.1445,-2.1469,-2.1301,-2.1386,-2.1488,-2.1427,-2.1478,-2.1428,-2.1415,-2.1445,-2.1401,-2.1409,-2.1633,-2.1482,-2.1485,-2.1534,-2.1482,-2.1458,-2.1419,-2.1112,-2.1235,-2.1257,-2.1191,-2.1048,-2.0922,-2.0857,-2.0664,-2.0759,-2.0836,-2.1002,-2.0949,-2.1151,-2.1247,-2.1244,-2.1249,-2.1482,-2.1477,-2.1425,-2.1288,-2.1437,-2.1421,-2.1494,-2.1479,-2.1489,-2.1398,-2.1413,-2.1455,-2.1511,-2.1592,-2.1686,-2.1597,-2.059,-1.8926,-1.6869,-1.4753,-1.3694,-1.531,-1.9284,-2.3957,-2.6312,-2.5002,-2.3756,-2.3154,-2.2291,-2.1799,-2.1448,-2.1225,-2.1181,-2.1074,-2.0956,-2.1233,-2.097,-2.1154,-2.115,-2.0937,-2.1007,-2.0832,-2.0805,-2.0834,-2.0899,-2.0741,-2.0592,-2.0741,-2.0686,-2.0713,-2.0912,-2.083,-2.0839,-2.094,-2.0914,-2.0664,-2.0791,-2.0916,-2.0953,-2.072,-2.0639,-2.0824,-2.0811,-2.075,-2.0626,-2.0403,-2.045,-2.0317,-2.0105,-2.0099,-1.9693,-1.9495,-1.946,-1.9371,-1.9259,-1.8886,-1.859,-1.8275,-1.8261,-1.8141,-1.7948,-1.7483,-1.727,-1.7131,-1.7166,-1.6886,-1.6802,-1.6524,-1.6572,-1.6517,-1.6587,-1.6635,-1.6661,-1.7021,-1.7511,-1.7823,-1.809,-1.844,-1.8761,-1.9265,-1.9388,-1.9788,-2.0308,-2.0577,-2.0867,-2.0951,-2.1129,-2.119,-2.1321,-2.1419,-2.1467,-2.1543,-2.1456,-2.1528,-2.1344,-2.1266,-2.1354,-2.1313,-2.1292,-2.1251,-2.1045,-2.1084,-2.1034,-2.1126,-2.1058,-2.0993,-2.0842,-2.0838,-2.1016,-2.0922,-2.0942,-2.1106,-2.1003,-2.082,-2.0961,-2.1143,-2.0975,-2.0897,-2.0863,-2.0933,-2.0939,-2.099,-2.1101,-2.1263,-2.11,-2.1138,-2.1038,-2.0977,-2.0877,-2.0922,-2.09,-2.0927,-2.0783,-2.0948,-2.0744,-2.0836,-2.081,-2.0495,-2.0396,-2.0789,-2.0677,-2.083,-2.0894,-2.0443,-2.0425,-2.0515,-2.031,-2.0097,-2.0241,-2.0394,-2.0263,-2.0143,-1.9969,-1.9765,-1.9661,-1.9516,-1.9668,-1.9716,-1.9418,-1.9545,-1.9705,-1.9782,-1.9981,-1.9889,-2.0112,-2.0329,-2.0355,-2.0232,-2.0124,-2.0222,-2.0251,-2.0316,-2.0414,-2.0268,-2.0305,-2.0258,-2.0033,-2.0093,-2.0475,-2.0564,-2.0691,-2.0795,-2.0806,-2.1088,-2.1214,-2.1096,-2.0901,-2.0958,-2.1091,-2.1083,-2.1061,-2.091,-2.0825,-2.083,-2.0959,-2.087,-2.0975,-2.0986,-2.1018,-2.1186,-2.0758,-1.9841,-1.8267,-1.7236,-1.5308,-1.3724,-1.6468,-2.0881,-2.5747,-2.6313,-2.4541,-2.4075,-2.3509,-2.2411,-2.1361,-2.1207,-2.1184,-2.1528,-2.1889,-2.1689,-2.1048,-2.0553,-2.0678,-2.0997,-2.1161,-2.0964,-2.0991,-2.1079,-2.1244,-2.1151,-2.1112,-2.1225,-2.1199,-2.1125,-2.1103,-2.1262,-2.1156,-2.1017,-2.1001,-2.0922,-2.0858,-2.0729,-2.075,-2.0912,-2.0916,-2.0852,-2.0385,-2.0208,-2.0315,-2.0293,-2.0088,-2.0029,-1.9737,-1.9614,-1.9289,-1.8971,-1.8784,-1.8828,-1.8575,-1.8202,-1.8025,-1.7861,-1.7505,-1.7345,-1.7201,-1.7025,-1.6698,-1.6556,-1.6292,-1.6264,-1.6034,-1.5595,-1.5493,-1.5425,-1.5451,-1.5846,-1.5954,-1.6158,-1.6913,-1.7202,-1.7803,-1.823,-1.8854,-1.9225,-1.9877,-2.0453,-2.0949,-2.154,-2.1766,-2.1995,-2.2227,-2.2258,-2.2179,-2.2216,-2.2909,-2.2757,-2.3018,-2.3216,-2.3257,-2.2694,-2.3261,-2.3699,-2.3543,-2.3599,-2.3721,-2.3662,-2.368,-2.387,-2.3806,-2.3848,-2.3918,-2.4153,-2.3789,-2.3451,-2.3758,-2.3971,-2.3977,-2.3965,-2.3587,-2.4166,-2.4137,-2.4056,-2.3568,-2.3416,-2.3822,-2.3434,-2.3365,-2.3611,-2.3575,-2.3736,-2.3809,-2.3562,-2.3074,-2.29,-2.3158,-2.3291,-2.2929,-2.3475,-2.3349,-2.3005,-2.3308,-2.298,-2.3146,-2.2867,-2.2656,-2.2236,-2.2345,-2.3496,-2.3132,-2.2566,-2.2411,-2.2657,-2.287,-2.2593,-2.248,-2.2491,-2.2546,-2.2634,-2.2733,-2.233,-2.2361,-2.2463,-2.2747,-2.233,-2.2299,-2.2781,-2.2425,-2.2108,-2.1833,-2.2143,-2.2131,-2.2012,-2.2116,-2.1986,-2.1735,-2.1771,-2.1942,-2.2234,-2.2495,-2.2575,-2.271,-2.2661,-2.2703,-2.3096,-2.3067,-2.2579,-2.2435,-2.3069,-2.2785,-2.3005,-2.32,-2.3802,-2.3866,-2.3872,-2.3558,-2.3388,-2.3535,-2.3685,-2.296,-2.0756,-1.9548,-1.8081,-1.6553,-1.7682,-2.17,-2.5594,-2.8654,-2.7608,-2.5759,-2.4776,-2.4469,-2.3846,-2.3337,-2.3512,-2.2899,-2.2662,-2.2458,-2.2646,-2.2486,-2.2358,-2.1843,-2.2415,-2.2334,-2.1981,-2.2009,-2.2011,-2.196,-2.1747,-2.1622,-2.1245,-2.1169,-2.1216,-2.1333,-2.1677,-2.1415,-2.1271,-2.1254,-2.1339,-2.0815,-2.0701,-2.0559,-2.0729,-2.0868,-2.0816,-2.0485,-2.0319,-2.0335,-2.0334,-2.024,-1.9759,-1.978,-1.9665,-1.9649,-1.9578,-1.9315,-1.8864,-1.8731,-1.8685,-1.8805,-1.8537,-1.8238,-1.7834,-1.7729,-1.7919,-1.7788,-1.7392,-1.7313,-1.728,-1.7371,-1.7231,-1.7195,-1.6993,-1.6893,-1.688,-1.7189,-1.7478,-1.798,-1.8113,-1.8719,-1.9139,-1.9464,-1.9741,-2.0209,-2.0439,-2.0811,-2.0932,-2.1358,-2.1507,-2.1685,-2.1787,-2.1754,-2.159,-2.1492,-2.1703,-2.1622,-2.1575,-2.1637,-2.1798,-2.1804,-2.1717,-2.1565,-2.16,-2.1489,-2.1549,-2.1518,-2.1478,-2.132,-2.116,-2.1117,-2.1059,-2.1225,-2.1136,-2.1145,-2.1051,-2.1072,-2.0779,-2.0958,-2.1275,-2.1225,-2.1251,-2.1184,-2.1138,-2.1424,-2.134,-2.0997,-2.091,-2.0806,-2.1113,-2.1097,-2.1096,-2.1161,-2.128,-2.1117,-2.1133,-2.0991,-2.0702,-2.0639,-2.0865,-2.0934,-2.0688,-2.0897,-2.0926,-2.047,-2.0274,-2.0323,-2.0655,-2.05,-2.0655,-2.096,-2.105,-2.1247,-2.1263,-2.1438,-2.1527,-2.1728,-2.1761,-2.1529,-2.1643,-2.1614,-2.1758,-2.1895,-2.1844,-2.1483,-2.1567,-2.1791,-2.1755,-2.1672,-2.1762,-2.1923,-2.1745,-2.0854,-1.9487,-1.7695,-1.5975,-1.4836,-1.6426,-2.0276,-2.4226,-2.7161,-2.6036,-2.4689,-2.3779,-2.2895,-2.2526,-2.2261,-2.2118,-2.1856,-2.1809,-2.1874,-2.2139,-2.202,-2.2194,-2.1716,-2.1875,-2.2032,-2.2123,-2.1473,-2.1902,-2.2151,-2.2155,-2.1983,-2.2172,-2.2221,-2.2097,-2.2141,-2.228,-2.2174,-2.1989,-2.1739,-2.1843,-2.231,-2.21,-2.209,-2.2461,-2.2215,-2.2014,-2.2067,-2.219,-2.2017,-2.1719,-2.1936,-2.1634,-2.1796,-2.1263,-2.1222,-2.1188,-2.0985,-2.1069,-2.1108,-2.107,-2.06,-2.0474,-2.0926,-2.0698,-2.0594,-2.0426,-2.0916,-2.1343,-2.1159,-2.0617,-2.0717,-2.0669,-2.0736,-2.0662,-2.047,-2.0704,-2.1056,-2.1379,-2.1481,-2.1695,-2.2011,-2.2272,-2.2976,-2.3809,-2.3514,-2.4071,-2.5022,-2.5577,-2.5671,-2.5335,-2.5602,-2.5183,-2.4943,-2.471,-2.4549,-2.4446,-2.4577,-2.463,-2.4421,-2.4103,-2.4243,-2.393,-2.4024,-2.4007,-2.3937,-2.3484,-2.2939,-2.2953,-2.2442,-2.2621,-2.2503,-2.2262,-2.2066,-2.2007,-2.196,-2.1607,-2.1275,-2.1504,-2.1484,-2.1988,-2.1964,-2.1619,-2.1452,-2.1524,-2.1285,-2.1343,-2.1096,-2.0907,-2.1109,-2.1166,-2.1202,-2.1068,-2.0954,-2.0435,-2.0614,-2.0123,-2.0392,-2.059,-2.059,-2.0517,-2.0839,-2.1204,-2.1778,-2.1611,-2.1039,-2.0944,-2.1287,-2.1651,-2.1643,-2.1477,-2.115,-2.1282,-2.1133,-2.1396,-2.1346,-2.137,-2.1205,-2.0984,-2.0956,-2.1474,-2.1043,-2.0525,-1.9499,-1.823,-1.6383,-1.5002,-1.4546,-1.6242,-2.0586,-2.5599,-2.7253,-2.5604,-2.4038,-2.309,-2.1906,-2.1257,-2.1304,-2.0589,-2.0549,-2.0797,-2.0936,-2.0898,-2.0517,-2.0544,-2.083,-2.1131,-2.0731,-2.0349,-2.0318,-2.0316,-2.0631,-2.0909,-2.0212,-2.0249,-2.0099,-2.0395,-2.0557,-2.0794,-2.0587,-1.9594,-1.9394,-1.9254,-1.9633,-2.0369,-1.989,-1.9843,-1.9854,-1.9605,-1.9907,-1.9304,-1.9391,-1.9445,-1.9953,-1.9218,-1.9023,-1.904,-1.9162,-1.8997,-1.8703,-1.9031,-1.8844,-1.8068,-1.8316,-1.8183,-1.8025,-1.7775,-1.7869,-1.754,-1.7562,-1.7642,-1.6988,-1.7129,-1.7084,-1.6841,-1.7029,-1.7648,-1.8436,-1.8633,-1.8295,-1.8047,-1.8173,-1.9019,-1.9697,-2.0431,-2.1057,-2.1233,-2.1459,-2.1875,-2.2084,-2.2084,-2.2718,-2.3085,-2.2899,-2.2575,-2.2588,-2.2549,-2.2611,-2.2698,-2.2656,-2.295,-2.255,-2.3033,-2.3,-2.3078,-2.2877,-2.2995,-2.3119,-2.2955,-2.2772,-2.2752,-2.271,-2.3078,-2.2934,-2.275,-2.3011,-2.2789,-2.2754,-2.278,-2.2641,-2.2589,-2.2587,-2.2563,-2.2477,-2.2478,-2.2809,-2.2524,-2.2554,-2.2203,-2.2491,-2.2609,-2.245,-2.2904,-2.2856,-2.268,-2.2501,-2.2455,-2.2413,-2.1972,-2.2005,-2.2029,-2.2116,-2.2027,-2.238,-2.188,-2.1543,-2.1194,-2.1229,-2.1873,-2.2225,-2.24,-2.2561,-2.2723,-2.2946,-2.354,-2.3637,-2.3668,-2.4021,-2.3972,-2.3964,-2.3974,-2.395,-2.441,-2.4673,-2.4421,-2.4433,-2.466,-2.4737,-2.4812,-2.4678,-2.4713,-2.473,-2.4126,-2.3288,-2.1629,-2.0044,-1.8605,-1.8707
