-2.581,-2.5939,-2.6081,-2.5577,-2.5821,-2.5711,-2.586,-2.637,-2.6793,-2.7265,-2.7861,-2.8092,-2.8004,-2.8582,-2.9248,-2.8962,-2.9093,-2.9525,-2.9538,-2.9651,-2.9735,-2.9896,-3.0069,-3.0197,-3.0296,-3.0508,-3.0527,-3.0453,-3.024,-3.0299,-3.0216,-3.027,-3.0092,-3.0462,-3.0579,-3.062,-3.04,-3.0234,-3.0193,-3.0102,-3.021,-2.9998,-3.0327,-2.9828,-3.0193,-3.0336,-3.0376,-3.0001,-2.984,-2.998,-3.0087,-3.0155,-3.0189,-3.0147,-2.9963,-2.9862,-3.0252,-3.0335,-2.98,-2.9747,-2.9926,-2.9843,-2.9987,-2.9685,-2.9498,-2.9483,-2.938,-2.9455,-2.9287,-2.9145,-2.8943,-2.9018,-2.9441,-2.9947,-2.9754,-2.9812,-2.9946,-3.0237,-3.0105,-3.0072,-2.982,-3.0083,-3.0358,-3.0272,-3.0281,-3.0372,-3.0519,-3.0481,-3.0243,-3.0342,-3.007,-3.0078,-3.0116,-3.0521,-3.0382,-3.0444,-3.0002,-2.9074,-2.7344,-2.5788,-2.4123,-2.3439,-2.5508,-3.0015,-3.3477,-3.406,-3.2986,-3.2216,-3.1691,-3.1289,-3.0558,-3.0255,-3.0115,-3.0005,-2.9802,-2.9845,-2.993,-2.9919,-3.0232,-3.0114,-2.9621,-2.961,-2.9541,-2.9405,-2.9925,-2.9645,-2.9651,-2.9369,-2.9848,-2.9922,-2.9442,-2.9368,-2.9556,-2.9645,-2.9496,-2.9425,-2.9252,-2.8965,-2.9166,-2.8906,-2.9053,-2.9327,-2.913,-2.8794,-2.8621,-2.856,-2.8411,-2.8188,-2.8141,-2.835,-2.8083,-2.8,-2.7592,-2.7935,-2.7383,-2.7226,-2.7198,-2.6901,-2.6717,-2.6437,-2.625,-2.6084,-2.5845,-2.5741,-2.5923,-2.5496,-2.5487,-2.5287,-2.5384,-2.5402,-2.5509,-2.5864,-2.6016,-2.6418,-2.688,-2.7355,-2.7747,-2.8197,-2.8405,-2.8451,-2.8846,-2.9444,-2.9773,-2.9733,-2.9882,-3.0164,-3.001,-2.9766,-3.0122,-2.9824,-2.9955,-3.0109,-3.0428,-3.0629,-3.0229,-3.0381,-3.0419,-3.043,-3.019,-3.0194,-3.0381,-3.0322,-3.0485,-3.0286,-3.0221,-3.0458,-3.051,-3.0399,-3.0296,-3.034,-3.0204,-3.0218,-3.0141,-3.0047,-3.0093,-3.0233,-3.0204,-3.021,-3.0362,-3.0416,-2.9899,-2.9873,-3.0213,-3.0443,-3.046,-3.036,-3.007,-3.0044,-3.0206,-2.9805,-2.9808,-2.9658,-2.9762,-2.9819,-2.9714,-2.94,-2.9225,-2.9164,-2.9062,-2.9306,-2.9511,-2.9659,-2.9811,-2.9838,-2.9831,-2.9718,-3.037,-3.022,-2.987,-3.001,-3.0132,-3.0093,-3.0103,-3.0043,-3.0229,-2.9961,-2.9761,-2.966,-2.9764,-2.9907,-3.013,-2.9988,-2.9851,-2.9828,-2.9379,-2.807,-2.6039,-2.4223,-2.2615,-2.2782,-2.4332,-2.8605,-3.2742,-3.3625,-3.2929,-3.18,-3.1245,-3.039,-2.9977,-2.9912,-2.9444,-2.9577,-2.9624,-2.9276,-2.9699,-2.9426,-2.9216,-2.8961,-2.9235,-2.9279,-2.937,-2.9019,-2.9171,-2.9458,-2.9264,-2.9401,-2.9659,-2.9491,-2.9185,-2.9113,-2.9335,-2.928,-2.922,-2.9309,-2.9214,-2.9175,-2.9069,-2.8933,-2.8772,-2.9017,-2.8985,-2.8763,-2.868,-2.886,-2.8955,-2.8549,-2.8384,-2.8215,-2.7934,-2.7982,-2.7767,-2.7476,-2.7162,-2.7216,-2.7088,-2.7348,-2.6905,-2.6673,-2.6361,-2.616,-2.6079,-2.6166,-2.603,-2.5863,-2.5857,-2.554,-2.5652,-2.5903,-2.6047,-2.6042,-2.6656,-2.6923,-2.7312,-2.7728,-2.8238,-2.8689,-2.8995,-2.9591,-2.965,-2.9738,-2.9914,-3.0223,-3.0077,-3.0319,-3.0326,-3.0312,-3.0457,-3.0512,-3.0759,-3.0882,-3.0422,-3.0321,-3.0307,-3.047,-3.0595,-3.0426,-3.0427,-3.0575,-3.0542,-3.0902,-3.0782,-3.064,-3.0592,-3.0669,-3.0469,-3.0461,-3.0417,-3.0553,-3.0282,-3.0404,-3.0478,-3.0635,-3.0477,-3.0149,-3.0186,-3.0413,-3.0237,-3.0325,-3.0357,-3.0224,-3.0178,-3.0328,-3.0417,-3.0489,-3.0313,-3.043,-3.0475,-3.0391,-3.0432,-3.0211,-3.0523,-3.0682,-3.0416,-3.0319,-3.042,-3.0413,-3.0516,-3.0386,-3.0573,-3.0557,-3.0378,-3.0253,-3.0261,-3.0222,-3.0444,-3.0542,-3.0452,-3.0356,-3.0338,-3.0369,-3.0442,-3.0282,-3.0213,-3.031,-3.0074,-3.012,-3.0333,-3.0265,-3.0342,-3.0071,-3.0113,-3.0256,-3.0417,-3.0212,-3.0199,-3.0059,-3.0149,-3.0333,-3.0293,-3.043,-3.0101,-3.0091,-3.0424,-3.0135,-3.0351,-3.0314,-3.0262,-3.0067,-3.0391,-3.0221,-3.0205,-3.0238,-3.036,-3.0426,-3.027,-3.035,-3.0363,-3.0484,-3.0484,-3.0419,-3.0154,-3.0061,-2.9785,-3.0116,-3.0197,-2.9942,-2.9863,-2.9515,-2.957,-2.9518,-2.9601,-2.9669,-2.9774,-2.9944,-3.0078,-3.0041,-3.0239,-3.0207,-3.0371,-3.0409,-3.0401,-3.0415,-3.0476,-3.0561,-3.0395,-3.027,-3.0548,-3.0464,-3.0269,-3.0385,-3.0455,-3.0581,-3.0429,-3.058,-3.0199,-2.8949,-2.7494,-2.5844,-2.3795,-2.3575,-2.5485,-3.0071,-3.4173,-3.4609,-3.3689,-3.2786,-3.2187,-3.1215,-3.0813,-3.0645,-3.0672,-3.076,-3.0806,-3.0916,-3.0723,-3.0675,-3.0653,-3.0494,-3.046,-3.0454,-3.0661,-3.0515,-3.0319,-3.0411,-3.0626,-3.073,-3.0617,-3.0563,-3.0688,-3.0655,-3.0544,-3.0376,-3.0161,-3.0218,-3.0281,-3.0347,-3.0188,-3.031,-3.0138,-2.9988,-2.9967,-3.0008,-2.982,-2.9634,-2.9637,-2.9674,-2.94,-2.9347,-2.9003,-2.9112,-2.9087,-2.891,-2.8688,-2.8621,-2.8401,-2.787,-2.7783,-2.7726,-2.7384,-2.7077,-2.6911,-2.6853,-2.6815,-2.6735,-2.6719,-2.6713,-2.6365,-2.6377,-2.6522,-2.6296,-2.6406,-2.6559,-2.6776,-2.7042,-2.7476,-2.7747,-2.8223,-2.8639,-2.9071,-2.9396,-2.9734,-3.0059,-3.0099,-3.0338,-3.0317,-3.0415,-3.0638,-3.0569,-3.041,-3.0623,-3.0667,-3.0648,-3.0607,-3.0734,-3.0833,-3.0654,-3.0395,-3.0445,-3.063,-3.0782,-3.0813,-3.0774,-3.0749,-3.0815,-3.0694,-3.0573,-3.0688,-3.0549,-3.0549,-3.0563,-3.0616,-3.0764,-3.0587,-3.0568,-3.0431,-3.0394,-3.0647,-3.0681,-3.0659,-3.0627,-3.0595,-3.0647,-3.0736,-3.0694,-3.0746,-3.0768,-3.0856,-3.0648,-3.082,-3.081,-3.0839,-3.0926,-3.0923,-3.1063,-3.0959,-3.1071,-3.1178,-3.1339,-3.1402,-3.1295,-3.1376,-3.1174,-3.123,-3.1362,-3.1305,-3.1384,-3.1428,-3.1367,-3.1431,-3.1475,-3.1481,-3.1365,-3.1324,-3.1302,-3.1364,-3.1446,-3.1431,-3.1446,-3.1288,-3.1322,-3.1406,-3.1473,-3.1283,-3.1338,-3.1332,-3.1164,-3.1327,-3.1267,-3.1349,-3.1277,-3.1245,-3.1155,-3.1198,-3.1286,-3.12,-3.1234,-3.1272,-3.1274,-3.1194,-3.1167,-3.1254,-3.1198,-3.1313,-3.1218,-3.1241,-3.1292,-3.1312,-3.1334,-3.146,-3.1441,-3.1405,-3.1494,-3.1379,-3.1268,-3.1315,-3.1355,-3.1422,-3.1452,-3.1401,-3.1307,-3.1341,-3.1289,-3.1265,-3.1318,-3.1249,-3.1242,-3.123,-3.1459,-3.1343,-3.1193,-3.113,-3.1037,-3.087,-3.092,-3.0683,-3.0739,-3.0848,-3.063,-3.0424,-2.9973,-2.9884,-2.9978,-3.0086,-3.0209,-3.024,-3.0231,-3.0435,-3.0504,-3.0493,-3.0932,-3.0865,-3.059,-3.0321,-3.0121,-3.0117,-3.0028,-3.007,-3.0223,-3.0001,-2.9922,-2.9849,-2.9927,-3.0179,-2.9984,-2.9063,-2.7577,-2.5769,-2.4272,-2.3489,-2.4456,-2.5726,-3.037,-3.4613,-3.4514,-3.2908,-3.1986,-3.1022,-3.0269,-3.0044,-2.9781,-2.9756,-2.9785,-2.9874,-2.9772,-2.9929,-2.9842,-2.9956,-2.9911,-3.0054,-2.9929,-2.9996,-2.9939,-3.0135,-3.0086,-3.016,-2.9998,-3.0094,-3.0094,-3.0027,-3.0194,-3.0161,-3.0093,-3.0202,-3.0196,-3.0279,-3.0195,-3.0112,-3.0135,-3.0214,-3.0057,-2.9987,-3.0015,-3.0024,-2.9869,-2.9839,-2.9692,-2.9566,-2.9411,-2.9343,-2.9255,-2.902,-2.8912,-2.8812,-2.8632,-2.8409,-2.8162,-2.7924,-2.7804,-2.7664,-2.7494,-2.7371,-2.7304,-2.7272,-2.7138,-2.6984,-2.7003,-2.6875,-2.6831,-2.6851,-2.684,-2.6931,-2.7122,-2.7302,-2.7663,-2.8024,-2.8532,-2.8763,-2.9153,-2.9628,-2.9997,-3.018,-3.027,-3.0463,-3.0612,-3.0942,-3.1083,-3.1059,-3.1208,-3.1217,-3.12,-3.1182,-3.1275,-3.13,-3.1355,-3.1375,-3.1311,-3.1446,-3.147,-3.14,-3.1306,-3.138,-3.1424,-3.1376,-3.134,-3.1392,-3.1419,-3.1306,-3.1189,-3.1168,-3.1109,-3.1209,-3.1091,-3.103,-3.1153,-3.1029,-3.108,-3.0944,-3.0983,-3.1003,-3.0985,-3.0957,-3.1108,-3.1123,-3.1033,-3.1162,-3.1016,-3.1131,-3.1144,-3.1133,-3.103,-3.098,-3.1015,-3.0898,-3.0993,-3.0998,-3.0944,-3.0939,-3.1027,-3.0923,-3.0822,-3.0796,-3.0781,-3.0607,-3.0764,-3.0732,-3.0697,-3.0559,-3.0651,-3.0639,-3.0491,-3.034,-3.0429,-3.044,-3.0532,-3.0386,-3.0404,-3.0271,-3.0447,-3.0431,-3.024,-3.0315,-3.0249,-3.039,-3.0301,-3.0184,-2.998,-2.9816,-2.9874,-2.9937,-2.9846,-2.9597,-2.9437,-2.9409,-2.9247,-2.9068,-2.9366,-2.9556,-2.9604,-2.9805,-2.9769,-2.9916,-2.9972,-3.0014,-3.0029,-3.0195,-3.0048,-3.0168,-3.0133,-2.9979,-2.9961,-3.0015,-2.9985,-3.0132,-3.0064,-2.9939,-3.0037,-3.0094,-2.9998,-2.9486,-2.8701,-2.714,-2.5634,-2.4092,-2.373,-2.5831,-2.9899,-3.3181,-3.3333,-3.2336,-3.153,-3.1033,-3.0556,-3.0187,-2.9959,-2.9809,-2.9407,-2.9284,-2.9263,-2.927,-2.9028,-2.925,-2.9063,-2.9116,-2.897,-2.891,-2.8848,-2.8965,-2.8983,-2.8804,-2.8733,-2.8761,-2.8539,-2.8576,-2.842,-2.8457,-2.8498,-2.8407,-2.8339,-2.8244,-2.8197,-2.8213,-2.8281,-2.8147,-2.8091,-2.7914,-2.7784,-2.7684,-2.772,-2.7719,-2.7407,-2.7383,-2.7281,-2.7186,-2.7065,-2.6795,-2.6691,-2.6479,-2.6174,-2.6114,-2.603,-2.5843,-2.5703,-2.5489,-2.5415,-2.5241,-2.513,-2.5044,-2.4962,-2.4783,-2.4829,-2.4799,-2.4805,-2.4807,-2.496,-2.5176,-2.5532,-2.5791,-2.6223,-2.6557,-2.6918,-2.7302,-2.7757,-2.7989,-2.825,-2.8576,-2.8893,-2.8881,-2.9223,-2.9295,-2.9627,-2.962,-2.9699,-2.9611,-2.9795,-2.9766,-2.991,-2.9952,-2.9854,-2.9944,-2.9892,-2.9944,-2.9865,-2.9851,-2.9775,-2.9663,-2.9744,-2.9721,-2.9779,-2.968,-2.9808,-2.9648,-2.9655,-2.9639,-2.9567,-2.9551,-2.9516,-2.9599,-2.9585,-2.965,-2.9623,-2.9633,-2.968,-2.9679,-2.9894,-2.9983,-2.9906,-2.9945,-2.9857,-2.9919,-2.9906,-2.9957,-3.0061,-3.0058,-3.0086,-2.9811,-2.986,-2.9804,-2.973,-2.9764,-2.9658,-2.9639,-2.9497,-2.9238,-2.9146,-2.9297,-2.9568,-2.9666,-2.974,-2.9958,-3.0031,-3.0201,-3.0296,-3.0417,-3.0468,-3.0476,-3.0418,-3.0525,-3.0605,-3.0506,-3.0445,-3.0486,-3.0415,-3.0439,-3.0276,-3.0319,-3.0113,-3.0174,-3.0246,-3.0386,-3.0151,-2.9453,-2.8056,-2.6138,-2.4123,-2.2902,-2.4096,-2.8302,-3.2471,-3.4222,-3.377,-3.2767,-3.219,-3.1786,-3.1093,-3.0749,-3.0574,-3.0295,-3.0179,-3.0382,-3.0383,-3.0268,-3.0395,-3.0594,-3.0463,-3.0424,-3.0314,-3.0412,-3.0289,-3.0173,-3.0086,-2.9983,-2.9859,-2.9704,-2.9707,-2.9686,-2.9663,-2.9498,-2.94,-2.9323,-2.9181,-2.9314,-2.911,-2.9135,-2.9152,-2.8928,-2.891,-2.8859,-2.8763,-2.872,-2.864,-2.8339,-2.8273,-2.8168,-2.8195,-2.7972,-2.7722,-2.7437,-2.7193,-2.7083,-2.6854,-2.6832,-2.6358,-2.6189,-2.6052,-2.5738,-2.574,-2.5433,-2.5388,-2.5263,-2.5205,-2.5157,-2.4947,-2.4965,-2.5061,-2.5106,-2.5285,-2.5756,-2.6177,-2.6356,-2.6982,-2.7418,-2.7813,-2.829,-2.8374,-2.8536,-2.879,-2.9021,-2.9113,-2.934,-2.936,-2.9385,-2.954,-2.9435,-2.9641,-2.9584,-2.949,-2.9692,-2.9627,-2.9665,-2.9837,-2.9566,-2.9625,-2.9582,-2.9612,-2.9833,-2.9641,-2.9631,-2.9758,-2.9691,-2.9661,-2.9604,-2.9712,-2.9579,-2.9648,-2.9685,-2.9667,-2.9792,-2.9756,-2.9788,-2.9921,-2.9844,-2.9948,-3.0047,-3.025,-3.0346,-3.0349,-3.0263,-3.0391,-3.0329,-3.0347,-3.0427,-3.052,-3.0416,-3.0469,-3.0471,-3.0495,-3.0423,-3.0437,-3.0586,-3.0522,-3.0297,-3.0014,-2.9819,-2.9919,-3.0063,-3.0089,-2.985,-2.9386,-2.9407,-2.941,-2.9527,-2.9658,-2.9936,-3.0018,-3.0034,-3.0257,-3.0328,-3.0391,-3.0442,-3.0412,-3.0374,-3.0398,-3.0381,-3.0235,-3.034,-3.0299,-3.0449,-3.0208,-3.0207,-3.026,-3.0278,-3.0255,-3.027,-3.0411,-3.0353,-2.9925,-2.8429,-2.6547,-2.4479,-2.2433,-2.2584,-2.6026,-3.0903,-3.4561,-3.4053,-3.2932,-3.2072,-3.1106,-3.0569,-3.0254,-3.0156,-2.9777,-2.9817,-2.9676,-2.9649,-2.967,-2.9609,-2.9393,-2.9278,-2.9423,-2.9328,-2.9295,-2.9369,-2.9193,-2.9276,-2.9201,-2.9181,-2.9331,-2.9161,-2.905,-2.9062,-2.8984,-2.8847,-2.8718,-2.8737,-2.8707,-2.8809,-2.8753,-2.8658,-2.8682,-2.8458,-2.8387,-2.8412,-2.8234,-2.8248,-2.811,-2.8021,-2.7753,-2.7756,-2.7605,-2.7574,-2.7407,-2.7178,-2.6881,-2.6754,-2.6638,-2.6498,-2.6224,-2.5942,-2.5783,-2.5657,-2.5523,-2.5414,-2.5336,-2.5212,-2.5115,-2.5155,-2.5142,-2.5305,-2.537,-2.5501,-2.5655,-2.6013,-2.6567,-2.6994,-2.7429,-2.7812,-2.8222,-2.8472,-2.8773,-2.8981,-2.9174,-2.9366,-2.9406,-2.9507,-2.9636,-2.9641,-2.9595,-2.9619,-2.97,-2.9755,-2.9643,-2.9587,-2.9559,-2.9441,-2.9483,-2.9533,-2.9618,-2.9655,-2.9559,-2.9608,-2.9585,-2.9529,-2.9575,-2.9445,-2.9537,-2.9509,-2.9527,-2.9567,-2.961,-2.9574,-2.9594,-2.9529,-2.9474,-2.9438,-2.9307,-2.9248,-2.9379,-2.9369,-2.9457,-2.9389,-2.9361,-2.9386,-2.9354,-2.9219,-2.9285,-2.9347,-2.9411,-2.953,-2.9512,-2.9483,-2.9355,-2.9273,-2.9189,-2.9304,-2.9326,-2.9255,-2.9148,-2.919,-2.9251,-2.9162,-2.9135,-2.9256,-2.9191,-2.9301,-2.9374,-2.9407,-2.9306,-2.9252,-2.9338,-2.9254,-2.9295,-2.9339,-2.9396,-2.944,-2.9456,-2.9377,-2.9383,-2.9517,-2.9485,-2.9494,-2.9569,-2.9469,-2.9548,-2.9521,-2.9666,-2.9661,-2.9536,-2.9645,-2.9725,-2.9665,-2.9837,-2.9573,-2.9529,-2.9559,-2.9546,-2.956,-2.9731,-2.9783,-2.9529,-2.9506,-2.9429,-2.9424,-2.9521,-2.9543,-2.9499,-2.9426,-2.9399,-2.9424,-2.9579,-2.9591,-2.9411,-2.9474,-2.9368,-2.9372,-2.9429,-2.9448,-2.9485,-2.9529,-2.9542,-2.9381,-2.9271,-2.9324,-2.9338,-2.9427,-2.9421,-2.9437,-2.9432,-2.9328,-2.9463,-2.9119,-2.8955,-2.8844,-2.8683,-2.8675,-2.8687,-2.877,-2.858,-2.8312,-2.8267,-2.8177,-2.8138,-2.8338,-2.8508,-2.8467,-2.8614,-2.8681,-2.8826,-2.8831,-2.8862,-2.8913,-2.8914,-2.8852,-2.9028,-2.8979,-2.8595,-2.8686,-2.8792,-2.8945,-2.9008,-2.8874,-2.8916,-2.9016,-2.8762,-2.7765,-2.6259,-2.4435,-2.2525,-2.2087,-2.2275,-2.4687,-2.9442,-3.3075,-3.2576,-3.1416,-3.0699,-2.9744,-2.9292,-2.8926,-2.8709,-2.8581,-2.8664,-2.8567,-2.855,-2.8378,-2.8654,-2.8823,-2.8612,-2.8357,-2.8357,-2.8138,-2.8089,-2.8247,-2.8097,-2.7963,-2.795,-2.7746,-2.766,-2.7629,-2.7467,-2.7472,-2.7574,-2.751,-2.7329,-2.7117,-2.6882,-2.6929,-2.7233,-2.7224,-2.7009,-2.6695,-2.6776,-2.6792,-2.6607,-2.6483,-2.6303,-2.6,-2.6164,-2.619,-2.5969,-2.573,-2.545,-2.525,-2.5367,-2.5193,-2.487,-2.4687,-2.4707,-2.4625,-2.4334,-2.4392,-2.4076,-2.3973,-2.3982,-2.4139,-2.4098,-2.4084,-2.4028,-2.401,-2.4109,-2.4267,-2.4399,-2.4574,-2.5025,-2.538,-2.5696,-2.6457,-2.6647,-2.6855,-2.7268,-2.7615,-2.7864,-2.8026,-2.8291,-2.8577,-2.8689,-2.8943,-2.8851,-2.8896,-2.8862,-2.8931,-2.8964,-2.9022,-2.8995,-2.912,-2.9055,-2.9124,-2.9259,-2.9343,-2.9274,-2.9406,-2.9362,-2.9401,-2.9351,-2.9236,-2.9497,-2.9477,-2.9449,-2.947,-2.9371,-2.9385,-2.9531,-2.9525,-2.9598,-2.9532,-2.9473,-2.958,-2.9656,-2.962,-2.9562,-2.9668,-2.9772,-2.9722,-2.9785,-2.9864,-3.004,-3.0059,-2.9931,-2.9894,-2.9948,-3.0002,-2.9978,-2.9694,-2.9771,-2.9785,-2.9833,-3.0004,-2.9843,-2.9774,-2.9673,-2.9817,-2.9677,-2.9784,-2.9958,-2.9937,-2.9862,-2.9663,-2.962,-2.9589,-2.9585,-2.972,-2.9776,-2.9623,-2.9519,-2.9555,-2.9557,-2.9481,-2.9496,-2.9603,-2.9519,-2.9473,-2.9529,-2.9375,-2.9365,-2.9508,-2.9577,-2.95,-2.9422,-2.9349,-2.94,-2.9355,-2.9386,-2.9336,-2.9364,-2.9413,-2.9594,-2.9524,-2.9331,-2.9173,-2.9128,-2.9073,-2.92,-2.9186,-2.9175,-2.8782,-2.8681,-2.8722,-2.8507,-2.8349,-2.8744,-2.8914,-2.8915,-2.8904,-2.8988,-2.9125,-2.9219,-2.9194,-2.9403,-2.939,-2.9428,-2.9247,-2.9274,-2.9304,-2.923,-2.9158,-2.9255,-2.9223,-2.9314,-2.9132,-2.93,-2.9365,-2.9052,-2.7532,-2.5806,-2.4314,-2.2591,-2.2637,-2.4915,-2.7168,-3.1514,-3.4304,-3.2981,-3.2298,-3.1051,-3.0556,-2.9797,-2.9233,-2.8968,-2.8821,-2.8717,-2.8744,-2.8698,-2.8685,-2.8672,-2.8587,-2.8649,-2.8599,-2.866,-2.8696,-2.8738,-2.8619,-2.8583,-2.8641,-2.8622,-2.8573,-2.8599,-2.871,-2.8686,-2.8547,-2.8559,-2.8455,-2.8404,-2.8468,-2.8438,-2.8424,-2.8445,-2.8273,-2.8136,-2.8161,-2.8136,-2.817,-2.7972,-2.7821,-2.7644,-2.7468,-2.7386,-2.7344,-2.718,-2.6952,-2.6767,-2.658,-2.6371,-2.6281,-2.6091,-2.5837,-2.5655,-2.5558,-2.5404,-2.5277,-2.527,-2.5146,-2.5044,-2.496,-2.4882,-2.4848,-2.4768,-2.491,-2.5134,-2.5343,-2.5612,-2.6053,-2.6288,-2.6773,-2.7093,-2.7474,-2.7812,-2.8097,-2.858,-2.8729,-2.8862,-2.9176,-2.9277,-2.9508,-2.9625,-2.9698,-2.9666,-2.9778,-2.9857,-3.0086,-3.0065,-3.0016,-3.004,-2.9939,-2.9832,-2.9789,-2.9924,-3.0076,-2.9999,-2.9989,-3.0036,-3.0061,-2.9955,-2.9894,-2.9972,-2.991,-2.9978,-2.9893,-2.9856,-2.9832,-2.9879,-2.995,-2.9978,-2.998,-3.0069,-2.993,-2.9945,-3.0018,-3.0053,-3.0134,-3.0178,-3.0169,-3.0057,-3.0088,-3.02,-3.021,-3.0185,-3.024,-3.0083,-3.0121,-3.0203,-3.0178,-3.0187,-3.0307,-3.0191,-3.0082,-3.0072,-3.0189,-3.004,-3.0084,-3.0085,-3.0071,-2.9962,-2.9862,-2.9816,-2.9679,-2.9551,-2.9653,-2.9752,-2.9544,-2.9237,-2.9076,-2.9081,-2.9068,-2.9269,-2.9389,-2.9506,-2.951,-2.9538,-2.9638,-2.9599,-2.9906,-2.9963,-2.9841,-2.9956,-2.987,-2.9927,-2.9891,-2.9938,-3.0029,-2.9945,-2.9925,-2.99,-2.9746,-2.9866,-3.0035,-3.0033,-2.9382,-2.7734,-2.6818,-2.5371,-2.3653,-2.3388,-2.5902,-3.0413,-3.3841,-3.3751,-3.2588,-3.2078,-3.1327,-3.0831,-3.0411,-3.0142,-2.9846,-2.9673,-2.9569,-2.9696,-2.9559,-2.9569,-2.9464,-2.9586,-2.9417,-2.9563,-2.9444,-2.9514,-2.945,-2.9483,-2.9387,-2.9324,-2.9253,-2.9309,-2.9305,-2.9308,-2.9164,-2.9124,-2.9124,-2.9126,-2.9033,-2.9098,-2.9044,-2.8855,-2.8723,-2.8647,-2.8553,-2.8419,-2.8496,-2.8604,-2.8328,-2.8047,-2.8014,-2.7825,-2.7655,-2.7493,-2.7451,-2.7052,-2.6814,-2.6658,-2.6607,-2.6335,-2.6192,-2.6006,-2.5956,-2.5718,-2.5395,-2.5276,-2.5199,-2.5117,-2.505,-2.5051,-2.4971,-2.4958,-2.4908,-2.5136,-2.5429,-2.567,-2.5951,-2.6557,-2.7116,-2.7356,-2.7403,-2.7892,-2.8143,-2.8435,-2.8639,-2.8872,-2.8999,-2.9262,-2.936,-2.931,-2.9356,-2.9322,-2.9321,-2.9559,-2.9504,-2.9366,-2.9499,-2.9328,-2.9348,-2.9366,-2.9356,-2.9208,-2.9168,-2.9157,-2.9271,-2.9184,-2.8928,-2.9065,-2.9099,-2.8996,-2.9017,-2.893,-2.8927,-2.9021,-2.9028,-2.8992,-2.9169,-2.9088,-2.9159,-2.926,-2.9211,-2.9118,-2.9296,-2.9195,-2.9234,-2.9264,-2.9226,-2.9276,-2.9269,-2.9165,-2.911,-2.8892,-2.8825,-2.8817,-2.8932,-2.8873,-2.8481,-2.8307,-2.8345,-2.844,-2.8649,-2.8768,-2.8875,-2.8978,-2.9184,-2.9336,-2.9382,-2.9417,-2.9528,-2.963,-2.9623,-2.954,-2.9521,-2.9551,-2.9647,-2.9633,-2.9664,-2.9621,-2.9594,-2.9628,-2.969,-2.9635,-2.9703,-2.9778,-2.9673,-2.8817,-2.7064,-2.5382,-2.3475,-2.2436,-2.4544,-2.8906,-3.3118,-3.4218,-3.3058,-3.2266,-3.1675,-3.1072,-3.0441,-3.0204,-3.0164,-2.9907,-2.9929,-2.991,-2.9885,-2.9756,-2.97,-2.9836,-2.985,-2.9836,-2.9899,-2.9758,-2.9506,-2.9454,-2.9502,-2.9528,-2.9429,-2.9524,-2.9339,-2.9285,-2.9318,-2.9381,-2.9476,-2.9317,-2.9259,-2.9144,-2.9068,-2.8959,-2.8932,-2.8902,-2.8784,-2.8824,-2.8709,-2.8558,-2.8401,-2.846,-2.8222,-2.8022,-2.7999,-2.7885,-2.7708,-2.7486,-2.7286,-2.7049,-2.6943,-2.6739,-2.6437,-2.6392,-2.6204,-2.5975,-2.566,-2.5675,-2.5666,-2.5479,-2.545,-2.5358,-2.5341,-2.536,-2.5409,-2.5583,-2.596,-2.6388,-2.6727,-2.7219,-2.7668,-2.8054,-2.8474,-2.8789,-2.9025,-2.9188,-2.9271,-2.9648,-2.9922,-2.9953,-2.9971,-3.0038,-3.018,-3.0131,-3.001,-3.0042,-3.0255,-3.0235,-3.0138,-3.0213,-3.0051,-3.0172,-3.0043,-3.0031,-2.9939,-2.996,-2.9914,-2.9837,-2.9836,-2.9809,-2.9855,-2.9666,-2.9737,-2.9793,-2.9732,-2.9654,-2.9479,-2.9489,-2.957,-2.9653,-2.9636,-2.9703,-2.9691,-2.9621,-2.9557,-2.9668,-2.9667,-2.9695,-2.9687,-2.9754,-2.9738,-2.9692,-2.9682,-2.9494,-2.9286,-2.9226,-2.9202,-2.9157,-2.9287,-2.9301,-2.8975,-2.8669,-2.8697,-2.8688,-2.9111,-2.919,-2.9271,-2.9443,-2.9532,-2.9653,-2.9771,-2.9754,-2.9787,-2.9791,-2.9968,-2.9921,-2.9814,-2.9841,-2.9919,-2.9849,-2.9679,-2.9702,-2.9849,-2.9827,-2.9896,-2.9927,-2.9905,-2.9908,-2.9608,-2.8419,-2.6827,-2.4772,-2.2493,-2.2125,-2.491,-2.7455,-3.2113,-3.4932,-3.3671,-3.2651,-3.1793,-3.0943,-3.0228,-2.9977,-2.9418,-2.9469,-2.9386,-2.9657,-2.9423,-2.9254,-2.9329,-2.9344,-2.9231,-2.911,-2.9281,-2.9309,-2.9203,-2.9193,-2.9024,-2.9115,-2.9025,-2.8901,-2.8787,-2.8713,-2.8722,-2.8574,-2.8659,-2.872,-2.867,-2.8515,-2.832,-2.8267,-2.8251,-2.844,-2.8034,-2.8069,-2.795,-2.7816,-2.7798,-2.7557,-2.7472,-2.7381,-2.7135,-2.6896,-2.6725,-2.6548,-2.6472,-2.6267,-2.5984,-2.5768,-2.5496,-2.5414,-2.5223,-2.4853,-2.4841,-2.4721,-2.4658,-2.4336,-2.4102,-2.4191,-2.4287,-2.4456,-2.4602,-2.489,-2.5203,-2.5637,-2.6036,-2.6433,-2.6871,-2.7341,-2.7717,-2.8139,-2.8458,-2.8825,-2.8971,-2.9088,-2.917,-2.9245,-2.9341,-2.9434,-2.9466,-2.958,-2.9748,-2.9788,-2.9904,-2.9808,-2.9819,-2.9646,-2.9707,-2.9612,-2.9681,-2.9733,-2.9674,-2.9514,-2.9695,-2.9709,-2.9769,-2.9756,-2.9449,-2.941,-2.9567,-2.9455,-2.9465,-2.9527,-2.9543,-2.9568,-2.9523,-2.9419,-2.9421,-2.9429,-2.9553,-2.9518,-2.96,-2.9571,-2.9598,-2.9438,-2.9375,-2.9512,-2.9408,-2.9422,-2.9454,-2.9537,-2.9603,-2.948,-2.9701,-2.9796,-2.9606,-2.9458,-2.9545,-2.9573,-2.9453,-2.9553,-2.9602,-2.9521,-2.9472,-2.9478,-2.9548,-2.9564,-2.958,-2.9428,-2.9393,-2.9546,-2.9513,-2.9539,-2.9434,-2.9446,-2.9532,-2.951,-2.9606,-2.9667,-2.9696,-2.9589,-2.9635,-2.9554,-2.9592,-2.9611,-2.9541,-2.9497,-2.9421,-2.9559,-2.958,-2.9615,-2.9646,-2.9741,-2.969,-2.9563,-2.9583,-2.9509,-2.9489,-2.9553,-2.9623,-2.9641,-2.9581,-2.9556,-2.9553,-2.9555,-2.9502,-2.9272,-2.9109,-2.944,-2.9394,-2.9303,-2.9234,-2.9219,-2.8892,-2.8688,-2.8649,-2.886,-2.9148,-2.932,-2.9388,-2.9399,-2.9407,-2.9429,-2.9678,-2.9708,-2.9725,-2.9813,-2.9775,-2.9759,-2.9813,-2.9847,-2.9849,-2.9788,-2.98,-2.9904,-2.9773,-2.9912,-3.0044,-3.0054,-2.9751,-2.8301,-2.6612,-2.4856,-2.2921,-2.2607,-2.3575,-2.7278,-3.2036,-3.4882,-3.3651,-3.2446,-3.1846,-3.0804,-3.0392,-3.0014,-2.987,-2.9821,-2.9739,-2.9704,-2.9787,-2.951,-2.9472,-2.9455,-2.9592,-2.953,-2.9538,-2.9411,-2.9453,-2.9363,-2.9396,-2.9348,-2.9267,-2.9148,-2.9208,-2.9248,-2.9164,-2.9086,-2.9084,-2.8958,-2.8964,-2.8934,-2.8879,-2.8818,-2.8687,-2.861,-2.8491,-2.8454,-2.8292,-2.8341,-2.8365,-2.8246,-2.8232,-2.8023,-2.7839,-2.7665,-2.7603,-2.735,-2.7253,-2.6976,-2.6906,-2.6771,-2.6555,-2.6349,-2.615,-2.6115,-2.6089,-2.587,-2.5644,-2.5588,-2.5699,-2.5588,-2.5562,-2.545,-2.5373,-2.5518,-2.5585,-2.5812,-2.6061,-2.6361,-2.6625,-2.7084,-2.7487,-2.7953,-2.8326,-2.8427,-2.8748,-2.9068,-2.9103,-2.9337,-2.9481,-2.981,-2.9703,-2.9669,-2.9755,-2.9803,-2.9787,-2.9908,-2.9971,-2.9924,-2.9892,-2.9897,-2.9979,-2.994,-2.9841,-2.986,-2.9814,-2.9772,-2.9793,-2.9734,-2.9772,-2.9682,-2.9716,-2.9677,-2.9655,-2.9611,-2.9612,-2.9521,-2.9642,-2.9576,-2.9496,-2.9629,-2.9521,-2.9556,-2.9595,-2.9608,-2.9567,-2.9704,-2.9737,-2.9814,-2.9731,-2.967,-2.9883,-2.9953,-2.9857,-2.989,-2.9922,-2.9904,-2.9921,-2.9825,-2.9782,-2.9821,-2.9802,-2.9926,-2.9921,-2.9803,-2.9847,-2.9875,-2.9915,-2.9832,-2.987,-2.9922,-2.9904,-2.9945,-2.9826,-2.9793,-2.975,-2.9804,-2.9788,-2.9841,-2.9851,-2.9869,-2.9792,-2.9798,-2.9917,-2.9808,-2.9856,-2.9897,-2.9888,-2.9844,-2.9839,-2.9893,-2.9711,-2.9727,-2.9718,-2.9736,-2.9786,-2.978,-2.9822,-2.9851,-2.9911,-2.9876,-2.9793,-2.9737,-2.9649,-2.9621,-2.9731,-2.9659,-2.9748,-2.9704,-2.9752,-2.9645,-2.9767,-2.9584,-2.9434,-2.9542,-2.9592,-2.9458,-2.9558,-2.9619,-2.9483,-2.9526,-2.9469,-2.9467,-2.9435,-2.9456,-2.956,-2.9472,-2.9435,-2.9446,-2.9354,-2.9422,-2.9496,-2.9388,-2.9195,-2.9089,-2.9137,-2.9082,-2.9072,-2.8998,-2.8937,-2.8688,-2.86,-2.8496,-2.8589,-2.8864,-2.9189,-2.9138,-2.9184,-2.9248,-2.9259,-2.9345,-2.9506,-2.9441,-2.9469,-2.9412,-2.9498,-2.944,-2.942,-2.9505,-2.9494,-2.95,-2.9435,-2.9492,-2.9511,-2.9685,-2.9614,-2.892,-2.7082,-2.5355,-2.3768,-2.2657,-2.3614,-2.688,-3.1207,-3.4147,-3.3107,-3.1853,-3.1322,-3.0379,-2.9878,-2.9689,-2.9396,-2.9236,-2.9141,-2.9148,-2.918,-2.917,-2.9034,-2.9083,-2.9038,-2.893,-2.899,-2.8911,-2.8876,-2.8922,-2.894,-2.8992,-2.8972,-2.8769,-2.8731,-2.8718,-2.8705,-2.8659,-2.8593,-2.8548,-2.8527,-2.8495,-2.8491,-2.8348,-2.8233,-2.8195,-2.8074,-2.8082,-2.8023,-2.7927,-2.7787,-2.769,-2.7521,-2.742,-2.7374,-2.7231,-2.6917,-2.6797,-2.6757,-2.674,-2.6697,-2.647,-2.628,-2.6008,-2.5886,-2.5668,-2.5613,-2.5533,-2.5383,-2.5251,-2.5099,-2.5073,-2.501,-2.5068,-2.4951,-2.515,-2.516,-2.5278,-2.5253,-2.5538,-2.5938,-2.6335,-2.6739,-2.7238,-2.7506,-2.792,-2.8232,-2.8405,-2.8739,-2.8871,-2.9101,-2.927,-2.937,-2.9452,-2.9508,-2.9563,-2.9673,-2.9631,-2.9647,-2.9562,-2.9557,-2.965,-2.9558,-2.957,-2.9624,-2.9606,-2.9678,-2.9583,-2.9598,-2.9513,-2.9461,-2.9495,-2.953,-2.9455,-2.9531,-2.9564,-2.9493,-2.9426,-2.9464,-2.9378,-2.9448,-2.9433,-2.9535,-2.9447,-2.9577,-2.9566,-2.9569,-2.9531,-2.9623,-2.9684,-2.9833,-2.9886,-2.9811,-2.9755,-2.9808,-2.9763,-2.9704,-2.9787,-2.9817,-2.9816,-2.9806,-2.9876,-2.9795,-2.9921,-2.9952,-2.9717,-2.9621,-2.9824,-2.9929,-2.976,-2.9789,-2.9768,-2.9764,-2.9908,-2.97,-2.9693,-2.979,-2.9794,-2.9817,-2.9688,-2.9682,-2.9744,-2.9891,-2.9802,-2.9781,-2.9791,-2.9756,-2.97,-2.9755,-2.9649,-2.9474,-2.964,-2.9747,-2.9778,-2.9745,-2.9717,-2.9714,-2.9683,-2.9685,-2.9786,-2.9665,-2.972,-2.9697,-2.9816,-2.99,-2.9802,-2.9761,-2.9726,-2.9641,-2.9646,-2.9592,-2.9597,-2.97,-2.9693,-2.967,-2.9657,-2.942,-2.9298,-2.9311,-2.9241,-2.9249,-2.9009,-2.9005,-2.879,-2.8869,-2.8929,-2.9105,-2.9245,-2.921,-2.9278,-2.9399,-2.9514,-2.9642,-2.979,-2.9544,-2.9586,-2.962,-2.9631,-2.9741,-2.9797,-2.9628,-2.9559,-2.9497,-2.9556,-2.9484,-2.9582,-2.9698,-2.9664,-2.8702,-2.7182,-2.5599,-2.4023,-2.3135,-2.4748,-2.8589,-3.2288,-3.3372,-3.2054,-3.1691,-3.141,-3.0923,-3.037,-2.9938,-2.9773,-2.9327,-2.9367,-2.9343,-2.9398,-2.9304,-2.937,-2.9345,-2.933,-2.9156,-2.9084,-2.914,-2.9084,-2.9018,-2.9068,-2.9047,-2.9068,-2.9164,-2.9064,-2.9016,-2.8975,-2.8893,-2.8818,-2.873,-2.8778,-2.8681,-2.8736,-2.8639,-2.833,-2.8325,-2.829,-2.847,-2.8344,-2.8172,-2.7968,-2.7944,-2.7843,-2.78,-2.7657,-2.7539,-2.7377,-2.7121,-2.7002,-2.6772,-2.6646,-2.6449,-2.6292,-2.6091,-2.5896,-2.5781,-2.5533,-2.5425,-2.5501,-2.545,-2.5404,-2.535,-2.5164,-2.5248,-2.5291,-2.5114,-2.5268,-2.5438,-2.5718,-2.6003,-2.6471,-2.6735,-2.7076,-2.7491,-2.7833,-2.8156,-2.8427,-2.865,-2.895,-2.9296,-2.9224,-2.9296,-2.9481,-2.96,-2.9778,-2.9801,-2.9791,-2.9673,-2.9696,-2.9848,-2.9686,-2.9709,-2.9641,-2.9656,-2.9701,-2.9721,-2.9629,-2.9574,-2.9397,-2.9483,-2.9507,-2.9445,-2.9448,-2.93,-2.9288,-2.9345,-2.9284,-2.938,-2.9368,-2.9453,-2.9417,-2.952,-2.9464,-2.9527,-2.962,-2.9629,-2.9617,-2.9638,-2.9578,-2.9676,-2.9786,-2.9736,-2.9674,-2.9703,-2.9771,-2.9787,-2.9831,-2.9856,-2.9851,-2.9771,-2.9766,-2.981,-2.9863,-2.9842,-2.9889,-2.9982,-2.9852,-2.9875,-2.9939,-2.983,-2.9814,-2.9787,-2.983,-2.9903,-2.9913,-2.9979,-2.9805,-2.9772,-2.9792,-2.9742,-2.9869,-2.9786,-2.9658,-2.9363,-2.9389,-2.9362,-2.9446,-2.9403,-2.9079,-2.8936,-2.8816,-2.8704,-2.8843,-2.9024,-2.9223,-2.9222,-2.9344,-2.944,-2.9466,-2.9668,-2.9719,-2.972,-2.9659,-2.9618,-2.9613,-2.9693,-2.9685,-2.9668,-2.9643,-2.9494,-2.9547,-2.9613,-2.9644,-2.9619,-2.978,-2.9584,-2.8806,-2.7267,-2.5463,-2.3488,-2.2398,-2.3831,-2.7931,-3.222,-3.4051,-3.2922,-3.2089,-3.1328,-3.051,-3.0045,-2.9785,-2.9717,-2.9447,-2.9337,-2.9356,-2.9489,-2.9443,-2.9315,-2.9245,-2.9258,-2.9171,-2.9163,-2.9114,-2.9169,-2.913,-2.9221,-2.905,-2.8919,-2.884,-2.9003,-2.8755,-2.8764,-2.8743,-2.8713,-2.8766,-2.8803,-2.8725,-2.8621,-2.8577,-2.8485,-2.8381,-2.8358,-2.8136,-2.8106,-2.8106,-2.7912,-2.7669,-2.7645,-2.7636,-2.7448,-2.7347,-2.7212,-2.7003,-2.6827,-2.6585,-2.6285,-2.6201,-2.6059,-2.5933,-2.5561,-2.5401,-2.5301,-2.5295,-2.5184,-2.4947,-2.4858,-2.478,-2.4731,-2.4769,-2.4722,-2.4949,-2.5137,-2.5517,-2.5811,-2.6028,-2.6497,-2.7095,-2.7483,-2.7901,-2.8266,-2.8541,-2.8776,-2.8961,-2.9043,-2.9353,-2.9439,-2.9407,-2.9593,-2.965,-2.9644,-2.9639,-2.9726,-2.9745,-2.9773,-2.9853,-2.9746,-2.9593,-2.9733,-2.9766,-2.9728,-2.9723,-2.9777,-2.9569,-2.9571,-2.9519,-2.9525,-2.9398,-2.9414,-2.9451,-2.9455,-2.9418,-2.9378,-2.9284,-2.9422,-2.934,-2.917,-2.9277,-2.9404,-2.9443,-2.9464,-2.9374,-2.9368,-2.9362,-2.9446,-2.953,-2.9507,-2.9449,-2.9392,-2.9424,-2.9575,-2.9441,-2.945,-2.9398,-2.9422,-2.9479,-2.9404,-2.9479,-2.945,-2.9523,-2.9521,-2.9527,-2.9451,-2.9421,-2.9415,-2.9476,-2.9459,-2.9306,-2.9318,-2.9432,-2.9532,-2.9468,-2.9393,-2.9345,-2.9318,-2.9488,-2.9413,-2.9402,-2.9385,-2.9374,-2.9454,-2.9519,-2.9459,-2.9611,-2.9458,-2.9491,-2.9588,-2.9637,-2.9449,-2.9423,-2.9422,-2.955,-2.9601,-2.9658,-2.9564,-2.9585,-2.9499,-2.9537,-2.9475,-2.9457,-2.9517,-2.9695,-2.9649,-2.9744,-2.9618,-2.9483,-2.9503,-2.9517,-2.957,-2.942,-2.9583,-2.9583,-2.9469,-2.9509,-2.965,-2.9766,-2.9451,-2.9268,-2.9264,-2.9168,-2.9296,-2.9259,-2.9207,-2.8969,-2.8925,-2.8757,-2.8801,-2.9036,-2.9097,-2.9244,-2.9347,-2.9344,-2.9405,-2.943,-2.9545,-2.9521,-2.9598,-2.9458,-2.9468,-2.9433,-2.9434,-2.9576,-2.9455,-2.9509,-2.9655,-2.9478,-2.9496,-2.9533,-2.9636,-2.9479,-2.822,-2.7312,-2.5568,-2.377,-2.2639,-2.3272,-2.6505,-3.1101,-3.4271,-3.3159,-3.1999,-3.129,-3.042,-2.9846,-2.9702,-2.945,-2.9406,-2.9394,-2.936,-2.924,-2.9213,-2.9238,-2.9253,-2.9185,-2.9202,-2.9103,-2.9234,-2.9119,-2.908,-2.9104,-2.8976,-2.9023,-2.8911,-2.8966,-2.8837,-2.878,-2.8768,-2.8763,-2.8803,-2.8763,-2.8668,-2.8679,-2.859,-2.847,-2.8413,-2.8267,-2.813,-2.8106,-2.7892,-2.7852,-2.7965,-2.7847,-2.7734,-2.7604,-2.7362,-2.72,-2.6914,-2.6788,-2.6567,-2.6536,-2.6394,-2.623,-2.5962,-2.5819,-2.5584,-2.5435,-2.5353,-2.5252,-2.5136,-2.4929,-2.4868,-2.4746,-2.4637,-2.4671,-2.4715,-2.4812,-2.5023,-2.5363,-2.5651,-2.6139,-2.643,-2.661,-2.7133,-2.7532,-2.7929,-2.8119,-2.8345,-2.8593,-2.8797,-2.8845,-2.9043,-2.9208,-2.9317,-2.9287,-2.9239,-2.9426,-2.9535,-2.951,-2.9536,-2.9421,-2.9504,-2.9507,-2.9389,-2.9426,-2.9425,-2.9354,-2.9299,-2.9271,-2.9217,-2.9237,-2.9244,-2.9151,-2.9167,-2.9208,-2.9204,-2.9108,-2.916,-2.923,-2.9079,-2.9039,-2.8978,-2.8991,-2.9147,-2.927,-2.9278,-2.9285,-2.9232,-2.9179,-2.92,-2.9132,-2.9266,-2.932,-2.9391,-2.9307,-2.931,-2.9386,-2.9362,-2.9366,-2.9343,-2.9452,-2.9298,-2.9289,-2.9401,-2.9388,-2.9433,-2.9418,-2.9262,-2.9315,-2.9347,-2.9291,-2.9328,-2.9348,-2.9291,-2.9193,-2.9236,-2.9282,-2.9246,-2.9229,-2.9078,-2.9157,-2.9355,-2.938,-2.9158,-2.9193,-2.9302,-2.9296,-2.9224,-2.9156,-2.9203,-2.9267,-2.9228,-2.9268,-2.9126,-2.9164,-2.9209,-2.9255,-2.9223,-2.9341,-2.9203,-2.9157,-2.9244,-2.9185,-2.9158,-2.9207,-2.9,-2.9043,-2.9122,-2.9148,-2.9212,-2.9257,-2.9207,-2.9124,-2.9149,-2.9092,-2.9122,-2.9236,-2.9137,-2.9258,-2.9201,-2.913,-2.9128,-2.9076,-2.902,-2.9151,-2.9113,-2.902,-2.9198,-2.9067,-2.922,-2.9233,-2.9184,-2.9118,-2.9096,-2.9039,-2.8882,-2.892,-2.8931,-2.8908,-2.8818,-2.8631,-2.8615,-2.8494,-2.838,-2.8337,-2.8446,-2.869,-2.8728,-2.8777,-2.8833,-2.8939,-2.9077,-2.914,-2.9121,-2.9115,-2.9083,-2.8949,-2.9088,-2.9152,-2.9045,-2.9037,-2.907,-2.8908,-2.9077,-2.9068,-2.9163,-2.9113,-2.8466,-2.6728,-2.4938,-2.3244,-2.2179,-2.3201,-2.6499,-3.0977,-3.3626,-3.2399,-3.1321,-3.087,-2.9961,-2.944,-2.9148,-2.8986,-2.8811,-2.8885,-2.889,-2.8737,-2.8735,-2.8653,-2.8612,-2.8474,-2.8507,-2.8613,-2.86,-2.8535,-2.8468,-2.8365,-2.8352,-2.8422,-2.8337,-2.8395,-2.8284,-2.8303,-2.8154,-2.8089,-2.791,-2.7814,-2.7833,-2.7771,-2.7783,-2.7841,-2.7642,-2.7431,-2.7398,-2.7271,-2.7187,-2.7108,-2.7149,-2.6976,-2.672,-2.659,-2.6417,-2.6253,-2.6158,-2.5942,-2.593,-2.5717,-2.5483,-2.5305,-2.4967,-2.4745,-2.4551,-2.4384,-2.4488,-2.4195,-2.4069,-2.3946,-2.3847,-2.382,-2.3663,-2.3817,-2.3793,-2.3784,-2.3892,-2.4202,-2.4432,-2.4616,-2.5069,-2.5592,-2.5968,-2.6312,-2.655,-2.6855,-2.715,-2.7583,-2.7611,-2.7811,-2.7865,-2.8025,-2.8103,-2.7982,-2.8095,-2.8277,-2.825,-2.8366,-2.8332,-2.8185,-2.8141,-2.8334,-2.8314,-2.834,-2.8245,-2.8237,-2.8269,-2.8238,-2.8383,-2.8413,-2.8264,-2.8143,-2.8197,-2.8243,-2.8278,-2.8236,-2.8194,-2.8207,-2.823,-2.8114,-2.8178,-2.8308,-2.8253,-2.8279,-2.8214,-2.8193,-2.8202,-2.83,-2.8525,-2.8576,-2.8563,-2.857,-2.8661,-2.8589,-2.8468,-2.8468,-2.8505,-2.8546,-2.8585,-2.8686,-2.8699,-2.8711,-2.8687,-2.8751,-2.8712,-2.8707,-2.8803,-2.8749,-2.8708,-2.8672,-2.8698,-2.8714,-2.8743,-2.8695,-2.8557,-2.8584,-2.8706,-2.8753,-2.8598,-2.8611,-2.8778,-2.8741,-2.8784,-2.8617,-2.8735,-2.8663,-2.8652,-2.8673,-2.8583,-2.8573,-2.8751,-2.861,-2.8554,-2.8538,-2.8528,-2.8638,-2.8618,-2.8574,-2.8652,-2.8678,-2.8612,-2.8599,-2.8559,-2.8531,-2.8515,-2.8654,-2.8642,-2.8673,-2.8669,-2.8694,-2.8579,-2.8586,-2.8616,-2.8577,-2.8655,-2.8622,-2.8623,-2.8648,-2.8685,-2.8746,-2.8719,-2.862,-2.8639,-2.8685,-2.8773,-2.8768,-2.895,-2.8737,-2.868,-2.8845,-2.8828,-2.8842,-2.8806,-2.8876,-2.8669,-2.8683,-2.8694,-2.8743,-2.8446,-2.8392,-2.8404,-2.8307,-2.8407,-2.8346,-2.8375,-2.8452,-2.8578,-2.8736,-2.8789,-2.8933,-2.8939,-2.8896,-2.8953,-2.8868,-2.8931,-2.8907,-2.8971,-2.8803,-2.8935,-2.8732,-2.8817,-2.8819,-2.8834,-2.8895,-2.8438,-2.7232,-2.5743,-2.4191,-2.2493,-2.2557,-2.487,-2.9206,-3.28,-3.2334,-3.1257,-3.1059,-3.0567,-3.0397,-2.9458,-2.9117,-2.887,-2.8711,-2.8748,-2.859,-2.8748,-2.8752,-2.8743,-2.8717,-2.8594,-2.8434,-2.8439,-2.8539,-2.8553,-2.8427,-2.8429,-2.838,-2.852,-2.8432,-2.8342,-2.8351,-2.8304,-2.8338,-2.8211,-2.821,-2.8246,-2.8056,-2.798,-2.7953,-2.7774,-2.7714,-2.7632,-2.77,-2.7588,-2.7593,-2.7489,-2.7346,-2.7153,-2.7067,-2.6847,-2.6747,-2.6599,-2.6478,-2.625,-2.6056,-2.5996,-2.5798,-2.5526,-2.5288,-2.5206,-2.504,-2.4801,-2.4708,-2.4489,-2.4487,-2.4419,-2.4348,-2.4336,-2.4232,-2.4189,-2.4046,-2.4225,-2.4464,-2.463,-2.4987,-2.5311,-2.5661,-2.6072,-2.6435,-2.6724,-2.7216,-2.7407,-2.7605,-2.7849,-2.8013,-2.8075,-2.8247,-2.8433,-2.8555,-2.8493,-2.8518,-2.8597,-2.8491,-2.8639,-2.8633,-2.8549,-2.8637,-2.8608,-2.8514,-2.8609,-2.8626,-2.8584,-2.8395,-2.8368,-2.8428,-2.8458,-2.8384,-2.8276,-2.8189,-2.8307,-2.8312,-2.8225,-2.8186,-2.8212,-2.8269,-2.8429,-2.8236,-2.8371,-2.8249,-2.8311,-2.8412,-2.8416,-2.8359,-2.8561,-2.8428,-2.84,-2.8524,-2.8474,-2.8532,-2.8564,-2.8547,-2.8549,-2.8617,-2.8718,-2.8663,-2.8574,-2.852,-2.848,-2.8556,-2.8673,-2.8707,-2.8575,-2.8588,-2.8536,-2.8544,-2.8498,-2.8592,-2.8633,-2.8651,-2.8507,-2.8597,-2.8656,-2.8616,-2.8718,-2.8558,-2.8611,-2.8571,-2.8498,-2.8654,-2.8641,-2.8652,-2.8683,-2.8643,-2.8665,-2.8773,-2.8809,-2.8654,-2.862,-2.8731,-2.8702,-2.8607,-2.8684,-2.8673,-2.8588,-2.8683,-2.8639,-2.8792,-2.8737,-2.8895,-2.8746,-2.8754,-2.8815,-2.876,-2.8704,-2.8736,-2.8714,-2.8664,-2.8672,-2.8657,-2.8807,-2.8816,-2.8717,-2.8612,-2.857,-2.853,-2.8424,-2.8434,-2.8201,-2.8306,-2.814,-2.8,-2.8093,-2.8286,-2.8413,-2.8432,-2.8498,-2.8602,-2.8596,-2.8636,-2.8724,-2.874,-2.888,-2.8833,-2.8942,-2.897,-2.8912,-2.8881,-2.8967,-2.8828,-2.8867,-2.8801,-2.885,-2.8906,-2.8923,-2.8554,-2.8202,-2.6752,-2.5077,-2.3205,-2.1959,-2.2947,-2.6385,-3.0588,-3.311,-3.1941,-3.1139,-3.0741,-2.9972,-2.9465,-2.8881,-2.8879,-2.8677,-2.8683,-2.865,-2.8702,-2.8635,-2.861,-2.8503,-2.8606,-2.8555,-2.8588,-2.859,-2.8594,-2.8434,-2.8442,-2.8334,-2.828,-2.8203,-2.8304,-2.8172,-2.8275,-2.8157,-2.8069,-2.8058,-2.8198,-2.81,-2.7841,-2.7793,-2.7689,-2.7645,-2.7611,-2.7442,-2.7526,-2.7315,-2.7415,-2.7328,-2.7204,-2.7132,-2.6795,-2.6765,-2.6537,-2.6378,-2.617,-2.6033,-2.5872,-2.5753,-2.5549,-2.5205,-2.5139,-2.4942,-2.4682,-2.4655,-2.4423,-2.4361,-2.4332,-2.4239,-2.4182,-2.4147,-2.4114,-2.4115,-2.4219,-2.4544,-2.4624,-2.5182,-2.5523,-2.5792,-2.606,-2.6561,-2.7013,-2.7281,-2.7582,-2.7668,-2.8049,-2.8204,-2.8387,-2.8329,-2.8456,-2.8562,-2.869,-2.8653,-2.8622,-2.8744,-2.8841,-2.8774,-2.8676,-2.8756,-2.8676,-2.8671,-2.8734,-2.8571,-2.8523,-2.8386,-2.8383,-2.8448,-2.8479,-2.8487,-2.8395,-2.8181,-2.8202,-2.8246,-2.8192,-2.8115,-2.8221,-2.8161,-2.8102,-2.809,-2.8153,-2.8188,-2.8052,-2.7968,-2.7865,-2.7952,-2.8212,-2.8174,-2.8168,-2.8317,-2.8245,-2.8215,-2.8135,-2.8202,-2.8271,-2.8281,-2.8273,-2.8353,-2.8345,-2.8259,-2.8252,-2.848,-2.8233,-2.8143,-2.8286,-2.8358,-2.8255,-2.8288,-2.8341,-2.8461,-2.8422,-2.8358,-2.824,-2.823,-2.8283,-2.8236,-2.8258,-2.8279,-2.8212,-2.8283,-2.835,-2.8274,-2.8128,-2.8078,-2.8277,-2.8428,-2.8356,-2.8314,-2.8271,-2.8439,-2.8398,-2.8377,-2.8371,-2.8349,-2.8374,-2.8428,-2.8347,-2.8316,-2.8353,-2.8309,-2.8358,-2.8297,-2.8275,-2.8435,-2.8326,-2.8292,-2.8362,-2.8302,-2.8295,-2.8278,-2.837,-2.8419,-2.8454,-2.8458,-2.845,-2.8383,-2.835,-2.8051,-2.8044,-2.807,-2.814,-2.8108,-2.7884,-2.7834,-2.7649,-2.7571,-2.7602,-2.7731,-2.7792,-2.7986,-2.8093,-2.819,-2.8178,-2.8281,-2.8294,-2.8327,-2.8313,-2.8287,-2.8311,-2.8306,-2.8332,-2.826,-2.8247,-2.8219,-2.8263,-2.8332,-2.8372,-2.8512,-2.8208,-2.7425,-2.585,-2.3986,-2.2169,-2.1079,-2.2434,-2.6195,-3.0776,-3.2744,-3.1626,-3.0994,-3.0561,-2.9613,-2.8977,-2.8442,-2.8296,-2.8056,-2.8076,-2.8135,-2.8044,-2.7909,-2.793,-2.7968,-2.7948,-2.7901,-2.7753,-2.7708,-2.7762,-2.7739,-2.781,-2.7737,-2.7777,-2.7641,-2.7722,-2.7677,-2.7575,-2.7644,-2.7684,-2.7658,-2.7569,-2.7497,-2.7481,-2.7409,-2.7321,-2.7187,-2.7202,-2.717,-2.712,-2.7011,-2.6912,-2.6896,-2.6652,-2.6528,-2.6416,-2.623,-2.6104,-2.6002,-2.5885,-2.5692,-2.5674,-2.5396,-2.5202,-2.4983,-2.4824,-2.4566,-2.4381,-2.4316,-2.4046,-2.392,-2.384,-2.379,-2.3771,-2.354,-2.3614,-2.3751,-2.385,-2.3939,-2.4123,-2.4519,-2.4903,-2.5412,-2.5789,-2.618,-2.6626,-2.6843,-2.724,-2.754,-2.7673,-2.7888,-2.8027,-2.8158,-2.8247,-2.8326,-2.8444,-2.8609,-2.8485,-2.8512,-2.852,-2.8608,-2.8672,-2.8624,-2.8552,-2.8382,-2.8386,-2.845,-2.846,-2.837,-2.8414,-2.8323,-2.8257,-2.8185,-2.8171,-2.8122,-2.8178,-2.8163,-2.8019,-2.8044,-2.7999,-2.8103,-2.8049,-2.8051,-2.7902,-2.7952,-2.7939,-2.7922,-2.8022,-2.8007,-2.7926,-2.8085,-2.8131,-2.8145,-2.817,-2.8062,-2.7984,-2.8109,-2.8211,-2.809,-2.8147,-2.822,-2.8266,-2.8225,-2.8189,-2.8129,-2.8248,-2.8233,-2.8128,-2.8092,-2.8103,-2.8319,-2.8214,-2.8211,-2.8182,-2.8206,-2.8257,-2.8204,-2.8241,-2.838,-2.8338,-2.8264,-2.8347,-2.8392,-2.826,-2.8343,-2.8384,-2.8366,-2.8402,-2.847,-2.8416,-2.8438,-2.8504,-2.8402,-2.8466,-2.8476,-2.8589,-2.8601,-2.8548,-2.85,-2.8499,-2.8517,-2.8551,-2.8516,-2.8582,-2.8491,-2.8505,-2.8561,-2.8537,-2.859,-2.8485,-2.8552,-2.855,-2.8523,-2.8597,-2.8491,-2.8379,-2.8287,-2.825,-2.8299,-2.8183,-2.8101,-2.7962,-2.7911,-2.7615,-2.7634,-2.7689,-2.7995,-2.7973,-2.8174,-2.8179,-2.8357,-2.8539,-2.8423,-2.8579,-2.8483,-2.855,-2.8489,-2.858,-2.8638,-2.8682,-2.8451,-2.8598,-2.8598,-2.8455,-2.8562,-2.8666,-2.8636,-2.8341,-2.7184,-2.5437,-2.3627,-2.2806,-2.1349,-2.2052,-2.5183,-2.9652,-3.3205,-3.2157,-3.1056,-3.0477,-2.966,-2.9036,-2.8746,-2.8522,-2.8434,-2.8313,-2.8225,-2.8205,-2.8226,-2.8207,-2.8094,-2.8064,-2.8119,-2.8168,-2.8183,-2.8173,-2.8046,-2.7975,-2.7999,-2.8119,-2.8164,-2.8133,-2.8118,-2.8074,-2.8083,-2.8035,-2.7823,-2.7844,-2.7923,-2.7839,-2.7748,-2.7794,-2.7748,-2.7672,-2.7595,-2.7486,-2.7392,-2.7271,-2.7225,-2.706,-2.6925,-2.6714,-2.6595,-2.6525,-2.645,-2.6265,-2.5962,-2.5737,-2.5642,-2.545,-2.5227,-2.5109,-2.497,-2.4741,-2.4501,-2.4428,-2.427,-2.42,-2.419,-2.4088,-2.4025,-2.3955,-2.3922,-2.4127,-2.4282,-2.4565,-2.4821,-2.5263,-2.5638,-2.6147,-2.6619,-2.6817,-2.716,-2.7547,-2.7736,-2.8002,-2.8189,-2.8396,-2.8457,-2.8569,-2.8704,-2.8753,-2.885,-2.8881,-2.8795,-2.8833,-2.8995,-2.8981,-2.8981,-2.8957,-2.8957,-2.8959,-2.8963,-2.8953,-2.8936,-2.8891,-2.8955,-2.9009,-2.893,-2.8898,-2.8959,-2.8871,-2.881,-2.8802,-2.8745,-2.8674,-2.8581,-2.8671,-2.8656,-2.8689,-2.8644,-2.8682,-2.8622,-2.8612,-2.868,-2.8728,-2.8709,-2.8719,-2.8729,-2.8768,-2.8647,-2.8761,-2.8764,-2.8723,-2.8824,-2.8831,-2.8748,-2.8697,-2.8798,-2.8792,-2.8762,-2.8802,-2.8847,-2.8773,-2.8719,-2.8679,-2.8797,-2.8744,-2.8666,-2.8639,-2.8745,-2.8748,-2.8689,-2.8633,-2.8709,-2.8698,-2.8682,-2.871,-2.8715,-2.8484,-2.8328,-2.8311,-2.8291,-2.8449,-2.8516,-2.8219,-2.7993,-2.7912,-2.7639,-2.7693,-2.8128,-2.8242,-2.8288,-2.8395,-2.8441,-2.8538,-2.8635,-2.8667,-2.8732,-2.8594,-2.8638,-2.8647,-2.8725,-2.8573,-2.8695,-2.8699,-2.8763,-2.8553,-2.8557,-2.855,-2.8553,-2.8771,-2.8485,-2.7795,-2.6079,-2.4485,-2.2909,-2.1615,-2.3153,-2.7228,-3.1045,-3.271,-3.2151,-3.1069,-3.0492,-3.0052,-2.9191,-2.8857,-2.8648,-2.8499,-2.8336,-2.8176,-2.8196,-2.8218,-2.8197,-2.8167,-2.806,-2.7959,-2.8089,-2.8232,-2.8054,-2.7926,-2.7954,-2.8043,-2.7976,-2.7933,-2.7862,-2.7768,-2.7865,-2.788,-2.7588,-2.7619,-2.7557,-2.7207,-2.714,-2.7188,-2.7152,-2.7037,-2.7041,-2.6964,-2.6722,-2.6685,-2.6634,-2.6328,-2.6116,-2.5882,-2.5858,-2.5884,-2.5652,-2.549,-2.5275,-2.5,-2.4843,-2.4643,-2.4486,-2.4201,-2.3934,-2.3821,-2.3607,-2.3375,-2.3373,-2.3381,-2.3275,-2.3005,-2.2978,-2.3073,-2.3079,-2.3333,-2.3314,-2.3472,-2.3931,-2.4123,-2.4311,-2.5067,-2.526,-2.5554,-2.609,-2.6345,-2.6586,-2.6747,-2.7064,-2.7032,-2.7097,-2.7086,-2.7122,-2.7226,-2.7344,-2.7368,-2.7483,-2.7473,-2.7556,-2.7501,-2.7594,-2.7522,-2.7518,-2.7366,-2.7244,-2.7316,-2.7369,-2.7296,-2.7119,-2.7176,-2.7148,-2.7087,-2.7162,-2.727,-2.7182,-2.7128,-2.723,-2.7068,-2.6841,-2.6874,-2.6973,-2.7201,-2.7229,-2.7243,-2.7275,-2.7179,-2.7048,-2.7096,-2.7265,-2.7253,-2.7259,-2.7168,-2.7309,-2.7406,-2.7271,-2.738,-2.743,-2.7507,-2.7469,-2.7424,-2.7557,-2.7633,-2.7492,-2.7346,-2.7223,-2.7077,-2.705,-2.7105,-2.7248,-2.7347,-2.6986,-2.6543,-2.6321,-2.6581,-2.6928,-2.7061,-2.7115,-2.7187,-2.7329,-2.7442,-2.7503,-2.7727,-2.7843,-2.777,-2.7689,-2.7674,-2.7671,-2.7702,-2.7807,-2.7792,-2.7834,-2.7756,-2.7714,-2.7848,-2.7839,-2.7965,-2.7856,-2.7951,-2.7608,-2.6524,-2.4896,-2.3177,-2.1186,-2.0849,-2.3239,-2.7859,-3.2002,-3.2033,-3.091,-3.054,-2.9781,-2.916,-2.8531,-2.8194,-2.8039,-2.7775,-2.7802,-2.7722,-2.7709,-2.7862,-2.7828,-2.7863,-2.783,-2.7856,-2.7792,-2.7819,-2.7702,-2.7742,-2.7852,-2.7795,-2.7691,-2.7693,-2.7665,-2.7654,-2.7649,-2.7565,-2.7589,-2.7585,-2.7658,-2.7558,-2.7549,-2.7638,-2.7563,-2.7351,-2.7388,-2.7409
