3.1705,3.1762,3.1759,3.1687,3.1793,3.1698,3.1983,3.2034,3.2145,3.2203,3.2357,3.2512,3.2684,3.2734,3.2842,3.3128,3.332,3.3414,3.3463,3.367,3.3706,3.3934,3.3883,3.397,3.4036,3.3972,3.3923,3.403,3.3699,3.3683,3.3362,3.3254,3.2864,3.278,3.2631,3.2421,3.2333,3.218,3.2304,3.2369,3.2414,3.2548,3.2389,3.2394,3.2232,3.2301,3.2103,3.2197,3.2055,3.2011,3.1983,3.1916,3.2087,3.2,3.2037,3.2011,3.183,3.1901,3.1897,3.1823,3.1866,3.1909,3.1912,3.1875,3.1885,3.1826,3.1787,3.2001,3.1996,3.1769,3.1894,3.1925,3.2039,3.1924,3.1888,3.1974,3.1957,3.1895,3.2041,3.1991,3.2178,3.2221,3.2406,3.2376,3.2237,3.2413,3.2457,3.271,3.2934,3.291,3.3065,3.2976,3.2922,3.2862,3.2651,3.2311,3.1891,3.1712,3.1707,3.1627,3.1662,3.154,3.1413,3.1544,3.1437,3.1508,3.1535,3.1367,3.1448,3.1462,3.1372,3.13,3.1511,3.133,3.036,2.9864,2.9937,3.1183,3.4277,3.8183,4.2574,4.4908,4.8146,4.8272,4.5558,4.0963,3.6325,3.4035,3.2921,3.2416,3.1983,3.1938,3.1523,3.1562,3.1307,3.1481,3.1371,3.1429,3.1355,3.1431,3.1161,3.1449,3.1372,3.1485,3.1276,3.1389,3.1434,3.1521,3.1325,3.1466,3.1602,3.1582,3.153,3.1614,3.1659,3.1682,3.1715,3.1735,3.1844,3.1897,3.2013,3.1956,3.1991,3.2122,3.2143,3.2247,3.2335,3.239,3.268,3.28,3.2836,3.2927,3.3081,3.322,3.3346,3.3529,3.3597,3.3737,3.3854,3.3857,3.3799,3.3898,3.398,3.3816,3.3711,3.3517,3.3379,3.3224,3.2996,3.2796,3.2614,3.2462,3.2212,3.2093,3.2156,3.1953,3.1869,3.1923,3.1809,3.1799,3.1833,3.173,3.1765,3.1683,3.1639,3.1824,3.1706,3.174,3.1785,3.1797,3.1698,3.1736,3.1688,3.1653,3.1771,3.1699,3.1655,3.1768,3.1831,3.169,3.1761,3.158,3.1768,3.1671,3.1736,3.1747,3.1863,3.1826,3.1746,3.1678,3.1811,3.176,3.1785,3.1707,3.165,3.1828,3.1901,3.1975,3.209,3.215,3.2079,3.2163,3.228,3.2492,3.2793,3.2879,3.3017,3.2837,3.2865,3.2855,3.261,3.2435,3.2061,3.1605,3.162,3.1529,3.1529,3.1461,3.1452,3.1382,3.1332,3.1418,3.1299,3.1231,3.1273,3.1388,3.1422,3.1357,3.1336,3.1234,3.0571,2.9773,2.9676,3.0619,3.3296,3.7243,4.1497,4.5606,4.8432,4.7592,4.3981,3.8874,3.5012,3.3861,3.2849,3.1992,3.1809,3.1705,3.1411,3.1362,3.1395,3.1342,3.1313,3.1285,3.1136,3.1055,3.1131,3.1181,3.12,3.1256,3.1228,3.1362,3.1318,3.1184,3.1117,3.1371,3.1349,3.1219,3.1315,3.1303,3.1428,3.1455,3.1449,3.1597,3.1493,3.1583,3.1532,3.1668,3.1665,3.1795,3.1813,3.2069,3.205,3.2142,3.2295,3.2367,3.2399,3.2576,3.2906,3.2864,3.2918,3.3383,3.332,3.3287,3.327,3.3485,3.3551,3.3562,3.3418,3.3479,3.3386,3.3295,3.2991,3.2842,3.2724,3.2501,3.2438,3.2094,3.2015,3.1893,3.1725,3.1589,3.1663,3.1558,3.1531,3.1614,3.1487,3.1376,3.1498,3.1376,3.1565,3.1493,3.1469,3.1411,3.1518,3.1475,3.1425,3.1554,3.1473,3.129,3.1558,3.1516,3.1714,3.169,3.1579,3.1529,3.1397,3.1637,3.1409,3.1471,3.1765,3.153,3.1513,3.1622,3.164,3.153,3.1485,3.1528,3.1525,3.1819,3.1846,3.1948,3.1947,3.1903,3.2118,3.22,3.2311,3.263,3.2636,3.2757,3.2693,3.2642,3.2512,3.2443,3.2341,3.1994,3.1705,3.1612,3.1319,3.1223,3.1219,3.1366,3.1239,3.111,3.1242,3.1082,3.1116,3.112,3.1241,3.1127,3.112,3.1183,3.1028,3.025,2.9801,2.9538,2.9749,3.2027,3.5335,3.971,4.4171,4.7511,4.7408,4.4894,4.0006,3.5695,3.3573,3.2632,3.2052,3.1714,3.1533,3.12,3.139,3.1169,3.1243,3.11,3.1109,3.0939,3.1096,3.103,3.1188,3.0934,3.1057,3.1038,3.1111,3.104,3.1247,3.1158,3.1332,3.1226,3.1261,3.1306,3.1294,3.1268,3.1221,3.1346,3.1379,3.1488,3.1638,3.1588,3.1606,3.171,3.1724,3.1783,3.189,3.2035,3.2143,3.2204,3.2295,3.2556,3.2699,3.2838,3.2904,3.2943,3.2982,3.3112,3.332,3.3279,3.337,3.3414,3.3466,3.3472,3.3426,3.3266,3.3048,3.2963,3.2786,3.2566,3.2204,3.2326,3.2069,3.191,3.175,3.1601,3.1586,3.158,3.1578,3.1418,3.1377,3.1391,3.1426,3.1364,3.1409,3.1395,3.1343,3.1382,3.1434,3.1454,3.1204,3.137,3.1354,3.1356,3.137,3.148,3.135,3.1399,3.1326,3.1477,3.1374,3.1329,3.1444,3.1411,3.1537,3.1392,3.1189,3.1842,3.1664,3.1425,3.209,3.2043,3.1991,3.2111,3.2255,3.2462,3.2403,3.2439,3.2639,3.2627,3.2479,3.252,3.2338,3.2175,3.1811,3.1593,3.1354,3.1293,3.1208,3.1105,3.1153,3.117,3.113,3.1047,3.1074,3.1103,3.1043,3.104,3.1047,3.0995,3.0919,3.0933,3.0492,2.9518,2.9324,3.0107,3.2608,3.6162,4.0487,4.4439,4.702,4.6471,4.3369,3.8416,3.4689,3.3167,3.2173,3.1849,3.1506,3.1448,3.1258,3.1199,3.0992,3.0996,3.0732,3.0906,3.0831,3.0739,3.0988,3.0998,3.086,3.0876,3.0931,3.0947,3.0946,3.0909,3.0948,3.1117,3.1018,3.1097,3.116,3.1201,3.121,3.1145,3.1208,3.1183,3.1368,3.1499,3.1385,3.1447,3.166,3.1672,3.1706,3.1777,3.1924,3.1976,3.1989,3.208,3.2325,3.2483,3.2505,3.2688,3.275,3.2879,3.2855,3.2987,3.3154,3.3163,3.3193,3.3111,3.3014,3.2899,3.2801,3.2672,3.2593,3.237,3.2172,3.2073,3.1931,3.1732,3.1568,3.1542,3.1502,3.1315,3.1251,3.1202,3.1122,3.1187,3.1203,3.1183,3.1181,3.112,3.1014,3.0955,3.1162,3.098,3.1038,3.1112,3.115,3.1236,3.1409,3.1332,3.115,3.1319,3.1331,3.1347,3.1387,3.1214,3.1375,3.1295,3.1476,3.1357,3.1258,3.1253,3.1192,3.1458,3.1642,3.1557,3.164,3.1652,3.178,3.1773,3.1887,3.1984,3.2065,3.2183,3.2397,3.2371,3.2311,3.2204,3.2132,3.2127,3.1911,3.1531,3.1352,3.1069,3.107,3.1127,3.1199,3.1013,3.095,3.1005,3.0991,3.0966,3.0903,3.0891,3.0872,3.0786,3.0812,3.0821,3.0756,3.0132,2.9326,2.9343,3.0265,3.3052,3.6749,4.1113,4.3344,4.6688,4.7202,4.502,4.0399,3.592,3.3468,3.2323,3.1943,3.1545,3.1552,3.0982,3.1208,3.0882,3.0893,3.0645,3.0806,3.0724,3.0796,3.0749,3.092,3.0674,3.1014,3.0804,3.0966,3.073,3.0757,3.099,3.1095,3.1094,3.1029,3.0985,3.115,3.1246,3.1249,3.1179,3.1257,3.1304,3.1379,3.1402,3.1371,3.1309,3.1365,3.1602,3.1795,3.1837,3.1837,3.1963,3.2108,3.2124,3.2306,3.2503,3.2571,3.2829,3.294,3.2968,3.2979,3.301,3.3019,3.3133,3.3039,3.312,3.3026,3.3059,3.2742,3.2512,3.2367,3.2287,3.1943,3.196,3.1719,3.1597,3.1487,3.1438,3.1322,3.1377,3.135,3.1218,3.1163,3.1274,3.1355,3.1196,3.125,3.1275,3.1314,3.1199,3.1146,3.1236,3.1196,3.1336,3.1284,3.1295,3.1265,3.1259,3.1208,3.1216,3.1222,3.1277,3.1291,3.1391,3.1217,3.1284,3.1246,3.1337,3.1354,3.1404,3.1402,3.1396,3.1364,3.134,3.1263,3.1454,3.1364,3.1309,3.1383,3.1571,3.1713,3.163,3.1836,3.1784,3.1771,3.1885,3.1969,3.2297,3.2315,3.2524,3.2241,3.2297,3.2355,3.2173,3.1921,3.1749,3.1436,3.1294,3.1238,3.1164,3.1277,3.1334,3.1196,3.1074,3.1178,3.11,3.113,3.1123,3.1144,3.1085,3.1067,3.1001,3.1001,3.0591,2.9786,2.9529,2.9662,3.1771,3.512,3.9246,4.3339,4.6181,4.6351,4.5605,4.1766,3.511,3.3902,3.2991,3.2193,3.1728,3.1579,3.1582,3.137,3.1247,3.107,3.1158,3.1078,3.0999,3.1026,3.1117,3.1134,3.1156,3.1111,3.1179,3.11,3.1141,3.1124,3.123,3.122,3.1334,3.1339,3.1465,3.14,3.1383,3.1323,3.1409,3.1633,3.1728,3.168,3.1788,3.1775,3.1776,3.1938,3.1978,3.1969,3.2142,3.2226,3.2136,3.2398,3.2725,3.2739,3.2913,3.3136,3.3208,3.3283,3.3256,3.335,3.3511,3.3586,3.3534,3.3589,3.3603,3.3501,3.3297,3.328,3.3008,3.2978,3.2904,3.2577,3.2269,3.2059,3.1912,3.2142,3.193,3.1732,3.1679,3.1629,3.1701,3.1648,3.1669,3.1651,3.159,3.1505,3.1547,3.1541,3.152,3.1613,3.136,3.1536,3.1542,3.1473,3.14,3.1627,3.1461,3.1645,3.1587,3.1663,3.1758,3.1629,3.1594,3.169,3.159,3.1789,3.1771,3.1854,3.174,3.1597,3.1766,3.1843,3.2027,3.2097,3.217,3.216,3.2325,3.2211,3.2423,3.2766,3.2826,3.2859,3.2684,3.2662,3.2671,3.2459,3.227,3.1959,3.1823,3.1657,3.1565,3.1426,3.1513,3.1448,3.1395,3.1347,3.1328,3.1238,3.1444,3.1188,3.1288,3.1453,3.1292,3.134,3.1309,3.091,2.9876,2.9697,2.9993,3.0858,3.3632,3.7803,4.1975,4.5559,4.7196,4.6032,4.2078,3.7182,3.4084,3.2923,3.2398,3.1899,3.1707,3.1469,3.1502,3.1397,3.134,3.1155,3.1154,3.1241,3.1212,3.1188,3.1159,3.106,3.1219,3.1284,3.1311,3.1319,3.129,3.1287,3.1392,3.1396,3.1346,3.1262,3.1464,3.1342,3.1313,3.1646,3.1534,3.1617,3.1736,3.178,3.1735,3.1841,3.1949,3.2044,3.218,3.2166,3.2238,3.2309,3.2569,3.2593,3.2714,3.3021,3.3128,3.319,3.3262,3.342,3.3414,3.3521,3.3568,3.3603,3.3583,3.3494,3.3533,3.3307,3.3183,3.2989,3.2873,3.2601,3.241,3.2235,3.214,3.1919,3.1694,3.1668,3.1696,3.1581,3.1547,3.1601,3.1579,3.1542,3.1396,3.1469,3.149,3.1482,3.158,3.1459,3.1347,3.1332,3.1366,3.1389,3.143,3.1493,3.143,3.1519,3.1432,3.133,3.1439,3.1559,3.1249,3.1306,3.145,3.1534,3.1533,3.1489,3.147,3.1486,3.1619,3.154,3.1576,3.1573,3.1525,3.1512,3.1496,3.1469,3.1496,3.1578,3.1663,3.1747,3.163,3.1821,3.1999,3.1944,3.1997,3.2245,3.2318,3.2625,3.2496,3.2406,3.2584,3.2569,3.2333,3.2079,3.174,3.1478,3.146,3.1335,3.131,3.1265,3.1243,3.1237,3.1093,3.1086,3.1119,3.1093,3.1062,3.109,3.1036,3.1045,3.1025,3.1126,3.0854,3.0172,2.9474,2.952,3.0633,3.3266,3.6974,4.1553,4.5425,4.6889,4.6941,4.4953,4.0223,3.5926,3.343,3.257,3.1885,3.1657,3.1436,3.1278,3.1142,3.1039,3.0995,3.1003,3.1014,3.0948,3.0933,3.094,3.1095,3.0965,3.0957,3.095,3.0995,3.1,3.1051,3.1065,3.1079,3.1126,3.1112,3.1135,3.1228,3.1249,3.1324,3.1268,3.1468,3.1319,3.1493,3.1495,3.157,3.1584,3.1677,3.1696,3.1904,3.1941,3.2042,3.2064,3.2358,3.2548,3.257,3.2786,3.2917,3.2934,3.3094,3.3202,3.3349,3.3377,3.3491,3.3345,3.3355,3.3323,3.3425,3.3294,3.3059,3.2889,3.2752,3.2572,3.2373,3.2078,3.1931,3.186,3.1777,3.1635,3.1548,3.1461,3.1451,3.141,3.1384,3.136,3.1358,3.1357,3.1314,3.1247,3.1298,3.1379,3.1311,3.1333,3.1345,3.137,3.134,3.1374,3.119,3.1165,3.1365,3.1462,3.1344,3.1434,3.1395,3.1374,3.1426,3.1411,3.1347,3.1485,3.1484,3.1441,3.1443,3.137,3.1409,3.1352,3.1452,3.1457,3.1477,3.1438,3.1431,3.1426,3.1327,3.1416,3.1399,3.1421,3.1464,3.1339,3.1286,3.1346,3.1399,3.1312,3.1263,3.136,3.1349,3.1379,3.137,3.1605,3.1622,3.1709,3.1751,3.1555,3.1859,3.2069,3.2231,3.2487,3.2448,3.2415,3.2437,3.2335,3.2306,3.2284,3.2051,3.1859,3.1491,3.1322,3.1144,3.1166,3.1204,3.1094,3.1066,3.1105,3.1101,3.1163,3.1157,3.1111,3.1071,3.1157,3.0945,3.1069,3.1035,3.0846,2.9681,2.9488,2.9698,3.1426,3.4479,3.84,4.2745,4.6269,4.7321,4.565,4.1468,3.6682,3.3755,3.2715,3.2186,3.1546,3.1614,3.1491,3.1342,3.1073,3.1213,3.1148,3.1153,3.107,3.1092,3.0999,3.1063,3.1051,3.1216,3.1136,3.1137,3.1126,3.1056,3.112,3.1043,3.1271,3.1356,3.1322,3.1343,3.1397,3.1367,3.128,3.1404,3.134,3.1618,3.1558,3.1664,3.159,3.1806,3.1819,3.1906,3.2111,3.2116,3.2255,3.233,3.2484,3.2642,3.2782,3.291,3.3077,3.3055,3.3342,3.3379,3.3484,3.3489,3.3574,3.361,3.355,3.353,3.3599,3.3427,3.3398,3.3026,3.2766,3.2779,3.2407,3.235,3.2165,3.2061,3.196,3.1841,3.1581,3.1472,3.1406,3.1675,3.1579,3.1471,3.1328,3.1437,3.1566,3.1416,3.1563,3.1467,3.1477,3.1444,3.1391,3.1477,3.154,3.153,3.157,3.142,3.1386,3.1512,3.1456,3.1492,3.1526,3.1421,3.1496,3.1535,3.1631,3.1465,3.1421,3.1506,3.1454,3.1497,3.1553,3.1706,3.1659,3.1565,3.1498,3.1449,3.145,3.1455,3.1456,3.1479,3.15,3.1427,3.1325,3.1357,3.1349,3.1332,3.1371,3.1392,3.1436,3.15,3.1615,3.1629,3.1672,3.1767,3.1792,3.1815,3.2076,3.2162,3.2418,3.2368,3.2416,3.2435,3.2354,3.2234,3.2048,3.1795,3.1656,3.143,3.1289,3.1337,3.1135,3.1082,3.1065,3.1283,3.1088,3.114,3.1116,3.1015,3.11,3.1158,3.1049,3.1008,3.1045,3.0962,3.043,2.9574,2.9457,2.9865,3.216,3.5414,3.9639,4.3432,4.5138,4.6543,4.5389,4.1222,3.6524,3.3883,3.2794,3.2051,3.1603,3.1486,3.1319,3.1127,3.1,3.1004,3.1061,3.1242,3.106,3.1045,3.099,3.0992,3.0984,3.1113,3.1046,3.0976,3.1136,3.107,3.096,3.1013,3.1081,3.1162,3.1196,3.122,3.1265,3.1223,3.1284,3.1386,3.1412,3.1371,3.147,3.1452,3.1686,3.1674,3.1643,3.1669,3.1829,3.1991,3.2063,3.2219,3.2449,3.2511,3.2567,3.2791,3.2931,3.2991,3.3242,3.3226,3.3268,3.3401,3.3514,3.3532,3.3376,3.3473,3.3352,3.3127,3.2944,3.2724,3.2537,3.2181,3.2097,3.1997,3.1792,3.1689,3.1537,3.1425,3.1309,3.1137,3.1121,3.114,3.1061,3.1145,3.1166,3.1136,3.1011,3.0902,3.1018,3.1065,3.0989,3.0933,3.0977,3.1022,3.0996,3.0926,3.0988,3.0876,3.0954,3.1123,3.1095,3.0957,3.102,3.1035,3.1114,3.1097,3.1028,3.1044,3.1048,3.1024,3.1055,3.1101,3.1075,3.1129,3.1007,3.1099,3.1057,3.1035,3.098,3.0954,3.1085,3.109,3.1158,3.1211,3.1199,3.123,3.1299,3.1293,3.1417,3.1532,3.1762,3.192,3.1965,3.1995,3.186,3.1811,3.1933,3.1633,3.1206,3.1087,3.0862,3.0726,3.0624,3.0589,3.0596,3.0615,3.0621,3.0535,3.0382,3.0533,3.0465,3.0418,3.0405,3.0302,3.0479,3.0386,3.0474,3.0055,2.9002,2.8686,2.9046,3.1099,3.4433,3.8337,4.2748,4.6091,4.677,4.5629,4.2182,3.716,3.3674,3.2313,3.1568,3.1063,3.0949,3.0643,3.0476,3.0313,3.0315,3.0241,3.0308,3.022,3.0247,3.0211,3.0298,3.0124,3.0197,3.0332,3.0243,3.0339,3.0474,3.0222,3.039,3.0277,3.0426,3.0424,3.0374,3.0473,3.0481,3.0611,3.062,3.0633,3.0655,3.0728,3.064,3.0736,3.0822,3.091,3.0919,3.0965,3.115,3.1242,3.137,3.1579,3.1689,3.1728,3.1909,3.2124,3.209,3.2258,3.246,3.2522,3.2483,3.2589,3.2528,3.2629,3.2681,3.2486,3.2153,3.2089,3.2003,3.1784,3.1566,3.1203,3.1029,3.0966,3.0832,3.0666,3.0631,3.0613,3.042,3.0465,3.0463,3.0376,3.0394,3.0362,3.0373,3.0344,3.0316,3.0304,3.0316,3.0327,3.0399,3.0325,3.0312,3.0374,3.0308,3.0282,3.0283,3.0367,3.0373,3.0296,3.0374,3.0354,3.0325,3.027,3.0297,3.0427,3.0326,3.0409,3.0486,3.0374,3.0385,3.0277,3.0439,3.0464,3.0172,3.0534,3.0429,3.0432,3.0334,3.0424,3.0454,3.0438,3.0389,3.0358,3.0393,3.0396,3.0353,3.0315,3.026,3.0354,3.0273,3.0374,3.0285,3.0191,3.028,3.0227,3.0321,3.0238,3.022,3.0237,3.0218,3.0305,3.0256,3.0278,3.0327,3.0418,3.0644,3.0709,3.0701,3.0629,3.0654,3.0984,3.0984,3.1202,3.1252,3.1253,3.1142,3.1235,3.1284,3.106,3.0761,3.0441,3.0262,3.0174,3.0079,3.0049,3.0067,3.0018,3.0053,2.9957,2.9918,2.9989,3.0078,2.9932,2.9939,2.9925,2.9955,2.9898,2.9672,2.8798,2.8416,2.8558,3.0023,3.2747,3.6704,3.8949,4.305,4.6169,4.5788,4.3444,3.846,3.4405,3.216,3.1333,3.0723,3.0532,3.0273,3.0152,3.0044,3.002,2.996,3.0054,2.9794,2.9858,2.9915,2.9935,2.9862,2.9871,2.9786,2.9939,2.9969,2.9979,2.9925,2.9937,3.0128,3.0101,2.9969,3.0009,3.006,3.0162,3.0291,3.0276,3.0235,3.0235,3.0394,3.042,3.0503,3.0475,3.0556,3.0607,3.077,3.0863,3.1007,3.0947,3.1168,3.1369,3.1543,3.1583,3.1831,3.192,3.1984,3.2177,3.234,3.2424,3.2549,3.2629,3.2567,3.2595,3.2611,3.2516,3.2296,3.2201,3.2096,3.171,3.1567,3.1368,3.1047,3.0999,3.0881,3.0782,3.0619,3.0445,3.0418,3.0392,3.0306,3.025,3.0288,3.028,3.0239,3.0384,3.025,3.0183,3.0137,3.0278,3.0237,3.0265,3.0307,3.0197,3.0274,3.0177,3.0274,3.0175,3.0317,3.0267,3.0236,3.0248,3.0269,3.0255,3.0354,3.0306,3.0354,3.0407,3.0279,3.0326,3.0324,3.0221,3.0301,3.0354,3.028,3.0311,3.0422,3.0357,3.0294,3.0218,3.0283,3.0242,3.0147,3.0253,3.0244,3.0269,3.0226,3.0213,3.0163,3.0284,3.0345,3.0308,3.0207,3.0165,3.0243,3.0189,3.0155,3.0236,3.0171,3.0196,3.0216,3.0212,3.036,3.0368,3.0515,3.0459,3.0522,3.07,3.0634,3.0668,3.0923,3.0992,3.1166,3.1212,3.1222,3.1324,3.1262,3.0956,3.0741,3.0585,3.0235,3.0167,3.0106,3.0225,3.0079,2.998,2.992,2.9865,2.9931,2.9976,2.9891,2.9839,2.9861,2.9891,2.9959,2.9932,2.9824,2.9249,2.8308,2.8304,2.8951,3.1566,3.3155,3.6852,4.1232,4.4713,4.5823,4.4228,4.0233,3.5393,3.2691,3.1569,3.11,3.0525,3.0414,3.0088,3.0159,2.9927,2.9921,2.9806,2.995,2.9838,2.9925,2.9804,2.9899,2.9862,2.9873,2.9827,2.9928,2.9807,3.0005,2.9986,2.9918,2.9964,3.0223,3.0021,2.9927,3.0062,3.0257,3.0273,3.0257,3.0185,3.0432,3.0316,3.0331,3.0415,3.0368,3.0587,3.0899,3.0841,3.0992,3.1007,3.107,3.1363,3.1306,3.1577,3.1802,3.1775,3.1858,3.1988,3.2234,3.2223,3.2454,3.2602,3.253,3.2452,3.2418,3.2412,3.2373,3.2272,3.194,3.1779,3.1574,3.1445,3.1073,3.0938,3.0739,3.0829,3.0549,3.0535,3.0279,3.0328,3.0296,3.0146,3.0165,3.0259,3.0093,3.0117,3.012,3.0222,3.0208,3.0167,3.0146,3.009,3.0178,3.0226,3.008,3.0133,3.0282,3.0172,3.0172,3.0344,3.0276,3.027,3.0149,3.0336,3.0307,3.0275,3.0298,3.0353,3.0401,3.0345,3.0275,3.027,3.0318,3.0359,3.0439,3.0467,3.0293,3.0259,3.0232,3.0234,3.0299,3.0285,3.0256,3.0266,3.0421,3.0246,3.0193,3.0311,3.0419,3.0381,3.0552,3.0625,3.0643,3.0593,3.0916,3.1108,3.1237,3.135,3.1175,3.1367,3.132,3.1307,3.1218,3.1105,3.0875,3.0504,3.036,3.0315,3.0215,3.0058,3.0032,3.0005,2.9895,3.0178,3.005,2.9946,3.0016,2.9959,2.9952,3.0027,3.004,2.9905,2.9888,2.9399,2.8567,2.8376,2.9057,3.1424,3.4945,3.908,4.2686,4.5096,4.487,4.1911,3.7016,3.339,3.2166,3.129,3.0874,3.0576,3.0327,3.035,3.0399,3.0105,3.0202,2.9947,2.9966,3.011,3.0087,3.0056,3.0107,3.0101,3.0073,3.0035,3.0213,3.007,3.0273,3.0164,3.025,3.0367,3.0364,3.0277,3.0223,3.0226,3.0425,3.0455,3.0496,3.0479,3.0625,3.0618,3.0769,3.0685,3.0792,3.0882,3.0946,3.115,3.1123,3.1298,3.1448,3.1589,3.1781,3.195,3.2008,3.2078,3.2285,3.2404,3.2469,3.2554,3.2644,3.2945,3.2958,3.2838,3.2738,3.2646,3.2542,3.2278,3.2068,3.1931,3.1578,3.1405,3.1144,3.1075,3.1087,3.0894,3.0921,3.0665,3.0589,3.0576,3.0575,3.037,3.0444,3.0445,3.0408,3.0484,3.0417,3.0384,3.0344,3.0489,3.0342,3.0444,3.0422,3.0476,3.0438,3.0417,3.0498,3.0429,3.0519,3.0535,3.0602,3.0538,3.0453,3.0569,3.0589,3.0578,3.05,3.0593,3.0585,3.0616,3.0575,3.0581,3.0646,3.069,3.0658,3.0566,3.0599,3.0747,3.089,3.1091,3.1027,3.0887,3.0947,3.1304,3.1544,3.1435,3.1471,3.1543,3.1517,3.1497,3.1603,3.1237,3.0915,3.0718,3.0523,3.0489,3.0419,3.0299,3.0295,3.0209,3.007,3.0178,3.0136,3.0306,3.0234,3.0304,3.0157,3.0168,3.0137,3.0211,3.0015,2.9029,2.8507,2.8737,3.0173,3.1511,3.484,3.9109,4.2975,4.5867,4.5684,4.3285,3.8193,3.4319,3.2275,3.1483,3.0894,3.0685,3.0538,3.0372,3.021,3.0066,3.0083,3.0115,3.0121,3.0128,3.0013,3.0044,3.0174,3.0125,3.0172,3.0043,3.0192,3.018,3.0222,3.0182,3.0232,3.0211,3.0398,3.0382,3.0279,3.0335,3.0529,3.053,3.0646,3.0652,3.0578,3.0613,3.0685,3.0679,3.0681,3.0992,3.1071,3.1131,3.1119,3.1299,3.1461,3.1612,3.1789,3.1947,3.2221,3.2261,3.238,3.2341,3.2658,3.2745,3.2741,3.2743,3.272,3.2794,3.27,3.2554,3.2421,3.2119,3.1883,3.1622,3.1573,3.1376,3.123,3.0947,3.0861,3.0736,3.059,3.0612,3.0639,3.0661,3.0514,3.0598,3.0493,3.0455,3.0538,3.0525,3.059,3.0491,3.0457,3.0515,3.0528,3.0428,3.0482,3.0436,3.0565,3.0606,3.0359,3.0444,3.0539,3.0645,3.0602,3.0502,3.0502,3.0708,3.0609,3.0561,3.0542,3.0655,3.0716,3.0635,3.0542,3.0693,3.0602,3.0542,3.0629,3.0682,3.0647,3.0572,3.0641,3.0704,3.0686,3.0615,3.0603,3.0651,3.0692,3.0774,3.0955,3.0887,3.1026,3.1068,3.1195,3.1361,3.1394,3.1538,3.1582,3.1637,3.1691,3.1636,3.1436,3.1197,3.1043,3.0739,3.057,3.0457,3.0429,3.0456,3.0396,3.0348,3.0369,3.0232,3.0268,3.0267,3.0201,3.0303,3.0304,3.0345,3.0328,3.0259,3.0102,2.9226,2.8836,2.8719,2.9093,3.136,3.4632,3.8691,4.3038,4.609,4.6294,4.4188,3.9482,3.4916,3.2686,3.1714,3.1091,3.0811,3.0559,3.0469,3.0457,3.0272,3.0294,3.022,3.0224,3.0178,3.0221,3.015,3.0167,3.0208,3.0312,3.0207,3.021,3.0236,3.0274,3.0289,3.0205,3.0285,3.0351,3.0431,3.0425,3.036,3.0406,3.0524,3.0669,3.0627,3.0663,3.0698,3.0607,3.0889,3.0902,3.1073,3.1103,3.12,3.1374,3.14,3.1595,3.1696,3.1763,3.1959,3.2242,3.2299,3.2443,3.2521,3.2594,3.2624,3.2783,3.2867,3.2904,3.297,3.2858,3.2778,3.2609,3.2402,3.2153,3.2044,3.1816,3.1409,3.1341,3.1229,3.0983,3.0971,3.0936,3.0907,3.0781,3.0712,3.0602,3.0646,3.065,3.0607,3.0769,3.0662,3.0611,3.067,3.067,3.0694,3.0619,3.0631,3.0636,3.0678,3.0728,3.0668,3.073,3.0707,3.0703,3.0647,3.0654,3.0795,3.0588,3.0554,3.0684,3.0699,3.0757,3.0695,3.0787,3.073,3.0836,3.072,3.0726,3.0814,3.0686,3.0731,3.0601,3.0618,3.076,3.0796,3.0734,3.0688,3.0591,3.0723,3.0735,3.0756,3.0784,3.0719,3.0635,3.0678,3.0652,3.0759,3.0578,3.0645,3.0704,3.0713,3.0759,3.0616,3.0602,3.0737,3.0657,3.0835,3.0832,3.0891,3.1061,3.1097,3.1163,3.1124,3.1179,3.1478,3.1572,3.1619,3.1651,3.164,3.1599,3.1792,3.1606,3.142,3.1215,3.105,3.0861,3.0678,3.0665,3.0371,3.0588,3.0524,3.0512,3.0443,3.0355,3.0351,3.0421,3.0509,3.0399,3.043,3.055,3.0411,3.0206,2.9141,2.8789,2.8805,2.9688,3.2288,3.5946,4.0146,4.4121,4.6692,4.6256,4.319,3.8228,3.4338,3.2599,3.1761,3.1226,3.0906,3.0917,3.0785,3.0775,3.059,3.0496,3.0434,3.0513,3.0494,3.06,3.0476,3.0577,3.0441,3.0598,3.0643,3.06,3.0605,3.0653,3.0572,3.0648,3.0707,3.0769,3.0799,3.081,3.0903,3.1,3.0838,3.0849,3.107,3.0941,3.1143,3.1206,3.1267,3.1364,3.131,3.1396,3.1581,3.1571,3.1677,3.1972,3.2182,3.2318,3.2407,3.2487,3.2749,3.2898,3.2857,3.311,3.3191,3.3175,3.3235,3.33,3.3331,3.335,3.3262,3.3242,3.2949,3.2696,3.2607,3.2388,3.2162,3.1867,3.1822,3.1745,3.1632,3.1324,3.1225,3.1102,3.1132,3.116,3.1217,3.1044,3.1035,3.0981,3.0962,3.1148,3.1108,3.1041,3.1105,3.1074,3.1061,3.0979,3.1149,3.105,3.111,3.1166,3.109,3.1181,3.1086,3.1128,3.1148,3.1262,3.1282,3.1201,3.1235,3.1324,3.1169,3.1163,3.1262,3.1124,3.1069,3.1273,3.1226,3.1299,3.131,3.122,3.1189,3.1179,3.1214,3.1162,3.1216,3.1249,3.1215,3.1201,3.1197,3.1128,3.1145,3.1262,3.1276,3.1231,3.1228,3.1084,3.1083,3.1141,3.118,3.1218,3.1263,3.1231,3.1224,3.1214,3.1407,3.1511,3.1574,3.1567,3.1595,3.1571,3.1894,3.198,3.2174,3.2132,3.2225,3.2233,3.2247,3.2115,3.1857,3.1525,3.1425,3.1436,3.1188,3.1101,3.1092,3.1136,3.1017,3.1038,3.0989,3.0945,3.1043,3.098,3.0897,3.0918,3.0954,3.1033,3.1032,3.0871,2.9983,2.9302,2.9366,2.9867,3.1995,3.5231,3.9353,4.3171,4.6049,4.6358,4.3942,3.913,3.5081,3.3347,3.2552,3.1851,3.1652,3.1415,3.1296,3.1211,3.1046,3.1028,3.0958,3.1199,3.1007,3.0918,3.1,3.0942,3.1002,3.1183,3.117,3.1159,3.0943,3.1105,3.1217,3.1204,3.1251,3.1458,3.1351,3.1399,3.1303,3.1322,3.1273,3.1565,3.1653,3.164,3.1538,3.1701,3.1769,3.1822,3.1861,3.2043,3.196,3.2254,3.2344,3.2366,3.2522,3.2919,3.2818,3.3238,3.3276,3.3402,3.339,3.3529,3.3615,3.3732,3.3833,3.3935,3.3847,3.3889,3.3821,3.3555,3.3521,3.3353,3.3072,3.2878,3.2557,3.239,3.2337,3.2008,3.1963,3.1862,3.1835,3.1697,3.1635,3.161,3.152,3.1654,3.1729,3.1462,3.1571,3.1515,3.1439,3.152,3.1539,3.144,3.1559,3.1479,3.1441,3.1409,3.1448,3.1586,3.1656,3.1515,3.1653,3.1546,3.1587,3.1513,3.1688,3.1729,3.163,3.1827,3.1629,3.1651,3.1753,3.1878,3.1674,3.1693,3.1787,3.1703,3.1749,3.1704,3.1762,3.1638,3.1657,3.1735,3.1694,3.1674,3.1658,3.1655,3.184,3.1843,3.2111,3.1886,3.197,3.2001,3.2405,3.2448,3.27,3.2625,3.2725,3.2719,3.2706,3.2609,3.2512,3.2396,3.1861,3.1946,3.1856,3.1574,3.1582,3.1503,3.1392,3.1373,3.1494,3.1388,3.1356,3.1535,3.133,3.1362,3.1378,3.1351,3.1377,3.1419,3.1227,3.0071,2.9837,3.0185,3.2147,3.5252,3.9056,4.3052,4.6032,4.6854,4.5056,4.0663,3.617,3.3685,3.2876,3.2353,3.191,3.2027,3.1793,3.1814,3.1599,3.1627,3.1379,3.1482,3.1498,3.1456,3.1366,3.1556,3.1457,3.1548,3.1405,3.16,3.1383,3.1631,3.1532,3.1584,3.1575,3.1595,3.173,3.1685,3.1641,3.1815,3.1685,3.1831,3.1871,3.1808,3.1946,3.195,3.2097,3.2114,3.2256,3.2263,3.2373,3.247,3.2706,3.2846,3.2826,3.3127,3.3079,3.3314,3.3448,3.3678,3.3866,3.3927,3.3992,3.3981,3.4159,3.4143,3.3957,3.4134,3.4078,3.383,3.3646,3.3406,3.325,3.2966,3.2857,3.2634,3.2405,3.2181,3.2142,3.2093,3.2023,3.1887,3.1904,3.1861,3.1839,3.1661,3.1758,3.1645,3.1824,3.1807,3.1831,3.1812,3.1785,3.1742,3.1699,3.1735,3.1664,3.1854,3.1922,3.1842,3.1812,3.1788,3.1726,3.1782,3.1849,3.1784,3.1813,3.1896,3.1847,3.2006,3.198,3.1796,3.1819,3.2005,3.1993,3.1916,3.1958,3.2015,3.202,3.209,3.2016,3.2079,3.2318,3.2376,3.2531,3.2435,3.2445,3.2677,3.2861,3.2924,3.2877,3.2942,3.3009,3.2817,3.2639,3.2594,3.2277,3.1989,3.2041,3.1845,3.1735,3.1701,3.1798,3.1612,3.1645,3.1696,3.162,3.15,3.1712,3.1585,3.1561,3.161,3.1511,3.1548,3.1521,3.0588,3.0019,3.0138,3.0633,3.2721,3.6077,4.0104,4.4144,4.7198,4.7292,4.497,4.0086,3.5906,3.3858,3.287,3.2505,3.2139,3.2066,3.1844,3.1729,3.1444,3.1572,3.1655,3.1639,3.1584,3.1547,3.1474,3.1411,3.1545,3.1627,3.1577,3.1795,3.1663,3.1536,3.1656,3.182,3.1751,3.1752,3.1835,3.184,3.1928,3.1889,3.2038,3.1927,3.1964,3.1977,3.1974,3.2376,3.2161,3.2385,3.2348,3.2366,3.2595,3.269,3.2892,3.2936,3.3117,3.3373,3.3431,3.3639,3.3852,3.3945,3.4014,3.4067,3.4238,3.4276,3.4377,3.4377,3.4411,3.4244,3.411,3.3856,3.3692,3.3564,3.347,3.299,3.2881,3.2771,3.2492,3.2519,3.2399,3.2315,3.2225,3.2148,3.2117,3.1996,3.2118,3.214,3.212,3.2023,3.202,3.1959,3.2073,3.2005,3.2021,3.2055,3.2076,3.2055,3.2198,3.2084,3.2103,3.2038,3.2024,3.2023,3.2004,3.2016,3.2152,3.2102,3.21,3.215,3.2105,3.2076,3.2222,3.2246,3.2083,3.2044,3.2123,3.2234,3.2225,3.2169,3.2151,3.2144,3.2157,3.2186,3.2061,3.2098,3.2104,3.2037,3.2215,3.2236,3.2029,3.2008,3.2013,3.2172,3.2209,3.2235,3.2246,3.2328,3.2416,3.2445,3.2519,3.2525,3.2658,3.283,3.2899,3.3007,3.3106,3.3044,3.3086,3.3107,3.3212,3.302,3.2581,3.2403,3.2142,3.2089,3.2097,3.1777,3.1835,3.2002,3.1947,3.1944,3.1937,3.1806,3.1787,3.1807,3.1853,3.1781,3.1774,3.1816,3.1772,3.1666,3.0598,3.0096,3.0425,3.2515,3.549,3.9353,4.3727,4.7228,4.811,4.6305,4.2112,3.7473,3.456,3.3888,3.3179,3.2517,3.2423,3.211,3.2151,3.1851,3.191,3.1795,3.1847,3.1789,3.1818,3.1852,3.1827,3.1832,3.1824,3.1767,3.1874,3.1889,3.1838,3.1765,3.1908,3.1837,3.2013,3.1894,3.2026,3.2089,3.2045,3.2175,3.2154,3.211,3.2219,3.2071,3.2309,3.2415,3.2504,3.2597,3.2739,3.2791,3.2734,3.285,3.3047,3.3128,3.333,3.371,3.3764,3.3812,3.3888,3.4181,3.4239,3.4397,3.44,3.4485,3.4508,3.4603,3.4446,3.4478,3.4284,3.4235,3.4033,3.391,3.369,3.3402,3.3107,3.2995,3.289,3.2636,3.244,3.2471,3.2473,3.2405,3.2301,3.2331,3.2265,3.2153,3.2335,3.2156,3.2295,3.2278,3.2302,3.2297,3.2165,3.2177,3.225,3.2284,3.219,3.2186,3.222,3.2211,3.2154,3.2274,3.2255,3.2276,3.2203,3.2269,3.2197,3.2202,3.2242,3.2216,3.2216,3.2243,3.2234,3.2337,3.2185,3.2167,3.2168,3.2167,3.2341,3.2343,3.2237,3.2235,3.2222,3.2239,3.2185,3.2275,3.2222,3.2197,3.2289,3.2169,3.2216,3.2069,3.2227,3.2242,3.228,3.2216,3.2144,3.2173,3.2161,3.2155,3.2047,3.2132,3.2253,3.2232,3.2259,3.2117,3.2135,3.2351,3.2491,3.2529,3.253,3.2745,3.2656,3.2669,3.2699,3.2973,3.3159,3.3119,3.3187,3.3126,3.3238,3.3129,3.2936,3.2845,3.2542,3.2354,3.2233,3.211,3.2046,3.2113,3.2075,3.191,3.1911,3.2007,3.1983,3.1917,3.1912,3.1987,3.1961,3.1977,3.1949,3.1924,3.1549,3.0633,3.0392,3.0805,3.2943,3.632,4.0267,4.4533,4.7821,4.8044,4.7205,4.3748,3.8616,3.5526,3.3879,3.3052,3.2635,3.2478,3.2284,3.2309,3.2023,3.1956,3.1879,3.1972,3.1934,3.2002,3.1952,3.194,3.1763,3.197,3.1898,3.1928,3.1946,3.1921,3.1943,3.2042,3.2095,3.2186,3.2088,3.207,3.2097,3.2298,3.2342,3.2144,3.2287,3.2274,3.2346,3.2402,3.2737,3.2629,3.2687,3.2714,3.2871,3.2885,3.308,3.3122,3.3231,3.3504,3.3578,3.3839,3.3892,3.4097,3.4285,3.4356,3.4474,3.456,3.4693,3.4632,3.4716,3.4639,3.4657,3.4641,3.4469,3.4164,3.4159,3.3918,3.3635,3.3428,3.3256,3.2911,3.2905,3.2811,3.2591,3.2502,3.2421,3.2498,3.2287,3.2314,3.2264,3.2301,3.2423,3.2376,3.243,3.2197,3.2168,3.2267,3.229,3.238,3.2421,3.2329,3.2231,3.2284,3.236,3.2276,3.2401,3.2412,3.2375,3.2277,3.2353,3.2331,3.2405,3.2475,3.2386,3.2345,3.2386,3.2417,3.2417,3.2305,3.2367,3.247,3.2333,3.2326,3.2287,3.2361,3.2328,3.232,3.2392,3.2256,3.2236,3.2398,3.2242,3.2271,3.2345,3.2226,3.2275,3.2273,3.21,3.2185,3.2259,3.215,3.2257,3.2201,3.2104,3.2197,3.2302,3.2314,3.2075,3.2228,3.2233,3.2172,3.2169,3.2224,3.225,3.2194,3.214,3.217,3.2275,3.2412,3.2483,3.247,3.263,3.2642,3.2575,3.2735,3.292,3.3157,3.3095,3.3075,3.3244,3.3118,3.3081,3.2948,3.2717,3.2473,3.2364,3.2204,3.1966,3.2026,3.2076,3.1884,3.185,3.1899,3.1942,3.1987,3.1867,3.1973,3.194,3.1831,3.1794,3.1912,3.1754,3.1087,3.0601,3.0337,3.0603,3.2399,3.5324,3.9273,4.336,4.6792,4.7733,4.6128,4.1791,3.7183,3.452,3.3454,3.2865,3.2549,3.2369,3.2043,3.2072,3.1958,3.1955,3.1868,3.1808,3.1735,3.1869,3.1736,3.1886,3.1969,3.1864,3.1815,3.1779,3.1911,3.1995,3.186,3.1898,3.1998,3.1957,3.2147,3.2102,3.2108,3.2114,3.2079,3.2236,3.2212,3.2206,3.2213,3.2312,3.2491,3.2426,3.25,3.2614,3.2697,3.2748,3.2969,3.3074,3.3131,3.3323,3.3589,3.3648,3.3755,3.392,3.3979,3.4257,3.4231,3.4415,3.447,3.4514,3.4551,3.4533,3.4507,3.4551,3.4312,3.3944,3.3837,3.3646,3.3437,3.3295,3.2995,3.2937,3.273,3.262,3.241,3.2401,3.2274,3.2273,3.2173,3.2102,3.2108,3.2037,3.2081,3.1981,3.1999,3.2091,3.2093,3.1951,3.2049,3.1926,3.2031,3.1937,3.1977,3.2031,3.2061,3.1937,3.2022,3.2061,3.201,3.2014,3.2035,3.2081,3.1935,3.199,3.2052,3.196,3.2103,3.2107,3.2058,3.2085,3.2114,3.1978,3.1968,3.2056,3.1981,3.1997,3.1923,3.1975,3.1968,3.1869,3.1811,3.2024,3.1967,3.1864,3.1915,3.1883,3.1916,3.1884,3.2008,3.1832,3.1815,3.1891,3.1992,3.1756,3.1682,3.1834,3.1906,3.203,3.2023,3.2198,3.2252,3.2285,3.2191,3.2343,3.2407,3.2582,3.2911,3.2991,3.2881,3.289,3.277,3.2633,3.2417,3.2237,3.2122,3.2092,3.1876,3.1865,3.1714,3.1746,3.1781,3.1692,3.157,3.1677,3.1619,3.1526,3.1568,3.162,3.1728,3.1618,3.1715,3.1553,3.075,2.9993,3.0029,3.0344,3.243,3.5417,3.9393,4.317,4.6138,4.6823,4.514,4.0512,3.6146,3.4072,3.3093,3.2525,3.213,3.2213,3.1855,3.1814,3.1563,3.1524,3.15,3.1649,3.1583,3.1691,3.1644,3.1674,3.1609,3.1673,3.1729,3.171,3.1571,3.1661,3.1759,3.174,3.187,3.1919,3.1856,3.1939,3.1944,3.2003,3.1963,3.2119,3.2115,3.2091,3.217,3.2222,3.2182,3.2475,3.2433,3.2436,3.2587,3.2689,3.2815,3.2944,3.3101,3.3182,3.3528,3.3551,3.3758,3.4015,3.4041,3.4158,3.436,3.4278,3.4357,3.4423,3.4487,3.4419,3.4436,3.4335,3.4151,3.3861,3.3744,3.3465,3.3265,3.2996,3.2763,3.2683,3.2452,3.2398,3.2238,3.2185,3.2122,3.2142,3.2066,3.2007,3.1909,3.1868,3.1962,3.2027,3.2065,3.206,3.2029,3.1881,3.194,3.1911,3.1919,3.1926,3.1857,3.1921,3.2015,3.2036,3.1926,3.2048,3.2093,3.202,3.205,3.1918,3.2043,3.2115,3.2207,3.2107,3.2095,3.21,3.208,3.2059,3.2005,3.2142,3.2142,3.206,3.2212,3.2145,3.2108,3.2024,3.1959,3.1902,3.2014,3.1967,3.2194,3.2018,3.1951,3.2109,3.2003,3.1917,3.1826,3.2019,3.2025,3.2164,3.2333,3.2292,3.2225,3.2269,3.2371,3.2461,3.2613,3.2865,3.2869,3.2863,3.3058,3.2952,3.3012,3.2995,3.259,3.2461,3.2218,3.2005,3.1911,3.1886,3.1747,3.1675,3.1767,3.1815,3.1688,3.1583,3.1567,3.1754,3.1655,3.1629,3.1567,3.16,3.1687,3.1478,3.099,2.9951,3.0048,3.0988,3.3429,3.7097,4.105,4.4925,4.7431,4.7534,4.5947,4.1852,3.7238,3.4405,3.3158,3.2647,3.2242,3.2056,3.1982,3.1828,3.1574,3.1733,3.1482,3.1666,3.1585,3.1634,3.1389,3.158,3.1581,3.1633,3.1694,3.1597,3.1615,3.1706,3.1647,3.1721,3.1575,3.174,3.1752,3.1881,3.1872,3.1877,3.1894,3.1866,3.1952,3.1962,3.2196,3.2214,3.2096,3.2221,3.2265,3.2442,3.2405,3.2531,3.2689,3.2858,3.2975,3.3061,3.3204,3.3382,3.3635,3.3825,3.393,3.3957,3.4177,3.4181,3.4438,3.4334,3.4317,3.4363,3.4369,3.4189,3.3871,3.3823,3.3639,3.3284,3.3011,3.2816,3.2543,3.239,3.2399,3.2226,3.2143,3.2013,3.2001,3.1941,3.1974,3.1856,3.1892,3.1807,3.1762,3.1839,3.1816,3.1776,3.1799,3.1772,3.1857,3.1814,3.1712,3.1673,3.1867,3.1858,3.1717,3.1636,3.1915,3.1908,3.2031,3.1934,3.1839,3.183,3.1836,3.1928,3.184,3.1784,3.182,3.1931,3.1902,3.1969,3.1827,3.1901,3.1897,3.1909,3.1826,3.1718,3.2003,3.199,3.1948,3.178,3.1796,3.1893,3.1898,3.1738,3.1856,3.1859,3.1606,3.1817,3.1793,3.1732,3.1717,3.16,3.1669,3.1557,3.1731,3.17,3.1594,3.176,3.1776,3.1705,3.1711,3.17,3.1675,3.1605,3.1776,3.1778,3.1612,3.1696,3.1742,3.1736,3.1515,3.1698,3.1918,3.1868,3.2011,3.2179,3.1968,3.2036,3.2259,3.2461,3.2715,3.2683,3.2628,3.2639,3.2478,3.2579,3.253,3.2313,3.2028,3.1974,3.1706,3.1542,3.1608,3.1472,3.1378,3.1385,3.1374,3.1301,3.1475,3.1479,3.1326,3.1367,3.1307,3.1366,3.1302,3.134,3.1055,3.0049,2.9789,2.9964,3.1894,3.4872,3.8694,4.307,4.6376,4.7323,4.589,4.1853,3.7069,3.4043,3.2963,3.2367,3.1871,3.1836,3.1713,3.1506,3.1345,3.1383,3.1166,3.1293,3.1183,3.1285,3.1172,3.1265,3.1169,3.1336,3.1294,3.1235,3.1183,3.1394,3.14,3.1496,3.1494,3.1467,3.1496,3.1432,3.1498,3.151,3.1598,3.1637,3.1584,3.1738,3.1815,3.1873,3.1946,3.1937,3.1963,3.2003,3.2138,3.2299,3.2292,3.2561,3.2791,3.2819,3.2849,3.3165,3.3346,3.3325,3.3586,3.3697,3.3798,3.3928,3.4041,3.4114,3.4133,3.4127,3.4091,3.4127,3.3943,3.3612,3.3501,3.3228,3.3116,3.2962,3.2638,3.247,3.2358,3.2183,3.1956,3.1806,3.1822,3.1722,3.1632,3.1629,3.1751,3.1701,3.1681,3.159,3.1764,3.1556,3.1565,3.1565,3.1531,3.1481,3.1502,3.157,3.1569,3.1609,3.1738,3.1571,3.1644,3.1597,3.1533,3.1669,3.1648,3.1704,3.171,3.1673,3.1655,3.1576,3.1686,3.1602,3.1571,3.1526,3.1533,3.1667,3.1744,3.1732,3.1654,3.1692,3.1632,3.1707,3.1601,3.1628,3.1597,3.1608,3.1576,3.1595,3.1728,3.1531,3.1503,3.1486,3.1516,3.1353,3.1459,3.1661,3.1561,3.1525,3.1591,3.1601,3.1523,3.1575,3.1568,3.1397,3.1611,3.1602,3.1561,3.1499,3.1424,3.1488,3.1625,3.154,3.1516,3.1594,3.1572,3.1551,3.1509,3.1512,3.1583,3.1464,3.1517,3.1603,3.176,3.1794,3.1861,3.2054,3.1971,3.1979,3.1979,3.2099,3.2466,3.2623,3.2578,3.2641,3.2612,3.255,3.2387,3.211,3.1864,3.1811,3.1607,3.1466,3.1423,3.145,3.1377,3.1443,3.1251,3.1343,3.1348,3.132,3.1339,3.1347,3.1304,3.1288,3.1402,3.1232,3.0653,2.9962,2.979,3.055,3.3072,3.6593,4.0624,4.4689,4.7324,4.709,4.4305,3.9421,3.5313,3.3408,3.2676,3.2026,3.175,3.1756,3.1495,3.1394,3.1397,3.1362,3.1167,3.141,3.1306,3.1379,3.1184,3.1252,3.1277,3.1392,3.125,3.1353,3.1421,3.1434,3.1409,3.1491,3.1388,3.1384,3.1448,3.1565,3.1528,3.1552,3.1616,3.1751,3.1743,3.179,3.1836,3.1763,3.1815,3.2141,3.2123,3.2109,3.2218,3.2413,3.2481,3.2762,3.2874,3.2957,3.3028,3.3227,3.3428,3.3512,3.3671,3.3778,3.3946,3.3987,3.4122,3.4354,3.4233,3.426,3.429,3.4182,3.3985,3.3768,3.3564,3.3375,3.3233,3.2853,3.2618,3.2589,3.2426,3.2178,3.2265,3.1914,3.1757,3.1784,3.1805,3.1805,3.1808,3.1713,3.1759,3.1722,3.1633,3.1669,3.1605,3.1664,3.1768,3.1783,3.1788,3.1655,3.1744,3.1686,3.1725,3.18,3.1731,3.1629,3.1672,3.1668,3.1602,3.1678,3.1801,3.1744,3.1679,3.1843,3.1749,3.1626,3.1823,3.1707,3.1762,3.1747,3.1781,3.1706,3.1791,3.1809,3.1663,3.1535,3.1783,3.1747,3.1711,3.1686,3.1731,3.1584,3.1774,3.1567,3.1474,3.1637,3.1653,3.1596,3.1578,3.1454,3.1476,3.1657,3.1777,3.1631,3.1563,3.1485,3.1395,3.15,3.1607,3.164,3.1758,3.1615,3.1669,3.1808,3.1932,3.194,3.1987,3.2011,3.199,3.2037,3.2087,3.2388,3.2653,3.2627,3.2462,3.2608,3.2495,3.2343,3.2234,3.199,3.1868,3.1704,3.1489,3.1541,3.1431,3.1302,3.1407,3.1428,3.1301,3.1324,3.1443,3.1323,3.1324,3.1336,3.1298,3.1341,3.1334,3.0882,2.9925,2.9813,3.0209,3.2492,3.5633,3.9855,4.3707,4.6368,4.6676,4.4393,3.9564,3.5476,3.5504,3.3336,3.2477,3.2114,3.1819,3.1721,3.1429,3.1609,3.1407,3.1377,3.1335,3.1387,3.1258,3.1388,3.1434,3.1482,3.1399,3.146,3.1465,3.1437,3.1299,3.1443,3.1543,3.1644,3.1538,3.1605,3.1582,3.1611,3.1705,3.1636,3.1829,3.1943,3.1988,3.2025,3.1942,3.2071,3.1949,3.2238,3.2222,3.2345,3.2387,3.2545,3.2617,3.2821,3.2979,3.3164,3.3324,3.3458,3.3628,3.3739,3.4019,3.4045,3.4141,3.4187,3.4284,3.4333,3.4189,3.4172,3.4177,3.3976,3.3854,3.3681,3.338,3.3262,3.2866,3.265,3.2469,3.2447,3.2266,3.214,3.1894,3.1877,3.1852,3.1682,3.1873,3.1728,3.1762,3.1684,3.1676,3.1711,3.1649,3.163,3.1533,3.1716,3.1578,3.1764,3.1587,3.16,3.1437,3.1691,3.1669,3.1785,3.165,3.1616,3.1736,3.1748,3.1868,3.1745,3.1654,3.1704,3.1688,3.161,3.1674,3.1712,3.1733,3.1672,3.1787,3.1857,3.1731,3.1644,3.1814,3.1718,3.1747,3.1631,3.1729,3.1715,3.1769,3.1685,3.1724,3.1803,3.1824,3.175,3.1881,3.2053,3.2035,3.1998,3.2261,3.239,3.2534,3.2643,3.2582,3.2637,3.2712,3.2529,3.2543,3.2227,3.1956,3.1764,3.1637,3.1509,3.1502,3.151,3.1418,3.1327,3.1455,3.144,3.1319,3.1218,3.1402,3.1239,3.1293,3.1299,3.1361,3.1317,3.093,3.0054,2.9952,3.0245,3.2299,3.5471,3.9464,4.1678,4.4731,4.6731,4.5765,4.2566,3.7344,3.4443,3.3216,3.2546,3.1853,3.179,3.1626,3.1606,3.1448,3.1239,3.114,3.1461,3.118,3.1281,3.1302,3.1354,3.1236,3.1315,3.1362,3.1346,3.1209,3.1382,3.1412,3.1435,3.1519,3.152,3.1441,3.139,3.1622,3.1617,3.1586,3.1703,3.1707,3.1892,3.1908,3.1903,3.1784,3.1976,3.2029,3.2195,3.2271,3.2301,3.2433,3.257,3.2698,3.2894,3.3051,3.3293,3.3488,3.3583,3.3858,3.3723,3.3892,3.4167,3.4246,3.4081,3.4016,3.4058,3.4129,3.4014,3.3867,3.3722,3.3479,3.3125,3.3049,3.2693,3.2405,3.2342,3.2337,3.1986,3.1833,3.1873,3.179,3.1723,3.1654,3.1634,3.16,3.1406,3.1468,3.1661,3.1676,3.1606,3.1508,3.1613,3.1606,3.1416,3.1408,3.1482,3.1533,3.156,3.1536,3.1462,3.1588,3.1681,3.1555,3.1588,3.1605,3.1655,3.1637,3.1642,3.1519,3.1704,3.1651,3.167,3.1638,3.1588,3.1658,3.182,3.1716,3.1548,3.1676,3.1677,3.196,3.1988,3.2158,3.1984,3.1954
