7.5413,7.5411,7.5394,7.5465,7.5365,7.5328,7.518,7.5385,7.5811,7.5971,7.6132,7.6133,7.616,7.6154,7.6146,7.5841,7.6087,7.591,7.6044,7.6414,7.6104,7.6096,7.5769,7.5548,7.5004,7.5458,7.5127,7.4987,7.5029,7.5092,7.4953,7.5099,7.4996,7.4959,7.5126,7.499,7.4862,7.4956,7.4994,7.488,7.5162,7.498,7.4969,7.4827,7.5126,7.4975,7.4808,7.4993,7.4992,7.5299,7.5507,7.604,7.7064,7.8506,7.9972,8.1358,8.0012,7.7318,7.482,7.3208,7.3186,7.353,7.4207,7.5242,7.5574,7.5562,7.5422,7.5128,7.5267,7.5419,7.5387,7.5328,7.5446,7.5471,7.5426,7.5638,7.5742,7.554,7.5762,7.5649,7.5666,7.5766,7.5763,7.5707,7.5907,7.5922,7.5799,7.5961,7.6169,7.6098,7.6025,7.588,7.6119,7.5956,7.6067,7.6148,7.643,7.6399,7.6684,7.6585,7.6657,7.672,7.6701,7.6718,7.6585,7.7062,7.6923,7.716,7.7491,7.7264,7.7274,7.7201,7.7402,7.7338,7.7593,7.7372,7.7316,7.7223,7.7298,7.7157,7.6719,7.6443,7.6494,7.6339,7.628,7.6401,7.5723,7.5666,7.5529,7.5518,7.5779,7.533,7.5345,7.5326,7.5322,7.541,7.5412,7.5133,7.5317,7.5337,7.5123,7.5292,7.5551,7.5069,7.531,7.5353,7.5262,7.5255,7.5141,7.525,7.5216,7.5331,7.5312,7.5415,7.5257,7.5293,7.5165,7.5227,7.5191,7.5357,7.5201,7.536,7.5567,7.5343,7.5556,7.5884,7.5973,7.5915,7.5988,7.5988,7.5884,7.5844,7.5907,7.6006,7.6081,7.5968,7.5795,7.5731,7.5319,7.5214,7.5123,7.4883,7.4713,7.5212,7.4816,7.4784,7.4846,7.4717,7.489,7.4622,7.4506,7.4773,7.4749,7.4663,7.4657,7.4611,7.4846,7.4622,7.4785,7.4736,7.4535,7.4881,7.4762,7.4685,7.4545,7.48,7.5341,7.569,7.6704,7.7971,7.8508,8.0266,8.101,7.8706,7.5932,7.3805,7.3089,7.3216,7.3295,7.4396,7.5048,7.5289,7.5121,7.4969,7.5026,7.5294,7.5168,7.5133,7.5214,7.5193,7.5084,7.5179,7.522,7.5287,7.5383,7.5223,7.5404,7.5398,7.5105,7.5653,7.5535,7.5237,7.5401,7.5568,7.5493,7.5797,7.5566,7.5386,7.5646,7.5668,7.5577,7.5537,7.5722,7.6078,7.5949,7.5904,7.5998,7.6171,7.6337,7.6476,7.6486,7.6353,7.63,7.6466,7.6765,7.6631,7.6867,7.6924,7.6973,7.6854,7.6827,7.6765,7.6869,7.697,7.6753,7.6504,7.6448,7.623,7.6205,7.573,7.5841,7.569,7.5477,7.5517,7.5496,7.5162,7.5087,7.4934,7.5042,7.4941,7.493,7.4967,7.5335,7.4865,7.4888,7.4846,7.499,7.5029,7.4923,7.5226,7.4921,7.5064,7.5067,7.509,7.5002,7.4856,7.484,7.4883,7.5198,7.5288,7.5009,7.5025,7.4968,7.5061,7.5115,7.5159,7.4867,7.4929,7.5094,7.5088,7.5456,7.5614,7.5758,7.5977,7.5856,7.5573,7.6026,7.5728,7.5692,7.5841,7.5643,7.5591,7.5529,7.547,7.5327,7.5024,7.4939,7.5177,7.5042,7.4637,7.4493,7.4709,7.4641,7.4508,7.4891,7.4803,7.4458,7.4448,7.4546,7.4695,7.4372,7.452,7.454,7.4413,7.4603,7.4438,7.4573,7.4526,7.4455,7.4607,7.4453,7.4678,7.5169,7.6041,7.6967,7.8455,7.9762,8.0733,7.9075,7.5915,7.332,7.275,7.2602,7.2797,7.3758,7.4341,7.522,7.492,7.4817,7.4978,7.4907,7.4889,7.4963,7.4878,7.496,7.4791,7.489,7.5053,7.5051,7.5204,7.5253,7.5086,7.4994,7.501,7.513,7.5392,7.4976,7.5242,7.5305,7.5156,7.5517,7.5108,7.5317,7.5418,7.5474,7.5593,7.5489,7.5638,7.5763,7.5788,7.579,7.5814,7.5959,7.6241,7.5857,7.6175,7.6336,7.6346,7.6539,7.6371,7.6434,7.6536,7.6577,7.6624,7.6736,7.6976,7.6803,7.6926,7.6854,7.6502,7.6283,7.6451,7.5975,7.5779,7.6241,7.5651,7.5307,7.5386,7.5399,7.4881,7.4932,7.4948,7.4846,7.4964,7.4672,7.4701,7.477,7.4826,7.4823,7.4582,7.4723,7.4992,7.4667,7.4638,7.475,7.469,7.4702,7.4772,7.4673,7.4695,7.5055,7.4857,7.4727,7.4768,7.4744,7.459,7.4882,7.4939,7.4713,7.5015,7.4819,7.4666,7.476,7.4912,7.4933,7.4728,7.4813,7.4817,7.4856,7.4755,7.4942,7.4803,7.4767,7.4847,7.5066,7.5458,7.5556,7.5705,7.5553,7.5465,7.5936,7.5516,7.5468,7.5568,7.5545,7.5525,7.5585,7.5358,7.4977,7.4906,7.4831,7.4775,7.4706,7.4675,7.4533,7.4588,7.4832,7.479,7.4809,7.4552,7.4342,7.4454,7.4437,7.464,7.4817,7.4796,7.4614,7.4751,7.4762,7.4783,7.4553,7.4498,7.4485,7.4634,7.5202,7.5111,7.5217,7.6031,7.7137,7.857,8.0008,8.1281,7.9234,7.5676,7.289,7.2655,7.2624,7.3137,7.391,7.4726,7.4995,7.4921,7.4893,7.4868,7.4874,7.4855,7.5072,7.4946,7.498,7.4957,7.5033,7.4994,7.4984,7.5117,7.5259,7.5002,7.5052,7.5191,7.5047,7.5355,7.5208,7.5096,7.5308,7.5146,7.5328,7.5346,7.5299,7.5241,7.5523,7.5737,7.5354,7.5401,7.5823,7.5603,7.5745,7.5873,7.6174,7.5899,7.5942,7.6017,7.5981,7.626,7.6478,7.6341,7.6627,7.6692,7.6754,7.6641,7.6582,7.6856,7.7092,7.6666,7.6599,7.6678,7.6638,7.6096,7.6076,7.6133,7.5752,7.5494,7.5415,7.5362,7.5547,7.5243,7.4758,7.4768,7.4849,7.4796,7.4836,7.4709,7.4679,7.4849,7.4873,7.4661,7.4605,7.4526,7.4565,7.4958,7.469,7.4664,7.4576,7.4686,7.4532,7.4671,7.4683,7.4572,7.4588,7.4725,7.464,7.4747,7.4516,7.4734,7.4907,7.4967,7.4709,7.4877,7.4909,7.4703,7.4526,7.452,7.4728,7.4872,7.4773,7.4669,7.4689,7.4543,7.4612,7.49,7.473,7.468,7.4892,7.5048,7.5112,7.5366,7.5524,7.5441,7.5129,7.5063,7.5328,7.5207,7.5169,7.5413,7.539,7.5129,7.5005,7.4653,7.4321,7.4569,7.4436,7.4306,7.4245,7.4043,7.4063,7.4254,7.4181,7.402,7.4309,7.4173,7.3976,7.4564,7.4098,7.3978,7.4124,7.411,7.4341,7.4204,7.4265,7.4067,7.4252,7.4358,7.4337,7.4482,7.4763,7.4862,7.5902,7.7071,7.8742,8.0091,8.0833,7.9971,7.6637,7.3259,7.234,7.2655,7.291,7.3537,7.4398,7.4673,7.4643,7.486,7.5,7.4721,7.5059,7.4787,7.4537,7.4873,7.482,7.4729,7.4808,7.5114,7.4861,7.4964,7.5126,7.4912,7.4872,7.4882,7.5116,7.4929,7.4797,7.5243,7.5044,7.5253,7.5491,7.5236,7.5233,7.5291,7.5454,7.5325,7.5371,7.5592,7.5818,7.5506,7.5746,7.5681,7.5781,7.6011,7.6043,7.6039,7.6077,7.6232,7.6643,7.6498,7.6497,7.6643,7.6632,7.6871,7.679,7.6828,7.6778,7.6701,7.6574,7.6478,7.6148,7.628,7.594,7.5726,7.5637,7.5503,7.5133,7.5088,7.4895,7.5069,7.5073,7.4831,7.496,7.4695,7.4723,7.4791,7.4731,7.48,7.485,7.4793,7.4897,7.4452,7.4398,7.4545,7.4655,7.4753,7.4557,7.4631,7.4955,7.4698,7.4626,7.468,7.4571,7.4723,7.4844,7.4883,7.4684,7.4753,7.4926,7.5271,7.4631,7.4568,7.4524,7.47,7.4598,7.4764,7.4769,7.4798,7.465,7.4664,7.5153,7.4749,7.4568,7.4732,7.4644,7.4758,7.4803,7.4675,7.4748,7.4679,7.4737,7.4999,7.5083,7.5237,7.498,7.5193,7.5211,7.5145,7.5076,7.533,7.5525,7.5297,7.5235,7.5273,7.5415,7.5235,7.5057,7.4839,7.4919,7.4844,7.4601,7.4324,7.4372,7.4591,7.4362,7.4208,7.4398,7.4405,7.4313,7.4486,7.446,7.4385,7.4424,7.4349,7.4228,7.431,7.44,7.4435,7.4606,7.4442,7.4338,7.4536,7.4515,7.4668,7.4479,7.4719,7.5355,7.6188,7.7518,7.8995,8.0846,8.0746,7.7948,7.4677,7.31,7.2703,7.2999,7.3542,7.4003,7.4671,7.5264,7.4798,7.4879,7.4963,7.4939,7.4807,7.5234,7.5249,7.4957,7.505,7.5069,7.4899,7.5188,7.5103,7.5326,7.5437,7.533,7.5224,7.5267,7.5241,7.53,7.5238,7.5401,7.5378,7.557,7.5577,7.5305,7.5448,7.5643,7.5583,7.5581,7.6124,7.588,7.5726,7.5744,7.5959,7.6112,7.6281,7.6668,7.6602,7.6446,7.6441,7.6686,7.6825,7.671,7.6846,7.7036,7.7068,7.7102,7.6924,7.7311,7.7268,7.6923,7.6901,7.6607,7.6713,7.6517,7.6379,7.612,7.5935,7.5858,7.5767,7.5697,7.5457,7.5448,7.5275,7.536,7.5249,7.5051,7.4971,7.5131,7.5212,7.4838,7.4906,7.4901,7.49,7.4945,7.4992,7.5113,7.4944,7.4942,7.5048,7.4899,7.5057,7.4989,7.5098,7.5199,7.5181,7.5069,7.5097,7.4991,7.4926,7.5159,7.4848,7.4902,7.5082,7.5003,7.5032,7.4996,7.5007,7.4925,7.5373,7.517,7.5225,7.4873,7.4731,7.4883,7.539,7.5215,7.5199,7.5497,7.5718,7.5743,7.5513,7.5628,7.5617,7.5729,7.5411,7.5528,7.553,7.5387,7.5333,7.5333,7.5437,7.5291,7.5003,7.4932,7.469,7.4662,7.4883,7.467,7.4895,7.5086,7.4665,7.4597,7.4697,7.4736,7.458,7.4602,7.4586,7.471,7.4753,7.4486,7.4756,7.4858,7.4832,7.4504,7.4632,7.4818,7.468,7.489,7.5102,7.5327,7.5755,7.7021,7.84,7.987,8.1096,7.9618,7.6477,7.3891,7.3509,7.3277,7.3075,7.392,7.4421,7.481,7.4923,7.502,7.5142,7.5157,7.4987,7.5243,7.5068,7.4989,7.5047,7.5039,7.5032,7.5222,7.534,7.5329,7.5435,7.5109,7.5016,7.5166,7.5304,7.5369,7.5173,7.5329,7.5376,7.5547,7.5875,7.5315,7.55,7.5414,7.5501,7.559,7.5534,7.5771,7.5889,7.5786,7.5894,7.6105,7.5973,7.62,7.6024,7.6432,7.6396,7.6502,7.667,7.6627,7.6774,7.6563,7.6616,7.675,7.6953,7.6889,7.6964,7.6912,7.6586,7.6627,7.6442,7.6279,7.6189,7.6162,7.615,7.5597,7.5433,7.5363,7.5381,7.5244,7.5098,7.4924,7.4865,7.5021,7.4911,7.4936,7.4927,7.4816,7.4775,7.4972,7.4765,7.4724,7.4997,7.4934,7.4646,7.4992,7.4855,7.464,7.4705,7.5094,7.4993,7.4629,7.4793,7.4788,7.4733,7.51,7.4614,7.4826,7.4647,7.4933,7.5148,7.4803,7.4758,7.4642,7.4834,7.4957,7.4945,7.4683,7.4905,7.4971,7.4728,7.4772,7.4926,7.482,7.5034,7.5163,7.5077,7.5152,7.5528,7.5349,7.5205,7.5289,7.5341,7.5347,7.5374,7.5332,7.557,7.5117,7.529,7.5303,7.5044,7.4663,7.4497,7.4624,7.4505,7.4381,7.4599,7.4907,7.4402,7.4471,7.4539,7.4202,7.4098,7.4261,7.4276,7.45,7.4496,7.4477,7.4643,7.4478,7.4384,7.4394,7.4739,7.4287,7.4425,7.4698,7.45,7.4694,7.5117,7.6094,7.7298,7.8444,7.9148,8.0344,8.0468,7.7502,7.4185,7.2634,7.2523,7.3207,7.3395,7.4539,7.4835,7.4696,7.4923,7.4934,7.4878,7.4939,7.4859,7.4799,7.4889,7.4995,7.517,7.4966,7.4795,7.5085,7.5023,7.5028,7.5249,7.4957,7.5016,7.4899,7.5391,7.5328,7.5179,7.5169,7.5142,7.5355,7.552,7.5375,7.5552,7.5544,7.5395,7.538,7.5537,7.5516,7.5878,7.5979,7.5582,7.6019,7.6248,7.6067,7.6224,7.638,7.6373,7.6599,7.6752,7.6794,7.6624,7.6867,7.7017,7.7036,7.6818,7.6774,7.6807,7.664,7.6759,7.6348,7.6037,7.6049,7.6133,7.5799,7.5671,7.5461,7.518,7.5205,7.5342,7.5217,7.5,7.4825,7.4856,7.4937,7.4676,7.4667,7.4553,7.4993,7.4934,7.4908,7.4745,7.4615,7.4642,7.4594,7.4768,7.4736,7.472,7.496,7.4907,7.4784,7.474,7.4807,7.4762,7.4748,7.4878,7.4757,7.4737,7.4887,7.5083,7.4968,7.4654,7.4792,7.4841,7.4701,7.4797,7.4808,7.4859,7.4815,7.4763,7.4909,7.5008,7.4827,7.4558,7.4799,7.4744,7.4569,7.4771,7.506,7.5105,7.5055,7.5081,7.5155,7.5202,7.5367,7.5271,7.5068,7.5177,7.5262,7.5483,7.5647,7.5637,7.5283,7.5052,7.5342,7.4871,7.483,7.4759,7.4506,7.4401,7.447,7.4543,7.454,7.4433,7.4348,7.4475,7.434,7.4327,7.4274,7.4286,7.454,7.4476,7.4325,7.4404,7.4634,7.4513,7.4178,7.4311,7.417,7.4373,7.4562,7.4291,7.4586,7.4946,7.5351,7.6435,7.7671,7.9326,8.0752,8.0269,7.7073,7.3819,7.2217,7.2538,7.2994,7.3669,7.4396,7.4841,7.489,7.4854,7.4749,7.4826,7.4765,7.4823,7.4741,7.4938,7.4773,7.4989,7.4929,7.4616,7.4957,7.508,7.495,7.4852,7.4904,7.508,7.515,7.4972,7.5016,7.5095,7.5181,7.5178,7.5354,7.5236,7.5316,7.5228,7.5236,7.5522,7.5468,7.5541,7.573,7.5593,7.5575,7.5829,7.587,7.5886,7.6117,7.622,7.6302,7.6218,7.6286,7.6439,7.6685,7.6478,7.6693,7.6835,7.6886,7.6754,7.6961,7.6801,7.6612,7.66,7.6506,7.6266,7.597,7.5978,7.566,7.5572,7.5396,7.5255,7.5074,7.4968,7.4973,7.4782,7.4872,7.4788,7.4655,7.473,7.4662,7.4584,7.479,7.4613,7.4372,7.4677,7.4711,7.4598,7.4428,7.4548,7.4589,7.4553,7.4527,7.479,7.4677,7.4692,7.459,7.4456,7.4704,7.4809,7.4401,7.4745,7.4934,7.4549,7.4706,7.45,7.4607,7.4682,7.4631,7.4642,7.4659,7.4577,7.4675,7.4599,7.4928,7.4398,7.4652,7.4595,7.4528,7.4601,7.4732,7.4613,7.4656,7.4346,7.4279,7.4544,7.4549,7.4548,7.4646,7.4756,7.4896,7.519,7.5033,7.5054,7.5349,7.5119,7.4826,7.509,7.5023,7.5164,7.5094,7.5279,7.502,7.5097,7.4909,7.4682,7.436,7.4341,7.4445,7.4342,7.4143,7.4502,7.4388,7.4202,7.4291,7.4147,7.4484,7.4582,7.416,7.4205,7.414,7.4163,7.4218,7.4175,7.4056,7.4464,7.4382,7.4206,7.4232,7.4181,7.4219,7.4387,7.4676,7.496,7.5895,7.6939,7.8345,7.9957,8.085,7.8691,7.4967,7.2451,7.2254,7.2566,7.3004,7.4057,7.4796,7.4645,7.4424,7.4584,7.4581,7.4592,7.4449,7.4472,7.4512,7.4835,7.4772,7.4646,7.4582,7.5082,7.4596,7.4874,7.4881,7.4653,7.4791,7.4887,7.5255,7.492,7.4842,7.4866,7.4929,7.5064,7.495,7.4947,7.5036,7.5066,7.5191,7.5117,7.5203,7.5665,7.5473,7.5517,7.5659,7.5633,7.5722,7.5748,7.5887,7.6014,7.6103,7.6358,7.6355,7.6312,7.6426,7.6675,7.6763,7.624,7.644,7.6479,7.6688,7.6583,7.6199,7.6288,7.6175,7.5857,7.5743,7.5578,7.5761,7.5081,7.491,7.4988,7.4779,7.4704,7.4666,7.4593,7.4498,7.4415,7.4377,7.4275,7.4395,7.4365,7.4419,7.4467,7.4685,7.4046,7.4205,7.4171,7.4215,7.4249,7.4255,7.4291,7.425,7.4274,7.4199,7.4359,7.439,7.4284,7.4234,7.4531,7.4378,7.4454,7.4382,7.3969,7.4372,7.4604,7.4282,7.433,7.4324,7.4357,7.4404,7.4253,7.4062,7.4126,7.4072,7.4254,7.4284,7.4421,7.4101,7.4149,7.4224,7.4174,7.421,7.4243,7.4241,7.4088,7.4143,7.4303,7.4473,7.4146,7.406,7.4194,7.4347,7.4409,7.4464,7.4719,7.4695,7.469,7.4528,7.4778,7.4678,7.448,7.4736,7.4872,7.4667,7.4784,7.4529,7.4448,7.4793,7.4646,7.4053,7.3873,7.3711,7.3841,7.3938,7.3772,7.3757,7.3759,7.382,7.3991,7.3757,7.3766,7.3733,7.3661,7.3957,7.3932,7.3882,7.3673,7.3669,7.4037,7.3583,7.3704,7.3806,7.3737,7.3657,7.3854,7.4311,7.4347,7.4814,7.6132,7.7403,7.8789,8.0119,7.8997,7.6051,7.2773,7.1907,7.2192,7.2595,7.3028,7.3773,7.4229,7.4215,7.4449,7.4283,7.4088,7.4082,7.4069,7.4113,7.4284,7.4216,7.4334,7.4193,7.4199,7.4326,7.4479,7.4422,7.4359,7.428,7.427,7.4698,7.4668,7.4586,7.439,7.4713,7.4573,7.4473,7.4499,7.4431,7.4611,7.4737,7.4931,7.5031,7.4798,7.4782,7.5029,7.5094,7.5234,7.5365,7.5332,7.5338,7.5531,7.5363,7.5628,7.5994,7.5595,7.5968,7.6136,7.5914,7.6124,7.6256,7.6221,7.6242,7.6215,7.613,7.58,7.5655,7.5721,7.5647,7.5341,7.5284,7.4977,7.4899,7.4782,7.4329,7.4458,7.4306,7.4261,7.3864,7.3884,7.426,7.3993,7.4026,7.3989,7.4,7.406,7.3932,7.3946,7.4058,7.3949,7.3808,7.4029,7.4007,7.3943,7.4018,7.3869,7.4084,7.4233,7.3946,7.3985,7.4109,7.425,7.3851,7.3903,7.4048,7.38,7.4109,7.3986,7.3953,7.3945,7.4041,7.4031,7.3875,7.3949,7.4039,7.4028,7.3752,7.4014,7.4005,7.3942,7.3908,7.38,7.3841,7.4108,7.3962,7.3874,7.412,7.3938,7.3826,7.4042,7.426,7.4076,7.4042,7.4532,7.4531,7.436,7.4479,7.4391,7.4351,7.4463,7.4431,7.4619,7.4647,7.4417,7.4532,7.4242,7.4027,7.4322,7.3921,7.3733,7.3819,7.3752,7.3745,7.3823,7.3707,7.3702,7.3673,7.3731,7.3772,7.37,7.3633,7.3602,7.359,7.3549,7.3561,7.3771,7.3783,7.3629,7.3828,7.3799,7.3675,7.3461,7.3798,7.4019,7.4237,7.4956,7.6145,7.7455,7.9238,8.005,7.9239,7.6393,7.3626,7.2476,7.1903,7.198,7.269,7.3407,7.3914,7.4286,7.4041,7.393,7.3864,7.4073,7.3895,7.4041,7.4036,7.4027,7.3958,7.3926,7.4104,7.441,7.4184,7.403,7.4134,7.4099,7.4194,7.4148,7.4168,7.4319,7.4249,7.4391,7.4364,7.4445,7.4079,7.4224,7.4471,7.428,7.4552,7.4576,7.4721,7.4657,7.4735,7.4977,7.5273,7.5037,7.484,7.507,7.5095,7.508,7.5554,7.5393,7.5473,7.5506,7.573,7.5799,7.5757,7.5911,7.5849,7.5655,7.597,7.5724,7.5549,7.5565,7.5293,7.5125,7.4898,7.499,7.4752,7.4371,7.4186,7.4295,7.4085,7.4016,7.3934,7.3899,7.394,7.3521,7.3715,7.3735,7.3686,7.3634,7.3891,7.3768,7.3841,7.3535,7.3559,7.3584,7.3451,7.3851,7.3713,7.3648,7.3721,7.3547,7.354,7.3572,7.367,7.3695,7.3768,7.3751,7.3626,7.3751,7.3771,7.353,7.3456,7.3812,7.3726,7.37,7.3661,7.3456,7.3501,7.3831,7.365,7.3828,7.3705,7.3563,7.3552,7.355,7.342,7.363,7.3627,7.3497,7.359,7.3641,7.3811,7.3647,7.3797,7.4309,7.4068,7.4024,7.4048,7.3993,7.3991,7.3851,7.4053,7.4215,7.4154,7.4255,7.4089,7.3985,7.4095,7.387,7.3626,7.3334,7.3391,7.3313,7.3179,7.3223,7.3373,7.3559,7.3189,7.3233,7.3487,7.3268,7.3145,7.3238,7.3275,7.3301,7.333,7.3316,7.3252,7.3457,7.3151,7.3223,7.3453,7.3343,7.3278,7.3503,7.3774,7.3882,7.5272,7.6153,7.7434,7.9066,7.9261,7.7266,7.4551,7.1794,7.1517,7.1656,7.2137,7.3037,7.3387,7.3669,7.3606,7.3785,7.3702,7.4043,7.3707,7.3744,7.3546,7.4016,7.4031,7.3569,7.3515,7.3696,7.3883,7.387,7.3953,7.4136,7.3861,7.391,7.3887,7.3891,7.3909,7.4051,7.4037,7.4158,7.3929,7.4284,7.4189,7.4188,7.4331,7.4462,7.4563,7.425,7.4442,7.4862,7.4704,7.4659,7.5044,7.4946,7.5063,7.4913,7.5026,7.5156,7.5253,7.5213,7.5518,7.5699,7.5349,7.5497,7.585,7.5936,7.5388,7.5429,7.5349,7.5492,7.5322,7.5111,7.5033,7.4608,7.4501,7.4155,7.4177,7.3939,7.3856,7.3655,7.3886,7.3513,7.3514,7.346,7.382,7.3401,7.3417,7.3597,7.3258,7.3472,7.3549,7.3441,7.355,7.3512,7.3451,7.3453,7.3324,7.3658,7.3543,7.3305,7.3458,7.3452,7.3409,7.371,7.3403,7.3592,7.3596,7.3222,7.3415,7.3348,7.3678,7.3805,7.3552,7.3458,7.3337,7.367,7.3711,7.3391,7.356,7.3513,7.3343,7.3443,7.3914,7.3456,7.335,7.3686,7.362,7.3517,7.3424,7.3404,7.3458,7.3788,7.345,7.3267,7.3597,7.3518,7.3537,7.3454,7.3528,7.3658,7.4012,7.3636,7.3929,7.4296,7.4405,7.4012,7.3774,7.3937,7.3989,7.3972,7.3878,7.4294,7.3908,7.3995,7.3785,7.3718,7.3609,7.3432,7.3354,7.3287,7.3244,7.3237,7.3228,7.3367,7.3293,7.3467,7.3288,7.3293,7.3472,7.297,7.2916,7.3165,7.3168,7.3035,7.3183,7.306,7.347,7.3658,7.317,7.3067,7.3202,7.3398,7.3768,7.4047,7.5032,7.6525,7.761,7.9455,7.9605,7.6745,7.3283,7.1464,7.1261,7.1507,7.2217,7.2942,7.3853,7.3638,7.3541,7.3862,7.3632,7.3653,7.3558,7.3567,7.3615,7.3472,7.3845,7.3754,7.358,7.3902,7.4044,7.3776,7.3675,7.3695,7.3752,7.3684,7.4122,7.3987,7.3676,7.387,7.3804,7.4125,7.3979,7.4068,7.4094,7.4267,7.3943,7.4243,7.4323,7.4217,7.4429,7.4456,7.4778,7.483,7.4648,7.4802,7.5049,7.505,7.4911,7.5207,7.5127,7.5471,7.5551,7.5416,7.5478,7.5418,7.5742,7.5792,7.5679,7.5627,7.5448,7.5293,7.535,7.5117,7.4851,7.4865,7.4555,7.4152,7.4135,7.4144,7.4014,7.3874,7.379,7.374,7.3535,7.3845,7.3458,7.3482,7.3542,7.3528,7.3617,7.3493,7.3586,7.3486,7.3471,7.3462,7.3554,7.3523,7.3652,7.3827,7.385,7.3419,7.3322,7.3485,7.3346,7.3236,7.3956,7.3748,7.355,7.3615,7.3657,7.3482,7.3572,7.3668,7.3562,7.3545,7.3752,7.3704,7.3372,7.344,7.3608,7.3584,7.36,7.3713,7.3541,7.3918,7.3452,7.3301,7.3489,7.3536,7.3423,7.3531,7.3536,7.342,7.3519,7.3564,7.3516,7.3544,7.3387,7.3501,7.3542,7.3396,7.3699,7.3391,7.3452,7.4015,7.3868,7.3878,7.4101,7.4142,7.3938,7.3853,7.4199,7.4217,7.4144,7.4026,7.4008,7.399,7.4009,7.3702,7.3813,7.378,7.3507,7.331,7.3169,7.3187,7.299,7.3129,7.3192,7.3252,7.3313,7.3257,7.3395,7.2953,7.3095,7.3224,7.3026,7.3119,7.304,7.3415,7.3371,7.3023,7.3059,7.3155,7.3384,7.3268,7.3229,7.362,7.4162,7.5058,7.6454,7.7919,7.9478,7.9195,7.6375,7.2888,7.1253,7.123,7.1564,7.2545,7.3108,7.3455,7.3625,7.3531,7.3485,7.3655,7.3687,7.3749,7.3509,7.3485,7.3788,7.357,7.3589,7.3627,7.3623,7.3751,7.3816,7.3518,7.379,7.3759,7.3631,7.3705,7.3863,7.3825,7.3752,7.4141,7.4279,7.3792,7.3946,7.3936,7.3861,7.4161,7.4248,7.4158,7.432,7.4427,7.4333,7.4555,7.4701,7.4804,7.492,7.4993,7.4867,7.4969,7.5094,7.5327,7.5331,7.53,7.5601,7.6005,7.5578,7.5356,7.5493,7.5562,7.5519,7.5459,7.5394,7.5206,7.5261,7.4631,7.4587,7.4595,7.4381,7.4303,7.4025,7.3819,7.3836,7.3649,7.3624,7.3666,7.3746,7.3652,7.3232,7.3397,7.3402,7.3605,7.3495,7.328,7.3296,7.3806,7.352,7.3194,7.3267,7.3458,7.3516,7.338,7.3395,7.3567,7.3499,7.3599,7.3527,7.345,7.3405,7.3655,7.3897,7.3472,7.3401,7.3482,7.3313,7.3727,7.3787,7.3639,7.3657,7.3521,7.3482,7.3539,7.3607,7.3322,7.3623,7.3535,7.3413,7.3591,7.3459,7.3428,7.362,7.3611,7.3813,7.3498,7.3224,7.3623,7.3432,7.3352,7.345,7.3398,7.3487,7.3454,7.3668,7.3621,7.3632,7.3595,7.3587,7.3532,7.3595,7.3611,7.3868,7.4216,7.4267,7.4015,7.3859,7.4242,7.4273,7.4358,7.4164,7.4082,7.4132,7.389,7.3931,7.3831,7.3735,7.3697,7.3561,7.3245,7.3389,7.3405,7.3352,7.3567,7.3484,7.3226,7.3208,7.3169,7.3206,7.3147,7.3658,7.385,7.3287,7.3195,7.3181,7.3269,7.3252,7.3426,7.3275,7.3278,7.3451,7.3508,7.3457,7.3843,7.4469,7.5398,7.69,7.8225,7.9487,7.9044,7.6157,7.4506,7.2122,7.1444,7.1823,7.2091,7.322,7.3897,7.3876,7.3686,7.3701,7.3717,7.3925,7.3755,7.3803,7.3825,7.3965,7.3906,7.3934,7.3849,7.3924,7.3887,7.391,7.3975,7.4067,7.4069,7.4086,7.3956,7.4369,7.4168,7.4209,7.449,7.4131,7.4085,7.4279,7.4644,7.428,7.4415,7.4439,7.4615,7.4589,7.4371,7.4812,7.503,7.4709,7.4718,7.5002,7.5065,7.5107,7.5117,7.5684,7.5516,7.5566,7.5711,7.5794,7.5701,7.599,7.6065,7.6078,7.5815,7.5943,7.5882,7.5654,7.5427,7.5563,7.5397,7.4941,7.5017,7.4538,7.4472,7.4324,7.4233,7.3961,7.4128,7.3966,7.3761,7.3794,7.3769,7.3825,7.3762,7.3722,7.3676,7.3756,7.3962,7.3892,7.3909,7.3712,7.3666,7.37,7.3659,7.3694,7.3708,7.3664,7.3708,7.3649,7.3632,7.3632,7.3689,7.398,7.3681,7.3598,7.3636,7.3901,7.3779,7.3521,7.3562,7.3797,7.3846,7.3575,7.3748,7.37,7.3883,7.3875,7.3817,7.3743,7.3552,7.3674,7.3641,7.3532,7.3379,7.3443,7.3816,7.3463,7.3462,7.3521,7.3819,7.3648,7.356,7.3715,7.385,7.3894,7.3996,7.4247,7.4163,7.4026,7.4189,7.4239,7.4155,7.4245,7.4148,7.4042,7.4112,7.4226,7.3859,7.3873,7.3917,7.3768,7.3195,7.3442,7.3704,7.3328,7.3366,7.3509,7.3319,7.3385,7.34,7.3442,7.3498,7.3686,7.3503,7.3387,7.3417,7.3372,7.343,7.3483,7.3306,7.3293,7.3772,7.3601,7.3414,7.3688,7.3904,7.4106,7.5041,7.63,7.755,7.9053,7.9524,7.7196,7.4405,7.2434,7.1954,7.2149,7.2411,7.278,7.338,7.3785,7.371,7.3923,7.4244,7.3998,7.3645,7.3937,7.3726,7.3837,7.3992,7.4079,7.4084,7.3885,7.3913,7.3954,7.3948,7.4004,7.4102,7.4152,7.4055,7.4095,7.4237,7.4041,7.4396,7.4544,7.4022,7.4338,7.4319,7.4264,7.4329,7.4472,7.4653,7.4649,7.4617,7.4831,7.4857,7.4871,7.507,7.5248,7.5265,7.5225,7.5271,7.5411,7.5537,7.5591,7.5554,7.5574,7.5651,7.5734,7.6199,7.5937,7.587,7.5976,7.5592,7.542,7.5262,7.5111,7.4962,7.4987,7.4984,7.463,7.4416,7.4409,7.4447,7.415,7.3919,7.3895,7.3865,7.392,7.401,7.3733,7.3586,7.3883,7.3699,7.3678,7.3896,7.3637,7.3658,7.3801,7.3727,7.3723,7.3732,7.3708,7.3585,7.3723,7.3739,7.3711,7.3633,7.3648,7.3773,7.3846,7.3693,7.3813,7.3932,7.3738,7.3924,7.4049,7.394,7.3734,7.3604,7.3564,7.3796,7.4154,7.3698,7.3762,7.3813,7.3731,7.3735,7.3859,7.4023,7.4024,7.3833,7.3669,7.373,7.3655,7.3734,7.3774,7.3905,7.3876,7.3741,7.3711,7.37,7.3851,7.397,7.4308,7.4262,7.4481,7.4322,7.4259,7.4221,7.415,7.4431,7.4411,7.4531,7.4492,7.4234,7.4313,7.4315,7.3762,7.3854,7.3661,7.3728,7.3536,7.3416,7.3577,7.3566,7.3442,7.3555,7.3517,7.3796,7.343,7.3456,7.3441,7.3558,7.3758,7.3664,7.3605,7.3603,7.3448,7.3634,7.3734,7.3622,7.3728,7.369,7.3674,7.3764,7.4053,7.5094,7.6104,7.7185,7.9178,7.9945,7.8294,7.5155,7.2255,7.1857,7.1901,7.2516,7.3285,7.3925,7.4063,7.3975,7.4069,7.4038,7.4149,7.3977,7.4264,7.411,7.422,7.4333,7.3961,7.3995,7.4035,7.4228,7.4121,7.4081,7.4307,7.4307,7.444,7.4342,7.4366,7.43,7.4446,7.4326,7.4528,7.4504,7.4689,7.4662,7.4424,7.4592,7.4898,7.4783,7.4808,7.5177,7.5031,7.4935,7.5362,7.515,7.5241,7.5209,7.5527,7.549,7.5498,7.5638,7.5759,7.5908,7.6082,7.6011,7.6093,7.6263,7.6008,7.6184,7.6068,7.5903,7.5984,7.5823,7.586,7.5318,7.525,7.4911,7.4802,7.5012,7.48,7.4548,7.4288,7.4344,7.4347,7.3995,7.3958,7.395,7.3943,7.4012,7.3996,7.3846,7.3875,7.3882,7.3838,7.4051,7.4144,7.3856,7.3656,7.3635,7.3792,7.412,7.3867,7.3881,7.396,7.396,7.3683,7.4072,7.4138,7.3799,7.3795,7.4034,7.4245,7.414,7.396,7.3838,7.3986,7.3909,7.3835,7.4058,7.4035,7.4032,7.4034,7.3829,7.392,7.3896,7.4205,7.3839,7.4034,7.3953,7.3909,7.4046,7.3927,7.3999,7.4022,7.395,7.3866,7.3929,7.3632,7.3968,7.3895,7.4041,7.3738,7.3971,7.367,7.3775,7.389,7.3639,7.3894,7.4038,7.4159,7.4409,7.4414,7.4398,7.4497,7.4483,7.4451,7.4628,7.4499,7.4328,7.426,7.4533,7.4311,7.4324,7.4599,7.398,7.3553,7.3734,7.3532,7.3526,7.357,7.357,7.3572,7.3509,7.3518,7.3721,7.3664,7.3412,7.3526,7.3467,7.3725,7.3731,7.3482,7.3647,7.3574,7.3586,7.3564,7.3719,7.3853,7.364,7.3693,7.4162,7.4206,7.4807,7.599,7.75,7.9297,8.014,7.8126,7.4894,7.2205,7.1547,7.1548,7.198,7.2992,7.3603,7.4038,7.4086,7.4135,7.3944,7.4115,7.4326,7.4185,7.3926,7.4006,7.3923,7.3911,7.3947,7.4175,7.4055,7.4247,7.4095,7.4113,7.4214,7.4249,7.4113,7.4159,7.4089,7.4201,7.4452,7.4252,7.4414,7.4758,7.4393,7.4507,7.4634,7.4529,7.4437,7.4831,7.4789,7.4791,7.4775,7.4732,7.5046,7.4993,7.5179,7.5471,7.5338,7.5624,7.5639,7.5651,7.5823,7.5877,7.6003,7.5875,7.6058,7.6281,7.6013,7.5974,7.6055,7.6081,7.5751,7.5335,7.5289,7.5286,7.513,7.4909,7.4847,7.4443,7.4316,7.4082,7.4045,7.4193,7.4116,7.4047,7.3887,7.3816,7.384,7.4122,7.3831,7.3848,7.3739,7.3964,7.4034,7.3857,7.3701,7.361,7.3684,7.3553,7.3953,7.3728,7.3876,7.4009,7.3725,7.3663,7.3774,7.3811,7.3781,7.3683,7.3844,7.3881,7.3789,7.3869,7.3807,7.3764,7.4027,7.3655,7.3641,7.363,7.3672,7.3867,7.3809,7.3719,7.3898,7.4,7.3525,7.3615,7.3675,7.3672,7.375,7.3658,7.3727,7.3608,7.3602,7.3781,7.3901,7.3501,7.3543,7.3666,7.3599,7.347,7.3659,7.3526,7.336,7.3578,7.3786,7.354,7.369,7.3994,7.4248,7.4348,7.4409,7.4437,7.437,7.4486,7.4365,7.4154,7.4384,7.4491,7.4348,7.4268,7.4011,7.4036,7.3663,7.3679,7.376,7.3518,7.3359,7.3356,7.3249,7.339,7.3342,7.3444,7.3345,7.3367,7.3356,7.3183,7.3062,7.3475,7.3216,7.3211,7.3305,7.3241,7.3381,7.3429,7.3257,7.3169,7.3365,7.3283,7.3579,7.4182,7.4602,7.5785,7.7165,7.859,7.9459,7.9455,7.6652,7.3303,7.1612,7.1219,7.1751,7.225,7.3518,7.3799,7.3576,7.3703,7.3634,7.3577,7.3697,7.359,7.3734,7.3682,7.3577,7.3873,7.3969,7.3591,7.3814,7.3852,7.3848,7.3833,7.3763,7.3797,7.3851,7.38,7.3962,7.4229,7.4247,7.38,7.4026,7.3987,7.4084,7.4156,7.4395,7.4334,7.4277,7.4254,7.4215,7.4435,7.4352,7.4477,7.4594,7.4829,7.4894,7.4973,7.4953,7.5007,7.5532,7.5329,7.5237,7.5488,7.5731,7.5573,7.5549,7.5878,7.5923,7.5852,7.5554,7.5461,7.5513,7.5291,7.4852,7.5069,7.4715,7.4479,7.4351,7.4185,7.3987,7.3911,7.3736,7.3804,7.3599,7.3505,7.3514,7.3553,7.3384,7.325,7.3404,7.3658,7.351,7.335,7.3388,7.3334,7.3565,7.3338,7.3526,7.3337,7.3255,7.3251,7.3388,7.3472,7.323,7.3305,7.3541,7.3291,7.3309,7.3374,7.3374,7.3298,7.3359,7.3544,7.343,7.3325,7.3383,7.3453,7.3577,7.3332,7.325,7.3224,7.3244,7.3583,7.3214,7.3533,7.3261,7.3351,7.3211,7.3163,7.3306,7.3489,7.3185,7.3223,7.3266,7.3309,7.3379,7.3257,7.3339,7.317,7.3317,7.3277,7.3316,7.3265,7.3157,7.312,7.3127,7.32,7.3126,7.348,7.3313,7.3219,7.3587,7.3608,7.3691,7.392,7.3567,7.3431,7.3848,7.3762,7.3877,7.387,7.386,7.3721,7.3766,7.3513,7.3403,7.3218,7.3009,7.2981,7.3006,7.2794,7.2946,7.3003,7.2784,7.2827,7.3031,7.2812,7.2821,7.2963,7.2791,7.2725,7.286,7.2814,7.2804,7.2832,7.2902,7.2934,7.2716,7.2835,7.2967,7.295,7.3107,7.3202,7.3888,7.4751,7.583,7.7247,7.8794,7.877,7.6162,7.317,7.1122,7.1143,7.1641,7.1837,7.2624,7.3088,7.3095,7.316,7.3103,7.3155,7.336,7.3211,7.3148,7.3251,7.347,7.3243,7.3196,7.3178,7.3409,7.3425,7.3221,7.3186,7.3207,7.3354,7.351,7.3555,7.3346,7.3429,7.357,7.3647,7.3706,7.349,7.3469,7.3559,7.3579,7.3534,7.3705,7.4006,7.3735,7.3935,7.3984,7.4053,7.4177,7.4399,7.4389,7.4269,7.4483,7.4945,7.4989,7.4795,7.4544,7.4766,7.4991,7.5071,7.5195,7.52,7.5181,7.5342,7.5298,7.5093,7.5018,7.478,7.4496,7.4533,7.4455,7.4103,7.378,7.3606,7.3571,7.3466,7.3408,7.322,7.3386,7.3254,7.3184,7.2987,7.2944,7.297,7.2962,7.3,7.2861,7.2995,7.3032,7.2942,7.3124,7.293,7.2809,7.2952,7.3099,7.3155,7.2903,7.2955,7.2702,7.2856,7.2955,7.2879,7.294,7.2889,7.2673,7.2833,7.2954,7.3338,7.2945,7.2868,7.28,7.2958,7.2985,7.2886,7.303,7.2911,7.2928,7.2898,7.2924,7.2824,7.2882,7.3011,7.3088,7.2848,7.2699,7.3065,7.326,7.2711,7.2661,7.271,7.2747,7.2757,7.2963,7.325,7.358,7.3508,7.3321,7.355,7.346,7.3472,7.3235,7.3445,7.3407,7.3704,7.3902,7.3524,7.3542,7.3284,7.3261,7.3005,7.2849,7.2775,7.2661,7.2637,7.2727,7.2606,7.2717,7.2875,7.296,7.259,7.266,7.275,7.2515,7.2528,7.2457,7.2593,7.2546,7.2541,7.2682,7.275,7.2771,7.2694,7.2803,7.2933,7.2845,7.3031,7.3474,7.3893,7.5197,7.6538,7.7895,7.8687,7.7391,7.4315,7.1704,7.1432,7.115,7.1484,7.2035,7.2704,7.3003,7.2907,7.2858,7.2881,7.3281,7.3158,7.3172,7.3135,7.3031,7.2897,7.2951,7.3084,7.3094,7.3082,7.3468,7.3566,7.3186,7.3258,7.3244,7.3046,7.3249,7.3525,7.3474,7.3607,7.3613,7.3308,7.3192,7.3411,7.3728,7.3532,7.3681,7.3903,7.3825,7.3592,7.3855,7.3954,7.4241,7.4166,7.4164,7.423,7.4456,7.4517,7.4505,7.4633,7.4817,7.4764,7.4919,7.5034,7.5021,7.5145,7.5231,7.5099,7.5005,7.4979,7.4838,7.4939,7.457,7.431,7.4258,7.4243,7.3634,7.3636,7.3636,7.3507,7.3329,7.3046,7.3054,7.3117,7.3112,7.3078,7.316,7.3003,7.2813,7.2952,7.2933,7.2994,7.3082,7.2944,7.2885,7.2849,7.2709,7.3366,7.2974,7.2709,7.2909,7.282,7.2979,7.2814,7.2871,7.286,7.3056,7.3006,7.3057,7.2931,7.2868,7.2869,7.3025,7.2905,7.2917,7.2812,7.2793,7.3028,7.2984,7.286,7.3047,7.3085,7.2829,7.286,7.312,7.2847,7.2893,7.2983,7.2804,7.2862,7.2917,7.2956,7.27,7.2836,7.3121,7.34,7.3554,7.3641,7.3599,7.3471,7.3578,7.338,7.3277,7.3556,7.3909,7.3849,7.3373,7.3446,7.3264,7.3178,7.3068,7.2655,7.2858,7.2699,7.2639,7.2735,7.2715,7.2572,7.2659,7.2595,7.2803,7.2463,7.2311,7.2575,7.2546,7.2557,7.2468,7.2661,7.2529,7.2552,7.2757,7.2487,7.2434,7.2802,7.2792,7.2966,7.3064,7.3409,7.4675,7.5984,7.7066,7.8673,7.8498,7.5581,7.2467,7.1207,7.1137,7.091,7.1058,7.1981,7.2768,7.3006,7.3089,7.3297,7.2926,7.3011,7.3115,7.3286,7.299,7.2942,7.3121,7.3147,7.3057,7.3088,7.3094,7.3328,7.3348,7.3153,7.3186,7.3463,7.3287,7.3283,7.3417,7.3658,7.357,7.3616,7.3519,7.3356,7.3413,7.3534,7.3734,7.3617,7.3746,7.3903,7.3825,7.3863,7.4004,7.4108,7.4187,7.4232,7.4391,7.446,7.4393,7.4695,7.4696,7.4583,7.4746,7.4921,7.5252,7.5097,7.5004,7.4998,7.5085,7.4872,7.4819,7.4848,7.4614,7.4363,7.4282,7.4097,7.4021,7.3862,7.3532,7.3348,7.3384,7.3381,7.3017,7.2894,7.2972,7.2803,7.2634,7.2691,7.3084,7.2891,7.2726,7.2845,7.3087,7.3001,7.2592,7.2687,7.2825,7.2729,7.2625,7.273,7.2815,7.2678,7.2742,7.2803,7.2729,7.2697,7.2801,7.2652,7.2754,7.2729,7.2819,7.3179,7.2794,7.2838,7.2685,7.2579,7.2783,7.2644,7.2779,7.2816,7.2753,7.2784,7.2839,7.2828,7.2749,7.2686,7.2641,7.2738,7.2817,7.2616,7.2481,7.2577,7.2675,7.2728,7.2763,7.2421,7.27,7.2727,7.2575,7.2672,7.2809,7.3085,7.3315,7.3255,7.338,7.319,7.3201,7.2994,7.3057,7.3378,7.3394,7.3178,7.2953,7.3519,7.3399,7.2626,7.2597,7.2571,7.1997,7.2383,7.2534,7.2173,7.2281,7.2377,7.2283,7.2255,7.2172,7.2063,7.2154,7.2162,7.2224,7.2002,7.2569,7.2066,7.1825,7.2188,7.2111,7.2354,7.2221,7.2199,7.2111,7.2162,7.2636,7.3151,7.414,7.5452,7.6898,7.8504,7.8088,7.5069,7.1663,7.0155,7.0061,7.0757,7.1463,7.1801,7.2397,7.2449,7.2503,7.2649,7.2435,7.2478,7.2464,7.2438,7.2364,7.2646,7.2825,7.2481,7.2531,7.2479,7.2529,7.2614,7.2517,7.2782,7.2732,7.2513,7.2565,7.2924,7.2764,7.2682,7.2873,7.2886,7.2767,7.2961,7.3099,7.2991,7.2949,7.3042,7.3064,7.3174,7.3128,7.3397,7.3606,7.3698,7.3626,7.3482,7.3397,7.3671,7.3895,7.404,7.404,7.4111,7.4106,7.4371,7.4379,7.4401,7.4456,7.4398,7.4306,7.4223,7.4214,7.4216,7.4093,7.3713,7.3438,7.3975,7.3768,7.2735,7.2898,7.2526,7.2529,7.2447,7.2301,7.2309,7.2253,7.2392,7.219,7.2146,7.214,7.2216,7.2177,7.2027,7.1936,7.2027,7.1988,7.2113,7.2186,7.1992,7.2048,7.1966,7.1968,7.2314,7.2006,7.1911,7.2293,7.2033,7.194,7.2062,7.2002,7.1994,7.2078,7.2077,7.2105,7.2088,7.2171,7.2069,7.2143,7.2555,7.2193,7.2,7.2019,7.1984,7.244,7.209,7.2003,7.1993,7.1955,7.2188,7.1963,7.1978,7.2131,7.2063,7.2181,7.1847,7.1912,7.1928,7.2131,7.2139,7.1922,7.1734,7.2131,7.1972,7.1739,7.1864,7.1783,7.2018,7.2015,7.2118,7.2351,7.2515,7.259,7.2524,7.2528,7.2469,7.2232,7.2512,7.2784,7.2722,7.269,7.2502,7.2359,7.2508,7.2221,7.1744,7.1775,7.147,7.1472,7.1849,7.1735,7.1469,7.148,7.1513,7.1532,7.1487,7.1328,7.1515,7.1621,7.1551,7.1497,7.147,7.1281,7.1517,7.1749,7.1486,7.1411,7.1512,7.133,7.1405,7.1668,7.2174,7.2618,7.372,7.5072,7.6617,7.7998,7.6871,7.3822,7.211,6.9871,6.9372,6.9699,7.0327,7.1397,7.1703,7.1898,7.1861,7.1682,7.1625,7.1882,7.1882,7.2088,7.1673,7.2154,7.1663,7.1811,7.1907,7.1982,7.2023,7.1859,7.1992,7.1998,7.2058,7.196,7.1906,7.1909,7.1908,7.2101,7.2295,7.2202,7.2275,7.2073,7.2225,7.2205,7.2379,7.2641,7.2572,7.227,7.2511,7.2694,7.2496,7.27,7.2644,7.2835,7.3068,7.3108,7.312,7.3376,7.3408,7.3542,7.3534,7.3395,7.3556,7.3732,7.3667,7.3543,7.3539,7.3644,7.3485,7.3316,7.3366,7.3,7.2796,7.2683,7.2533,7.234,7.2064,7.2038,7.1674,7.1733,7.1848,7.1521,7.1455,7.1382,7.1363,7.1362,7.1442,7.1485,7.1282,7.1098,7.1136,7.1181,7.1242,7.1217,7.1209,7.117,7.1131,7.1087,7.1369,7.1609,7.1212,7.1173,7.1252,7.1214,7.1082,7.0979,7.133,7.1258,7.1196,7.1245,7.1267,7.1239,7.1211,7.1164,7.1298,7.1148,7.1232,7.1249,7.094,7.0863,7.1146,7.1036,7.1012,7.0968,7.1079,7.1093,7.1034,7.1067,7.106,7.0996,7.0997,7.1015,7.1001,7.0975,7.0899,7.0979,7.0902,7.1064,7.0843,7.073,7.0968,7.1133,7.0833,7.0727,7.1018,7.101,7.1207,7.1501,7.1575,7.1597,7.1652,7.1665,7.159,7.1163,7.1333,7.1678,7.1749,7.1606,7.1675,7.1296,7.1307,7.097,7.0918,7.0852,7.0696,7.0943,7.0772,7.0617,7.0601,7.072,7.0935,7.1064,7.0711,7.0423,7.0408,7.0849,7.0509,7.0474,7.0235,7.0401,7.0496,7.0472,7.0578,7.0378,7.0222,7.0253,7.055,7.0692,7.0933,7.1602,7.3371,7.4095,7.4895,7.6529,7.6577,7.3996,7.0647,6.8792,6.8398,6.8766,6.9219,7.0112,7.0686,7.0845,7.0829,7.0683,7.0538,7.0652,7.0527,7.0409,7.0435,7.0597,7.0567,7.0546,7.0764,7.0832,7.0691,7.0671,7.0736,7.07,7.1048,7.1143,7.1011,7.08,7.0969,7.0989,7.095,7.1059,7.1172,7.097,7.0904,7.1287,7.1465,7.1289,7.122,7.1368,7.1268,7.1337,7.1362,7.1609,7.1895,7.2124,7.2155,7.2084,7.2044,7.2286,7.246,7.2506,7.2559,7.2707,7.26,7.264,7.2535,7.258,7.2513,7.2512,7.2399,7.2273,7.2308,7.2209,7.1804,7.1631,7.1707,7.107,7.0864,7.0907,7.0575,7.0571,7.0351,7.0607,7.0257,7.0293,7.0334,7.032,7.0452,7.001,7.0311,7.0321,7.0083,7.0279,7.0325,7.0476,7.0429,7.0471,7.0348,7.0444,7.0671,7.0006,7.0161,7.0223,7.0288,7.0487,7.0291,7.0511,7.0499,7.0276,7.0384,7.0556,7.0405,7.0278,7.0226,7.0466,7.0499,7.0541,7.0665,7.0027,7.0212,7.0498,7.0316,7.0121,7.0342,7.0321,7.0289,7.0267,7.0432,7.0569,7.0707,7.092,7.1192,7.0799,7.0971,7.1031,7.0781,7.0991,7.0945,7.1277,7.1375,7.1171,7.1021,7.0997,7.0921,7.0581,7.0201,7.0401,7.0338,7.0027,6.9913,7.0287,7.0375,7.0279,7.0208,7.0317,6.9772,7.005,7.0138,6.9987,7.0017,7.0026,7.0199,7.0198,7.0177,7.0312,7.0262,7.032,7.0355,7.024,7.0388,7.0617,7.1053,7.1529,7.2284,7.349,7.4884,7.6292,7.582,7.3115,7.0146,6.9093,6.8759,6.8544,6.9433,7.0084,7.0798,7.0555,7.0513,7.076,7.0742,7.0385,7.0623,7.0666,7.0641,7.0576,7.0822,7.0433,7.054,7.1256,7.1357,7.1391,7.1417,7.1631,7.1944,7.1456,7.125,7.1979,7.2346,7.1771,7.1848,7.1611,7.1884,7.1848,7.2031,7.2042,7.2014,7.2413,7.2444,7.2271,7.2598,7.2712,7.2582,7.2793,7.3355,7.2893,7.2928,7.3229,7.3469,7.3595,7.3274,7.3432,7.3914,7.4171,7.3741,7.3874,7.3938,7.4013,7.3971,7.4113,7.3815,7.3705,7.3498,7.3657,7.331,7.3121,7.3041,7.3354,7.2866,7.2146,7.238,7.2504,7.2551,7.2351,7.2288,7.228,7.224,7.2134,7.2288,7.2287,7.2233,7.2497,7.2294,7.2004,7.2005,7.22,7.2194,7.2377,7.2403,7.2481,7.2294,7.2276,7.2283,7.2465,7.248,7.2432,7.2624,7.2391,7.2432,7.2693,7.2469,7.2443,7.2437,7.2607,7.2682,7.257,7.2452,7.2668,7.2577,7.289,7.2911,7.2618,7.3019,7.2851,7.2802,7.331,7.3288,7.3419,7.3719,7.3656,7.3663,7.317,7.3161,7.3511,7.3744,7.3762,7.356,7.3168,7.3069,7.302,7.2769,7.2714,7.266,7.2987,7.2606,7.2639,7.2835,7.2535,7.2659,7.2637,7.2477,7.2859,7.2886,7.2825,7.267,7.2556,7.2817,7.2842,7.2787,7.2807,7.2854,7.2865,7.2832,7.293,7.3031,7.3468,7.4334,7.5174,7.6555,7.8346,7.9215,7.8191,7.4823,7.1843,7.1406,7.1131,7.1581,7.265,7.3207,7.3462,7.3749,7.3701,7.3435,7.3437,7.3428,7.3288,7.3202,7.3415,7.3516,7.3947,7.363,7.3666,7.3889,7.3835,7.3632,7.37,7.3671,7.3743,7.3771,7.3819,7.4072,7.4152,7.4353,7.394,7.3921,7.4086,7.4229,7.4271,7.4144,7.4136,7.4501,7.433,7.4493,7.4777,7.4788,7.4787,7.4929,7.4833,7.4941,7.5084,7.5315,7.5369,7.5685,7.559,7.5457,7.5645,7.5658,7.5608,7.5927,7.5822,7.5832,7.5644,7.5729,7.604,7.5441,7.5168,7.507,7.492,7.4714,7.4434,7.4386,7.4353,7.4417,7.4355,7.4407,7.3935,7.3933,7.3697,7.4154,7.4152,7.3869,7.3836,7.3366,7.403,7.3976,7.3638,7.3613,7.3863,7.3884,7.3624,7.3609,7.3781,7.3872,7.3839,7.3765,7.3819,7.3854,7.3964,7.375,7.3834,7.389,7.3639,7.3768,7.3988,7.4115,7.3905,7.383,7.4025,7.3769,7.3799,7.3882,7.3849,7.3809,7.3906,7.3891,7.4008,7.404,7.4395,7.4595,7.4608,7.4914,7.4842,7.482,7.4799,7.4467,7.4603,7.5126,7.4902,7.455,7.4783,7.4223,7.4089,7.4064,7.3868,7.3572,7.357,7.3598,7.3597,7.3679,7.3869,7.3477,7.3492,7.3718,7.356,7.3526,7.3424,7.3578,7.3572,7.3686,7.3473,7.3689,7.3593,7.3566,7.3593,7.3721,7.3736,7.3671,7.3642,7.4079,7.4556,7.5465,7.6947,7.8229,7.9806,7.9664,7.6912,7.3579,7.1738,7.1911,7.2229,7.2622,7.3555,7.399,7.3938,7.4094,7.42,7.4061,7.4254,7.4143,7.3887,7.4018,7.3988,7.4287,7.4466,7.4115,7.4289,7.4301,7.4213,7.4213,7.4278
