1.6948,1.6998,1.683,1.6852,1.6754,1.6828,1.6745,1.6504,1.6474,1.6552,1.6483,1.657,1.6401,1.6472,1.6351,1.6538,1.6347,1.6492,1.6375,1.6386,1.6518,1.6527,1.6525,1.6471,1.6502,1.6661,1.6621,1.6597,1.6568,1.6487,1.6537,1.6556,1.6501,1.6486,1.6501,1.65,1.6454,1.6499,1.645,1.6575,1.6554,1.6541,1.6595,1.6438,1.6505,1.6539,1.6546,1.646,1.6434,1.6464,1.6486,1.6408,1.6387,1.6419,1.639,1.6331,1.6456,1.6417,1.6294,1.6314,1.6326,1.6386,1.6372,1.6348,1.6257,1.6285,1.6348,1.6271,1.629,1.6319,1.6239,1.6269,1.623,1.6306,1.6219,1.6196,1.6306,1.6283,1.6375,1.6126,1.6106,1.6132,1.6136,1.6147,1.6136,1.6072,1.6216,1.6147,1.6189,1.6167,1.6142,1.6255,1.6245,1.6198,1.6158,1.619,1.6274,1.6248,1.6176,1.6143,1.6221,1.6151,1.6164,1.621,1.622,1.631,1.616,1.6169,1.619,1.6177,1.6173,1.6036,1.6161,1.6132,1.6205,1.6209,1.6218,1.6166,1.621,1.6134,1.6158,1.6212,1.6089,1.6217,1.6113,1.6167,1.623,1.6164,1.6062,1.6042,1.6083,1.6037,1.6107,1.614,1.6184,1.5904,1.6076,1.6128,1.6235,1.6208,1.6282,1.6641,1.6568,1.6595,1.6462,1.6606,1.6724,1.675,1.6913,1.6884,1.6934,1.6922,1.672,1.6449,1.6389,1.5974,1.5809,1.5765,1.5829,1.5862,1.5843,1.5827,1.5866,1.587,1.5979,1.5882,1.5931,1.5828,1.5895,1.5893,1.5732,1.5519,1.4886,1.4477,1.4524,1.5088,1.6973,2.1029,2.5341,2.8591,3.0035,3.2538,2.9616,2.3132,1.7309,1.3419,1.2051,1.0835,1.11,1.1597,1.308,1.366,1.4902,1.5529,1.5729,1.5827,1.5883,1.5914,1.5925,1.5952,1.5939,1.5904,1.6023,1.6051,1.6213,1.6232,1.6204,1.6231,1.6256,1.627,1.6296,1.6351,1.6252,1.6221,1.6397,1.6224,1.631,1.6296,1.6278,1.6406,1.6273,1.6366,1.6358,1.6454,1.6292,1.6348,1.6268,1.6307,1.6269,1.6383,1.6368,1.6393,1.6372,1.6351,1.6364,1.6434,1.634,1.6328,1.63,1.6447,1.6351,1.6488,1.6425,1.6451,1.6605,1.6537,1.6609,1.6545,1.6637,1.6687,1.6673,1.6777,1.6816,1.6931,1.6882,1.715,1.7133,1.7123,1.7186,1.7215,1.7249,1.7197,1.7096,1.7133,1.7075,1.7078,1.6969,1.6879,1.6794,1.673,1.6817,1.6662,1.6373,1.6394,1.6375,1.6372,1.6402,1.6315,1.6316,1.6375,1.6278,1.6336,1.6283,1.6228,1.6218,1.6256,1.6262,1.6265,1.637,1.6273,1.614,1.6236,1.6128,1.6139,1.6264,1.6181,1.6296,1.6234,1.61,1.6159,1.6145,1.6278,1.6297,1.6197,1.6151,1.6052,1.6209,1.615,1.6016,1.6114,1.6136,1.6216,1.6213,1.6009,1.6017,1.6062,1.6079,1.5926,1.6053,1.6022,1.5885,1.603,1.6015,1.5966,1.5942,1.5934,1.5943,1.5963,1.5983,1.5928,1.5793,1.5917,1.5967,1.5892,1.5737,1.5809,1.5881,1.5906,1.5904,1.5781,1.577,1.5753,1.5711,1.5749,1.5631,1.5712,1.5748,1.5705,1.5742,1.5699,1.572,1.5659,1.5743,1.5812,1.574,1.5768,1.5767,1.5753,1.5831,1.5859,1.575,1.5677,1.5727,1.5695,1.5653,1.5713,1.5797,1.5634,1.5779,1.588,1.6063,1.6122,1.6372,1.6014,1.5951,1.6086,1.6395,1.638,1.6493,1.6438,1.6289,1.6077,1.5951,1.5972,1.5718,1.5444,1.5416,1.5455,1.5316,1.5359,1.5356,1.5404,1.5544,1.5467,1.5301,1.5316,1.534,1.5425,1.5434,1.5462,1.5416,1.479,1.4195,1.3982,1.4165,1.4995,1.7754,2.2172,2.627,2.7809,2.9085,3.1714,2.9728,2.3596,1.738,1.3319,1.1705,1.0597,1.0594,1.1213,1.2447,1.3889,1.4776,1.5325,1.5472,1.5414,1.5484,1.5459,1.5474,1.562,1.5618,1.5646,1.5623,1.5741,1.5764,1.5858,1.5709,1.5677,1.5784,1.5923,1.5885,1.5858,1.5884,1.5951,1.5942,1.5897,1.595,1.5878,1.591,1.5975,1.5942,1.6005,1.6119,1.5945,1.5972,1.6158,1.6021,1.6127,1.5966,1.612,1.5985,1.6006,1.6067,1.5995,1.6074,1.6149,1.6043,1.6106,1.6119,1.6136,1.6189,1.6226,1.6259,1.6349,1.6431,1.6265,1.6245,1.6348,1.6407,1.6441,1.6489,1.6525,1.6644,1.6681,1.6686,1.6769,1.6779,1.6767,1.6877,1.6839,1.6839,1.6882,1.677,1.6703,1.6707,1.6727,1.6493,1.6376,1.6397,1.622,1.6276,1.6174,1.6077,1.6023,1.6001,1.5956,1.6071,1.5924,1.5981,1.5975,1.6031,1.5965,1.5978,1.6078,1.5994,1.5977,1.6051,1.6056,1.606,1.6068,1.6103,1.6075,1.6004,1.5997,1.5999,1.5952,1.6022,1.6004,1.595,1.6081,1.6053,1.6005,1.611,1.5849,1.6003,1.5994,1.6005,1.605,1.5978,1.6051,1.6011,1.5969,1.5965,1.6021,1.5872,1.5919,1.5849,1.5928,1.5917,1.5841,1.5887,1.5955,1.5893,1.5819,1.591,1.582,1.5826,1.5878,1.5858,1.5886,1.5796,1.5854,1.5804,1.5785,1.5705,1.5891,1.5787,1.5726,1.581,1.5673,1.5745,1.5927,1.5781,1.5836,1.5799,1.5714,1.5786,1.5846,1.5825,1.5703,1.5698,1.5858,1.5776,1.5784,1.5728,1.5737,1.5826,1.575,1.5695,1.5642,1.5697,1.5718,1.564,1.5718,1.5786,1.5719,1.5621,1.567,1.5622,1.5598,1.5684,1.5734,1.5691,1.5707,1.565,1.5673,1.5692,1.5781,1.5743,1.5628,1.5798,1.5691,1.567,1.5713,1.5727,1.5684,1.5669,1.5709,1.5731,1.568,1.5738,1.5708,1.5896,1.5808,1.5825,1.5991,1.6089,1.6286,1.6258,1.621,1.6172,1.6449,1.648,1.6676,1.6684,1.6561,1.6564,1.638,1.6372,1.6188,1.6072,1.5747,1.5649,1.5623,1.5613,1.5513,1.5569,1.5566,1.5649,1.5629,1.5565,1.5712,1.5498,1.5644,1.5625,1.5559,1.5467,1.4798,1.4145,1.4112,1.4325,1.574,1.8925,2.3265,2.7307,2.927,3.0202,3.3033,2.9262,2.2828,1.6753,1.279,1.1697,1.0467,1.0932,1.2005,1.3521,1.4616,1.5418,1.5315,1.5553,1.5442,1.5533,1.56,1.5647,1.5605,1.5688,1.5622,1.5775,1.5791,1.5891,1.5738,1.5856,1.5753,1.5987,1.5833,1.5785,1.5779,1.5909,1.5853,1.6023,1.5791,1.5981,1.5872,1.6026,1.5989,1.5934,1.5975,1.5987,1.6057,1.607,1.6092,1.5995,1.599,1.6025,1.6082,1.6092,1.61,1.6033,1.6136,1.6131,1.6142,1.6123,1.6098,1.6094,1.6035,1.6099,1.6113,1.6105,1.6189,1.624,1.6309,1.6279,1.6394,1.6385,1.6455,1.6503,1.6418,1.6501,1.6583,1.6703,1.6766,1.6658,1.6743,1.6892,1.7,1.6846,1.6832,1.6785,1.6807,1.6885,1.6771,1.6713,1.6676,1.6669,1.6626,1.6485,1.6435,1.6423,1.6379,1.6285,1.6232,1.6224,1.6281,1.6106,1.6258,1.6161,1.6287,1.6176,1.6179,1.6267,1.6285,1.6238,1.624,1.6147,1.635,1.6339,1.6292,1.6203,1.6298,1.6322,1.6237,1.6248,1.6232,1.6251,1.633,1.6221,1.6385,1.6228,1.6136,1.6154,1.6229,1.6221,1.6148,1.6106,1.6155,1.6203,1.6193,1.6104,1.6086,1.6073,1.6167,1.601,1.6007,1.6002,1.592,1.6007,1.6069,1.5983,1.595,1.5836,1.5933,1.5912,1.5913,1.5877,1.5752,1.5829,1.5858,1.5792,1.5766,1.5734,1.5793,1.5784,1.5717,1.5694,1.5778,1.5739,1.5738,1.5762,1.5683,1.5691,1.566,1.5646,1.5529,1.5619,1.5634,1.5635,1.5674,1.5686,1.5579,1.5564,1.5587,1.5648,1.5678,1.5674,1.5638,1.5597,1.5657,1.5737,1.5597,1.5674,1.5694,1.5727,1.5672,1.5584,1.5663,1.5703,1.574,1.5684,1.5577,1.5695,1.5623,1.5574,1.5783,1.5727,1.5575,1.5553,1.5653,1.5637,1.5662,1.5639,1.5574,1.5727,1.5679,1.567,1.5696,1.5574,1.5663,1.5767,1.561,1.5606,1.5558,1.5637,1.5767,1.583,1.5655,1.5679,1.5784,1.6006,1.604,1.5986,1.5984,1.6181,1.6311,1.644,1.6385,1.6399,1.6348,1.6262,1.6088,1.5904,1.57,1.5481,1.5482,1.5492,1.5393,1.5439,1.5441,1.5515,1.5412,1.5436,1.5429,1.5507,1.5588,1.5554,1.5521,1.5515,1.5274,1.4704,1.4093,1.4119,1.4409,1.5909,1.7569,2.1781,2.6148,2.8476,3.0129,3.1844,2.7591,2.0969,1.5573,1.2445,1.1488,1.051,1.0857,1.1253,1.272,1.3892,1.5011,1.5223,1.543,1.5341,1.5545,1.5547,1.5675,1.5634,1.5642,1.5558,1.5866,1.5739,1.5808,1.5783,1.5922,1.5902,1.5951,1.5889,1.5917,1.582,1.5972,1.602,1.5942,1.5916,1.5892,1.5975,1.6044,1.6055,1.6027,1.5957,1.6046,1.603,1.5999,1.6001,1.5975,1.612,1.6208,1.6081,1.6068,1.5953,1.6131,1.6221,1.6151,1.6029,1.6091,1.6046,1.6176,1.6168,1.6082,1.6154,1.6125,1.623,1.622,1.6205,1.6189,1.633,1.6397,1.6451,1.6376,1.6516,1.6642,1.673,1.6739,1.6751,1.6737,1.6777,1.6982,1.6927,1.6842,1.687,1.6912,1.6863,1.6804,1.6812,1.6706,1.6523,1.6517,1.6418,1.6366,1.6422,1.6303,1.6363,1.6157,1.611,1.614,1.6161,1.6061,1.6132,1.6151,1.6164,1.6014,1.6093,1.6178,1.6156,1.6074,1.6218,1.6214,1.6234,1.6119,1.6128,1.6189,1.6238,1.6214,1.6228,1.6133,1.6193,1.6179,1.6224,1.6269,1.6223,1.6263,1.6158,1.6199,1.6234,1.6196,1.6239,1.6156,1.6122,1.6229,1.6143,1.6149,1.6051,1.6017,1.6037,1.6011,1.5934,1.5995,1.6058,1.5982,1.5901,1.5901,1.5899,1.5912,1.6013,1.5942,1.5861,1.5947,1.5929,1.588,1.5922,1.5882,1.5957,1.5964,1.5977,1.6009,1.5792,1.5745,1.5853,1.5844,1.5865,1.5818,1.6012,1.5838,1.5777,1.5967,1.5862,1.5791,1.5831,1.5727,1.5792,1.5804,1.5801,1.5811,1.6001,1.5983,1.6066,1.6247,1.6337,1.6414,1.6213,1.6338,1.6433,1.6582,1.6784,1.6676,1.6543,1.6512,1.639,1.6335,1.6177,1.5932,1.557,1.5485,1.5495,1.556,1.5555,1.555,1.557,1.5644,1.5592,1.563,1.5539,1.5543,1.5603,1.5608,1.5661,1.5513,1.5274,1.461,1.4225,1.4353,1.5012,1.5984,1.9163,2.3614,2.7338,2.9217,3.1662,3.1478,2.5604,1.9447,1.4407,1.2195,1.1132,1.0704,1.1318,1.2537,1.4029,1.5096,1.5622,1.5827,1.5688,1.5662,1.5737,1.5859,1.5928,1.5966,1.5933,1.5898,1.5987,1.6017,1.6164,1.6083,1.6093,1.6167,1.6149,1.6149,1.6095,1.6148,1.6242,1.6299,1.6269,1.6283,1.6139,1.6218,1.6227,1.6274,1.6236,1.6225,1.6245,1.6313,1.6343,1.6336,1.6307,1.6387,1.641,1.6318,1.6238,1.6423,1.6413,1.6517,1.6454,1.6376,1.6461,1.6464,1.6573,1.6578,1.6618,1.6669,1.6624,1.6728,1.6719,1.6759,1.6744,1.6818,1.6872,1.701,1.7048,1.6925,1.7023,1.713,1.7119,1.7189,1.7218,1.725,1.7187,1.7268,1.7333,1.7112,1.7068,1.7056,1.7044,1.6988,1.6961,1.6856,1.6722,1.6608,1.671,1.6507,1.6581,1.6516,1.6463,1.6526,1.6541,1.6451,1.6442,1.6521,1.6502,1.6409,1.6425,1.6443,1.658,1.6469,1.6378,1.6453,1.6447,1.6422,1.6534,1.6399,1.6422,1.6391,1.6429,1.6557,1.6554,1.6437,1.6402,1.6463,1.6509,1.6437,1.633,1.635,1.6439,1.6375,1.644,1.6421,1.638,1.6483,1.6371,1.6352,1.6431,1.644,1.6382,1.641,1.6395,1.6372,1.6337,1.6299,1.6312,1.6358,1.6336,1.6266,1.6353,1.6376,1.6284,1.628,1.6391,1.631,1.6335,1.6332,1.6267,1.6226,1.6179,1.643,1.6368,1.6281,1.613,1.6192,1.6439,1.6241,1.631,1.6333,1.6112,1.6273,1.6261,1.6292,1.6292,1.6324,1.6316,1.6167,1.6134,1.618,1.6316,1.6229,1.6258,1.6282,1.6191,1.6154,1.624,1.6265,1.6271,1.6224,1.6199,1.6236,1.6371,1.6281,1.6234,1.6295,1.642,1.6351,1.6408,1.6299,1.6264,1.6303,1.6379,1.6392,1.6344,1.6476,1.6573,1.6802,1.69,1.68,1.6821,1.693,1.7082,1.7,1.7139,1.7243,1.712,1.716,1.7005,1.6884,1.6733,1.6391,1.6122,1.6057,1.6043,1.6216,1.6177,1.6291,1.6227,1.6289,1.6286,1.6137,1.6255,1.6284,1.626,1.6197,1.6353,1.6254,1.5973,1.5354,1.5008,1.5115,1.5721,1.8245,2.2552,2.6843,2.9766,3.1418,3.3856,2.99,2.3226,1.731,1.3751,1.2799,1.1724,1.2081,1.3151,1.4836,1.5386,1.667,1.6703,1.6759,1.6706,1.7081,1.7252,1.7197,1.7066,1.7045,1.7272,1.7432,1.7307,1.7448,1.7395,1.7606,1.764,1.7564,1.7583,1.7888,1.7982,1.8282,1.8284,1.7957,1.789,1.8248,1.8127,1.8191,1.8029,1.8429,1.8333,1.8424,1.8438,1.8495,1.8868,1.9106,1.9328,1.9366,1.9211,1.9189,1.919,1.9178,1.9335,1.9201,1.8797,1.8714,1.8999,1.8916,1.8953,1.8649,1.8675,1.882,1.9281,1.8937,1.8853,1.9029,1.9148,1.901,1.8733,1.8572,1.8985,1.9158,1.869,1.866,1.9119,1.9176,1.9133,1.9056,1.8885,1.8554,1.9144,1.8986,1.8828,1.8494,1.8683,1.8812,1.8772,1.8574,1.8335,1.8206,1.8326,1.8429,1.8341,1.8368,1.8134,1.8365,1.8267,1.825,1.8308,1.7954,1.8058,1.8062,1.8102,1.8092,1.7892,1.8048,1.8003,1.776,1.7721,1.7712,1.7986,1.7803,1.7535,1.7534,1.7484,1.7721,1.7608,1.7539,1.7371,1.7429,1.7463,1.7743,1.7721,1.7227,1.7413,1.7432,1.7336,1.748,1.7632,1.7482,1.7209,1.7498,1.7339,1.7393,1.7429,1.7304,1.7427,1.7405,1.747,1.723,1.724,1.7369,1.7367,1.7369,1.7439,1.699,1.739,1.7327,1.7266,1.7439,1.7372,1.7492,1.7357,1.7546,1.7395,1.7453,1.7604,1.7306,1.7299,1.7164,1.7137,1.7392,1.706,1.7092,1.7119,1.702,1.7016,1.6835,1.7042,1.707,1.6909,1.6656,1.6684,1.6904,1.6877,1.676,1.6721,1.6703,1.6968,1.6605,1.6553,1.6679,1.6805,1.6835,1.663,1.6487,1.6718,1.6818,1.669,1.6853,1.6504,1.6372,1.6396,1.6546,1.6631,1.6569,1.6438,1.6352,1.6638,1.6944,1.6649,1.6551,1.6395,1.6539,1.6611,1.6665,1.6579,1.6576,1.6493,1.659,1.6487,1.6641,1.6519,1.6552,1.6664,1.6643,1.6824,1.6698,1.6911,1.6975,1.7059,1.719,1.6884,1.7169,1.7244,1.742,1.734,1.7277,1.7168,1.7591,1.7359,1.703,1.6956,1.6704,1.6574,1.6551,1.6682,1.6238,1.6325,1.6653,1.6427,1.6285,1.6054,1.6685,1.6624,1.6622,1.6782,1.67,1.655,1.6405,1.6212,1.5238,1.5286,1.5369,1.6399,1.904,2.323,2.7345,2.9889,3.116,3.2843,2.8412,2.1688,1.6482,1.3366,1.2192,1.1525,1.1838,1.1908,1.3102,1.42,1.5391,1.5944,1.5902,1.6239,1.5979,1.6245,1.6376,1.6059,1.6632,1.6507,1.6133,1.6254,1.6501,1.6336,1.6484,1.6487,1.6425,1.6204,1.6403,1.6381,1.6535,1.6442,1.6325,1.6572,1.6518,1.6385,1.6672,1.653,1.6544,1.6558,1.6752,1.6688,1.6563,1.6339,1.6519,1.6718,1.6513,1.6638,1.6583,1.6626,1.6771,1.6719,1.6667,1.6659,1.663,1.6616,1.6626,1.6701,1.6705,1.6591,1.6536,1.691,1.6914,1.6923,1.692,1.6912,1.6954,1.7163,1.7007,1.704,1.6971,1.7244,1.7288,1.7229,1.735,1.7104,1.7645,1.7705,1.74,1.7401,1.7399,1.7404,1.7318,1.7275,1.7416,1.7434,1.7189,1.7338,1.7035,1.7004,1.6665,1.671,1.6893,1.6819,1.6812,1.6845,1.6692,1.6773,1.6943,1.6944,1.6933,1.6951,1.7018,1.703,1.6813,1.6829,1.6862,1.6946,1.6643,1.6702,1.6757,1.6963,1.6541,1.6283,1.6746,1.7292,1.689,1.6599,1.6913,1.6767,1.6681,1.7083,1.7069,1.6861,1.6677,1.672,1.6732,1.6944,1.6887,1.6728,1.6633,1.6811,1.715,1.6836,1.6677,1.673,1.6216,1.6513,1.6927,1.6549,1.6694,1.6536,1.6605,1.6579,1.647,1.6502,1.6318,1.6491,1.6467,1.6415,1.6437,1.6434,1.6467,1.6389,1.6522,1.6671,1.6762,1.6996,1.6955,1.688,1.679,1.6783,1.7186,1.7135,1.7336,1.7401,1.7182,1.6945,1.7221,1.7056,1.6864,1.6763,1.6482,1.6358,1.6063,1.5887,1.5895,1.5966,1.5797,1.6099,1.5919,1.5983,1.616,1.5806,1.5927,1.5968,1.6096,1.611,1.6388,1.6136,1.5306,1.4521,1.492,1.4914,1.5605,1.7796,2.1878,2.6004,2.9333,3.0383,3.2214,2.8472,2.2119,1.6644,1.439,1.2646,1.1105,1.0839,1.1438,1.2996,1.4033,1.5391,1.5635,1.5952,1.596,1.5969,1.5692,1.5967,1.5969,1.5707,1.6098,1.6426,1.5957,1.6261,1.6056,1.6363,1.5848,1.642,1.612,1.6244,1.6146,1.5999,1.6185,1.6694,1.6522,1.6284,1.5978,1.596,1.6377,1.6586,1.6602,1.6351,1.6404,1.6299,1.6399,1.6822,1.6455,1.6389,1.624,1.6919,1.6779,1.6602,1.666,1.6284,1.6972,1.675,1.6693,1.6367,1.6644,1.6853,1.6873,1.6914,1.7008,1.7097,1.6894,1.6878,1.7224,1.7177,1.6947,1.7193,1.7375,1.7338,1.7184,1.7422,1.7211,1.7463,1.7349,1.7472,1.7838,1.7547,1.7399,1.7292,1.7311,1.7185,1.7074,1.7089,1.718,1.6709,1.6647,1.6506,1.6744,1.6458,1.6966,1.6507,1.6521,1.6402,1.6079,1.6321,1.6114,1.634,1.653,1.6333,1.6117,1.5902,1.6276,1.631,1.6307,1.6311,1.6292,1.6306,1.6273,1.6584,1.6623,1.64,1.6699,1.6785,1.6842,1.6857,1.659,1.6379,1.6631,1.6542,1.6582,1.6533,1.6503,1.6609,1.6496,1.6294,1.6129,1.6365,1.6429,1.6636,1.6101,1.6334,1.6163,1.6204,1.6272,1.6299,1.5859,1.5974,1.6108,1.6404,1.6392,1.5958,1.5702,1.6363,1.6279,1.6171,1.6224,1.598,1.587,1.5797,1.6025,1.6129,1.6252,1.6039,1.6464,1.677,1.669,1.6931,1.6796,1.6842,1.6625,1.6797,1.6906,1.6964,1.7009,1.7009,1.7268,1.6987,1.6851,1.6789,1.6314,1.6255,1.6397,1.5847,1.5833,1.5771,1.582,1.5663,1.5673,1.5765,1.5713,1.57,1.5643,1.5748,1.5678,1.5797,1.5787,1.5775,1.5783,1.5639,1.5165,1.4448,1.4473,1.4951,1.657,2.0187,2.4382,2.7687,2.9679,3.1174,3.2886,2.857,2.2133,1.6263,1.3072,1.1954,1.1149,1.1623,1.3034,1.4579,1.5496,1.6334,1.6216,1.6273,1.6429,1.6647,1.6379,1.6651,1.6476,1.6718,1.6562,1.6737,1.6588,1.6571,1.6462,1.6636,1.6584,1.6395,1.6263,1.6281,1.6759,1.6845,1.6732,1.6575,1.6377,1.6288,1.6684,1.6807,1.6565,1.6524,1.6574,1.6673,1.6454,1.645,1.6534,1.6754,1.6522,1.6636,1.6523,1.6316,1.6587,1.6905,1.6873,1.677,1.6655,1.6748,1.6824,1.6766,1.6933,1.6712,1.6734,1.6817,1.6875,1.6884,1.682,1.6914,1.6954,1.7328,1.7494,1.7389,1.7274,1.7329,1.7164,1.7313,1.7412,1.7686,1.813,1.7842,1.8185,1.8219,1.8043,1.7779,1.7723,1.7625,1.7707,1.7552,1.7598,1.7598,1.7647,1.7459,1.7347,1.7637,1.7643,1.744,1.7449,1.7322,1.7639,1.759,1.7581,1.732,1.7502,1.7524,1.7566,1.734,1.7284,1.7376,1.7303,1.7261,1.7415,1.7423,1.7398,1.7116,1.7304,1.7376,1.7377,1.7133,1.7169,1.7291,1.7364,1.7213,1.7253,1.7358,1.696,1.7229,1.7266,1.6967,1.6883,1.7236,1.7359,1.7021,1.6956,1.7001,1.7027,1.6955,1.6943,1.6998,1.6962,1.6824,1.6815,1.6793,1.6914,1.6982,1.6668,1.656,1.6647,1.6877,1.6853,1.6901,1.6857,1.6702,1.6677,1.6485,1.6631,1.686,1.6288,1.631,1.6317,1.6499,1.6414,1.6771,1.685,1.6751,1.669,1.6668,1.6826,1.6615,1.6603,1.6554,1.6743,1.6597,1.6673,1.6859,1.6884,1.6866,1.6947,1.6762,1.7013,1.7194,1.7229,1.7219,1.7251,1.7213,1.7113,1.6926,1.6955,1.6697,1.6465,1.5989,1.5837,1.6244,1.6093,1.6103,1.5984,1.583,1.5725,1.6191,1.6101,1.6067,1.593,1.5842,1.5911,1.6287,1.6007,1.5861,1.5283,1.4806,1.4585,1.5007,1.604,1.9341,2.3844,2.7568,2.9634,3.1829,3.179,2.6106,1.9649,1.6904,1.3583,1.2056,1.1156,1.121,1.2046,1.3489,1.471,1.5397,1.6091,1.5847,1.6251,1.5862,1.6151,1.6082,1.6063,1.6001,1.6123,1.6339,1.6285,1.6121,1.6235,1.6098,1.6487,1.6364,1.6387,1.6215,1.6277,1.6382,1.6452,1.6347,1.6311,1.6013,1.6155,1.639,1.6434,1.62,1.6219,1.6443,1.6171,1.6402,1.6263,1.6237,1.6296,1.6231,1.6332,1.6205,1.6299,1.6217,1.6394,1.6232,1.6168,1.6138,1.6293,1.6384,1.6117,1.6348,1.6344,1.6359,1.6605,1.6469,1.6486,1.6463,1.6711,1.6893,1.6753,1.6809,1.6871,1.684,1.7003,1.6984,1.7142,1.7176,1.7268,1.7471,1.7294,1.7347,1.7156,1.7334,1.7284,1.7183,1.7189,1.7019,1.6897,1.688,1.6665,1.6746,1.6787,1.6647,1.6803,1.6763,1.6831,1.6663,1.6629,1.6584,1.6651,1.6699,1.6655,1.6565,1.6619,1.6897,1.6761,1.665,1.6645,1.6665,1.6774,1.6702,1.6967,1.6673,1.669,1.6768,1.6654,1.6644,1.6514,1.6752,1.6803,1.6892,1.6653,1.639,1.6366,1.6836,1.6643,1.6909,1.6627,1.6464,1.698,1.6625,1.6547,1.6689,1.655,1.6621,1.6478,1.6525,1.6774,1.6629,1.6492,1.6855,1.6593,1.6522,1.6634,1.6544,1.6448,1.6645,1.6479,1.6522,1.6581,1.6661,1.6452,1.6527,1.6459,1.6511,1.6921,1.695,1.71,1.7113,1.7091,1.6987,1.7257,1.7331,1.7474,1.7418,1.7549,1.7385,1.7445,1.7271,1.7186,1.7037,1.7074,1.6502,1.626,1.6273,1.648,1.6447,1.6128,1.6313,1.6326,1.6188,1.6317,1.6283,1.6193,1.6272,1.6392,1.6366,1.6191,1.6393,1.6272,1.5666,1.4944,1.4878,1.5381,1.7375,2.1461,2.5756,2.8848,3.0009,3.2631,3.0034,2.3457,2.0547,1.5318,1.2833,1.1864,1.1412,1.1828,1.2685,1.4168,1.5287,1.6001,1.6371,1.6371,1.6246,1.6314,1.6356,1.6627,1.6572,1.6523,1.6544,1.6692,1.6711,1.6778,1.6408,1.6735,1.6776,1.6819,1.6985,1.685,1.6825,1.6846,1.677,1.6755,1.6914,1.6884,1.6864,1.6989,1.6679,1.6869,1.703,1.6991,1.6965,1.6917,1.6948,1.7118,1.6989,1.6959,1.6999,1.7059,1.7042,1.7168,1.7012,1.7054,1.7019,1.7019,1.6842,1.7176,1.7099,1.7091,1.7275,1.7223,1.7104,1.7338,1.7333,1.7372,1.7388,1.7487,1.7547,1.7397,1.7557,1.7571,1.7821,1.7835,1.7857,1.7855,1.7752,1.7947,1.7922,1.8017,1.7953,1.7793,1.7863,1.7666,1.7624,1.7561,1.7524,1.7577,1.7518,1.7442,1.7384,1.7208,1.7362,1.7262,1.7451,1.7228,1.7289,1.7196,1.7344,1.7322,1.7186,1.7172,1.7258,1.7395,1.7268,1.7202,1.6987,1.7241,1.7455,1.7429,1.732,1.7403,1.7348,1.7329,1.7376,1.7312,1.7287,1.7243,1.7518,1.7285,1.7299,1.7232,1.7184,1.7018,1.7156,1.7248,1.7302,1.6963,1.7333,1.7347,1.7266,1.7126,1.7068,1.7113,1.7128,1.7103,1.7117,1.698,1.7111,1.7085,1.6937,1.7049,1.7046,1.697,1.7066,1.695,1.6798,1.7063,1.7054,1.7049,1.6974,1.6784,1.6942,1.6809,1.6941,1.7281,1.6969,1.7023,1.6921,1.6867,1.69,1.7024,1.6847,1.6939,1.7054,1.705,1.6962,1.6902,1.6763,1.7007,1.6991,1.6865,1.6902,1.6799,1.6961,1.7069,1.6883,1.6971,1.6961,1.7095,1.7104,1.705,1.7345,1.7628,1.7528,1.7468,1.7505,1.7551,1.7826,1.7897,1.7914,1.7787,1.7606,1.7394,1.729,1.7353,1.7191,1.6625,1.659,1.6644,1.6611,1.6792,1.6526,1.6667,1.6682,1.6699,1.6712,1.6621,1.6769,1.677,1.6685,1.6715,1.6677,1.6461,1.5726,1.5217,1.529,1.5776,1.7368,1.9053,2.3402,2.7779,3.0088,3.2056,3.3178,2.8197,2.1473,1.6257,1.3006,1.2046,1.1402,1.2191,1.3462,1.499,1.5766,1.6608,1.6428,1.6534,1.6491,1.6656,1.6594,1.678,1.6639,1.6604,1.6682,1.7005,1.6804,1.6774,1.6662,1.6832,1.6757,1.6845,1.6922,1.689,1.6879,1.6883,1.689,1.6862,1.699,1.705,1.6856,1.7034,1.6979,1.6946,1.7036,1.6928,1.6972,1.7038,1.6846,1.6999,1.701,1.6916,1.701,1.7008,1.6953,1.692,1.704,1.7039,1.6893,1.689,1.6859,1.6722,1.6978,1.711,1.7037,1.6993,1.6968,1.7074,1.7009,1.6948,1.7143,1.723,1.7266,1.7251,1.7381,1.7193,1.7311,1.7598,1.762,1.7528,1.7853,1.7621,1.7889,1.7721,1.7725,1.7626,1.7766,1.79,1.782,1.7597,1.75,1.7458,1.7529,1.7388,1.7304,1.7361,1.7214,1.7289,1.7277,1.7317,1.7242,1.7253,1.7161,1.7246,1.7388,1.6979,1.7335,1.7365,1.7435,1.7336,1.7304,1.7198,1.723,1.7406,1.7149,1.7148,1.7344,1.736,1.728,1.7228,1.7103,1.7188,1.6986,1.7047,1.7201,1.6999,1.7177,1.6977,1.701,1.7133,1.7098,1.684,1.6831,1.7062,1.6983,1.6737,1.688,1.6865,1.6898,1.7105,1.7011,1.6945,1.6831,1.694,1.6762,1.6756,1.6877,1.6813,1.6825,1.6666,1.6709,1.6771,1.662,1.6894,1.6822,1.6714,1.673,1.683,1.6824,1.6701,1.6924,1.6715,1.6713,1.6842,1.6652,1.6687,1.6538,1.6701,1.6788,1.6682,1.678,1.6563,1.6814,1.6763,1.667,1.6618,1.6702,1.6806,1.6648,1.69,1.6788,1.6595,1.66,1.6626,1.6869,1.6754,1.6745,1.6596,1.6849,1.6824,1.6668,1.6671,1.661,1.6687,1.6845,1.6747,1.656,1.6525,1.6656,1.6903,1.679,1.6656,1.6619,1.6598,1.6738,1.6872,1.6761,1.6725,1.6691,1.6848,1.7049,1.7279,1.7253,1.7152,1.6986,1.7262,1.7412,1.7491,1.7604,1.7423,1.7529,1.7616,1.7283,1.7177,1.696,1.6722,1.6433,1.6329,1.6306,1.6433,1.6477,1.6511,1.6406,1.6622,1.6396,1.6412,1.6527,1.6603,1.6499,1.6436,1.6449,1.6188,1.5596,1.5027,1.4831,1.5322,1.6812,2.0224,2.4328,2.8257,3.0081,3.2334,3.1818,2.5901,1.9663,1.4945,1.2913,1.2275,1.1304,1.1469,1.2366,1.3817,1.5122,1.581,1.6223,1.64,1.6491,1.6302,1.6388,1.6384,1.6487,1.6624,1.6892,1.6501,1.6419,1.6626,1.6671,1.669,1.6607,1.6702,1.6709,1.6766,1.6571,1.6641,1.6722,1.6667,1.6821,1.6902,1.6858,1.6651,1.684,1.6835,1.6884,1.6604,1.6704,1.6706,1.6905,1.689,1.6904,1.6761,1.6905,1.6937,1.6873,1.6869,1.6694,1.6887,1.6975,1.6912,1.6839,1.6662,1.6758,1.6753,1.6808,1.6934,1.681,1.6923,1.6875,1.6968,1.7045,1.7124,1.7081,1.7189,1.721,1.7103,1.7291,1.7376,1.7276,1.7444,1.7548,1.7503,1.7565,1.7509,1.7426,1.7687,1.7649,1.7512,1.7474,1.7632,1.7481,1.7325,1.7133,1.6962,1.7149,1.7188,1.6868,1.6843,1.6799,1.6944,1.7013,1.6925,1.6847,1.6821,1.6841,1.687,1.6929,1.6741,1.6845,1.6825,1.6873,1.6856,1.6707,1.6759,1.6917,1.683,1.6882,1.6704,1.6595,1.6602,1.668,1.6773,1.678,1.6667,1.6757,1.6806,1.6737,1.6719,1.6659,1.6539,1.6688,1.6466,1.6581,1.6624,1.6455,1.6754,1.6621,1.6373,1.638,1.6449,1.6651,1.6531,1.6533,1.6406,1.6555,1.6601,1.641,1.6311,1.6531,1.636,1.647,1.6506,1.6424,1.6507,1.6528,1.6487,1.651,1.6665,1.6515,1.6443,1.6499,1.6454,1.6439,1.628,1.6438,1.6586,1.6629,1.6597,1.6436,1.698,1.7188,1.7145,1.6984,1.6837,1.7191,1.7261,1.7305,1.7354,1.7272,1.7309,1.7008,1.6925,1.6929,1.6502,1.6088,1.6119,1.6389,1.6223,1.632,1.6272,1.6174,1.6269,1.608,1.6062,1.6164,1.6288,1.6245,1.61,1.6235,1.6162,1.5799,1.504,1.4773,1.4787,1.5215,1.6967,1.8681,2.3051,2.7077,2.9371,3.0924,3.1823,2.713,2.0635,1.539,1.2523,1.1876,1.0957,1.1241,1.2148,1.3627,1.4753,1.5786,1.5823,1.5973,1.6033,1.6073,1.6188,1.6185,1.6115,1.6163,1.6114,1.6345,1.6382,1.6587,1.6295,1.6457,1.6547,1.6574,1.6474,1.6533,1.6493,1.662,1.6608,1.6488,1.6572,1.6498,1.6585,1.6726,1.6475,1.6645,1.6723,1.6673,1.6726,1.6697,1.6657,1.6651,1.6709,1.6778,1.6789,1.6703,1.6449,1.6779,1.6989,1.6741,1.6674,1.655,1.6793,1.6881,1.6851,1.6612,1.6847,1.6825,1.6938,1.6827,1.6964,1.6857,1.6842,1.6878,1.709,1.6978,1.7179,1.718,1.7155,1.7298,1.7344,1.7407,1.7528,1.7564,1.7452,1.7486,1.7462,1.7326,1.7602,1.7305,1.7206,1.7125,1.6863,1.6818,1.6914,1.6905,1.6878,1.6604,1.6829,1.6976,1.6866,1.6511,1.6676,1.6576,1.6649,1.6716,1.6572,1.6776,1.6783,1.6789,1.6871,1.6778,1.6681,1.6745,1.6851,1.6706,1.6952,1.6757,1.6785,1.6817,1.6832,1.6747,1.6746,1.6831,1.669,1.6836,1.6728,1.6776,1.6797,1.6857,1.6708,1.6695,1.6549,1.6629,1.6767,1.676,1.668,1.6586,1.6439,1.6775,1.6696,1.6555,1.6588,1.6578,1.6612,1.6656,1.6571,1.6534,1.6546,1.6395,1.6492,1.6793,1.661,1.6439,1.6386,1.6417,1.649,1.6557,1.6403,1.6463,1.6483,1.658,1.6544,1.6547,1.6326,1.6612,1.6608,1.6405,1.6476,1.6163,1.6482,1.6809,1.6615,1.6908,1.6861,1.6899,1.698,1.7084,1.7123,1.7231,1.7181,1.7186,1.722,1.6802,1.666,1.6583,1.6339,1.6308,1.6145,1.6125,1.5971,1.5946,1.6022,1.6015,1.6136,1.6208,1.6128,1.6096,1.6149,1.6245,1.615,1.6191,1.607,1.5643,1.4968,1.4783,1.4997,1.5694,1.7617,2.1853,2.609,2.907,3.043,3.2936,2.9365,2.2886,1.7006,1.3239,1.2013,1.139,1.115,1.192,1.363,1.4711,1.5781,1.608,1.6474,1.6134,1.621,1.6026,1.6267,1.6369,1.654,1.6225,1.6334,1.6322,1.6354,1.6501,1.6528,1.6514,1.6588,1.6479,1.6933,1.6613,1.6601,1.6606,1.6746,1.6348,1.6401,1.6664,1.6624,1.6269,1.6324,1.6459,1.6413,1.6409,1.6493,1.6401,1.6398,1.6271,1.6422,1.6366,1.6621,1.6359,1.6456,1.6414,1.6596,1.6598,1.6545,1.646,1.6475,1.6621,1.649,1.6524,1.6283,1.6198,1.643,1.6368,1.6339,1.6554,1.6581,1.6674,1.6677,1.6776,1.6733,1.6837,1.6779,1.7076,1.7125,1.7068,1.7056,1.7188,1.7095,1.6957,1.687,1.7087,1.7108,1.73,1.7172,1.6884,1.6716,1.6677,1.6733,1.6809,1.6642,1.6604,1.656,1.6501,1.647,1.6691,1.669,1.6545,1.6455,1.6621,1.6585,1.6514,1.6544,1.6579,1.6762,1.6721,1.667,1.6613,1.6672,1.6742,1.6794,1.6544,1.67,1.6642,1.6683,1.6775,1.6549,1.6424,1.6343,1.6634,1.6682,1.6489,1.6451,1.6467,1.6347,1.6553,1.6517,1.6389,1.6541,1.6432,1.6585,1.6597,1.6509,1.6515,1.6404,1.6474,1.6411,1.6429,1.6241,1.6373,1.6345,1.6195,1.63,1.6382,1.6385,1.6324,1.6183,1.6318,1.6324,1.6347,1.6431,1.6413,1.6219,1.6357,1.6263,1.6354,1.6254,1.6049,1.6274,1.6266,1.6233,1.6148,1.6239,1.6324,1.6279,1.641,1.6671,1.6653,1.6479,1.6566,1.659,1.6981,1.729,1.7217,1.715,1.7022,1.7232,1.7485,1.743,1.7428,1.7666,1.7523,1.7437,1.7275,1.714,1.7025,1.6999,1.6485,1.6338,1.6377,1.6511,1.6358,1.6521,1.6557,1.6476,1.6589,1.6638,1.6314,1.6227,1.646,1.6465,1.652,1.6404,1.6324,1.5631,1.4788,1.505,1.552,1.7297,2.1154,2.5317,2.8673,2.994,3.2681,3.065,2.4369,1.8485,1.4257,1.2719,1.1842,1.185,1.2912,1.4374,1.4919,1.5995,1.6352,1.6517,1.6398,1.6537,1.6531,1.6442,1.6571,1.6667,1.6598,1.6655,1.6622,1.6704,1.6752,1.6762,1.672,1.6766,1.6778,1.6856,1.6872,1.6769,1.6548,1.6835,1.6879,1.6673,1.6681,1.6723,1.6614,1.6593,1.6898,1.6848,1.6679,1.6334,1.6828,1.7175,1.6827,1.6968,1.6715,1.6846,1.6941,1.6819,1.6859,1.6754,1.6802,1.6832,1.6878,1.6767,1.6836,1.6871,1.6876,1.696,1.6939,1.6843,1.6941,1.7,1.7077,1.7142,1.719,1.7195,1.7348,1.7403,1.749,1.7572,1.7648,1.777,1.7914,1.7854,1.7914,1.7735,1.7737,1.767,1.7875,1.7869,1.7618,1.7542,1.7515,1.7232,1.7236,1.7219,1.7214,1.726,1.7094,1.7029,1.7196,1.6976,1.708,1.6849,1.6774,1.6857,1.7023,1.7,1.7046,1.7093,1.6948,1.7195,1.7015,1.6973,1.6873,1.687,1.6971,1.703,1.6807,1.6838,1.6843,1.6762,1.7016,1.6843,1.688,1.6761,1.6776,1.6832,1.6822,1.6776,1.6791,1.686,1.6811,1.687,1.675,1.6801,1.6776,1.6774,1.6741,1.6722,1.6651,1.6784,1.6814,1.682,1.6603,1.6522,1.6544,1.6569,1.6517,1.6758,1.6989,1.7093,1.7075,1.7176,1.7052,1.7045,1.7024,1.7243,1.746,1.7641,1.7656,1.7695,1.7412,1.7275,1.7214,1.6928,1.6786,1.6476,1.6337,1.6098,1.6008,1.6126,1.6392,1.6341,1.6256,1.6336,1.6267,1.6199,1.6159,1.6136,1.6178,1.6318,1.6362,1.6315,1.6087,1.5427,1.4924,1.481,1.5267,1.696,2.074,2.5354,2.8509,2.9744,3.0618,3.1237,2.6506,2.0341,1.5605,1.3022,1.2032,1.1435,1.1758,1.2375,1.3621,1.4929,1.5772,1.614,1.6407,1.637,1.6521,1.6421,1.6347,1.6382,1.6532,1.6484,1.6588,1.663,1.6866,1.6772,1.6706,1.6702,1.6568,1.6678,1.6864,1.6748,1.6735,1.6729,1.6855,1.6812,1.6852,1.6738,1.6718,1.6784,1.692,1.6923,1.6862,1.691,1.6966,1.7049,1.7015,1.682,1.6908,1.7004,1.6781,1.6943,1.6914,1.671,1.6844,1.7237,1.7201,1.7053,1.7012,1.6847,1.6993,1.7013,1.7018,1.7101,1.7165,1.7387,1.7261,1.7245,1.7253,1.7338,1.751,1.7468,1.7545,1.7509,1.7823,1.795,1.788,1.7791,1.8009,1.7963,1.7859,1.8041,1.7865,1.7685,1.7758,1.7474,1.7642,1.7486,1.7257,1.7196,1.7161,1.7139,1.7053,1.6989,1.7107,1.7031,1.7111,1.6858,1.6857,1.7182,1.6958,1.7067,1.7083,1.6927,1.71,1.7104,1.7257,1.7179,1.7097,1.7045,1.691,1.6998,1.7084,1.7288,1.7224,1.7106,1.7154,1.7107,1.703,1.7018,1.7022,1.6985,1.7006,1.7083,1.689,1.7124,1.6903,1.6958,1.6976,1.6993,1.6909,1.7028,1.6942,1.6919,1.6733,1.6816,1.6998,1.6939,1.7152,1.727,1.7156,1.7375,1.7595,1.7407,1.738,1.7401,1.7646,1.7776,1.7861,1.7885,1.7785,1.7574,1.7317,1.7397,1.7345,1.7103,1.6585,1.6625,1.6619,1.6441,1.6411,1.6292,1.6325,1.6296,1.6501,1.628,1.6184,1.6355,1.6383,1.6497,1.6337,1.6319,1.6401,1.6041,1.5099,1.5,1.5107,1.6078,1.7159,2.0572,2.4878,2.8444,3.0073,3.2308,3.0628,2.4138,1.8427,1.4144,1.2576,1.1777,1.1659,1.2247,1.3952,1.5156,1.6047,1.6337,1.6451,1.631,1.6394,1.6301,1.6552,1.6618,1.6586,1.6522,1.6735,1.6765,1.662,1.6724,1.6723,1.6745,1.6953,1.6801,1.6761,1.6885,1.6799,1.6751,1.6692,1.6702,1.657,1.672,1.6775,1.6718,1.6652,1.6642,1.6943,1.6696,1.6719,1.6831,1.682,1.6967,1.6785,1.6772,1.6723,1.6818,1.6721,1.6819,1.6748,1.6855,1.6735,1.6855,1.6931,1.6724,1.6843,1.6743,1.6822,1.6962,1.683,1.6926,1.6978,1.6988,1.708,1.7064,1.7086,1.7061,1.7284,1.7401,1.7443,1.7488,1.7524,1.7611,1.7698,1.7552,1.7434,1.7707,1.7626,1.7483,1.7612,1.7374,1.7144,1.7075,1.6852,1.7206,1.7388,1.7365,1.7101,1.7155,1.6918,1.6842,1.7217,1.7109,1.7179,1.7176,1.6937,1.7201,1.7141,1.7317,1.7284,1.7099,1.7156,1.7067,1.7251,1.7208,1.7009,1.683,1.714,1.7287,1.7307,1.7126,1.713,1.7005,1.7127,1.7092,1.7215,1.7135,1.6942,1.6971,1.6987,1.6967,1.6932,1.6901,1.7011,1.6818,1.6933,1.7008,1.7057,1.6972,1.7003,1.7186,1.6968,1.6997,1.6856,1.6768,1.6853,1.6811,1.6816,1.6787,1.7214,1.7452,1.7468,1.7442,1.7489,1.7534,1.7503,1.7669,1.7885,1.8051,1.8021,1.7861,1.767,1.7636,1.7298,1.7304,1.7368,1.6832,1.6582,1.6455,1.6506,1.6113,1.6459,1.6552,1.6697,1.665,1.6507,1.6556,1.6619,1.6584,1.6598,1.6578,1.6427,1.661,1.6481,1.5785,1.5233,1.508,1.5397,1.658,1.9913,2.427,2.823,2.9928,3.2034,3.1952,2.6136,1.9938,1.4766,1.3552,1.2435,1.166,1.2112,1.3207,1.486,1.5871,1.6436,1.6557,1.6582,1.6522,1.6601,1.6759,1.6655,1.6621,1.6852,1.6875,1.6769,1.682,1.6949,1.6875,1.7021,1.7026,1.7154,1.7065,1.7051,1.7037,1.7058,1.7046,1.7041,1.69,1.7077,1.7036,1.7143,1.7088,1.6967,1.7063,1.7076,1.7123,1.7153,1.7134,1.6948,1.6999,1.7092,1.7225,1.6961,1.7068,1.7001,1.728,1.7177,1.7022,1.7036,1.7176,1.7176,1.7187,1.7039,1.7021,1.7239,1.7351,1.7419,1.732,1.7305,1.7373,1.7341,1.7431,1.7433,1.7578,1.7592,1.7718,1.8048,1.7791,1.7862,1.7927,1.7856,1.8104,1.7963,1.7825,1.7708,1.7862,1.7807,1.7734,1.7511,1.7576,1.7341,1.7355,1.7176,1.7209,1.7337,1.7333,1.7277,1.7127,1.6987,1.711,1.7183,1.7126,1.7442,1.7364,1.7193,1.7097,1.7302,1.7276,1.7133,1.7065,1.7163,1.7147,1.7134,1.7174,1.7045,1.7049,1.7002,1.7115,1.6987,1.6761,1.6941,1.6959,1.7032,1.7023,1.7095,1.6995,1.7074,1.7011,1.6915,1.6803,1.6882,1.7073,1.7014,1.7157,1.6943,1.6916,1.6943,1.7014,1.7006,1.6792,1.6985,1.692,1.6997,1.6951,1.6835,1.6889,1.6984,1.6973,1.6875,1.6841,1.6894,1.6971,1.716,1.7268,1.7716,1.7577,1.7385,1.7348,1.7541,1.7722,1.7784,1.7889,1.7952,1.7821,1.7744,1.7508,1.7218,1.726,1.7138,1.6856,1.6701,1.6606,1.6683,1.6822,1.6702,1.6621,1.6605,1.6655,1.6697,1.6644,1.6533,1.6625,1.6698,1.6561,1.6619,1.6645,1.6242,1.57,1.5377,1.528,1.5597,1.8318,2.2643,2.688,2.9497,3.0406,3.1699,2.8022,2.1797,1.6511,1.3466,1.2272,1.1505,1.1955,1.2176,1.2782,1.4106,1.5217,1.5959,1.627,1.6366,1.65,1.6443,1.6577,1.6586,1.6709,1.669,1.6702,1.6763,1.6913,1.6797,1.6954,1.6657,1.6899,1.6933,1.7008,1.6995,1.6999,1.6826,1.7023,1.691,1.6838,1.6905,1.6945,1.7051,1.7008,1.6935,1.6893,1.6941,1.6993,1.6863,1.6901,1.698,1.7081,1.7113,1.7116,1.7104,1.7176,1.699,1.7107,1.7065,1.6796,1.6985,1.6858,1.7069,1.7033,1.7024,1.6986,1.6815,1.7114,1.715,1.7195,1.7296,1.7161,1.7278,1.7296,1.7318,1.7339,1.7753,1.7708,1.7649,1.7877,1.7888,1.7881,1.7952,1.8,1.7949,1.786,1.7837,1.7994,1.7804,1.7769,1.7601,1.7511,1.7545,1.7472,1.7488,1.7413,1.7293,1.7026,1.7452,1.7595,1.7398,1.7467,1.7421,1.7296,1.7433,1.7443,1.7373,1.7299,1.7377,1.7414,1.7308,1.7341,1.7424,1.7406,1.7301,1.7327,1.728,1.7331,1.7399,1.7309,1.7305,1.7233,1.7309,1.729,1.7211,1.711,1.7191,1.719,1.7222,1.7184,1.7242,1.7195,1.7151,1.7121,1.7072,1.7239,1.7224,1.7058,1.7171,1.7097,1.7196,1.7079,1.6998,1.7036,1.7053,1.6943,1.7126,1.7053,1.7035,1.6931,1.7126,1.7345,1.7549,1.759,1.7736,1.7586,1.7524,1.78,1.7924,1.8047,1.804,1.7863,1.781,1.7645,1.7399,1.7392,1.7236,1.6834,1.6638,1.6752,1.6778,1.6779,1.6815,1.6687,1.667,1.6663,1.6782,1.6605,1.6587,1.6639,1.6874,1.6705,1.6699,1.6647,1.6305,1.5703,1.5337,1.5454,1.5991,1.8458,2.2811,2.5079,2.8138,2.9986,3.1915,3.1417,2.5359,1.9578,1.4713,1.3029,1.1968,1.1927,1.2133,1.3497,1.4795,1.6068,1.6541,1.6641,1.6857,1.6737,1.6682,1.6909,1.6737,1.6826,1.6998,1.716,1.6959,1.7034,1.7005,1.7094,1.6951,1.7307,1.7258,1.7345,1.7313,1.7228,1.7311,1.7237,1.7202,1.7237,1.7377,1.7361,1.7447,1.7209,1.7141,1.7273,1.713,1.7315,1.7056,1.7354,1.7444,1.7278,1.7328,1.7245,1.7187,1.713,1.7276,1.7251,1.7126,1.7168,1.7127,1.7168,1.7118,1.7255,1.7234,1.7199,1.7349,1.7422,1.7208,1.7498,1.7479,1.7544,1.7508,1.7655,1.7721,1.7842,1.8093,1.7892,1.8054,1.8225,1.8247,1.819,1.8504,1.8485,1.8569,1.8797,1.8947,1.885,1.9074,1.8865,1.8962,1.8779,1.8956,1.8832,1.8908,1.8923,1.8882,1.8886,1.9041,1.8875,1.9094,1.9115,1.9137,1.9011,1.9148,1.9015,1.9147,1.9128,1.9005,1.9132,1.929,1.9413,1.9169,1.9144,1.9178,1.9034,1.8954,1.8865,1.8636,1.8584,1.8544,1.8611,1.8726,1.8577,1.8429,1.8371,1.8212,1.8324,1.8428,1.8348,1.8086,1.8034,1.8003,1.8014,1.7805,1.7759,1.7691,1.7708,1.7563,1.766,1.7662,1.7481,1.7505,1.75,1.7414,1.7356,1.7449,1.7272,1.7382,1.725,1.7215,1.7394,1.7329,1.7281,1.7193,1.7109,1.7147,1.7311,1.7164,1.7024,1.7052,1.6997,1.7047,1.7093,1.7088,1.6993,1.6931,1.6826,1.7055,1.7016,1.6867,1.6973,1.6981,1.7026,1.697,1.6781,1.7037,1.692,1.7025,1.7178,1.7046,1.6988,1.6991,1.7181,1.7019,1.7068,1.7049,1.7041,1.7145,1.7074,1.7263,1.7217,1.7546,1.7449,1.7118,1.735,1.7549,1.7835,1.7596,1.7666,1.7691,1.7491,1.7311,1.7158,1.7101,1.7007,1.644,1.6383,1.6341,1.6415,1.6473,1.6107,1.6269,1.6092,1.6396,1.6422,1.6313,1.6403,1.634,1.6492,1.6511,1.6554,1.6069,1.5543,1.502,1.5105,1.5681,1.7286,2.1328,2.5469,2.9051,3.0449,3.3315,3.0786,2.4286,1.8355,1.4002,1.2586,1.1566,1.1554,1.2469,1.4269,1.5489,1.6402,1.6678,1.661,1.6732,1.6731,1.6578,1.6733,1.664,1.6895,1.663,1.676,1.6593,1.6849,1.6797,1.6774,1.6654,1.6873,1.6734,1.6912,1.7052,1.702,1.6705,1.683,1.6773,1.6838,1.6722,1.6851,1.6832,1.6753,1.6608,1.6806,1.682,1.6846,1.6737,1.6819,1.6772,1.6703,1.6676,1.6724,1.6765,1.6743,1.6533,1.6345,1.6516,1.6627,1.6475,1.6316,1.6508,1.6411,1.6491,1.6378,1.6103,1.6287,1.6345,1.6388,1.6514,1.661,1.6756,1.6832,1.6746,1.6781,1.6902,1.6973,1.7265,1.7232,1.7334,1.7152,1.7287,1.7554,1.7728,1.7671,1.7501,1.7508,1.7598,1.7585,1.7634,1.7434,1.7191,1.7262,1.7465,1.7317,1.7291,1.7156,1.7127,1.7204,1.7285,1.706,1.7219,1.7284,1.7327,1.7176,1.7277,1.7303,1.7268,1.7216,1.7187,1.6827,1.7068,1.6922,1.7464,1.7352,1.6984,1.7087,1.7074,1.6862,1.7196,1.703,1.6942,1.7091,1.7043,1.6973,1.6879,1.6937,1.7016,1.7195,1.7049,1.6881,1.6926,1.6879,1.6737,1.6982,1.6844,1.685,1.6827,1.697,1.6838,1.6835,1.6649,1.6726,1.7025,1.6945,1.6793,1.6725,1.6626,1.6701,1.6862,1.6729,1.6711,1.6658,1.6663,1.6715,1.6836,1.6902,1.6606,1.6848,1.6745,1.6763,1.6628,1.6685,1.6819,1.6583,1.6819,1.6704,1.6835,1.6779,1.6692,1.6694,1.6978,1.6925,1.6785,1.6737,1.6503,1.6932,1.6608,1.6787,1.6876,1.6614,1.6852,1.6886,1.6819,1.6723,1.6699,1.6934,1.6961,1.682,1.6687,1.6821,1.6657,1.6667,1.672,1.6626,1.6904,1.6895,1.6817,1.7059,1.7248,1.6979,1.776,1.741,1.7319,1.7499,1.7553,1.7536,1.7393,1.7619,1.7803,1.7357,1.7278,1.6892,1.6907,1.7979,1.8199,1.8458,1.8515,1.8586,1.8719,1.8879,1.8755,1.8676,1.8548,1.8331,1.8448,1.8611,1.847,1.7989,1.8026,1.7642,1.6526,1.6893,1.7045,1.8802,2.2521,2.6682,2.9712,3.0772,3.299,3.1131,2.4593,1.8638,1.4804,1.3232,1.2228,1.2256,1.2254,1.3285,1.4618,1.5811,1.6516,1.6706,1.6645,1.6773,1.6788,1.6755,1.6988,1.7054,1.6931,1.7242,1.7198,1.7122,1.6812,1.7057,1.7196,1.7318,1.7328,1.7509
