-13.606,-13.605,-13.604,-13.605,-13.605,-13.612,-13.611,-13.614,-13.618,-13.622,-13.627,-13.627,-13.629,-13.628,-13.633,-13.637,-13.64,-13.643,-13.641,-13.642,-13.646,-13.654,-13.652,-13.654,-13.654,-13.656,-13.66,-13.662,-13.661,-13.662,-13.663,-13.667,-13.67,-13.667,-13.669,-13.671,-13.669,-13.672,-13.669,-13.671,-13.673,-13.674,-13.679,-13.682,-13.68,-13.685,-13.687,-13.692,-13.689,-13.69,-13.693,-13.693,-13.695,-13.696,-13.699,-13.7,-13.702,-13.705,-13.706,-13.705,-13.698,-13.696,-13.692,-13.692,-13.683,-13.671,-13.679,-13.677,-13.661,-13.662,-13.637,-13.62,-13.639,-13.648,-13.652,-13.663,-13.671,-13.684,-13.69,-13.699,-13.723,-13.751,-13.764,-13.765,-13.773,-13.776,-13.778,-13.779,-13.783,-13.786,-13.785,-13.788,-13.793,-13.794,-13.799,-13.797,-13.801,-13.812,-13.857,-13.893,-13.845,-13.698,-13.479,-13.26,-13.052,-13.049,-13.274,-13.364,-13.485,-13.826,-13.929,-13.953,-13.952,-13.864,-13.819,-13.775,-13.777,-13.774,-13.779,-13.776,-13.784,-13.775,-13.78,-13.77,-13.774,-13.767,-13.767,-13.759,-13.755,-13.747,-13.745,-13.737,-13.731,-13.725,-13.721,-13.717,-13.715,-13.71,-13.703,-13.697,-13.685,-13.673,-13.667,-13.658,-13.641,-13.634,-13.619,-13.599,-13.586,-13.57,-13.555,-13.536,-13.512,-13.499,-13.484,-13.475,-13.462,-13.445,-13.434,-13.428,-13.424,-13.42,-13.414,-13.42,-13.43,-13.445,-13.469,-13.496,-13.536,-13.575,-13.616,-13.651,-13.691,-13.727,-13.756,-13.788,-13.8,-13.826,-13.848,-13.866,-13.877,-13.889,-13.897,-13.909,-13.914,-13.924,-13.926,-13.928,-13.93,-13.936,-13.941,-13.944,-13.943,-13.947,-13.95,-13.949,-13.944,-13.942,-13.946,-13.949,-13.952,-13.959,-13.958,-13.96,-13.958,-13.963,-13.963,-13.965,-13.963,-13.964,-13.968,-13.972,-13.972,-13.973,-13.974,-13.974,-13.981,-13.983,-13.981,-13.98,-13.987,-13.986,-13.994,-13.993,-13.999,-13.999,-14.002,-14.003,-14.006,-14.008,-14.007,-14.007,-14.01,-14.014,-14.015,-14.022,-14.024,-14.028,-14.027,-14.028,-14.032,-14.032,-14.041,-14.044,-14.048,-14.052,-14.058,-14.063,-14.069,-14.075,-14.077,-14.081,-14.083,-14.087,-14.089,-14.091,-14.093,-14.101,-14.102,-14.101,-14.103,-14.103,-14.115,-14.121,-14.121,-14.122,-14.126,-14.134,-14.135,-14.142,-14.14,-14.142,-14.145,-14.15,-14.151,-14.16,-14.16,-14.165,-14.165,-14.172,-14.176,-14.176,-14.175,-14.183,-14.188,-14.19,-14.191,-14.188,-14.19,-14.186,-14.175,-14.165,-14.164,-14.171,-14.171,-14.152,-14.151,-14.124,-14.113,-14.14,-14.149,-14.154,-14.171,-14.181,-14.187,-14.196,-14.219,-14.248,-14.269,-14.275,-14.28,-14.285,-14.287,-14.288,-14.292,-14.291,-14.294,-14.297,-14.295,-14.297,-14.299,-14.302,-14.309,-14.324,-14.361,-14.395,-14.366,-14.238,-14.026,-13.819,-13.592,-13.526,-13.786,-13.85,-13.925,-14.1,-14.383,-14.449,-14.472,-14.453,-14.353,-14.323,-14.283,-14.298,-14.282,-14.299,-14.283,-14.293,-14.28,-14.296,-14.28,-14.286,-14.273,-14.277,-14.264,-14.269,-14.251,-14.252,-14.243,-14.244,-14.231,-14.235,-14.223,-14.223,-14.214,-14.214,-14.195,-14.185,-14.175,-14.169,-14.153,-14.144,-14.134,-14.119,-14.099,-14.086,-14.064,-14.049,-14.029,-14.015,-13.991,-13.979,-13.966,-13.946,-13.932,-13.927,-13.92,-13.912,-13.91,-13.913,-13.916,-13.928,-13.94,-13.964,-13.995,-14.031,-14.073,-14.109,-14.145,-14.183,-14.221,-14.252,-14.283,-14.292,-14.329,-14.344,-14.357,-14.371,-14.386,-14.386,-14.393,-14.401,-14.407,-14.409,-14.412,-14.41,-14.416,-14.418,-14.42,-14.42,-14.42,-14.419,-14.426,-14.418,-14.422,-14.422,-14.42,-14.416,-14.423,-14.419,-14.419,-14.417,-14.418,-14.418,-14.416,-14.412,-14.415,-14.412,-14.416,-14.407,-14.407,-14.401,-14.411,-14.405,-14.407,-14.404,-14.407,-14.407,-14.407,-14.406,-14.407,-14.407,-14.412,-14.417,-14.415,-14.421,-14.426,-14.424,-14.428,-14.427,-14.429,-14.429,-14.437,-14.438,-14.439,-14.44,-14.444,-14.445,-14.445,-14.452,-14.448,-14.448,-14.457,-14.461,-14.465,-14.464,-14.465,-14.465,-14.466,-14.472,-14.469,-14.469,-14.474,-14.477,-14.478,-14.483,-14.48,-14.483,-14.486,-14.485,-14.482,-14.482,-14.484,-14.49,-14.49,-14.489,-14.487,-14.489,-14.488,-14.49,-14.495,-14.496,-14.498,-14.494,-14.499,-14.499,-14.496,-14.501,-14.505,-14.51,-14.505,-14.51,-14.506,-14.512,-14.517,-14.514,-14.509,-14.505,-14.491,-14.48,-14.475,-14.484,-14.469,-14.454,-14.442,-14.412,-14.422,-14.438,-14.444,-14.461,-14.467,-14.478,-14.48,-14.485,-14.513,-14.548,-14.557,-14.559,-14.56,-14.564,-14.565,-14.564,-14.565,-14.566,-14.567,-14.571,-14.567,-14.57,-14.572,-14.576,-14.583,-14.595,-14.63,-14.663,-14.638,-14.502,-14.282,-14.068,-13.849,-13.821,-14.09,-14.196,-14.273,-14.578,-14.7,-14.725,-14.74,-14.651,-14.597,-14.57,-14.552,-14.55,-14.545,-14.545,-14.544,-14.54,-14.542,-14.536,-14.536,-14.529,-14.529,-14.522,-14.514,-14.508,-14.505,-14.504,-14.499,-14.489,-14.484,-14.484,-14.477,-14.475,-14.469,-14.461,-14.45,-14.441,-14.426,-14.421,-14.406,-14.393,-14.379,-14.366,-14.345,-14.325,-14.303,-14.287,-14.269,-14.252,-14.233,-14.226,-14.202,-14.183,-14.18,-14.168,-14.163,-14.151,-14.146,-14.147,-14.154,-14.17,-14.189,-14.221,-14.253,-14.285,-14.325,-14.363,-14.398,-14.437,-14.454,-14.485,-14.514,-14.535,-14.553,-14.575,-14.584,-14.591,-14.603,-14.613,-14.621,-14.62,-14.629,-14.629,-14.633,-14.634,-14.638,-14.636,-14.639,-14.638,-14.639,-14.63,-14.63,-14.627,-14.625,-14.627,-14.623,-14.611,-14.617,-14.619,-14.622,-14.621,-14.621,-14.614,-14.609,-14.611,-14.609,-14.611,-14.607,-14.605,-14.607,-14.607,-14.601,-14.598,-14.598,-14.6,-14.599,-14.596,-14.595,-14.591,-14.592,-14.599,-14.6,-14.595,-14.595,-14.595,-14.598,-14.594,-14.591,-14.592,-14.593,-14.593,-14.592,-14.592,-14.586,-14.587,-14.586,-14.581,-14.577,-14.575,-14.572,-14.574,-14.572,-14.565,-14.56,-14.56,-14.554,-14.557,-14.551,-14.543,-14.548,-14.543,-14.545,-14.537,-14.533,-14.523,-14.524,-14.522,-14.521,-14.515,-14.511,-14.509,-14.506,-14.496,-14.492,-14.492,-14.484,-14.482,-14.48,-14.48,-14.47,-14.467,-14.464,-14.457,-14.455,-14.45,-14.445,-14.444,-14.434,-14.429,-14.425,-14.418,-14.412,-14.411,-14.404,-14.389,-14.374,-14.365,-14.348,-14.34,-14.327,-14.321,-14.296,-14.28,-14.257,-14.232,-14.236,-14.236,-14.23,-14.231,-14.237,-14.241,-14.244,-14.256,-14.277,-14.278,-14.272,-14.269,-14.266,-14.271,-14.258,-14.252,-14.249,-14.237,-14.228,-14.221,-14.217,-14.211,-14.203,-14.203,-14.204,-14.22,-14.247,-14.243,-14.127,-13.894,-13.671,-13.431,-13.364,-13.445,-13.67,-13.814,-13.923,-14.135,-14.131,-14.159,-14.208,-14.156,-14.092,-14.035,-14.001,-13.982,-13.968,-13.96,-13.952,-13.939,-13.924,-13.914,-13.907,-13.897,-13.888,-13.875,-13.86,-13.851,-13.835,-13.823,-13.811,-13.8,-13.785,-13.776,-13.759,-13.743,-13.718,-13.703,-13.692,-13.668,-13.645,-13.632,-13.617,-13.601,-13.579,-13.56,-13.533,-13.506,-13.476,-13.448,-13.421,-13.4,-13.375,-13.348,-13.326,-13.306,-13.286,-13.274,-13.25,-13.243,-13.247,-13.245,-13.246,-13.254,-13.271,-13.298,-13.325,-13.358,-13.386,-13.42,-13.46,-13.483,-13.509,-13.53,-13.555,-13.57,-13.582,-13.588,-13.59,-13.598,-13.605,-13.607,-13.607,-13.606,-13.611,-13.614,-13.611,-13.605,-13.599,-13.595,-13.591,-13.59,-13.59,-13.58,-13.574,-13.566,-13.571,-13.566,-13.563,-13.558,-13.553,-13.55,-13.541,-13.537,-13.537,-13.53,-13.529,-13.52,-13.514,-13.513,-13.507,-13.501,-13.498,-13.49,-13.488,-13.49,-13.488,-13.488,-13.484,-13.481,-13.475,-13.47,-13.465,-13.463,-13.471,-13.467,-13.459,-13.459,-13.461,-13.455,-13.452,-13.452,-13.455,-13.449,-13.453,-13.444,-13.447,-13.445,-13.446,-13.441,-13.439,-13.442,-13.438,-13.432,-13.433,-13.431,-13.424,-13.427,-13.427,-13.429,-13.422,-13.417,-13.419,-13.42,-13.419,-13.416,-13.416,-13.417,-13.411,-13.404,-13.399,-13.391,-13.383,-13.368,-13.358,-13.36,-13.356,-13.344,-13.34,-13.322,-13.289,-13.301,-13.312,-13.31,-13.313,-13.319,-13.33,-13.341,-13.352,-13.366,-13.386,-13.397,-13.394,-13.397,-13.393,-13.398,-13.393,-13.395,-13.394,-13.391,-13.389,-13.389,-13.391,-13.39,-13.386,-13.397,-13.43,-13.471,-13.448,-13.392,-13.2,-12.971,-12.737,-12.594,-12.712,-12.889,-13.024,-13.189,-13.401,-13.408,-13.457,-13.49,-13.403,-13.361,-13.313,-13.303,-13.293,-13.295,-13.293,-13.292,-13.282,-13.28,-13.274,-13.273,-13.266,-13.262,-13.258,-13.254,-13.243,-13.242,-13.233,-13.226,-13.217,-13.213,-13.205,-13.194,-13.186,-13.181,-13.17,-13.165,-13.155,-13.141,-13.129,-13.114,-13.097,-13.084,-13.065,-13.045,-13.028,-13.003,-12.992,-12.973,-12.951,-12.933,-12.917,-12.907,-12.895,-12.881,-12.874,-12.866,-12.866,-12.869,-12.88,-12.895,-12.91,-12.944,-12.978,-13.012,-13.049,-13.087,-13.123,-13.155,-13.192,-13.216,-13.24,-13.264,-13.284,-13.294,-13.299,-13.312,-13.322,-13.331,-13.346,-13.345,-13.35,-13.355,-13.359,-13.362,-13.367,-13.369,-13.368,-13.373,-13.375,-13.374,-13.376,-13.375,-13.383,-13.38,-13.383,-13.38,-13.377,-13.375,-13.382,-13.383,-13.382,-13.385,-13.384,-13.387,-13.387,-13.388,-13.385,-13.39,-13.391,-13.393,-13.395,-13.396,-13.397,-13.402,-13.406,-13.406,-13.41,-13.414,-13.421,-13.423,-13.428,-13.424,-13.434,-13.436,-13.441,-13.445,-13.449,-13.45,-13.46,-13.46,-13.462,-13.464,-13.469,-13.472,-13.474,-13.473,-13.475,-13.477,-13.483,-13.494,-13.498,-13.494,-13.496,-13.504,-13.505,-13.508,-13.512,-13.513,-13.516,-13.524,-13.523,-13.528,-13.526,-13.532,-13.531,-13.533,-13.539,-13.543,-13.545,-13.55,-13.551,-13.556,-13.552,-13.558,-13.564,-13.562,-13.553,-13.544,-13.541,-13.527,-13.529,-13.539,-13.529,-13.521,-13.521,-13.511,-13.493,-13.499,-13.509,-13.519,-13.528,-13.541,-13.55,-13.554,-13.574,-13.601,-13.631,-13.641,-13.645,-13.646,-13.644,-13.647,-13.647,-13.65,-13.654,-13.661,-13.662,-13.662,-13.66,-13.668,-13.673,-13.684,-13.723,-13.759,-13.725,-13.601,-13.387,-13.172,-12.955,-12.888,-13.129,-13.224,-13.267,-13.46,-13.747,-13.808,-13.836,-13.806,-13.719,-13.679,-13.644,-13.659,-13.645,-13.653,-13.638,-13.652,-13.647,-13.656,-13.641,-13.641,-13.633,-13.639,-13.629,-13.623,-13.611,-13.612,-13.601,-13.607,-13.594,-13.596,-13.584,-13.583,-13.575,-13.571,-13.556,-13.549,-13.536,-13.536,-13.52,-13.509,-13.493,-13.484,-13.468,-13.451,-13.436,-13.42,-13.404,-13.387,-13.371,-13.355,-13.34,-13.329,-13.318,-13.311,-13.303,-13.3,-13.305,-13.305,-13.319,-13.334,-13.36,-13.377,-13.411,-13.448,-13.488,-13.528,-13.568,-13.6,-13.64,-13.668,-13.696,-13.724,-13.746,-13.761,-13.777,-13.79,-13.8,-13.813,-13.822,-13.825,-13.829,-13.828,-13.842,-13.851,-13.86,-13.861,-13.864,-13.865,-13.867,-13.864,-13.867,-13.867,-13.873,-13.873,-13.879,-13.878,-13.881,-13.88,-13.882,-13.885,-13.881,-13.881,-13.885,-13.886,-13.897,-13.894,-13.89,-13.878,-13.875,-13.834,-13.767,-13.788,-13.809,-13.816,-13.831,-13.837,-13.851,-13.854,-13.869,-13.873,-13.88,-13.886,-13.895,-13.902,-13.91,-13.911,-13.921,-13.928,-13.934,-13.94,-13.946,-13.946,-13.952,-13.958,-13.969,-13.971,-13.975,-13.974,-13.981,-13.987,-13.994,-13.997,-14.005,-14.003,-14.006,-14.015,-14.02,-14.022,-14.024,-14.031,-14.037,-14.042,-14.047,-14.051,-14.052,-14.056,-14.058,-14.062,-14.066,-14.069,-14.072,-14.076,-14.075,-14.076,-14.083,-14.083,-14.083,-14.085,-14.086,-14.09,-14.101,-14.101,-14.102,-14.097,-14.093,-14.091,-14.087,-14.074,-14.075,-14.077,-14.075,-14.059,-14.053,-14.024,-14.021,-14.042,-14.049,-14.057,-14.069,-14.086,-14.091,-14.106,-14.126,-14.157,-14.163,-14.178,-14.179,-14.183,-14.191,-14.194,-14.191,-14.197,-14.195,-14.202,-14.203,-14.203,-14.204,-14.206,-14.208,-14.229,-14.268,-14.298,-14.256,-14.114,-13.89,-13.677,-13.472,-13.472,-13.717,-13.773,-13.848,-14.083,-14.32,-14.359,-14.375,-14.328,-14.256,-14.222,-14.19,-14.199,-14.185,-14.201,-14.189,-14.195,-14.183,-14.191,-14.183,-14.19,-14.174,-14.181,-14.16,-14.163,-14.157,-14.16,-14.148,-14.15,-14.141,-14.143,-14.132,-14.127,-14.116,-14.113,-14.103,-14.094,-14.079,-14.075,-14.059,-14.047,-14.035,-14.022,-14.002,-13.985,-13.965,-13.953,-13.93,-13.914,-13.896,-13.88,-13.863,-13.849,-13.837,-13.827,-13.818,-13.814,-13.814,-13.822,-13.832,-13.85,-13.862,-13.884,-13.912,-13.949,-13.99,-14.033,-14.073,-14.104,-14.139,-14.162,-14.192,-14.212,-14.236,-14.253,-14.264,-14.272,-14.288,-14.294,-14.302,-14.3,-14.307,-14.312,-14.321,-14.32,-14.325,-14.323,-14.328,-14.328,-14.332,-14.33,-14.333,-14.331,-14.332,-14.329,-14.331,-14.326,-14.33,-14.323,-14.327,-14.322,-14.326,-14.329,-14.331,-14.326,-14.331,-14.327,-14.33,-14.329,-14.333,-14.335,-14.332,-14.326,-14.333,-14.332,-14.34,-14.337,-14.339,-14.34,-14.338,-14.34,-14.344,-14.345,-14.352,-14.355,-14.355,-14.358,-14.359,-14.365,-14.37,-14.37,-14.372,-14.367,-14.373,-14.375,-14.375,-14.375,-14.381,-14.378,-14.384,-14.386,-14.386,-14.389,-14.39,-14.389,-14.391,-14.398,-14.4,-14.399,-14.406,-14.4,-14.399,-14.4,-14.4,-14.398,-14.398,-14.398,-14.397,-14.396,-14.399,-14.399,-14.394,-14.403,-14.399,-14.4,-14.402,-14.404,-14.403,-14.403,-14.407,-14.408,-14.405,-14.406,-14.408,-14.411,-14.406,-14.401,-14.393,-14.388,-14.385,-14.373,-14.366,-14.374,-14.362,-14.348,-14.336,-14.31,-14.322,-14.334,-14.334,-14.344,-14.353,-14.375,-14.376,-14.39,-14.424,-14.443,-14.448,-14.457,-14.457,-14.462,-14.461,-14.463,-14.466,-14.468,-14.47,-14.476,-14.474,-14.479,-14.476,-14.482,-14.483,-14.513,-14.55,-14.564,-14.476,-14.283,-14.075,-13.851,-13.753,-13.732,-13.984,-14.103,-14.171,-14.5,-14.6,-14.634,-14.633,-14.557,-14.495,-14.46,-14.444,-14.443,-14.437,-14.443,-14.436,-14.437,-14.429,-14.431,-14.422,-14.422,-14.415,-14.412,-14.397,-14.392,-14.385,-14.384,-14.377,-14.368,-14.357,-14.354,-14.347,-14.338,-14.323,-14.311,-14.296,-14.285,-14.276,-14.269,-14.251,-14.236,-14.216,-14.2,-14.183,-14.164,-14.146,-14.124,-14.107,-14.086,-14.065,-14.048,-14.036,-14.026,-14.012,-13.997,-13.989,-13.986,-13.984,-13.989,-13.997,-14.011,-14.036,-14.066,-14.101,-14.138,-14.178,-14.217,-14.258,-14.29,-14.325,-14.348,-14.373,-14.398,-14.416,-14.422,-14.435,-14.453,-14.459,-14.462,-14.467,-14.472,-14.473,-14.475,-14.481,-14.482,-14.487,-14.481,-14.484,-14.485,-14.481,-14.475,-14.48,-14.482,-14.481,-14.478,-14.473,-14.466,-14.469,-14.465,-14.472,-14.471,-14.466,-14.457,-14.458,-14.462,-14.466,-14.46,-14.46,-14.461,-14.461,-14.461,-14.461,-14.454,-14.456,-14.456,-14.459,-14.456,-14.46,-14.453,-14.459,-14.459,-14.466,-14.466,-14.47,-14.474,-14.479,-14.476,-14.473,-14.478,-14.481,-14.478,-14.483,-14.485,-14.487,-14.484,-14.484,-14.485,-14.481,-14.482,-14.484,-14.486,-14.482,-14.485,-14.488,-14.483,-14.481,-14.485,-14.485,-14.488,-14.489,-14.488,-14.487,-14.488,-14.488,-14.488,-14.487,-14.488,-14.489,-14.487,-14.491,-14.493,-14.492,-14.486,-14.472,-14.464,-14.461,-14.448,-14.453,-14.452,-14.433,-14.426,-14.401,-14.382,-14.39,-14.404,-14.406,-14.411,-14.422,-14.44,-14.44,-14.448,-14.481,-14.507,-14.515,-14.519,-14.518,-14.523,-14.519,-14.521,-14.521,-14.522,-14.524,-14.526,-14.524,-14.519,-14.519,-14.523,-14.53,-14.556,-14.59,-14.605,-14.509,-14.322,-14.108,-13.882,-13.745,-13.909,-14.081,-14.171,-14.352,-14.598,-14.632,-14.658,-14.627,-14.536,-14.521,-14.467,-14.464,-14.453,-14.458,-14.444,-14.449,-14.44,-14.439,-14.433,-14.434,-14.425,-14.424,-14.412,-14.411,-14.4,-14.401,-14.39,-14.388,-14.374,-14.373,-14.365,-14.359,-14.352,-14.342,-14.325,-14.311,-14.303,-14.293,-14.27,-14.255,-14.238,-14.219,-14.206,-14.188,-14.169,-14.146,-14.128,-14.112,-14.093,-14.084,-14.061,-14.047,-14.038,-14.026,-14.019,-14.007,-14.007,-14.008,-14.018,-14.025,-14.048,-14.073,-14.108,-14.149,-14.188,-14.226,-14.262,-14.293,-14.325,-14.341,-14.368,-14.392,-14.411,-14.424,-14.439,-14.449,-14.459,-14.462,-14.465,-14.464,-14.476,-14.482,-14.482,-14.483,-14.486,-14.483,-14.481,-14.479,-14.478,-14.474,-14.472,-14.476,-14.476,-14.472,-14.472,-14.472,-14.47,-14.467,-14.467,-14.465,-14.463,-14.46,-14.457,-14.462,-14.464,-14.461,-14.459,-14.455,-14.456,-14.458,-14.458,-14.457,-14.458,-14.454,-14.458,-14.457,-14.458,-14.46,-14.463,-14.462,-14.461,-14.467,-14.467,-14.466,-14.468,-14.469,-14.47,-14.469,-14.47,-14.467,-14.47,-14.475,-14.472,-14.472,-14.476,-14.478,-14.477,-14.48,-14.488,-14.482,-14.483,-14.483,-14.485,-14.483,-14.489,-14.488,-14.488,-14.487,-14.486,-14.476,-14.477,-14.462,-14.457,-14.443,-14.436,-14.449,-14.438,-14.427,-14.418,-14.399,-14.383,-14.396,-14.399,-14.401,-14.41,-14.424,-14.425,-14.433,-14.447,-14.477,-14.499,-14.503,-14.495,-14.496,-14.5,-14.495,-14.49,-14.496,-14.493,-14.492,-14.49,-14.493,-14.494,-14.495,-14.503,-14.529,-14.563,-14.578,-14.532,-14.381,-14.159,-13.955,-13.755,-13.751,-14.007,-14.131,-14.215,-14.517,-14.6,-14.621,-14.634,-14.549,-14.492,-14.447,-14.444,-14.438,-14.445,-14.441,-14.441,-14.439,-14.434,-14.428,-14.424,-14.42,-14.419,-14.416,-14.407,-14.398,-14.392,-14.381,-14.374,-14.365,-14.361,-14.349,-14.341,-14.326,-14.321,-14.316,-14.303,-14.288,-14.272,-14.252,-14.241,-14.223,-14.205,-14.188,-14.168,-14.153,-14.132,-14.111,-14.096,-14.08,-14.066,-14.051,-14.039,-14.024,-14.02,-14.014,-14.009,-14.007,-14.006,-14.01,-14.021,-14.043,-14.07,-14.105,-14.144,-14.183,-14.22,-14.259,-14.288,-14.322,-14.35,-14.378,-14.399,-14.419,-14.426,-14.446,-14.455,-14.462,-14.473,-14.475,-14.482,-14.492,-14.494,-14.495,-14.497,-14.501,-14.504,-14.505,-14.502,-14.5,-14.498,-14.498,-14.503,-14.499,-14.501,-14.5,-14.495,-14.496,-14.498,-14.493,-14.492,-14.492,-14.498,-14.494,-14.494,-14.497,-14.492,-14.493,-14.493,-14.488,-14.491,-14.493,-14.488,-14.489,-14.487,-14.488,-14.49,-14.497,-14.499,-14.502,-14.5,-14.501,-14.503,-14.502,-14.5,-14.499,-14.5,-14.499,-14.5,-14.501,-14.501,-14.501,-14.504,-14.505,-14.505,-14.504,-14.504,-14.502,-14.505,-14.505,-14.498,-14.497,-14.494,-14.499,-14.494,-14.497,-14.498,-14.497,-14.498,-14.493,-14.494,-14.494,-14.492,-14.489,-14.494,-14.489,-14.482,-14.482,-14.486,-14.484,-14.482,-14.475,-14.465,-14.46,-14.452,-14.438,-14.422,-14.425,-14.421,-14.405,-14.392,-14.376,-14.368,-14.347,-14.357,-14.359,-14.356,-14.365,-14.371,-14.38,-14.392,-14.408,-14.428,-14.441,-14.445,-14.443,-14.443,-14.448,-14.441,-14.44,-14.432,-14.43,-14.423,-14.421,-14.417,-14.419,-14.41,-14.415,-14.435,-14.464,-14.471,-14.383,-14.186,-13.958,-13.735,-13.605,-13.789,-13.98,-14.098,-14.257,-14.446,-14.446,-14.45,-14.498,-14.424,-14.369,-14.304,-14.287,-14.27,-14.27,-14.256,-14.25,-14.232,-14.224,-14.216,-14.214,-14.193,-14.18,-14.168,-14.162,-14.151,-14.143,-14.131,-14.118,-14.104,-14.095,-14.088,-14.067,-14.051,-14.035,-14.025,-14.012,-13.991,-13.968,-13.943,-13.934,-13.907,-13.881,-13.858,-13.832,-13.812,-13.791,-13.779,-13.751,-13.724,-13.701,-13.678,-13.655,-13.632,-13.621,-13.603,-13.588,-13.577,-13.567,-13.562,-13.572,-13.592,-13.61,-13.639,-13.661,-13.695,-13.707,-13.736,-13.765,-13.792,-13.822,-13.838,-13.855,-13.866,-13.876,-13.882,-13.883,-13.882,-13.881,-13.88,-13.878,-13.876,-13.877,-13.871,-13.862,-13.861,-13.856,-13.848,-13.838,-13.834,-13.83,-13.828,-13.817,-13.807,-13.801,-13.794,-13.779,-13.777,-13.771,-13.764,-13.752,-13.746,-13.734,-13.732,-13.729,-13.723,-13.716,-13.711,-13.7,-13.695,-13.694,-13.691,-13.686,-13.682,-13.668,-13.674,-13.672,-13.669,-13.667,-13.663,-13.663,-13.656,-13.652,-13.649,-13.648,-13.647,-13.643,-13.636,-13.636,-13.632,-13.634,-13.629,-13.622,-13.623,-13.615,-13.614,-13.607,-13.601,-13.602,-13.593,-13.592,-13.584,-13.58,-13.567,-13.558,-13.554,-13.535,-13.513,-13.512,-13.513,-13.495,-13.473,-13.463,-13.439,-13.426,-13.439,-13.434,-13.429,-13.436,-13.444,-13.45,-13.464,-13.482,-13.493,-13.496,-13.504,-13.503,-13.497,-13.494,-13.484,-13.487,-13.482,-13.476,-13.474,-13.466,-13.461,-13.457,-13.45,-13.449,-13.463,-13.499,-13.526,-13.473,-13.304,-13.177,-12.951,-12.711,-12.653,-12.831,-13.045,-13.197,-13.391,-13.418,-13.383,-13.461,-13.506,-13.448,-13.394,-13.344,-13.32,-13.313,-13.31,-13.303,-13.304,-13.298,-13.289,-13.277,-13.275,-13.268,-13.262,-13.255,-13.249,-13.241,-13.233,-13.223,-13.215,-13.206,-13.196,-13.187,-13.176,-13.168,-13.156,-13.146,-13.139,-13.126,-13.11,-13.096,-13.083,-13.063,-13.044,-13.03,-13.018,-12.997,-12.978,-12.962,-12.943,-12.928,-12.91,-12.898,-12.889,-12.878,-12.87,-12.868,-12.866,-12.866,-12.868,-12.886,-12.909,-12.936,-12.962,-13,-13.038,-13.075,-13.109,-13.145,-13.176,-13.204,-13.23,-13.258,-13.282,-13.302,-13.316,-13.328,-13.332,-13.339,-13.343,-13.348,-13.36,-13.369,-13.372,-13.375,-13.378,-13.383,-13.384,-13.38,-13.384,-13.391,-13.39,-13.398,-13.395,-13.394,-13.396,-13.397,-13.399,-13.403,-13.395,-13.399,-13.4,-13.407,-13.407,-13.406,-13.408,-13.408,-13.413,-13.412,-13.417,-13.42,-13.422,-13.428,-13.432,-13.435,-13.44,-13.443,-13.445,-13.448,-13.452,-13.461,-13.465,-13.471,-13.475,-13.479,-13.484,-13.485,-13.49,-13.493,-13.503,-13.506,-13.511,-13.512,-13.514,-13.52,-13.523,-13.524,-13.529,-13.53,-13.534,-13.536,-13.539,-13.543,-13.549,-13.55,-13.552,-13.557,-13.561,-13.564,-13.567,-13.562,-13.563,-13.559,-13.553,-13.536,-13.544,-13.553,-13.547,-13.543,-13.541,-13.537,-13.531,-13.532,-13.546,-13.559,-13.57,-13.588,-13.597,-13.604,-13.626,-13.661,-13.688,-13.698,-13.702,-13.709,-13.711,-13.72,-13.722,-13.73,-13.736,-13.74,-13.746,-13.751,-13.755,-13.76,-13.767,-13.787,-13.827,-13.863,-13.817,-13.679,-13.47,-13.266,-13.063,-13.048,-13.19,-13.3,-13.411,-13.667,-13.941,-13.977,-13.983,-13.91,-13.847,-13.806,-13.797,-13.801,-13.8,-13.807,-13.805,-13.808,-13.813,-13.818,-13.813,-13.813,-13.809,-13.807,-13.802,-13.805,-13.8,-13.802,-13.801,-13.794,-13.791,-13.789,-13.785,-13.779,-13.773,-13.762,-13.747,-13.741,-13.727,-13.717,-13.703,-13.693,-13.686,-13.672,-13.65,-13.632,-13.616,-13.603,-13.59,-13.578,-13.567,-13.555,-13.542,-13.535,-13.526,-13.522,-13.516,-13.523,-13.528,-13.536,-13.551,-13.563,-13.591,-13.627,-13.661,-13.702,-13.749,-13.792,-13.827,-13.862,-13.892,-13.925,-13.949,-13.977,-13.996,-14.009,-14.019,-14.031,-14.043,-14.054,-14.059,-14.059,-14.065,-14.073,-14.08,-14.083,-14.088,-14.087,-14.089,-14.087,-14.093,-14.096,-14.092,-14.098,-14.102,-14.103,-14.104,-14.104,-14.107,-14.108,-14.108,-14.11,-14.111,-14.112,-14.113,-14.12,-14.122,-14.122,-14.121,-14.129,-14.133,-14.13,-14.13,-14.134,-14.141,-14.144,-14.149,-14.15,-14.152,-14.159,-14.162,-14.162,-14.165,-14.169,-14.175,-14.182,-14.185,-14.187,-14.19,-14.191,-14.198,-14.201,-14.204,-14.206,-14.214,-14.219,-14.224,-14.228,-14.228,-14.23,-14.231,-14.233,-14.239,-14.238,-14.239,-14.243,-14.245,-14.243,-14.246,-14.255,-14.258,-14.259,-14.264,-14.259,-14.264,-14.268,-14.276,-14.275,-14.276,-14.28,-14.282,-14.287,-14.288,-14.289,-14.292,-14.292,-14.289,-14.277,-14.267,-14.258,-14.245,-14.254,-14.256,-14.242,-14.236,-14.228,-14.208,-14.195,-14.212,-14.224,-14.232,-14.246,-14.26,-14.264,-14.271,-14.299,-14.33,-14.351,-14.355,-14.36,-14.362,-14.363,-14.371,-14.374,-14.374,-14.373,-14.374,-14.376,-14.375,-14.373,-14.374,-14.377,-14.389,-14.424,-14.459,-14.427,-14.3,-14.089,-13.88,-13.674,-13.639,-13.891,-13.995,-14.09,-14.405,-14.521,-14.536,-14.535,-14.446,-14.416,-14.368,-14.347,-14.343,-14.345,-14.345,-14.341,-14.338,-14.338,-14.34,-14.338,-14.338,-14.33,-14.328,-14.321,-14.312,-14.307,-14.301,-14.293,-14.286,-14.282,-14.275,-14.262,-14.256,-14.25,-14.241,-14.223,-14.209,-14.197,-14.184,-14.17,-14.155,-14.143,-14.124,-14.113,-14.096,-14.08,-14.066,-14.049,-14.041,-14.026,-14.011,-13.998,-13.985,-13.975,-13.965,-13.956,-13.95,-13.947,-13.96,-13.971,-13.986,-14.01,-14.038,-14.074,-14.111,-14.147,-14.183,-14.222,-14.241,-14.274,-14.297,-14.319,-14.338,-14.356,-14.368,-14.382,-14.395,-14.404,-14.411,-14.414,-14.416,-14.415,-14.424,-14.421,-14.425,-14.426,-14.431,-14.423,-14.421,-14.424,-14.426,-14.423,-14.422,-14.424,-14.43,-14.431,-14.426,-14.421,-14.425,-14.427,-14.43,-14.428,-14.424,-14.425,-14.422,-14.421,-14.426,-14.426,-14.427,-14.431,-14.43,-14.43,-14.431,-14.431,-14.43,-14.432,-14.434,-14.435,-14.432,-14.442,-14.44,-14.449,-14.453,-14.457,-14.458,-14.46,-14.459,-14.46,-14.463,-14.467,-14.471,-14.467,-14.465,-14.466,-14.467,-14.464,-14.466,-14.472,-14.48,-14.48,-14.478,-14.479,-14.477,-14.477,-14.476,-14.482,-14.485,-14.485,-14.485,-14.485,-14.489,-14.489,-14.496,-14.495,-14.493,-14.495,-14.494,-14.495,-14.5,-14.504,-14.505,-14.501,-14.505,-14.502,-14.497,-14.497,-14.499,-14.5,-14.5,-14.503,-14.503,-14.503,-14.504,-14.512,-14.501,-14.5,-14.505,-14.511,-14.513,-14.511,-14.514,-14.514,-14.518,-14.519,-14.513,-14.509,-14.51,-14.498,-14.493,-14.479,-14.471,-14.481,-14.479,-14.461,-14.456,-14.424,-14.408,-14.428,-14.436,-14.442,-14.453,-14.465,-14.469,-14.483,-14.5,-14.531,-14.545,-14.554,-14.562,-14.561,-14.562,-14.566,-14.57,-14.57,-14.57,-14.573,-14.571,-14.567,-14.572,-14.57,-14.578,-14.593,-14.626,-14.658,-14.625,-14.494,-14.387,-14.187,-13.962,-13.824,-13.993,-14.171,-14.253,-14.442,-14.674,-14.712,-14.728,-14.693,-14.602,-14.566,-14.533,-14.536,-14.522,-14.534,-14.52,-14.53,-14.517,-14.523,-14.509,-14.52,-14.502,-14.507,-14.488,-14.49,-14.477,-14.479,-14.461,-14.462,-14.451,-14.454,-14.44,-14.434,-14.419,-14.412,-14.4,-14.401,-14.379,-14.371,-14.355,-14.344,-14.326,-14.308,-14.291,-14.274,-14.256,-14.24,-14.218,-14.2,-14.187,-14.169,-14.157,-14.14,-14.13,-14.119,-14.113,-14.112,-14.102,-14.102,-14.107,-14.117,-14.138,-14.157,-14.186,-14.222,-14.261,-14.297,-14.328,-14.359,-14.397,-14.424,-14.459,-14.477,-14.496,-14.504,-14.524,-14.523,-14.531,-14.539,-14.546,-14.55,-14.556,-14.555,-14.557,-14.553,-14.559,-14.56,-14.558,-14.549,-14.55,-14.547,-14.548,-14.548,-14.547,-14.543,-14.543,-14.537,-14.543,-14.537,-14.538,-14.531,-14.535,-14.524,-14.528,-14.527,-14.527,-14.524,-14.523,-14.52,-14.522,-14.514,-14.513,-14.521,-14.517,-14.514,-14.522,-14.518,-14.516,-14.52,-14.519,-14.511,-14.513,-14.512,-14.515,-14.515,-14.519,-14.516,-14.517,-14.518,-14.513,-14.506,-14.512,-14.513,-14.513,-14.514,-14.509,-14.506,-14.503,-14.502,-14.501,-14.5,-14.498,-14.495,-14.488,-14.496,-14.492,-14.492,-14.482,-14.481,-14.477,-14.468,-14.464,-14.459,-14.46,-14.459,-14.453,-14.453,-14.448,-14.438,-14.439,-14.436,-14.433,-14.426,-14.425,-14.422,-14.423,-14.421,-14.41,-14.406,-14.406,-14.402,-14.395,-14.396,-14.39,-14.389,-14.382,-14.377,-14.364,-14.359,-14.359,-14.355,-14.35,-14.347,-14.343,-14.33,-14.323,-14.308,-14.291,-14.286,-14.27,-14.263,-14.262,-14.25,-14.222,-14.216,-14.197,-14.166,-14.163,-14.168,-14.156,-14.162,-14.174,-14.181,-14.185,-14.191,-14.207,-14.219,-14.222,-14.217,-14.205,-14.21,-14.2,-14.189,-14.185,-14.188,-14.184,-14.184,-14.17,-14.164,-14.158,-14.156,-14.163,-14.19,-14.216,-14.199,-14.07,-13.837,-13.613,-13.392,-13.359,-13.601,-13.771,-13.903,-13.998,-14.127,-14.075,-14.111,-14.188,-14.134,-14.081,-14.025,-14.006,-13.971,-13.973,-13.947,-13.947,-13.931,-13.929,-13.911,-13.909,-13.89,-13.888,-13.87,-13.871,-13.857,-13.847,-13.824,-13.834,-13.813,-13.809,-13.793,-13.78,-13.764,-13.752,-13.735,-13.72,-13.699,-13.69,-13.664,-13.646,-13.627,-13.608,-13.585,-13.57,-13.546,-13.514,-13.49,-13.468,-13.448,-13.423,-13.406,-13.388,-13.378,-13.358,-13.346,-13.331,-13.328,-13.327,-13.327,-13.338,-13.357,-13.376,-13.391,-13.417,-13.454,-13.481,-13.51,-13.54,-13.569,-13.591,-13.617,-13.629,-13.651,-13.661,-13.671,-13.676,-13.685,-13.686,-13.688,-13.688,-13.693,-13.684,-13.689,-13.684,-13.68,-13.676,-13.672,-13.669,-13.667,-13.661,-13.663,-13.656,-13.653,-13.649,-13.645,-13.639,-13.638,-13.637,-13.629,-13.623,-13.62,-13.615,-13.611,-13.605,-13.606,-13.598,-13.599,-13.601,-13.601,-13.604,-13.6,-13.596,-13.6,-13.596,-13.601,-13.603,-13.6,-13.6,-13.604,-13.611,-13.611,-13.614,-13.616,-13.616,-13.614,-13.618,-13.621,-13.623,-13.623,-13.624,-13.626,-13.626,-13.627,-13.632,-13.631,-13.633,-13.634,-13.635,-13.635,-13.639,-13.639,-13.641,-13.646,-13.646,-13.65,-13.647,-13.65,-13.656,-13.657,-13.658,-13.661,-13.663,-13.666,-13.667,-13.666,-13.667,-13.659,-13.655,-13.641,-13.628,-13.636,-13.642,-13.635,-13.632,-13.631,-13.616,-13.596,-13.605,-13.618,-13.621,-13.63,-13.648,-13.654,-13.666,-13.683,-13.715,-13.737,-13.745,-13.747,-13.754,-13.754,-13.756,-13.759,-13.76,-13.767,-13.769,-13.775,-13.774,-13.772,-13.778,-13.786,-13.808,-13.845,-13.878,-13.83,-13.681,-13.474,-13.246,-13.068,-13.088,-13.215,-13.326,-13.444,-13.714,-13.907,-13.921,-13.969,-13.925,-13.852,-13.804,-13.784,-13.785,-13.789,-13.794,-13.795,-13.794,-13.797,-13.8,-13.797,-13.801,-13.797,-13.796,-13.794,-13.792,-13.787,-13.785,-13.782,-13.779,-13.773,-13.771,-13.765,-13.764,-13.756,-13.75,-13.74,-13.729,-13.723,-13.71,-13.697,-13.686,-13.678,-13.667,-13.652,-13.637,-13.62,-13.598,-13.582,-13.571,-13.558,-13.546,-13.533,-13.523,-13.511,-13.51,-13.504,-13.504,-13.51,-13.52,-13.536,-13.549,-13.576,-13.608,-13.653,-13.695,-13.736,-13.777,-13.81,-13.847,-13.88,-13.91,-13.937,-13.955,-13.976,-13.994,-14.006,-14.017,-14.026,-14.037,-14.047,-14.049,-14.055,-14.063,-14.069,-14.074,-14.077,-14.079,-14.085,-14.086,-14.086,-14.09,-14.091,-14.088,-14.09,-14.097,-14.105,-14.108,-14.109,-14.111,-14.112,-14.115,-14.117,-14.117,-14.119,-14.119,-14.119,-14.123,-14.128,-14.132,-14.134,-14.137,-14.139,-14.141,-14.141,-14.144,-14.149,-14.154,-14.159,-14.165,-14.168,-14.172,-14.178,-14.179,-14.181,-14.186,-14.193,-14.199,-14.202,-14.205,-14.206,-14.206,-14.215,-14.217,-14.22,-14.226,-14.227,-14.231,-14.233,-14.234,-14.238,-14.241,-14.247,-14.251,-14.25,-14.252,-14.256,-14.259,-14.262,-14.265,-14.268,-14.268,-14.272,-14.274,-14.274,-14.272,-14.278,-14.282,-14.29,-14.288,-14.289,-14.289,-14.294,-14.298,-14.299,-14.3,-14.302,-14.308,-14.312,-14.313,-14.314,-14.317,-14.32,-14.318,-14.316,-14.307,-14.296,-14.294,-14.28,-14.284,-14.287,-14.286,-14.275,-14.269,-14.259,-14.241,-14.249,-14.254,-14.259,-14.27,-14.285,-14.294,-14.305,-14.327,-14.357,-14.38,-14.386,-14.389,-14.391,-14.392,-14.396,-14.401,-14.402,-14.406,-14.409,-14.41,-14.415,-14.414,-14.418,-14.426,-14.45,-14.492,-14.506,-14.422,-14.24,-14.026,-13.807,-13.653,-13.795,-13.909,-13.978,-14.084,-14.404,-14.562,-14.571,-14.589,-14.488,-14.446,-14.398,-14.402,-14.392,-14.399,-14.386,-14.396,-14.387,-14.395,-14.383,-14.385,-14.377,-14.38,-14.369,-14.368,-14.355,-14.355,-14.346,-14.347,-14.338,-14.335,-14.321,-14.316,-14.302,-14.288,-14.266,-14.258,-14.245,-14.239,-14.225,-14.211,-14.195,-14.188,-14.177,-14.16,-14.141,-14.123,-14.113,-14.093,-14.078,-14.06,-14.047,-14.03,-14.023,-14.012,-14.002,-13.999,-14.001,-14.002,-14.01,-14.022,-14.033,-14.051,-14.089,-14.12,-14.16,-14.196,-14.232,-14.269,-14.305,-14.334,-14.361,-14.382,-14.403,-14.424,-14.442,-14.448,-14.461,-14.464,-14.475,-14.481,-14.486,-14.491,-14.494,-14.494,-14.498,-14.495,-14.501,-14.497,-14.5,-14.499,-14.5,-14.497,-14.502,-14.504,-14.505,-14.502,-14.502,-14.499,-14.5,-14.495,-14.494,-14.491,-14.494,-14.492,-14.493,-14.492,-14.49,-14.487,-14.488,-14.49,-14.491,-14.483,-14.488,-14.484,-14.486,-14.489,-14.493,-14.493,-14.497,-14.496,-14.498,-14.497,-14.5,-14.497,-14.5,-14.505,-14.507,-14.509,-14.507,-14.512,-14.516,-14.517,-14.517,-14.521,-14.526,-14.529,-14.528,-14.531,-14.534,-14.534,-14.537,-14.54,-14.539,-14.541,-14.543,-14.544,-14.547,-14.543,-14.544,-14.551,-14.553,-14.551,-14.555,-14.551,-14.558,-14.561,-14.565,-14.566,-14.563,-14.565,-14.564,-14.571,-14.568,-14.57,-14.57,-14.572,-14.569,-14.574,-14.572,-14.573,-14.578,-14.574,-14.571,-14.578,-14.576,-14.579,-14.579,-14.581,-14.582,-14.578,-14.577,-14.579,-14.582,-14.583,-14.579,-14.582,-14.582,-14.578,-14.567,-14.558,-14.551,-14.54,-14.544,-14.547,-14.524,-14.511,-14.498,-14.477,-14.472,-14.482,-14.487,-14.493,-14.501,-14.513,-14.513,-14.529,-14.546,-14.582,-14.603,-14.604,-14.604,-14.606,-14.606,-14.609,-14.615,-14.614,-14.61,-14.613,-14.615,-14.615,-14.619,-14.617,-14.625,-14.653,-14.689,-14.707,-14.633,-14.463,-14.249,-14.034,-13.861,-13.958,-14.157,-14.241,-14.381,-14.676,-14.737,-14.763,-14.775,-14.686,-14.641,-14.584,-14.582,-14.569,-14.576,-14.566,-14.571,-14.562,-14.566,-14.559,-14.559,-14.548,-14.543,-14.532,-14.531,-14.518,-14.519,-14.512,-14.505,-14.495,-14.497,-14.486,-14.481,-14.468,-14.456,-14.44,-14.424,-14.411,-14.402,-14.389,-14.371,-14.353,-14.339,-14.321,-14.307,-14.287,-14.274,-14.266,-14.247,-14.231,-14.217,-14.199,-14.183,-14.169,-14.159,-14.151,-14.143,-14.142,-14.142,-14.145,-14.156,-14.17,-14.194,-14.227,-14.263,-14.3,-14.339,-14.361,-14.395,-14.432,-14.461,-14.493,-14.512,-14.535,-14.551,-14.567,-14.579,-14.592,-14.6,-14.61,-14.613,-14.619,-14.623,-14.628,-14.627,-14.632,-14.63,-14.632,-14.627,-14.629,-14.626,-14.632,-14.627,-14.629,-14.629,-14.629,-14.632,-14.629,-14.629,-14.63,-14.626,-14.629,-14.624,-14.627,-14.619,-14.62,-14.626,-14.627,-14.628,-14.626,-14.626,-14.624,-14.622,-14.621,-14.62,-14.626,-14.628,-14.629,-14.629,-14.631,-14.634,-14.637,-14.638,-14.641,-14.646,-14.647,-14.646,-14.647,-14.648,-14.65,-14.652,-14.653,-14.657,-14.657,-14.653,-14.656,-14.664,-14.667,-14.67,-14.668,-14.669,-14.671,-14.672,-14.671,-14.672,-14.678,-14.68,-14.68,-14.685,-14.686,-14.684,-14.685,-14.686,-14.684,-14.689,-14.69,-14.689,-14.689,-14.69,-14.693,-14.694,-14.696,-14.701,-14.702,-14.703,-14.703,-14.704,-14.701,-14.703,-14.703,-14.702,-14.7,-14.704,-14.699,-14.699,-14.701,-14.706,-14.7,-14.701,-14.704,-14.706,-14.707,-14.707,-14.704,-14.704,-14.706,-14.706,-14.711,-14.706,-14.702,-14.7,-14.699,-14.706,-14.702,-14.699,-14.69,-14.682,-14.675,-14.665,-14.655,-14.66,-14.656,-14.639,-14.63,-14.611,-14.598,-14.59,-14.601,-14.605,-14.613,-14.622,-14.627,-14.633,-14.642,-14.665,-14.683,-14.7,-14.7,-14.71,-14.702,-14.707,-14.705,-14.705,-14.701,-14.701,-14.702,-14.699,-14.696,-14.695,-14.694,-14.703,-14.731,-14.755,-14.758,-14.664,-14.456,-14.236,-14.009,-13.894,-14.125,-14.267,-14.365,-14.571,-14.75,-14.755,-14.772,-14.807,-14.731,-14.68,-14.624,-14.61,-14.591,-14.594,-14.581,-14.578,-14.568,-14.567,-14.559,-14.551,-14.541,-14.534,-14.519,-14.517,-14.501,-14.498,-14.49,-14.487,-14.48,-14.469,-14.457,-14.447,-14.437,-14.421,-14.402,-14.388,-14.378,-14.365,-14.345,-14.324,-14.305,-14.286,-14.268,-14.248,-14.219,-14.212,-14.186,-14.166,-14.14,-14.117,-14.101,-14.079,-14.065,-14.046,-14.034,-14.018,-14.016,-14.003,-14.007,-14.008,-14.023,-14.037,-14.068,-14.094,-14.112,-14.139,-14.179,-14.206,-14.241,-14.26,-14.283,-14.298,-14.319,-14.329,-14.34,-14.345,-14.356,-14.362,-14.36,-14.368,-14.369,-14.363,-14.362,-14.363,-14.361,-14.353,-14.344,-14.336,-14.337,-14.335,-14.325,-14.318,-14.31,-14.3,-14.3,-14.295,-14.288,-14.282,-14.283,-14.274,-14.261,-14.258,-14.253,-14.248,-14.245,-14.24,-14.237,-14.231,-14.223,-14.218,-14.213,-14.201,-14.195,-14.186,-14.185,-14.182,-14.177,-14.18,-14.172,-14.169,-14.166,-14.162,-14.161,-14.16,-14.161,-14.158,-14.15,-14.139,-14.135,-14.126,-14.126,-14.122,-14.114,-14.11,-14.106,-14.101,-14.095,-14.092,-14.087,-14.085,-14.084,-14.08,-14.073,-14.072,-14.063,-14.066,-14.058,-14.051,-14.047,-14.042,-14.038,-14.033,-14.032,-14.029,-14.022,-14.017,-14.013,-14.01,-14.009,-14.003,-13.993,-13.993,-13.984,-13.981,-13.977,-13.975,-13.976,-13.97,-13.96,-13.951,-13.94,-13.929,-13.917,-13.897,-13.896,-13.892,-13.884,-13.865,-13.861,-13.835,-13.818,-13.825,-13.824,-13.821,-13.814,-13.827,-13.841,-13.851,-13.869,-13.889,-13.906,-13.911,-13.907,-13.905,-13.899,-13.901,-13.901,-13.898,-13.897,-13.893,-13.886,-13.886,-13.883,-13.888,-13.886,-13.896,-13.929,-13.961,-13.936,-13.801,-13.57,-13.347,-13.15,-13.112,-13.331,-13.507,-13.636,-13.856,-13.883,-13.88,-13.97,-13.968,-13.937,-13.879,-13.83,-13.813,-13.805,-13.806,-13.803,-13.8,-13.794,-13.791,-13.785,-13.781,-13.778,-13.771,-13.768,-13.764,-13.753,-13.748,-13.747,-13.74,-13.74,-13.736,-13.728,-13.719,-13.712,-13.701,-13.694,-13.684,-13.673,-13.662,-13.651,-13.642,-13.626,-13.61,-13.595,-13.577,-13.561,-13.542,-13.523,-13.515,-13.495,-13.481,-13.472,-13.456,-13.449,-13.44,-13.43,-13.428,-13.429,-13.435,-13.444,-13.459,-13.484,-13.518,-13.554,-13.59,-13.624,-13.658,-13.692,-13.707,-13.736,-13.762,-13.791,-13.815,-13.83,-13.847,-13.859,-13.871,-13.877,-13.878,-13.885,-13.892,-13.9,-13.906,-13.907,-13.916,-13.917,-13.921,-13.92,-13.921,-13.917,-13.92,-13.922,-13.926,-13.926,-13.927,-13.93,-13.93,-13.931,-13.936,-13.938,-13.938,-13.941,-13.94,-13.942,-13.941,-13.941,-13.949,-13.949,-13.952,-13.952,-13.955,-13.958,-13.963,-13.968,-13.968,-13.975,-13.979,-13.978,-13.983,-13.984,-13.987,-13.997,-13.999,-14.002,-14.008,-14.011,-14.013,-14.019,-14.03,-14.038,-14.04,-14.05,-14.062,-14.064,-14.068,-14.075,-14.082,-14.086,-14.089,-14.097,-14.098,-14.102,-14.108,-14.112,-14.112,-14.116,-14.114,-14.117,-14.129,-14.128,-14.13,-14.139,-14.141,-14.147,-14.145,-14.145,-14.155,-14.16,-14.163,-14.166,-14.166,-14.171,-14.176,-14.179,-14.183,-14.185,-14.188,-14.191,-14.197,-14.198,-14.198,-14.199,-14.202,-14.212,-14.209,-14.208,-14.2,-14.193,-14.191,-14.178,-14.179,-14.183,-14.175,-14.17,-14.166,-14.15,-14.141,-14.148,-14.154,-14.164,-14.173,-14.188,-14.196,-14.21,-14.229,-14.258,-14.284,-14.291,-14.291,-14.298,-14.303,-14.305,-14.309,-14.309,-14.311,-14.313,-14.316,-14.319,-14.32,-14.322,-14.335,-14.356,-14.398,-14.413,-14.329,-14.148,-13.934,-13.708,-13.548,-13.692,-13.834,-13.918,-14.129,-14.426,-14.481,-14.489,-14.49,-14.389,-14.345,-14.302,-14.304,-14.293,-14.301,-14.291,-14.297,-14.294,-14.3,-14.294,-14.296,-14.285,-14.285,-14.269,-14.264,-14.259,-14.264,-14.259,-14.261,-14.249,-14.245,-14.236,-14.23,-14.222,-14.214,-14.199,-14.192,-14.177,-14.165,-14.151,-14.135,-14.114,-14.1,-14.085,-14.076,-14.061,-14.045,-14.031,-14.019,-13.998,-13.979,-13.965,-13.957,-13.947,-13.935,-13.928,-13.921,-13.922,-13.926,-13.932,-13.946,-13.964,-13.993,-14.024,-14.062,-14.098,-14.139,-14.159,-14.191,-14.232,-14.257,-14.286,-14.31,-14.333,-14.351,-14.37,-14.376,-14.389,-14.398,-14.405,-14.406,-14.416,-14.415,-14.423,-14.426,-14.429,-14.429,-14.434,-14.434,-14.436,-14.434,-14.435,-14.435,-14.436,-14.438,-14.443,-14.44,-14.441,-14.441,-14.442,-14.441,-14.444,-14.438,-14.443,-14.441,-14.443,-14.444,-14.445,-14.441,-14.444,-14.444,-14.443,-14.439,-14.44,-14.442,-14.448,-14.446,-14.445,-14.444,-14.449,-14.452,-14.452,-14.456,-14.459,-14.456,-14.46,-14.458,-14.454,-14.454,-14.457,-14.461,-14.462,-14.464,-14.464,-14.466,-14.464,-14.467,-14.471,-14.472,-14.476,-14.479,-14.476,-14.476,-14.48,-14.486,-14.488,-14.489,-14.487,-14.49,-14.494,-14.496,-14.497,-14.495,-14.497,-14.505,-14.505,-14.506,-14.506,-14.512,-14.516,-14.51,-14.514,-14.518,-14.521,-14.52,-14.522,-14.52,-14.519,-14.52,-14.521,-14.526,-14.528,-14.529,-14.53,-14.53,-14.53,-14.535,-14.531,-14.538,-14.541,-14.544,-14.547,-14.545,-14.543,-14.542,-14.541,-14.537,-14.527,-14.517,-14.505,-14.51,-14.513,-14.5,-14.488,-14.482,-14.455,-14.457,-14.468,-14.47,-14.477,-14.492,-14.502,-14.511,-14.531,-14.552,-14.566,-14.587,-14.594,-14.596,-14.599,-14.597,-14.595,-14.596,-14.596,-14.594,-14.6,-14.597,-14.6,-14.601,-14.608,-14.623,-14.66,-14.692,-14.658,-14.603,-14.421,-14.204,-13.982,-13.832,-14.006,-14.17,-14.254,-14.443,-14.713,-14.753,-14.781,-14.748,-14.661,-14.617,-14.586,-14.593,-14.583,-14.594,-14.582,-14.59,-14.576,-14.582,-14.566,-14.568,-14.556,-14.556,-14.542,-14.545,-14.533,-14.532,-14.524,-14.52,-14.51,-14.503,-14.495,-14.487,-14.471,-14.468,-14.449,-14.45,-14.431,-14.417,-14.403,-14.395,-14.372,-14.355,-14.339,-14.322,-14.305,-14.29,-14.272,-14.257,-14.239,-14.223,-14.211,-14.195,-14.186,-14.174,-14.172,-14.168,-14.164,-14.169,-14.173,-14.183,-14.206,-14.226,-14.258,-14.297,-14.338,-14.377,-14.414,-14.449,-14.485,-14.511,-14.538,-14.555,-14.573,-14.588,-14.597,-14.604,-14.619,-14.62,-14.629,-14.633,-14.641,-14.643,-14.65,-14.655,-14.66,-14.659,-14.657,-14.654,-14.655,-14.649,-14.65,-14.65,-14.645,-14.643,-14.644,-14.641,-14.643,-14.64,-14.642,-14.638,-14.638,-14.635,-14.637,-14.631,-14.635,-14.631,-14.635,-14.633,-14.632,-14.631,-14.631,-14.634,-14.635,-14.635,-14.632,-14.636,-14.638,-14.642,-14.642,-14.641,-14.645,-14.648,-14.652,-14.653,-14.656,-14.657,-14.661,-14.659,-14.663,-14.664,-14.669,-14.675,-14.674,-14.676,-14.677,-14.675,-14.677,-14.682,-14.685,-14.681,-14.686,-14.685,-14.691,-14.694,-14.695,-14.693,-14.691,-14.695,-14.693,-14.694,-14.698,-14.696,-14.704,-14.706,-14.706,-14.702,-14.704,-14.702,-14.702,-14.707,-14.706,-14.701,-14.703,-14.704,-14.702,-14.702,-14.697,-14.697,-14.698
