-20.495,-20.496,-20.511,-20.528,-20.559,-20.561,-20.552,-20.551,-20.557,-20.567,-20.567,-20.555,-20.559,-20.562,-20.573,-20.567,-20.563,-20.549,-20.557,-20.561,-20.567,-20.561,-20.55,-20.552,-20.573,-20.591,-20.643,-20.584,-20.437,-20.229,-19.98,-19.688,-19.298,-19.215,-19.491,-19.935,-20.154,-20.477,-20.639,-20.608,-20.55,-20.477,-20.46,-20.462,-20.499,-20.492,-20.508,-20.48,-20.495,-20.482,-20.501,-20.477,-20.478,-20.464,-20.475,-20.468,-20.477,-20.464,-20.464,-20.453,-20.467,-20.456,-20.455,-20.432,-20.437,-20.437,-20.437,-20.426,-20.414,-20.407,-20.415,-20.407,-20.396,-20.375,-20.375,-20.374,-20.368,-20.355,-20.337,-20.328,-20.323,-20.316,-20.301,-20.275,-20.261,-20.257,-20.245,-20.228,-20.189,-20.177,-20.166,-20.16,-20.138,-20.116,-20.097,-20.089,-20.085,-20.076,-20.054,-20.04,-20.032,-20.044,-20.044,-20.049,-20.061,-20.086,-20.12,-20.148,-20.17,-20.209,-20.25,-20.301,-20.325,-20.356,-20.378,-20.412,-20.428,-20.449,-20.454,-20.455,-20.458,-20.477,-20.491,-20.492,-20.485,-20.487,-20.496,-20.503,-20.494,-20.49,-20.488,-20.5,-20.497,-20.489,-20.474,-20.477,-20.478,-20.487,-20.481,-20.473,-20.472,-20.476,-20.485,-20.486,-20.474,-20.473,-20.477,-20.491,-20.478,-20.469,-20.468,-20.471,-20.484,-20.485,-20.477,-20.48,-20.48,-20.492,-20.49,-20.484,-20.477,-20.484,-20.492,-20.492,-20.486,-20.48,-20.491,-20.497,-20.508,-20.506,-20.495,-20.495,-20.506,-20.512,-20.507,-20.5,-20.502,-20.505,-20.513,-20.51,-20.499,-20.505,-20.507,-20.518,-20.52,-20.508,-20.505,-20.507,-20.516,-20.515,-20.506,-20.505,-20.512,-20.523,-20.519,-20.504,-20.51,-20.518,-20.524,-20.519,-20.511,-20.506,-20.508,-20.512,-20.51,-20.511,-20.505,-20.499,-20.5,-20.487,-20.47,-20.457,-20.433,-20.411,-20.413,-20.415,-20.424,-20.45,-20.462,-20.469,-20.469,-20.462,-20.475,-20.498,-20.522,-20.541,-20.528,-20.534,-20.547,-20.548,-20.551,-20.534,-20.536,-20.545,-20.555,-20.556,-20.553,-20.542,-20.544,-20.547,-20.551,-20.544,-20.542,-20.545,-20.555,-20.548,-20.55,-20.583,-20.638,-20.623,-20.507,-20.279,-19.999,-19.706,-19.355,-19.268,-19.258,-19.567,-20.019,-20.44,-20.68,-20.644,-20.584,-20.513,-20.494,-20.467,-20.489,-20.472,-20.488,-20.482,-20.488,-20.479,-20.481,-20.469,-20.485,-20.477,-20.483,-20.46,-20.467,-20.46,-20.469,-20.457,-20.452,-20.441,-20.445,-20.447,-20.444,-20.43,-20.424,-20.423,-20.43,-20.415,-20.404,-20.399,-20.398,-20.4,-20.396,-20.383,-20.374,-20.365,-20.365,-20.353,-20.335,-20.318,-20.306,-20.306,-20.294,-20.273,-20.248,-20.232,-20.229,-20.211,-20.191,-20.173,-20.153,-20.15,-20.143,-20.126,-20.1,-20.088,-20.084,-20.089,-20.072,-20.063,-20.068,-20.083,-20.099,-20.119,-20.132,-20.166,-20.205,-20.254,-20.28,-20.309,-20.345,-20.369,-20.402,-20.428,-20.437,-20.453,-20.464,-20.492,-20.49,-20.497,-20.499,-20.504,-20.511,-20.511,-20.502,-20.51,-20.506,-20.522,-20.514,-20.508,-20.498,-20.501,-20.502,-20.513,-20.503,-20.498,-20.497,-20.505,-20.506,-20.504,-20.485,-20.49,-20.498,-20.508,-20.499,-20.488,-20.492,-20.505,-20.511,-20.503,-20.495,-20.499,-20.5,-20.513,-20.519,-20.514,-20.513,-20.517,-20.527,-20.53,-20.518,-20.52,-20.524,-20.54,-20.538,-20.528,-20.531,-20.534,-20.544,-20.543,-20.533,-20.529,-20.536,-20.539,-20.542,-20.54,-20.531,-20.535,-20.547,-20.546,-20.539,-20.523,-20.521,-20.533,-20.527,-20.516,-20.503,-20.498,-20.489,-20.47,-20.435,-20.418,-20.436,-20.463,-20.491,-20.489,-20.476,-20.478,-20.5,-20.509,-20.529,-20.534,-20.557,-20.571,-20.578,-20.581,-20.569,-20.571,-20.578,-20.586,-20.588,-20.581,-20.573,-20.583,-20.595,-20.586,-20.584,-20.57,-20.578,-20.588,-20.598,-20.589,-20.578,-20.584,-20.629,-20.682,-20.661,-20.535,-20.329,-20.079,-19.936,-19.621,-19.276,-19.236,-19.548,-20.003,-20.405,-20.655,-20.661,-20.614,-20.554,-20.512,-20.49,-20.505,-20.517,-20.525,-20.519,-20.514,-20.512,-20.519,-20.524,-20.52,-20.51,-20.499,-20.503,-20.512,-20.504,-20.494,-20.481,-20.488,-20.493,-20.483,-20.472,-20.46,-20.465,-20.47,-20.466,-20.45,-20.443,-20.444,-20.446,-20.437,-20.428,-20.413,-20.407,-20.409,-20.4,-20.386,-20.37,-20.356,-20.351,-20.352,-20.334,-20.312,-20.296,-20.291,-20.274,-20.249,-20.225,-20.209,-20.207,-20.206,-20.185,-20.161,-20.146,-20.133,-20.139,-20.122,-20.109,-20.1,-20.104,-20.117,-20.118,-20.135,-20.161,-20.188,-20.234,-20.26,-20.288,-20.328,-20.345,-20.383,-20.422,-20.44,-20.458,-20.47,-20.5,-20.51,-20.514,-20.516,-20.523,-20.531,-20.541,-20.532,-20.529,-20.53,-20.543,-20.546,-20.54,-20.527,-20.531,-20.532,-20.541,-20.533,-20.52,-20.517,-20.521,-20.53,-20.518,-20.503,-20.508,-20.518,-20.521,-20.514,-20.504,-20.509,-20.51,-20.517,-20.512,-20.512,-20.511,-20.511,-20.525,-20.525,-20.521,-20.518,-20.52,-20.534,-20.533,-20.53,-20.526,-20.532,-20.541,-20.544,-20.535,-20.535,-20.539,-20.552,-20.552,-20.546,-20.537,-20.542,-20.545,-20.55,-20.546,-20.541,-20.542,-20.549,-20.552,-20.555,-20.539,-20.55,-20.551,-20.552,-20.553,-20.541,-20.544,-20.552,-20.555,-20.552,-20.545,-20.543,-20.546,-20.557,-20.555,-20.548,-20.54,-20.546,-20.555,-20.55,-20.543,-20.541,-20.548,-20.554,-20.555,-20.542,-20.537,-20.55,-20.553,-20.55,-20.549,-20.535,-20.543,-20.548,-20.551,-20.548,-20.539,-20.539,-20.549,-20.552,-20.546,-20.538,-20.54,-20.555,-20.546,-20.538,-20.519,-20.53,-20.536,-20.527,-20.525,-20.503,-20.492,-20.485,-20.469,-20.436,-20.427,-20.449,-20.484,-20.5,-20.487,-20.484,-20.492,-20.503,-20.518,-20.532,-20.539,-20.559,-20.567,-20.581,-20.576,-20.571,-20.565,-20.57,-20.582,-20.578,-20.577,-20.573,-20.568,-20.582,-20.577,-20.571,-20.567,-20.571,-20.584,-20.585,-20.597,-20.639,-20.662,-20.635,-20.51,-20.285,-20.046,-19.784,-19.394,-19.24,-19.427,-19.842,-20.261,-20.568,-20.669,-20.602,-20.535,-20.472,-20.478,-20.486,-20.501,-20.485,-20.496,-20.492,-20.505,-20.499,-20.493,-20.482,-20.482,-20.49,-20.487,-20.47,-20.466,-20.462,-20.476,-20.467,-20.456,-20.443,-20.446,-20.452,-20.448,-20.435,-20.426,-20.422,-20.426,-20.421,-20.411,-20.395,-20.391,-20.386,-20.385,-20.371,-20.356,-20.345,-20.342,-20.335,-20.319,-20.296,-20.286,-20.277,-20.27,-20.245,-20.213,-20.207,-20.195,-20.188,-20.169,-20.137,-20.12,-20.105,-20.099,-20.087,-20.062,-20.051,-20.043,-20.045,-20.038,-20.027,-20.027,-20.038,-20.062,-20.081,-20.099,-20.11,-20.15,-20.19,-20.23,-20.26,-20.287,-20.325,-20.361,-20.391,-20.406,-20.413,-20.432,-20.447,-20.461,-20.461,-20.453,-20.462,-20.467,-20.469,-20.465,-20.46,-20.459,-20.472,-20.477,-20.474,-20.456,-20.456,-20.454,-20.462,-20.46,-20.448,-20.449,-20.456,-20.457,-20.449,-20.437,-20.441,-20.444,-20.447,-20.444,-20.438,-20.433,-20.441,-20.45,-20.449,-20.448,-20.442,-20.446,-20.457,-20.453,-20.445,-20.438,-20.449,-20.458,-20.46,-20.455,-20.449,-20.453,-20.467,-20.468,-20.468,-20.454,-20.458,-20.469,-20.468,-20.465,-20.461,-20.463,-20.466,-20.472,-20.473,-20.462,-20.466,-20.474,-20.479,-20.477,-20.469,-20.471,-20.482,-20.48,-20.48,-20.472,-20.465,-20.465,-20.476,-20.471,-20.466,-20.465,-20.469,-20.477,-20.471,-20.464,-20.461,-20.468,-20.481,-20.476,-20.468,-20.466,-20.472,-20.476,-20.471,-20.472,-20.464,-20.465,-20.477,-20.483,-20.475,-20.463,-20.464,-20.469,-20.464,-20.458,-20.45,-20.454,-20.463,-20.455,-20.443,-20.42,-20.415,-20.399,-20.384,-20.358,-20.359,-20.382,-20.407,-20.422,-20.41,-20.41,-20.421,-20.435,-20.455,-20.465,-20.476,-20.489,-20.492,-20.505,-20.496,-20.488,-20.483,-20.491,-20.498,-20.5,-20.493,-20.492,-20.495,-20.506,-20.503,-20.491,-20.483,-20.487,-20.502,-20.503,-20.494,-20.488,-20.502,-20.56,-20.594,-20.521,-20.349,-20.234,-19.989,-19.711,-19.337,-19.166,-19.287,-19.697,-20.14,-20.499,-20.592,-20.552,-20.496,-20.429,-20.411,-20.384,-20.417,-20.405,-20.438,-20.412,-20.412,-20.401,-20.419,-20.412,-20.42,-20.394,-20.397,-20.386,-20.408,-20.393,-20.392,-20.379,-20.382,-20.377,-20.383,-20.359,-20.354,-20.347,-20.362,-20.35,-20.348,-20.335,-20.335,-20.327,-20.331,-20.315,-20.302,-20.294,-20.293,-20.287,-20.274,-20.251,-20.244,-20.238,-20.232,-20.215,-20.188,-20.182,-20.171,-20.15,-20.133,-20.107,-20.1,-20.085,-20.078,-20.061,-20.028,-20.015,-20,-20.003,-19.989,-19.976,-19.962,-19.971,-19.983,-19.994,-19.99,-20.014,-20.043,-20.081,-20.114,-20.134,-20.154,-20.197,-20.231,-20.277,-20.297,-20.313,-20.33,-20.361,-20.374,-20.384,-20.38,-20.393,-20.405,-20.413,-20.407,-20.4,-20.399,-20.419,-20.416,-20.42,-20.401,-20.397,-20.399,-20.41,-20.401,-20.39,-20.382,-20.4,-20.403,-20.404,-20.389,-20.39,-20.393,-20.4,-20.394,-20.386,-20.385,-20.395,-20.403,-20.402,-20.396,-20.387,-20.391,-20.41,-20.408,-20.404,-20.398,-20.407,-20.414,-20.414,-20.408,-20.408,-20.415,-20.428,-20.43,-20.427,-20.417,-20.417,-20.426,-20.424,-20.425,-20.424,-20.422,-20.429,-20.44,-20.439,-20.425,-20.424,-20.436,-20.443,-20.439,-20.431,-20.43,-20.436,-20.447,-20.446,-20.438,-20.434,-20.441,-20.448,-20.443,-20.441,-20.44,-20.44,-20.451,-20.448,-20.441,-20.429,-20.439,-20.442,-20.433,-20.419,-20.399,-20.396,-20.389,-20.357,-20.337,-20.347,-20.38,-20.393,-20.41,-20.398,-20.389,-20.404,-20.414,-20.431,-20.448,-20.456,-20.471,-20.477,-20.483,-20.482,-20.477,-20.469,-20.484,-20.492,-20.487,-20.48,-20.488,-20.49,-20.506,-20.5,-20.49,-20.489,-20.491,-20.498,-20.495,-20.483,-20.482,-20.484,-20.525,-20.578,-20.565,-20.465,-20.276,-20.033,-19.748,-19.364,-19.163,-19.147,-19.392,-19.848,-20.254,-20.557,-20.579,-20.544,-20.48,-20.414,-20.394,-20.402,-20.423,-20.428,-20.421,-20.409,-20.42,-20.422,-20.425,-20.416,-20.41,-20.409,-20.412,-20.414,-20.412,-20.396,-20.401,-20.392,-20.394,-20.39,-20.378,-20.378,-20.38,-20.381,-20.374,-20.353,-20.354,-20.352,-20.352,-20.345,-20.334,-20.32,-20.32,-20.323,-20.312,-20.298,-20.279,-20.273,-20.273,-20.26,-20.235,-20.217,-20.204,-20.195,-20.185,-20.165,-20.135,-20.123,-20.111,-20.1,-20.092,-20.064,-20.049,-20.047,-20.035,-20.028,-20.006,-20.003,-20.011,-20.016,-20.024,-20.026,-20.045,-20.078,-20.098,-20.146,-20.171,-20.211,-20.253,-20.282,-20.3,-20.32,-20.345,-20.366,-20.4,-20.409,-20.416,-20.413,-20.429,-20.445,-20.444,-20.442,-20.442,-20.45,-20.461,-20.454,-20.444,-20.438,-20.449,-20.448,-20.444,-20.438,-20.432,-20.439,-20.439,-20.44,-20.429,-20.426,-20.427,-20.434,-20.431,-20.431,-20.423,-20.42,-20.427,-20.429,-20.426,-20.419,-20.42,-20.433,-20.441,-20.435,-20.432,-20.432,-20.439,-20.446,-20.44,-20.438,-20.441,-20.443,-20.455,-20.456,-20.445,-20.445,-20.451,-20.459,-20.459,-20.455,-20.459,-20.462,-20.471,-20.467,-20.466,-20.456,-20.458,-20.471,-20.473,-20.467,-20.46,-20.462,-20.475,-20.474,-20.473,-20.464,-20.461,-20.481,-20.477,-20.471,-20.466,-20.466,-20.465,-20.481,-20.476,-20.465,-20.466,-20.477,-20.48,-20.477,-20.467,-20.471,-20.47,-20.485,-20.481,-20.467,-20.472,-20.471,-20.479,-20.47,-20.463,-20.468,-20.471,-20.472,-20.466,-20.456,-20.457,-20.455,-20.454,-20.447,-20.42,-20.414,-20.4,-20.374,-20.365,-20.379,-20.4,-20.417,-20.425,-20.424,-20.43,-20.434,-20.431,-20.458,-20.478,-20.488,-20.496,-20.501,-20.509,-20.514,-20.517,-20.502,-20.512,-20.516,-20.522,-20.516,-20.507,-20.514,-20.517,-20.522,-20.519,-20.505,-20.511,-20.513,-20.518,-20.528,-20.553,-20.601,-20.58,-20.471,-20.263,-20.017,-19.759,-19.371,-19.18,-19.318,-19.729,-20.154,-20.484,-20.605,-20.563,-20.491,-20.448,-20.418,-20.42,-20.443,-20.44,-20.441,-20.431,-20.449,-20.439,-20.447,-20.428,-20.433,-20.435,-20.437,-20.423,-20.419,-20.412,-20.422,-20.411,-20.415,-20.397,-20.399,-20.396,-20.4,-20.396,-20.378,-20.37,-20.371,-20.375,-20.371,-20.353,-20.348,-20.341,-20.341,-20.33,-20.308,-20.303,-20.3,-20.3,-20.292,-20.272,-20.254,-20.242,-20.231,-20.219,-20.197,-20.174,-20.162,-20.154,-20.13,-20.107,-20.084,-20.074,-20.067,-20.052,-20.037,-20.016,-20.005,-20.009,-20.005,-19.992,-19.985,-19.994,-20.016,-20.043,-20.062,-20.087,-20.118,-20.161,-20.201,-20.237,-20.257,-20.292,-20.324,-20.355,-20.367,-20.375,-20.386,-20.404,-20.403,-20.427,-20.428,-20.428,-20.434,-20.448,-20.441,-20.435,-20.435,-20.432,-20.441,-20.437,-20.426,-20.423,-20.42,-20.429,-20.427,-20.419,-20.416,-20.419,-20.423,-20.423,-20.415,-20.404,-20.404,-20.411,-20.417,-20.412,-20.4,-20.405,-20.416,-20.418,-20.412,-20.406,-20.408,-20.414,-20.421,-20.418,-20.412,-20.417,-20.42,-20.428,-20.423,-20.415,-20.417,-20.422,-20.431,-20.434,-20.427,-20.433,-20.437,-20.444,-20.444,-20.434,-20.436,-20.433,-20.446,-20.442,-20.431,-20.44,-20.437,-20.442,-20.444,-20.442,-20.44,-20.44,-20.449,-20.452,-20.447,-20.435,-20.439,-20.449,-20.452,-20.443,-20.437,-20.445,-20.451,-20.451,-20.446,-20.436,-20.441,-20.446,-20.456,-20.453,-20.442,-20.445,-20.45,-20.46,-20.456,-20.444,-20.439,-20.446,-20.461,-20.456,-20.443,-20.438,-20.436,-20.44,-20.44,-20.426,-20.422,-20.42,-20.422,-20.412,-20.398,-20.37,-20.341,-20.35,-20.364,-20.393,-20.398,-20.395,-20.406,-20.417,-20.411,-20.415,-20.45,-20.478,-20.48,-20.474,-20.47,-20.475,-20.485,-20.486,-20.489,-20.478,-20.482,-20.491,-20.497,-20.494,-20.48,-20.479,-20.49,-20.498,-20.497,-20.482,-20.486,-20.495,-20.503,-20.528,-20.548,-20.564,-20.494,-20.331,-20.089,-19.808,-19.464,-19.202,-19.206,-19.544,-19.974,-20.376,-20.588,-20.583,-20.523,-20.452,-20.412,-20.403,-20.431,-20.422,-20.431,-20.411,-20.417,-20.422,-20.426,-20.418,-20.416,-20.405,-20.412,-20.412,-20.41,-20.397,-20.399,-20.402,-20.403,-20.391,-20.378,-20.37,-20.381,-20.382,-20.371,-20.367,-20.357,-20.359,-20.364,-20.349,-20.333,-20.332,-20.335,-20.339,-20.323,-20.3,-20.291,-20.288,-20.286,-20.267,-20.248,-20.232,-20.222,-20.222,-20.211,-20.192,-20.166,-20.149,-20.142,-20.124,-20.097,-20.075,-20.062,-20.06,-20.047,-20.03,-20.015,-20.009,-20.011,-20.006,-19.999,-19.999,-20.017,-20.035,-20.068,-20.095,-20.11,-20.138,-20.178,-20.231,-20.263,-20.286,-20.317,-20.35,-20.379,-20.397,-20.397,-20.416,-20.422,-20.439,-20.441,-20.44,-20.443,-20.446,-20.454,-20.456,-20.447,-20.447,-20.444,-20.459,-20.456,-20.449,-20.443,-20.441,-20.447,-20.446,-20.434,-20.431,-20.437,-20.448,-20.444,-20.436,-20.436,-20.436,-20.438,-20.444,-20.438,-20.432,-20.437,-20.441,-20.449,-20.443,-20.435,-20.446,-20.445,-20.453,-20.452,-20.44,-20.445,-20.457,-20.464,-20.46,-20.454,-20.458,-20.46,-20.469,-20.471,-20.463,-20.459,-20.465,-20.473,-20.473,-20.462,-20.462,-20.468,-20.478,-20.479,-20.467,-20.469,-20.475,-20.484,-20.485,-20.474,-20.466,-20.472,-20.485,-20.485,-20.477,-20.472,-20.473,-20.485,-20.486,-20.487,-20.47,-20.474,-20.482,-20.482,-20.469,-20.455,-20.457,-20.454,-20.443,-20.419,-20.391,-20.375,-20.384,-20.414,-20.439,-20.432,-20.43,-20.441,-20.457,-20.463,-20.468,-20.488,-20.511,-20.525,-20.52,-20.519,-20.517,-20.531,-20.532,-20.531,-20.528,-20.523,-20.528,-20.545,-20.537,-20.538,-20.528,-20.528,-20.543,-20.542,-20.538,-20.528,-20.528,-20.541,-20.564,-20.613,-20.621,-20.536,-20.365,-20.112,-19.954,-19.648,-19.285,-19.214,-19.418,-19.857,-20.267,-20.599,-20.629,-20.601,-20.527,-20.46,-20.446,-20.453,-20.481,-20.47,-20.474,-20.464,-20.478,-20.471,-20.477,-20.465,-20.465,-20.462,-20.472,-20.462,-20.456,-20.446,-20.452,-20.455,-20.453,-20.437,-20.434,-20.426,-20.439,-20.43,-20.422,-20.413,-20.417,-20.418,-20.419,-20.404,-20.396,-20.386,-20.387,-20.382,-20.37,-20.353,-20.343,-20.342,-20.334,-20.318,-20.3,-20.283,-20.281,-20.268,-20.247,-20.22,-20.204,-20.199,-20.196,-20.171,-20.151,-20.144,-20.129,-20.129,-20.112,-20.09,-20.082,-20.077,-20.086,-20.084,-20.084,-20.094,-20.121,-20.156,-20.182,-20.205,-20.241,-20.26,-20.301,-20.342,-20.363,-20.39,-20.41,-20.445,-20.463,-20.474,-20.472,-20.484,-20.498,-20.508,-20.504,-20.506,-20.506,-20.518,-20.519,-20.512,-20.501,-20.505,-20.509,-20.515,-20.502,-20.488,-20.492,-20.5,-20.503,-20.498,-20.483,-20.491,-20.49,-20.496,-20.496,-20.488,-20.492,-20.496,-20.501,-20.497,-20.488,-20.491,-20.494,-20.503,-20.503,-20.494,-20.49,-20.501,-20.508,-20.511,-20.506,-20.506,-20.511,-20.52,-20.522,-20.518,-20.511,-20.516,-20.527,-20.524,-20.515,-20.51,-20.519,-20.526,-20.53,-20.527,-20.514,-20.525,-20.53,-20.539,-20.532,-20.523,-20.529,-20.536,-20.54,-20.531,-20.523,-20.524,-20.535,-20.537,-20.531,-20.525,-20.523,-20.528,-20.54,-20.538,-20.529,-20.534,-20.533,-20.545,-20.541,-20.53,-20.529,-20.534,-20.542,-20.539,-20.534,-20.529,-20.533,-20.541,-20.539,-20.537,-20.528,-20.524,-20.54,-20.533,-20.526,-20.513,-20.512,-20.52,-20.52,-20.51,-20.491,-20.474,-20.481,-20.462,-20.425,-20.408,-20.43,-20.46,-20.476,-20.478,-20.465,-20.47,-20.487,-20.497,-20.504,-20.516,-20.534,-20.552,-20.561,-20.559,-20.556,-20.559,-20.559,-20.565,-20.559,-20.558,-20.56,-20.563,-20.569,-20.562,-20.565,-20.557,-20.56,-20.564,-20.572,-20.567,-20.557,-20.59,-20.651,-20.657,-20.557,-20.365,-20.132,-19.894,-19.544,-19.249,-19.273,-19.645,-20.103,-20.299,-20.584,-20.646,-20.579,-20.533,-20.481,-20.478,-20.473,-20.492,-20.493,-20.508,-20.491,-20.493,-20.483,-20.497,-20.488,-20.489,-20.472,-20.475,-20.468,-20.483,-20.473,-20.463,-20.456,-20.452,-20.455,-20.455,-20.44,-20.434,-20.432,-20.442,-20.432,-20.42,-20.407,-20.411,-20.41,-20.407,-20.385,-20.378,-20.374,-20.374,-20.364,-20.351,-20.33,-20.322,-20.311,-20.307,-20.291,-20.263,-20.249,-20.239,-20.226,-20.203,-20.177,-20.164,-20.153,-20.14,-20.123,-20.093,-20.091,-20.082,-20.079,-20.071,-20.051,-20.047,-20.053,-20.064,-20.078,-20.084,-20.111,-20.14,-20.177,-20.215,-20.242,-20.279,-20.315,-20.354,-20.387,-20.402,-20.408,-20.429,-20.457,-20.464,-20.475,-20.472,-20.486,-20.497,-20.497,-20.493,-20.486,-20.495,-20.504,-20.5,-20.494,-20.487,-20.493,-20.498,-20.497,-20.486,-20.482,-20.479,-20.487,-20.49,-20.484,-20.474,-20.475,-20.477,-20.485,-20.487,-20.472,-20.469,-20.48,-20.484,-20.482,-20.471,-20.473,-20.477,-20.487,-20.485,-20.482,-20.477,-20.485,-20.494,-20.495,-20.489,-20.486,-20.49,-20.502,-20.496,-20.492,-20.49,-20.495,-20.508,-20.505,-20.502,-20.496,-20.498,-20.509,-20.507,-20.506,-20.497,-20.498,-20.505,-20.507,-20.501,-20.494,-20.495,-20.501,-20.507,-20.507,-20.496,-20.496,-20.511,-20.512,-20.508,-20.502,-20.501,-20.504,-20.51,-20.509,-20.503,-20.498,-20.498,-20.51,-20.512,-20.5,-20.497,-20.502,-20.514,-20.51,-20.502,-20.501,-20.498,-20.507,-20.502,-20.493,-20.495,-20.498,-20.515,-20.509,-20.501,-20.496,-20.489,-20.492,-20.496,-20.488,-20.473,-20.466,-20.469,-20.461,-20.445,-20.409,-20.382,-20.385,-20.409,-20.432,-20.437,-20.44,-20.456,-20.46,-20.461,-20.453,-20.474,-20.491,-20.523,-20.528,-20.52,-20.525,-20.529,-20.535,-20.534,-20.527,-20.531,-20.534,-20.544,-20.535,-20.524,-20.531,-20.533,-20.54,-20.54,-20.528,-20.525,-20.53,-20.541,-20.553,-20.594,-20.62,-20.55,-20.399,-20.167,-19.897,-19.571,-19.252,-19.226,-19.55,-19.989,-20.382,-20.613,-20.628,-20.605,-20.535,-20.461,-20.441,-20.449,-20.472,-20.471,-20.456,-20.455,-20.467,-20.468,-20.473,-20.444,-20.451,-20.455,-20.453,-20.443,-20.425,-20.435,-20.436,-20.438,-20.439,-20.424,-20.418,-20.415,-20.423,-20.418,-20.402,-20.397,-20.397,-20.401,-20.393,-20.38,-20.37,-20.364,-20.367,-20.358,-20.341,-20.331,-20.324,-20.319,-20.309,-20.297,-20.272,-20.26,-20.263,-20.246,-20.223,-20.198,-20.18,-20.169,-20.157,-20.139,-20.112,-20.102,-20.093,-20.089,-20.068,-20.055,-20.048,-20.046,-20.051,-20.045,-20.043,-20.05,-20.073,-20.1,-20.125,-20.136,-20.17,-20.218,-20.268,-20.294,-20.326,-20.353,-20.387,-20.416,-20.436,-20.442,-20.441,-20.453,-20.463,-20.472,-20.475,-20.473,-20.485,-20.499,-20.493,-20.489,-20.486,-20.468,-20.492,-20.49,-20.486,-20.46,-20.456,-20.473,-20.482,-20.483,-20.467,-20.46,-20.471,-20.479,-20.466,-20.445,-20.466,-20.474,-20.481,-20.485,-20.459,-20.48,-20.471,-20.485,-20.477,-20.452,-20.456,-20.479,-20.47,-20.484,-20.492,-20.477,-20.469,-20.492,-20.483,-20.484,-20.486,-20.496,-20.497,-20.509,-20.488,-20.502,-20.493,-20.501,-20.511,-20.493,-20.507,-20.515,-20.521,-20.511,-20.511,-20.5,-20.508,-20.51,-20.526,-20.515,-20.501,-20.527,-20.55,-20.53,-20.526,-20.502,-20.517,-20.506,-20.516,-20.522,-20.509,-20.515,-20.495,-20.483,-20.47,-20.478,-20.46,-20.414,-20.448,-20.468,-20.476,-20.487,-20.483,-20.49,-20.497,-20.496,-20.513,-20.528,-20.584,-20.566,-20.546,-20.58,-20.571,-20.583,-20.567,-20.57,-20.571,-20.579,-20.57,-20.58,-20.583,-20.563,-20.563,-20.588,-20.585,-20.562,-20.55,-20.574,-20.567,-20.59,-20.63,-20.67,-20.631,-20.565,-20.375,-20.093,-19.768,-19.404,-19.255,-19.327,-19.745,-20.142,-20.548,-20.667,-20.652,-20.604,-20.531,-20.487,-20.491,-20.525,-20.507,-20.51,-20.502,-20.518,-20.507,-20.514,-20.502,-20.507,-20.491,-20.501,-20.5,-20.515,-20.494,-20.504,-20.492,-20.496,-20.467,-20.464,-20.474,-20.501,-20.484,-20.471,-20.457,-20.464,-20.463,-20.475,-20.478,-20.47,-20.468,-20.453,-20.451,-20.458,-20.425,-20.418,-20.435,-20.413,-20.397,-20.387,-20.34,-20.378,-20.362,-20.337,-20.323,-20.302,-20.304,-20.286,-20.279,-20.257,-20.256,-20.236,-20.25,-20.249,-20.221,-20.225,-20.228,-20.238,-20.213,-20.233,-20.259,-20.252,-20.276,-20.298,-20.31,-20.325,-20.378,-20.426,-20.443,-20.477,-20.502,-20.499,-20.536,-20.561,-20.563,-20.575,-20.591,-20.588,-20.616,-20.613,-20.596,-20.583,-20.598,-20.619,-20.617,-20.617,-20.626,-20.624,-20.61,-20.594,-20.608,-20.611,-20.628,-20.614,-20.59,-20.583,-20.598,-20.596,-20.601,-20.592,-20.588,-20.604,-20.62,-20.594,-20.602,-20.584,-20.595,-20.587,-20.594,-20.596,-20.587,-20.593,-20.61,-20.63,-20.622,-20.589,-20.59,-20.61,-20.609,-20.613,-20.628,-20.63,-20.616,-20.614,-20.614,-20.624,-20.612,-20.601,-20.612,-20.594,-20.572,-20.568,-20.537,-20.499,-20.492,-20.502,-20.498,-20.515,-20.515,-20.549,-20.554,-20.563,-20.562,-20.593,-20.62,-20.624,-20.614,-20.619,-20.616,-20.624,-20.608,-20.595,-20.617,-20.581,-20.618,-20.604,-20.583,-20.581,-20.582,-20.589,-20.592,-20.574,-20.582,-20.578,-20.571,-20.588,-20.629,-20.652,-20.61,-20.484,-20.283,-20.007,-19.684,-19.361,-19.28,-19.524,-19.933,-20.336,-20.638,-20.668,-20.624,-20.559,-20.498,-20.498,-20.475,-20.489,-20.492,-20.509,-20.491,-20.505,-20.499,-20.508,-20.49,-20.489,-20.483,-20.494,-20.492,-20.484,-20.476,-20.477,-20.474,-20.478,-20.453,-20.449,-20.456,-20.475,-20.443,-20.445,-20.43,-20.429,-20.425,-20.438,-20.425,-20.415,-20.403,-20.408,-20.411,-20.394,-20.373,-20.368,-20.371,-20.361,-20.35,-20.325,-20.328,-20.309,-20.315,-20.295,-20.275,-20.248,-20.245,-20.246,-20.231,-20.2,-20.187,-20.199,-20.179,-20.163,-20.156,-20.146,-20.131,-20.152,-20.161,-20.17,-20.178,-20.206,-20.231,-20.261,-20.292,-20.307,-20.355,-20.378,-20.417,-20.434,-20.453,-20.476,-20.517,-20.526,-20.511,-20.527,-20.53,-20.538,-20.539,-20.54,-20.535,-20.538,-20.543,-20.56,-20.55,-20.549,-20.539,-20.549,-20.558,-20.551,-20.537,-20.533,-20.544,-20.553,-20.541,-20.528,-20.541,-20.544,-20.537,-20.534,-20.535,-20.522,-20.522,-20.532,-20.535,-20.519,-20.527,-20.516,-20.533,-20.531,-20.531,-20.528,-20.537,-20.55,-20.542,-20.53,-20.531,-20.533,-20.548,-20.545,-20.546,-20.536,-20.543,-20.547,-20.549,-20.539,-20.543,-20.544,-20.559,-20.552,-20.555,-20.544,-20.545,-20.551,-20.556,-20.558,-20.535,-20.543,-20.548,-20.545,-20.547,-20.538,-20.541,-20.533,-20.532,-20.516,-20.486,-20.461,-20.456,-20.488,-20.509,-20.506,-20.51,-20.518,-20.535,-20.543,-20.535,-20.546,-20.57,-20.596,-20.598,-20.593,-20.588,-20.599,-20.599,-20.607,-20.598,-20.594,-20.604,-20.613,-20.614,-20.611,-20.607,-20.611,-20.617,-20.619,-20.611,-20.611,-20.632,-20.662,-20.711,-20.696,-20.565,-20.363,-20.12,-19.855,-19.465,-19.295,-19.446,-19.867,-20.284,-20.629,-20.714,-20.672,-20.612,-20.56,-20.55,-20.536,-20.554,-20.551,-20.573,-20.566,-20.574,-20.564,-20.575,-20.57,-20.584,-20.569,-20.568,-20.571,-20.583,-20.577,-20.577,-20.57,-20.579,-20.584,-20.579,-20.573,-20.572,-20.564,-20.574,-20.572,-20.579,-20.565,-20.56,-20.562,-20.559,-20.542,-20.525,-20.525,-20.523,-20.517,-20.512,-20.485,-20.471,-20.468,-20.458,-20.443,-20.414,-20.408,-20.402,-20.389,-20.367,-20.342,-20.324,-20.312,-20.311,-20.294,-20.277,-20.261,-20.251,-20.25,-20.238,-20.221,-20.215,-20.223,-20.245,-20.257,-20.273,-20.286,-20.31,-20.354,-20.381,-20.413,-20.436,-20.469,-20.502,-20.533,-20.548,-20.557,-20.564,-20.586,-20.596,-20.602,-20.601,-20.61,-20.617,-20.619,-20.613,-20.61,-20.6,-20.6,-20.608,-20.609,-20.6,-20.599,-20.598,-20.615,-20.602,-20.593,-20.597,-20.6,-20.604,-20.602,-20.589,-20.593,-20.593,-20.599,-20.595,-20.591,-20.579,-20.583,-20.6,-20.595,-20.59,-20.585,-20.582,-20.595,-20.598,-20.593,-20.589,-20.589,-20.599,-20.605,-20.594,-20.594,-20.593,-20.605,-20.61,-20.603,-20.592,-20.592,-20.604,-20.614,-20.615,-20.601,-20.599,-20.609,-20.614,-20.61,-20.601,-20.604,-20.615,-20.62,-20.613,-20.598,-20.6,-20.609,-20.616,-20.609,-20.596,-20.58,-20.577,-20.58,-20.555,-20.515,-20.512,-20.538,-20.57,-20.569,-20.565,-20.568,-20.579,-20.591,-20.598,-20.606,-20.618,-20.635,-20.643,-20.65,-20.649,-20.64,-20.641,-20.645,-20.657,-20.653,-20.648,-20.65,-20.657,-20.663,-20.657,-20.653,-20.657,-20.659,-20.661,-20.655,-20.646,-20.666,-20.692,-20.749,-20.751,-20.636,-20.448,-20.207,-19.941,-19.547,-19.301,-19.374,-19.78,-20.209,-20.599,-20.736,-20.706,-20.645,-20.596,-20.583,-20.568,-20.588,-20.583,-20.602,-20.595,-20.6,-20.578,-20.592,-20.595,-20.6,-20.587,-20.581,-20.578,-20.584,-20.577,-20.577,-20.557,-20.563,-20.565,-20.563,-20.553,-20.544,-20.54,-20.54,-20.538,-20.531,-20.516,-20.511,-20.504,-20.507,-20.5,-20.482,-20.468,-20.466,-20.463,-20.448,-20.429,-20.418,-20.409,-20.405,-20.387,-20.37,-20.36,-20.35,-20.337,-20.321,-20.301,-20.284,-20.261,-20.258,-20.245,-20.229,-20.213,-20.202,-20.202,-20.19,-20.183,-20.176,-20.18,-20.2,-20.215,-20.23,-20.241,-20.266,-20.307,-20.339,-20.377,-20.395,-20.43,-20.46,-20.493,-20.513,-20.523,-20.539,-20.561,-20.572,-20.577,-20.572,-20.576,-20.587,-20.591,-20.587,-20.584,-20.583,-20.586,-20.594,-20.592,-20.581,-20.582,-20.574,-20.593,-20.582,-20.57,-20.568,-20.568,-20.578,-20.574,-20.563,-20.565,-20.565,-20.582,-20.571,-20.567,-20.563,-20.561,-20.571,-20.571,-20.564,-20.558,-20.559,-20.573,-20.577,-20.574,-20.569,-20.573,-20.583,-20.587,-20.578,-20.571,-20.576,-20.582,-20.587,-20.591,-20.581,-20.581,-20.58,-20.592,-20.592,-20.578,-20.583,-20.584,-20.595,-20.595,-20.588,-20.59,-20.592,-20.6,-20.596,-20.588,-20.595,-20.598,-20.602,-20.599,-20.588,-20.58,-20.586,-20.594,-20.596,-20.59,-20.584,-20.594,-20.603,-20.597,-20.588,-20.575,-20.572,-20.582,-20.586,-20.562,-20.552,-20.539,-20.54,-20.537,-20.51,-20.471,-20.478,-20.504,-20.534,-20.536,-20.523,-20.528,-20.539,-20.551,-20.564,-20.563,-20.586,-20.603,-20.611,-20.613,-20.601,-20.606,-20.608,-20.613,-20.623,-20.612,-20.607,-20.615,-20.623,-20.622,-20.61,-20.605,-20.607,-20.616,-20.613,-20.612,-20.604,-20.634,-20.694,-20.722,-20.64,-20.468,-20.355,-20.115,-19.826,-19.436,-19.256,-19.405,-19.827,-20.254,-20.614,-20.703,-20.649,-20.607,-20.541,-20.539,-20.516,-20.541,-20.531,-20.552,-20.536,-20.537,-20.529,-20.548,-20.541,-20.55,-20.525,-20.529,-20.525,-20.539,-20.526,-20.519,-20.499,-20.514,-20.512,-20.5,-20.486,-20.487,-20.481,-20.493,-20.482,-20.476,-20.462,-20.461,-20.463,-20.458,-20.449,-20.436,-20.424,-20.431,-20.417,-20.4,-20.39,-20.385,-20.375,-20.368,-20.347,-20.33,-20.319,-20.308,-20.287,-20.273,-20.259,-20.241,-20.227,-20.224,-20.207,-20.184,-20.178,-20.166,-20.162,-20.148,-20.133,-20.124,-20.136,-20.149,-20.157,-20.17,-20.204,-20.23,-20.272,-20.303,-20.322,-20.35,-20.383,-20.434,-20.46,-20.472,-20.495,-20.507,-20.533,-20.532,-20.539,-20.534,-20.55,-20.565,-20.57,-20.559,-20.559,-20.557,-20.568,-20.562,-20.564,-20.546,-20.553,-20.547,-20.559,-20.552,-20.545,-20.546,-20.552,-20.555,-20.551,-20.539,-20.542,-20.545,-20.554,-20.544,-20.536,-20.542,-20.549,-20.554,-20.555,-20.54,-20.543,-20.545,-20.557,-20.554,-20.545,-20.546,-20.552,-20.566,-20.565,-20.56,-20.562,-20.561,-20.572,-20.572,-20.565,-20.564,-20.562,-20.578,-20.577,-20.578,-20.575,-20.577,-20.586,-20.58,-20.568,-20.563,-20.57,-20.568,-20.559,-20.552,-20.541,-20.537,-20.523,-20.493,-20.477,-20.49,-20.522,-20.539,-20.546,-20.542,-20.538,-20.549,-20.55,-20.586,-20.602,-20.607,-20.623,-20.625,-20.634,-20.636,-20.625,-20.629,-20.632,-20.64,-20.647,-20.638,-20.643,-20.639,-20.644,-20.645,-20.644,-20.637,-20.641,-20.65,-20.651,-20.67,-20.704,-20.74,-20.677,-20.519,-20.278,-19.975,-19.629,-19.354,-19.327,-19.673,-20.104,-20.318,-20.683,-20.765,-20.724,-20.647,-20.59,-20.581,-20.565,-20.589,-20.561,-20.582,-20.572,-20.593,-20.571,-20.576,-20.556,-20.577,-20.57,-20.573,-20.55,-20.565,-20.552,-20.574,-20.558,-20.559,-20.545,-20.549,-20.541,-20.54,-20.525,-20.525,-20.518,-20.53,-20.513,-20.507,-20.5,-20.495,-20.503,-20.493,-20.474,-20.471,-20.458,-20.459,-20.451,-20.438,-20.427,-20.412,-20.406,-20.398,-20.375,-20.359,-20.342,-20.329,-20.321,-20.302,-20.279,-20.266,-20.268,-20.253,-20.232,-20.224,-20.214,-20.205,-20.211,-20.21,-20.208,-20.218,-20.238,-20.275,-20.294,-20.312,-20.349,-20.386,-20.434,-20.452,-20.475,-20.504,-20.533,-20.563,-20.575,-20.573,-20.576,-20.586,-20.602,-20.608,-20.611,-20.603,-20.614,-20.618,-20.624,-20.609,-20.61,-20.61,-20.624,-20.631,-20.625,-20.611,-20.615,-20.627,-20.624,-20.614,-20.607,-20.608,-20.614,-20.632,-20.621,-20.618,-20.615,-20.61,-20.628,-20.621,-20.611,-20.614,-20.625,-20.628,-20.631,-20.617,-20.633,-20.624,-20.647,-20.644,-20.635,-20.626,-20.638,-20.653,-20.657,-20.654,-20.65,-20.651,-20.65,-20.647,-20.633,-20.614,-20.623,-20.629,-20.631,-20.596,-20.56,-20.543,-20.55,-20.549,-20.57,-20.572,-20.592,-20.607,-20.612,-20.61,-20.627,-20.672,-20.693,-20.697,-20.686,-20.672,-20.676,-20.684,-20.679,-20.68,-20.682,-20.687,-20.689,-20.695,-20.693,-20.7,-20.697,-20.704,-20.722,-20.706,-20.684,-20.682,-20.717,-20.781,-20.819,-20.787,-20.652,-20.444,-20.166,-19.858,-19.483,-19.349,-19.555,-19.789,-20.197,-20.636,-20.8,-20.817,-20.751,-20.696,-20.663,-20.666,-20.692,-20.689,-20.669,-20.651,-20.653,-20.662,-20.671,-20.666,-20.665,-20.652,-20.646,-20.659,-20.661,-20.662,-20.654,-20.625,-20.634,-20.627,-20.615,-20.6,-20.615,-20.606,-20.585,-20.571,-20.567,-20.577,-20.562,-20.547,-20.526,-20.526,-20.521,-20.521,-20.497,-20.481,-20.474,-20.475,-20.465,-20.444,-20.424,-20.391,-20.364,-20.369,-20.366,-20.339,-20.313,-20.287,-20.276,-20.279,-20.242,-20.231,-20.208,-20.223,-20.194,-20.212,-20.176,-20.143,-20.144,-20.157,-20.238,-20.259,-20.217,-20.242,-20.262,-20.31,-20.358,-20.375,-20.422,-20.462,-20.495,-20.508,-20.513,-20.529,-20.556,-20.565,-20.575,-20.558,-20.565,-20.578,-20.59,-20.585,-20.573,-20.576,-20.577,-20.593,-20.572,-20.56,-20.56,-20.561,-20.574,-20.569,-20.566,-20.564,-20.559,-20.558,-20.57,-20.563,-20.554,-20.553,-20.568,-20.568,-20.567,-20.557,-20.567,-20.576,-20.578,-20.579,-20.574,-20.576,-20.587,-20.587,-20.589,-20.58,-20.587,-20.591,-20.596,-20.596,-20.59,-20.589,-20.597,-20.6,-20.601,-20.592,-20.595,-20.607,-20.617,-20.616,-20.606,-20.61,-20.619,-20.625,-20.629,-20.623,-20.612,-20.613,-20.625,-20.624,-20.613,-20.608,-20.609,-20.602,-20.599,-20.559,-20.522,-20.525,-20.56,-20.584,-20.581,-20.576,-20.581,-20.606,-20.609,-20.619,-20.63,-20.647,-20.667,-20.672,-20.668,-20.656,-20.667,-20.675,-20.676,-20.675,-20.664,-20.669,-20.676,-20.674,-20.677,-20.661,-20.66,-20.661,-20.668,-20.671,-20.666,-20.666,-20.696,-20.758,-20.758,-20.65,-20.553,-20.196,-19.881,-19.508,-19.297,-19.366,-19.771,-20.243,-20.64,-20.775,-20.723,-20.687,-20.634,-20.617,-20.56,-20.577,-20.564,-20.599,-20.572,-20.587,-20.555,-20.576,-20.561,-20.587,-20.563,-20.567,-20.552,-20.572,-20.551,-20.558,-20.533,-20.548,-20.539,-20.553,-20.532,-20.533,-20.52,-20.525,-20.523,-20.519,-20.502,-20.502,-20.494,-20.502,-20.49,-20.474,-20.453,-20.451,-20.45,-20.438,-20.422,-20.409,-20.403,-20.396,-20.384,-20.369,-20.349,-20.337,-20.332,-20.317,-20.293,-20.273,-20.264,-20.256,-20.245,-20.218,-20.209,-20.19,-20.189,-20.176,-20.171,-20.159,-20.166,-20.165,-20.19,-20.199,-20.219,-20.238,-20.271,-20.305,-20.342,-20.356,-20.397,-20.431,-20.471,-20.483,-20.497,-20.503,-20.525,-20.539,-20.542,-20.537,-20.541,-20.537,-20.556,-20.553,-20.548,-20.537,-20.543,-20.544,-20.547,-20.533,-20.534,-20.528,-20.541,-20.533,-20.528,-20.524,-20.527,-20.526,-20.532,-20.526,-20.527,-20.53,-20.54,-20.537,-20.54,-20.524,-20.531,-20.529,-20.538,-20.537,-20.534,-20.538,-20.547,-20.555,-20.556,-20.55,-20.551,-20.555,-20.566,-20.567,-20.564,-20.563,-20.569,-20.577,-20.58,-20.571,-20.57,-20.572,-20.582,-20.578,-20.574,-20.575,-20.579,-20.588,-20.584,-20.568,-20.565,-20.573,-20.573,-20.569,-20.562,-20.542,-20.533,-20.534,-20.507,-20.477,-20.464,-20.493,-20.52,-20.532,-20.523,-20.516,-20.53,-20.546,-20.563,-20.585,-20.592,-20.609,-20.619,-20.624,-20.62,-20.608,-20.606,-20.613,-20.614,-20.619,-20.61,-20.614,-20.617,-20.627,-20.623,-20.617,-20.617,-20.626,-20.629,-20.628,-20.62,-20.621,-20.633,-20.66,-20.716,-20.736,-20.633,-20.447,-20.194,-19.885,-19.515,-19.289,-19.303,-19.702,-20.14,-20.569,-20.728,-20.7,-20.667,-20.606,-20.564,-20.531,-20.556,-20.558,-20.573,-20.555,-20.554,-20.547,-20.557,-20.559,-20.56,-20.548,-20.543,-20.542,-20.553,-20.536,-20.525,-20.516,-20.527,-20.524,-20.525,-20.511,-20.51,-20.509,-20.515,-20.505,-20.495,-20.486,-20.483,-20.489,-20.48,-20.464,-20.456,-20.449,-20.456,-20.447,-20.43,-20.417,-20.396,-20.402,-20.381,-20.363,-20.349,-20.338,-20.333,-20.322,-20.303,-20.285,-20.262,-20.263,-20.245,-20.23,-20.211,-20.201,-20.193,-20.186,-20.173,-20.152,-20.159,-20.17,-20.183,-20.194,-20.187,-20.212,-20.239,-20.282,-20.306,-20.344,-20.344,-20.383,-20.431,-20.449,-20.475,-20.481,-20.487,-20.507,-20.525,-20.522,-20.552,-20.521,-20.54,-20.568,-20.516,-20.53,-20.518,-20.476,-20.563,-20.542,-20.524,-20.548,-20.509,-20.526,-20.505,-20.533,-20.562,-20.513,-20.532,-20.551,-20.541,-20.538,-20.569,-20.558,-20.539,-20.521,-20.53,-20.544,-20.551,-20.536,-20.529,-20.541,-20.545,-20.569,-20.544,-20.531,-20.575,-20.556,-20.555,-20.543,-20.527,-20.578,-20.562,-20.586,-20.572,-20.555,-20.572,-20.565,-20.582,-20.565,-20.578,-20.595,-20.571,-20.558,-20.538,-20.586,-20.553,-20.558,-20.573,-20.57,-20.546,-20.536,-20.561,-20.55,-20.528,-20.513,-20.506,-20.52,-20.518,-20.499,-20.471,-20.44,-20.427,-20.439,-20.426,-20.444,-20.488,-20.466,-20.429,-20.471,-20.502,-20.511,-20.546,-20.531,-20.534,-20.529,-20.538,-20.613,-20.553,-20.547,-20.576,-20.549,-20.557,-20.557,-20.548,-20.545,-20.555,-20.547,-20.584,-20.57,-20.559,-20.554,-20.46,-20.593,-20.62,-20.623,-20.686,-20.557,-20.384,-20.181,-19.937,-19.578,-19.272,-19.205,-19.617,-20.031,-20.413,-20.618,-20.661,-20.519,-20.51,-20.474,-20.465,-20.513,-20.496,-20.484,-20.472,-20.521,-20.486,-20.485,-20.505,-20.496,-20.472,-20.47,-20.502,-20.486,-20.438,-20.441,-20.488,-20.479,-20.425,-20.462,-20.439,-20.432,-20.447,-20.447,-20.434,-20.434,-20.418,-20.421,-20.417,-20.418,-20.382,-20.375,-20.35,-20.366,-20.367,-20.339,-20.335,-20.315,-20.32,-20.302,-20.274,-20.249,-20.244,-20.236,-20.244,-20.206,-20.182,-20.174,-20.161,-20.149,-20.141,-20.116,-20.098,-20.098,-20.09,-20.073,-20.059,-20.07,-20.074,-20.086,-20.094,-20.09,-20.104,-20.134,-20.184,-20.214,-20.24,-20.279,-20.301,-20.351,-20.38,-20.4,-20.425,-20.441,-20.466,-20.467,-20.475,-20.463,-20.486,-20.495,-20.498,-20.493,-20.485,-20.491,-20.492,-20.493,-20.494,-20.485,-20.487,-20.495,-20.494,-20.489,-20.484,-20.484,-20.488,-20.495,-20.49,-20.488,-20.496,-20.505,-20.508,-20.508,-20.502,-20.508,-20.509,-20.52,-20.52,-20.511,-20.514,-20.525,-20.538,-20.539,-20.528,-20.529,-20.53,-20.549,-20.548,-20.54,-20.545,-20.555,-20.556,-20.557,-20.552,-20.544,-20.549,-20.556,-20.555,-20.553,-20.546,-20.552,-20.556,-20.552,-20.545,-20.541,-20.53,-20.538,-20.531,-20.514,-20.501,-20.481,-20.453,-20.445,-20.452,-20.463,-20.488,-20.499,-20.507,-20.515,-20.515,-20.516,-20.539,-20.569,-20.589,-20.588,-20.59,-20.601,-20.603,-20.6,-20.591,-20.598,-20.608,-20.617,-20.618,-20.612,-20.608,-20.613,-20.624,-20.62,-20.616,-20.613,-20.607,-20.618,-20.616,-20.626,-20.684,-20.705,-20.626,-20.445,-20.196,-19.9,-19.543,-19.389,-19.323,-19.498,-19.947,-20.365,-20.715,-20.738,-20.7,-20.614,-20.56,-20.545,-20.551,-20.563,-20.548,-20.553,-20.553,-20.565,-20.551,-20.547,-20.534,-20.546,-20.553,-20.548,-20.529,-20.53,-20.526,-20.539,-20.536,-20.525,-20.515,-20.519,-20.517,-20.506,-20.495,-20.494,-20.499,-20.5,-20.491,-20.481,-20.47,-20.46,-20.466,-20.461,-20.448,-20.442,-20.431,-20.426,-20.418,-20.404,-20.387,-20.379,-20.375,-20.364,-20.346,-20.325,-20.301,-20.302,-20.289,-20.269,-20.256,-20.249,-20.242,-20.234,-20.214,-20.192,-20.188,-20.183,-20.183,-20.183,-20.177,-20.186,-20.21,-20.233,-20.26,-20.279,-20.313,-20.346,-20.381,-20.414,-20.438,-20.459,-20.484,-20.506,-20.529,-20.537,-20.548,-20.563,-20.577,-20.574,-20.567,-20.569,-20.576,-20.586,-20.578,-20.572,-20.57,-20.566,-20.577,-20.58,-20.568,-20.559,-20.562,-20.567,-20.568,-20.557,-20.546,-20.557,-20.568,-20.569,-20.568,-20.556,-20.559,-20.565,-20.572,-20.565,-20.558,-20.565,-20.569,-20.581,-20.579,-20.574,-20.574,-20.575,-20.589,-20.586,-20.582,-20.584,-20.593,-20.588,-20.578,-20.57,-20.564,-20.566,-20.568,-20.559,-20.533,-20.504,-20.483,-20.487,-20.494,-20.498,-20.51,-20.523,-20.542,-20.552,-20.559,-20.575,-20.605,-20.626,-20.629,-20.628,-20.628,-20.63,-20.639,-20.636,-20.627,-20.622,-20.636,-20.649,-20.642,-20.638,-20.63,-20.632,-20.637,-20.64,-20.644,-20.634,-20.637,-20.648,-20.647,-20.647,-20.664,-20.726,-20.756,-20.673,-20.477,-20.205,-19.888,-19.542,-19.415,-19.342,-19.543,-19.988,-20.4,-20.762,-20.764,-20.734,-20.667,-20.621,-20.589,-20.578,-20.587,-20.579,-20.585,-20.599,-20.594,-20.585,-20.58,-20.576,-20.582,-20.582,-20.583,-20.566,-20.565,-20.564,-20.572,-20.562,-20.554,-20.547,-20.557,-20.556,-20.545,-20.528,-20.533,-20.535,-20.535,-20.518,-20.505,-20.499,-20.503,-20.508,-20.503,-20.488,-20.476,-20.463,-20.471,-20.452,-20.438,-20.423,-20.415,-20.412,-20.399,-20.379,-20.362,-20.35,-20.349,-20.33,-20.308,-20.293,-20.284,-20.282,-20.276,-20.26,-20.245,-20.242,-20.244,-20.245,-20.237,-20.236,-20.25,-20.277,-20.298,-20.323,-20.345,-20.382,-20.423,-20.457,-20.48,-20.498,-20.513,-20.54,-20.567,-20.578,-20.576,-20.59,-20.6,-20.611,-20.613,-20.608,-20.613,-20.618,-20.626,-20.617,-20.604,-20.604,-20.612,-20.622,-20.619,-20.6,-20.599,-20.604,-20.613,-20.609,-20.598,-20.599,-20.604,-20.616,-20.615,-20.606,-20.595,-20.601,-20.606,-20.612,-20.604,-20.601,-20.604,-20.621,-20.623,-20.618,-20.613,-20.619,-20.622,-20.632,-20.633,-20.62,-20.623,-20.632,-20.638,-20.643,-20.628,-20.632,-20.64,-20.646,-20.639,-20.62,-20.621,-20.625,-20.619,-20.609,-20.603,-20.595,-20.572,-20.553,-20.539,-20.537,-20.55,-20.58,-20.596,-20.603,-20.603,-20.607,-20.629,-20.65,-20.672,-20.669,-20.672,-20.679,-20.691,-20.689,-20.687,-20.678,-20.68,-20.688,-20.695,-20.698,-20.683,-20.687,-20.695,-20.697,-20.692,-20.682,-20.688,-20.696,-20.701,-20.734,-20.784,-20.784,-20.683,-20.484,-20.367,-20.105,-19.777,-19.433,-19.357,-19.655,-20.087,-20.498,-20.784,-20.816,-20.735,-20.68,-20.624,-20.63,-20.638,-20.647,-20.637,-20.644,-20.633,-20.65,-20.636,-20.639,-20.625,-20.632,-20.634,-20.633,-20.618,-20.614,-20.607,-20.62,-20.613,-20.609,-20.594,-20.593,-20.598,-20.596,-20.583,-20.578,-20.572,-20.577,-20.573,-20.566,-20.55,-20.544,-20.54,-20.538,-20.525,-20.506,-20.499,-20.498,-20.495,-20.479,-20.458,-20.45,-20.442,-20.432,-20.416,-20.391,-20.38,-20.373,-20.37,-20.354,-20.334,-20.313,-20.305,-20.305,-20.291,-20.274,-20.269,-20.264,-20.277,-20.275,-20.276,-20.286,-20.307,-20.345,-20.372,-20.392,-20.424,-20.438,-20.476,-20.516,-20.539,-20.555,-20.581,-20.601,-20.622,-20.628,-20.631,-20.64,-20.655,-20.659,-20.655,-20.643,-20.654,-20.661,-20.667,-20.661,-20.653,-20.652,-20.653,-20.662,-20.66,-20.644,-20.644,-20.647,-20.656,-20.652,-20.639,-20.64,-20.643,-20.651,-20.654,-20.64,-20.643,-20.641,-20.649,-20.651,-20.641,-20.637,-20.646,-20.652,-20.657,-20.653,-20.652,-20.662,-20.669,-20.672,-20.667,-20.659,-20.664,-20.67,-20.673,-20.673,-20.666,-20.669,-20.682,-20.685,-20.68,-20.671,-20.676,-20.679,-20.683,-20.683,-20.673,-20.68,-20.685,-20.689,-20.694,-20.684,-20.684,-20.69,-20.694,-20.692,-20.683,-20.684,-20.689,-20.69,-20.696,-20.691,-20.684,-20.686,-20.698,-20.695,-20.692,-20.689,-20.689,-20.698,-20.696,-20.692,-20.682,-20.688,-20.693,-20.686,-20.677,-20.676,-20.674,-20.678,-20.666,-20.658,-20.639,-20.629,-20.611,-20.592
