-11.523,-11.55,-11.536,-11.539,-11.526,-11.511,-11.51,-11.529,-11.519,-11.519,-11.511,-11.542,-11.555,-11.525,-11.512,-11.498,-11.531,-11.54,-11.527,-11.53,-11.536,-11.546,-11.531,-11.53,-11.543,-11.533,-11.518,-11.529,-11.536,-11.521,-11.518,-11.517,-11.562,-11.551,-11.525,-11.523,-11.525,-11.547,-11.536,-11.504,-11.533,-11.551,-11.569,-11.543,-11.534,-11.538,-11.528,-11.521,-11.527,-11.528,-11.519,-11.54,-11.551,-11.557,-11.542,-11.531,-11.539,-11.541,-11.534,-11.547,-11.537,-11.53,-11.518,-11.536,-11.554,-11.518,-11.483,-11.503,-11.528,-11.529,-11.488,-11.487,-11.52,-11.485,-11.458,-11.384,-11.406,-11.449,-11.469,-11.493,-11.475,-11.479,-11.495,-11.52,-11.52,-11.557,-11.529,-11.564,-11.573,-11.567,-11.581,-11.568,-11.564,-11.554,-11.562,-11.561,-11.553,-11.557,-11.554,-11.418,-11.189,-10.989,-10.786,-10.609,-10.534,-10.521,-11.016,-11.689,-12.345,-12.272,-11.932,-11.798,-11.641,-11.542,-11.482,-11.509,-11.455,-11.474,-11.445,-11.482,-11.465,-11.46,-11.423,-11.418,-11.408,-11.434,-11.418,-11.419,-11.408,-11.445,-11.382,-11.375,-11.376,-11.371,-11.36,-11.356,-11.344,-11.307,-11.307,-11.291,-11.304,-11.279,-11.254,-11.26,-11.245,-11.248,-11.23,-11.226,-11.198,-11.202,-11.169,-11.132,-11.119,-11.088,-11.065,-11.049,-11.041,-11.039,-11.005,-10.997,-10.998,-10.964,-10.964,-10.964,-10.971,-10.96,-10.96,-10.963,-10.966,-10.956,-11.013,-11.024,-11.047,-11.068,-11.126,-11.193,-11.244,-11.289,-11.308,-11.353,-11.411,-11.436,-11.458,-11.46,-11.467,-11.515,-11.54,-11.514,-11.509,-11.499,-11.519,-11.539,-11.533,-11.51,-11.505,-11.529,-11.531,-11.53,-11.509,-11.502,-11.506,-11.489,-11.489,-11.488,-11.496,-11.527,-11.512,-11.496,-11.485,-11.475,-11.484,-11.502,-11.513,-11.496,-11.493,-11.48,-11.5,-11.516,-11.5,-11.502,-11.535,-11.523,-11.545,-11.527,-11.523,-11.503,-11.521,-11.546,-11.552,-11.538,-11.547,-11.532,-11.528,-11.524,-11.519,-11.535,-11.546,-11.557,-11.589,-11.55,-11.543,-11.544,-11.539,-11.543,-11.546,-11.557,-11.551,-11.544,-11.576,-11.579,-11.557,-11.557,-11.538,-11.537,-11.546,-11.532,-11.537,-11.559,-11.524,-11.505,-11.52,-11.525,-11.501,-11.482,-11.457,-11.443,-11.441,-11.454,-11.491,-11.518,-11.526,-11.523,-11.521,-11.531,-11.552,-11.572,-11.578,-11.598,-11.588,-11.574,-11.558,-11.6,-11.606,-11.602,-11.603,-11.581,-11.567,-11.576,-11.569,-11.515,-11.347,-11.108,-10.891,-10.733,-10.583,-10.588,-11.104,-11.774,-12.372,-12.214,-11.957,-11.829,-11.671,-11.574,-11.536,-11.553,-11.501,-11.526,-11.493,-11.508,-11.488,-11.466,-11.439,-11.473,-11.47,-11.474,-11.453,-11.45,-11.416,-11.421,-11.415,-11.421,-11.398,-11.413,-11.41,-11.395,-11.375,-11.353,-11.331,-11.349,-11.338,-11.305,-11.259,-11.266,-11.267,-11.244,-11.216,-11.184,-11.171,-11.188,-11.139,-11.11,-11.079,-11.058,-11.062,-11.046,-10.993,-10.959,-10.928,-10.919,-10.908,-10.911,-10.892,-10.882,-10.897,-10.891,-10.871,-10.868,-10.895,-10.949,-10.985,-11.017,-11.043,-11.095,-11.138,-11.182,-11.225,-11.244,-11.288,-11.335,-11.371,-11.378,-11.403,-11.412,-11.449,-11.445,-11.465,-11.467,-11.479,-11.487,-11.502,-11.495,-11.482,-11.478,-11.475,-11.467,-11.481,-11.48,-11.457,-11.474,-11.471,-11.472,-11.477,-11.433,-11.458,-11.437,-11.479,-11.467,-11.437,-11.463,-11.443,-11.457,-11.458,-11.432,-11.423,-11.415,-11.445,-11.437,-11.448,-11.429,-11.421,-11.442,-11.452,-11.445,-11.445,-11.458,-11.465,-11.468,-11.46,-11.471,-11.444,-11.463,-11.48,-11.461,-11.436,-11.451,-11.463,-11.482,-11.473,-11.482,-11.444,-11.477,-11.513,-11.504,-11.483,-11.472,-11.469,-11.495,-11.509,-11.49,-11.508,-11.5,-11.5,-11.492,-11.486,-11.498,-11.497,-11.51,-11.52,-11.526,-11.501,-11.498,-11.525,-11.518,-11.524,-11.502,-11.513,-11.513,-11.518,-11.498,-11.484,-11.489,-11.503,-11.513,-11.499,-11.43,-11.412,-11.419,-11.441,-11.458,-11.426,-11.42,-11.459,-11.503,-11.489,-11.501,-11.534,-11.527,-11.566,-11.568,-11.566,-11.557,-11.557,-11.581,-11.583,-11.553,-11.547,-11.575,-11.58,-11.564,-11.564,-11.516,-11.442,-11.259,-11.036,-10.854,-10.634,-10.418,-10.479,-11.151,-11.913,-12.316,-12.087,-11.958,-11.844,-11.666,-11.51,-11.454,-11.459,-11.463,-11.478,-11.433,-11.43,-11.415,-11.444,-11.438,-11.435,-11.415,-11.424,-11.393,-11.376,-11.351,-11.376,-11.368,-11.386,-11.347,-11.36,-11.345,-11.318,-11.335,-11.331,-11.296,-11.312,-11.28,-11.285,-11.292,-11.25,-11.231,-11.189,-11.189,-11.193,-11.146,-11.115,-11.109,-11.115,-11.128,-11.069,-11.042,-11.014,-10.978,-11,-10.974,-10.945,-10.893,-10.891,-10.879,-10.878,-10.852,-10.858,-10.861,-10.888,-10.896,-10.871,-10.883,-10.947,-10.995,-11.043,-11.119,-11.139,-11.207,-11.265,-11.294,-11.316,-11.347,-11.399,-11.432,-11.453,-11.441,-11.433,-11.464,-11.498,-11.513,-11.479,-11.487,-11.48,-11.463,-11.5,-11.512,-11.477,-11.489,-11.472,-11.473,-11.466,-11.468,-11.445,-11.474,-11.468,-11.47,-11.441,-11.427,-11.441,-11.469,-11.464,-11.466,-11.463,-11.447,-11.464,-11.473,-11.45,-11.446,-11.451,-11.461,-11.465,-11.45,-11.454,-11.487,-11.487,-11.491,-11.473,-11.478,-11.478,-11.491,-11.502,-11.516,-11.507,-11.507,-11.501,-11.499,-11.502,-11.474,-11.497,-11.528,-11.531,-11.52,-11.499,-11.509,-11.51,-11.516,-11.506,-11.491,-11.488,-11.535,-11.516,-11.5,-11.528,-11.493,-11.501,-11.516,-11.501,-11.484,-11.492,-11.503,-11.527,-11.519,-11.501,-11.483,-11.489,-11.513,-11.511,-11.515,-11.496,-11.483,-11.509,-11.511,-11.503,-11.489,-11.489,-11.492,-11.52,-11.508,-11.485,-11.484,-11.494,-11.509,-11.505,-11.48,-11.478,-11.491,-11.516,-11.509,-11.476,-11.46,-11.488,-11.493,-11.519,-11.504,-11.461,-11.43,-11.45,-11.476,-11.468,-11.443,-11.431,-11.403,-11.388,-11.34,-11.363,-11.355,-11.392,-11.44,-11.422,-11.412,-11.415,-11.431,-11.474,-11.492,-11.471,-11.466,-11.463,-11.499,-11.494,-11.492,-11.474,-11.463,-11.494,-11.503,-11.49,-11.497,-11.47,-11.388,-11.17,-10.968,-10.783,-10.671,-10.554,-10.277,-10.637,-11.365,-12.054,-12.153,-11.895,-11.747,-11.561,-11.443,-11.444,-11.432,-11.384,-11.389,-11.362,-11.413,-11.376,-11.382,-11.352,-11.351,-11.317,-11.348,-11.301,-11.317,-11.322,-11.319,-11.318,-11.304,-11.301,-11.282,-11.265,-11.281,-11.265,-11.237,-11.226,-11.214,-11.247,-11.215,-11.143,-11.129,-11.146,-11.151,-11.144,-11.117,-11.089,-11.073,-11.083,-11.056,-11.014,-10.98,-10.983,-10.96,-10.935,-10.91,-10.883,-10.861,-10.84,-10.852,-10.835,-10.83,-10.818,-10.817,-10.813,-10.821,-10.81,-10.82,-10.835,-10.852,-10.894,-10.943,-11.004,-11.019,-11.095,-11.159,-11.183,-11.195,-11.231,-11.292,-11.327,-11.335,-11.353,-11.364,-11.394,-11.397,-11.4,-11.402,-11.39,-11.4,-11.422,-11.412,-11.406,-11.385,-11.406,-11.408,-11.397,-11.362,-11.358,-11.398,-11.393,-11.381,-11.379,-11.365,-11.388,-11.403,-11.404,-11.373,-11.368,-11.38,-11.396,-11.406,-11.404,-11.383,-11.375,-11.367,-11.368,-11.406,-11.425,-11.418,-11.427,-11.42,-11.422,-11.394,-11.41,-11.436,-11.452,-11.421,-11.411,-11.421,-11.412,-11.44,-11.439,-11.448,-11.46,-11.452,-11.42,-11.441,-11.451,-11.453,-11.46,-11.45,-11.447,-11.442,-11.439,-11.46,-11.453,-11.45,-11.455,-11.429,-11.476,-11.482,-11.462,-11.473,-11.453,-11.46,-11.455,-11.469,-11.434,-11.43,-11.444,-11.452,-11.46,-11.462,-11.437,-11.456,-11.452,-11.447,-11.478,-11.463,-11.46,-11.493,-11.484,-11.447,-11.442,-11.451,-11.468,-11.458,-11.457,-11.447,-11.462,-11.456,-11.475,-11.48,-11.437,-11.462,-11.476,-11.486,-11.486,-11.464,-11.456,-11.438,-11.436,-11.435,-11.404,-11.432,-11.428,-11.396,-11.357,-11.292,-11.31,-11.345,-11.375,-11.379,-11.395,-11.419,-11.42,-11.45,-11.451,-11.453,-11.443,-11.474,-11.473,-11.477,-11.475,-11.478,-11.478,-11.489,-11.488,-11.458,-11.458,-11.483,-11.463,-11.42,-11.241,-11.005,-10.817,-10.645,-10.465,-10.388,-10.817,-11.48,-12.176,-12.175,-11.883,-11.705,-11.569,-11.457,-11.407,-11.434,-11.363,-11.365,-11.347,-11.363,-11.351,-11.357,-11.337,-11.325,-11.328,-11.378,-11.333,-11.296,-11.269,-11.297,-11.307,-11.315,-11.287,-11.256,-11.252,-11.269,-11.267,-11.234,-11.199,-11.191,-11.203,-11.21,-11.175,-11.164,-11.152,-11.146,-11.137,-11.113,-11.073,-11.072,-11.061,-11.03,-11.02,-10.985,-10.972,-10.952,-10.945,-10.929,-10.882,-10.873,-10.876,-10.886,-10.88,-10.842,-10.83,-10.848,-10.859,-10.838,-10.848,-10.839,-10.849,-10.91,-10.949,-10.969,-11.016,-11.053,-11.081,-11.125,-11.187,-11.229,-11.255,-11.295,-11.328,-11.358,-11.38,-11.378,-11.403,-11.386,-11.385,-11.407,-11.419,-11.426,-11.426,-11.384,-11.395,-11.396,-11.399,-11.395,-11.412,-11.376,-11.385,-11.391,-11.405,-11.388,-11.381,-11.387,-11.354,-11.368,-11.381,-11.377,-11.363,-11.385,-11.375,-11.39,-11.396,-11.358,-11.364,-11.383,-11.389,-11.392,-11.381,-11.405,-11.442,-11.412,-11.391,-11.383,-11.429,-11.431,-11.42,-11.411,-11.434,-11.424,-11.428,-11.447,-11.424,-11.396,-11.402,-11.434,-11.455,-11.445,-11.42,-11.418,-11.412,-11.43,-11.449,-11.43,-11.445,-11.436,-11.421,-11.425,-11.426,-11.436,-11.426,-11.44,-11.428,-11.426,-11.44,-11.456,-11.428,-11.411,-11.415,-11.436,-11.434,-11.413,-11.409,-11.382,-11.389,-11.383,-11.405,-11.369,-11.345,-11.303,-11.309,-11.319,-11.332,-11.365,-11.365,-11.376,-11.394,-11.38,-11.392,-11.42,-11.427,-11.45,-11.439,-11.425,-11.428,-11.467,-11.45,-11.436,-11.431,-11.426,-11.456,-11.498,-11.465,-11.398,-11.342,-11.157,-10.959,-10.794,-10.599,-10.453,-10.466,-10.99,-11.705,-12.244,-12.059,-11.774,-11.656,-11.552,-11.442,-11.375,-11.371,-11.344,-11.377,-11.359,-11.346,-11.32,-11.341,-11.334,-11.336,-11.335,-11.317,-11.274,-11.273,-11.286,-11.29,-11.279,-11.271,-11.25,-11.232,-11.236,-11.226,-11.201,-11.202,-11.195,-11.194,-11.171,-11.146,-11.153,-11.127,-11.096,-11.086,-11.082,-11.08,-11.054,-11.03,-10.974,-10.964,-10.947,-10.947,-10.931,-10.898,-10.875,-10.856,-10.843,-10.823,-10.807,-10.773,-10.763,-10.785,-10.799,-10.773,-10.759,-10.758,-10.777,-10.847,-10.864,-10.865,-10.924,-10.966,-11.031,-11.102,-11.153,-11.147,-11.192,-11.218,-11.255,-11.3,-11.308,-11.324,-11.362,-11.36,-11.357,-11.365,-11.373,-11.393,-11.409,-11.386,-11.354,-11.349,-11.332,-11.352,-11.355,-11.351,-11.356,-11.351,-11.358,-11.357,-11.324,-11.331,-11.346,-11.358,-11.344,-11.326,-11.324,-11.355,-11.38,-11.335,-11.297,-11.301,-11.331,-11.36,-11.359,-11.334,-11.358,-11.363,-11.377,-11.373,-11.361,-11.356,-11.369,-11.402,-11.397,-11.402,-11.4,-11.369,-11.374,-11.391,-11.393,-11.388,-11.424,-11.413,-11.392,-11.403,-11.421,-11.414,-11.381,-11.378,-11.41,-11.399,-11.427,-11.419,-11.389,-11.403,-11.404,-11.401,-11.402,-11.431,-11.414,-11.408,-11.386,-11.396,-11.405,-11.416,-11.401,-11.394,-11.374,-11.357,-11.383,-11.385,-11.38,-11.371,-11.348,-11.307,-11.259,-11.294,-11.294,-11.333,-11.348,-11.339,-11.332,-11.352,-11.392,-11.404,-11.417,-11.405,-11.433,-11.45,-11.442,-11.424,-11.404,-11.44,-11.456,-11.452,-11.449,-11.418,-11.43,-11.436,-11.458,-11.346,-11.109,-10.894,-10.724,-10.528,-10.322,-10.264,-10.615,-11.32,-12.055,-12.153,-11.879,-11.717,-11.586,-11.422,-11.371,-11.339,-11.314,-11.351,-11.362,-11.343,-11.311,-11.31,-11.3,-11.303,-11.277,-11.285,-11.292,-11.279,-11.265,-11.293,-11.289,-11.272,-11.253,-11.248,-11.229,-11.233,-11.214,-11.199,-11.198,-11.202,-11.178,-11.175,-11.148,-11.138,-11.103,-11.098,-11.089,-11.077,-11.067,-11.062,-11.022,-10.992,-10.964,-10.944,-10.948,-10.932,-10.894,-10.858,-10.834,-10.808,-10.818,-10.826,-10.787,-10.765,-10.791,-10.786,-10.779,-10.746,-10.739,-10.801,-10.832,-10.852,-10.904,-10.939,-10.992,-11.051,-11.13,-11.171,-11.195,-11.254,-11.272,-11.275,-11.297,-11.324,-11.371,-11.376,-11.374,-11.371,-11.386,-11.389,-11.404,-11.386,-11.361,-11.365,-11.394,-11.408,-11.39,-11.384,-11.373,-11.346,-11.371,-11.364,-11.354,-11.368,-11.358,-11.358,-11.365,-11.379,-11.355,-11.363,-11.358,-11.349,-11.357,-11.344,-11.36,-11.392,-11.395,-11.379,-11.336,-11.36,-11.387,-11.402,-11.393,-11.375,-11.401,-11.405,-11.417,-11.408,-11.391,-11.372,-11.401,-11.434,-11.413,-11.4,-11.394,-11.424,-11.439,-11.4,-11.406,-11.435,-11.44,-11.428,-11.434,-11.409,-11.395,-11.414,-11.452,-11.446,-11.406,-11.404,-11.426,-11.437,-11.429,-11.413,-11.409,-11.431,-11.436,-11.418,-11.422,-11.437,-11.437,-11.443,-11.446,-11.432,-11.42,-11.42,-11.421,-11.461,-11.448,-11.408,-11.396,-11.412,-11.451,-11.446,-11.427,-11.424,-11.418,-11.432,-11.4,-11.381,-11.376,-11.381,-11.409,-11.396,-11.367,-11.326,-11.275,-11.297,-11.333,-11.347,-11.329,-11.327,-11.339,-11.368,-11.395,-11.401,-11.412,-11.413,-11.438,-11.449,-11.422,-11.408,-11.453,-11.447,-11.456,-11.44,-11.438,-11.436,-11.442,-11.449,-11.385,-11.209,-11.038,-10.852,-10.644,-10.417,-10.209,-10.513,-11.266,-11.988,-12.132,-11.888,-11.753,-11.61,-11.498,-11.394,-11.371,-11.347,-11.343,-11.347,-11.338,-11.315,-11.31,-11.327,-11.33,-11.307,-11.271,-11.267,-11.283,-11.292,-11.281,-11.246,-11.238,-11.253,-11.267,-11.272,-11.247,-11.225,-11.204,-11.207,-11.199,-11.152,-11.153,-11.16,-11.15,-11.134,-11.095,-11.074,-11.072,-11.082,-11.064,-11.037,-11.004,-10.967,-10.955,-10.963,-10.921,-10.9,-10.873,-10.857,-10.852,-10.851,-10.828,-10.82,-10.776,-10.794,-10.78,-10.761,-10.768,-10.784,-10.803,-10.825,-10.809,-10.848,-10.885,-10.945,-10.997,-11.034,-11.083,-11.145,-11.188,-11.216,-11.26,-11.29,-11.307,-11.334,-11.364,-11.347,-11.34,-11.363,-11.391,-11.372,-11.34,-11.347,-11.36,-11.373,-11.377,-11.358,-11.331,-11.352,-11.373,-11.365,-11.374,-11.354,-11.349,-11.344,-11.348,-11.33,-11.326,-11.333,-11.363,-11.333,-11.324,-11.339,-11.333,-11.342,-11.354,-11.371,-11.369,-11.351,-11.367,-11.378,-11.38,-11.353,-11.345,-11.38,-11.389,-11.383,-11.391,-11.387,-11.378,-11.38,-11.392,-11.389,-11.391,-11.397,-11.408,-11.415,-11.413,-11.408,-11.402,-11.407,-11.402,-11.4,-11.396,-11.415,-11.399,-11.406,-11.401,-11.379,-11.41,-11.427,-11.432,-11.419,-11.416,-11.406,-11.399,-11.404,-11.414,-11.391,-11.396,-11.403,-11.413,-11.41,-11.405,-11.403,-11.419,-11.433,-11.423,-11.425,-11.403,-11.407,-11.411,-11.398,-11.391,-11.398,-11.408,-11.409,-11.412,-11.42,-11.39,-11.389,-11.392,-11.407,-11.414,-11.4,-11.381,-11.362,-11.367,-11.366,-11.364,-11.356,-11.322,-11.307,-11.281,-11.257,-11.266,-11.293,-11.33,-11.331,-11.315,-11.341,-11.358,-11.384,-11.415,-11.427,-11.41,-11.388,-11.409,-11.406,-11.401,-11.387,-11.421,-11.44,-11.433,-11.421,-11.413,-11.396,-11.363,-11.171,-10.949,-10.764,-10.575,-10.338,-10.176,-10.619,-11.348,-12.079,-12.085,-11.825,-11.661,-11.452,-11.339,-11.332,-11.365,-11.342,-11.32,-11.283,-11.286,-11.294,-11.302,-11.253,-11.272,-11.255,-11.28,-11.256,-11.266,-11.232,-11.224,-11.229,-11.235,-11.222,-11.202,-11.173,-11.2,-11.214,-11.201,-11.174,-11.123,-11.117,-11.149,-11.128,-11.085,-11.076,-11.076,-11.061,-11.039,-11.003,-11.01,-11.005,-10.987,-10.957,-10.929,-10.895,-10.898,-10.855,-10.831,-10.838,-10.823,-10.808,-10.801,-10.776,-10.76,-10.768,-10.739,-10.745,-10.759,-10.751,-10.764,-10.788,-10.802,-10.846,-10.895,-10.942,-10.969,-11.026,-11.064,-11.099,-11.154,-11.198,-11.242,-11.275,-11.279,-11.28,-11.305,-11.33,-11.339,-11.357,-11.344,-11.344,-11.334,-11.381,-11.361,-11.343,-11.343,-11.347,-11.34,-11.346,-11.334,-11.321,-11.318,-11.33,-11.327,-11.324,-11.311,-11.344,-11.332,-11.334,-11.325,-11.309,-11.309,-11.355,-11.341,-11.313,-11.314,-11.324,-11.332,-11.357,-11.337,-11.334,-11.358,-11.363,-11.367,-11.358,-11.358,-11.35,-11.347,-11.381,-11.376,-11.371,-11.383,-11.386,-11.39,-11.369,-11.366,-11.378,-11.376,-11.392,-11.419,-11.392,-11.388,-11.382,-11.397,-11.409,-11.39,-11.392,-11.396,-11.402,-11.4,-11.408,-11.425,-11.397,-11.402,-11.392,-11.402,-11.414,-11.397,-11.39,-11.405,-11.397,-11.4,-11.389,-11.419,-11.41,-11.413,-11.409,-11.393,-11.405,-11.425,-11.418,-11.387,-11.387,-11.415,-11.415,-11.403,-11.394,-11.409,-11.389,-11.363,-11.374,-11.367,-11.368,-11.367,-11.391,-11.354,-11.301,-11.25,-11.248,-11.287,-11.302,-11.328,-11.297,-11.315,-11.366,-11.355,-11.377,-11.382,-11.381,-11.395,-11.392,-11.402,-11.388,-11.389,-11.396,-11.422,-11.4,-11.386,-11.397,-11.404,-11.388,-11.325,-11.15,-10.938,-10.747,-10.668,-10.47,-10.312,-10.451,-11.077,-11.868,-12.203,-11.944,-11.697,-11.586,-11.442,-11.36,-11.312,-11.297,-11.277,-11.307,-11.273,-11.259,-11.238,-11.249,-11.246,-11.256,-11.27,-11.258,-11.252,-11.248,-11.223,-11.237,-11.203,-11.19,-11.185,-11.214,-11.19,-11.171,-11.137,-11.138,-11.137,-11.119,-11.084,-11.113,-11.094,-11.085,-11.068,-11.045,-11.01,-10.986,-11.011,-11.017,-10.98,-10.933,-10.919,-10.911,-10.895,-10.877,-10.847,-10.843,-10.821,-10.799,-10.785,-10.782,-10.778,-10.77,-10.776,-10.771,-10.746,-10.761,-10.787,-10.803,-10.838,-10.835,-10.874,-10.927,-10.991,-11.042,-11.077,-11.126,-11.158,-11.213,-11.239,-11.241,-11.238,-11.251,-11.321,-11.349,-11.333,-11.315,-11.302,-11.326,-11.349,-11.336,-11.326,-11.313,-11.335,-11.311,-11.309,-11.306,-11.317,-11.328,-11.302,-11.292,-11.281,-11.292,-11.312,-11.305,-11.289,-11.27,-11.289,-11.284,-11.303,-11.308,-11.318,-11.306,-11.327,-11.338,-11.348,-11.305,-11.323,-11.305,-11.337,-11.348,-11.341,-11.337,-11.33,-11.35,-11.355,-11.358,-11.356,-11.359,-11.36,-11.359,-11.369,-11.359,-11.346,-11.377,-11.381,-11.388,-11.357,-11.33,-11.368,-11.377,-11.379,-11.377,-11.364,-11.353,-11.382,-11.373,-11.365,-11.363,-11.369,-11.391,-11.366,-11.333,-11.317,-11.344,-11.375,-11.353,-11.329,-11.307,-11.269,-11.254,-11.236,-11.24,-11.266,-11.303,-11.293,-11.306,-11.284,-11.318,-11.324,-11.363,-11.379,-11.365,-11.361,-11.378,-11.39,-11.375,-11.392,-11.392,-11.378,-11.386,-11.394,-11.415,-11.395,-11.382,-11.371,-11.316,-11.16,-10.934,-10.738,-10.559,-10.403,-10.368,-10.853,-11.48,-12.143,-12.075,-11.777,-11.626,-11.493,-11.456,-11.362,-11.336,-11.279,-11.296,-11.281,-11.305,-11.303,-11.278,-11.254,-11.273,-11.259,-11.261,-11.24,-11.254,-11.226,-11.241,-11.206,-11.193,-11.202,-11.215,-11.19,-11.184,-11.176,-11.156,-11.143,-11.133,-11.122,-11.123,-11.11,-11.092,-11.066,-11.058,-11.054,-11.018,-11.007,-10.995,-10.977,-10.952,-10.895,-10.881,-10.876,-10.874,-10.857,-10.822,-10.809,-10.809,-10.818,-10.795,-10.74,-10.739,-10.742,-10.749,-10.754,-10.761,-10.738,-10.783,-10.853,-10.893,-10.902,-10.922,-10.99,-11.056,-11.107,-11.15,-11.174,-11.205,-11.256,-11.286,-11.306,-11.311,-11.302,-11.326,-11.359,-11.361,-11.34,-11.338,-11.357,-11.356,-11.363,-11.348,-11.334,-11.338,-11.366,-11.352,-11.334,-11.319,-11.337,-11.345,-11.341,-11.308,-11.325,-11.321,-11.329,-11.33,-11.329,-11.29,-11.309,-11.316,-11.345,-11.341,-11.315,-11.325,-11.347,-11.365,-11.354,-11.331,-11.351,-11.378,-11.389,-11.375,-11.352,-11.373,-11.373,-11.391,-11.378,-11.37,-11.382,-11.398,-11.392,-11.396,-11.412,-11.395,-11.389,-11.395,-11.407,-11.403,-11.389,-11.395,-11.413,-11.394,-11.381,-11.395,-11.402,-11.42,-11.43,-11.409,-11.352,-11.375,-11.408,-11.406,-11.419,-11.413,-11.401,-11.413,-11.425,-11.413,-11.408,-11.404,-11.4,-11.386,-11.386,-11.369,-11.358,-11.377,-11.377,-11.354,-11.306,-11.317,-11.279,-11.286,-11.317,-11.299,-11.328,-11.334,-11.342,-11.36,-11.364,-11.381,-11.38,-11.41,-11.424,-11.416,-11.41,-11.419,-11.447,-11.432,-11.416,-11.4,-11.409,-11.428,-11.466,-11.425,-11.383,-11.298,-11.083,-10.9,-10.713,-10.478,-10.282,-10.361,-11.012,-11.759,-12.19,-11.976,-11.744,-11.632,-11.436,-11.358,-11.35,-11.356,-11.347,-11.354,-11.32,-11.322,-11.307,-11.333,-11.305,-11.306,-11.287,-11.287,-11.297,-11.275,-11.255,-11.256,-11.266,-11.285,-11.25,-11.232,-11.222,-11.22,-11.181,-11.198,-11.215,-11.176,-11.168,-11.161,-11.143,-11.113,-11.089,-11.085,-11.099,-11.098,-11.048,-11.034,-11.007,-10.981,-10.957,-10.954,-10.911,-10.894,-10.877,-10.877,-10.852,-10.824,-10.803,-10.798,-10.815,-10.808,-10.795,-10.785,-10.762,-10.786,-10.806,-10.786,-10.828,-10.873,-10.947,-10.976,-11.006,-11.021,-11.079,-11.161,-11.239,-11.235,-11.263,-11.304,-11.345,-11.354,-11.372,-11.364,-11.367,-11.378,-11.381,-11.386,-11.383,-11.387,-11.385,-11.401,-11.397,-11.391,-11.379,-11.367,-11.368,-11.386,-11.376,-11.354,-11.352,-11.403,-11.389,-11.371,-11.345,-11.335,-11.358,-11.373,-11.365,-11.38,-11.377,-11.38,-11.378,-11.378,-11.38,-11.36,-11.378,-11.398,-11.382,-11.371,-11.386,-11.396,-11.43,-11.412,-11.383,-11.4,-11.434,-11.432,-11.445,-11.423,-11.401,-11.43,-11.448,-11.452,-11.435,-11.418,-11.401,-11.429,-11.433,-11.434,-11.433,-11.432,-11.451,-11.449,-11.44,-11.423,-11.413,-11.434,-11.462,-11.461,-11.425,-11.402,-11.423,-11.436,-11.446,-11.456,-11.446,-11.44,-11.434,-11.409,-11.44,-11.44,-11.452,-11.461,-11.443,-11.427,-11.433,-11.451,-11.449,-11.458,-11.443,-11.431,-11.436,-11.448,-11.426,-11.397,-11.387,-11.407,-11.417,-11.425,-11.405,-11.354,-11.327,-11.283,-11.339,-11.359,-11.336,-11.363,-11.402,-11.399,-11.413,-11.439,-11.441,-11.453,-11.459,-11.461,-11.455,-11.457,-11.467,-11.475,-11.454,-11.453,-11.446,-11.474,-11.503,-11.483,-11.42,-11.302,-11.121,-10.908,-10.723,-10.499,-10.369,-10.26,-10.782,-11.517,-12.131,-12.103,-11.844,-11.74,-11.539,-11.436,-11.395,-11.399,-11.359,-11.393,-11.375,-11.387,-11.353,-11.385,-11.377,-11.36,-11.33,-11.348,-11.316,-11.331,-11.314,-11.283,-11.299,-11.321,-11.291,-11.306,-11.277,-11.257,-11.263,-11.269,-11.236,-11.224,-11.213,-11.218,-11.202,-11.193,-11.178,-11.153,-11.133,-11.156,-11.112,-11.086,-11.063,-11.054,-11.053,-11.022,-10.972,-10.965,-10.946,-10.93,-10.954,-10.899,-10.856,-10.866,-10.866,-10.852,-10.834,-10.813,-10.813,-10.837,-10.86,-10.853,-10.857,-10.893,-10.954,-10.999,-11.061,-11.091,-11.132,-11.19,-11.244,-11.281,-11.305,-11.329,-11.363,-11.367,-11.377,-11.421,-11.427,-11.407,-11.427,-11.442,-11.447,-11.421,-11.416,-11.444,-11.416,-11.391,-11.411,-11.439,-11.437,-11.416,-11.418,-11.441,-11.399,-11.391,-11.415,-11.404,-11.405,-11.379,-11.432,-11.408,-11.394,-11.395,-11.388,-11.381,-11.414,-11.424,-11.411,-11.39,-11.437,-11.431,-11.429,-11.418,-11.432,-11.435,-11.447,-11.434,-11.438,-11.433,-11.444,-11.446,-11.448,-11.468,-11.469,-11.452,-11.454,-11.462,-11.484,-11.472,-11.449,-11.473,-11.476,-11.478,-11.464,-11.448,-11.459,-11.488,-11.472,-11.453,-11.471,-11.485,-11.49,-11.48,-11.497,-11.471,-11.465,-11.496,-11.474,-11.47,-11.471,-11.489,-11.485,-11.481,-11.469,-11.475,-11.486,-11.481,-11.492,-11.482,-11.487,-11.504,-11.513,-11.509,-11.492,-11.477,-11.459,-11.51,-11.501,-11.489,-11.483,-11.482,-11.491,-11.508,-11.506,-11.487,-11.478,-11.487,-11.454,-11.461,-11.461,-11.466,-11.474,-11.445,-11.414,-11.361,-11.352,-11.381,-11.401,-11.425,-11.422,-11.411,-11.419,-11.48,-11.482,-11.489,-11.484,-11.513,-11.523,-11.536,-11.53,-11.526,-11.523,-11.52,-11.516,-11.502,-11.504,-11.53,-11.528,-11.464,-11.243,-11.04,-10.87,-10.674,-10.449,-10.354,-10.526,-11.213,-11.997,-12.267,-11.99,-11.773,-11.688,-11.529,-11.521,-11.471,-11.453,-11.428,-11.418,-11.442,-11.451,-11.424,-11.417,-11.393,-11.41,-11.378,-11.364,-11.383,-11.403,-11.392,-11.384,-11.371,-11.354,-11.331,-11.352,-11.35,-11.329,-11.312,-11.305,-11.312,-11.291,-11.256,-11.252,-11.258,-11.235,-11.231,-11.218,-11.175,-11.173,-11.172,-11.171,-11.145,-11.112,-11.066,-11.07,-11.082,-11.06,-11.003,-10.978,-10.976,-10.977,-10.951,-10.941,-10.951,-10.911,-10.909,-10.924,-10.909,-10.903,-10.936,-10.979,-10.981,-11.005,-11.045,-11.106,-11.16,-11.169,-11.217,-11.265,-11.329,-11.393,-11.399,-11.415,-11.439,-11.456,-11.479,-11.481,-11.487,-11.489,-11.511,-11.494,-11.499,-11.518,-11.512,-11.492,-11.509,-11.525,-11.485,-11.473,-11.479,-11.461,-11.472,-11.483,-11.454,-11.456,-11.495,-11.507,-11.491,-11.471,-11.487,-11.479,-11.479,-11.48,-11.465,-11.488,-11.502,-11.503,-11.505,-11.497,-11.503,-11.492,-11.511,-11.5,-11.492,-11.525,-11.521,-11.517,-11.525,-11.518,-11.522,-11.522,-11.517,-11.542,-11.542,-11.526,-11.544,-11.55,-11.537,-11.556,-11.531,-11.512,-11.548,-11.57,-11.553,-11.527,-11.531,-11.531,-11.563,-11.549,-11.524,-11.551,-11.563,-11.556,-11.54,-11.529,-11.544,-11.558,-11.564,-11.558,-11.562,-11.541,-11.541,-11.556,-11.55,-11.538,-11.528,-11.522,-11.544,-11.571,-11.552,-11.537,-11.558,-11.552,-11.548,-11.572,-11.553,-11.55,-11.563,-11.553,-11.544,-11.549,-11.563,-11.566,-11.569,-11.56,-11.506,-11.522,-11.555,-11.554,-11.533,-11.506,-11.514,-11.524,-11.55,-11.53,-11.463,-11.436,-11.406,-11.442,-11.487,-11.442,-11.453,-11.478,-11.499,-11.532,-11.533,-11.545,-11.543,-11.571,-11.587,-11.569,-11.578,-11.578,-11.553,-11.571,-11.563,-11.539,-11.56,-11.578,-11.558,-11.537,-11.419,-11.2,-10.994,-10.834,-10.635,-10.528,-10.446,-10.961,-11.72,-12.37,-12.229,-11.93,-11.826,-11.646,-11.563,-11.484,-11.489,-11.473,-11.511,-11.468,-11.458,-11.434,-11.454,-11.427,-11.456,-11.42,-11.417,-11.409,-11.433,-11.409,-11.412,-11.372,-11.363,-11.377,-11.403,-11.377,-11.366,-11.335,-11.324,-11.291,-11.315,-11.315,-11.304,-11.295,-11.296,-11.258,-11.229,-11.238,-11.223,-11.219,-11.203,-11.171,-11.125,-11.114,-11.112,-11.08,-11.069,-11.062,-11.032,-11.011,-11.005,-10.992,-10.984,-10.968,-10.979,-10.97,-10.97,-10.943,-10.943,-10.959,-10.965,-10.991,-11.004,-11.039,-11.106,-11.14,-11.183,-11.208,-11.253,-11.301,-11.356,-11.396,-11.422,-11.446,-11.457,-11.49,-11.502,-11.494,-11.479,-11.501,-11.503,-11.515,-11.511,-11.505,-11.51,-11.518,-11.522,-11.499,-11.477,-11.486,-11.493,-11.491,-11.484,-11.459,-11.448,-11.463,-11.473,-11.483,-11.466,-11.473,-11.468,-11.496,-11.482,-11.465,-11.463,-11.476,-11.472,-11.503,-11.485,-11.486,-11.474,-11.497,-11.507,-11.524,-11.508,-11.497,-11.499,-11.518,-11.519,-11.538,-11.531,-11.531,-11.517,-11.517,-11.511,-11.534,-11.54,-11.538,-11.516,-11.508,-11.508,-11.541,-11.544,-11.531,-11.518,-11.514,-11.534,-11.538,-11.536,-11.511,-11.516,-11.52,-11.527,-11.53,-11.524,-11.507,-11.506,-11.52,-11.488,-11.468,-11.486,-11.507,-11.507,-11.479,-11.441,-11.403,-11.377,-11.383,-11.429,-11.43,-11.399,-11.428,-11.467,-11.48,-11.472,-11.479,-11.521,-11.539,-11.524,-11.509,-11.513,-11.515,-11.5,-11.512,-11.522,-11.53,-11.511,-11.51,-11.545,-11.516,-11.447,-11.336,-11.177,-10.988,-10.815,-10.61,-10.506,-10.741,-11.275,-12.065,-12.258,-11.971,-11.811,-11.676,-11.64,-11.511,-11.428,-11.445,-11.447,-11.424,-11.425,-11.394,-11.391,-11.403,-11.407,-11.372,-11.353,-11.348,-11.368,-11.363,-11.358,-11.33,-11.319,-11.335,-11.331,-11.308,-11.314,-11.303,-11.287,-11.291,-11.269,-11.261,-11.251,-11.231,-11.239,-11.21,-11.197,-11.166,-11.164,-11.151,-11.138,-11.09,-11.081,-11.064,-11.055,-11.046,-11.028,-11.004,-10.979,-10.969,-10.975,-10.932,-10.92,-10.919,-10.906,-10.889,-10.867,-10.876,-10.902,-10.915,-10.928,-10.932,-10.952,-11.017,-11.052,-11.102,-11.143,-11.205,-11.242,-11.286,-11.333,-11.357,-11.386,-11.401,-11.443,-11.479,-11.467,-11.433,-11.441,-11.445,-11.465,-11.477,-11.45,-11.462,-11.475,-11.458,-11.448,-11.447,-11.455,-11.447,-11.457,-11.468,-11.435,-11.425,-11.425,-11.458,-11.452,-11.429,-11.424,-11.412,-11.443,-11.452,-11.426,-11.417,-11.412,-11.428,-11.457,-11.446,-11.426,-11.427,-11.445,-11.448,-11.476,-11.461,-11.448,-11.457,-11.456,-11.476,-11.475,-11.453,-11.483,-11.486,-11.46,-11.46,-11.462,-11.466,-11.48,-11.491,-11.492,-11.472,-11.467,-11.466,-11.485,-11.505,-11.476,-11.487,-11.498,-11.503,-11.478,-11.462,-11.484,-11.501,-11.424,-11.422,-11.431,-11.436,-11.435,-11.449,-11.411,-11.358,-11.325,-11.376,-11.398,-11.393,-11.392,-11.416,-11.425,-11.434,-11.463,-11.46,-11.474,-11.488,-11.5,-11.489,-11.482,-11.481,-11.488,-11.486,-11.485,-11.499,-11.502,-11.492,-11.515,-11.515,-11.46,-11.319,-11.121,-10.925,-10.75,-10.524,-10.342,-10.585,-11.248,-12.006,-12.252,-12.081,-11.841,-11.701,-11.568,-11.438,-11.418,-11.404,-11.391,-11.384,-11.384,-11.373,-11.353,-11.354,-11.387,-11.366,-11.335,-11.318,-11.338,-11.347,-11.343,-11.315,-11.303,-11.29,-11.297,-11.292,-11.288,-11.264,-11.262,-11.259,-11.251,-11.224,-11.202,-11.205,-11.205,-11.187,-11.168,-11.146,-11.121,-11.122,-11.115,-11.091,-11.049,-11.021,-11.015,-11.007,-10.979,-10.936,-10.915,-10.913,-10.891,-10.863,-10.851,-10.838,-10.848,-10.848,-10.85,-10.833,-10.812,-10.829,-10.844,-10.876,-10.894,-10.922,-10.977,-11.049,-11.104,-11.137,-11.173,-11.218,-11.269,-11.31,-11.33,-11.344,-11.363,-11.397,-11.415,-11.447,-11.45,-11.415,-11.42,-11.439,-11.439,-11.437,-11.44,-11.439,-11.444,-11.416,-11.404,-11.423,-11.441,-11.414,-11.397,-11.392,-11.402,-11.41,-11.413,-11.408,-11.383,-11.401,-11.407,-11.431,-11.433,-11.403,-11.395,-11.412,-11.422,-11.433,-11.417,-11.413,-11.409,-11.455,-11.447,-11.425,-11.432,-11.423,-11.45,-11.467,-11.457,-11.444,-11.451,-11.452,-11.473,-11.485,-11.449,-11.444,-11.481,-11.468,-11.456,-11.456,-11.454,-11.466,-11.485,-11.462,-11.459,-11.446,-11.445,-11.467,-11.48,-11.475,-11.466,-11.462,-11.479,-11.489,-11.49,-11.478,-11.455,-11.464,-11.487,-11.444,-11.434,-11.442,-11.445,-11.454,-11.44,-11.427,-11.373,-11.372,-11.361,-11.363,-11.372,-11.39,-11.397,-11.416,-11.419,-11.417,-11.455,-11.472,-11.48,-11.472,-11.48,-11.493,-11.506,-11.525,-11.523,-11.496,-11.49,-11.492,-11.525,-11.518,-11.511,-11.492,-11.493,-11.44,-11.27,-11.033,-10.833,-10.658,-10.461,-10.365,-10.874,-11.606,-12.247,-12.174,-11.902,-11.781,-11.58,-11.481,-11.457,-11.462,-11.435,-11.447,-11.41,-11.444,-11.439,-11.444,-11.395,-11.368,-11.372,-11.417,-11.388,-11.382,-11.364,-11.378,-11.369,-11.378,-11.338,-11.326,-11.341,-11.356,-11.317,-11.298,-11.297,-11.292,-11.3,-11.282,-11.248,-11.233,-11.218,-11.228,-11.216,-11.186,-11.16,-11.137,-11.122,-11.103,-11.073,-11.064,-11.047,-11.044,-11.021,-10.973,-10.954,-10.956,-10.943,-10.935,-10.918,-10.895,-10.889,-10.902,-10.904,-10.888,-10.883,-10.908,-10.947,-10.98,-11.031,-11.059,-11.105,-11.128,-11.2,-11.264,-11.293,-11.332,-11.347,-11.414,-11.439,-11.439,-11.443,-11.46,-11.5,-11.517,-11.498,-11.457,-11.466,-11.49,-11.508,-11.491,-11.484,-11.488,-11.483,-11.476,-11.464,-11.456,-11.502,-11.482,-11.469,-11.471,-11.468,-11.474,-11.461,-11.459,-11.464,-11.468,-11.453,-11.456,-11.481,-11.479,-11.471,-11.477,-11.481,-11.498,-11.494,-11.491,-11.474,-11.482,-11.522,-11.529,-11.513,-11.5,-11.495,-11.513,-11.537,-11.514,-11.505,-11.506,-11.543,-11.539,-11.533,-11.532,-11.524,-11.512,-11.545,-11.53,-11.537,-11.529,-11.545,-11.544,-11.539,-11.535,-11.53,-11.544,-11.555,-11.553,-11.533,-11.539,-11.542,-11.552,-11.546,-11.54,-11.539,-11.557,-11.565,-11.568,-11.54,-11.532,-11.549,-11.571,-11.566,-11.562,-11.565,-11.559,-11.571,-11.571,-11.565,-11.558,-11.554,-11.541,-11.533,-11.527,-11.512,-11.536,-11.573,-11.542,-11.483,-11.423,-11.408,-11.46,-11.492,-11.502,-11.501,-11.508,-11.523,-11.554,-11.576,-11.567,-11.59,-11.607,-11.609,-11.617,-11.601,-11.603,-11.616,-11.627,-11.64,-11.623,-11.607,-11.617,-11.627,-11.613,-11.471,-11.271,-11.06,-10.904,-10.683,-10.468,-10.579,-11.255,-12.02,-12.353,-12.261,-12.018,-11.871,-11.696,-11.565,-11.552,-11.511,-11.516,-11.524,-11.544,-11.507,-11.467,-11.487,-11.466,-11.48,-11.474,-11.451,-11.436,-11.455,-11.457,-11.451,-11.432,-11.418,-11.407,-11.414,-11.409,-11.391,-11.376,-11.373,-11.358,-11.333,-11.314,-11.308,-11.308,-11.305,-11.287,-11.252,-11.224,-11.203,-11.218,-11.225,-11.198,-11.156,-11.134,-11.137,-11.119,-11.096,-11.068,-11.036,-11.003,-10.98,-10.996,-10.989,-10.973,-10.976,-10.96,-10.943,-10.935,-10.923,-10.931,-10.951,-10.976,-11.005,-11.04,-11.086,-11.16,-11.215,-11.248,-11.271,-11.318,-11.373,-11.422,-11.454,-11.468,-11.475,-11.498,-11.521,-11.545,-11.526,-11.522,-11.514,-11.543,-11.532,-11.504,-11.523,-11.512,-11.521,-11.535,-11.529,-11.502,-11.503,-11.51,-11.508,-11.471,-11.474,-11.507,-11.52,-11.493,-11.484,-11.481,-11.489,-11.503,-11.509,-11.5,-11.5,-11.499,-11.512,-11.512,-11.488,-11.499,-11.532,-11.516,-11.524,-11.529,-11.534,-11.538,-11.557,-11.566,-11.556,-11.55,-11.561,-11.594,-11.568,-11.58,-11.588,-11.579,-11.592,-11.581,-11.584,-11.582,-11.593,-11.596,-11.607,-11.618,-11.574,-11.578,-11.586,-11.602,-11.611,-11.601,-11.598,-11.591,-11.605,-11.603,-11.611,-11.588,-11.59,-11.62,-11.618,-11.603,-11.592,-11.605,-11.615,-11.605,-11.602,-11.601,-11.614,-11.617,-11.61,-11.624,-11.603,-11.593,-11.606,-11.615,-11.61,-11.6,-11.599,-11.616,-11.608,-11.584,-11.559,-11.565,-11.566,-11.584,-11.561,-11.513,-11.485,-11.468,-11.502,-11.515,-11.507,-11.513,-11.539,-11.558,-11.55,-11.563,-11.575,-11.593,-11.609,-11.614,-11.611,-11.614,-11.61,-11.646,-11.625,-11.599,-11.599,-11.604,-11.616,-11.623,-11.631,-11.54,-11.336,-11.153,-10.974,-10.757,-10.548,-10.463,-10.994,-11.728,-12.407,-12.276,-11.977,-11.854,-11.67,-11.572,-11.521,-11.538,-11.499,-11.54,-11.505,-11.497,-11.46,-11.498,-11.487,-11.482,-11.449,-11.449,-11.444,-11.464,-11.453,-11.445,-11.428,-11.437,-11.432,-11.407,-11.383,-11.393,-11.377,-11.386,-11.387,-11.38,-11.327,-11.323,-11.316,-11.325,-11.294,-11.271,-11.254,-11.267,-11.25,-11.215,-11.18,-11.166,-11.163,-11.154,-11.12,-11.101,-11.099,-11.092,-11.092,-11.055,-11.022,-11.02,-11.025,-11.036,-11.015,-10.989,-10.982,-10.973,-11.011,-11.031,-11.005,-11.031,-11.093,-11.142,-11.201,-11.213,-11.225,-11.296,-11.353,-11.36,-11.413,-11.456,-11.467,-11.49,-11.546,-11.529,-11.538,-11.532,-11.552,-11.553,-11.559,-11.545,-11.531,-11.523,-11.536,-11.522,-11.536,-11.532,-11.525,-11.513,-11.529,-11.514,-11.513,-11.509,-11.519,-11.513,-11.522,-11.514,-11.538,-11.525,-11.525,-11.508,-11.508,-11.526,-11.555,-11.543,-11.543,-11.515,-11.532,-11.559,-11.571,-11.557,-11.549,-11.526,-11.553,-11.586,-11.577,-11.546,-11.541,-11.571,-11.578,-11.576,-11.553,-11.56,-11.581,-11.592,-11.58,-11.567,-11.56,-11.576,-11.585,-11.588,-11.569,-11.568,-11.583,-11.602,-11.58,-11.572,-11.575,-11.588,-11.562,-11.535,-11.525,-11.53,-11.53,-11.553,-11.558,-11.549,-11.478,-11.451,-11.453,-11.486,-11.494,-11.45,-11.5,-11.504,-11.512,-11.529,-11.515,-11.465,-11.451,-11.544,-11.61,-11.624,-11.607,-11.538,-11.484,-11.467,-11.556,-11.607,-11.621,-11.646,-11.599,-11.602,-11.543,-11.371,-11.172,-10.973,-10.781,-10.609,-10.551,-11.007,-11.64,-12.332,-12.233,-11.945,-11.88,-11.737,-11.662,-11.53,-11.516,-11.498,-11.503,-11.488,-11.476,-11.443,-11.439,-11.45,-11.458,-11.405,-11.384,-11.393,-11.437,-11.431,-11.396,-11.378,-11.399,-11.422,-11.418,-11.389,-11.375,-11.318,-11.273,-11.313,-11.343,-11.335,-11.307,-11.298,-11.293,-11.264,-11.254,-11.231,-11.213,-11.201,-11.172,-11.141,-11.131,-11.134,-11.1,-11.079,-11.069,-11.041,-11.033,-11.039,-11.028,-10.979,-10.921,-10.918,-10.962,-10.981,-10.931,-10.928,-10.97,-10.979,-11.011,-11.034,-11.05,-11.114,-11.16,-11.196,-11.218,-11.26,-11.291,-11.364,-11.425,-11.447,-11.477,-11.467,-11.499,-11.493,-11.517,-11.52,-11.475,-11.51,-11.518,-11.522,-11.515,-11.502,-11.473,-11.488,-11.539,-11.543,-11.506,-11.482,-11.508,-11.496,-11.465,-11.478,-11.486,-11.485,-11.494,-11.486,-11.472,-11.476,-11.503,-11.514,-11.5,-11.49,-11.495,-11.505,-11.519,-11.509,-11.505,-11.525,-11.535,-11.541,-11.526,-11.5,-11.51,-11.524,-11.527,-11.557,-11.516,-11.531,-11.556,-11.57,-11.579,-11.557,-11.536,-11.537,-11.541,-11.556,-11.558,-11.525,-11.532,-11.567,-11.565,-11.527,-11.516,-11.518,-11.531,-11.534,-11.528,-11.512,-11.486,-11.47,-11.455,-11.434,-11.433,-11.472,-11.497,-11.513,-11.502,-11.524,-11.529,-11.538,-11.561,-11.58,-11.572,-11.583,-11.6,-11.588,-11.586,-11.579,-11.59,-11.587,-11.592,-11.583,-11.577,-11.588,-11.594,-11.553,-11.413,-11.207,-10.998,-10.792,-10.608,-10.518,-10.888,-11.518,-12.259,-12.297,-11.979,-11.847,-11.726,-11.598,-11.534,-11.543,-11.491,-11.488,-11.495,-11.536,-11.508,-11.481,-11.447,-11.441,-11.466,-11.49,-11.446,-11.437,-11.428,-11.442,-11.431,-11.411,-11.383,-11.39,-11.391,-11.393,-11.37,-11.341,-11.331,-11.355,-11.352,-11.351,-11.301,-11.283,-11.271,-11.249,-11.241,-11.225,-11.224,-11.195,-11.168,-11.128,-11.103,-11.083,-11.072,-11.072,-11.053,-11.017,-10.992,-10.97,-10.979,-10.986,-10.953,-10.928,-10.935,-10.934,-10.935,-10.933,-10.954,-10.985,-11.025,-11.058,-11.101,-11.132,-11.164,-11.229,-11.29,-11.327,-11.352,-11.38,-11.435,-11.469,-11.48,-11.484,-11.497,-11.519,-11.531,-11.514,-11.49,-11.501,-11.554,-11.561,-11.541,-11.51,-11.505,-11.519,-11.535,-11.507,-11.495,-11.491,-11.49,-11.515,-11.517,-11.491,-11.487,-11.491,-11.512,-11.5,-11.473,-11.481,-11.503,-11.518,-11.507,-11.494,-11.484,-11.489,-11.516,-11.546,-11.565,-11.56,-11.511,-11.516,-11.53,-11.516,-11.508,-11.533,-11.57,-11.555,-11.544,-11.527,-11.556,-11.548,-11.564,-11.538,-11.528,-11.535,-11.548,-11.574,-11.595,-11.57,-11.544,-11.561,-11.563,-11.563,-11.543,-11.528,-11.55,-11.568,-11.556,-11.538,-11.554,-11.546,-11.542,-11.565,-11.554,-11.55,-11.557,-11.538,-11.511,-11.493,-11.493,-11.508,-11.533,-11.514,-11.465,-11.41,-11.43,-11.471,-11.478,-11.478,-11.482,-11.496,-11.483,-11.516,-11.527,-11.541,-11.543,-11.561,-11.576,-11.571,-11.572,-11.574,-11.546,-11.582,-11.571,-11.566,-11.557,-11.579,-11.59,-11.584,-11.477,-11.267,-11.055,-10.897,-10.795,-10.544,-10.362,-10.686,-11.378,-12.141,-12.274,-12.012,-11.842,-11.702,-11.562,-11.509,-11.498,-11.466,-11.455,-11.45,-11.498,-11.471,-11.441,-11.434,-11.443,-11.428,-11.429,-11.428,-11.42,-11.414,-11.42,-11.4,-11.389,-11.385,-11.387,-11.382,-11.362,-11.335,-11.32,-11.321,-11.35,-11.323,-11.276,-11.252,-11.264,-11.266,-11.25,-11.223,-11.195,-11.202,-11.188,-11.149,-11.112,-11.086,-11.095,-11.082,-11.057,-11.019,-10.988,-10.995,-10.987,-10.957,-10.929,-10.922,-10.911,-10.913,-10.918,-10.901,-10.905,-10.919,-10.933,-10.954,-10.976,-10.997,-11.057,-11.135,-11.194,-11.223,-11.261,-11.343,-11.391,-11.402,-11.402,-11.42,-11.425,-11.449,-11.48,-11.501,-11.5,-11.511,-11.504,-11.499,-11.497,-11.489,-11.483,-11.503,-11.506,-11.506,-11.501,-11.489,-11.483,-11.474,-11.466,-11.461,-11.462,-11.47,-11.467,-11.473,-11.479,-11.462,-11.457,-11.485,-11.492,-11.5,-11.487,-11.486,-11.498,-11.46,-11.452,-11.478,-11.504,-11.518,-11.503,-11.501,-11.493,-11.481,-11.481,-11.48,-11.499,-11.512,-11.535,-11.556,-11.521,-11.515,-11.516,-11.511,-11.525,-11.524,-11.519,-11.51,-11.513,-11.514,-11.516,-11.525,-11.516,-11.505,-11.518,-11.517,-11.523,-11.518,-11.499,-11.523,-11.549,-11.519,-11.535,-11.521,-11.528,-11.551,-11.517,-11.511,-11.501,-11.505,-11.522,-11.525,-11.528,-11.496,-11.5,-11.506,-11.514,-11.533,-11.524,-11.528,-11.522,-11.526,-11.533,-11.521,-11.531,-11.534,-11.53,-11.52,-11.512,-11.504,-11.517,-11.528,-11.511,-11.499,-11.502,-11.523,-11.528,-11.533,-11.507,-11.496,-11.511,-11.514,-11.518,-11.513,-11.512,-11.501,-11.505,-11.509,-11.495,-11.454,-11.468,-11.494,-11.464,-11.424,-11.393,-11.382,-11.417,-11.445,-11.439,-11.431,-11.455,-11.46,-11.475,-11.495,-11.487,-11.51,-11.544,-11.57,-11.535,-11.529,-11.514,-11.524,-11.55,-11.553,-11.53,-11.533,-11.533,-11.538,-11.446,-11.245,-11.054,-10.871,-10.662,-10.454,-10.4,-10.951,-11.642,-12.241,-12.138,-11.864,-11.744,-11.646,-11.516,-11.466,-11.468,-11.417,-11.454,-11.411,-11.459,-11.435,-11.421,-11.381,-11.405,-11.391,-11.4,-11.364,-11.393,-11.374,-11.382,-11.339,-11.356,-11.338,-11.359,-11.365,-11.361,-11.31,-11.303,-11.287,-11.296,-11.294,-11.267,-11.232,-11.239,-11.23,-11.208,-11.181,-11.173,-11.15,-11.162,-11.141,-11.111,-11.083,-11.064,-11.069,-11.063,-11.019,-10.998,-10.982,-10.978,-10.97,-10.95,-10.942,-10.934,-10.922,-10.935,-10.93,-10.915,-10.918,-10.937,-10.941,-10.951,-10.967,-11.005,-11.054,-11.115,-11.164,-11.183,-11.236,-11.269,-11.329,-11.357,-11.387,-11.401,-11.421,-11.442,-11.459,-11.443,-11.447,-11.457,-11.488,-11.458,-11.457,-11.448,-11.456,-11.466,-11.473,-11.464,-11.437,-11.445,-11.461,-11.453,-11.454,-11.412,-11.432,-11.441,-11.439,-11.422,-11.403,-11.407,-11.433,-11.446,-11.457,-11.454,-11.444,-11.433,-11.455,-11.47,-11.459,-11.433,-11.448,-11.469,-11.473,-11.453,-11.464,-11.472,-11.5,-11.485,-11.475,-11.465,-11.459,-11.474,-11.489,-11.484,-11.479,-11.477,-11.492,-11.495,-11.501,-11.485,-11.474,-11.485,-11.491,-11.497,-11.478,-11.46,-11.483,-11.489,-11.498,-11.474,-11.475,-11.479,-11.49,-11.5,-11.494,-11.478,-11.495,-11.516,-11.512,-11.503,-11.492,-11.475,-11.506,-11.517,-11.499,-11.492,-11.502,-11.523,-11.516,-11.506,-11.506,-11.487,-11.483,-11.508,-11.5,-11.497,-11.484,-11.512,-11.527,-11.511,-11.491,-11.489,-11.509,-11.522,-11.504,-11.491,-11.495,-11.502,-11.506,-11.494,-11.498,-11.502,-11.5,-11.515,-11.508,-11.451,-11.447,-11.464,-11.467,-11.483,-11.479,-11.416,-11.375,-11.36,-11.379,-11.398,-11.397,-11.435,-11.456,-11.474,-11.461,-11.47,-11.477,-11.494,-11.511,-11.513,-11.521
