-19.279,-19.269,-19.261,-19.249,-19.239,-19.214,-19.205,-19.192,-19.182,-19.166,-19.14,-19.125,-19.11,-19.091,-19.072,-19.044,-19.038,-19.018,-19.019,-19.009,-18.989,-18.978,-18.972,-18.974,-18.968,-18.96,-18.974,-18.993,-19.036,-19.066,-19.086,-19.124,-19.16,-19.21,-19.246,-19.274,-19.313,-19.336,-19.352,-19.37,-19.385,-19.398,-19.413,-19.43,-19.441,-19.432,-19.428,-19.424,-19.436,-19.444,-19.44,-19.437,-19.437,-19.443,-19.454,-19.443,-19.434,-19.43,-19.431,-19.434,-19.434,-19.419,-19.427,-19.426,-19.433,-19.43,-19.427,-19.424,-19.42,-19.436,-19.433,-19.425,-19.427,-19.432,-19.436,-19.43,-19.422,-19.423,-19.429,-19.428,-19.43,-19.426,-19.432,-19.439,-19.449,-19.445,-19.436,-19.434,-19.434,-19.443,-19.443,-19.443,-19.437,-19.437,-19.447,-19.451,-19.452,-19.447,-19.446,-19.449,-19.457,-19.453,-19.442,-19.445,-19.451,-19.46,-19.462,-19.444,-19.445,-19.45,-19.46,-19.456,-19.45,-19.454,-19.456,-19.458,-19.458,-19.452,-19.45,-19.457,-19.46,-19.464,-19.455,-19.454,-19.455,-19.456,-19.453,-19.433,-19.417,-19.417,-19.412,-19.397,-19.364,-19.344,-19.342,-19.369,-19.379,-19.385,-19.381,-19.395,-19.417,-19.425,-19.444,-19.45,-19.461,-19.472,-19.482,-19.485,-19.479,-19.487,-19.492,-19.501,-19.489,-19.48,-19.486,-19.494,-19.492,-19.492,-19.484,-19.483,-19.486,-19.498,-19.494,-19.487,-19.479,-19.491,-19.511,-19.557,-19.585,-19.51,-19.359,-19.138,-18.85,-18.52,-18.248,-18.216,-18.514,-18.951,-19.146,-19.51,-19.61,-19.569,-19.513,-19.443,-19.414,-19.389,-19.428,-19.414,-19.435,-19.414,-19.431,-19.415,-19.426,-19.409,-19.407,-19.398,-19.417,-19.401,-19.414,-19.391,-19.397,-19.393,-19.412,-19.393,-19.381,-19.363,-19.372,-19.37,-19.37,-19.353,-19.349,-19.343,-19.346,-19.332,-19.329,-19.318,-19.31,-19.313,-19.309,-19.284,-19.271,-19.258,-19.258,-19.246,-19.226,-19.2,-19.192,-19.181,-19.169,-19.162,-19.127,-19.107,-19.094,-19.077,-19.064,-19.044,-19.031,-19.032,-19.03,-19.017,-18.998,-18.991,-18.99,-19.002,-19.003,-19.023,-19.041,-19.075,-19.113,-19.143,-19.171,-19.212,-19.241,-19.299,-19.324,-19.344,-19.36,-19.374,-19.4,-19.413,-19.416,-19.418,-19.426,-19.441,-19.444,-19.446,-19.435,-19.436,-19.447,-19.453,-19.446,-19.44,-19.433,-19.44,-19.443,-19.442,-19.428,-19.431,-19.44,-19.448,-19.433,-19.427,-19.422,-19.434,-19.434,-19.429,-19.419,-19.422,-19.424,-19.435,-19.426,-19.418,-19.43,-19.431,-19.436,-19.44,-19.428,-19.436,-19.431,-19.442,-19.448,-19.446,-19.439,-19.447,-19.451,-19.454,-19.454,-19.455,-19.455,-19.464,-19.466,-19.454,-19.453,-19.457,-19.472,-19.472,-19.462,-19.453,-19.458,-19.459,-19.474,-19.471,-19.458,-19.46,-19.461,-19.474,-19.472,-19.467,-19.471,-19.475,-19.472,-19.453,-19.444,-19.446,-19.444,-19.447,-19.436,-19.401,-19.378,-19.363,-19.366,-19.371,-19.382,-19.403,-19.414,-19.423,-19.429,-19.434,-19.449,-19.467,-19.492,-19.498,-19.491,-19.492,-19.495,-19.506,-19.508,-19.507,-19.504,-19.504,-19.514,-19.518,-19.514,-19.502,-19.505,-19.505,-19.511,-19.511,-19.511,-19.508,-19.523,-19.542,-19.582,-19.556,-19.448,-19.259,-19.024,-18.753,-18.38,-18.252,-18.221,-18.489,-18.95,-19.326,-19.616,-19.611,-19.575,-19.488,-19.434,-19.417,-19.427,-19.449,-19.454,-19.449,-19.446,-19.441,-19.454,-19.446,-19.439,-19.427,-19.433,-19.437,-19.441,-19.429,-19.417,-19.414,-19.421,-19.415,-19.413,-19.392,-19.399,-19.401,-19.395,-19.39,-19.378,-19.372,-19.375,-19.374,-19.364,-19.355,-19.351,-19.342,-19.344,-19.329,-19.308,-19.296,-19.29,-19.287,-19.271,-19.249,-19.225,-19.205,-19.202,-19.188,-19.163,-19.136,-19.133,-19.124,-19.111,-19.099,-19.081,-19.066,-19.057,-19.047,-19.034,-19.02,-19.025,-19.041,-19.053,-19.059,-19.07,-19.102,-19.142,-19.184,-19.22,-19.245,-19.278,-19.325,-19.36,-19.375,-19.389,-19.411,-19.431,-19.461,-19.463,-19.464,-19.463,-19.484,-19.493,-19.491,-19.482,-19.491,-19.499,-19.509,-19.498,-19.495,-19.492,-19.498,-19.497,-19.496,-19.491,-19.483,-19.478,-19.498,-19.492,-19.494,-19.478,-19.475,-19.483,-19.478,-19.468,-19.469,-19.476,-19.486,-19.482,-19.482,-19.477,-19.478,-19.482,-19.479,-19.478,-19.475,-19.487,-19.495,-19.498,-19.498,-19.489,-19.492,-19.497,-19.502,-19.503,-19.497,-19.489,-19.495,-19.502,-19.514,-19.504,-19.507,-19.513,-19.518,-19.522,-19.508,-19.503,-19.503,-19.508,-19.515,-19.517,-19.507,-19.508,-19.523,-19.517,-19.512,-19.51,-19.513,-19.523,-19.518,-19.517,-19.507,-19.515,-19.52,-19.518,-19.525,-19.515,-19.52,-19.524,-19.526,-19.528,-19.512,-19.52,-19.523,-19.527,-19.522,-19.514,-19.515,-19.518,-19.53,-19.525,-19.511,-19.513,-19.518,-19.523,-19.529,-19.513,-19.511,-19.522,-19.531,-19.53,-19.518,-19.522,-19.522,-19.536,-19.539,-19.523,-19.523,-19.517,-19.523,-19.514,-19.5,-19.498,-19.495,-19.492,-19.491,-19.477,-19.44,-19.425,-19.412,-19.416,-19.43,-19.437,-19.461,-19.469,-19.481,-19.477,-19.48,-19.504,-19.524,-19.549,-19.549,-19.542,-19.55,-19.558,-19.566,-19.566,-19.554,-19.551,-19.545,-19.564,-19.564,-19.548,-19.552,-19.559,-19.564,-19.566,-19.551,-19.55,-19.556,-19.58,-19.614,-19.618,-19.537,-19.46,-19.261,-19.032,-18.789,-18.411,-18.278,-18.407,-18.832,-19.248,-19.569,-19.676,-19.63,-19.558,-19.474,-19.457,-19.463,-19.496,-19.497,-19.502,-19.485,-19.493,-19.487,-19.498,-19.494,-19.487,-19.474,-19.479,-19.482,-19.484,-19.463,-19.458,-19.45,-19.458,-19.452,-19.44,-19.431,-19.435,-19.442,-19.442,-19.421,-19.416,-19.416,-19.412,-19.402,-19.407,-19.387,-19.381,-19.377,-19.37,-19.356,-19.338,-19.327,-19.322,-19.31,-19.293,-19.272,-19.26,-19.248,-19.236,-19.21,-19.191,-19.173,-19.161,-19.152,-19.139,-19.113,-19.097,-19.092,-19.086,-19.074,-19.051,-19.035,-19.042,-19.053,-19.055,-19.058,-19.081,-19.115,-19.149,-19.187,-19.201,-19.233,-19.28,-19.328,-19.36,-19.387,-19.4,-19.425,-19.447,-19.47,-19.477,-19.485,-19.501,-19.516,-19.511,-19.516,-19.508,-19.511,-19.521,-19.521,-19.521,-19.505,-19.511,-19.515,-19.521,-19.52,-19.512,-19.502,-19.509,-19.524,-19.511,-19.504,-19.49,-19.503,-19.506,-19.509,-19.5,-19.499,-19.505,-19.515,-19.505,-19.505,-19.502,-19.502,-19.514,-19.515,-19.507,-19.513,-19.507,-19.522,-19.509,-19.511,-19.515,-19.523,-19.53,-19.526,-19.525,-19.519,-19.52,-19.532,-19.531,-19.535,-19.526,-19.515,-19.525,-19.532,-19.531,-19.529,-19.531,-19.536,-19.544,-19.536,-19.526,-19.527,-19.529,-19.538,-19.536,-19.528,-19.534,-19.545,-19.55,-19.548,-19.544,-19.53,-19.534,-19.544,-19.545,-19.537,-19.541,-19.544,-19.553,-19.552,-19.542,-19.544,-19.543,-19.553,-19.548,-19.542,-19.544,-19.539,-19.553,-19.554,-19.551,-19.535,-19.547,-19.553,-19.554,-19.547,-19.539,-19.538,-19.543,-19.553,-19.553,-19.543,-19.55,-19.555,-19.557,-19.545,-19.521,-19.522,-19.526,-19.532,-19.525,-19.515,-19.497,-19.489,-19.474,-19.446,-19.422,-19.44,-19.474,-19.5,-19.5,-19.49,-19.495,-19.503,-19.517,-19.536,-19.539,-19.553,-19.565,-19.568,-19.578,-19.578,-19.568,-19.565,-19.574,-19.578,-19.573,-19.57,-19.575,-19.58,-19.594,-19.584,-19.576,-19.569,-19.581,-19.58,-19.574,-19.573,-19.572,-19.578,-19.611,-19.65,-19.614,-19.494,-19.309,-19.083,-18.84,-18.465,-18.294,-18.403,-18.828,-19.267,-19.595,-19.695,-19.654,-19.584,-19.498,-19.471,-19.478,-19.501,-19.507,-19.516,-19.499,-19.502,-19.486,-19.506,-19.493,-19.497,-19.478,-19.483,-19.485,-19.489,-19.477,-19.47,-19.469,-19.468,-19.456,-19.452,-19.434,-19.438,-19.439,-19.455,-19.45,-19.429,-19.415,-19.414,-19.415,-19.413,-19.394,-19.383,-19.376,-19.371,-19.358,-19.347,-19.337,-19.331,-19.32,-19.302,-19.278,-19.27,-19.259,-19.251,-19.23,-19.206,-19.182,-19.166,-19.153,-19.145,-19.121,-19.099,-19.094,-19.09,-19.076,-19.059,-19.05,-19.039,-19.048,-19.059,-19.068,-19.067,-19.101,-19.134,-19.167,-19.204,-19.238,-19.275,-19.319,-19.354,-19.389,-19.4,-19.431,-19.462,-19.487,-19.489,-19.484,-19.49,-19.511,-19.521,-19.519,-19.515,-19.51,-19.514,-19.524,-19.529,-19.523,-19.522,-19.528,-19.531,-19.526,-19.515,-19.505,-19.505,-19.513,-19.522,-19.517,-19.501,-19.501,-19.508,-19.506,-19.505,-19.504,-19.494,-19.5,-19.504,-19.506,-19.495,-19.502,-19.502,-19.507,-19.496,-19.494,-19.501,-19.505,-19.512,-19.515,-19.508,-19.512,-19.515,-19.516,-19.515,-19.515,-19.506,-19.509,-19.521,-19.524,-19.523,-19.517,-19.521,-19.532,-19.524,-19.517,-19.52,-19.524,-19.532,-19.53,-19.52,-19.513,-19.519,-19.537,-19.526,-19.523,-19.52,-19.523,-19.531,-19.529,-19.528,-19.515,-19.513,-19.519,-19.531,-19.53,-19.52,-19.512,-19.522,-19.529,-19.526,-19.519,-19.53,-19.528,-19.532,-19.526,-19.517,-19.502,-19.503,-19.515,-19.515,-19.497,-19.5,-19.489,-19.483,-19.465,-19.433,-19.4,-19.41,-19.443,-19.468,-19.462,-19.453,-19.454,-19.483,-19.485,-19.485,-19.497,-19.508,-19.535,-19.546,-19.547,-19.54,-19.546,-19.548,-19.545,-19.54,-19.535,-19.546,-19.553,-19.559,-19.552,-19.545,-19.549,-19.553,-19.558,-19.555,-19.549,-19.545,-19.549,-19.555,-19.56,-19.584,-19.62,-19.56,-19.418,-19.187,-18.902,-18.611,-18.32,-18.275,-18.538,-18.974,-19.378,-19.657,-19.675,-19.646,-19.558,-19.48,-19.456,-19.452,-19.474,-19.47,-19.479,-19.47,-19.478,-19.476,-19.473,-19.462,-19.464,-19.461,-19.465,-19.451,-19.45,-19.44,-19.444,-19.443,-19.443,-19.424,-19.421,-19.419,-19.432,-19.433,-19.411,-19.4,-19.401,-19.398,-19.392,-19.359,-19.36,-19.356,-19.369,-19.356,-19.334,-19.325,-19.323,-19.312,-19.3,-19.276,-19.259,-19.252,-19.251,-19.234,-19.207,-19.178,-19.161,-19.152,-19.136,-19.115,-19.093,-19.08,-19.081,-19.063,-19.049,-19.032,-19.025,-19.032,-19.028,-19.028,-19.019,-19.038,-19.06,-19.097,-19.13,-19.154,-19.198,-19.24,-19.281,-19.318,-19.33,-19.356,-19.382,-19.409,-19.431,-19.429,-19.437,-19.45,-19.466,-19.467,-19.454,-19.461,-19.47,-19.48,-19.483,-19.472,-19.462,-19.464,-19.474,-19.474,-19.462,-19.459,-19.467,-19.479,-19.467,-19.46,-19.457,-19.448,-19.455,-19.462,-19.466,-19.458,-19.457,-19.463,-19.461,-19.461,-19.445,-19.447,-19.461,-19.473,-19.468,-19.454,-19.454,-19.467,-19.473,-19.475,-19.457,-19.465,-19.465,-19.48,-19.474,-19.476,-19.468,-19.473,-19.484,-19.488,-19.481,-19.477,-19.482,-19.486,-19.485,-19.482,-19.475,-19.484,-19.492,-19.488,-19.484,-19.48,-19.481,-19.488,-19.489,-19.491,-19.474,-19.478,-19.495,-19.503,-19.494,-19.492,-19.489,-19.488,-19.484,-19.478,-19.465,-19.469,-19.471,-19.464,-19.456,-19.447,-19.42,-19.392,-19.386,-19.375,-19.383,-19.401,-19.437,-19.446,-19.446,-19.438,-19.45,-19.477,-19.509,-19.519,-19.511,-19.514,-19.517,-19.528,-19.525,-19.52,-19.519,-19.519,-19.531,-19.526,-19.531,-19.52,-19.52,-19.526,-19.524,-19.52,-19.521,-19.518,-19.539,-19.531,-19.535,-19.558,-19.601,-19.569,-19.429,-19.319,-19.087,-18.82,-18.502,-18.253,-18.264,-18.602,-19.053,-19.439,-19.658,-19.628,-19.548,-19.476,-19.442,-19.44,-19.455,-19.445,-19.458,-19.457,-19.469,-19.458,-19.462,-19.448,-19.454,-19.457,-19.456,-19.438,-19.43,-19.426,-19.439,-19.429,-19.424,-19.411,-19.41,-19.413,-19.418,-19.4,-19.393,-19.385,-19.391,-19.386,-19.378,-19.361,-19.355,-19.347,-19.356,-19.335,-19.315,-19.313,-19.305,-19.306,-19.292,-19.265,-19.253,-19.242,-19.232,-19.212,-19.181,-19.166,-19.15,-19.152,-19.139,-19.11,-19.09,-19.073,-19.062,-19.061,-19.031,-19.021,-19.013,-19.019,-19.015,-19.016,-19.022,-19.04,-19.069,-19.098,-19.118,-19.155,-19.191,-19.217,-19.26,-19.295,-19.314,-19.348,-19.383,-19.411,-19.417,-19.422,-19.431,-19.455,-19.456,-19.463,-19.452,-19.464,-19.47,-19.479,-19.472,-19.462,-19.463,-19.465,-19.476,-19.481,-19.467,-19.463,-19.463,-19.47,-19.469,-19.467,-19.455,-19.458,-19.462,-19.461,-19.445,-19.449,-19.452,-19.466,-19.46,-19.448,-19.44,-19.445,-19.451,-19.463,-19.457,-19.444,-19.449,-19.457,-19.46,-19.458,-19.451,-19.457,-19.465,-19.471,-19.471,-19.46,-19.457,-19.471,-19.475,-19.472,-19.466,-19.471,-19.479,-19.486,-19.488,-19.481,-19.473,-19.476,-19.482,-19.482,-19.48,-19.478,-19.483,-19.491,-19.493,-19.492,-19.49,-19.485,-19.494,-19.493,-19.487,-19.488,-19.488,-19.498,-19.502,-19.495,-19.486,-19.488,-19.495,-19.492,-19.49,-19.478,-19.485,-19.49,-19.5,-19.491,-19.486,-19.484,-19.502,-19.496,-19.489,-19.485,-19.485,-19.494,-19.502,-19.498,-19.495,-19.492,-19.497,-19.501,-19.499,-19.497,-19.496,-19.498,-19.508,-19.51,-19.494,-19.492,-19.5,-19.506,-19.509,-19.496,-19.496,-19.503,-19.503,-19.495,-19.491,-19.481,-19.479,-19.473,-19.461,-19.438,-19.414,-19.396,-19.394,-19.395,-19.412,-19.434,-19.443,-19.461,-19.473,-19.475,-19.479,-19.489,-19.504,-19.528,-19.532,-19.525,-19.521,-19.529,-19.538,-19.534,-19.53,-19.528,-19.539,-19.544,-19.544,-19.54,-19.529,-19.541,-19.548,-19.547,-19.544,-19.534,-19.54,-19.572,-19.606,-19.573,-19.439,-19.232,-19.015,-18.772,-18.405,-18.264,-18.416,-18.853,-19.283,-19.594,-19.674,-19.611,-19.55,-19.465,-19.461,-19.445,-19.472,-19.473,-19.489,-19.476,-19.478,-19.476,-19.483,-19.485,-19.483,-19.464,-19.471,-19.471,-19.476,-19.46,-19.449,-19.447,-19.454,-19.452,-19.452,-19.436,-19.428,-19.425,-19.436,-19.431,-19.42,-19.406,-19.406,-19.408,-19.403,-19.377,-19.371,-19.364,-19.368,-19.359,-19.342,-19.332,-19.321,-19.316,-19.306,-19.281,-19.259,-19.249,-19.235,-19.235,-19.204,-19.177,-19.159,-19.151,-19.14,-19.122,-19.093,-19.085,-19.079,-19.074,-19.058,-19.042,-19.043,-19.05,-19.058,-19.071,-19.078,-19.1,-19.136,-19.176,-19.209,-19.235,-19.268,-19.309,-19.356,-19.388,-19.396,-19.428,-19.446,-19.475,-19.487,-19.488,-19.491,-19.499,-19.503,-19.512,-19.512,-19.505,-19.509,-19.523,-19.523,-19.522,-19.508,-19.513,-19.51,-19.517,-19.511,-19.505,-19.507,-19.511,-19.514,-19.513,-19.501,-19.501,-19.502,-19.514,-19.509,-19.495,-19.497,-19.498,-19.505,-19.505,-19.493,-19.492,-19.505,-19.513,-19.512,-19.501,-19.507,-19.515,-19.518,-19.518,-19.511,-19.513,-19.519,-19.521,-19.526,-19.522,-19.513,-19.519,-19.526,-19.53,-19.522,-19.513,-19.526,-19.533,-19.537,-19.532,-19.528,-19.532,-19.534,-19.541,-19.538,-19.531,-19.529,-19.53,-19.545,-19.544,-19.531,-19.536,-19.539,-19.548,-19.547,-19.538,-19.537,-19.544,-19.55,-19.551,-19.538,-19.537,-19.54,-19.548,-19.549,-19.535,-19.537,-19.54,-19.553,-19.546,-19.538,-19.539,-19.539,-19.551,-19.546,-19.539,-19.531,-19.536,-19.55,-19.548,-19.548,-19.537,-19.545,-19.559,-19.557,-19.553,-19.547,-19.546,-19.552,-19.55,-19.557,-19.543,-19.547,-19.55,-19.554,-19.545,-19.523,-19.525,-19.534,-19.533,-19.523,-19.493,-19.487,-19.479,-19.46,-19.429,-19.432,-19.442,-19.471,-19.498,-19.492,-19.485,-19.498,-19.506,-19.518,-19.536,-19.538,-19.556,-19.561,-19.574,-19.576,-19.574,-19.571,-19.573,-19.585,-19.585,-19.578,-19.571,-19.579,-19.58,-19.585,-19.578,-19.57,-19.57,-19.581,-19.585,-19.58,-19.579,-19.617,-19.65,-19.593,-19.439,-19.206,-18.974,-18.709,-18.349,-18.296,-18.391,-18.784,-19.238,-19.575,-19.71,-19.647,-19.568,-19.492,-19.498,-19.495,-19.515,-19.501,-19.516,-19.52,-19.526,-19.506,-19.513,-19.5,-19.516,-19.5,-19.502,-19.476,-19.489,-19.486,-19.49,-19.475,-19.462,-19.464,-19.474,-19.462,-19.459,-19.446,-19.445,-19.437,-19.444,-19.434,-19.416,-19.405,-19.41,-19.406,-19.404,-19.388,-19.378,-19.367,-19.366,-19.354,-19.333,-19.315,-19.303,-19.3,-19.282,-19.253,-19.232,-19.219,-19.21,-19.185,-19.157,-19.139,-19.116,-19.118,-19.103,-19.077,-19.053,-19.048,-19.055,-19.051,-19.043,-19.041,-19.048,-19.064,-19.088,-19.115,-19.138,-19.18,-19.22,-19.266,-19.294,-19.324,-19.362,-19.41,-19.424,-19.455,-19.466,-19.48,-19.487,-19.509,-19.518,-19.513,-19.519,-19.526,-19.538,-19.541,-19.524,-19.527,-19.529,-19.539,-19.532,-19.527,-19.524,-19.525,-19.535,-19.532,-19.521,-19.513,-19.52,-19.523,-19.518,-19.512,-19.509,-19.519,-19.523,-19.531,-19.524,-19.518,-19.516,-19.522,-19.52,-19.514,-19.504,-19.514,-19.519,-19.53,-19.531,-19.527,-19.527,-19.531,-19.543,-19.541,-19.533,-19.536,-19.533,-19.533,-19.531,-19.529,-19.538,-19.542,-19.547,-19.54,-19.534,-19.54,-19.542,-19.545,-19.553,-19.54,-19.544,-19.547,-19.556,-19.556,-19.548,-19.543,-19.549,-19.558,-19.557,-19.554,-19.551,-19.549,-19.555,-19.553,-19.546,-19.545,-19.547,-19.552,-19.564,-19.564,-19.553,-19.554,-19.556,-19.558,-19.547,-19.547,-19.548,-19.554,-19.561,-19.566,-19.556,-19.551,-19.554,-19.558,-19.563,-19.55,-19.547,-19.546,-19.55,-19.545,-19.53,-19.513,-19.507,-19.515,-19.491,-19.455,-19.435,-19.431,-19.46,-19.476,-19.486,-19.485,-19.507,-19.516,-19.534,-19.542,-19.552,-19.562,-19.578,-19.581,-19.578,-19.575,-19.578,-19.588,-19.595,-19.597,-19.585,-19.589,-19.594,-19.596,-19.587,-19.578,-19.58,-19.6,-19.603,-19.598,-19.587,-19.589,-19.615,-19.662,-19.661,-19.55,-19.369,-19.139,-18.884,-18.539,-18.333,-18.37,-18.742,-19.193,-19.573,-19.735,-19.7,-19.627,-19.557,-19.518,-19.497,-19.511,-19.513,-19.535,-19.529,-19.534,-19.515,-19.523,-19.518,-19.533,-19.521,-19.514,-19.498,-19.514,-19.509,-19.497,-19.482,-19.488,-19.493,-19.495,-19.482,-19.476,-19.464,-19.468,-19.471,-19.459,-19.447,-19.444,-19.437,-19.439,-19.427,-19.413,-19.406,-19.403,-19.4,-19.386,-19.366,-19.357,-19.349,-19.344,-19.319,-19.304,-19.293,-19.276,-19.265,-19.251,-19.235,-19.211,-19.19,-19.179,-19.168,-19.146,-19.131,-19.121,-19.117,-19.104,-19.095,-19.077,-19.082,-19.1,-19.118,-19.123,-19.138,-19.164,-19.202,-19.242,-19.278,-19.302,-19.342,-19.379,-19.42,-19.446,-19.454,-19.471,-19.5,-19.52,-19.53,-19.522,-19.529,-19.535,-19.548,-19.548,-19.543,-19.531,-19.537,-19.548,-19.549,-19.536,-19.533,-19.534,-19.543,-19.538,-19.526,-19.526,-19.523,-19.526,-19.526,-19.521,-19.523,-19.513,-19.502,-19.5,-19.516,-19.512,-19.522,-19.523,-19.522,-19.512,-19.496,-19.507,-19.518,-19.535,-19.534,-19.514,-19.519,-19.527,-19.532,-19.538,-19.524,-19.53,-19.532,-19.536,-19.537,-19.527,-19.526,-19.537,-19.537,-19.542,-19.538,-19.525,-19.531,-19.545,-19.548,-19.532,-19.532,-19.537,-19.55,-19.547,-19.54,-19.534,-19.529,-19.54,-19.539,-19.545,-19.533,-19.534,-19.539,-19.538,-19.535,-19.526,-19.537,-19.538,-19.546,-19.544,-19.538,-19.537,-19.535,-19.529,-19.525,-19.508,-19.507,-19.514,-19.507,-19.479,-19.44,-19.426,-19.431,-19.451,-19.469,-19.485,-19.482,-19.499,-19.509,-19.525,-19.532,-19.547,-19.554,-19.567,-19.571,-19.563,-19.561,-19.561,-19.567,-19.57,-19.572,-19.564,-19.568,-19.571,-19.569,-19.559,-19.549,-19.562,-19.576,-19.579,-19.569,-19.561,-19.588,-19.648,-19.651,-19.539,-19.332,-19.073,-18.922,-18.621,-18.319,-18.264,-18.535,-18.99,-19.404,-19.689,-19.655,-19.618,-19.556,-19.513,-19.493,-19.49,-19.497,-19.504,-19.51,-19.502,-19.495,-19.496,-19.496,-19.499,-19.494,-19.486,-19.476,-19.479,-19.493,-19.494,-19.482,-19.472,-19.471,-19.471,-19.464,-19.45,-19.442,-19.445,-19.454,-19.44,-19.428,-19.421,-19.419,-19.416,-19.419,-19.41,-19.392,-19.381,-19.373,-19.369,-19.353,-19.336,-19.322,-19.319,-19.312,-19.294,-19.266,-19.251,-19.243,-19.227,-19.21,-19.184,-19.175,-19.155,-19.151,-19.139,-19.122,-19.103,-19.091,-19.09,-19.079,-19.067,-19.062,-19.076,-19.102,-19.121,-19.144,-19.171,-19.207,-19.252,-19.294,-19.325,-19.338,-19.366,-19.407,-19.439,-19.465,-19.472,-19.488,-19.507,-19.52,-19.519,-19.513,-19.518,-19.53,-19.539,-19.54,-19.53,-19.529,-19.533,-19.544,-19.535,-19.529,-19.525,-19.524,-19.53,-19.531,-19.522,-19.517,-19.515,-19.521,-19.522,-19.513,-19.505,-19.5,-19.518,-19.52,-19.511,-19.512,-19.506,-19.515,-19.514,-19.509,-19.504,-19.507,-19.512,-19.517,-19.515,-19.505,-19.511,-19.516,-19.524,-19.522,-19.514,-19.517,-19.524,-19.53,-19.529,-19.518,-19.523,-19.532,-19.539,-19.537,-19.531,-19.53,-19.529,-19.54,-19.538,-19.535,-19.526,-19.53,-19.541,-19.541,-19.533,-19.531,-19.535,-19.539,-19.536,-19.524,-19.525,-19.526,-19.538,-19.537,-19.537,-19.529,-19.531,-19.533,-19.526,-19.511,-19.503,-19.495,-19.498,-19.498,-19.478,-19.446,-19.423,-19.412,-19.418,-19.434,-19.449,-19.463,-19.476,-19.489,-19.491,-19.484,-19.5,-19.517,-19.543,-19.552,-19.544,-19.55,-19.554,-19.566,-19.566,-19.553,-19.555,-19.559,-19.568,-19.566,-19.557,-19.558,-19.562,-19.568,-19.569,-19.566,-19.559,-19.572,-19.613,-19.654,-19.588,-19.433,-19.214,-18.972,-18.694,-18.325,-18.238,-18.48,-18.941,-19.358,-19.635,-19.667,-19.607,-19.553,-19.509,-19.489,-19.467,-19.491,-19.489,-19.504,-19.489,-19.488,-19.474,-19.495,-19.486,-19.494,-19.47,-19.473,-19.47,-19.479,-19.465,-19.454,-19.445,-19.454,-19.45,-19.451,-19.436,-19.434,-19.43,-19.426,-19.417,-19.412,-19.394,-19.399,-19.404,-19.396,-19.382,-19.363,-19.357,-19.361,-19.347,-19.329,-19.309,-19.297,-19.295,-19.287,-19.268,-19.243,-19.228,-19.218,-19.203,-19.182,-19.152,-19.134,-19.125,-19.11,-19.095,-19.067,-19.053,-19.047,-19.043,-19.029,-19.021,-19.017,-19.025,-19.044,-19.065,-19.082,-19.117,-19.15,-19.2,-19.233,-19.268,-19.302,-19.336,-19.373,-19.404,-19.414,-19.428,-19.448,-19.477,-19.477,-19.482,-19.483,-19.485,-19.495,-19.502,-19.492,-19.487,-19.488,-19.501,-19.501,-19.499,-19.49,-19.493,-19.498,-19.503,-19.494,-19.488,-19.484,-19.493,-19.495,-19.486,-19.472,-19.47,-19.475,-19.486,-19.483,-19.478,-19.474,-19.479,-19.489,-19.486,-19.477,-19.472,-19.478,-19.49,-19.487,-19.479,-19.477,-19.481,-19.496,-19.494,-19.485,-19.482,-19.484,-19.494,-19.504,-19.495,-19.485,-19.489,-19.497,-19.5,-19.502,-19.489,-19.492,-19.497,-19.504,-19.501,-19.494,-19.497,-19.504,-19.51,-19.508,-19.503,-19.499,-19.502,-19.515,-19.511,-19.499,-19.501,-19.503,-19.516,-19.509,-19.503,-19.505,-19.504,-19.511,-19.512,-19.503,-19.505,-19.503,-19.519,-19.519,-19.513,-19.508,-19.51,-19.51,-19.52,-19.514,-19.499,-19.506,-19.508,-19.509,-19.504,-19.499,-19.501,-19.515,-19.513,-19.504,-19.501,-19.498,-19.506,-19.511,-19.511,-19.504,-19.508,-19.512,-19.516,-19.515,-19.501,-19.505,-19.5,-19.516,-19.514,-19.504,-19.506,-19.511,-19.513,-19.513,-19.504,-19.506,-19.505,-19.521,-19.518,-19.512,-19.508,-19.508,-19.508,-19.498,-19.483,-19.479,-19.47,-19.468,-19.465,-19.444,-19.413,-19.393,-19.397,-19.412,-19.419,-19.438,-19.443,-19.459,-19.473,-19.473,-19.476,-19.492,-19.518,-19.524,-19.525,-19.523,-19.531,-19.54,-19.546,-19.546,-19.538,-19.541,-19.544,-19.549,-19.547,-19.537,-19.541,-19.547,-19.554,-19.553,-19.55,-19.548,-19.581,-19.627,-19.599,-19.461,-19.248,-19.027,-18.794,-18.419,-18.252,-18.41,-18.845,-19.285,-19.578,-19.661,-19.596,-19.528,-19.462,-19.462,-19.459,-19.472,-19.475,-19.497,-19.487,-19.494,-19.477,-19.481,-19.479,-19.487,-19.475,-19.47,-19.463,-19.469,-19.465,-19.465,-19.449,-19.451,-19.452,-19.45,-19.443,-19.434,-19.426,-19.425,-19.426,-19.42,-19.405,-19.396,-19.395,-19.396,-19.387,-19.371,-19.354,-19.348,-19.349,-19.336,-19.321,-19.3,-19.289,-19.286,-19.273,-19.254,-19.225,-19.206,-19.195,-19.175,-19.154,-19.129,-19.122,-19.113,-19.098,-19.08,-19.059,-19.045,-19.042,-19.031,-19.02,-19.003,-19.008,-19.012,-19.033,-19.046,-19.072,-19.099,-19.138,-19.188,-19.222,-19.254,-19.297,-19.331,-19.374,-19.4,-19.416,-19.433,-19.45,-19.474,-19.48,-19.482,-19.49,-19.493,-19.507,-19.51,-19.508,-19.5,-19.504,-19.51,-19.518,-19.515,-19.507,-19.499,-19.504,-19.5,-19.503,-19.493,-19.496,-19.504,-19.504,-19.494,-19.484,-19.483,-19.49,-19.497,-19.501,-19.489,-19.491,-19.494,-19.503,-19.498,-19.488,-19.482,-19.488,-19.502,-19.499,-19.492,-19.491,-19.499,-19.509,-19.504,-19.497,-19.499,-19.504,-19.515,-19.515,-19.513,-19.509,-19.507,-19.521,-19.526,-19.521,-19.518,-19.519,-19.532,-19.533,-19.523,-19.517,-19.516,-19.521,-19.53,-19.524,-19.523,-19.521,-19.529,-19.537,-19.53,-19.522,-19.526,-19.531,-19.539,-19.529,-19.516,-19.518,-19.524,-19.535,-19.533,-19.527,-19.529,-19.528,-19.534,-19.532,-19.53,-19.534,-19.537,-19.544,-19.541,-19.534,-19.53,-19.534,-19.549,-19.548,-19.533,-19.533,-19.536,-19.545,-19.54,-19.536,-19.532,-19.538,-19.549,-19.547,-19.538,-19.534,-19.536,-19.541,-19.545,-19.537,-19.527,-19.529,-19.53,-19.523,-19.514,-19.496,-19.491,-19.478,-19.464,-19.435,-19.428,-19.452,-19.486,-19.496,-19.487,-19.482,-19.494,-19.503,-19.517,-19.535,-19.542,-19.553,-19.554,-19.567,-19.579,-19.565,-19.567,-19.568,-19.574,-19.575,-19.575,-19.575,-19.579,-19.58,-19.582,-19.577,-19.569,-19.57,-19.58,-19.582,-19.573,-19.566,-19.599,-19.652,-19.628,-19.494,-19.273,-19.022,-18.77,-18.416,-18.308,-18.459,-18.888,-19.318,-19.651,-19.727,-19.692,-19.623,-19.539,-19.51,-19.493,-19.507,-19.492,-19.517,-19.512,-19.52,-19.496,-19.511,-19.503,-19.521,-19.504,-19.502,-19.489,-19.501,-19.493,-19.498,-19.479,-19.475,-19.469,-19.485,-19.475,-19.47,-19.448,-19.455,-19.453,-19.447,-19.44,-19.43,-19.426,-19.427,-19.415,-19.404,-19.385,-19.379,-19.383,-19.382,-19.366,-19.347,-19.332,-19.326,-19.315,-19.3,-19.273,-19.251,-19.236,-19.232,-19.215,-19.186,-19.165,-19.152,-19.14,-19.12,-19.1,-19.093,-19.091,-19.09,-19.083,-19.061,-19.056,-19.058,-19.089,-19.108,-19.128,-19.146,-19.183,-19.228,-19.271,-19.307,-19.339,-19.372,-19.416,-19.439,-19.462,-19.469,-19.487,-19.497,-19.52,-19.524,-19.522,-19.529,-19.533,-19.54,-19.546,-19.536,-19.539,-19.541,-19.549,-19.543,-19.534,-19.53,-19.537,-19.547,-19.542,-19.522,-19.526,-19.531,-19.543,-19.542,-19.535,-19.523,-19.524,-19.533,-19.53,-19.519,-19.512,-19.52,-19.537,-19.539,-19.534,-19.525,-19.522,-19.532,-19.533,-19.532,-19.535,-19.538,-19.541,-19.545,-19.548,-19.536,-19.539,-19.548,-19.559,-19.554,-19.543,-19.543,-19.552,-19.558,-19.556,-19.552,-19.553,-19.559,-19.566,-19.56,-19.554,-19.551,-19.549,-19.569,-19.57,-19.558,-19.555,-19.56,-19.569,-19.565,-19.555,-19.558,-19.56,-19.574,-19.567,-19.555,-19.554,-19.559,-19.568,-19.559,-19.541,-19.538,-19.533,-19.535,-19.531,-19.517,-19.492,-19.465,-19.452,-19.452,-19.457,-19.467,-19.488,-19.499,-19.523,-19.518,-19.519,-19.539,-19.567,-19.583,-19.578,-19.578,-19.584,-19.588,-19.596,-19.595,-19.579,-19.583,-19.586,-19.599,-19.597,-19.595,-19.593,-19.596,-19.606,-19.599,-19.587,-19.586,-19.585,-19.592,-19.593,-19.612,-19.633,-19.674,-19.627,-19.478,-19.242,-18.971,-18.678,-18.36,-18.296,-18.543,-18.984,-19.404,-19.705,-19.719,-19.658,-19.579,-19.521,-19.516,-19.518,-19.524,-19.511,-19.523,-19.516,-19.534,-19.521,-19.514,-19.508,-19.515,-19.509,-19.52,-19.501,-19.506,-19.5,-19.51,-19.496,-19.481,-19.468,-19.47,-19.467,-19.472,-19.458,-19.447,-19.448,-19.456,-19.445,-19.435,-19.416,-19.416,-19.417,-19.411,-19.395,-19.379,-19.371,-19.37,-19.354,-19.337,-19.315,-19.304,-19.297,-19.279,-19.272,-19.246,-19.232,-19.223,-19.207,-19.185,-19.156,-19.14,-19.13,-19.12,-19.107,-19.089,-19.076,-19.076,-19.075,-19.077,-19.076,-19.089,-19.121,-19.148,-19.164,-19.187,-19.222,-19.264,-19.315,-19.351,-19.378,-19.404,-19.429,-19.462,-19.483,-19.488,-19.494,-19.504,-19.522,-19.524,-19.532,-19.525,-19.543,-19.553,-19.554,-19.549,-19.538,-19.536,-19.548,-19.546,-19.546,-19.53,-19.53,-19.536,-19.541,-19.533,-19.526,-19.525,-19.53,-19.533,-19.528,-19.516,-19.52,-19.521,-19.529,-19.531,-19.524,-19.521,-19.529,-19.542,-19.535,-19.528,-19.527,-19.528,-19.542,-19.539,-19.54,-19.537,-19.543,-19.545,-19.547,-19.542,-19.541,-19.546,-19.555,-19.56,-19.555,-19.543,-19.545,-19.551,-19.556,-19.55,-19.546,-19.543,-19.552,-19.553,-19.554,-19.548,-19.549,-19.555,-19.561,-19.555,-19.545,-19.545,-19.548,-19.562,-19.564,-19.555,-19.557,-19.559,-19.567,-19.562,-19.558,-19.556,-19.558,-19.567,-19.562,-19.552,-19.55,-19.551,-19.561,-19.561,-19.556,-19.554,-19.554,-19.566,-19.565,-19.562,-19.549,-19.555,-19.564,-19.57,-19.567,-19.551,-19.555,-19.563,-19.57,-19.562,-19.553,-19.552,-19.565,-19.564,-19.558,-19.553,-19.556,-19.557,-19.554,-19.549,-19.529,-19.524,-19.514,-19.516,-19.504,-19.475,-19.448,-19.44,-19.45,-19.466,-19.476,-19.487,-19.496,-19.522,-19.522,-19.523,-19.542,-19.549,-19.58,-19.587,-19.582,-19.581,-19.587,-19.597,-19.595,-19.593,-19.583,-19.589,-19.596,-19.598,-19.587,-19.585,-19.589,-19.597,-19.598,-19.59,-19.585,-19.592,-19.618,-19.669,-19.654,-19.528,-19.334,-19.106,-18.873,-18.515,-18.28,-18.38,-18.794,-19.249,-19.571,-19.696,-19.65,-19.578,-19.517,-19.5,-19.493,-19.509,-19.513,-19.531,-19.526,-19.525,-19.511,-19.523,-19.524,-19.524,-19.507,-19.502,-19.503,-19.509,-19.499,-19.494,-19.479,-19.486,-19.485,-19.482,-19.469,-19.461,-19.457,-19.461,-19.459,-19.45,-19.429,-19.428,-19.428,-19.421,-19.411,-19.393,-19.386,-19.379,-19.374,-19.363,-19.342,-19.33,-19.325,-19.316,-19.297,-19.283,-19.261,-19.252,-19.243,-19.223,-19.193,-19.17,-19.156,-19.147,-19.135,-19.107,-19.092,-19.082,-19.08,-19.061,-19.048,-19.04,-19.042,-19.062,-19.076,-19.081,-19.099,-19.13,-19.175,-19.213,-19.253,-19.276,-19.317,-19.359,-19.399,-19.42,-19.437,-19.457,-19.484,-19.493,-19.505,-19.502,-19.513,-19.523,-19.534,-19.534,-19.53,-19.525,-19.535,-19.538,-19.537,-19.526,-19.526,-19.529,-19.534,-19.537,-19.522,-19.52,-19.523,-19.531,-19.526,-19.518,-19.513,-19.517,-19.525,-19.517,-19.512,-19.507,-19.512,-19.513,-19.521,-19.514,-19.509,-19.511,-19.514,-19.516,-19.515,-19.509,-19.515,-19.523,-19.526,-19.519,-19.514,-19.518,-19.529,-19.531,-19.529,-19.517,-19.522,-19.528,-19.536,-19.537,-19.527,-19.53,-19.531,-19.542,-19.538,-19.53,-19.536,-19.53,-19.544,-19.54,-19.532,-19.532,-19.535,-19.545,-19.536,-19.539,-19.529,-19.529,-19.542,-19.543,-19.535,-19.535,-19.531,-19.541,-19.547,-19.54,-19.534,-19.535,-19.547,-19.544,-19.54,-19.536,-19.534,-19.537,-19.55,-19.549,-19.537,-19.536,-19.539,-19.548,-19.54,-19.539,-19.537,-19.542,-19.549,-19.541,-19.532,-19.534,-19.54,-19.542,-19.541,-19.535,-19.529,-19.534,-19.543,-19.546,-19.536,-19.537,-19.53,-19.545,-19.545,-19.531,-19.529,-19.526,-19.526,-19.525,-19.517,-19.509,-19.497,-19.495,-19.488,-19.467,-19.431,-19.407,-19.411,-19.435,-19.463,-19.462,-19.468,-19.477,-19.49,-19.494,-19.487,-19.512,-19.526,-19.554,-19.553,-19.545,-19.552,-19.558,-19.562,-19.563,-19.555,-19.557,-19.559,-19.571,-19.572,-19.561,-19.558,-19.558,-19.57,-19.566,-19.557,-19.557,-19.555,-19.568,-19.593,-19.627,-19.608,-19.488,-19.295,-19.054,-18.805,-18.435,-18.279,-18.273,-18.589,-19.061,-19.432,-19.666,-19.659,-19.585,-19.502,-19.453,-19.453,-19.478,-19.485,-19.488,-19.472,-19.478,-19.474,-19.484,-19.472,-19.469,-19.46,-19.467,-19.464,-19.465,-19.442,-19.448,-19.442,-19.451,-19.442,-19.432,-19.418,-19.424,-19.422,-19.42,-19.4,-19.395,-19.395,-19.394,-19.386,-19.371,-19.36,-19.36,-19.359,-19.353,-19.338,-19.324,-19.314,-19.304,-19.3,-19.28,-19.256,-19.245,-19.231,-19.216,-19.189,-19.157,-19.143,-19.137,-19.125,-19.101,-19.089,-19.074,-19.066,-19.057,-19.041,-19.011,-19.003,-19.002,-19.006,-19.013,-19.011,-19.032,-19.064,-19.099,-19.136,-19.158,-19.202,-19.244,-19.291,-19.327,-19.341,-19.363,-19.397,-19.421,-19.443,-19.442,-19.451,-19.462,-19.483,-19.486,-19.492,-19.486,-19.495,-19.502,-19.503,-19.491,-19.491,-19.487,-19.496,-19.495,-19.495,-19.481,-19.478,-19.478,-19.484,-19.481,-19.47,-19.466,-19.471,-19.477,-19.477,-19.462,-19.467,-19.469,-19.476,-19.476,-19.47,-19.471,-19.479,-19.485,-19.487,-19.475,-19.469,-19.471,-19.481,-19.484,-19.478,-19.472,-19.48,-19.488,-19.486,-19.493,-19.487,-19.484,-19.495,-19.494,-19.492,-19.487,-19.494,-19.506,-19.505,-19.5,-19.487,-19.487,-19.499,-19.504,-19.502,-19.498,-19.498,-19.503,-19.506,-19.503,-19.491,-19.495,-19.503,-19.51,-19.508,-19.498,-19.498,-19.507,-19.514,-19.512,-19.501,-19.498,-19.496,-19.513,-19.505,-19.498,-19.496,-19.504,-19.512,-19.514,-19.506,-19.501,-19.503,-19.51,-19.51,-19.505,-19.5,-19.495,-19.504,-19.502,-19.498,-19.488,-19.481,-19.486,-19.48,-19.464,-19.44,-19.414,-19.386,-19.394,-19.409,-19.433,-19.444,-19.442,-19.451,-19.46,-19.456,-19.472,-19.498,-19.513,-19.531,-19.523,-19.523,-19.526,-19.536,-19.532,-19.531,-19.535,-19.532,-19.543,-19.542,-19.529,-19.528,-19.533,-19.536,-19.537,-19.529,-19.534,-19.53,-19.534,-19.539,-19.56,-19.602,-19.596,-19.49,-19.3,-19.04,-18.768,-18.414,-18.266,-18.36,-18.758,-19.188,-19.562,-19.68,-19.638,-19.56,-19.469,-19.45,-19.436,-19.467,-19.461,-19.462,-19.458,-19.472,-19.466,-19.477,-19.454,-19.461,-19.448,-19.464,-19.452,-19.444,-19.432,-19.438,-19.437,-19.44,-19.418,-19.421,-19.417,-19.423,-19.418,-19.405,-19.391,-19.39,-19.392,-19.392,-19.37,-19.371,-19.366,-19.36,-19.347,-19.331,-19.318,-19.318,-19.312,-19.297,-19.272,-19.254,-19.246,-19.242,-19.23,-19.21,-19.18,-19.162,-19.149,-19.138,-19.123,-19.092,-19.077,-19.066,-19.052,-19.034,-19.014,-19.005,-19.006,-19.01,-19.009,-19.002,-19.015,-19.038,-19.07,-19.093,-19.128,-19.165,-19.204,-19.246,-19.286,-19.31,-19.337,-19.371,-19.4,-19.411,-19.425,-19.439,-19.453,-19.466,-19.468,-19.469,-19.462,-19.454,-19.471,-19.475,-19.48,-19.467,-19.47,-19.477,-19.479,-19.47,-19.457,-19.46,-19.469,-19.469,-19.468,-19.457,-19.457,-19.461,-19.463,-19.462,-19.459,-19.456,-19.457,-19.465,-19.47,-19.462,-19.454,-19.453,-19.463,-19.459,-19.453,-19.453,-19.461,-19.473,-19.474,-19.469,-19.464,-19.463,-19.479,-19.475,-19.475,-19.466,-19.472,-19.48,-19.485,-19.483,-19.474,-19.47,-19.478,-19.479,-19.483,-19.476,-19.481,-19.49,-19.491,-19.482,-19.472,-19.474,-19.48,-19.484,-19.481,-19.473,-19.469,-19.475,-19.485,-19.485,-19.477,-19.479,-19.485,-19.488,-19.486,-19.479,-19.473,-19.48,-19.485,-19.475,-19.46,-19.457,-19.45,-19.456,-19.447,-19.427,-19.385,-19.364,-19.362,-19.368,-19.372,-19.388,-19.406,-19.422,-19.435,-19.438,-19.448,-19.46,-19.49,-19.505,-19.494,-19.487,-19.488,-19.502,-19.504,-19.505,-19.499,-19.496,-19.502,-19.515,-19.509,-19.5,-19.503,-19.503,-19.513,-19.509,-19.496,-19.498,-19.499,-19.526,-19.567,-19.583,-19.499,-19.333,-19.108,-18.966,-18.69,-18.311,-18.219,-18.376,-18.812,-19.218,-19.572,-19.621,-19.586,-19.521,-19.441,-19.418,-19.406,-19.449,-19.442,-19.446,-19.42,-19.437,-19.435,-19.442,-19.424,-19.415,-19.411,-19.422,-19.416,-19.417,-19.403,-19.411,-19.41,-19.419,-19.403,-19.39,-19.378,-19.383,-19.38,-19.373,-19.351,-19.353,-19.349,-19.356,-19.347,-19.327,-19.314,-19.312,-19.31,-19.281,-19.262,-19.266,-19.259,-19.252,-19.242,-19.225,-19.207,-19.18,-19.16,-19.155,-19.128,-19.116,-19.104,-19.091,-19.063,-19.053,-19.042,-19.038,-19.028,-19.018,-19.011,-18.987,-18.988,-18.99,-19.005,-19.011,-19.014,-19.044,-19.086,-19.126,-19.158,-19.18,-19.227,-19.246,-19.287,-19.32,-19.339,-19.359,-19.384,-19.406,-19.422,-19.423,-19.431,-19.439,-19.453,-19.46,-19.454,-19.45,-19.458,-19.465,-19.468,-19.46,-19.46,-19.459,-19.466,-19.469,-19.466,-19.449,-19.445,-19.45,-19.458,-19.454,-19.441,-19.438,-19.448,-19.451,-19.45,-19.44,-19.451,-19.454,-19.458,-19.451,-19.446,-19.446,-19.457,-19.465,-19.461,-19.454,-19.453,-19.457,-19.467,-19.467,-19.462,-19.456,-19.464,-19.479,-19.476,-19.466,-19.462,-19.464,-19.478,-19.478,-19.47,-19.467,-19.472,-19.482,-19.484,-19.478,-19.467,-19.47,-19.485,-19.487,-19.481,-19.475,-19.48,-19.487,-19.488,-19.483,-19.476,-19.479,-19.491,-19.49,-19.49,-19.484,-19.48,-19.489,-19.498,-19.496,-19.487,-19.488,-19.493,-19.499,-19.493,-19.482,-19.487,-19.486,-19.495,-19.488,-19.467,-19.462,-19.465,-19.466,-19.457,-19.446,-19.43,-19.409,-19.391,-19.38,-19.371,-19.383,-19.412,-19.433,-19.437,-19.446,-19.442,-19.455,-19.486,-19.505,-19.506,-19.505,-19.509,-19.526,-19.524,-19.52,-19.512,-19.522,-19.527,-19.531,-19.532,-19.529,-19.521,-19.526,-19.539,-19.531,-19.527,-19.523,-19.534,-19.559,-19.596,-19.603,-19.51,-19.336,-19.106,-18.857,-18.707,-18.333,-18.202,-18.425,-18.867,-19.297,-19.574,-19.643,-19.584,-19.518,-19.439,-19.444,-19.441,-19.476,-19.457,-19.47,-19.459,-19.468,-19.458,-19.469,-19.452,-19.453,-19.438,-19.455,-19.446,-19.449,-19.421,-19.428,-19.42,-19.429,-19.41,-19.403,-19.394,-19.404,-19.398,-19.394,-19.378,-19.382,-19.379,-19.378,-19.372,-19.354,-19.345,-19.342,-19.337,-19.329,-19.309,-19.3,-19.287,-19.282,-19.265,-19.247,-19.224,-19.215,-19.205,-19.184,-19.161,-19.141,-19.125,-19.117,-19.11,-19.09,-19.067,-19.051,-19.046,-19.041,-19.029,-19.008,-19.007,-19.011,-19.022,-19.028,-19.041,-19.071,-19.115,-19.151,-19.192,-19.217,-19.264,-19.307,-19.333,-19.359,-19.383,-19.406,-19.439,-19.459,-19.475,-19.47,-19.486,-19.484,-19.505,-19.502,-19.501,-19.495,-19.499,-19.503,-19.503,-19.485,-19.483,-19.479,-19.491,-19.493,-19.495,-19.479,-19.482,-19.488,-19.497,-19.487,-19.488,-19.492,-19.502,-19.503,-19.503,-19.489,-19.489,-19.489,-19.497,-19.495,-19.491,-19.488,-19.491,-19.5,-19.5,-19.498,-19.5,-19.502,-19.516,-19.51,-19.503,-19.5,-19.513,-19.512,-19.506,-19.492,-19.495,-19.503,-19.514,-19.52,-19.509,-19.502,-19.507,-19.513,-19.525,-19.514,-19.508,-19.517,-19.526,-19.529,-19.524,-19.511,-19.515,-19.513,-19.522,-19.517,-19.5,-19.508,-19.519,-19.522,-19.519,-19.506,-19.508,-19.516,-19.52,-19.513,-19.499,-19.502,-19.509,-19.515,-19.508,-19.497,-19.496,-19.5,-19.501,-19.505,-19.493,-19.498,-19.498,-19.505,-19.502,-19.491,-19.487,-19.498,-19.508,-19.508,-19.5,-19.492,-19.493,-19.497,-19.497,-19.494,-19.493,-19.509,-19.514,-19.512,-19.499,-19.497,-19.5,-19.505,-19.513,-19.501,-19.488,-19.491,-19.496,-19.489,-19.475,-19.462,-19.446,-19.426,-19.404,-19.397,-19.381,-19.404,-19.427,-19.445,-19.446,-19.457,-19.459,-19.491,-19.508,-19.517,-19.515,-19.52,-19.525,-19.549,-19.548,-19.533,-19.524,-19.527,-19.547,-19.552,-19.54,-19.536,-19.541,-19.547,-19.544,-19.543,-19.541,-19.544,-19.562,-19.585,-19.61,-19.597,-19.498,-19.327,-19.092,-18.83,-18.496,-18.313,-18.363,-18.741,-19.167,-19.538,-19.688,-19.657,-19.596,-19.511,-19.462,-19.451,-19.484,-19.476,-19.484,-19.473,-19.481,-19.481,-19.486,-19.47,-19.47,-19.462,-19.472,-19.471,-19.466,-19.439,-19.439,-19.441,-19.455,-19.439,-19.437,-19.423,-19.428,-19.427,-19.425,-19.411,-19.401,-19.395,-19.395,-19.391,-19.386,-19.369,-19.356,-19.354,-19.353,-19.339,-19.327,-19.322,-19.314,-19.312,-19.301,-19.272,-19.253,-19.241,-19.219,-19.206,-19.199,-19.176,-19.167,-19.169,-19.136,-19.101,-19.092,-19.077,-19.072,-19.054,-19.033,-19.027,-19.026,-19.037,-19.035,-19.029,-19.049,-19.078,-19.12,-19.137,-19.166,-19.19,-19.221,-19.27,-19.307,-19.33,-19.35,-19.378,-19.411,-19.426,-19.432,-19.432,-19.442,-19.46,-19.463,-19.456,-19.452,-19.461,-19.462,-19.461,-19.463,-19.462,-19.457,-19.452,-19.457,-19.459,-19.444,-19.448,-19.447,-19.448,-19.438,-19.429,-19.429,-19.437,-19.442,-19.435,-19.416,-19.422,-19.431,-19.438,-19.424,-19.416,-19.422,-19.419,-19.427,-19.426,-19.417,-19.417,-19.427,-19.436,-19.429,-19.433,-19.422,-19.429,-19.435,-19.442,-19.431,-19.43,-19.433,-19.443,-19.45,-19.452,-19.444,-19.447,-19.442,-19.456,-19.456,-19.455,-19.465,-19.481,-19.489,-19.485,-19.458,-19.475,-19.484,-19.489,-19.494,-19.461,-19.454,-19.436,-19.419,-19.409,-19.396,-19.4,-19.421,-19.448,-19.464,-19.464,-19.467,-19.478,-19.507,-19.512,-19.514,-19.515,-19.531,-19.541,-19.545,-19.538,-19.527,-19.513,-19.521,-19.523,-19.527,-19.52,-19.513,-19.515,-19.513,-19.507,-19.505,-19.507,-19.503,-19.519,-19.519,-19.523,-19.575,-19.581,-19.451,-19.232,-18.967,-18.669,-18.485,-18.259,-18.222,-18.542,-18.966,-19.381,-19.62,-19.604,-19.547,-19.483,-19.422,-19.417,-19.416,-19.419,-19.425,-19.44,-19.442,-19.432,-19.418,-19.422,-19.421,-19.423,-19.423,-19.423,-19.405,-19.409,-19.412,-19.419,-19.401,-19.38,-19.38,-19.393,-19.388,-19.376,-19.356,-19.353,-19.361,-19.353,-19.346,-19.335,-19.331,-19.333,-19.325,-19.304,-19.293,-19.281,-19.281,-19.279,-19.257,-19.239,-19.231,-19.221,-19.216,-19.194,-19.162,-19.145,-19.136,-19.124,-19.109,-19.082,-19.067,-19.059,-19.06,-19.041,-19.025,-19.004,-19.003,-19.01,-19.002,-19.009,-19.011,-19.038,-19.068,-19.101,-19.124,-19.151,-19.187,-19.238,-19.274,-19.299,-19.308,-19.328,-19.354,-19.384,-19.392,-19.398,-19.411,-19.421,-19.434,-19.43,-19.429,-19.43,-19.438,-19.451,-19.451,-19.44,-19.437,-19.444,-19.454,-19.444,-19.436,-19.427,-19.428,-19.442,-19.443,-19.435,-19.43,-19.421,-19.426,-19.418,-19.423,-19.417,-19.415,-19.427,-19.424,-19.414,-19.41,-19.409,-19.421,-19.424,-19.422,-19.413,-19.409,-19.414,-19.421,-19.427,-19.419,-19.423,-19.429,-19.434,-19.429,-19.421,-19.426,-19.428,-19.444,-19.433,-19.411,-19.409,-19.408,-19.408,-19.406,-19.388,-19.375,-19.354,-19.336,-19.319,-19.313,-19.331,-19.362,-19.379,-19.385,-19.383,-19.393,-19.414,-19.439,-19.463,-19.459,-19.454,-19.463,-19.472,-19.47,-19.463,-19.456,-19.46,-19.472,-19.477,-19.473,-19.46,-19.467,-19.467,-19.47,-19.467,-19.463,-19.463,-19.464,-19.478,-19.518,-19.545,-19.505,-19.367,-19.262,-19.031,-18.734,-18.391,-18.171,-18.222,-18.609,-19.043,-19.425,-19.591,-19.565,-19.515,-19.433,-19.406,-19.387,-19.417,-19.401,-19.401,-19.387,-19.403,-19.392,-19.405,-19.397,-19.399,-19.384,-19.4,-19.385,-19.388,-19.364,-19.372,-19.363,-19.372,-19.363,-19.35,-19.345,-19.354,-19.348,-19.344,-19.323,-19.327,-19.32,-19.324
