-2.9283,-2.9248,-2.92,-2.9203,-2.9117,-2.9205,-2.9302,-2.9322,-2.9431,-2.9583,-2.9778,-2.9985,-3.0214,-3.0475,-3.0733,-3.0905,-3.1162,-3.1334,-3.1436,-3.1547,-3.1691,-3.1748,-3.1715,-3.1676,-3.1704,-3.1798,-3.1819,-3.1835,-3.1879,-3.1899,-3.1941,-3.1896,-3.1793,-3.1788,-3.1835,-3.186,-3.1843,-3.1813,-3.1808,-3.1797,-3.1795,-3.176,-3.1768,-3.178,-3.1757,-3.171,-3.1809,-3.1875,-3.1839,-3.1822,-3.1848,-3.189,-3.1895,-3.1893,-3.1928,-3.1893,-3.2027,-3.2005,-3.2064,-3.2084,-3.2083,-3.2076,-3.2066,-3.2161,-3.2151,-3.2158,-3.2141,-3.2152,-3.2224,-3.2181,-3.2085,-3.2127,-3.2169,-3.2196,-3.2235,-3.2301,-3.2358,-3.2337,-3.2311,-3.222,-3.215,-3.2031,-3.196,-3.196,-3.1935,-3.185,-3.1783,-3.1882,-3.1987,-3.2013,-3.1813,-3.1748,-3.1749,-3.1796,-3.1836,-3.2021,-3.2234,-3.2247,-3.2358,-3.2415,-3.2402,-3.2491,-3.2466,-3.254,-3.2447,-3.2345,-3.241,-3.2473,-3.254,-3.2222,-3.1096,-2.9351,-2.6912,-2.4225,-2.2525,-2.4283,-2.8608,-3.1078,-3.2126,-3.3253,-3.3765,-3.3688,-3.2398,-3.2111,-3.2253,-3.2375,-3.2443,-3.2455,-3.2451,-3.2444,-3.2413,-3.2308,-3.2438,-3.2442,-3.234,-3.228,-3.2268,-3.2188,-3.2256,-3.2243,-3.2251,-3.2149,-3.2145,-3.2126,-3.2071,-3.1917,-3.1882,-3.1841,-3.1696,-3.1636,-3.1577,-3.1588,-3.155,-3.15,-3.139,-3.1112,-3.1065,-3.1031,-3.099,-3.0815,-3.0628,-3.0455,-3.0404,-3.0366,-3.0307,-3.0157,-3.0123,-3.0092,-3.0036,-2.9919,-2.9732,-2.9738,-2.9872,-2.9866,-2.9803,-2.9817,-2.9989,-3.0127,-3.0371,-3.0456,-3.0544,-3.0798,-3.1038,-3.118,-3.1425,-3.1637,-3.181,-3.1893,-3.2037,-3.2114,-3.2196,-3.226,-3.2319,-3.2348,-3.2362,-3.2242,-3.225,-3.2371,-3.2527,-3.2456,-3.2336,-3.2408,-3.2406,-3.2364,-3.2317,-3.2286,-3.2275,-3.2315,-3.231,-3.2317,-3.2294,-3.2271,-3.2244,-3.2182,-3.2264,-3.2221,-3.2254,-3.2282,-3.2224,-3.2151,-3.2213,-3.2232,-3.2306,-3.2321,-3.2364,-3.2437,-3.2356,-3.237,-3.2352,-3.2402,-3.2479,-3.2524,-3.2512,-3.253,-3.2463,-3.2468,-3.2544,-3.262,-3.2621,-3.2637,-3.2589,-3.2638,-3.263,-3.2617,-3.2644,-3.2573,-3.2513,-3.2552,-3.2518,-3.2384,-3.2226,-3.2213,-3.2151,-3.2199,-3.2084,-3.2121,-3.2205,-3.2286,-3.2201,-3.201,-3.207,-3.2121,-3.2038,-3.2258,-3.2546,-3.27,-3.2752,-3.2754,-3.2734,-3.2726,-3.2648,-3.2644,-3.2483,-3.2498,-3.2682,-3.2816,-3.2805,-3.229,-3.1079,-2.9396,-2.6951,-2.4351,-2.2974,-2.5079,-2.937,-3.1408,-3.2344,-3.3502,-3.3964,-3.4069,-3.3478,-3.229,-3.2299,-3.2503,-3.2628,-3.2688,-3.2687,-3.2637,-3.2544,-3.2445,-3.2491,-3.2564,-3.2519,-3.2442,-3.242,-3.2427,-3.2366,-3.2287,-3.2214,-3.2263,-3.2221,-3.2252,-3.2184,-3.2139,-3.2015,-3.1914,-3.1844,-3.1734,-3.1722,-3.1742,-3.1664,-3.1546,-3.1422,-3.1276,-3.1217,-3.1153,-3.0913,-3.0805,-3.074,-3.0728,-3.0694,-3.0639,-3.0471,-3.0307,-3.021,-3.0227,-3.0266,-3.0238,-3.0099,-3.0115,-3.0078,-2.9937,-2.9977,-3.0071,-3.0205,-3.0327,-3.0487,-3.0601,-3.0762,-3.0876,-3.108,-3.125,-3.1482,-3.1891,-3.2063,-3.2115,-3.2174,-3.2328,-3.2476,-3.2523,-3.2599,-3.2623,-3.263,-3.2645,-3.268,-3.2675,-3.2746,-3.2705,-3.2661,-3.2655,-3.2606,-3.2575,-3.2434,-3.2493,-3.247,-3.2549,-3.2508,-3.2552,-3.2588,-3.2531,-3.2488,-3.2533,-3.2517,-3.2486,-3.2518,-3.2503,-3.2556,-3.2494,-3.2442,-3.2513,-3.2407,-3.2577,-3.2578,-3.2619,-3.2652,-3.2648,-3.2613,-3.2719,-3.283,-3.2801,-3.2818,-3.2715,-3.2809,-3.287,-3.291,-3.2811,-3.2851,-3.2828,-3.2829,-3.2726,-3.268,-3.2552,-3.2507,-3.2435,-3.2476,-3.2468,-3.2458,-3.2343,-3.2335,-3.2431,-3.247,-3.2342,-3.2261,-3.2205,-3.2278,-3.2313,-3.2498,-3.2727,-3.2837,-3.284,-3.289,-3.2853,-3.2836,-3.2826,-3.2868,-3.2786,-3.2793,-3.2744,-3.2839,-3.2772,-3.2416,-3.1485,-2.9861,-2.756,-2.5223,-2.3826,-2.5,-2.8899,-3.1494,-3.1812,-3.2396,-3.3584,-3.4509,-3.4198,-3.3138,-3.2478,-3.2702,-3.28,-3.2777,-3.2738,-3.2736,-3.2817,-3.2759,-3.2734,-3.2647,-3.2646,-3.2623,-3.2725,-3.255,-3.2536,-3.2506,-3.2511,-3.249,-3.243,-3.2347,-3.2314,-3.2207,-3.2151,-3.2136,-3.2131,-3.2066,-3.202,-3.1945,-3.1823,-3.1664,-3.1617,-3.1535,-3.1521,-3.1318,-3.1276,-3.1175,-3.109,-3.0974,-3.0927,-3.0863,-3.0798,-3.0695,-3.0695,-3.0627,-3.0581,-3.054,-3.0477,-3.0447,-3.0481,-3.0434,-3.0526,-3.0499,-3.0453,-3.0539,-3.0683,-3.0762,-3.0969,-3.1139,-3.1389,-3.1471,-3.1609,-3.1794,-3.1999,-3.2168,-3.2336,-3.2496,-3.255,-3.2595,-3.2634,-3.2678,-3.2645,-3.2655,-3.2625,-3.2738,-3.2737,-3.2735,-3.2606,-3.2628,-3.2554,-3.2643,-3.2591,-3.2548,-3.2482,-3.2519,-3.2507,-3.2483,-3.2451,-3.2386,-3.2383,-3.2344,-3.237,-3.2404,-3.245,-3.2512,-3.2436,-3.2431,-3.2354,-3.2352,-3.2448,-3.2526,-3.2567,-3.2602,-3.2514,-3.2521,-3.2512,-3.2575,-3.257,-3.2614,-3.2504,-3.246,-3.2321,-3.2234,-3.2244,-3.2227,-3.2237,-3.2084,-3.2048,-3.2078,-3.2132,-3.2147,-3.2116,-3.1948,-3.2102,-3.2166,-3.2235,-3.2479,-3.2652,-3.2663,-3.2691,-3.2716,-3.2681,-3.2742,-3.269,-3.271,-3.2717,-3.2668,-3.2742,-3.2605,-3.2577,-3.2072,-3.1006,-2.9148,-2.6785,-2.4757,-2.3874,-2.6418,-3.0194,-3.1557,-3.2163,-3.3312,-3.4368,-3.4074,-3.3248,-3.2449,-3.2524,-3.2695,-3.2656,-3.2723,-3.2687,-3.2686,-3.2667,-3.2634,-3.2577,-3.2611,-3.2614,-3.257,-3.2552,-3.2523,-3.2449,-3.2408,-3.231,-3.2367,-3.2239,-3.221,-3.2148,-3.2136,-3.2159,-3.2125,-3.2024,-3.1971,-3.189,-3.1859,-3.1739,-3.1634,-3.1444,-3.1417,-3.1462,-3.1328,-3.1084,-3.1063,-3.1043,-3.0993,-3.0901,-3.078,-3.0759,-3.0588,-3.0583,-3.0546,-3.0531,-3.0513,-3.0425,-3.0396,-3.0369,-3.0409,-3.0398,-3.0498,-3.0561,-3.0673,-3.0856,-3.102,-3.1228,-3.1466,-3.1665,-3.1818,-3.2009,-3.2165,-3.2239,-3.2377,-3.2482,-3.2556,-3.2629,-3.2628,-3.2653,-3.269,-3.27,-3.2626,-3.2657,-3.2701,-3.2708,-3.264,-3.2596,-3.2528,-3.2507,-3.2495,-3.2483,-3.2508,-3.252,-3.2485,-3.2442,-3.2413,-3.236,-3.2348,-3.2315,-3.2261,-3.2194,-3.2187,-3.2173,-3.2165,-3.2114,-3.2109,-3.2048,-3.1964,-3.1901,-3.1849,-3.1828,-3.1703,-3.1584,-3.1563,-3.151,-3.1714,-3.1775,-3.1697,-3.163,-3.162,-3.1755,-3.1847,-3.2078,-3.2242,-3.2348,-3.2366,-3.2368,-3.2304,-3.2319,-3.2296,-3.228,-3.2247,-3.2237,-3.225,-3.2291,-3.2383,-3.1937,-3.0927,-2.9213,-2.6867,-2.4693,-2.3349,-2.4904,-2.8861,-3.0977,-3.189,-3.3158,-3.3735,-3.348,-3.2282,-3.1845,-3.2004,-3.21,-3.2193,-3.2096,-3.2131,-3.2107,-3.2184,-3.2124,-3.2124,-3.2066,-3.2054,-3.1969,-3.1959,-3.192,-3.1882,-3.1809,-3.1777,-3.1803,-3.1782,-3.1754,-3.1716,-3.1728,-3.1811,-3.1705,-3.1636,-3.1408,-3.1395,-3.1382,-3.1388,-3.1396,-3.1245,-3.1169,-3.1012,-3.0837,-3.0786,-3.0617,-3.0426,-3.034,-3.0169,-3.0041,-2.9965,-3.0023,-2.9982,-3.0005,-2.9946,-2.9933,-2.9852,-2.9848,-2.9817,-2.993,-2.9965,-3.0044,-3.0156,-3.0402,-3.0561,-3.0847,-3.1044,-3.1298,-3.1479,-3.1706,-3.1877,-3.2046,-3.208,-3.2202,-3.2299,-3.2297,-3.2362,-3.2421,-3.245,-3.2449,-3.2481,-3.2503,-3.2441,-3.2418,-3.2422,-3.2365,-3.2351,-3.231,-3.2281,-3.2275,-3.2239,-3.2221,-3.2237,-3.2199,-3.2187,-3.2147,-3.2119,-3.2105,-3.2115,-3.2088,-3.2088,-3.2051,-3.2045,-3.2008,-3.1905,-3.1765,-3.1654,-3.1556,-3.1619,-3.1587,-3.1406,-3.1338,-3.1439,-3.1477,-3.1568,-3.1499,-3.1352,-3.1411,-3.1478,-3.154,-3.1742,-3.199,-3.209,-3.2109,-3.2133,-3.2106,-3.2095,-3.2042,-3.2029,-3.2072,-3.201,-3.2038,-3.2089,-3.2132,-3.1957,-3.1147,-2.9684,-2.7554,-2.517,-2.3491,-2.3828,-2.7454,-3.068,-3.1587,-3.2729,-3.3495,-3.3489,-3.2549,-3.1805,-3.1872,-3.2027,-3.2052,-3.2062,-3.2045,-3.2043,-3.2003,-3.1971,-3.1951,-3.1923,-3.1875,-3.1812,-3.1767,-3.1769,-3.1738,-3.17,-3.1646,-3.163,-3.1584,-3.15,-3.1438,-3.1399,-3.1298,-3.1229,-3.1222,-3.1155,-3.1105,-3.0969,-3.0838,-3.0745,-3.0592,-3.0494,-3.0352,-3.0235,-3.0116,-3.0063,-2.9956,-2.9864,-2.9732,-2.9646,-2.9644,-2.955,-2.9483,-2.9421,-2.937,-2.9328,-2.9293,-2.927,-2.925,-2.9236,-2.9287,-2.9312,-2.9384,-2.9569,-2.9731,-2.9935,-3.0132,-3.0344,-3.0542,-3.0751,-3.0968,-3.1105,-3.1237,-3.134,-3.1453,-3.149,-3.151,-3.1557,-3.1575,-3.1547,-3.1573,-3.1589,-3.1583,-3.1554,-3.1509,-3.1488,-3.1496,-3.1468,-3.1398,-3.1361,-3.135,-3.1282,-3.1294,-3.1272,-3.1306,-3.1303,-3.1317,-3.1333,-3.1295,-3.1291,-3.127,-3.1306,-3.131,-3.1287,-3.1273,-3.1186,-3.1138,-3.1036,-3.0933,-3.086,-3.0851,-3.087,-3.0829,-3.0696,-3.0717,-3.0723,-3.0804,-3.0847,-3.0724,-3.0647,-3.0693,-3.0821,-3.0974,-3.1236,-3.1381,-3.1433,-3.1451,-3.1429,-3.1439,-3.1375,-3.1375,-3.136,-3.133,-3.1331,-3.1351,-3.1328,-3.1358,-3.0916,-2.9826,-2.7897,-2.5272,-2.2945,-2.1956,-2.4573,-2.8704,-3.0242,-3.1265,-3.2332,-3.2614,-3.2277,-3.0967,-3.0918,-3.115,-3.119,-3.123,-3.1185,-3.1217,-3.1163,-3.1219,-3.1122,-3.1132,-3.1062,-3.1059,-3.0975,-3.0957,-3.0881,-3.0864,-3.0778,-3.0747,-3.0681,-3.066,-3.0546,-3.0539,-3.0483,-3.0429,-3.0375,-3.0302,-3.0209,-3.0142,-3.0015,-2.9919,-2.98,-2.9688,-2.9558,-2.9444,-2.9302,-2.9219,-2.9162,-2.9036,-2.8932,-2.8818,-2.8733,-2.8655,-2.8601,-2.8515,-2.8459,-2.8416,-2.8387,-2.8375,-2.8363,-2.8356,-2.8368,-2.8431,-2.8528,-2.8613,-2.8764,-2.8945,-2.9156,-2.9387,-2.9642,-2.9842,-3.0035,-3.0212,-3.0372,-3.0495,-3.0612,-3.0639,-3.0724,-3.0778,-3.0825,-3.0859,-3.0864,-3.0828,-3.0856,-3.0863,-3.0904,-3.0876,-3.0873,-3.0854,-3.0838,-3.0778,-3.0757,-3.0773,-3.0741,-3.0709,-3.0722,-3.07,-3.0697,-3.0711,-3.0747,-3.0747,-3.0736,-3.0695,-3.0696,-3.0708,-3.0737,-3.0742,-3.076,-3.0779,-3.0842,-3.0853,-3.0844,-3.0819,-3.0821,-3.0794,-3.0725,-3.0659,-3.0582,-3.0561,-3.0609,-3.0647,-3.0578,-3.0396,-3.0452,-3.0518,-3.0526,-3.0394,-3.036,-3.0352,-3.046,-3.0582,-3.0803,-3.0977,-3.1054,-3.108,-3.1079,-3.1118,-3.1061,-3.1009,-3.1054,-3.1075,-3.106,-3.1036,-3.104,-3.1115,-3.0787,-2.9868,-2.8257,-2.5967,-2.3418,-2.1755,-2.3124,-2.7049,-2.97,-3.0428,-3.1585,-3.2183,-3.2544,-3.2189,-3.0848,-3.0754,-3.0925,-3.0998,-3.0981,-3.1008,-3.099,-3.0991,-3.0935,-3.0835,-3.0866,-3.0894,-3.0881,-3.0816,-3.0753,-3.0727,-3.0699,-3.0621,-3.0606,-3.055,-3.049,-3.0463,-3.0422,-3.041,-3.0296,-3.0224,-3.0191,-3.015,-3.0011,-2.9882,-2.9801,-2.9721,-2.9654,-2.9562,-2.9417,-2.9268,-2.9209,-2.9114,-2.9049,-2.8937,-2.8813,-2.8761,-2.8691,-2.865,-2.8586,-2.8572,-2.8497,-2.8505,-2.8469,-2.8419,-2.8394,-2.8413,-2.8521,-2.863,-2.873,-2.8918,-2.9067,-2.9239,-2.9333,-2.9584,-2.9747,-2.9964,-3.0118,-3.0272,-3.0395,-3.053,-3.0663,-3.0704,-3.0749,-3.0792,-3.084,-3.0813,-3.0797,-3.0833,-3.0849,-3.084,-3.0841,-3.0831,-3.0794,-3.0752,-3.0749,-3.0738,-3.0717,-3.0703,-3.0706,-3.0684,-3.0661,-3.0669,-3.0658,-3.0626,-3.06,-3.0541,-3.0604,-3.0656,-3.064,-3.0631,-3.0612,-3.0651,-3.0691,-3.073,-3.0737,-3.0732,-3.0713,-3.0635,-3.0547,-3.0411,-3.0327,-3.0336,-3.0411,-3.0362,-3.0206,-3.0205,-3.0314,-3.0414,-3.0308,-3.0163,-3.0226,-3.0243,-3.0282,-3.0435,-3.0705,-3.0774,-3.088,-3.0968,-3.0896,-3.0913,-3.0895,-3.0881,-3.0854,-3.0821,-3.0826,-3.0837,-3.086,-3.0671,-2.9995,-2.8675,-2.6599,-2.3925,-2.1869,-2.1407,-2.3488,-2.7504,-2.9745,-3.042,-3.1521,-3.2226,-3.2061,-3.1013,-3.0427,-3.0578,-3.0679,-3.0733,-3.0717,-3.072,-3.072,-3.0682,-3.0601,-3.0593,-3.0622,-3.0587,-3.0544,-3.0474,-3.0446,-3.0421,-3.0404,-3.0318,-3.0252,-3.0223,-3.017,-3.0083,-3.0087,-3.0022,-2.9938,-2.985,-2.9794,-2.9682,-2.9567,-2.9482,-2.9427,-2.9377,-2.9248,-2.9122,-2.8984,-2.8863,-2.8748,-2.8652,-2.8527,-2.8421,-2.8319,-2.8312,-2.8237,-2.8204,-2.8158,-2.8136,-2.8047,-2.7994,-2.7995,-2.7976,-2.8034,-2.8071,-2.8139,-2.824,-2.8389,-2.8486,-2.8704,-2.8925,-2.9158,-2.936,-2.9551,-2.9735,-2.9869,-3.0027,-3.0114,-3.024,-3.0304,-3.0374,-3.0443,-3.0434,-3.0448,-3.0443,-3.0482,-3.0463,-3.0454,-3.0473,-3.0474,-3.0467,-3.0458,-3.0427,-3.0366,-3.0388,-3.0336,-3.0329,-3.0301,-3.0298,-3.0275,-3.0261,-3.0258,-3.0229,-3.0232,-3.0245,-3.0241,-3.0242,-3.0276,-3.0273,-3.0292,-3.032,-3.0339,-3.0346,-3.0362,-3.0372,-3.0409,-3.0435,-3.0459,-3.0463,-3.0496,-3.0472,-3.0354,-3.0253,-3.0187,-3.012,-3.0102,-3.0115,-3.0099,-2.9928,-2.9937,-3.0116,-3.0174,-3.0066,-2.988,-2.9903,-2.9946,-3.0054,-3.0234,-3.0466,-3.0515,-3.0573,-3.0586,-3.0564,-3.0547,-3.0513,-3.0523,-3.0503,-3.0509,-3.0495,-3.0526,-3.0639,-3.052,-2.9858,-2.849,-2.6373,-2.3594,-2.1306,-2.1288,-2.4908,-2.8626,-2.9727,-3.0893,-3.1798,-3.1822,-3.1107,-3.03,-3.0087,-3.032,-3.0457,-3.0465,-3.0497,-3.0493,-3.0507,-3.042,-3.0381,-3.0382,-3.0352,-3.0303,-3.0275,-3.0247,-3.021,-3.0189,-3.0118,-3.006,-3.0037,-2.9998,-2.9964,-2.993,-2.988,-2.9795,-2.9691,-2.9638,-2.9579,-2.9461,-2.935,-2.9271,-2.9207,-2.9089,-2.8975,-2.8779,-2.867,-2.857,-2.8458,-2.8312,-2.82,-2.8126,-2.8044,-2.8004,-2.7909,-2.7845,-2.7791,-2.771,-2.7671,-2.7626,-2.7607,-2.7632,-2.7676,-2.7724,-2.7794,-2.7904,-2.8076,-2.8276,-2.8503,-2.8682,-2.8926,-2.9116,-2.924,-2.9441,-2.955,-2.9704,-2.9833,-2.9968,-3.0133,-3.015,-3.0167,-3.0202,-3.0238,-3.0287,-3.0274,-3.0273,-3.0266,-3.0283,-3.0295,-3.0293,-3.0271,-3.0252,-3.0251,-3.0245,-3.0258,-3.0198,-3.0179,-3.0172,-3.0182,-3.0185,-3.0183,-3.0201,-3.0165,-3.0128,-3.0139,-3.0121,-3.0117,-3.0124,-3.0169,-3.0212,-3.0212,-3.017,-3.022,-3.0238,-3.0313,-3.0343,-3.0376,-3.0374,-3.039,-3.0424,-3.0466,-3.0385,-3.0407,-3.0414,-3.0442,-3.0445,-3.0335,-3.0267,-3.017,-3.0143,-3.0072,-3.0064,-3.0037,-2.9986,-2.9934,-2.9951,-2.9997,-3.0026,-2.9837,-2.9833,-2.9877,-2.993,-3.0066,-3.0336,-3.049,-3.0543,-3.0568,-3.0512,-3.0523,-3.0539,-3.0484,-3.0441,-3.0429,-3.0429,-3.052,-3.0593,-3.0669,-3.0226,-2.9134,-2.7307,-2.475,-2.2239,-2.0945,-2.3381,-2.7434,-2.9415,-3.017,-3.1265,-3.2028,-3.1819,-3.0773,-3.0159,-3.0268,-3.0353,-3.0464,-3.0485,-3.0531,-3.05,-3.0496,-3.0476,-3.0495,-3.0419,-3.0351,-3.0309,-3.0294,-3.0243,-3.0225,-3.018,-3.0131,-3.0055,-3.0049,-3.0046,-2.9992,-2.9967,-2.9897,-2.9839,-2.9761,-2.9608,-2.9577,-2.952,-2.9472,-2.9365,-2.9252,-2.9217,-2.9109,-2.9033,-2.8883,-2.8793,-2.8677,-2.8569,-2.8452,-2.8358,-2.8321,-2.8315,-2.8225,-2.8125,-2.8135,-2.8082,-2.8042,-2.8026,-2.803,-2.8043,-2.8019,-2.8071,-2.8161,-2.8293,-2.8488,-2.8598,-2.8809,-2.8973,-2.9189,-2.9408,-2.9576,-2.9671,-2.9815,-2.997,-3.0102,-3.0222,-3.0266,-3.0351,-3.038,-3.042,-3.0454,-3.0413,-3.0419,-3.0481,-3.0463,-3.0492,-3.0434,-3.0436,-3.0424,-3.041,-3.0398,-3.0375,-3.0363,-3.0344,-3.0327,-3.0308,-3.0264,-3.0241,-3.0226,-3.0221,-3.0231,-3.0187,-3.0169,-3.0206,-3.0244,-3.0295,-3.0288,-3.0277,-3.0293,-3.0318,-3.034,-3.038,-3.0339,-3.0385,-3.0432,-3.0474,-3.0416,-3.0437,-3.0451,-3.0487,-3.0448,-3.0407,-3.0304,-3.0188,-3.0218,-3.0107,-3.0155,-3.0106,-3.0064,-3.0032,-2.9958,-2.9991,-3.0047,-3.004,-2.9956,-2.9987,-3.0037,-3.0119,-3.025,-3.0458,-3.0607,-3.0635,-3.0641,-3.0654,-3.0655,-3.0657,-3.0652,-3.0607,-3.0602,-3.0601,-3.0633,-3.0673,-3.0614,-3.0116,-2.8937,-2.7097,-2.4554,-2.2142,-2.1139,-2.3947,-2.7994,-2.9625,-3.0495,-3.1599,-3.2126,-3.1854,-3.0646,-3.0294,-3.047,-3.0535,-3.0665,-3.0631,-3.0659,-3.0599,-3.0666,-3.0576,-3.0631,-3.0533,-3.0515,-3.0421,-3.0432,-3.037,-3.0375,-3.0287,-3.0273,-3.0196,-3.0219,-3.0147,-3.0155,-3.0082,-3.0045,-2.9967,-2.9967,-2.9876,-2.9765,-2.9683,-2.9654,-2.9533,-2.9467,-2.9324,-2.9207,-2.9125,-2.9015,-2.8907,-2.8777,-2.8686,-2.8584,-2.8506,-2.8428,-2.8337,-2.8319,-2.8262,-2.8242,-2.8223,-2.8191,-2.8163,-2.8172,-2.8211,-2.8216,-2.8282,-2.8378,-2.8531,-2.8678,-2.8861,-2.9034,-2.9282,-2.9493,-2.9711,-2.9899,-3.0104,-3.0193,-3.0336,-3.0343,-3.0487,-3.0574,-3.0631,-3.0706,-3.0731,-3.0762,-3.0759,-3.0805,-3.0839,-3.0828,-3.0871,-3.0826,-3.0835,-3.0845,-3.0802,-3.0774,-3.0768,-3.0759,-3.0719,-3.0702,-3.0697,-3.065,-3.0626,-3.0622,-3.0628,-3.0605,-3.0654,-3.0653,-3.0729,-3.0733,-3.079,-3.0823,-3.0861,-3.0903,-3.0924,-3.0979,-3.0979,-3.1025,-3.1029,-3.1075,-3.1084,-3.1118,-3.1151,-3.1141,-3.1175,-3.121,-3.1194,-3.1218,-3.1234,-3.1259,-3.1305,-3.1284,-3.1279,-3.1195,-3.1115,-3.1034,-3.092,-3.0946,-3.098,-3.0981,-3.0954,-3.0866,-3.0853,-3.0892,-3.0951,-3.08,-3.0749,-3.0754,-3.0829,-3.0968,-3.1193,-3.146,-3.1525,-3.1558,-3.1578,-3.162,-3.1565,-3.1534,-3.156,-3.1535,-3.1534,-3.1524,-3.1624,-3.1673,-3.1326,-3.0243,-2.8522,-2.5978,-2.3308,-2.163,-2.3873,-2.8149,-3.0316,-3.1374,-3.2528,-3.3026,-3.2868,-3.153,-3.1282,-3.1551,-3.1536,-3.1657,-3.1665,-3.1736,-3.1713,-3.1776,-3.1738,-3.1734,-3.1654,-3.1682,-3.1577,-3.1542,-3.1537,-3.1657,-3.1628,-3.1573,-3.1462,-3.1436,-3.1344,-3.1371,-3.1327,-3.1356,-3.1265,-3.1198,-3.1126,-3.1098,-3.0976,-3.0948,-3.0873,-3.0785,-3.0657,-3.0576,-3.0399,-3.0322,-3.0189,-3.0095,-3.0002,-2.9894,-2.9837,-2.9749,-2.9707,-2.9668,-2.9596,-2.9568,-2.9494,-2.9517,-2.9478,-2.9429,-2.9371,-2.9402,-2.9458,-2.9573,-2.968,-2.9823,-2.999,-3.0101,-3.0282,-3.0478,-3.0681,-3.0947,-3.1111,-3.1165,-3.1331,-3.143,-3.153,-3.1701,-3.1836,-3.186,-3.1906,-3.1901,-3.1915,-3.1976,-3.1961,-3.196,-3.1975,-3.1936,-3.202,-3.1945,-3.1874,-3.1884,-3.1869,-3.1835,-3.175,-3.1752,-3.1753,-3.1802,-3.1793,-3.1754,-3.1718,-3.1752,-3.1754,-3.1698,-3.1794,-3.1804,-3.1773,-3.1836,-3.1852,-3.1852,-3.1868,-3.1926,-3.1907,-3.1906,-3.1951,-3.1964,-3.1942,-3.195,-3.2056,-3.2,-3.198,-3.196,-3.1879,-3.1799,-3.1765,-3.1676,-3.1657,-3.1666,-3.1616,-3.1673,-3.1535,-3.1563,-3.1585,-3.1522,-3.1566,-3.1474,-3.1448,-3.1557,-3.184,-3.2018,-3.2203,-3.2227,-3.2297,-3.2254,-3.2206,-3.2173,-3.2108,-3.2147,-3.2135,-3.2244,-3.2237,-3.2225,-3.1817,-3.1427,-3.013,-2.8039,-2.5612,-2.3676,-2.3576,-2.7053,-3.0451,-3.1344,-3.1982,-3.3094,-3.3894,-3.3561,-3.2581,-3.1921,-3.2113,-3.2186,-3.2293,-3.2267,-3.2239,-3.2202,-3.2239,-3.2159,-3.2242,-3.2162,-3.2223,-3.2063,-3.2051,-3.2004,-3.1965,-3.1959,-3.1919,-3.1921,-3.1901,-3.1845,-3.1842,-3.1684,-3.1672,-3.1636,-3.1621,-3.1521,-3.1471,-3.138,-3.1325,-3.1246,-3.1194,-3.1059,-3.0881,-3.0874,-3.0725,-3.0677,-3.0619,-3.0478,-3.0415,-3.0258,-3.0175,-3.0171,-3.0166,-3.012,-3.0096,-3.0065,-3.0033,-3.0028,-3.0029,-3.0082,-3.0095,-3.0146,-3.0194,-3.0307,-3.0487,-3.0641,-3.0784,-3.0989,-3.1112,-3.1375,-3.1534,-3.1668,-3.1777,-3.1829,-3.1979,-3.2172,-3.2176,-3.2164,-3.2193,-3.2129,-3.2195,-3.2269,-3.2359,-3.2393,-3.2301,-3.2255,-3.2226,-3.2315,-3.224,-3.2151,-3.2112,-3.2126,-3.2016,-3.2003,-3.2079,-3.2081,-3.2061,-3.208,-3.2023,-3.1974,-3.1857,-3.1957,-3.2004,-3.1928,-3.1947,-3.1996,-3.1983,-3.1989,-3.2063,-3.2161,-3.2112,-3.2084,-3.2136,-3.2094,-3.2036,-3.1912,-3.1893,-3.1869,-3.1847,-3.1825,-3.1788,-3.1675,-3.1644,-3.1645,-3.1629,-3.1661,-3.1699,-3.1615,-3.1581,-3.1673,-3.1875,-3.2073,-3.2206,-3.2205,-3.2237,-3.2235,-3.222,-3.2313,-3.2246,-3.2247,-3.2151,-3.2161,-3.2268,-3.2333,-3.2092,-3.1508,-3.0212,-2.8293,-2.5796,-2.3934,-2.3484,-2.698,-3.0369,-3.1206,-3.2003,-3.3123,-3.376,-3.3641,-3.3123,-3.2058,-3.2063,-3.2078,-3.2158,-3.2167,-3.2175,-3.2164,-3.2155,-3.2196,-3.2068,-3.2136,-3.2127,-3.2039,-3.206,-3.1949,-3.1994,-3.1938,-3.1938,-3.1931,-3.1831,-3.1847,-3.1781,-3.1703,-3.1628,-3.1639,-3.151,-3.1489,-3.1411,-3.15,-3.1382,-3.1233,-3.1098,-3.0961,-3.0914,-3.0791,-3.0765,-3.0664,-3.0555,-3.0468,-3.0467,-3.0325,-3.0201,-3.0179,-3.0152,-3.0085,-3.012,-3.0067,-3.0079,-2.9987,-3.0048,-3.0058,-3.009,-3.0219,-3.0262,-3.0386,-3.0545,-3.0735,-3.0879,-3.0981,-3.1114,-3.1301,-3.1515,-3.1728,-3.1859,-3.1843,-3.194,-3.1977,-3.2042,-3.2127,-3.2204,-3.2193,-3.2222,-3.2227,-3.2238,-3.2226,-3.2215,-3.2219,-3.2256,-3.2299,-3.2185,-3.2206,-3.2155,-3.2146,-3.2008,-3.201,-3.1966,-3.1963,-3.1933,-3.1941,-3.1927,-3.1933,-3.1969,-3.1867,-3.1878,-3.1912,-3.1843,-3.1724,-3.1651,-3.1549,-3.1567,-3.156,-3.1607,-3.1416,-3.1383,-3.1369,-3.15,-3.159,-3.1611,-3.1486,-3.1477,-3.155,-3.1635,-3.1892,-3.2213,-3.2228,-3.2232,-3.2305,-3.2306,-3.2237,-3.2233,-3.2271,-3.225,-3.2247,-3.223,-3.228,-3.2294,-3.1991,-3.1133,-2.9577,-2.736,-2.5125,-2.3528,-2.4685,-2.8727,-3.1054,-3.1805,-3.2818,-3.3672,-3.3615,-3.3306,-3.2311,-3.1989,-3.2299,-3.2308,-3.2351,-3.2266,-3.2418,-3.224,-3.2328,-3.2207,-3.2236,-3.2207,-3.2244,-3.2097,-3.2088,-3.1996,-3.203,-3.1966,-3.2062,-3.209,-3.1985,-3.188,-3.1849,-3.175,-3.1735,-3.1617,-3.165,-3.1652,-3.1555,-3.1452,-3.137,-3.129,-3.1176,-3.0985,-3.097,-3.0792,-3.0794,-3.0669,-3.0529,-3.0475,-3.0427,-3.038,-3.0325,-3.0272,-3.0218,-3.0146,-3.017,-3.0155,-3.0068,-3.0117,-3.0092,-3.01,-3.0208,-3.0357,-3.0548,-3.0646,-3.079,-3.0964,-3.1103,-3.1239,-3.1373,-3.1545,-3.1642,-3.1896,-3.1986,-3.2037,-3.2147,-3.2181,-3.2268,-3.2332,-3.2338,-3.2344,-3.2364,-3.2394,-3.2323,-3.239,-3.2364,-3.2354,-3.2251,-3.2258,-3.2291,-3.2312,-3.2265,-3.2284,-3.2214,-3.2214,-3.2154,-3.215,-3.2102,-3.21,-3.2059,-3.2049,-3.2057,-3.2027,-3.1945,-3.1962,-3.1786,-3.1619,-3.1647,-3.1672,-3.1608,-3.1499,-3.1503,-3.1529,-3.1624,-3.17,-3.1696,-3.1638,-3.1673,-3.1743,-3.1905,-3.2041,-3.2223,-3.2342,-3.2391,-3.2449,-3.2422,-3.2445,-3.2344,-3.2406,-3.2373,-3.237,-3.2359,-3.244,-3.247,-3.2159,-3.1211,-2.9589,-2.7405,-2.5213,-2.3643,-2.5172,-2.9129,-3.1333,-3.212,-3.3126,-3.3728,-3.3571,-3.2595,-3.2148,-3.218,-3.2341,-3.2379,-3.2416,-3.2395,-3.2384,-3.2317,-3.235,-3.2336,-3.2244,-3.2221,-3.2138,-3.2087,-3.2066,-3.2077,-3.2006,-3.1977,-3.1934,-3.192,-3.1858,-3.1876,-3.172,-3.1706,-3.1666,-3.1677,-3.1576,-3.1473,-3.1362,-3.1345,-3.135,-3.1274,-3.114,-3.0975,-3.0855,-3.0735,-3.0685,-3.0669,-3.0496,-3.044,-3.0324,-3.0312,-3.0235,-3.005,-3.0077,-3.0096,-3.0046,-3.0001,-3.0034,-2.9974,-2.9943,-3.0033,-3.0112,-3.0234,-3.0324,-3.0521,-3.0655,-3.091,-3.0987,-3.1231,-3.1412,-3.1552,-3.1624,-3.1788,-3.1854,-3.2008,-3.2083,-3.2064,-3.213,-3.2117,-3.2178,-3.2137,-3.2146,-3.2234,-3.2135,-3.2173,-3.2102,-3.2123,-3.2114,-3.2132,-3.2065,-3.2092,-3.2059,-3.1989,-3.1947,-3.1958,-3.1894,-3.1877,-3.1917,-3.1857,-3.1851,-3.1912,-3.1902,-3.192,-3.185,-3.1901,-3.1899,-3.1815,-3.1851,-3.1721,-3.1667,-3.162,-3.1577,-3.1506,-3.1499,-3.1459,-3.1283,-3.1244,-3.1303,-3.1346,-3.1397,-3.144,-3.1426,-3.133,-3.1438,-3.1568,-3.1743,-3.191,-3.2018,-3.2049,-3.2046,-3.2027,-3.205,-3.1956,-3.198,-3.1904,-3.1921,-3.1956,-3.2027,-3.2051,-3.1633,-3.0684,-2.9095,-2.6685,-2.4308,-2.2604,-2.4521,-2.8831,-3.0999,-3.1993,-3.3039,-3.3252,-3.3177,-3.2365,-3.157,-3.1636,-3.1737,-3.1832,-3.1807,-3.1826,-3.18,-3.1745,-3.178,-3.175,-3.1699,-3.164,-3.1591,-3.1597,-3.1519,-3.1496,-3.1467,-3.1402,-3.1429,-3.1395,-3.1354,-3.1211,-3.1184,-3.1168,-3.1135,-3.1054,-3.098,-3.0886,-3.0793,-3.0669,-3.0571,-3.0492,-3.0358,-3.0273,-3.0112,-3.0025,-2.9908,-2.9773,-2.9662,-2.963,-2.9532,-2.9443,-2.9367,-2.93,-2.9298,-2.9238,-2.9163,-2.9068,-2.9059,-2.9092,-2.9063,-2.9092,-2.9136,-2.9235,-2.9337,-2.9528,-2.9628,-2.9832,-3.0098,-3.0237,-3.0421,-3.0624,-3.0751,-3.0918,-3.1002,-3.1141,-3.1234,-3.1279,-3.1339,-3.1371,-3.1404,-3.1396,-3.1411,-3.1444,-3.1429,-3.1434,-3.1421,-3.1386,-3.1331,-3.1346,-3.1368,-3.1311,-3.1292,-3.1292,-3.1313,-3.1319,-3.1264,-3.126,-3.1242,-3.1275,-3.1263,-3.1256,-3.1248,-3.1208,-3.124,-3.1232,-3.1257,-3.1235,-3.1273,-3.1289,-3.1245,-3.129,-3.1276,-3.1297,-3.1309,-3.1342,-3.1323,-3.1285,-3.1257,-3.122,-3.1123,-3.1032,-3.0961,-3.0894,-3.0933,-3.0901,-3.0806,-3.0693,-3.0669,-3.0707,-3.0708,-3.0783,-3.0762,-3.0645,-3.0676,-3.0808,-3.0994,-3.1197,-3.1313,-3.1376,-3.1382,-3.1382,-3.1333,-3.1291,-3.127,-3.1256,-3.128,-3.1268,-3.1488,-3.1545,-3.139,-3.0672,-2.9222,-2.6932,-2.3989,-2.1719,-2.2344,-2.6598,-3.0008,-3.1192,-3.2349,-3.2608,-3.2485,-3.1157,-3.0928,-3.1156,-3.1176,-3.1289,-3.1234,-3.1299,-3.1247,-3.1303,-3.1218,-3.1215,-3.1147,-3.1196,-3.1082,-3.1104,-3.1041,-3.1038,-3.1009,-3.1,-3.0876,-3.0869,-3.0795,-3.0715,-3.0685,-3.0644,-3.0542,-3.05,-3.0433,-3.0383,-3.0286,-3.0229,-3.0087,-3.0025,-2.9891,-2.9811,-2.9655,-2.9558,-2.9428,-2.9338,-2.9217,-2.9157,-2.9011,-2.894,-2.8862,-2.8791,-2.8744,-2.8677,-2.8657,-2.8661,-2.8598,-2.8585,-2.8524,-2.8529,-2.8564,-2.8641,-2.8741,-2.8837,-2.8998,-2.9196,-2.9414,-2.9608,-2.98,-2.9918,-3.0174,-3.0335,-3.048,-3.0564,-3.0611,-3.0711,-3.0757,-3.0764,-3.0804,-3.0807,-3.0824,-3.0838,-3.0856,-3.0831,-3.0834,-3.0823,-3.0815,-3.0806,-3.0807,-3.0808,-3.0797,-3.0807,-3.076,-3.0762,-3.0774,-3.0735,-3.073,-3.0739,-3.0756,-3.0744,-3.0725,-3.0722,-3.0732,-3.0744,-3.0767,-3.0745,-3.0784,-3.0811,-3.0838,-3.0846,-3.087,-3.0882,-3.0916,-3.0897,-3.0913,-3.0918,-3.0932,-3.0968,-3.0933,-3.0942,-3.0928,-3.0853,-3.0859,-3.0685,-3.0598,-3.0497,-3.044,-3.0456,-3.0426,-3.0364,-3.0364,-3.0479,-3.0451,-3.0376,-3.0317,-3.0295,-3.0304,-3.042,-3.061,-3.0787,-3.0875,-3.0893,-3.0963,-3.0936,-3.0917,-3.0897,-3.088,-3.0841,-3.0826,-3.0815,-3.0925,-3.1063,-3.0767,-2.9863,-2.8219,-2.7022,-2.4283,-2.1814,-2.1735,-2.5415,-2.929,-3.0365,-3.1614,-3.2213,-3.221,-3.1187,-3.0501,-3.056,-3.0788,-3.0783,-3.0867,-3.0801,-3.0872,-3.0796,-3.0844,-3.0786,-3.0774,-3.0683,-3.0705,-3.0657,-3.0621,-3.0589,-3.0614,-3.0615,-3.0584,-3.0571,-3.0471,-3.0499,-3.0397,-3.0406,-3.0345,-3.0203,-3.0147,-3.0142,-3.0116,-3.0017,-2.9918,-2.9829,-2.974,-2.9636,-2.9555,-2.9507,-2.939,-2.9315,-2.9198,-2.918,-2.9119,-2.9046,-2.898,-2.8925,-2.8862,-2.8825,-2.8717,-2.8733,-2.8696,-2.8678,-2.863,-2.868,-2.869,-2.8723,-2.8808,-2.8906,-2.9025,-2.9221,-2.9399,-2.9525,-2.9673,-2.993,-3.0091,-3.0265,-3.041,-3.0464,-3.0607,-3.0712,-3.0796,-3.0819,-3.0838,-3.087,-3.0858,-3.0879,-3.0864,-3.0845,-3.0848,-3.0887,-3.0822,-3.0773,-3.0748,-3.071,-3.0679,-3.0671,-3.0627,-3.0701,-3.074,-3.0716,-3.0697,-3.066,-3.061,-3.0602,-3.0651,-3.0715,-3.0752,-3.0724,-3.0723,-3.0764,-3.0776,-3.0835,-3.0807,-3.082,-3.0808,-3.0879,-3.0897,-3.0939,-3.0998,-3.1065,-3.1032,-3.0961,-3.1017,-3.0981,-3.092,-3.0913,-3.0836,-3.0746,-3.0595,-3.0663,-3.0631,-3.0543,-3.0563,-3.0483,-3.0558,-3.0652,-3.0519,-3.0498,-3.0499,-3.0531,-3.0678,-3.0867,-3.1009,-3.1135,-3.1116,-3.1131,-3.1162,-3.108,-3.1077,-3.1117,-3.1129,-3.1098,-3.1039,-3.1013,-3.1095,-3.0684,-2.97,-2.7865,-2.5412,-2.3435,-2.2369,-2.4831,-2.7037,-2.9704,-3.054,-3.1072,-3.2488,-3.2611,-3.2297,-3.0899,-3.0909,-3.1077,-3.1076,-3.1052,-3.1166,-3.1066,-3.1191,-3.1068,-3.111,-3.1013,-3.1091,-3.0936,-3.1008,-3.0892,-3.1009,-3.0894,-3.0868,-3.0759,-3.0911,-3.0766,-3.0708,-3.0684,-3.0681,-3.056,-3.0534,-3.0454,-3.0382,-3.0393,-3.0344,-3.0243,-3.0085,-3.0047,-2.9953,-2.9942,-2.9932,-2.9759,-2.9712,-2.9659,-2.9631,-2.9548,-2.9395,-2.9386,-2.9392,-2.9378,-2.9307,-2.9343,-2.9347,-2.9247,-2.9217,-2.9176,-2.9195,-2.9281,-2.9261,-2.9363,-2.9388,-2.9497,-2.9619,-2.9776,-2.9965,-3.0123,-3.0271,-3.0464,-3.0535,-3.0728,-3.0842,-3.0988,-3.1012,-3.1008,-3.1051,-3.1068,-3.1154,-3.1258,-3.1177,-3.1206,-3.1153,-3.1084,-3.1106,-3.1098,-3.1092,-3.1076,-3.0991,-3.0972,-3.0992,-3.1037,-3.0928,-3.0928,-3.0909,-3.0902,-3.0886,-3.0855,-3.0856,-3.0907,-3.0935,-3.0956,-3.0958,-3.1073,-3.0987,-3.1035,-3.1157,-3.1097,-3.1116,-3.1198,-3.1163,-3.1172,-3.1085,-3.1068,-3.0954,-3.0907,-3.0883,-3.0841,-3.0805,-3.0658,-3.0728,-3.0778,-3.0817,-3.0824,-3.0821,-3.0656,-3.0704,-3.0789,-3.0906,-3.1096,-3.1303,-3.1379,-3.138,-3.1456,-3.1423,-3.1382,-3.1349,-3.1389,-3.1359,-3.1381,-3.1392,-3.1367,-3.1366,-3.1135,-3.0366,-2.8992,-2.6905,-2.4711,-2.3073,-2.3558,-2.7436,-3.0244,-3.0813,-3.1687,-3.28,-3.2988,-3.2273,-3.124,-3.1111,-3.1328,-3.131,-3.141,-3.1321,-3.134,-3.1361,-3.1393,-3.1279,-3.1288,-3.1199,-3.1271,-3.1117,-3.115,-3.113,-3.1119,-3.1032,-3.0997,-3.0961,-3.0951,-3.0896,-3.0895,-3.0827,-3.0785,-3.0718,-3.0709,-3.0624,-3.0492,-3.0491,-3.0409,-3.0306,-3.0204,-3.0193,-3.0119,-2.9952,-2.9931,-2.9814,-2.9804,-2.9671,-2.9646,-2.9607,-2.9563,-2.953,-2.9517,-2.9547,-2.9516,-2.9517,-2.941,-2.9387,-2.939,-2.9457,-2.9455,-2.9509,-2.9573,-2.9737,-2.981,-2.992,-3.0114,-3.0307,-3.0401,-3.0613,-3.0741,-3.0873,-3.0964,-3.1044,-3.1124,-3.1191,-3.1286,-3.1336,-3.1354,-3.1354,-3.1358,-3.1346,-3.1351,-3.1354,-3.1252,-3.1269,-3.1218,-3.1195,-3.1199,-3.1197,-3.1095,-3.1115,-3.1096,-3.1148,-3.1094,-3.1053,-3.1023,-3.1015,-3.1024,-3.1035,-3.1003,-3.1006,-3.0969,-3.1037,-3.0966,-3.1039,-3.1008,-3.0893,-3.0812,-3.0783,-3.0766,-3.0754,-3.0755,-3.0676,-3.057,-3.0618,-3.0687,-3.0776,-3.0745,-3.0629,-3.0679,-3.0689,-3.0804,-3.1045,-3.1238,-3.1312,-3.1346,-3.1302,-3.1285,-3.1367,-3.1265,-3.1273,-3.1238,-3.1221,-3.1288,-3.1337,-3.1437,-3.1108,-3.031,-2.8853,-2.6704,-2.4362,-2.2716,-2.3483,-2.7542,-3.0381,-3.1111,-3.2049,-3.2699,-3.2631,-3.1719,-3.1006,-3.108,-3.1205,-3.1317,-3.1359,-3.1339,-3.1216,-3.1178,-3.1221,-3.1192,-3.1243,-3.1144,-3.1124,-3.1034,-3.1023,-3.0939,-3.0929,-3.0891,-3.0926,-3.0878,-3.0835,-3.0718,-3.0674,-3.0671,-3.0622,-3.0605,-3.0436,-3.0355,-3.0335,-3.0254,-3.0215,-3.0157,-3.0065,-2.999,-2.9848,-2.97,-2.9463,-2.9421,-2.9391,-2.9352,-2.9339,-2.9276,-2.923,-2.9185,-2.9213,-2.915,-2.9033,-2.8996,-2.9108,-2.9147,-2.9157,-2.9099,-2.9061,-2.9192,-2.936,-2.9514,-2.9625,-2.98,-2.9938,-3.0107,-3.0239,-3.044,-3.0575,-3.0692,-3.0783,-3.0882,-3.0981,-3.1032,-3.0904,-3.0916,-3.0886,-3.0996,-3.1144,-3.1171,-3.1111,-3.1022,-3.0982,-3.0906,-3.0814,-3.0837,-3.0787,-3.0859,-3.0911,-3.0946,-3.0936,-3.0916,-3.0827,-3.081,-3.0832,-3.0844,-3.0828,-3.0847,-3.0817,-3.0836,-3.084,-3.0851,-3.0847,-3.0835,-3.0802,-3.0754,-3.0651,-3.0547,-3.0472,-3.0473,-3.0489,-3.0465,-3.0299,-3.0368,-3.043,-3.0498,-3.0571,-3.0427,-3.0442,-3.0464,-3.0571,-3.076,-3.09,-3.0963,-3.1018,-3.1043,-3.1076,-3.1035,-3.1005,-3.0977,-3.0987,-3.0912,-3.0942,-3.0985,-3.1012,-3.0917,-3.0418,-2.9291,-2.7451,-2.4918,-2.2787,-2.1987,-2.4959,-2.905,-3.04,-3.1443,-3.2329,-3.2301,-3.17,-3.0582,-3.0543,-3.0682,-3.0763,-3.0824,-3.0752,-3.0766,-3.0688,-3.0726,-3.0682,-3.0635,-3.0604,-3.0588,-3.0521,-3.0512,-3.0443,-3.0458,-3.0365,-3.0384,-3.0307,-3.0271,-3.0189,-3.0179,-3.0127,-3.0121,-3.0003,-2.9942,-2.9889,-2.9802,-2.9744,-2.9639,-2.9515,-2.9425,-2.9306,-2.9176,-2.9035,-2.8942,-2.8813,-2.8759,-2.8648,-2.8578,-2.8549,-2.846,-2.8404,-2.8362,-2.8314,-2.8266,-2.8242,-2.8215,-2.8189,-2.8181,-2.8178,-2.8188,-2.829,-2.8359,-2.8496,-2.8651,-2.8844,-2.902,-2.9246,-2.9428,-2.9519,-2.963,-2.9796,-2.9917,-3.0027,-3.0076,-3.0183,-3.0262,-3.0309,-3.034,-3.0372,-3.0369,-3.0385,-3.0394,-3.0359,-3.0308,-3.0338,-3.0315,-3.029,-3.0291,-3.0286,-3.0263,-3.027,-3.0224,-3.0229,-3.0191,-3.0228,-3.0195,-3.0216,-3.021,-3.0242,-3.0264,-3.0309,-3.0334,-3.0331,-3.0228,-3.0152,-3.0069,-2.9994,-2.9969,-3.0014,-3.0058,-2.9982,-2.9864,-2.987,-2.9954,-3.0027,-3.002,-2.9956,-2.9966,-3.0026,-3.0157,-3.0364,-3.0594,-3.0701,-3.0743,-3.0718,-3.0716,-3.0761,-3.071,-3.0684,-3.0653,-3.0638,-3.0609,-3.0665,-3.0789,-3.0605,-2.9951,-2.86,-2.6501,-2.3708,-2.1554,-2.1778,-2.5768,-2.9426,-3.064,-3.175,-3.1843,-3.1715,-3.0262,-3.0082,-3.0262,-3.0323,-3.0478,-3.0426,-3.0509,-3.0425,-3.0494,-3.0432,-3.0461,-3.0358,-3.0349,-3.0208,-3.0243,-3.0188,-3.0194,-3.0076,-3.0079,-2.9988,-3.0013,-2.9934,-2.9947,-2.9853,-2.9823,-2.972,-2.9645,-2.951,-2.9467,-2.9358,-2.9259,-2.9135,-2.9038,-2.8895,-2.88,-2.8705,-2.8633,-2.8521,-2.8435,-2.8298,-2.826,-2.8172,-2.8154,-2.8052,-2.8025,-2.801,-2.7995,-2.7953,-2.7957,-2.7911,-2.7912,-2.793,-2.7968,-2.7969,-2.8058,-2.8165,-2.8334,-2.8494,-2.863,-2.8814,-2.9009,-2.9193,-2.9306,-2.9502,-2.9638,-2.9793,-2.993,-2.9995,-3.0091,-3.015,-3.0252,-3.0266,-3.023,-3.0189,-3.0173,-3.0185,-3.0235,-3.0262,-3.0205,-3.021,-3.0161,-3.0195,-3.0152,-3.007,-2.9982,-3.0014,-3.0021,-3.0057,-3.0088,-3.005,-3.0032,-2.997,-2.9997,-2.9998,-3.0043,-3.0096,-3.0088,-3.0078,-2.9968,-2.9903,-2.9819,-2.9828,-2.9817,-2.9848,-2.9787,-2.9621,-2.9672,-2.9763,-2.986,-2.9952,-2.9797,-2.9774,-2.9788,-2.9911,-3.0099,-3.0278,-3.0379,-3.0453,-3.0446,-3.0505,-3.0501,-3.0456,-3.0428,-3.0446,-3.0366,-3.0409,-3.0433,-3.0437,-3.04,-2.9927,-2.8868,-2.6966,-2.4469,-2.2267,-2.1516,-2.4358,-2.8403,-2.975,-3.0625,-3.1493,-3.1704,-3.1307,-3.0054,-3.0003,-3.0083,-3.0278,-3.0333,-3.0308,-3.0422,-3.0324,-3.0287,-3.0246,-3.0261,-3.024,-3.0198,-3.0159,-3.0147,-3.0048,-3.0042,-3.0014,-3.0055,-3.0026,-3.0017,-2.9994,-2.9822,-2.9751,-2.9711,-2.9693,-2.9658,-2.9587,-2.9554,-2.952,-2.9633,-2.967,-2.9558,-2.9448,-2.9354,-2.9188,-2.908,-2.893,-2.8909,-2.8899,-2.8881,-2.8828,-2.8725,-2.8718,-2.8737,-2.8698,-2.8714,-2.864,-2.8621,-2.8495,-2.8555,-2.8574,-2.8653,-2.8631,-2.8621,-2.8732,-2.8824,-2.8899,-2.9062,-2.9238,-2.9377,-2.9503,-2.972,-2.9812,-2.992,-2.9986,-3.0124,-3.024,-3.0292,-3.0352,-3.0372,-3.0372,-3.0433,-3.0547,-3.0421,-3.0388,-3.0426,-3.0386,-3.0325,-3.0379,-3.0311,-3.0264,-3.0292,-3.041,-3.0358,-3.0332,-3.0378,-3.0384,-3.0498,-3.0537,-3.037,-3.0363,-3.0342,-3.0277,-3.041,-3.0491,-3.0541,-3.029,-3.0166,-3.0139,-3.0149,-3.0219,-3.0132,-3.0175,-2.9879,-2.9978,-3.0108,-3.0232,-3.0266,-3.0102,-3.0111,-3.0107,-3.025,-3.0427,-3.0724,-3.0776,-3.0824,-3.0822,-3.0794,-3.0788,-3.0889,-3.0806,-3.0792,-3.0743,-3.0686,-3.0726,-3.0722,-3.0633,-2.9834,-2.8377,-2.621,-2.3865,-2.2463,-2.352,-2.7333,-3.0015,-3.0385,-3.125,-3.2099,-3.2071,-3.1464,-3.0455,-3.043,-3.0655,-3.0711,-3.0818,-3.0742,-3.084,-3.0837,-3.0845,-3.0748,-3.0669,-3.0656,-3.0628,-3.0573,-3.0527,-3.0621,-3.0597,-3.052,-3.0518,-3.0528,-3.0424,-3.0347,-3.034,-3.0299,-3.0356,-3.0331,-3.0267,-3.0174,-3.0105,-3.0013,-2.9988,-2.9843,-2.9798,-2.9749,-2.9651,-2.9579,-2.95,-2.942,-2.9407,-2.9325,-2.9265,-2.9168,-2.9215,-2.9257,-2.9189,-2.9038,-2.9163,-2.9117,-2.9071,-2.9022,-2.9009,-2.9042,-2.9059,-2.9094,-2.9195,-2.9336,-2.9489,-2.9619,-2.9726,-2.9877,-2.997,-3.0075,-3.0221,-3.0322,-3.0482,-3.065,-3.0651,-3.0763,-3.0753,-3.0744,-3.0746,-3.0752,-3.0741,-3.0662,-3.0745,-3.0698,-3.0692,-3.0656,-3.0539,-3.0558,-3.049,-3.0512,-3.0505,-3.0516,-3.0465,-3.0477,-3.0431,-3.0437,-3.0408,-3.0406,-3.045,-3.043,-3.0425,-3.0415,-3.0408,-3.038,-3.0223,-3.0147,-3.0202,-3.0174,-3.005,-2.996,-2.9938,-3.0129,-3.0231,-3.0241,-3.0075,-3.0068,-3.017,-3.0262,-3.0393,-3.0652,-3.0789,-3.0844,-3.0812,-3.0869,-3.0843,-3.0765,-3.0758,-3.0802,-3.0816,-3.0802,-3.0835,-3.0903,-3.075,-3.0204,-2.8982,-2.7049,-2.4628,-2.2867,-2.264,-2.5964,-2.9596,-3.0589,-3.1597,-3.2148,-3.2131,-3.1204,-3.056,-3.0647,-3.0811,-3.0876,-3.0905,-3.0921,-3.0934,-3.0921,-3.0833,-3.0887,-3.0859,-3.082,-3.0835,-3.0805,-3.0708,-3.0703,-3.0673,-3.062,-3.0586,-3.0557,-3.0529,-3.0481,-3.0486,-3.0401,-3.0367,-3.0309,-3.0237,-3.0191,-3.007,-3.0001,-2.9929,-2.9824,-2.9731,-2.9612,-2.952,-2.9436,-2.9384,-2.9288,-2.923,-2.9214,-2.9161,-2.9119,-2.9094,-2.9017,-2.899,-2.8966,-2.8943,-2.8933,-2.8933,-2.8904,-2.8904,-2.8958,-2.9027,-2.9115,-2.9191,-2.9343,-2.9501,-2.9711,-2.9882,-2.9994,-3.014,-3.0289,-3.0448,-3.0546,-3.0621,-3.066,-3.07,-3.0822,-3.0858,-3.0889,-3.0921,-3.0928,-3.0941,-3.0922,-3.0901,-3.0889,-3.0876,-3.0844,-3.0813,-3.0774,-3.0768,-3.0752,-3.0746,-3.0749,-3.0738,-3.0714,-3.0702,-3.0697,-3.07,-3.0652,-3.0606,-3.0643,-3.0662,-3.0667,-3.0674,-3.0675,-3.0693,-3.0632,-3.0545,-3.0489,-3.0413,-3.04,-3.0404,-3.0324,-3.019,-3.0191,-3.0272,-3.0382,-3.0438,-3.0365,-3.0331,-3.0361,-3.048,-3.063,-3.0834,-3.0961,-3.1045,-3.1031,-3.1082,-3.1017,-3.1003,-3.1006,-3.1038,-3.0991,-3.0993,-3.0999,-3.1047,-3.1109,-3.0926,-2.9803,-2.802,-2.5572,-2.3349,-2.2217,-2.4786,-2.8942,-3.0455,-3.1605,-3.2345,-3.2311,-3.1654,-3.0786,-3.0821,-3.1,-3.1005,-3.1036,-3.0987,-3.0985,-3.0971,-3.096,-3.0898,-3.0935,-3.0864,-3.0826,-3.0773,-3.0784,-3.076,-3.0737,-3.068,-3.0717,-3.0648,-3.0661,-3.0584,-3.0552,-3.0521,-3.049,-3.0416,-3.0358,-3.0294,-3.0243,-3.017,-3.0092,-2.9982,-2.9902,-2.9818,-2.9697,-2.9569,-2.9476,-2.9393,-2.9327,-2.9246,-2.9167,-2.9119,-2.9063,-2.9022,-2.9013,-2.8976,-2.898,-2.8965,-2.8918,-2.8937,-2.892,-2.8929,-2.8986,-2.9085,-2.9242,-2.9337,-2.9494,-2.9646,-2.9821,-3.0044,-3.0165,-3.0354,-3.0493,-3.064,-3.0745,-3.082,-3.0849,-3.093,-3.0962,-3.0983,-3.1033,-3.1056,-3.1041,-3.1073,-3.1074,-3.1007,-3.0943,-3.0938,-3.0942,-3.0911,-3.0849,-3.0792,-3.0844,-3.0793,-3.0829,-3.0832,-3.0806,-3.0813,-3.084,-3.0829,-3.0802,-3.0817,-3.0793,-3.086,-3.0837,-3.0891,-3.0885,-3.087,-3.0899,-3.0909,-3.0936,-3.0958,-3.1057,-3.1078,-3.1075,-3.1067,-3.1048,-3.095,-3.0823,-3.0759,-3.0683,-3.0653,-3.0603,-3.0571,-3.0614,-3.0706,-3.0688,-3.0647,-3.0538,-3.0614,-3.0681,-3.0839,-3.1076,-3.1218,-3.1246,-3.127,-3.1268,-3.1233,-3.1248,-3.1294,-3.1278,-3.1235,-3.121,-3.1193,-3.1246,-3.1349,-3.1042,-3.0265,-2.8833,-2.6426,-2.3721,-2.1919,-2.3446,-2.7819,-3.0242,-3.0804,-3.1986,-3.2558,-3.246,-3.1468,-3.0848,-3.1056,-3.111,-3.1165,-3.1161,-3.1176,-3.1204,-3.1227,-3.117,-3.1158,-3.113,-3.1111,-3.1048,-3.1079,-3.1033,-3.0998,-3.0946,-3.0932,-3.0892,-3.0848,-3.0776,-3.076,-3.0686,-3.0623,-3.053,-3.0515,-3.0467,-3.0425,-3.0392,-3.0268,-3.0154,-3.0066,-2.9957,-2.9886,-2.9776,-2.9708,-2.9655,-2.9632,-2.9575,-2.9434,-2.9413,-2.9338,-2.9284,-2.9276,-2.9265,-2.9272,-2.9257,-2.9171,-2.9112,-2.9109,-2.9139,-2.9126,-2.9158,-2.929,-2.9361,-2.9494,-2.9606,-2.9738,-2.992,-3.0082,-3.0311,-3.045,-3.0601,-3.0657,-3.0782,-3.0912,-3.1017,-3.1017,-3.1068,-3.1056,-3.1096,-3.1124,-3.1091,-3.1058,-3.1068,-3.1084,-3.1091,-3.1021,-3.0972,-3.098,-3.097,-3.0994,-3.0994,-3.0932,-3.0967,-3.0975,-3.0989,-3.0984,-3.0971,-3.1011,-3.0984,-3.1011,-3.1004,-3.098,-3.1007,-3.0985,-3.1014,-3.0999,-3.1005,-3.1048,-3.1066,-3.1088,-3.111,-3.117,-3.1125,-3.1035,-3.0887,-3.0831,-3.0817,-3.0704,-3.0737,-3.0659,-3.0542,-3.063,-3.0657,-3.073,-3.0736,-3.0607,-3.0596,-3.0647,-3.0814,-3.1043,-3.1145,-3.1146,-3.1239,-3.1252,-3.1259,-3.1233,-3.1216,-3.114,-3.1192,-3.1194,-3.1233,-3.127,-3.1228,-3.0628,-2.9406,-2.8476,-2.6124,-2.3584,-2.2185,-2.4262,-2.8643,-3.0636,-3.1618,-3.255,-3.2813,-3.2403,-3.1233,-3.1083,-3.1307,-3.1292,-3.1443,-3.1346,-3.1424,-3.14,-3.1415,-3.1378,-3.1425,-3.1335,-3.1325,-3.1246,-3.1282,-3.1253,-3.1248,-3.1201,-3.1183,-3.1133,-3.1187,-3.1069,-3.0965,-3.0931,-3.0907,-3.0868,-3.0798,-3.0699,-3.0572,-3.0546,-3.0457,-3.0388,-3.0312,-3.0165,-3.0114,-2.9963,-2.9862,-2.9795,-2.9753,-2.9668,-2.9535,-2.9475,-2.9422,-2.9386,-2.9337,-2.9324,-2.9337,-2.9371,-2.9306,-2.9236,-2.9228,-2.9308,-2.9276,-2.9261,-2.9378,-2.952,-2.968,-2.9787,-2.9897,-3.0146,-3.0367,-3.0546,-3.0679,-3.0845,-3.1042,-3.1169,-3.1243,-3.1337,-3.1336,-3.1346,-3.136,-3.1386,-3.1382,-3.1339,-3.1349,-3.1316,-3.1259,-3.1251,-3.1159,-3.1187,-3.1137,-3.1116,-3.1093,-3.1064,-3.1093,-3.105,-3.1038,-3.1009,-3.1033,-3.1023,-3.1029,-3.1074,-3.1073,-3.1096,-3.1078,-3.1119,-3.1136,-3.1166,-3.1176,-3.119,-3.1249,-3.1299,-3.1258,-3.1238,-3.1156,-3.1088,-3.0998,-3.1006,-3.0998,-3.099,-3.09,-3.0886,-3.0929,-3.1014,-3.1027,-3.0927,-3.0791,-3.0888,-3.0974,-3.1103,-3.1323,-3.1456,-3.1513,-3.1566,-3.1534,-3.1557,-3.1533,-3.1523,-3.1453,-3.1444,-3.1438,-3.146,-3.1554,-3.1479,-3.0978,-2.9941,-2.8044,-2.5463,-2.3297,-2.2676,-2.5487,-2.9357,-3.0849,-3.1447,-3.2457,-3.2991,-3.2699,-3.151,-3.1157,-3.1282,-3.1347,-3.1471,-3.1431,-3.1497,-3.1475,-3.1479,-3.1453,-3.1423,-3.1346,-3.1355,-3.1244,-3.1324,-3.1257,-3.1252,-3.1239,-3.1187,-3.1157,-3.1147,-3.1116,-3.1076,-3.1026,-3.0987,-3.0921,-3.0861,-3.075,-3.0647,-3.0582,-3.0535,-3.0432,-3.0325,-3.025,-3.0116,-3.0026,-2.9936,-2.982,-2.9779,-2.9743,-2.9693,-2.9595,-2.958,-2.9567,-2.9494,-2.948,-2.9421,-2.9421,-2.9405,-2.9375,-2.9386,-2.9429,-2.9397,-2.9446,-2.9557,-2.9667,-2.9813,-2.9922,-3.0047,-3.0288,-3.0423,-3.0622,-3.068,-3.0767,-3.0931,-3.1022,-3.1174,-3.1277,-3.1303,-3.1343,-3.1329,-3.1415,-3.1393,-3.1296,-3.1352,-3.1315,-3.1252,-3.1255,-3.1219,-3.1199,-3.1164,-3.1192,-3.112,-3.1151,-3.113,-3.1163,-3.1121,-3.1057,-3.1087,-3.1087,-3.1126,-3.1143,-3.1171,-3.1176,-3.114,-3.1239,-3.1259,-3.1309,-3.1371,-3.1338,-3.1292,-3.1339,-3.1182,-3.1137,-3.1068,-3.1072,-3.0986,-3.0933,-3.0894,-3.0983,-3.1113,-3.1128,-3.0973,-3.0903,-3.0962,-3.104,-3.1186,-3.1395,-3.1473,-3.1565,-3.1624,-3.1614,-3.1603,-3.1546,-3.1533,-3.1486,-3.1561,-3.151,-3.1571,-3.1532,-3.1343,-3.0793,-2.961,-2.7588,-2.5089,-2.3238,-2.3101,-2.6228,-2.9763,-3.0878,-3.1455,-3.2475,-3.3154,-3.2843,-3.2426,-3.1283,-3.1246,-3.1512,-3.1421,-3.1516,-3.1414,-3.1518,-3.1419,-3.1455,-3.1356,-3.1377,-3.1279,-3.1295,-3.1244,-3.1227,-3.115,-3.1151,-3.1087,-3.1077,-3.1056,-3.1031,-3.0964,-3.0908,-3.0888,-3.0819,-3.0756,-3.0644,-3.0624,-3.067,-3.0432,-3.0344,-3.0416,-3.0332,-3.0218,-3.0173,-3.0062,-2.9949,-2.9918,-2.976,-2.9702,-2.97,-2.9621,-2.9709,-2.9733,-2.968,-2.9609,-2.96,-2.9531,-2.9551,-2.9569,-2.9567,-2.9661,-2.9618,-2.9725,-2.9716,-2.9871,-3.0075,-3.026,-3.0343,-3.0548,-3.0608,-3.0754,-3.0864,-3.0995,-3.1139,-3.1244,-3.1241,-3.1321,-3.1404,-3.1351,-3.137,-3.1352,-3.1349,-3.131,-3.1333,-3.1332,-3.133,-3.1331,-3.1169,-3.1168,-3.1147,-3.1196,-3.1163,-3.1171,-3.1054,-3.1062,-3.1102,-3.1053,-3.1147,-3.1132,-3.1117,-3.1093,-3.1106,-3.1081,-3.1099,-3.1091,-3.1036,-3.0997,-3.0848,-3.0934,-3.0946,-3.0855,-3.0842,-3.0834,-3.0819,-3.0858,-3.0917,-3.0899,-3.0806,-3.088,-3.0925,-3.1032,-3.1228
