6.7927,6.7779,6.767,6.7657,6.7783,6.7915,6.7805,6.7723,6.7753,6.7924,6.8096,6.7961,6.7819,6.7853,6.7958,6.8163,6.8215,6.8048,6.8,6.806,6.8179,6.8182,6.7987,6.7902,6.7927,6.81,6.8074,6.7842,6.7748,6.7783,6.7955,6.796,6.7808,6.773,6.7689,6.776,6.7885,6.7776,6.7556,6.7541,6.7655,6.782,6.7742,6.7611,6.7669,6.78,6.8037,6.8005,6.7847,6.7954,6.8365,6.8767,6.8817,6.8699,6.8587,6.8577,6.8626,6.8539,6.8235,6.7915,6.7946,6.8061,6.8047,6.7748,6.759,6.7615,6.7798,6.7854,6.7728,6.7664,6.7744,6.7875,6.7989,6.7923,6.7692,6.7196,6.6079,6.5521,6.7017,6.9067,7.2051,7.6963,8.0146,8.0967,8.1532,7.6556,6.9717,6.8271,6.7675,6.7515,6.7589,6.7677,6.796,6.8119,6.817,6.8189,6.8302,6.8405,6.8496,6.8397,6.826,6.8249,6.8325,6.8329,6.8123,6.7858,6.7765,6.7771,6.782,6.7647,6.7548,6.7611,6.7872,6.8052,6.8086,6.8044,6.8101,6.8262,6.8533,6.8691,6.8622,6.8647,6.892,6.9342,6.9593,6.9572,6.9785,7.0121,7.0511,7.0719,7.0753,7.0784,7.1098,7.1408,7.1526,7.1576,7.152,7.1614,7.1737,7.1723,7.1379,7.0977,7.0668,7.0445,7.0246,6.9839,6.9384,6.9098,6.8966,6.8868,6.8623,6.833,6.8279,6.8313,6.8362,6.835,6.817,6.8072,6.8112,6.8278,6.8279,6.8118,6.8029,6.8084,6.826,6.8371,6.8254,6.8242,6.826,6.8379,6.8378,6.8229,6.8144,6.8181,6.8365,6.8418,6.8275,6.805,6.8003,6.82,6.8316,6.8294,6.8102,6.8115,6.8248,6.8384,6.8348,6.8218,6.8179,6.8317,6.8512,6.8486,6.8377,6.8379,6.8522,6.8648,6.8651,6.8505,6.8338,6.8355,6.8462,6.8499,6.8295,6.8123,6.8145,6.8252,6.8281,6.8105,6.7942,6.7993,6.8084,6.8121,6.7957,6.7834,6.7855,6.7876,6.8003,6.8195,6.8329,6.8551,6.8711,6.8858,6.882,6.8551,6.836,6.8287,6.821,6.8069,6.781,6.7585,6.759,6.7592,6.7634,6.7381,6.7345,6.7431,6.7507,6.7582,6.7508,6.7431,6.7387,6.7473,6.7434,6.6537,6.5029,6.5438,6.7958,7.0329,7.4095,7.8388,8.0189,8.0475,7.9603,7.2582,6.8056,6.7635,6.7241,6.758,6.7596,6.7647,6.7572,6.8009,6.8291,6.85,6.8129,6.8203,6.8236,6.8489,6.8388,6.825,6.8098,6.816,6.818,6.8147,6.7777,6.7748,6.7762,6.7867,6.7972,6.7937,6.7847,6.7975,6.824,6.8489,6.8474,6.8494,6.8594,6.8931,6.926,6.9363,6.9349,6.9601,6.9904,7.032,7.0562,7.0711,7.0815,7.1034,7.1351,7.1664,7.1732,7.1756,7.1945,7.2178,7.2355,7.2307,7.2062,7.1891,7.1754,7.1463,7.1013,7.0443,7.0226,7.0073,6.9901,6.9464,6.9112,6.8987,6.8896,6.8873,6.8769,6.8386,6.8365,6.8427,6.8647,6.8489,6.8366,6.825,6.8275,6.837,6.8343,6.8136,6.8147,6.8304,6.8469,6.8425,6.8242,6.8145,6.8257,6.8416,6.8522,6.8268,6.8105,6.8132,6.8281,6.838,6.826,6.8161,6.8231,6.838,6.8481,6.8369,6.8298,6.8268,6.8438,6.8418,6.8346,6.8245,6.8209,6.8302,6.8507,6.8389,6.8301,6.8285,6.8334,6.863,6.8969,6.914,6.9128,6.9333,6.95,6.9461,6.9082,6.8752,6.8618,6.8586,6.852,6.8408,6.8239,6.81,6.8227,6.8317,6.8177,6.7942,6.8041,6.8071,6.8289,6.8171,6.7971,6.805,6.8219,6.7754,6.6281,6.5999,6.7942,7.08,7.4178,7.8934,8.0338,8.0823,8.1032,7.6892,7.1025,6.8804,6.8235,6.7789,6.8342,6.8511,6.859,6.8537,6.8849,6.9145,6.9195,6.9091,6.9089,6.9098,6.9294,6.9247,6.9139,6.8931,6.8915,6.8994,6.9172,6.8911,6.8831,6.8807,6.9087,6.9266,6.9129,6.9046,6.919,6.9462,6.9734,6.9826,6.9901,7.0019,7.0361,7.0713,7.0849,7.0835,7.0965,7.1218,7.1598,7.1958,7.1903,7.2093,7.2334,7.2689,7.2901,7.2806,7.2866,7.2958,7.3084,7.315,7.275,7.242,7.2067,7.1832,7.1576,7.1354,7.0794,7.0356,7.0133,7.0007,6.9688,6.9282,6.9091,6.9009,6.9027,6.8935,6.8693,6.8595,6.8619,6.8714,6.8572,6.8372,6.8234,6.8371,6.8461,6.8505,6.8332,6.813,6.8122,6.8301,6.8363,6.8141,6.7966,6.7961,6.8112,6.8143,6.8028,6.7859,6.7873,6.7944,6.8026,6.793,6.7759,6.7778,6.789,6.8009,6.7992,6.787,6.7883,6.804,6.8232,6.8432,6.8356,6.8315,6.8345,6.8515,6.8511,6.8144,6.781,6.7626,6.7614,6.7558,6.7173,6.7114,6.7077,6.7148,6.7237,6.7135,6.6928,6.6891,6.7,6.712,6.6881,6.6734,6.6759,6.6862,6.6632,6.5509,6.4377,6.5545,6.8287,7.1224,7.5616,7.8772,7.9176,7.9763,7.8176,7.135,6.847,6.6909,6.5902,6.6576,6.6548,6.6691,6.6607,6.7071,6.7292,6.7531,6.729,6.7272,6.7231,6.7502,6.7466,6.7358,6.7088,6.7157,6.7123,6.7235,6.6985,6.6807,6.6745,6.6906,6.7037,6.7106,6.703,6.7151,6.7299,6.7628,6.7716,6.7734,6.785,6.8163,6.8471,6.8621,6.8626,6.8788,6.8954,6.9365,6.9702,6.9649,6.9741,7.0026,7.0369,7.055,7.0539,7.0551,7.0762,7.0888,7.097,7.0657,7.0352,7.0024,6.9876,6.9601,6.9121,6.8637,6.8521,6.8298,6.8186,6.7941,6.762,6.7362,6.7368,6.7386,6.7271,6.7021,6.6941,6.6958,6.7096,6.7087,6.6899,6.6739,6.6862,6.7008,6.7078,6.695,6.6896,6.6931,6.7109,6.7145,6.7028,6.681,6.691,6.6975,6.7124,6.6961,6.6791,6.6788,6.6971,6.7014,6.6938,6.6816,6.6891,6.7061,6.7242,6.7279,6.719,6.7223,6.7424,6.7777,6.7888,6.765,6.7661,6.7693,6.7793,6.755,6.7117,6.6752,6.6705,6.6838,6.6697,6.6458,6.6341,6.6336,6.6525,6.6587,6.6441,6.6381,6.6332,6.6448,6.6577,6.6455,6.627,6.6186,6.5852,6.4767,6.4227,6.5948,6.819,7.1495,7.6537,7.9037,7.9177,7.9589,7.3456,6.7578,6.6568,6.609,6.6083,6.6138,6.651,6.6583,6.6752,6.6811,6.7066,6.7176,6.7335,6.7084,6.7123,6.7088,6.7379,6.7367,6.7163,6.6919,6.6914,6.6909,6.6902,6.6702,6.6606,6.6558,6.6687,6.6908,6.6947,6.6882,6.6973,6.7203,6.7481,6.7577,6.7577,6.7739,6.7973,6.8394,6.8546,6.861,6.8803,6.9158,6.9588,6.9767,6.9757,6.9873,7.0055,7.0346,7.0621,7.062,7.0544,7.0625,7.0685,7.0632,7.0191,6.9787,6.9467,6.9285,6.9013,6.8592,6.8116,6.7907,6.7798,6.7729,6.7565,6.7316,6.714,6.7206,6.7287,6.7309,6.7011,6.6958,6.6973,6.7171,6.7159,6.6949,6.6832,6.6994,6.718,6.7279,6.7077,6.7075,6.7114,6.7227,6.7165,6.7062,6.6898,6.6892,6.6928,6.7038,6.6894,6.6672,6.6639,6.6795,6.6934,6.6897,6.6791,6.6897,6.7069,6.7233,6.7224,6.7133,6.7167,6.7339,6.7517,6.7527,6.7481,6.7367,6.7457,6.7681,6.7748,6.7632,6.7641,6.7763,6.8018,6.8233,6.8308,6.8279,6.8266,6.8406,6.8352,6.7973,6.7591,6.7453,6.742,6.7464,6.7238,6.6999,6.6921,6.6939,6.7044,6.7041,6.6838,6.6883,6.7041,6.7237,6.7221,6.7098,6.7097,6.7115,6.662,6.5203,6.501,6.7146,6.9265,7.0887,7.5489,7.8943,8.0095,8.0855,7.731,7.0117,6.7316,6.6794,6.6731,6.704,6.7033,6.7123,6.7066,6.7464,6.7616,6.7912,6.7663,6.7652,6.7609,6.7854,6.7849,6.7837,6.7468,6.7358,6.7277,6.7372,6.7145,6.6895,6.6777,6.6899,6.7059,6.7113,6.7043,6.714,6.736,6.7687,6.7819,6.7779,6.7835,6.8078,6.8259,6.8591,6.872,6.8809,6.9088,6.9491,6.9903,6.9998,7.0071,7.029,7.0631,7.0928,7.0978,7.0925,7.1071,7.1248,7.1383,7.1122,7.0777,7.0466,7.0389,7.017,6.9912,6.9384,6.904,6.8796,6.8768,6.8531,6.8208,6.7978,6.796,6.8053,6.8043,6.7803,6.7685,6.774,6.7931,6.7954,6.7749,6.7622,6.766,6.7779,6.7969,6.7916,6.7826,6.7862,6.8037,6.8103,6.8023,6.7764,6.7783,6.7842,6.7944,6.7717,6.7483,6.745,6.7583,6.7722,6.7685,6.7478,6.7503,6.7539,6.7724,6.7732,6.7603,6.7501,6.7587,6.7714,6.7821,6.768,6.7531,6.7645,6.7822,6.7851,6.7682,6.7566,6.7576,6.7683,6.7724,6.7521,6.7425,6.7431,6.752,6.7744,6.7752,6.7558,6.7653,6.8057,6.8409,6.8349,6.8144,6.8113,6.8052,6.8048,6.7792,6.7425,6.7365,6.7391,6.7458,6.7378,6.7173,6.7125,6.7188,6.7317,6.7374,6.7231,6.7102,6.7167,6.7299,6.7429,6.7298,6.7025,6.6268,6.5024,6.5464,6.7684,6.9595,7.3419,7.7952,7.9952,8.015,8.0568,7.5783,6.9139,6.757,6.6973,6.6902,6.6954,6.7056,6.7313,6.7534,6.7563,6.76,6.765,6.7788,6.7789,6.7613,6.7497,6.7562,6.7677,6.7516,6.721,6.7058,6.6946,6.6912,6.6933,6.6748,6.6662,6.6762,6.7005,6.7261,6.7312,6.7283,6.7425,6.7671,6.7817,6.7914,6.7942,6.8072,6.8492,6.8859,6.9032,6.9004,6.9204,6.9514,6.9957,7.0161,7.022,7.0274,7.0513,7.081,7.104,7.0925,7.0876,7.0927,7.0981,7.0794,7.0376,6.9913,6.9631,6.9466,6.9278,6.899,6.8615,6.8308,6.827,6.8212,6.8051,6.7762,6.765,6.7705,6.7864,6.7728,6.7549,6.7522,6.768,6.7804,6.7832,6.7679,6.7691,6.7826,6.801,6.7986,6.7912,6.776,6.7761,6.7862,6.792,6.772,6.7611,6.7592,6.7648,6.7639,6.7446,6.7277,6.7309,6.7411,6.7527,6.7329,6.72,6.7242,6.7331,6.7464,6.7376,6.7175,6.7053,6.7119,6.7319,6.7279,6.7103,6.7017,6.7086,6.7321,6.7282,6.7155,6.703,6.714,6.7355,6.7308,6.7017,6.6995,6.7051,6.728,6.7426,6.7535,6.7726,6.7834,6.7924,6.8004,6.7735,6.741,6.7121,6.7027,6.6999,6.6848,6.6681,6.6649,6.6693,6.6753,6.6694,6.6565,6.6552,6.6643,6.6728,6.6833,6.6658,6.652,6.6679,6.679,6.626,6.4782,6.4271,6.6244,6.8757,7.2075,7.6586,7.8896,7.917,7.9386,7.3398,6.7907,6.6981,6.6323,6.6665,6.6741,6.6845,6.6791,6.7083,6.7339,6.759,6.7524,6.7393,6.7361,6.7487,6.7545,6.7427,6.7183,6.7127,6.7165,6.7199,6.7052,6.6912,6.6963,6.7095,6.7183,6.7168,6.7165,6.7144,6.7345,6.752,6.777,6.772,6.7817,6.8005,6.8306,6.8553,6.8588,6.8737,6.9009,6.9454,6.9797,6.9861,6.9955,7.0172,7.0327,7.0628,7.0696,7.0596,7.0746,7.0997,7.1158,7.115,7.0845,7.0663,7.0569,7.0365,6.9997,6.9463,6.9177,6.8999,6.8938,6.8609,6.816,6.8003,6.7982,6.7922,6.7912,6.7698,6.7483,6.7391,6.7511,6.7511,6.7344,6.7283,6.7252,6.7411,6.7535,6.7323,6.7224,6.7208,6.728,6.7453,6.7307,6.7191,6.7235,6.7293,6.7412,6.7307,6.718,6.723,6.7382,6.7509,6.7496,6.7346,6.7338,6.7498,6.7642,6.7557,6.7289,6.7211,6.7313,6.7445,6.7376,6.7304,6.7323,6.7416,6.7668,6.7798,6.7881,6.7967,6.7981,6.813,6.8324,6.8197,6.777,6.7507,6.7512,6.7555,6.7243,6.7101,6.7051,6.7137,6.7251,6.7129,6.6946,6.6951,6.7002,6.7147,6.7083,6.6978,6.688,6.7027,6.71,6.6651,6.5163,6.4705,6.6648,6.9408,7.2694,7.734,7.9383,7.9155,7.8865,7.2506,6.8027,6.7615,6.6916,6.6658,6.7012,6.7144,6.706,6.723,6.7488,6.785,6.7744,6.7728,6.7656,6.7816,6.7817,6.772,6.7411,6.7421,6.7399,6.7554,6.7339,6.7144,6.705,6.7168,6.7351,6.7524,6.7359,6.735,6.7454,6.7729,6.7946,6.7876,6.7876,6.8118,6.8395,6.8676,6.8731,6.8787,6.9029,6.9375,6.9621,6.9663,6.9633,6.9729,6.9918,7.0176,7.0189,7.0131,7.0207,7.0308,7.0426,7.0337,6.9996,6.9694,6.9498,6.9273,6.8867,6.8359,6.7967,6.7785,6.7703,6.7373,6.7121,6.6852,6.6766,6.6767,6.6773,6.6572,6.635,6.6309,6.6363,6.6422,6.6199,6.6062,6.6082,6.6267,6.6336,6.617,6.6044,6.6099,6.6226,6.6321,6.6226,6.6045,6.599,6.6033,6.6189,6.6203,6.6069,6.6029,6.6176,6.6312,6.6385,6.6171,6.6104,6.6203,6.6363,6.6347,6.6171,6.6117,6.6171,6.6337,6.6339,6.6184,6.608,6.6138,6.633,6.6518,6.6633,6.6592,6.6644,6.6823,6.7003,6.687,6.6541,6.6253,6.6123,6.6139,6.5996,6.5723,6.5693,6.5668,6.5826,6.5769,6.5556,6.5418,6.5488,6.56,6.5661,6.5435,6.5327,6.537,6.5539,6.5323,6.4196,6.2892,6.3782,6.6334,6.8905,7.308,7.6908,7.8235,7.8837,7.8282,7.1731,6.6178,6.547,6.4994,6.5357,6.5353,6.5296,6.5346,6.5686,6.5983,6.6065,6.5897,6.5881,6.5989,6.6189,6.6193,6.6023,6.5872,6.5912,6.5946,6.5908,6.5637,6.5439,6.5434,6.5653,6.5739,6.5722,6.5704,6.5873,6.6165,6.6349,6.6369,6.6375,6.6536,6.6887,6.7133,6.7189,6.7278,6.757,6.7967,6.8134,6.8339,6.8374,6.8479,6.8741,6.9034,6.918,6.9128,6.9269,6.9466,6.9628,6.9632,6.9327,6.9101,6.8906,6.8787,6.8407,6.7885,6.7529,6.7359,6.7278,6.7229,6.6854,6.6518,6.637,6.6352,6.6409,6.6191,6.6021,6.6019,6.6131,6.6251,6.6086,6.5939,6.5939,6.6135,6.6299,6.6279,6.616,6.6256,6.6342,6.6542,6.6524,6.6337,6.6279,6.637,6.6485,6.6523,6.6268,6.6232,6.6239,6.6371,6.64,6.6272,6.6251,6.6372,6.6556,6.6579,6.6487,6.6423,6.653,6.6627,6.6734,6.6639,6.6435,6.6469,6.6595,6.6722,6.6653,6.6496,6.6469,6.6585,6.6655,6.6537,6.6353,6.635,6.6438,6.6581,6.6488,6.6348,6.6315,6.638,6.6426,6.6538,6.6364,6.6271,6.6291,6.6454,6.6474,6.6318,6.6246,6.6302,6.6447,6.6555,6.6415,6.6339,6.6378,6.6518,6.6576,6.6411,6.6344,6.6429,6.6531,6.6722,6.6708,6.6521,6.6616,6.7018,6.7446,6.7463,6.7379,6.7297,6.7373,6.7375,6.7134,6.6822,6.6634,6.6723,6.6791,6.6642,6.6418,6.6346,6.6313,6.6452,6.6494,6.6324,6.6197,6.6226,6.6392,6.6481,6.6371,6.6017,6.5244,6.4077,6.468,6.6822,6.8875,7.295,7.7306,7.9309,7.9759,7.8661,7.5136,6.8482,6.6803,6.6358,6.6051,6.6277,6.6259,6.6664,6.6726,6.6905,6.6832,6.706,6.7108,6.7214,6.6859,6.6871,6.6746,6.6878,6.6652,6.6448,6.6239,6.6222,6.6075,6.621,6.5973,6.596,6.5963,6.6287,6.6476,6.6513,6.6423,6.6557,6.675,6.7002,6.6991,6.702,6.7157,6.7547,6.7868,6.7989,6.7979,6.8166,6.8457,6.8859,6.9059,6.9039,6.9146,6.9397,6.9717,6.9836,6.9741,6.9742,6.9862,7.0007,6.9971,6.9581,6.9254,6.9007,6.8856,6.857,6.8087,6.7885,6.7664,6.7495,6.7495,6.7208,6.6937,6.6752,6.6806,6.6845,6.6736,6.6506,6.6512,6.6539,6.6641,6.6527,6.6411,6.6403,6.6638,6.684,6.6847,6.672,6.6679,6.6658,6.6855,6.6848,6.6722,6.6498,6.6552,6.6629,6.669,6.6371,6.6288,6.6248,6.6429,6.6493,6.6358,6.618,6.6248,6.6318,6.6449,6.6359,6.6173,6.61,6.6241,6.6394,6.6356,6.6169,6.6155,6.6204,6.6329,6.6263,6.6078,6.5986,6.6093,6.6189,6.6113,6.5882,6.5824,6.5932,6.6024,6.6085,6.592,6.5778,6.5774,6.5891,6.5966,6.5784,6.5659,6.5664,6.5828,6.593,6.5801,6.5647,6.5675,6.5862,6.5983,6.5892,6.5765,6.5803,6.5902,6.5996,6.5967,6.5755,6.5656,6.5725,6.5915,6.5919,6.5807,6.5744,6.5905,6.6066,6.6095,6.6161,6.6397,6.6646,6.6865,6.6869,6.666,6.6491,6.6409,6.6413,6.6306,6.6149,6.5966,6.5852,6.5842,6.5959,6.5746,6.5591,6.5545,6.5703,6.5814,6.5762,6.5542,6.5564,6.5654,6.5729,6.5113,6.3687,6.3201,6.5113,6.6472,6.8689,7.2641,7.6448,7.8202,7.8852,7.744,6.9932,6.6094,6.5717,6.5492,6.5769,6.5562,6.5579,6.5701,6.619,6.6341,6.6353,6.6201,6.6334,6.6297,6.6467,6.6289,6.6096,6.587,6.5941,6.5862,6.5708,6.5303,6.5267,6.5288,6.5512,6.5465,6.5491,6.5553,6.5831,6.6057,6.6123,6.6006,6.6151,6.6376,6.6555,6.6738,6.6838,6.6915,6.724,6.7617,6.7951,6.8004,6.8151,6.8386,6.8771,6.8996,6.9016,6.9032,6.9223,6.9532,6.9735,6.9633,6.9529,6.9499,6.95,6.9438,6.9112,6.8586,6.8213,6.7998,6.79,6.762,6.7155,6.6866,6.6774,6.6747,6.6563,6.6234,6.6104,6.6167,6.6247,6.6227,6.5986,6.5931,6.5939,6.6112,6.6192,6.6124,6.6033,6.615,6.6306,6.6499,6.6373,6.6278,6.6278,6.6438,6.652,6.6384,6.6138,6.6163,6.6244,6.6342,6.6177,6.605,6.6036,6.6189,6.6326,6.6352,6.6123,6.6076,6.6132,6.6304,6.6283,6.6121,6.6008,6.61,6.6234,6.6298,6.6086,6.6061,6.6101,6.6247,6.6224,6.6071,6.5959,6.5956,6.6041,6.6142,6.6031,6.5852,6.5862,6.598,6.6107,6.5971,6.5797,6.581,6.5889,6.6007,6.5881,6.5705,6.5723,6.5853,6.6032,6.5982,6.5781,6.5743,6.5768,6.5983,6.6024,6.5815,6.5685,6.573,6.5889,6.5919,6.571,6.5613,6.561,6.5755,6.5835,6.5673,6.5551,6.5595,6.5799,6.5837,6.5657,6.5614,6.565,6.5819,6.5973,6.5945,6.5815,6.6001,6.6399,6.6837,6.6855,6.6583,6.6489,6.6466,6.6421,6.6142,6.5805,6.5691,6.5747,6.5777,6.5731,6.5377,6.5305,6.5354,6.5445,6.547,6.5335,6.5182,6.5234,6.5402,6.556,6.5383,6.4841,6.3674,6.3261,6.5007,6.723,6.9926,7.459,7.7468,7.8086,7.8839,7.7177,7.0188,6.6267,6.5946,6.5306,6.5385,6.5365,6.5622,6.5833,6.6274,6.6223,6.6242,6.6233,6.6506,6.6457,6.6291,6.6166,6.6253,6.6231,6.6065,6.586,6.5724,6.5635,6.5763,6.5914,6.595,6.5795,6.5951,6.6089,6.6364,6.6378,6.6261,6.637,6.6646,6.6943,6.7026,6.7076,6.7287,6.7607,6.7957,6.799,6.8074,6.8338,6.8537,6.8931,6.9153,6.916,6.9257,6.9531,6.9767,6.9959,6.9911,6.9911,6.9978,7.0168,7.0046,6.9692,6.9302,6.9061,6.8896,6.8626,6.837,6.7932,6.7605,6.7557,6.7427,6.7264,6.6916,6.6852,6.6917,6.6954,6.6826,6.6658,6.6507,6.6577,6.6686,6.6673,6.6484,6.6475,6.6686,6.6831,6.6824,6.653,6.6421,6.6585,6.6755,6.6774,6.6561,6.6511,6.6475,6.6656,6.6685,6.6564,6.6502,6.6538,6.67,6.6735,6.6696,6.6694,6.6663,6.6752,6.6756,6.6578,6.6308,6.6261,6.6303,6.6389,6.639,6.6245,6.607,6.6157,6.6206,6.6024,6.5881,6.5794,6.5937,6.6214,6.6158,6.6023,6.6157,6.6304,6.6319,6.6555,6.6784,6.6938,6.7004,6.7205,6.7354,6.7088,6.6696,6.6433,6.6421,6.6388,6.6109,6.5963,6.5921,6.6031,6.6178,6.6078,6.5838,6.5873,6.5953,6.6041,6.6064,6.5867,6.5883,6.595,6.5998,6.5244,6.373,6.4134,6.6854,6.9837,7.3608,7.733,7.7749,7.7893,7.5316,6.9175,6.6593,6.5988,6.5472,6.5631,6.6111,6.6076,6.6052,6.6324,6.672,6.6975,6.6923,6.6786,6.6852,6.6903,6.6924,6.6747,6.6553,6.6464,6.6585,6.6619,6.6442,6.6234,6.6301,6.6378,6.6598,6.6739,6.6721,6.6718,6.6911,6.7183,6.7409,6.7311,6.7358,6.762,6.7953,6.8157,6.8163,6.8308,6.8595,6.8958,6.9169,6.9159,6.9281,6.9168,6.9571,6.986,6.9803,6.978,6.9786,6.9969,7.0131,6.9925,6.9656,6.9361,6.914,6.9062,6.8674,6.8139,6.7362,6.7171,6.6951,6.6633,6.6208,6.5995,6.5946,6.5932,6.5771,6.5479,6.5225,6.5221,6.5292,6.5309,6.5079,6.4905,6.4947,6.5155,6.5238,6.5024,6.4829,6.4837,6.498,6.5002,6.4808,6.4623,6.4644,6.473,6.4846,6.4761,6.4586,6.4556,6.467,6.4873,6.4856,6.4621,6.4524,6.4604,6.4735,6.4643,6.4406,6.4334,6.4383,6.4521,6.442,6.4196,6.4142,6.414,6.4262,6.43,6.4198,6.4129,6.4293,6.4652,6.4881,6.4843,6.4665,6.4819,6.4866,6.4719,6.4272,6.3973,6.3907,6.3945,6.4022,6.3833,6.3643,6.3618,6.3677,6.3828,6.3738,6.367,6.3566,6.363,6.3862,6.3871,6.3713,6.3506,6.2868,6.1708,6.2061,6.4216,6.6553,7.0431,7.5028,7.6506,7.6415,7.6746,7.1607,6.5536,6.4172,6.3443,6.3325,6.3464,6.3744,6.3905,6.405,6.4144,6.432,6.4501,6.4681,6.4599,6.4419,6.4425,6.4485,6.4561,6.4413,6.4241,6.4088,6.4027,6.4121,6.4049,6.3908,6.3881,6.4053,6.4282,6.4406,6.4449,6.4498,6.4659,6.4948,6.5098,6.5111,6.5119,6.5358,6.5689,6.599,6.6022,6.6112,6.6331,6.6664,6.7011,6.7167,6.7152,6.7306,6.7569,6.7845,6.7862,6.7835,6.7833,6.7931,6.7908,6.7624,6.7126,6.6761,6.6514,6.6327,6.6005,6.5731,6.5305,6.5058,6.5035,6.491,6.4642,6.438,6.4412,6.4459,6.449,6.4294,6.4202,6.4183,6.4346,6.4397,6.4266,6.4186,6.4298,6.455,6.4688,6.4615,6.4432,6.4388,6.455,6.4694,6.4696,6.4462,6.4482,6.4574,6.4766,6.4699,6.458,6.4559,6.461,6.4732,6.4718,6.4571,6.4603,6.4686,6.4845,6.4873,6.4747,6.4636,6.4662,6.4762,6.4833,6.4652,6.4499,6.4497,6.4633,6.4709,6.4575,6.4467,6.4443,6.4583,6.469,6.4509,6.439,6.4381,6.4548,6.4638,6.467,6.4477,6.4361,6.4534,6.4698,6.4789,6.4627,6.4901,6.5332,6.5567,6.562,6.5458,6.529,6.5202,6.5127,6.5009,6.484,6.4636,6.4662,6.477,6.4771,6.4657,6.4525,6.4519,6.4613,6.4773,6.4852,6.4638,6.4651,6.478,6.4869,6.4427,6.3278,6.2171,6.3339,6.5886,6.8326,7.2531,7.6096,7.7399,7.7497,7.7778,7.1128,6.551,6.4907,6.4348,6.4709,6.4536,6.4622,6.4758,6.5246,6.5413,6.5452,6.5316,6.5533,6.5576,6.5679,6.5342,6.5277,6.5188,6.529,6.5255,6.5126,6.4794,6.473,6.4766,6.4966,6.4932,6.4879,6.4959,6.5262,6.5493,6.5602,6.5503,6.5632,6.5791,6.6071,6.6138,6.6145,6.6343,6.6664,6.6866,6.7197,6.7259,6.7417,6.7664,6.7949,6.8266,6.8256,6.8335,6.8487,6.8804,6.8961,6.8867,6.874,6.8726,6.8676,6.8503,6.796,6.7524,6.7181,6.7101,6.6889,6.6636,6.6193,6.5983,6.5888,6.588,6.5712,6.5485,6.5343,6.541,6.5477,6.5438,6.5189,6.5194,6.5245,6.5425,6.5437,6.5258,6.5312,6.5421,6.5553,6.5682,6.5518,6.5418,6.5469,6.5629,6.5674,6.553,6.5341,6.5408,6.553,6.5618,6.539,6.5294,6.5304,6.5506,6.5622,6.5546,6.5382,6.5389,6.5425,6.562,6.5591,6.5443,6.5382,6.548,6.5605,6.564,6.5437,6.5355,6.5444,6.5562,6.5478,6.5287,6.5198,6.527,6.5397,6.5405,6.521,6.5129,6.5171,6.5298,6.5372,6.5283,6.5044,6.5037,6.5192,6.5314,6.5229,6.5125,6.5115,6.5343,6.5793,6.6012,6.5984,6.6032,6.6146,6.6193,6.5946,6.5588,6.5451,6.5353,6.5485,6.5425,6.5159,6.5018,6.5011,6.5151,6.5213,6.4994,6.4991,6.5013,6.523,6.5268,6.5062,6.4968,6.4969,6.4486,6.3173,6.2788,6.3554,6.5887,6.8506,7.273,7.644,7.7332,7.8012,7.5307,6.8484,6.5439,6.4818,6.4539,6.4941,6.4995,6.511,6.4973,6.533,6.5457,6.5849,6.5675,6.5692,6.5444,6.5629,6.5675,6.5793,6.544,6.5338,6.5174,6.5283,6.5182,6.4955,6.4735,6.4859,6.5023,6.528,6.5208,6.5285,6.5391,6.5706,6.591,6.5882,6.5843,6.6,6.6251,6.6641,6.6807,6.6883,6.7051,6.7422,6.7826,6.805,6.8063,6.8285,6.8581,6.8907,6.9024,6.8956,6.9021,6.9203,6.9384,6.9408,6.9289,6.9002,6.8754,6.8597,6.8508,6.818,6.7502,6.716,6.7116,6.6925,6.661,6.628,6.6189,6.6233,6.629,6.6087,6.5842,6.5799,6.5935,6.6,6.6007,6.5731,6.5725,6.5777,6.6041,6.6109,6.6,6.601,6.6169,6.6263,6.6296,6.6079,6.6044,6.6049,6.6204,6.6163,6.5992,6.5912,6.5999,6.6121,6.618,6.6041,6.5943,6.5938,6.6092,6.6159,6.6064,6.5818,6.5881,6.5958,6.6094,6.5911,6.5756,6.57,6.5807,6.591,6.5828,6.5655,6.5643,6.5777,6.595,6.5922,6.5841,6.5816,6.6272,6.6612,6.6671,6.6488,6.6374,6.6241,6.6098,6.5879,6.5579,6.5401,6.5363,6.5494,6.5481,6.5325,6.5293,6.5386,6.5553,6.5623,6.5531,6.5413,6.5406,6.5549,6.5711,6.5612,6.5003,6.3849,6.3139,6.4727,6.7152,6.9694,7.4205,7.735,7.8192,7.8826,7.3858,6.76,6.6057,6.5779,6.5481,6.5505,6.5475,6.5463,6.5725,6.5987,6.6042,6.6012,6.6119,6.629,6.6402,6.6261,6.6207,6.6174,6.6283,6.6218,6.5993,6.5699,6.5588,6.5669,6.5685,6.5627,6.5573,6.5645,6.5874,6.6145,6.6246,6.6188,6.6296,6.6559,6.6896,6.7031,6.7018,6.7159,6.748,6.783,6.8106,6.8203,6.8449,6.8825,6.8983,6.9195,6.9256,6.9366,6.9541,6.9735,6.9896,6.9784,6.9665,6.9542,6.9574,6.9395,6.8925,6.8491,6.811,6.7895,6.7652,6.7349,6.6906,6.6633,6.6606,6.6651,6.6492,6.6265,6.6102,6.6131,6.6253,6.6214,6.5938,6.5856,6.5909,6.6031,6.5963,6.5791,6.5761,6.597,6.62,6.6153,6.5957,6.5933,6.5941,6.6006,6.607,6.5987,6.5895,6.5743,6.576,6.596,6.5805,6.5631,6.5626,6.5769,6.5906,6.5849,6.5626,6.5708,6.5773,6.6051,6.5907,6.5679,6.5828,6.5962,6.6236,6.6319,6.6272,6.6497,6.6477,6.6624,6.6598,6.6468,6.6228,6.6099,6.5933,6.5932,6.5857,6.5532,6.5501,6.559,6.5632,6.5449,6.5302,6.5286,6.5392,6.5438,6.5327,6.5193,6.5168,6.524,6.5379,6.5001,6.3841,6.2897,6.4277,6.7066,6.9771,7.3919,7.6251,7.7437,7.8294,7.3452,6.7587,6.5997,6.5881,6.5398,6.5803,6.565,6.5631,6.5876,6.6363,6.6724,6.6558,6.6358,6.645,6.6605,6.6778,6.6707,6.6586,6.6616,6.6673,6.661,6.6389,6.6263,6.6166,6.6246,6.6449,6.6524,6.6377,6.6419,6.6682,6.7005,6.702,6.7008,6.7125,6.7338,6.7681,6.7925,6.7886,6.8133,6.8473,6.8903,6.917,6.918,6.9204,6.9504,6.9853,7.0157,7.0044,7.0059,7.0275,7.0535,7.067,7.0473,7.0278,6.9994,6.9884,6.9686,6.922,6.875,6.8498,6.8321,6.8104,6.7675,6.7469,6.728,6.7241,6.717,6.7029,6.6862,6.676,6.6762,6.6853,6.67,6.6466,6.6402,6.6431,6.6622,6.6654,6.6368,6.6198,6.6354,6.6518,6.6609,6.6441,6.6289,6.6184,6.6411,6.6487,6.6465,6.6337,6.6373,6.6524,6.6694,6.6702,6.6653,6.6784,6.6897,6.7185,6.7183,6.7282,6.7396,6.7303,6.7482,6.7435,6.7238,6.6997,6.6782,6.6628,6.6466,6.6296,6.6119,6.6121,6.621,6.6148,6.5928,6.5855,6.5994,6.6062,6.6142,6.5989,6.5927,6.6048,6.6105,6.606,6.5884,6.5047,6.3785,6.4311,6.6937,6.965,7.3256,7.755,7.8097,7.8494,7.5861,6.9283,6.6525,6.6011,6.5617,6.5801,6.5724,6.578,6.6079,6.6417,6.6528,6.6398,6.6404,6.648,6.6662,6.6694,6.6493,6.6293,6.6367,6.6359,6.6366,6.5993,6.5858,6.5804,6.5882,6.5977,6.5839,6.5767,6.5861,6.6118,6.6249,6.6266,6.6267,6.6347,6.6527,6.6837,6.7013,6.7025,6.7211,6.7514,6.7894,6.8011,6.8024,6.8111,6.8395,6.8578,6.8604,6.8534,6.8466,6.8605,6.8745,6.8692,6.8491,6.8247,6.8059,6.7884,6.7681,6.7093,6.6641,6.6266,6.6113,6.6021,6.5542,6.5212,6.5103,6.5131,6.5049,6.4798,6.4618,6.4588,6.466,6.4733,6.4701,6.4524,6.4431,6.4546,6.4686,6.4763,6.4538,6.4502,6.4584,6.4768,6.4759,6.465,6.4583,6.4663,6.4726,6.4728,6.4574,6.4642,6.4785,6.4928,6.5164,6.5158,6.5179,6.5355,6.5679,6.5728,6.5587,6.5343,6.5336,6.5413,6.528,6.4917,6.4489,6.4457,6.4407,6.4504,6.4269,6.401,6.401,6.4047,6.4172,6.4226,6.3985,6.3932,6.3998,6.4221,6.4238,6.4079,6.3941,6.3481,6.2309,6.2288,6.4404,6.6771,7.0348,7.5287,7.695,7.6898,7.6238,6.934,6.6252,6.4613,6.3744,6.3976,6.3778,6.4283,6.4274,6.462,6.4474,6.4917,6.4937,6.5283,6.4972,6.5059,6.4942,6.5255,6.5159,6.5163,6.4767,6.4827,6.4725,6.4854,6.4721,6.4635,6.4478,6.474,6.4919,6.5143,6.5031,6.516,6.5266,6.5609,6.5804,6.5842,6.5903,6.6176,6.6476,6.6866,6.6965,6.7135,6.7269,6.7593,6.8004,6.8108,6.8122,6.8206,6.8446,6.8694,6.8764,6.8566,6.8578,6.8536,6.8497,6.8184,6.7757,6.7322,6.7196,6.6976,6.6683,6.6195,6.6114,6.5914,6.5927,6.5884,6.5613,6.536,6.5354,6.5442,6.5511,6.5243,6.5096,6.5082,6.5296,6.5351,6.5307,6.5251,6.5335,6.5468,6.5626,6.5427,6.5423,6.5362,6.5495,6.5558,6.5551,6.5306,6.5296,6.5382,6.5606,6.5524,6.5416,6.5418,6.5618,6.5826,6.6023,6.5867,6.5971,6.6165,6.6574,6.6581,6.6525,6.6437,6.6377,6.6525,6.6506,6.6162,6.5788,6.5655,6.5779,6.5658,6.5491,6.521,6.516,6.5294,6.5397,6.5195,6.5004,6.499,6.522,6.5323,6.5225,6.5089,6.5021,6.4805,6.4028,6.3097,6.4092,6.6562,6.9166,7.3873,7.7428,7.8086,7.9234,7.5161,6.805,6.5884,6.5191,6.5213,6.5422,6.5558,6.5702,6.5703,6.5778,6.5908,6.6115,6.6191,6.6166,6.5971,6.5995,6.6095,6.6125,6.6066,6.5844,6.5728,6.5822,6.5869,6.5748,6.5584,6.5595,6.5802,6.6053,6.6075,6.6098,6.6073,6.6311,6.6601,6.6773,6.6766,6.6886,6.7192,6.7565,6.7914,6.7943,6.8126,6.8426,6.8801,6.9012,6.9025,6.9096,6.9253,6.9533,6.9694,6.9655,6.9551,6.9502,6.9581,6.9519,6.9226,6.8673,6.833,6.8072,6.7964,6.7512,6.7092,6.6817,6.673,6.6663,6.6493,6.6208,6.6105,6.611,6.6246,6.6191,6.6003,6.5756,6.5777,6.5862,6.6004,6.5854,6.5763,6.58,6.5967,6.6063,6.5938,6.5821,6.5812,6.5911,6.6031,6.5833,6.5755,6.5726,6.5894,6.5992,6.6016,6.5859,6.5911,6.6072,6.6351,6.6401,6.6321,6.6304,6.6401,6.6523,6.6491,6.6215,6.5986,6.5849,6.5782,6.5705,6.5493,6.5335,6.5286,6.5306,6.5338,6.511,6.4964,6.4968,6.5083,6.5189,6.5018,6.4871,6.4927,6.5042,6.5028,6.4281,6.2756,6.2605,6.4921,6.7124,7.0635,7.5436,7.7514,7.8278,7.9213,7.4539,6.7126,6.4909,6.4536,6.4881,6.5018,6.4773,6.4805,6.4965,6.5297,6.5432,6.5297,6.5184,6.5302,6.5431,6.5518,6.5335,6.5226,6.5194,6.5226,6.5217,6.5034,6.4759,6.4662,6.477,6.4882,6.4842,6.4839,6.4913,6.512,6.539,6.5398,6.5392,6.5498,6.5809,6.6123,6.6205,6.6261,6.6535,6.6873,6.7099,6.7406,6.7444,6.7507,6.7721,6.8017,6.8206,6.8091,6.8115,6.8218,6.8463,6.8455,6.8214,6.7837,6.7638,6.7461,6.7221,6.6699,6.6328,6.6064,6.6058,6.5952,6.5723,6.5388,6.5256,6.5242,6.5407,6.5251,6.5038,6.4979,6.5055,6.5154,6.506,6.4854,6.4858,6.504,6.528,6.5281,6.5166,6.5147,6.5176,6.5321,6.5345,6.5205,6.5115,6.5184,6.5392,6.5528,6.5377,6.549,6.5675,6.5977,6.6135,6.6047,6.6014,6.604,6.6146,6.6054,6.5588,6.5209,6.5176,6.5263,6.5346,6.527,6.4972,6.4855,6.4971,6.5062,6.5,6.4725,6.4618,6.4718,6.483,6.4775,6.4591,6.4396,6.3789,6.2324,6.2069,6.4004,6.6144,6.7735,7.26,7.604,7.6778,7.8027,7.2863,6.661,6.492,6.4286,6.4341,6.4498,6.4626,6.4873,6.4836,6.4906,6.5034,6.5266,6.5363,6.5201,6.5063,6.5117,6.5285,6.5515,6.5464,6.5235,6.5099,6.5095,6.5063,6.4907,6.4515,6.4389,6.4408,6.4608,6.4714,6.4651,6.4713,6.4974,6.5298,6.5487,6.5511,6.556,6.5735,6.6084,6.6447,6.6597,6.6667,6.6941,6.7341,6.7663,6.7735,6.7688,6.7826,6.8112,6.8301,6.8286,6.8103,6.8044,6.8047,6.7922,6.7584,6.731,6.696,6.6718,6.6616,6.6363,6.5958,6.5659,6.5582,6.5565,6.5502,6.5219,6.5098,6.5102,6.5269,6.5241,6.5054,6.4935,6.5012,6.5188,6.5291,6.5137,6.512,6.5112,6.526,6.5446,6.5341,6.5104,6.5061,6.5145,6.5241,6.5064,6.4867,6.4837,6.5004,6.5223,6.5196,6.5168,6.5201,6.5463,6.5762,6.5798,6.5723,6.5673,6.5772,6.5895,6.5902,6.5552,6.5211,6.504,6.5098,6.5108,6.4781,6.453,6.4484,6.4551,6.4582,6.4398,6.4257,6.43,6.4458,6.4603,6.4521,6.4298,6.4248,6.4332,6.3932,6.2515,6.1798,6.3783,6.6186,6.9502,7.4372,7.6488,7.6794,7.7214,7.063,6.5454,6.4571,6.4037,6.442,6.456,6.4585,6.4424,6.4442,6.4497,6.483,6.4881,6.4822,6.455,6.4623,6.476,6.4955,6.4689,6.4583,6.4461,6.4555,6.447,6.4232,6.3936,6.3977,6.406,6.4259,6.4238,6.424,6.4334,6.4637,6.4915,6.5103,6.5053,6.5192,6.5431,6.5792,6.5968,6.6005,6.618,6.6469,6.6821,6.7045,6.707,6.7177,6.7356,6.7597,6.7692,6.7674,6.7592,6.7679,6.7856,6.7907,6.7603,6.7175,6.6896,6.6706,6.6561,6.6222,6.5865,6.5676,6.5699,6.5649,6.5426,6.5167,6.5171,6.5211,6.5301,6.5219,6.4968,6.4887,6.495,6.5105,6.5168,6.4943,6.5018,6.5154,6.5335,6.5296,6.5086,6.4986,6.507,6.5185,6.5166,6.5002,6.4909,6.4965,6.5137,6.5155,6.5029,6.4854,6.4873,6.5067,6.5231,6.5146,6.4996,6.4909,6.5008,6.5182,6.5194,6.5054,6.5149,6.5267,6.557,6.5716,6.5612,6.5595,6.5691,6.5737,6.5797,6.5385,6.5018,6.4772,6.4861,6.48,6.4423,6.428,6.4255,6.4368,6.4347,6.4125,6.4044,6.4027,6.4136,6.4299,6.4072,6.3978,6.4117,6.4091,6.3734,6.2442,6.164,6.3412,6.6089,6.9151,7.3798,7.617,7.6244,7.6715,7.0904,6.5528,6.4516,6.3715,6.3968,6.4147,6.4226,6.405,6.4267,6.4391,6.4708,6.4805,6.4572,6.4377,6.4521,6.4669,6.4735,6.4573,6.4372,6.4373,6.4511,6.4479,6.4275,6.4152,6.4184,6.4367,6.4598,6.4554,6.4556,6.4707,6.4801,6.4935,6.5212,6.5214,6.5423,6.5731,6.6121,6.6332,6.6366,6.6552,6.6865,6.7345,6.7577,6.7541,6.7632,6.7906,6.8186,6.8369,6.8247,6.8212,6.8306,6.8514,6.8513,6.8273,6.7845,6.7742,6.7506,6.7375,6.6996,6.6569,6.6346,6.6241,6.6184,6.5789,6.5541,6.5435,6.5538,6.558,6.5386,6.5232,6.5179,6.5244,6.5324,6.5337,6.5116,6.5137,6.5163,6.5309,6.5332,6.5191,6.5121,6.5194,6.5235,6.5235,6.5105,6.5061,6.5199,6.5511,6.5554,6.5405,6.534,6.5457,6.5829,6.6043,6.594,6.5949,6.6125,6.6189,6.6311,6.6171,6.5966,6.5902,6.5783,6.5546,6.518,6.4979,6.4805,6.4793,6.486,6.4648,6.445,6.4423,6.4551,6.4685,6.4734,6.4273,6.4123,6.4229,6.4423,6.4545,6.4312,6.3699,6.2482,6.2575,6.4988,6.7549,7.0763,7.5517,7.6424,7.6497,7.4628,7.1008,6.63,6.4765,6.453,6.4106,6.4417,6.4255,6.4778,6.4955,6.53,6.5091,6.5325,6.5281,6.5655,6.5406,6.5313,6.5058,6.5278,6.5175,6.5195,6.5046,6.5063,6.5063,6.5228,6.5292,6.528,6.5091,6.5294,6.5563,6.5816,6.5722,6.5824,6.5961,6.6314,6.6516,6.6549,6.6583,6.6838,6.7131,6.7467,6.7449,6.7456,6.7496,6.7715,6.7964,6.7959,6.7804,6.783,6.7946,6.811,6.8013,6.7836,6.769,6.757,6.7371,6.7031,6.6468,6.6121,6.6034,6.5861,6.5556,6.5324,6.5007,6.4843,6.4854,6.4789,6.4602,6.4272,6.434,6.4354,6.4482,6.4308,6.4242,6.4244,6.4337,6.4248,6.4115,6.3907,6.3944,6.4082,6.4201,6.4155,6.401,6.3942,6.4198,6.4344,6.4563,6.4534,6.4644,6.4955,6.5315,6.5293,6.5003,6.4946,6.5005,6.5131,6.4957,6.447,6.4227,6.4029,6.4151,6.4084,6.3939,6.3627,6.3527,6.3683,6.3804,6.3696,6.3542,6.3514,6.3688,6.3801,6.3762,6.3579,6.3692,6.3552,6.2642,6.1382,6.2458,6.5059,6.8057,7.2674,7.4931,7.5671,7.5924,7.4521,6.8023,6.4172,6.3575,6.2745,6.3385,6.3453,6.3815,6.3597,6.3907,6.4044,6.449,6.4452,6.4335,6.4215,6.4378,6.4553,6.4754,6.4514,6.4275,6.3997,6.4133,6.4149,6.4105,6.398,6.4138,6.4356,6.4649,6.4647,6.4545,6.4612,6.4874,6.5078,6.5212,6.515,6.5367,6.5633,6.588,6.6033,6.6178,6.6252,6.649,6.6744,6.6976,6.6879,6.6928,6.708,6.7302,6.7476,6.7381,6.7315,6.7359,6.7433,6.7219,6.6857,6.6449,6.6202,6.6078,6.5989,6.5647,6.5236,6.4864,6.489,6.4853,6.4739,6.4396,6.4393,6.4355,6.4453,6.4281,6.4054,6.4056,6.4218,6.4343,6.437,6.4129,6.4085,6.4168,6.4258,6.4397,6.4244,6.4069,6.4148,6.4333,6.4451,6.431,6.4327,6.4423,6.4714,6.4811,6.4805,6.4772,6.5048,6.5344,6.544,6.5235,6.5152,6.5123,6.5257,6.5155,6.491,6.4379,6.4167,6.4172,6.4285,6.4104,6.3853,6.3736,6.3841,6.3881,6.3901,6.3678,6.3708,6.3819,6.4049,6.3897,6.3813,6.3715,6.3601,6.2756,6.1842,6.2752,6.5262,6.7903,7.2567,7.607,7.6515,7.7479,7.303,6.6302,6.4352,6.3673,6.3628,6.3803,6.4114,6.4347,6.4478,6.4565,6.4565,6.4704,6.4917,6.4971,6.4783,6.4765,6.48,6.4943,6.4893,6.4643,6.4535,6.4519,6.4675,6.4685,6.4548,6.4612,6.4816,6.507,6.5199,6.5137,6.5153,6.5279,6.5494,6.5774,6.5765,6.5887,6.6042,6.6413,6.6722,6.6807,6.686,6.7077,6.7388,6.7733,6.7754,6.7673,6.7841,6.8114,6.8325,6.8262,6.8103,6.8077,6.7997,6.7962,6.7718,6.7235,6.6801,6.6586,6.6384,6.6153,6.5703,6.5393,6.5234,6.5302,6.5122,6.4892,6.466,6.4673,6.4766,6.479,6.4542,6.4476,6.4436,6.4593,6.4744,6.4757,6.4623,6.4613,6.4677,6.4872,6.4777,6.4647,6.4687,6.48,6.4897,6.4812,6.4671,6.4626,6.4774,6.4906,6.4889,6.4714,6.47,6.4802,6.4957,6.5002,6.4779,6.4713,6.4788,6.5005,6.5041,6.4968,6.4921,6.5037,6.5331,6.5642,6.5564,6.5608,6.5627,6.5795,6.5726,6.5256,6.5028,6.4767,6.4766,6.4887,6.4758,6.454,6.4434,6.4529,6.4626,6.4545,6.4366,6.4323,6.4392,6.4582,6.4515,6.436,6.4307,6.4205,6.3423,6.218,6.2171,6.3984,6.6229,6.9734,7.4691,7.7149,7.7474,7.7477,7.0963,6.5605,6.4756,6.399,6.434,6.4545,6.483,6.4794,6.4915,6.5003,6.5241,6.5248,6.5256,6.5082,6.5108,6.5176,6.5345,6.5226,6.4999,6.4816,6.4835,6.4855,6.4834,6.4613,6.4651,6.4801,6.5056,6.5148,6.5067,6.5164,6.5413,6.5669,6.5807,6.5759,6.5809,6.5985,6.6325,6.6566,6.6678,6.6677,6.6951,6.7276,6.7541,6.7583,6.7618,6.7731,6.8021,6.8233,6.8189,6.8115,6.8265,6.8409,6.8407,6.829,6.787,6.7472,6.7271,6.7127,6.6848,6.6369,6.6056,6.5895,6.5948,6.5781,6.5481,6.5286,6.5298,6.539,6.5383,6.512,6.4978,6.5072,6.516,6.5188,6.5083,6.4996,6.5067,6.5296,6.5412,6.5324,6.512,6.5193,6.5365,6.5446,6.5339,6.5135,6.5091,6.5263,6.537,6.5297,6.5102,6.5134,6.5264,6.5404,6.5452,6.5249,6.5135,6.5248,6.5402,6.54,6.5198,6.5114,6.5201,6.5332,6.5353,6.5183,6.5053,6.5135,6.5229,6.527,6.5055,6.4934,6.4986,6.5142,6.5188,6.506,6.4898,6.4873,6.5055,6.5173,6.5028,6.4891,6.4843,6.4927,6.5063,6.4986,6.4829,6.482,6.4965,6.5115,6.5076,6.489,6.491,6.5074,6.5142,6.5236,6.5143,6.5011,6.5143,6.5369,6.5473,6.5531,6.5742,6.5953,6.6124,6.6122,6.5903,6.5659,6.5522,6.5549,6.5427,6.5205,6.507,6.4967,6.5015,6.508,6.498,6.4801,6.4742,6.4844,6.4991,6.491,6.4741,6.4687,6.479,6.4912,6.4379,6.3,6.2351,6.3983,6.6332,6.9242,7.3705,7.6669,7.7466,7.8213,7.7242,6.9807,6.5318,6.4947,6.4605,6.4983,6.4902,6.4977,6.5125,6.5588,6.5652,6.5584,6.5287,6.5422,6.5461,6.5578,6.5299,6.5175,6.5018,6.5166,6.5093,6.5052,6.4771,6.4802,6.4878,6.5187,6.5154,6.5129,6.5114,6.5367,6.5539,6.5657,6.557,6.5662,6.5912,6.6207,6.6318,6.6345,6.6469,6.6594,6.6914,6.7257,6.7332,6.7386,6.7456,6.7768,6.82,6.8194,6.8187,6.828,6.8585,6.8772,6.868,6.8545,6.8452,6.8436,6.8301,6.7875,6.746,6.7307,6.7098,6.6909,6.6751,6.6357,6.6131,6.6039,6.6053,6.5919,6.5685,6.5535,6.5583,6.5685,6.5631,6.5421,6.5388,6.545,6.567,6.5787,6.5711,6.565,6.5702,6.5808,6.5954,6.5831,6.5761,6.5698,6.5835,6.593,6.5774,6.5517,6.5616,6.5719,6.5925,6.5825,6.5707,6.572,6.5855,6.5998,6.5919,6.5767,6.5777,6.584,6.6004,6.6022,6.5868,6.5693,6.5786,6.59,6.5865,6.5555,6.5473,6.5481,6.5607,6.5571,6.5395,6.5241,6.5286,6.5409,6.5503,6.5282,6.5212,6.5211,6.5355,6.5424,6.5299,6.5072,6.5068,6.5278,6.5419,6.5358,6.5192,6.518,6.5458,6.5908,6.6155,6.6185,6.6223,6.6231,6.6358,6.6125,6.5871,6.5599,6.5454,6.5573,6.5495,6.5298,6.5076,6.5103,6.5217,6.5296,6.5149,6.5073,6.5087,6.5285,6.5313,6.5211,6.5069,6.494,6.4254,6.2972,6.3173,6.4245,6.6474,6.9496,7.4056,7.7036,7.7402,7.8276,7.3382,6.7153,6.5475,6.468,6.4685,6.4979,6.5153,6.5274,6.5166,6.5428,6.5495,6.5695,6.5603,6.5558,6.5408,6.5517,6.5547,6.5612,6.5389,6.5248,6.5201,6.5248,6.5297,6.5158,6.5014,6.5134,6.5307,6.5468,6.5401,6.5359,6.5451,6.5737,6.5908,6.5923,6.5843,6.6024,6.6265,6.665,6.6744,6.6761,6.6975,6.7218,6.7586,6.7838,6.7775,6.7864,6.8109,6.8363,6.8557,6.8478,6.8475,6.8575,6.8793,6.8819,6.8594,6.8158,6.7903,6.7681,6.7486,6.7074,6.6585,6.6353,6.6236,6.614,6.5812,6.5576,6.5403,6.5441,6.5461,6.5243,6.5115,6.5028,6.5156,6.517,6.5209,6.4969,6.502,6.5084,6.5237,6.5254,6.5049,6.5035,6.5172,6.5328,6.5283,6.5098,6.5175,6.5164,6.5291,6.5323,6.5108,6.4995,6.5138,6.5231,6.5311,6.5304,6.51,6.5119,6.5288,6.5379,6.5301,6.5176,6.5123,6.5264,6.532,6.5148,6.4952,6.493,6.5019,6.521,6.5088,6.4947,6.5131,6.5262,6.5382,6.5515,6.5343,6.5233,6.5362,6.6024,6.623,6.6103,6.6058,6.6059,6.6056,6.5813,6.5507,6.5395,6.5422,6.546,6.5396,6.5171,6.5194,6.5094,6.5216,6.5396,6.5397,6.5125,6.5127,6.5254,6.5454,6.5344,6.5112,6.4585,6.337,6.3399,6.5552,6.7976,7.1335,7.6085,7.7687,7.7428,7.6395,7.0133,6.6473,6.6281,6.5706,6.521,6.5432,6.5707,6.5963,6.6376,6.6392,6.6536,6.6585,6.6862,6.6766,6.6564,6.6393,6.6496,6.654,6.6643,6.6391,6.6303,6.6255,6.638,6.648,6.6605,6.6542,6.6665,6.6866,6.7125,6.7133,6.7141,6.7248,6.7615,6.7863,6.8066,6.8076,6.811,6.8501,6.8972,6.9152,6.9254,6.9378,6.9553,6.9777,7.0095,7.0051,7.0081,7.0239,7.0464,7.0641,7.0519,7.0361,7.0273,7.0352,7.0198,6.981,6.9295,6.8972,6.8799,6.8533,6.8133,6.7766,6.7551,6.7515,6.7444,6.7202,6.6938,6.6672,6.6672,6.6745,6.6672,6.6388,6.6253,6.6284,6.6327,6.6332,6.6076,6.6033,6.6075,6.6134,6.6077,6.5781,6.5726,6.5695,6.5726,6.5794,6.5675,6.5542,6.5565,6.5724,6.5855,6.571,6.5523,6.5542,6.564,6.5765,6.5602,6.5373,6.5434,6.5643,6.5715,6.5616,6.5644,6.5752,6.6006,6.6114,6.6048,6.5889,6.5772,6.5608,6.5479,6.5273,6.4919,6.48,6.4822,6.4856,6.4856,6.4638,6.4573,6.4653,6.472,6.4742,6.4489,6.4428,6.4349
