4.0546,4.0482,4.0574,4.0356,4.0449,4.0594,4.0546,4.0754,4.0836,4.1219,4.1294,4.1422,4.132,4.1111,4.1184,4.1306,4.1265,4.1406,4.1425,4.12,4.1136,4.0874,4.0656,4.0526,4.0455,4.0407,4.032,4.0091,4.0064,4.004,4.0199,4.0185,4.0042,3.9965,3.9959,4.0005,4.0118,4.0102,4.001,3.9957,3.9994,4.0095,4.0075,4.0028,4.012,4.0216,4.0178,4.0187,4.0169,4.0335,4.0623,4.1544,4.2836,4.4055,4.5824,4.6691,4.6689,4.3941,4.0431,3.8608,3.8337,3.8535,3.9082,3.9724,4.0219,4.0446,4.0558,4.0586,4.0385,4.0445,4.0462,4.0602,4.0569,4.0558,4.046,4.0717,4.0783,4.0682,4.0697,4.0549,4.0551,4.0609,4.0601,4.0818,4.0683,4.0646,4.0811,4.0961,4.1025,4.0908,4.0794,4.0926,4.1032,4.0908,4.1049,4.1146,4.1165,4.1323,4.1397,4.1497,4.15,4.1541,4.1746,4.1844,4.1918,4.2064,4.229,4.2287,4.2103,4.2304,4.2387,4.2445,4.2566,4.2636,4.2678,4.2652,4.2549,4.2791,4.2613,4.2522,4.2303,4.2126,4.2081,4.1831,4.1725,4.1399,4.1221,4.1177,4.1014,4.0868,4.0606,4.0514,4.0795,4.0682,4.0586,4.0445,4.0439,4.0541,4.0552,4.0498,4.0392,4.0399,4.0552,4.0494,4.0526,4.0425,4.0502,4.0537,4.0585,4.0535,4.0606,4.0494,4.0607,4.0565,4.0624,4.0368,4.062,4.0636,4.0715,4.0741,4.0699,4.0396,4.0612,4.0744,4.0717,4.0902,4.0568,4.0643,4.0711,4.0775,4.0489,4.0485,4.0422,4.0653,4.0772,4.0551,4.0488,4.0737,4.0924,4.1277,4.124,4.1371,4.1488,4.1489,4.1349,4.1314,4.1213,4.1379,4.1378,4.1564,4.1473,4.1251,4.0978,4.079,4.0686,4.0566,4.0414,4.0313,4.0316,4.0409,4.0316,4.0348,4.0157,4.0356,4.0378,4.0186,4.0066,4.0284,4.0346,4.0269,4.0139,4.0194,4.0274,4.0376,4.0415,4.0475,4.025,4.0349,4.0354,4.0535,4.1043,4.1544,4.2729,4.4038,4.5862,4.7293,4.6827,4.2989,3.9485,3.856,3.8525,3.8695,3.9473,4.0269,4.0978,4.0922,4.0797,4.0613,4.086,4.0955,4.089,4.0883,4.0874,4.0839,4.1038,4.103,4.1041,4.1013,4.0946,4.1067,4.1167,4.1255,4.1159,4.1139,4.1265,4.1261,4.1229,4.1221,4.135,4.1502,4.1446,4.158,4.17,4.1586,4.1699,4.1955,4.1931,4.1819,4.1805,4.1962,4.2216,4.2307,4.2183,4.2137,4.2378,4.2744,4.279,4.2656,4.2804,4.3008,4.3118,4.3235,4.3424,4.3169,4.3244,4.347,4.3626,4.3397,4.3201,4.3157,4.3107,4.2888,4.2603,4.2295,4.2158,4.2218,4.1844,4.1691,4.1532,4.1503,4.1375,4.1304,4.1127,4.1122,4.1075,4.1276,4.1206,4.1177,4.1026,4.1063,4.1146,4.1122,4.1053,4.1028,4.0953,4.1108,4.1185,4.1138,4.105,4.121,4.1268,4.1099,4.1239,4.1151,4.1168,4.0991,4.1127,4.1122,4.1224,4.1147,4.1068,4.124,4.1144,4.1238,4.1132,4.1148,4.1181,4.1184,4.1193,4.0991,4.1111,4.1265,4.128,4.1213,4.1088,4.1245,4.116,4.1248,4.1188,4.1193,4.1133,4.1116,4.1246,4.1218,4.0861,4.0818,4.1075,4.1074,4.0952,4.0983,4.0877,4.0906,4.1019,4.1025,4.1245,4.1079,4.1243,4.1546,4.1704,4.1675,4.1752,4.1614,4.1793,4.1795,4.1814,4.1674,4.173,4.1988,4.2006,4.1544,4.1351,4.128,4.1263,4.1163,4.0731,4.0854,4.0863,4.0783,4.0934,4.0655,4.0686,4.0685,4.0775,4.0853,4.0642,4.0662,4.0761,4.08,4.098,4.0839,4.0519,4.0677,4.076,4.0842,4.0753,4.0774,4.0626,4.0927,4.1368,4.1884,4.2875,4.4306,4.593,4.7644,4.7623,4.4037,4.0229,3.8719,3.8802,3.9174,3.9797,4.0776,4.1158,4.1308,4.1235,4.1126,4.1087,4.1147,4.1104,4.1415,4.1527,4.1307,4.1415,4.1506,4.1437,4.1275,4.1211,4.1384,4.1595,4.1471,4.1403,4.1532,4.1543,4.166,4.1726,4.1607,4.1647,4.1547,4.1999,4.1953,4.1818,4.1758,4.1802,4.1985,4.2018,4.2081,4.2064,4.214,4.2346,4.252,4.2485,4.2837,4.2758,4.2822,4.2861,4.3126,4.3107,4.3006,4.3514,4.3419,4.343,4.3483,4.3583,4.3578,4.3767,4.3809,4.3669,4.352,4.3454,4.3368,4.2992,4.2773,4.2438,4.2353,4.2167,4.2257,4.2082,4.1793,4.1631,4.1677,4.1577,4.1323,4.1379,4.1314,4.126,4.1456,4.1205,4.1129,4.1131,4.1306,4.1469,4.1156,4.1012,4.1254,4.1351,4.1395,4.1201,4.1102,4.111,4.1264,4.1311,4.1313,4.1279,4.1168,4.1365,4.1381,4.1224,4.1227,4.1259,4.1284,4.1485,4.1342,4.1265,4.1162,4.1251,4.1423,4.1402,4.1218,4.1321,4.144,4.126,4.1142,4.125,4.1106,4.1153,4.1214,4.1221,4.1259,4.1314,4.1111,4.1063,4.1145,4.1119,4.1177,4.1155,4.1205,4.131,4.1171,4.1065,4.0998,4.1161,4.1315,4.1115,4.1108,4.092,4.1184,4.1287,4.1069,4.1252,4.121,4.103,4.1096,4.1103,4.0927,4.0956,4.105,4.11,4.1423,4.1398,4.1308,4.1505,4.1616,4.1732,4.1834,4.1473,4.178,4.19,4.1743,4.1757,4.1758,4.1704,4.1635,4.1731,4.1579,4.1346,4.1164,4.1015,4.0961,4.1024,4.0874,4.1089,4.0981,4.0989,4.077,4.0908,4.1028,4.0819,4.0773,4.0883,4.0759,4.0944,4.0933,4.0866,4.0896,4.0824,4.0793,4.0849,4.0807,4.106,4.09,4.1218,4.1512,4.2166,4.3257,4.4524,4.6094,4.7916,4.7635,4.4135,4.0599,3.8715,3.8701,3.9264,4.008,4.1158,4.1379,4.1275,4.1392,4.1352,4.1342,4.1278,4.1265,4.1182,4.148,4.1458,4.1372,4.1345,4.1497,4.1554,4.1699,4.1406,4.1513,4.1572,4.1626,4.1641,4.1725,4.1632,4.1809,4.1838,4.1831,4.1746,4.1687,4.1879,4.1931,4.203,4.1998,4.2005,4.2138,4.2179,4.2247,4.2317,4.2305,4.2474,4.265,4.2772,4.2818,4.2734,4.3022,4.3199,4.3254,4.334,4.3269,4.3346,4.3672,4.3754,4.3775,4.3782,4.3845,4.3856,4.3718,4.3714,4.357,4.3293,4.3034,4.2995,4.2887,4.2768,4.2511,4.2292,4.2017,4.1887,4.1822,4.1578,4.1789,4.1839,4.1675,4.1557,4.139,4.124,4.1529,4.1489,4.1354,4.1467,4.1319,4.1196,4.1261,4.1374,4.1326,4.1284,4.1413,4.1393,4.131,4.1426,4.1319,4.1387,4.1528,4.1453,4.1194,4.1351,4.1484,4.1459,4.1575,4.1407,4.1407,4.1482,4.1637,4.1469,4.144,4.1382,4.1338,4.1341,4.1365,4.1495,4.135,4.1353,4.1383,4.1519,4.1477,4.1432,4.1301,4.1386,4.1243,4.1148,4.1331,4.1343,4.1401,4.1339,4.1283,4.14,4.1474,4.1491,4.1268,4.1255,4.1331,4.1223,4.1301,4.1351,4.1328,4.1103,4.1104,4.1332,4.1157,4.1307,4.1098,4.1141,4.1275,4.1462,4.1312,4.1181,4.1201,4.1286,4.1263,4.1347,4.132,4.1138,4.1299,4.1426,4.1417,4.153,4.1651,4.1903,4.197,4.2129,4.1896,4.171,4.1774,4.2017,4.207,4.1853,4.188,4.1822,4.1914,4.1906,4.1622,4.1475,4.123,4.1047,4.1325,4.1131,4.1027,4.1073,4.1197,4.1087,4.1238,4.1094,4.094,4.1085,4.1035,4.102,4.0998,4.1138,4.1197,4.1062,4.116,4.1148,4.1181,4.1335,4.1322,4.1146,4.1094,4.1282,4.1594,4.177,4.2965,4.4242,4.6067,4.78,4.8264,4.5745,4.2052,3.9313,3.9058,3.9138,3.9545,4.0723,4.1299,4.171,4.1768,4.1679,4.131,4.1565,4.182,4.1873,4.1762,4.1701,4.1665,4.1787,4.1876,4.1892,4.1818,4.1947,4.1657,4.1774,4.1938,4.1859,4.177,4.2003,4.2069,4.2063,4.2018,4.1926,4.2165,4.2248,4.203,4.2317,4.2278,4.2237,4.2429,4.2447,4.2746,4.2423,4.248,4.2626,4.2661,4.3027,4.3041,4.3158,4.3364,4.3369,4.3487,4.3395,4.3672,4.387,4.3836,4.3792,4.4064,4.4133,4.3968,4.43,4.4042,4.3951,4.3933,4.3756,4.3631,4.3632,4.3249,4.2998,4.2981,4.2778,4.2776,4.2497,4.1946,4.1955,4.2144,4.2039,4.1978,4.1776,4.1654,4.1906,4.1748,4.1615,4.1562,4.1547,4.1831,4.1809,4.1551,4.1532,4.1602,4.162,4.1796,4.1888,4.158,4.1527,4.1715,4.1709,4.1542,4.1621,4.1719,4.1776,4.1742,4.1764,4.1883,4.1686,4.1686,4.1712,4.1897,4.1871,4.1752,4.1616,4.1736,4.1895,4.1715,4.1589,4.1585,4.1674,4.1695,4.1739,4.1665,4.1685,4.1769,4.1713,4.1645,4.1593,4.1538,4.1632,4.158,4.1645,4.1389,4.1468,4.1635,4.1596,4.1507,4.155,4.1526,4.1718,4.1637,4.1567,4.148,4.1499,4.1521,4.1514,4.1652,4.1606,4.1684,4.1948,4.2091,4.2148,4.2137,4.1939,4.2098,4.2235,4.238,4.2407,4.2042,4.2182,4.2034,4.1957,4.1855,4.1763,4.1813,4.152,4.1459,4.1268,4.1355,4.1175,4.1608,4.1405,4.1351,4.1174,4.1308,4.1524,4.1703,4.1489,4.1412,4.1374,4.1403,4.1661,4.1625,4.1434,4.1581,4.1671,4.1651,4.1674,4.1738,4.2088,4.2737,4.2947,4.3719,4.5366,4.6779,4.8592,4.8705,4.565,4.1849,3.9919,3.9704,4.0119,4.0769,4.157,4.2388,4.2391,4.2221,4.239,4.2257,4.2243,4.2384,4.2511,4.2517,4.2461,4.2335,4.234,4.2366,4.2538,4.2763,4.262,4.2503,4.2712,4.2637,4.2656,4.2541,4.263,4.2756,4.2675,4.2798,4.2709,4.2961,4.2913,4.292,4.2954,4.3075,4.3138,4.3289,4.3322,4.3366,4.3284,4.3299,4.3637,4.366,4.393,4.3786,4.393,4.4289,4.4361,4.4427,4.4346,4.4362,4.4745,4.4906,4.4865,4.4773,4.4912,4.4842,4.5022,4.4789,4.482,4.4783,4.4637,4.4466,4.4308,4.3939,4.366,4.3634,4.3633,4.3184,4.3082,4.3044,4.2791,4.2802,4.2815,4.2686,4.2661,4.2599,4.271,4.269,4.262,4.2549,4.2439,4.2641,4.2573,4.2518,4.2456,4.2425,4.2352,4.2524,4.2605,4.2488,4.2589,4.2745,4.2639,4.2696,4.2473,4.248,4.2451,4.2664,4.2768,4.2493,4.2348,4.2567,4.2672,4.2782,4.2539,4.2502,4.2802,4.2662,4.2548,4.2568,4.2515,4.2712,4.2781,4.265,4.2554,4.2543,4.2608,4.2517,4.2418,4.256,4.2485,4.2642,4.2517,4.2558,4.2613,4.2335,4.2374,4.2575,4.258,4.267,4.2656,4.2748,4.3026,4.2994,4.3017,4.2978,4.2856,4.2831,4.3293,4.315,4.2999,4.2964,4.3137,4.3182,4.2962,4.2747,4.2725,4.2663,4.241,4.2474,4.2129,4.2259,4.2263,4.2201,4.2385,4.237,4.2206,4.2034,4.2391,4.2297,4.2202,4.2129,4.2205,4.2306,4.2215,4.2341,4.21,4.2205,4.2275,4.2189,4.2483,4.2319,4.2636,4.3403,4.3802,4.5086,4.6503,4.7998,4.9185,4.7685,4.4364,4.1078,4.0725,4.0473,4.0733,4.1598,4.2363,4.2667,4.2547,4.2803,4.275,4.2541,4.268,4.288,4.2814,4.2809,4.2633,4.285,4.2847,4.2919,4.2959,4.2948,4.2786,4.2967,4.2971,4.2896,4.2954,4.2863,4.3071,4.3131,4.3391,4.319,4.3093,4.3236,4.3166,4.3202,4.3099,4.3205,4.3277,4.3521,4.3657,4.3712,4.3599,4.3597,4.3824,4.4124,4.3871,4.4012,4.4023,4.4277,4.4554,4.4488,4.4501,4.4574,4.4878,4.4962,4.4776,4.4844,4.4858,4.4927,4.4782,4.4988,4.484,4.4474,4.4354,4.4291,4.3969,4.3901,4.366,4.3457,4.3244,4.3056,4.2946,4.2782,4.2868,4.2665,4.2613,4.2511,4.2617,4.2514,4.2762,4.2749,4.248,4.2166,4.2472,4.2454,4.2515,4.2458,4.2366,4.2363,4.2583,4.2598,4.2327,4.238,4.2516,4.2525,4.2451,4.2517,4.2589,4.2371,4.256,4.2591,4.2626,4.2641,4.2584,4.251,4.2595,4.2634,4.2623,4.2571,4.2624,4.2593,4.2578,4.2578,4.2551,4.2593,4.2625,4.276,4.2535,4.249,4.2905,4.3174,4.3118,4.3115,4.2876,4.2868,4.316,4.3335,4.3265,4.3086,4.3046,4.3068,4.2953,4.2845,4.2576,4.2505,4.2735,4.2613,4.2199,4.2245,4.219,4.2276,4.2334,4.2243,4.2076,4.2357,4.2277,4.2296,4.2206,4.2157,4.2229,4.2297,4.2353,4.2119,4.2068,4.2151,4.2367,4.232,4.2337,4.2392,4.2488,4.2862,4.3441,4.4479,4.5857,4.7238,4.8882,4.8938,4.5884,4.2379,4.0656,4.0611,4.0628,4.1115,4.2077,4.2587,4.2714,4.2792,4.2926,4.2736,4.2589,4.2627,4.2786,4.298,4.2694,4.2458,4.2717,4.2781,4.3119,4.2982,4.267,4.2735,4.2976,4.296,4.2756,4.2993,4.2924,4.323,4.3255,4.317,4.315,4.32,4.3305,4.3233,4.3357,4.3258,4.3359,4.3584,4.3635,4.359,4.3559,4.3843,4.3847,4.3978,4.4067,4.4094,4.441,4.4394,4.4238,4.4547,4.4685,4.4634,4.4789,4.483,4.4913,4.5086,4.4916,4.491,4.495,4.4977,4.4803,4.457,4.4459,4.442,4.4161,4.3764,4.3486,4.3565,4.3445,4.326,4.3248,4.2801,4.2723,4.285,4.2914,4.2902,4.2683,4.2677,4.2611,4.2572,4.2674,4.2534,4.2567,4.2709,4.2645,4.2587,4.2712,4.2632,4.2775,4.2654,4.2667,4.2453,4.2582,4.2655,4.2641,4.2886,4.2785,4.2463,4.258,4.2848,4.2701,4.2745,4.2856,4.2736,4.2789,4.263,4.2838,4.2639,4.2745,4.2688,4.277,4.2806,4.2662,4.2752,4.2874,4.3079,4.308,4.321,4.3204,4.35,4.3466,4.3253,4.2983,4.3148,4.3409,4.3566,4.3678,4.3326,4.328,4.3282,4.3259,4.2995,4.2844,4.2694,4.2517,4.2575,4.2622,4.2521,4.249,4.2463,4.2512,4.2484,4.2537,4.2356,4.2152,4.2315,4.2261,4.2207,4.2269,4.2429,4.2455,4.2467,4.251,4.2448,4.2402,4.238,4.2679,4.2819,4.3203,4.411,4.5618,4.7521,4.9063,4.9701,4.7079,4.3444,4.0656,4.0549,4.0732,4.1375,4.2398,4.2634,4.2972,4.2821,4.2822,4.279,4.2992,4.2912,4.2672,4.2994,4.3246,4.3057,4.3007,4.3007,4.3044,4.3114,4.3063,4.324,4.3232,4.3124,4.3264,4.294,4.3129,4.3357,4.3332,4.3395,4.3551,4.3287,4.3231,4.3559,4.352,4.3509,4.3701,4.3644,4.3835,4.3899,4.3953,4.3988,4.4107,4.3962,4.4389,4.4432,4.4385,4.4621,4.4621,4.4888,4.4872,4.5113,4.5029,4.489,4.5249,4.5347,4.5351,4.533,4.5258,4.5105,4.5077,4.5137,4.4952,4.4565,4.4331,4.4373,4.405,4.4019,4.3924,4.3412,4.3229,4.3099,4.3284,4.3324,4.3105,4.3007,4.2836,4.2933,4.2698,4.2875,4.283,4.2884,4.3076,4.2986,4.2793,4.2823,4.2972,4.3083,4.2839,4.2826,4.2733,4.29,4.2927,4.2685,4.2907,4.304,4.3098,4.3047,4.3305,4.2892,4.2809,4.3012,4.298,4.3106,4.287,4.2901,4.3005,4.2975,4.3039,4.2918,4.2968,4.3172,4.3573,4.3764,4.356,4.3819,4.3842,4.3933,4.3807,4.3857,4.3739,4.3904,4.4029,4.3867,4.3602,4.3471,4.3305,4.3049,4.2874,4.2875,4.2575,4.266,4.2738,4.2746,4.2653,4.2667,4.2698,4.2721,4.2751,4.2701,4.2526,4.2488,4.2743,4.2723,4.2641,4.2684,4.2719,4.275,4.2898,4.2856,4.2549,4.2636,4.3369,4.3696,4.4579,4.5931,4.7375,4.9449,4.9884,4.7287,4.3659,4.0873,4.087,4.0964,4.1574,4.2634,4.3234,4.3251,4.309,4.3172,4.3184,4.2951,4.3135,4.3076,4.3334,4.3268,4.3196,4.3461,4.3266,4.343,4.3335,4.3272,4.327,4.352,4.3439,4.3358,4.347,4.3623,4.3461,4.3459,4.3711,4.3719,4.3537,4.368,4.3769,4.3762,4.3689,4.3864,4.409,4.4036,4.4069,4.3953,4.4143,4.4541,4.4257,4.4503,4.4643,4.4713,4.4796,4.4954,4.5023,4.5022,4.501,4.5081,4.5432,4.5366,4.5357,4.5289,4.5466,4.5557,4.5503,4.5363,4.4991,4.4888,4.4728,4.4634,4.4271,4.4201,4.3987,4.3859,4.3836,4.3318,4.3454,4.3488,4.3478,4.3339,4.3312,4.3042,4.3108,4.3325,4.3219,4.3076,4.2828,4.3056,4.3292,4.3343,4.3166,4.2971,4.3179,4.3309,4.3382,4.3376,4.3093,4.3062,4.3352,4.3356,4.3071,4.3321,4.343,4.3363,4.3392,4.3498,4.3394,4.3433,4.3818,4.4054,4.4076,4.4124,4.4256,4.4179,4.4476,4.4303,4.422,4.3897,4.4202,4.415,4.3922,4.3688,4.3847,4.3657,4.356,4.3419,4.3153,4.311,4.2889,4.3099,4.3199,4.3284,4.3018,4.2516,4.3077,4.3006,4.2895,4.3088,4.3114,4.3101,4.3102,4.3022,4.2918,4.3169,4.3152,4.3223,4.3192,4.3244,4.3008,4.3397,4.3851,4.459,4.5814,4.7395,4.9487,5.0329,4.9795,4.6597,4.3305,4.1935,4.2021,4.1842,4.213,4.3014,4.3611,4.3804,4.3635,4.3537,4.3702,4.3751,4.3785,4.3922,4.3909,4.4155,4.4271,4.4308,4.4065,4.4147,4.4007,4.4154,4.3988,4.4113,4.3951,4.3983,4.4019,4.4265,4.4113,4.4304,4.4141,4.4326,4.4221,4.4411,4.4525,4.4388,4.4252,4.4432,4.4614,4.4655,4.4707,4.4773,4.4898,4.5252,4.5237,4.4937,4.5235,4.523,4.5395,4.5547,4.5799,4.5718,4.5832,4.5975,4.593,4.6022,4.6086,4.5988,4.5867,4.6109,4.6144,4.5806,4.5744,4.5543,4.5377,4.5272,4.4993,4.4846,4.4765,4.4439,4.4537,4.4245,4.4147,4.4173,4.4153,4.42,4.3975,4.4048,4.4196,4.421,4.4071,4.4285,4.3922,4.3979,4.4173,4.4011,4.4102,4.3962,4.4102,4.4051,4.409,4.3885,4.3855,4.403,4.4161,4.425,4.3976,4.3893,4.3818,4.4169,4.4014,4.3862,4.3842,4.3835,4.4141,4.4233,4.412,4.4081,4.4358,4.4826,4.4855,4.4744,4.4648,4.4896,4.4934,4.4935,4.4606,4.4639,4.4885,4.4687,4.4592,4.4498,4.4175,4.411,4.4138,4.3837,4.3921,4.365,4.3535,4.3597,4.3682,4.363,4.3489,4.3573,4.3708,4.3624,4.3609,4.3393,4.3584,4.3527,4.3717,4.3644,4.358,4.3521,4.359,4.3625,4.3638,4.3675,4.3891,4.4328,4.5169,4.6447,4.7744,4.9406,5.0774,4.9429,4.5857,4.2508,4.174,4.1871,4.2361,4.3298,4.3683,4.4145,4.4252,4.4215,4.4144,4.4085,4.4217,4.4325,4.4134,4.3999,4.4081,4.4119,4.4276,4.4141,4.4352,4.4286,4.4034,4.4233,4.4307,4.4286,4.4377,4.445,4.4296,4.4417,4.4516,4.4621,4.451,4.4731,4.4664,4.4694,4.4721,4.4901,4.4984,4.496,4.5073,4.5147,4.5298,4.5449,4.5579,4.5695,4.5653,4.5578,4.5851,4.6048,4.6231,4.6502,4.6217,4.6409,4.648,4.6533,4.6715,4.6571,4.664,4.6587,4.658,4.6679,4.6339,4.6085,4.5883,4.5887,4.5637,4.5551,4.5298,4.5041,4.5013,4.4959,4.4848,4.4542,4.4337,4.4682,4.4676,4.4537,4.434,4.4343,4.4596,4.4436,4.4409,4.4268,4.4407,4.4534,4.4509,4.4288,4.4509,4.4426,4.4474,4.4606,4.4484,4.4468,4.4528,4.4428,4.4627,4.4463,4.4429,4.4679,4.4617,4.4483,4.447,4.4574,4.4589,4.4557,4.4559,4.4874,4.4907,4.4839,4.5005,4.5279,4.5391,4.5567,4.5454,4.5419,4.5386,4.5227,4.5142,4.5419,4.5316,4.524,4.5257,4.4868,4.4732,4.4485,4.4486,4.423,4.4287,4.4351,4.4151,4.4171,4.4296,4.4424,4.4087,4.4105,4.429,4.4249,4.4391,4.4038,4.4166,4.4039,4.4108,4.4123,4.4291,4.4169,4.408,4.412,4.422,4.4385,4.4585,4.5017,4.6123,4.7661,4.925,5.0921,5.1251,4.8138,4.4204,4.2004,4.1786,4.2376,4.3308,4.4258,4.4568,4.4628,4.4528,4.485,4.4455,4.4532,4.4556,4.4516,4.4656,4.4758,4.48,4.4776,4.4584,4.4587,4.4709,4.4732,4.4761,4.4782,4.4718,4.4899,4.49,4.4823,4.5004,4.4995,4.5057,4.5053,4.4996,4.5275,4.4947,4.5183,4.5411,4.5344,4.5347,4.5587,4.5469,4.5784,4.5774,4.5647,4.5895,4.6156,4.6265,4.6345,4.6218,4.6323,4.6598,4.6701,4.6716,4.6677,4.6706,4.6833,4.7046,4.699,4.687,4.6751,4.6819,4.6869,4.6535,4.6178,4.6114,4.605,4.5716,4.5393,4.5238,4.5145,4.5045,4.5035,4.4895,4.4766,4.4636,4.4554,4.4696,4.4623,4.4527,4.4667,4.4731,4.4739,4.4616,4.4511,4.4326,4.4461,4.4769,4.4614,4.4452,4.4466,4.4642,4.461,4.4598,4.4614,4.4533,4.4479,4.4612,4.4624,4.4498,4.458,4.4658,4.4473,4.4657,4.4498,4.4584,4.4626,4.4574,4.4641,4.4499,4.4479,4.4664,4.495,4.5007,4.5011,4.5247,4.5337,4.533,4.536,4.5309,4.499,4.5135,4.5315,4.5404,4.5406,4.5146,4.4935,4.4732,4.4641,4.4445,4.4263,4.4067,4.4101,4.431,4.4185,4.4154,4.4101,4.4046,4.3864,4.4063,4.398,4.407,4.3967,4.3977,4.3902,4.3984,4.3928,4.3938,4.4036,4.3887,4.3917,4.377,4.4199,4.4256,4.4424,4.4596,4.5636,4.7001,4.8394,5.0441,5.1194,4.8874,4.5208,4.2201,4.1884,4.2207,4.2704,4.3457,4.415,4.4522,4.43,4.4346,4.4216,4.443,4.4281,4.433,4.4421,4.4226,4.4327,4.454,4.4569,4.454,4.4285,4.4563,4.4513,4.4663,4.4391,4.4426,4.4502,4.4588,4.458,4.4644,4.4754,4.4673,4.4955,4.4999,4.5,4.4945,4.4901,4.4999,4.5129,4.5187,4.5237,4.5441,4.5403,4.5473,4.5622,4.5691,4.5725,4.5725,4.6137,4.6108,4.6054,4.6114,4.6407,4.659,4.637,4.6389,4.6497,4.6686,4.6767,4.6698,4.6695,4.624,4.6309,4.6165,4.5866,4.5796,4.5332,4.5426,4.5408,4.4958,4.4724,4.4584,4.4573,4.4526,4.4508,4.4434,4.4262,4.4219,4.4364,4.4259,4.4371,4.4361,4.4264,4.4262,4.4267,4.4286,4.4049,4.4,4.4246,4.4293,4.4209,4.4244,4.4117,4.417,4.441,4.4313,4.422,4.4162,4.4211,4.4296,4.4263,4.4146,4.425,4.4268,4.4182,4.4152,4.4171,4.4075,4.4129,4.4301,4.4336,4.4327,4.4474,4.4694,4.4721,4.4882,4.4895,4.4777,4.4773,4.4782,4.4894,4.4876,4.4902,4.494,4.4895,4.4499,4.4376,4.4199,4.4061,4.3901,4.3895,4.3713,4.352,4.3784,4.3854,4.3831,4.3762,4.3688,4.3623,4.365,4.377,4.3587,4.3665,4.3763,4.353,4.3607,4.356,4.3686,4.3609,4.3484,4.3559,4.3597,4.3693,4.4073,4.4431,4.5591,4.6913,4.7677,4.9001,5.0468,4.9211,4.6001,4.2777,4.1816,4.1788,4.2129,4.2862,4.3659,4.4017,4.3904,4.4062,4.3908,4.3988,4.3974,4.3857,4.3952,4.4289,4.4045,4.397,4.4016,4.4187,4.4208,4.4159,4.4048,4.4155,4.4126,4.4239,4.4056,4.4367,4.4231,4.4197,4.4499,4.4413,4.437,4.4441,4.4676,4.453,4.4616,4.4871,4.4733,4.4748,4.4699,4.4819,4.5088,4.5086,4.5179,4.5211,4.5213,4.5437,4.5568,4.5665,4.5811,4.571,4.5976,4.6052,4.5997,4.6248,4.6148,4.6128,4.6279,4.61,4.6149,4.6031,4.5824,4.5651,4.5441,4.528,4.5264,4.5193,4.4767,4.4635,4.4554,4.4415,4.442,4.4162,4.4097,4.4117,4.3976,4.3959,4.3963,4.4032,4.4053,4.4021,4.392,4.3923,4.3989,4.3881,4.3921,4.3793,4.3823,4.3746,4.3947,4.4103,4.4152,4.4002,4.3963,4.4015,4.3963,4.4059,4.4137,4.395,4.4034,4.3898,4.3955,4.4049,4.4041,4.4074,4.4183,4.4017,4.4088,4.4044,4.4017,4.4173,4.4307,4.4507,4.4667,4.4922,4.4899,4.4815,4.4815,4.4598,4.4683,4.4723,4.4944,4.4927,4.4737,4.4447,4.409,4.4272,4.406,4.4026,4.3955,4.3754,4.3814,4.3709,4.3525,4.3486,4.3647,4.3707,4.3729,4.3641,4.3604,4.3741,4.3672,4.3587,4.3512,4.353,4.3557,4.3657,4.3588,4.3735,4.3495,4.3589,4.3772,4.4129,4.4533,4.529,4.6811,4.8381,5.0108,5.0628,4.938,4.6029,4.2864,4.1939,4.1702,4.1959,4.2732,4.3936,4.4219,4.4038,4.3938,4.4067,4.4117,4.4168,4.4061,4.3856,4.4071,4.4139,4.3995,4.4224,4.4269,4.4209,4.4243,4.4246,4.4169,4.4205,4.432,4.4358,4.4316,4.4388,4.4467,4.4359,4.4336,4.4522,4.4471,4.4552,4.4566,4.4668,4.4897,4.4894,4.4896,4.4717,4.4937,4.5083,4.5132,4.529,4.539,4.5448,4.5598,4.5638,4.5725,4.5824,4.5858,4.5916,4.6107,4.6117,4.6152,4.6293,4.6396,4.6251,4.6198,4.6185,4.5938,4.6162,4.5824,4.556,4.5338,4.5032,4.4888,4.4765,4.4541,4.4403,4.4346,4.4371,4.4131,4.4123,4.4125,4.4093,4.4015,4.3878,4.3934,4.3925,4.4065,4.3964,4.3918,4.4018,4.4012,4.3764,4.4063,4.4005,4.3803,4.397,4.4073,4.3861,4.3941,4.4113,4.3938,4.3906,4.3825,4.4061,4.4274,4.4183,4.4031,4.3998,4.4089,4.3944,4.3987,4.4041,4.3882,4.4057,4.4132,4.4024,4.4166,4.393,4.4044,4.4123,4.3935,4.3892,4.3972,4.4011,4.4048,4.4239,4.4344,4.4494,4.4719,4.4777,4.4766,4.4695,4.4684,4.4744,4.4755,4.468,4.4763,4.4543,4.4599,4.4555,4.4212,4.4032,4.3884,4.3763,4.3853,4.3835,4.3768,4.3574,4.3673,4.3764,4.3642,4.378,4.3375,4.3469,4.3535,4.3558,4.3645,4.3499,4.3581,4.3597,4.3721,4.3615,4.3585,4.3414,4.3462,4.3748,4.3811,4.3901,4.4294,4.5266,4.6763,4.808,4.9668,5.0605,4.8434,4.4944,4.192,4.1468,4.1681,4.2562,4.3464,4.4027,4.3994,4.3951,4.4071,4.3789,4.3997,4.379,4.3969,4.402,4.4096,4.395,4.4204,4.3984,4.4021,4.4283,4.4175,4.424,4.4131,4.4168,4.4493,4.4422,4.4479,4.4416,4.4373,4.4453,4.4471,4.4454,4.4498,4.4537,4.4536,4.4624,4.4723,4.4672,4.481,4.5061,4.5008,4.496,4.526,4.5281,4.5418,4.5457,4.5542,4.5494,4.5651,4.5977,4.5907,4.6142,4.6064,4.611,4.6253,4.6269,4.6406,4.6379,4.6325,4.6285,4.6262,4.6083,4.5934,4.5697,4.5393,4.5297,4.5138,4.4768,4.4364,4.4575,4.4545,4.4387,4.4436,4.4167,4.4102,4.435,4.421,4.4267,4.4054,4.3895,4.398,4.3951,4.3926,4.4026,4.4049,4.3976,4.4077,4.3971,4.3976,4.3902,4.4009,4.4095,4.4084,4.4117,4.3941,4.4093,4.4197,4.4316,4.4047,4.419,4.4137,4.4051,4.4174,4.4116,4.4008,4.4095,4.414,4.4017,4.4025,4.4139,4.3986,4.4242,4.423,4.4079,4.4059,4.3958,4.4069,4.4265,4.4104,4.3892,4.412,4.4052,4.3997,4.396,4.3841,4.3938,4.3953,4.389,4.4051,4.3941,4.4025,4.3936,4.4136,4.4156,4.4241,4.4464,4.4677,4.462,4.4618,4.482,4.453,4.4294,4.4464,4.4592,4.4741,4.4679,4.4511,4.4473,4.4609,4.4346,4.4019,4.3958,4.3992,4.3941,4.3822,4.3678,4.3662,4.373,4.3653,4.3649,4.3641,4.3525,4.3683,4.384,4.3625,4.3664,4.3593,4.3704,4.3795,4.3765,4.3698,4.375,4.3755,4.3789,4.3889,4.4062,4.3988,4.4497,4.55,4.6926,4.8265,5.019,5.072,4.8395,4.4591,4.1981,4.1591,4.1935,4.263,4.3525,4.4042,4.4122,4.4161,4.4284,4.4293,4.4296,4.4191,4.427,4.4395,4.4314,4.4218,4.4105,4.431,4.4352,4.4395,4.436,4.434,4.4277,4.443,4.456,4.4543,4.4522,4.4571,4.459,4.4739,4.4666,4.4546,4.4618,4.4428,4.484,4.4989,4.4851,4.4961,4.5006,4.5083,4.5204,4.5198,4.5254,4.5394,4.5719,4.5697,4.5736,4.5784,4.6114,4.6275,4.6237,4.612,4.615,4.6461,4.6384,4.6761,4.6614,4.6509,4.6461,4.656,4.6478,4.6256,4.6114,4.586,4.5946,4.5727,4.5292,4.5025,4.4847,4.4892,4.4719,4.4643,4.457,4.4423,4.43,4.4204,4.4352,4.4172,4.4105,4.4192,4.4258,4.4096,4.4107,4.4209,4.4222,4.423,4.4229,4.4103,4.3942,4.4153,4.4239,4.412,4.4196,4.4247,4.423,4.4219,4.4175,4.4244,4.4205,4.4215,4.4028,4.4368,4.4101,4.4418,4.4386,4.4202,4.4101,4.4114,4.4118,4.4151,4.4243,4.4267,4.4322,4.4037,4.405,4.4448,4.4156,4.4221,4.4088,4.4104,4.4148,4.4025,4.4112,4.4124,4.4041,4.3882,4.3993,4.4204,4.4165,4.3901,4.4192,4.4342,4.4587,4.4687,4.4736,4.4607,4.462,4.4702,4.4656,4.4485,4.472,4.4776,4.4892,4.4731,4.4626,4.4369,4.4245,4.4286,4.4062,4.3808,4.3778,4.3832,4.3697,4.3627,4.3574,4.3958,4.3842,4.3806,4.3716,4.3702,4.361,4.3631,4.3745,4.3722,4.3668,4.3776,4.3862,4.371,4.3733,4.3654,4.3678,4.373,4.4147,4.4389,4.4722,4.5646,4.7074,4.8611,5.0449,5.0645,4.7776,4.4123,4.1818,4.1504,4.1809,4.2517,4.3637,4.4357,4.4169,4.403,4.4128,4.4066,4.4227,4.4263,4.4204,4.404,4.4247,4.4246,4.4214,4.4151,4.4215,4.4215,4.4209,4.4245,4.454,4.4335,4.4341,4.43,4.4413,4.4345,4.4388,4.4649,4.4627,4.4607,4.4698,4.4673,4.4466,4.4724,4.4851,4.4786,4.4903,4.4717,4.5029,4.5195,4.5301,4.5297,4.5236,4.5342,4.5647,4.5831,4.5842,4.5909,4.5988,4.6023,4.6274,4.6301,4.6256,4.6261,4.6403,4.6433,4.6324,4.6105,4.611,4.6259,4.5977,4.5774,4.5362,4.5361,4.508,4.4937,4.4718,4.4508,4.4335,4.4363,4.4243,4.4246,4.404,4.3975,4.3997,4.3958,4.3985,4.3882,4.3884,4.4132,4.402,4.4017,4.3756,4.3927,4.3966,4.3846,4.3904,4.3873,4.3971,4.3995,4.4011,4.4094,4.4041,4.4216,4.3925,4.3877,4.3997,4.4027,4.3944,4.4052,4.4087,4.3945,4.3943,4.4025,4.4,4.4148,4.4042,4.4011,4.3991,4.3769,4.4007,4.3923,4.3891,4.3811,4.3888,4.4014,4.401,4.3722,4.3833,4.3788,4.3912,4.3881,4.3804,4.3822,4.3694,4.3819,4.3574,4.3717,4.3792,4.3662,4.3788,4.4026,4.4126,4.424,4.4293,4.4375,4.4444,4.4342,4.4262,4.41,4.4211,4.4584,4.4614,4.455,4.4275,4.4348,4.4368,4.3992,4.3903,4.362,4.3684,4.3552,4.3619,4.3657,4.3433,4.3515,4.3545,4.3595,4.3504,4.3558,4.3501,4.3505,4.3449,4.3443,4.3206,4.3407,4.3632,4.3491,4.3461,4.3306,4.3454,4.3544,4.3553,4.387,4.3909,4.4475,4.5493,4.6786,4.8427,5.0163,5.0072,4.711,4.3556,4.1732,4.1419,4.1579,4.2479,4.322,4.3854,4.3783,4.3782,4.3795,4.3816,4.3656,4.3697,4.3709,4.3777,4.3923,4.3807,4.3817,4.389,4.3811,4.3983,4.3869,4.3869,4.3838,4.3913,4.4038,4.4045,4.3938,4.3911,4.3976,4.4151,4.4054,4.4093,4.4073,4.4305,4.4442,4.4425,4.4332,4.4286,4.4365,4.4558,4.4668,4.4646,4.4625,4.478,4.4953,4.5151,4.512,4.5214,4.5232,4.5297,4.5404,4.5572,4.5504,4.5741,4.5788,4.5825,4.6005,4.5997,4.5813,4.5781,4.5776,4.5499,4.5437,4.5105,4.5053,4.4806,4.4638,4.4223,4.4075,4.4067,4.3951,4.3782,4.3695,4.3727,4.3487,4.3574,4.3638,4.343,4.3364,4.3235,4.351,4.3536,4.3485,4.3196,4.3218,4.3263,4.3405,4.3371,4.3241,4.3104,4.3271,4.3188,4.3405,4.3332,4.3068,4.3296,4.3199,4.3303,4.3366,4.3395,4.3356,4.3346,4.3293,4.3073,4.3336,4.3461,4.3313,4.3323,4.3279,4.3181,4.3281,4.3173,4.3187,4.3312,4.3245,4.3001,4.2993,4.3192,4.3132,4.3054,4.2984,4.3152,4.3151,4.3109,4.314,4.3287,4.344,4.3526,4.3776,4.3626,4.3588,4.3536,4.3357,4.3533,4.3569,4.3828,4.3922,4.3777,4.3714,4.3238,4.3413,4.3278,4.3071,4.2822,4.2744,4.2739,4.2819,4.2685,4.2732,4.2704,4.2589,4.2801,4.256,4.2539,4.251,4.2467,4.2558,4.2608,4.2561,4.2631,4.2414,4.2344,4.2424,4.2685,4.2574,4.2489,4.2606,4.294,4.3644,4.4438,4.5918,4.7219,4.9006,4.9144,4.9013,4.4809,4.1432,4.1008,4.0845,4.1202,4.1599,4.2515,4.2849,4.3058,4.2873,4.2874,4.2759,4.3025,4.3122,4.3079,4.2772,4.2862,4.2891,4.3067,4.2907,4.3042,4.2946,4.307,4.2908,4.332,4.3014,4.2934,4.3175,4.3275,4.3257,4.3237,4.3174,4.3305,4.3431,4.3383,4.3391,4.3199,4.3448,4.362,4.3541,4.3698,4.3581,4.368,4.3742,4.398,4.3987,4.4082,4.4247,4.4456,4.429,4.4585,4.4588,4.4582,4.4899,4.4879,4.4905,4.4998,4.5069,4.5109,4.4965,4.4841,4.4801,4.4726,4.4712,4.4732,4.4369,4.3935,4.3676,4.366,4.367,4.3428,4.3166,4.3031,4.3172,4.3063,4.2895,4.2843,4.2761,4.2723,4.2684,4.2805,4.2742,4.2803,4.2746,4.2719,4.274,4.2755,4.2623,4.2675,4.2808,4.269,4.2822,4.2655,4.2747,4.2711,4.2881,4.2668,4.2628,4.2831,4.3084,4.298,4.2844,4.2748,4.2897,4.2826,4.3009,4.2845,4.2757,4.264,4.2919,4.285,4.2833,4.2807,4.2702,4.2933,4.3,4.2897,4.2768,4.2822,4.3014,4.3303,4.3536,4.3559,4.37,4.3731,4.3693,4.363,4.3638,4.3308,4.3593,4.3768,4.3748,4.3516,4.31,4.3141,4.3013,4.2963,4.2838,4.251,4.2535,4.2571,4.2568,4.2608,4.2405,4.237,4.2617,4.2554,4.2274,4.2385,4.2493,4.2506,4.2538,4.2548,4.2287,4.2483,4.2526,4.253,4.2429,4.2361,4.2446,4.2745,4.3479,4.4255,4.4764,4.6003,4.7948,4.9377,4.8663,4.5334,4.182,4.0576,4.0502,4.0818,4.1489,4.2323,4.2961,4.3033,4.3109,4.2811,4.264,4.2736,4.2877,4.2941,4.2992,4.2854,4.292,4.3136,4.3005,4.3079,4.3152,4.3163,4.3269,4.3207,4.3185,4.307,4.3123,4.3246,4.3329,4.3282,4.3188,4.3312,4.3447,4.3369,4.3439,4.3375,4.3521,4.3593,4.3654,4.3829,4.3752,4.3855,4.394,4.4153,4.427,4.4196,4.4312,4.4407,4.4633,4.4794,4.4752,4.4652,4.5005,4.5322,4.52,4.5048,4.5108,4.515,4.5203,4.5108,4.4941,4.4885,4.4867,4.467,4.452,4.4252,4.3902,4.3685,4.3676,4.3334,4.3186,4.3191,4.3097,4.3201,4.3071,4.2905,4.2859,4.2951,4.2852,4.2983,4.2974,4.2962,4.2656,4.2829,4.293,4.2754,4.2634,4.2813,4.2652,4.2926,4.2941,4.2772,4.2764,4.3002,4.2867,4.2883,4.2929,4.2824,4.2775,4.2769,4.2899,4.291,4.2907,4.289,4.2989,4.2877,4.2986,4.2975,4.2806,4.3076,4.3077,4.2987,4.284,4.2903,4.3003,4.2973,4.2846,4.3009,4.2762,4.279,4.2902,4.2927,4.3298,4.3426,4.364,4.3886,4.3773,4.3515,4.3576,4.3606,4.3741,4.3616,4.3753,4.3532,4.3628,4.3308,4.2936,4.2918,4.2846,4.2863,4.2802,4.2687,4.2525,4.2501,4.2706,4.2588,4.2424,4.264,4.2527,4.2519,4.2589,4.2575,4.2439,4.2596,4.2616,4.2601,4.2564,4.2468,4.2437,4.2532,4.268,4.2798,4.3021,4.333,4.3939,4.56,4.7033,4.8789,4.9586,4.7481,4.4042,4.1,4.0591,4.062,4.1044,4.2111,4.2973,4.2953,4.3017,4.3076,4.3028,4.3031,4.3069,4.3068,4.2972,4.3049,4.3116,4.3055,4.3042,4.3163,4.3187,4.3375,4.3246,4.3043,4.3024,4.3124,4.3276,4.3232,4.3399,4.3317,4.336,4.3491,4.3453,4.3585,4.3382,4.3395,4.3508,4.3653,4.3756,4.3579,4.3752,4.4148,4.4068,4.4055,4.4064,4.4265,4.4547,4.471,4.4628,4.4732,4.4635,4.4799,4.5004,4.5041,4.5076,4.5215,4.5352,4.5338,4.5262,4.5283,4.5282,4.5169,4.5129,4.4884,4.4698,4.4403,4.4159,4.4278,4.4054,4.3836,4.359,4.3517,4.3554,4.3336,4.3213,4.3114,4.3097,4.3178,4.3096,4.3006,4.3009,4.2972,4.2964,4.3074,4.3024,4.2927,4.292,4.3034,4.2971,4.2826,4.2917,4.303,4.3069,4.2896,4.3156,4.2956,4.3089,4.299,4.3115,4.3013,4.3192,4.3123,4.3007,4.3196,4.2995,4.3053,4.3146,4.325,4.3247,4.304,4.3023,4.3163,4.2981,4.3185,4.3147,4.3179,4.3096,4.3034,4.3319,4.315,4.326,4.3808,4.3998,4.4056,4.404,4.3965,4.3938,4.3868,4.4103,4.3951,4.4073,4.4151,4.3999,4.3862,4.369,4.3534,4.3199,4.3127,4.3127,4.3105,4.3132,4.2827,4.2842,4.2916,4.2875,4.29,4.2736,4.2827,4.2764,4.2837,4.2841,4.2845,4.2914,4.2801,4.2987,4.3,4.2905,4.2926,4.298,4.3053,4.3318,4.3363,4.3929,4.4921,4.6548,4.8083,4.9806,4.9781,4.633,4.2827,4.0865,4.0902,4.0949,4.1475,4.2596,4.332,4.3513,4.3608,4.3412,4.3368,4.3301,4.3445,4.3387,4.3511,4.3738,4.3421,4.3698,4.3608,4.3538,4.3529,4.3749,4.3685,4.3511,4.3619,4.3962,4.3874,4.3853,4.3698,4.3714,4.3927,4.3944,4.4024,4.3953,4.418,4.4337,4.4313,4.4264,4.4305,4.4429,4.4436,4.4482,4.4685,4.4884,4.475,4.4791,4.5006,4.517,4.5207,4.5141,4.5301,4.5578,4.5749,4.5727,4.5752,4.5895,4.5941,4.6011,4.6021,4.5803,4.5841,4.5876,4.5736,4.5559,4.5428,4.5158,4.5131,4.4779,4.4528,4.4489,4.4303,4.3987,4.3993,4.3966,4.3879,4.3573,4.3623,4.3806,4.3674,4.3584,4.3513,4.3489,4.3831,4.3729,4.3487,4.3469,4.3572,4.3546,4.3683,4.3413,4.3545,4.349,4.3614,4.3491,4.3411,4.3563,4.3732,4.3579,4.3412,4.3612,4.3326,4.3828,4.376,4.3665,4.3479,4.3533,4.363,4.3649,4.3734,4.3595,4.3484,4.358,4.3707,4.3728,4.4138,4.4205,4.4257,4.4373,4.4249,4.4328,4.439,4.4221,4.4285,4.4678,4.439,4.4358,4.4145,4.4034,4.3963,4.3662,4.3453,4.3355,4.3325,4.3423,4.342,4.316,4.3012,4.3295,4.3264,4.3208,4.3276,4.3106,4.3093,4.3149,4.329,4.3074,4.3063,4.299,4.3234,4.3298,4.3233,4.3201,4.3064,4.3201,4.3521,4.3923,4.4825,4.6315,4.779,4.9315,4.9969,4.7568,4.4296,4.2026,4.1512,4.1561,4.1582,4.2233,4.2994,4.3672,4.3582,4.3563,4.3425,4.3706,4.3694,4.3456,4.3588,4.36,4.364,4.3641,4.3632,4.3764,4.3456,4.3831,4.3902,4.3968,4.3775,4.3702,4.3709,4.3895,4.399,4.3713,4.3761,4.4007,4.3845,4.3931,4.4056,4.4021,4.4011,4.4278,4.4461,4.4283,4.4263,4.4504,4.4774,4.4678,4.4832,4.4767,4.481,4.5176,4.515,4.5109,4.524,4.5438,4.5665,4.5501,4.5555,4.5702,4.5818,4.5761,4.5824,4.5835,4.5784,4.5373,4.5416,4.5386,4.5259,4.5126,4.4801,4.4661,4.4609,4.4241,4.3994,4.3939,4.3968,4.3831,4.3743,4.3669,4.3451,4.3567,4.363,4.3566,4.3373,4.3324,4.3518,4.3518,4.3499,4.3432,4.3544,4.358,4.3532,4.3411,4.3783,4.3588,4.3363,4.366,4.3666,4.3582,4.3497,4.3602,4.3657,4.3752,4.3669,4.3563,4.3761,4.3916,4.4162,4.4423,4.4395,4.4415,4.4498,4.4516,4.4477,4.4412,4.43,4.458,4.4741,4.4564,4.4086,4.3924,4.384,4.3726,4.3565,4.3403,4.34,4.3387,4.3481,4.3306,4.3168,4.3093,4.3191,4.3306,4.3346,4.3343,4.3216,4.3232,4.3345,4.3314,4.3204,4.3288,4.3206,4.3316,4.3388,4.3274,4.3212,4.3404,4.3803,4.4336,4.5385,4.6265,4.7624,4.9256,5.0373,4.8358,4.4952,4.2084,4.1714,4.1731,4.1789,4.268,4.3342,4.3806,4.3788,4.3683,4.3652,4.3671,4.3673,4.3699,4.3776,4.3874,4.3634,4.3848,4.3727,4.3877,4.3751,4.3881,4.3873,4.4181,4.398,4.3992,4.3966,4.4109,4.4214,4.4226,4.4024,4.4096,4.4161,4.4064,4.4336,4.4511,4.4402,4.4375,4.4505,4.4746,4.467,4.4669,4.4681,4.4918,4.4981,4.5216,4.5239,4.5255,4.5414,4.5669,4.5663,4.5599,4.5818,4.5796,4.5992,4.5911,4.5826,4.5822,4.601,4.601,4.5918,4.5696,4.5467,4.5264,4.5283,4.5077,4.4942,4.4643,4.4625,4.4557,4.4229,4.415,4.403,4.4118,4.3976,4.3814,4.3821,4.3878,4.3815,4.3717,4.4001,4.3921,4.3591,4.365,4.3918,4.3859,4.365,4.3858,4.3679,4.3884,4.4035,4.3765,4.3729,4.3796,4.3892,4.3999,4.3939,4.3902,4.3855,4.3937,4.3931,4.4148,4.4039,4.407,4.4013,4.4207,4.4731,4.4586,4.4737,4.4848,4.4885,4.4821,4.483,4.4728,4.4802,4.4809,4.4701,4.4637,4.4599,4.4203,4.4355,4.3978,4.3913,4.3602,4.3645,4.3853,4.3794,4.3668,4.3454,4.3723,4.3587,4.3581,4.3649,4.3575,4.3606,4.3678,4.3571,4.3579,4.3599,4.3339,4.3453,4.3523,4.3589,4.3471,4.3584,4.3677,4.4114,4.463,4.5635,4.7109,4.8734,5.0157,5.0336,4.7058,4.3487,4.1747,4.1636,4.1963,4.2177,4.2958,4.374,4.4049,4.4015,4.4209,4.3944,4.4028,4.3863,4.3903,4.4031,4.4117,4.4032,4.4145,4.4172,4.3964,4.3978,4.4117,4.4155,4.4211,4.4154,4.4158,4.4302,4.4401,4.4559,4.4433,4.4204,4.4337,4.438,4.4581,4.4622,4.4634,4.4569,4.4759,4.4895,4.4893,4.4916,4.4946,4.5056,4.5275,4.5235,4.5282,4.539,4.5557,4.5815,4.5761,4.5823,4.6013,4.6076,4.6142,4.6163,4.6291,4.6226,4.6346,4.6399,4.6284,4.6158,4.5865,4.5828,4.5781,4.5556,4.5312,4.5177,4.4908,4.4805,4.4667,4.4489,4.4312,4.4212,4.4262,4.4193,4.4132,4.4076,4.4004,4.4144,4.4131,4.3983,4.4046,4.396,4.398,4.4155,4.4146,4.4072,4.3935,4.4223,4.4,4.406,4.4012,4.3824,4.4099,4.4235,4.4262,4.4044,4.397,4.4127,4.42,4.4198,4.4151,4.4124,4.4268,4.412,4.4122,4.3927,4.396,4.4206,4.4163,4.4068,4.4121,4.395,4.4089,4.3963,4.4229,4.4238,4.394,4.3886,4.4151,4.4058,4.3881,4.4032,4.4131,4.4293,4.46,4.475,4.4754,4.5012,4.4827,4.4903,4.4857,4.4678,4.4796,4.4856,4.4945,4.4925,4.4797,4.4427,4.447,4.4172,4.402,4.3963,4.3832,4.3719,4.3723,4.3789,4.3686,4.3658,4.3565,4.3826,4.3698,4.3857,4.3575,4.3454,4.379,4.3626,4.353,4.3745,4.3772,4.3858,4.3773,4.3673,4.365,4.3859,4.4101,4.4249,4.5135,4.5731,4.6904,4.8319,5.001,5.0848,4.8357,4.4673,4.2113,4.1866,4.2038,4.258,4.3393,4.4185,4.4284,4.4228,4.4268,4.4059,4.4199,4.4289,4.4346,4.4355,4.4336,4.4331,4.4448,4.4516,4.4369,4.4203,4.4461,4.4541,4.4425,4.4423,4.4502,4.4714,4.4675,4.463,4.4518,4.478,4.4879,4.4761,4.4691,4.4691,4.4708,4.4764,4.501,4.5119,4.5256,4.5137,4.533,4.5458,4.5593,4.5573,4.5505,4.5569,4.574,4.586,4.6027,4.6121,4.6222,4.6611,4.6352,4.643,4.6445,4.6415,4.6686,4.6732,4.6713,4.6616,4.6439,4.6572,4.6268,4.6103,4.5684,4.5513,4.5742,4.5287,4.5125,4.4797,4.4831,4.4735,4.461,4.4636,4.4494,4.4444,4.4419,4.4392,4.4319,4.428,4.4299,4.4305,4.4504,4.4367,4.4327,4.4403,4.4354,4.4443,4.4466,4.4326,4.4254,4.4407,4.4463,4.4536,4.4454,4.439,4.4301,4.4635,4.4693,4.4595,4.4465,4.4303,4.4446,4.4671,4.4419,4.451,4.4357,4.4484,4.448,4.4559,4.45,4.4532,4.4407,4.4565,4.4683,4.4437,4.4381,4.4372,4.4571,4.4496,4.4481,4.4258,4.4557,4.4423,4.4526,4.442,4.4531,4.4622,4.5014,4.5142,4.5292,4.5306,4.5142,4.5206,4.5205,4.528,4.5174,4.5371,4.5352,4.5257,4.5166,4.4745,4.4466,4.4668,4.4579,4.4393,4.43,4.4302,4.4343,4.4178,4.432,4.41,4.4221,4.4208,4.4252,4.4132,4.4233,4.4125,4.417,4.424,4.436,4.4343,4.4254,4.4333,4.4297,4.4345,4.4338,4.4403,4.4729,4.5165,4.6009,4.7352,4.874,5.0655,5.1434,4.898,4.5277,4.3342,4.2058,4.2197,4.2924,4.3562,4.4342,4.4781,4.487,4.4882,4.4876,4.4686,4.4821,4.4784,4.481,4.4846,4.4892,4.4886,4.487,4.5042,4.498,4.4878,4.4962,4.4914,4.5244,4.5132,4.4901,4.5104,4.5325,4.53,4.531,4.5182,4.5144,4.531,4.5534,4.541,4.5336,4.5562,4.5597,4.5667,4.5857,4.5739,4.5813,4.5967,4.6076,4.6266,4.6205,4.6378,4.6459,4.6508,4.6709,4.6923,4.6677,4.7108,4.7089,4.7257,4.729,4.7238,4.7282,4.7381,4.7379,4.7137,4.6913,4.675,4.6644,4.651,4.6303,4.6063,4.5802,4.5644,4.5592,4.5391,4.5369,4.5264,4.5113,4.5071,4.5164,4.4961,4.4972,4.5005,4.4964,4.5193,4.501,4.5067,4.4831,4.4907,4.4959,4.5033,4.482,4.4928,4.5248,4.508,4.4952,4.4922,4.499,4.5185,4.5048,4.4952,4.493,4.498,4.5218,4.5192,4.5139,4.509,4.5087,4.5135,4.5228,4.5188,4.51,4.4985,4.5261,4.5216,4.5195,4.501,4.5109,4.5113,4.5081,4.5307,4.5064,4.4942,4.499,4.5105
