0.39722,0.33855,0.26546,0.26931,0.35782,0.54764,0.63184,0.74361,0.7684,0.74546,0.81697,0.80399,0.79703,0.78475,0.81474,0.79645,0.82005,0.83319,0.80453,0.79488,0.78864,0.79853,0.83394,0.82537,0.81328,0.81371,0.83307,0.82175,0.82914,0.81172,0.80944,0.82143,0.8219,0.82657,0.83334,0.78116,0.84909,0.86346,0.86234,0.82891,0.82782,0.81996,0.87897,0.88785,0.84457,0.86467,0.85084,0.8571,0.8607,0.87484,0.82807,0.89442,0.89058,0.8825,0.8798,0.88975,0.86002,0.86192,0.9386,0.94005,0.88588,0.93875,0.9313,0.95222,0.94605,0.95222,0.9262,0.96385,0.94676,0.96833,0.96244,0.96386,0.98039,0.95374,0.941,0.90645,0.97464,0.96566,0.9212,0.91557,0.90884,0.91607,0.87897,0.90008,0.89791,0.88342,0.86357,0.84411,0.88074,0.87633,0.84861,0.861,0.82809,0.89257,0.88332,0.88643,0.86296,0.88133,0.87298,0.85127,0.86391,0.85862,0.85773,0.87699,0.88564,0.86813,0.86599,0.8482,0.88486,0.85034,0.85426,0.85639,0.8969,0.89823,0.89738,0.87561,0.83447,0.84875,0.88172,0.88987,0.89823,0.88168,0.86345,0.84668,0.86266,0.89849,0.88221,0.84983,0.86143,0.88458,0.92872,0.88136,0.86237,0.87404,0.87079,0.90797,0.88384,0.88055,0.89743,0.90123,0.91059,0.89394,0.87417,0.89093,0.85653,0.91811,0.92677,0.88126,0.92234,0.87497,0.93807,0.91197,0.93971,0.9263,0.93494,0.92298,0.91062,0.88508,0.87879,0.92746,0.96082,0.93385,0.91288,0.90592,0.92502,0.90441,0.93767,0.90351,0.8895,0.89341,0.93341,0.93635,0.93422,0.92785,0.98974,0.99476,0.95661,0.97604,0.96155,0.98732,0.9938,0.99131,0.98938,0.98005,0.92979,0.94508,0.94929,0.90927,0.88037,0.90566,0.88045,0.87852,0.87975,0.87713,0.86924,0.87427,0.88071,0.87513,0.87401,0.87125,0.88245,0.87706,0.8726,0.87137,0.77992,0.73005,0.74611,0.79834,0.94384,1.2643,1.7029,2.067,2.2883,2.5352,2.4058,1.7843,1.1731,0.67372,0.49299,0.36358,0.33702,0.40736,0.53865,0.65379,0.77473,0.85433,0.86592,0.86606,0.84166,0.84508,0.8686,0.90026,0.8857,0.8774,0.86596,0.88038,0.89175,0.92214,0.86557,0.89279,0.8821,0.90762,0.90948,0.90719,0.88938,0.90464,0.89071,0.8946,0.88482,0.9013,0.87013,0.9063,0.91947,0.91643,0.89407,0.90449,0.90365,0.91229,0.91613,0.91028,0.91121,0.9087,0.90009,0.90052,0.92187,0.91261,0.93895,0.91661,0.9191,0.92531,0.90305,0.90509,0.89503,0.93893,0.9518,0.92727,0.93741,0.93296,0.92772,0.94579,0.96684,0.96986,0.95941,0.97706,0.99545,0.97625,0.96992,0.97248,0.98997,0.99407,0.99216,0.96155,0.97326,0.97627,0.95251,0.93085,0.95417,0.93232,0.9382,0.95773,0.93307,0.92212,0.9098,0.89963,0.94623,0.91845,0.89093,0.92521,0.90664,0.90278,0.91976,0.90112,0.87843,0.91966,0.96092,0.90473,0.8997,0.91286,0.92088,0.92865,0.92251,0.9218,0.9124,0.92227,0.91797,0.91443,0.9126,0.91163,0.89864,0.92312,0.92924,0.91035,0.90424,0.89091,0.91479,0.93573,0.91567,0.89032,0.89132,0.92712,0.91736,0.89252,0.9121,0.88817,0.91154,0.93186,0.91183,0.88335,0.88518,0.89181,0.91782,0.8951,0.86025,0.85926,0.87266,0.91252,0.88404,0.88216,0.89449,0.89498,0.86781,0.85621,0.87081,0.87745,0.87643,0.8717,0.87808,0.8501,0.87091,0.88365,0.88104,0.8883,0.87089,0.85905,0.86323,0.87643,0.87332,0.87074,0.87791,0.87003,0.87483,0.85736,0.85944,0.8456,0.88831,0.89486,0.88217,0.88218,0.90548,0.88875,0.88449,0.8937,0.89601,0.87165,0.85858,0.89439,0.91699,0.89481,0.89779,0.8882,0.89403,0.9278,0.90578,0.88561,0.88502,0.90093,0.91244,0.93853,0.90315,0.91515,0.91001,0.9244,0.90321,0.90901,0.89035,0.92535,0.95462,0.92001,0.91167,0.89359,0.91903,0.9217,0.92387,0.89045,0.89845,0.89203,0.93745,0.92161,0.90984,0.91215,0.86883,0.90552,0.90174,0.89919,0.89676,0.90104,0.88538,0.91636,0.90588,0.87986,0.89442,0.88169,0.88788,0.90248,0.90558,0.91363,0.90778,0.89982,0.87765,0.92722,0.94708,0.95644,0.94822,0.94874,0.94182,0.95739,0.96645,0.97151,0.98095,0.98712,0.97524,0.94157,0.93499,0.93772,0.88292,0.88747,0.89304,0.87849,0.89361,0.88477,0.88183,0.90042,0.88091,0.87861,0.89138,0.8683,0.87357,0.86513,0.88005,0.85426,0.77871,0.71909,0.71891,0.75996,0.8591,1.1222,1.5336,1.9509,2.2596,2.4456,2.5873,2.0932,1.4564,0.85842,0.53976,0.41863,0.33235,0.41301,0.56232,0.70679,0.7982,0.84184,0.82125,0.85781,0.8723,0.88215,0.86522,0.89037,0.89397,0.89806,0.88397,0.8913,0.89668,0.90861,0.91521,0.91031,0.89649,0.89632,0.91894,0.9308,0.92667,0.93685,0.93341,0.93079,0.93592,0.95547,0.9164,0.9177,0.94791,0.96032,0.93919,0.93137,0.94197,0.96064,0.94588,0.96908,0.95172,0.96025,0.95732,0.96751,0.96788,0.98691,0.97054,0.96003,0.96524,1.0008,0.97407,0.96927,0.97246,0.98796,1.0139,0.98189,0.97484,1.0048,1.0051,1.0363,1.0215,1.0086,1.0389,1.0306,1.0754,1.0747,1.0821,1.0636,1.0744,1.0777,1.0686,1.0568,1.0725,1.0863,1.0516,1.0389,1.0655,1.0496,1.0405,1.0166,0.99745,0.99026,0.9669,0.93976,0.96968,0.97864,0.97399,0.96773,0.94989,0.94237,0.93059,0.92034,0.9149,0.89996,0.92722,0.88382,0.93434,0.92056,0.90744,0.89808,0.91589,0.89723,0.89273,0.88994,0.88719,0.88444,0.8685,0.86225,0.89445,0.88957,0.8887,0.88856,0.86354,0.86537,0.86989,0.86348,0.85597,0.84946,0.87212,0.8833,0.85105,0.85883,0.84159,0.85403,0.84198,0.86098,0.86172,0.84832,0.82748,0.83926,0.8621,0.86982,0.8424,0.83726,0.82777,0.83902,0.85028,0.81306,0.80876,0.83848,0.8214,0.83234,0.83009,0.80796,0.83293,0.8527,0.85069,0.82193,0.81729,0.82591,0.81455,0.83074,0.82753,0.82442,0.82279,0.82104,0.81031,0.80281,0.7979,0.81825,0.81701,0.82623,0.83041,0.79853,0.80309,0.82776,0.79849,0.79363,0.83561,0.81284,0.8208,0.80959,0.81061,0.81449,0.79771,0.81167,0.82064,0.82834,0.79986,0.81863,0.81515,0.81149,0.80188,0.79344,0.79751,0.80182,0.84517,0.82844,0.81208,0.80643,0.79793,0.81651,0.80968,0.79032,0.81748,0.82306,0.84971,0.85593,0.86616,0.8444,0.83763,0.88821,0.88918,0.88949,0.91015,0.8821,0.90011,0.89591,0.86212,0.85587,0.82813,0.79796,0.79828,0.79381,0.78445,0.80583,0.7929,0.79087,0.78936,0.78863,0.7812,0.80546,0.79131,0.79118,0.77486,0.78922,0.74603,0.7019,0.67715,0.66944,0.67357,0.77959,1.089,1.512,1.8847,2.1333,2.298,2.3287,1.8106,1.1868,0.67909,0.43483,0.34439,0.28317,0.32363,0.38319,0.54231,0.59359,0.70261,0.76201,0.77708,0.7892,0.81054,0.78681,0.81427,0.81283,0.81078,0.82189,0.84107,0.82731,0.82058,0.82003,0.83869,0.83439,0.82167,0.87055,0.8574,0.84202,0.8557,0.84092,0.85259,0.84799,0.84204,0.85428,0.87351,0.84417,0.84603,0.84818,0.85949,0.8625,0.85139,0.82963,0.86092,0.86809,0.88755,0.86708,0.85969,0.85626,0.88033,0.89449,0.86158,0.87651,0.89953,0.88133,0.87937,0.87146,0.88161,0.86499,0.91975,0.93804,0.9195,0.90717,0.91291,0.93052,0.9098,0.93709,0.94507,0.96553,0.93075,0.986,0.98604,0.96788,0.95857,0.95348,0.96729,0.97066,0.9567,0.94191,0.91923,0.93101,0.94777,0.91215,0.89429,0.90055,0.87963,0.88071,0.87559,0.88847,0.85031,0.8561,0.88933,0.88433,0.86926,0.84696,0.86401,0.87075,0.87372,0.87112,0.86835,0.8576,0.86135,0.86093,0.85776,0.85676,0.8392,0.86793,0.88304,0.89115,0.84885,0.84939,0.87231,0.85478,0.86878,0.86221,0.87186,0.87927,0.87277,0.862,0.84015,0.8581,0.86431,0.86663,0.8532,0.84385,0.83814,0.85156,0.84077,0.83427,0.84537,0.80844,0.84336,0.86346,0.8258,0.83535,0.85526,0.85362,0.83999,0.83765,0.8235,0.83458,0.82423,0.82821,0.82095,0.82112,0.83524,0.83019,0.80818,0.8182,0.82942,0.83519,0.82659,0.82893,0.83637,0.84566,0.83442,0.81456,0.82603,0.85806,0.8225,0.81644,0.82466,0.83771,0.83354,0.84875,0.82616,0.81219,0.86667,0.8552,0.83176,0.80131,0.83499,0.8424,0.83037,0.83049,0.80995,0.83441,0.9005,0.9084,0.88732,0.86186,0.88233,0.88513,0.92501,0.92211,0.93545,0.91155,0.91923,0.90952,0.8759,0.85563,0.81747,0.81424,0.82018,0.81195,0.77815,0.79775,0.81003,0.80179,0.8074,0.83605,0.80004,0.79614,0.79905,0.81736,0.81028,0.78851,0.74969,0.72008,0.66153,0.67037,0.71141,0.90135,1.2639,1.6859,2.0577,2.2192,2.5026,2.2987,1.6514,1.0426,0.57386,0.37329,0.28117,0.31157,0.40066,0.51932,0.68227,0.73945,0.80058,0.80806,0.79261,0.77707,0.78245,0.80578,0.83671,0.81728,0.80768,0.81248,0.8384,0.83757,0.81357,0.79793,0.81884,0.84429,0.84244,0.84014,0.82935,0.83539,0.83609,0.84311,0.82773,0.83019,0.82459,0.84625,0.85249,0.85529,0.83907,0.82314,0.82766,0.87493,0.85395,0.82855,0.84154,0.86366,0.85835,0.84612,0.82581,0.85444,0.85999,0.86782,0.87947,0.86569,0.83908,0.86449,0.89064,0.86999,0.88157,0.87442,0.90005,0.9037,0.90283,0.90674,0.90116,0.90839,0.9199,0.93254,0.93794,0.92425,0.93352,0.9384,0.96722,0.93856,0.94718,0.95929,0.9549,0.93536,0.92988,0.92611,0.90578,0.91701,0.90266,0.88849,0.88846,0.88195,0.89825,0.88568,0.88682,0.86266,0.85252,0.85591,0.85435,0.86022,0.86423,0.8423,0.86474,0.87692,0.86646,0.85892,0.8531,0.82928,0.87335,0.8681,0.86312,0.85633,0.85133,0.87822,0.85216,0.85999,0.85095,0.86771,0.85952,0.89099,0.84242,0.85468,0.8575,0.86684,0.8653,0.84813,0.84697,0.84734,0.85008,0.84829,0.83312,0.85613,0.86616,0.84781,0.82293,0.82891,0.82335,0.83212,0.85354,0.83531,0.83616,0.81939,0.80703,0.82239,0.83448,0.81997,0.82016,0.8118,0.81515,0.83755,0.80627,0.7905,0.81569,0.83331,0.82804,0.81509,0.8078,0.82629,0.82471,0.84015,0.8292,0.80894,0.81249,0.80356,0.82632,0.8231,0.84879,0.81745,0.80408,0.84401,0.8251,0.81698,0.82102,0.81947,0.80829,0.83024,0.83162,0.81643,0.81731,0.82321,0.83112,0.83678,0.83287,0.8078,0.82343,0.83655,0.80133,0.82576,0.83071,0.83947,0.8545,0.84269,0.84961,0.86841,0.88889,0.89873,0.89855,0.87168,0.87711,0.90073,0.91579,0.93629,0.93259,0.91437,0.90156,0.91723,0.89467,0.88483,0.81257,0.79271,0.86189,0.78744,0.82267,0.85294,0.8294,0.82641,0.83823,0.84452,0.81906,0.82156,0.84635,0.84874,0.84725,0.7921,0.73256,0.69223,0.68758,0.71484,0.87604,1.2237,1.6836,2.0863,2.2909,2.5505,2.3977,1.7343,1.418,0.86482,0.50663,0.37685,0.27913,0.36307,0.51766,0.66313,0.75261,0.8224,0.79817,0.82968,0.82635,0.80589,0.8124,0.86382,0.8516,0.86481,0.8323,0.83135,0.84642,0.88139,0.85758,0.8523,0.83847,0.83908,0.86684,0.87186,0.85468,0.86748,0.8663,0.86439,0.86382,0.85849,0.84797,0.83255,0.84779,0.90363,0.89515,0.88001,0.87611,0.8719,0.88351,0.89897,0.88956,0.88048,0.90035,0.89894,0.89273,0.89099,0.88443,0.88778,0.88221,0.88203,0.87629,0.88363,0.89193,0.91992,0.90481,0.91662,0.91004,0.91473,0.92988,0.93693,0.93087,0.93335,0.93906,0.98067,0.9686,0.94934,0.95409,0.97976,0.98214,0.99109,0.98965,0.99455,0.99075,0.98289,0.96712,0.9435,0.94546,0.96102,0.94834,0.93359,0.94661,0.92344,0.9146,0.92456,0.93934,0.88156,0.91271,0.90517,0.92804,0.896,0.92032,0.90606,0.89516,0.91446,0.92852,0.90331,0.89864,0.88814,0.90192,0.90517,0.9011,0.92123,0.89515,0.89362,0.91792,0.92534,0.89426,0.865,0.89952,0.8939,0.89654,0.89206,0.89924,0.90519,0.89622,0.88512,0.86035,0.86095,0.87078,0.89781,0.89536,0.88957,0.89132,0.86641,0.85378,0.89357,0.87622,0.86192,0.86484,0.88926,0.89686,0.86981,0.8728,0.87854,0.88215,0.89159,0.87461,0.86746,0.86098,0.86559,0.88632,0.87605,0.87641,0.87136,0.8767,0.87072,0.85768,0.85746,0.88189,0.87167,0.87803,0.87094,0.88923,0.89904,0.87043,0.89191,0.86053,0.861,0.86372,0.88065,0.88364,0.88456,0.87252,0.86712,0.85687,0.8908,0.89281,0.86028,0.84769,0.84905,0.8728,0.86711,0.86269,0.87543,0.87968,0.88119,0.85998,0.83758,0.86253,0.85117,0.86359,0.90801,0.91447,0.91219,0.89934,0.91458,0.93469,0.92195,0.9264,0.91993,0.94375,0.97625,0.94137,0.9231,0.90514,0.897,0.8686,0.85589,0.82866,0.81907,0.83566,0.86721,0.83975,0.82002,0.81708,0.84376,0.84397,0.85748,0.8102,0.81834,0.86287,0.84501,0.76887,0.68112,0.67437,0.74429,0.90427,1.0537,1.4506,1.8601,2.1336,2.2554,2.4274,2.06,1.3751,0.83301,0.52993,0.42835,0.31211,0.33245,0.40194,0.5511,0.69393,0.77332,0.80458,0.82786,0.81534,0.82085,0.84429,0.83957,0.82177,0.86884,0.87014,0.85479,0.83253,0.8326,0.86156,0.87732,0.86813,0.858,0.87541,0.87611,0.86534,0.87634,0.864,0.86774,0.8658,0.86728,0.87764,0.88077,0.88422,0.86769,0.88237,0.89749,0.8848,0.8593,0.88182,0.89202,0.90409,0.91021,0.88679,0.89418,0.90138,0.90051,0.87475,0.92127,0.87563,0.87896,0.92949,0.93349,0.92527,0.92081,0.91268,0.92296,0.91335,0.94509,0.94694,0.95926,0.99047,0.97765,0.99545,0.95829,0.97497,1.0044,1.0233,1.0031,1.021,1.0055,1.0079,1.0121,1.001,0.97261,0.99345,0.98612,0.99181,0.98098,0.95962,0.94316,0.97513,0.96864,0.92981,0.90861,0.92865,0.92837,0.92017,0.92681,0.9025,0.89762,0.89928,0.90087,0.94197,0.91586,0.90422,0.87465,0.92476,0.95629,0.92221,0.90771,0.92884,0.927,0.90568,0.91421,0.88038,0.90839,0.92792,0.93405,0.9107,0.908,0.91545,0.92295,0.90482,0.90705,0.87606,0.88361,0.92232,0.93932,0.92623,0.91307,0.89543,0.90656,0.91734,0.89893,0.88942,0.89368,0.897,0.90185,0.89188,0.88836,0.86674,0.86895,0.88315,0.91926,0.90001,0.90247,0.90729,0.87424,0.8837,0.88425,0.8765,0.86846,0.90924,0.90743,0.88704,0.87833,0.88492,0.88234,0.8713,0.86483,0.87832,0.90251,0.8599,0.9214,0.90562,0.90318,0.93545,0.94076,0.96478,0.92539,0.92186,0.96512,0.97823,0.97426,0.96237,0.97204,0.9846,0.96958,0.95433,0.94104,0.89076,0.84043,0.87399,0.86844,0.84071,0.86686,0.86664,0.8598,0.85176,0.84405,0.86212,0.8499,0.85685,0.86467,0.8758,0.87069,0.79326,0.73902,0.72155,0.72428,0.75744,0.9092,1.2591,1.6819,2.0453,2.2282,2.45,2.3533,1.7249,1.1185,0.64124,0.4258,0.31226,0.32749,0.39369,0.52072,0.65781,0.77105,0.85865,0.86157,0.85488,0.82139,0.83358,0.84337,0.84739,0.853,0.85458,0.84097,0.85329,0.83281,0.88289,0.87573,0.86084,0.84995,0.86989,0.87933,0.87176,0.84525,0.85564,0.86028,0.91207,0.87706,0.86463,0.88747,0.88195,0.89124,0.87195,0.85044,0.85974,0.90018,0.91645,0.91479,0.87299,0.88059,0.91618,0.90098,0.89657,0.89901,0.8793,0.88919,0.91118,0.92902,0.91013,0.91656,0.93321,0.93655,0.89669,0.92432,0.93665,0.92445,0.91527,0.97223,0.97427,0.95987,0.97092,0.9707,0.95183,0.97558,0.9956,0.9893,0.97329,1.0134,0.96881,0.98199,0.9897,0.98834,0.97972,0.95554,0.98967,0.93533,0.96177,0.93099,0.92266,0.91923,0.91697,0.90302,0.88697,0.88727,0.91137,0.91228,0.88061,0.86886,0.9026,0.90449,0.88683,0.8909,0.88477,0.87646,0.86699,0.88589,0.89921,0.88849,0.8875,0.87319,0.87206,0.87848,0.88734,0.86995,0.85668,0.89581,0.89526,0.86338,0.8735,0.88377,0.84595,0.87977,0.88364,0.87799,0.86702,0.85363,0.85669,0.838,0.8658,0.83404,0.84223,0.88999,0.88758,0.86642,0.85428,0.85069,0.82846,0.86389,0.8665,0.86101,0.84645,0.83312,0.8561,0.86003,0.85893,0.84379,0.84444,0.86967,0.85897,0.82578,0.81767,0.84607,0.87048,0.85409,0.86927,0.85477,0.85281,0.85193,0.86902,0.8451,0.85075,0.82521,0.81823,0.83449,0.86046,0.85412,0.86951,0.87085,0.88722,0.88848,0.89475,0.89447,0.88934,0.92396,0.92605,0.95273,0.93044,0.92303,0.90783,0.92772,0.91001,0.89486,0.85779,0.8239,0.80474,0.83062,0.81267,0.82715,0.89714,0.85868,0.86446,0.87924,0.82935,0.85077,0.86004,0.8622,0.86378,0.85719,0.81589,0.77391,0.71243,0.71998,0.75809,0.9708,1.3451,1.7746,2.1629,2.339,2.654,2.3145,1.6284,0.98012,0.59315,0.46256,0.34434,0.36374,0.40143,0.55212,0.72727,0.83848,0.85239,0.88694,0.8288,0.88057,0.88603,0.88214,0.86616,0.90251,0.91924,0.92638,0.92261,0.93985,0.92219,0.9077,0.90261,0.87143,0.87577,0.91302,0.95363,0.9367,0.92883,0.94017,0.91694,0.94488,0.93726,0.94222,0.93363,0.91701,0.94892,0.95566,0.95764,0.95489,0.96079,0.94435,0.96691,0.98622,1.0104,0.98473,0.96177,0.9702,0.98131,1.0009,0.96724,0.94094,0.96404,0.98148,0.97823,0.97316,0.92768,0.97448,0.99453,0.99753,0.99268,1.0445,1.042,1.0302,1.0442,0.92683,0.93613,1.0432,1.1279,1.1273,1.0915,1.061,1.0681,1.0899,1.0601,1.0614,1.0447,1.04,1.0733,1.0241,1.0293,0.98122,1.0444,1.0491,1.0506,1.0243,1.0089,1.07,1.0978,1.065,1.0905,1.0865,1.0003,1.0265,1.1156,1.0809,1.06,1.0583,1.0342,1.0756,1.0595,1.005,0.9755,0.97156,0.99211,1.0816,1.0856,1.0445,1.0147,1.0039,1.0181,0.99531,0.97071,0.97562,0.97054,0.98042,1.011,0.95844,0.93915,0.90902,0.96099,0.95559,0.85379,0.85663,0.91665,0.96597,0.99243,0.96961,0.93151,0.88678,0.89626,0.90362,0.96653,0.91568,0.8325,0.86795,0.91987,0.92502,0.90808,0.90266,0.88696,0.89891,0.82232,0.84032,0.89902,0.89731,0.88222,0.87576,0.88549,0.87779,0.82614,0.84638,0.85939,0.86378,0.87333,0.87063,0.88758,0.88302,0.85039,0.88377,0.8767,0.86758,0.86677,0.84575,0.85792,0.86192,0.86344,0.87234,0.85978,0.86173,0.86462,0.90062,0.92398,0.92001,0.86434,0.85361,0.91464,0.9252,0.90568,0.94389,0.94485,0.88089,0.86316,0.87064,0.87742,0.82248,0.83425,0.83465,0.84101,0.82083,0.8412,0.84086,0.81924,0.83293,0.82374,0.8203,0.83091,0.82562,0.78455,0.70948,0.79898,0.82257,0.74733,0.69932,0.68366,0.72043,0.8766,1.2689,1.6888,2.0295,2.2254,2.385,2.2599,1.6622,0.99163,0.55533,0.37939,0.32664,0.32972,0.33848,0.44598,0.57215,0.65124,0.75042,0.75907,0.78162,0.80301,0.81861,0.83656,0.7914,0.81559,0.82782,0.82253,0.84767,0.81448,0.84812,0.79856,0.81599,0.81062,0.81289,0.79139,0.82245,0.82203,0.81727,0.80422,0.78761,0.81509,0.82918,0.84424,0.79767,0.76167,0.78043,0.79016,0.77391,0.77566,0.77126,0.71754,0.69514,0.75349,0.74985,0.7124,0.68815,0.67197,0.72758,0.73015,0.66926,0.65497,0.70301,0.72603,0.73653,0.72569,0.69862,0.69644,0.70308,0.71754,0.72289,0.75717,0.74794,0.77079,0.79224,0.77121,0.76393,0.77445,0.79948,0.81282,0.80416,0.80075,0.78132,0.78435,0.7929,0.77753,0.78004,0.76087,0.78596,0.7825,0.79302,0.76013,0.75391,0.72267,0.75102,0.76834,0.74257,0.72397,0.73772,0.7358,0.72582,0.73712,0.71577,0.69469,0.65361,0.68865,0.67995,0.68513,0.67192,0.67849,0.67481,0.65996,0.63635,0.64022,0.6364,0.66925,0.62556,0.63261,0.61783,0.62706,0.63526,0.5958,0.61027,0.57328,0.56549,0.55518,0.54748,0.53334,0.51196,0.52123,0.52698,0.50845,0.492,0.52079,0.48061,0.49128,0.50822,0.50981,0.47594,0.4817,0.4943,0.50653,0.4993,0.49737,0.50886,0.56844,0.57292,0.54257,0.56349,0.58719,0.59549,0.59364,0.56723,0.5688,0.55925,0.65555,0.68865,0.65893,0.62477,0.61886,0.64456,0.64368,0.69498,0.65997,0.67176,0.67316,0.66749,0.62527,0.61295,0.61777,0.57007,0.55455,0.60626,0.58764,0.58043,0.59424,0.62633,0.61546,0.61007,0.60463,0.6035,0.61909,0.61113,0.63162,0.64855,0.64039,0.61959,0.56038,0.49436,0.51027,0.58349,0.84058,1.2695,1.6589,1.9505,2.1275,2.3665,2.0447,1.3532,0.7515,0.51045,0.31284,0.18994,0.17913,0.20756,0.33342,0.46966,0.58029,0.65957,0.69269,0.67884,0.69826,0.69037,0.73132,0.69354,0.70997,0.72618,0.73903,0.7344,0.74604,0.70003,0.71259,0.71231,0.72422,0.71824,0.73626,0.72887,0.74207,0.74513,0.71671,0.70716,0.72789,0.76287,0.7617,0.75718,0.74587,0.73782,0.7479,0.7711,0.76739,0.74856,0.76285,0.77359,0.7775,0.78189,0.77397,0.77479,0.78653,0.80168,0.80764,0.77933,0.78609,0.78167,0.80321,0.78075,0.76744,0.79603,0.79302,0.83884,0.86096,0.82384,0.78409,0.80852,0.87237,0.85573,0.88899,0.88381,0.86997,0.89797,0.8947,0.88381,0.88276,0.88011,0.88369,0.86594,0.86851,0.88488,0.87742,0.85747,0.83789,0.84507,0.82951,0.82848,0.82073,0.82363,0.81067,0.80089,0.78379,0.79842,0.81595,0.78559,0.77687,0.77786,0.78163,0.76962,0.75575,0.76539,0.77801,0.79276,0.76669,0.75884,0.72563,0.74573,0.7225,0.72886,0.7393,0.70045,0.67011,0.68048,0.65815,0.63322,0.60233,0.59978,0.58784,0.57807,0.56498,0.54723,0.51193,0.50276,0.49669,0.50631,0.49888,0.48871,0.49197,0.49915,0.50857,0.51471,0.53311,0.54121,0.54489,0.54445,0.56974,0.56337,0.55055,0.5711,0.58891,0.56561,0.55953,0.58556,0.58413,0.57762,0.5642,0.58344,0.60698,0.61001,0.63904,0.62836,0.60089,0.64313,0.62732,0.66026,0.6743,0.65772,0.65242,0.66185,0.69192,0.74251,0.76592,0.71469,0.72269,0.72576,0.75099,0.77518,0.76271,0.78532,0.81327,0.7768,0.76027,0.75345,0.76084,0.72089,0.70571,0.68219,0.66526,0.66632,0.68331,0.691,0.71419,0.68312,0.70603,0.70497,0.68579,0.69983,0.6983,0.69131,0.69943,0.69111,0.664,0.59057,0.55043,0.55988,0.62595,0.92236,1.3364,1.777,2.0628,2.2611,2.4622,1.9789,1.3112,0.98257,0.52637,0.34555,0.19921,0.18673,0.33996,0.46931,0.61783,0.67712,0.75033,0.73544,0.72416,0.73601,0.75058,0.74374,0.73051,0.74479,0.7614,0.77887,0.78702,0.77362,0.77963,0.77645,0.7924,0.76856,0.76878,0.76362,0.78189,0.79708,0.78063,0.77734,0.78185,0.77013,0.80247,0.80961,0.78533,0.80001,0.79687,0.80126,0.80069,0.78518,0.77933,0.81486,0.82287,0.79888,0.77784,0.75677,0.80526,0.81518,0.79283,0.78738,0.81083,0.80145,0.79029,0.80614,0.74828,0.73133,0.71642,0.76499,0.80976,0.73778,0.71477,0.76106,0.8146,0.80754,0.78927,0.77148,0.7659,0.80293,0.80101,0.78445,0.77342,0.80943,0.81604,0.81824,0.76081,0.71605,0.73242,0.83788,0.82535,0.75789,0.77102,0.73828,0.73825,0.76503,0.77827,0.75801,0.73698,0.73746,0.74143,0.7216,0.75113,0.76017,0.76969,0.76707,0.77046,0.75325,0.76425,0.77097,0.75883,0.77425,0.76757,0.74686,0.75561,0.75346,0.76246,0.77783,0.75484,0.76219,0.77036,0.78444,0.75267,0.76907,0.77491,0.78073,0.7814,0.78753,0.7437,0.76866,0.80618,0.79458,0.78439,0.77413,0.78134,0.78513,0.78993,0.77269,0.76559,0.77219,0.79224,0.79837,0.78956,0.74831,0.75283,0.77667,0.76987,0.77832,0.78478,0.78291,0.76951,0.79298,0.79109,0.77748,0.77674,0.77653,0.7674,0.79467,0.74693,0.77084,0.77454,0.78682,0.78197,0.7921,0.77277,0.77079,0.77477,0.77613,0.76591,0.77989,0.789,0.78509,0.79529,0.78788,0.78834,0.7735,0.77692,0.7914,0.7736,0.76963,0.78603,0.77949,0.78566,0.76815,0.77655,0.76948,0.7934,0.78888,0.78817,0.79576,0.78615,0.78007,0.81333,0.80303,0.79312,0.75689,0.80283,0.80774,0.80815,0.80133,0.78669,0.77346,0.78184,0.78867,0.80848,0.79855,0.81923,0.84742,0.86315,0.8444,0.83568,0.86142,0.86433,0.89199,0.87307,0.88847,0.91619,0.90643,0.89034,0.82246,0.84332,0.84245,0.81308,0.80741,0.78665,0.80191,0.81143,0.80009,0.81306,0.82121,0.79874,0.78231,0.80252,0.80834,0.80687,0.79368,0.78241,0.75098,0.65206,0.64603,0.65775,0.76381,1.0138,1.3906,1.8235,2.1113,2.2843,2.5185,2.1242,1.4256,0.82209,0.46872,0.43222,0.29362,0.28226,0.37184,0.53014,0.6307,0.74391,0.77065,0.78011,0.78399,0.79007,0.79797,0.80174,0.8097,0.82424,0.79464,0.81901,0.8343,0.80899,0.78202,0.78309,0.8133,0.83016,0.854,0.82824,0.80365,0.81928,0.82595,0.8497,0.81495,0.80899,0.79649,0.84861,0.8317,0.82893,0.83046,0.82872,0.82799,0.79795,0.83099,0.84856,0.8498,0.84013,0.84865,0.83043,0.83389,0.83481,0.82783,0.83635,0.8175,0.83568,0.85088,0.85373,0.86158,0.85713,0.84568,0.83442,0.866,0.85795,0.85603,0.84454,0.89521,0.88055,0.90594,0.9013,0.90374,0.90649,0.93462,0.9325,0.95121,0.93078,0.94608,0.94724,0.93828,0.94787,0.93939,0.91185,0.91353,0.89989,0.92028,0.90353,0.89169,0.87404,0.85766,0.87461,0.85111,0.85782,0.85274,0.91001,0.89045,0.87479,0.85563,0.85102,0.85496,0.85702,0.85415,0.84022,0.84586,0.84485,0.8557,0.87308,0.85446,0.84434,0.86028,0.85388,0.87062,0.8602,0.85887,0.83223,0.87273,0.86578,0.85936,0.85511,0.85071,0.8571,0.83745,0.85697,0.86368,0.82833,0.86196,0.86095,0.85285,0.85052,0.84828,0.85738,0.85847,0.84161,0.84288,0.82945,0.82935,0.87367,0.84521,0.83483,0.83791,0.84223,0.86531,0.82379,0.8229,0.8316,0.83617,0.84408,0.81988,0.81267,0.82664,0.8211,0.84991,0.84329,0.84548,0.8332,0.82749,0.83592,0.81,0.83902,0.81397,0.83274,0.83273,0.84426,0.82558,0.80425,0.82672,0.82854,0.82623,0.81714,0.82823,0.83261,0.83735,0.82803,0.80905,0.80535,0.83289,0.82804,0.82041,0.8154,0.78835,0.78353,0.82746,0.84139,0.83823,0.8449,0.85358,0.85228,0.85703,0.86131,0.87212,0.86585,0.87541,0.90958,0.90687,0.87021,0.82362,0.83539,0.81514,0.7666,0.7619,0.80374,0.78525,0.77971,0.76957,0.78277,0.76717,0.78316,0.78454,0.78269,0.77157,0.7684,0.73086,0.72994,0.66326,0.58967,0.53999,0.53075,0.58478,0.79194,1.1487,1.5713,1.8754,2.046,2.2155,1.9245,1.2759,0.70354,0.48726,0.29556,0.14684,0.12496,0.12476,0.24575,0.34776,0.49364,0.5695,0.61862,0.57975,0.67104,0.63942,0.6423,0.62691,0.64907,0.62513,0.67348,0.64179,0.63596,0.63715,0.68448,0.69066,0.66087,0.68237,0.67836,0.71814,0.71533,0.72208,0.72102,0.71871,0.72672,0.77105,0.75943,0.76031,0.76434,0.7821,0.76597,0.77871,0.79156,0.78503,0.76292,0.83599,0.839,0.79523,0.78418,0.82289,0.8177,0.8271,0.81369,0.8131,0.80695,0.77928,0.794,0.79813,0.81298,0.81308,0.81506,0.82632,0.82498,0.84134,0.84154,0.84305,0.84398,0.83262,0.84583,0.87276,0.86655,0.84435,0.88034,0.88972,0.89023,0.89837,0.88664,0.89738,0.87116,0.89059,0.86918,0.87652,0.84857,0.84724,0.80515,0.84723,0.8649,0.84103,0.8267,0.82948,0.80833,0.80686,0.83269,0.81759,0.82081,0.82264,0.80147,0.81992,0.84197,0.81712,0.83728,0.82759,0.82534,0.84903,0.84152,0.82032,0.82083,0.84769,0.80617,0.81767,0.80864,0.82499,0.85197,0.80031,0.79969,0.82789,0.88295,0.8484,0.81753,0.81136,0.82273,0.85703,0.84122,0.82664,0.77154,0.8112,0.84661,0.85163,0.81206,0.8473,0.83117,0.83189,0.83769,0.8418,0.82393,0.81129,0.82541,0.83982,0.8228,0.81621,0.80541,0.80422,0.81711,0.8286,0.81588,0.80353,0.79949,0.81609,0.81182,0.78135,0.82572,0.80432,0.81657,0.83475,0.85162,0.83636,0.83436,0.8385,0.82654,0.81335,0.79068,0.79696,0.83149,0.83834,0.78486,0.83592,0.81926,0.81964,0.80895,0.81882,0.81974,0.82676,0.84411,0.82773,0.83243,0.81501,0.84254,0.83134,0.87328,0.88061,0.89149,0.86988,0.90783,0.92857,0.94517,0.92458,0.91872,0.96156,0.94428,0.91236,0.89377,0.84889,0.83101,0.82842,0.80793,0.79088,0.78419,0.81021,0.83105,0.81061,0.79549,0.77732,0.80122,0.80161,0.81364,0.76997,0.75501,0.72041,0.69657,0.62995,0.59103,0.61703,0.74761,1.058,1.4621,1.8168,2.0216,2.2361,2.2658,1.6901,1.0546,0.48774,0.26954,0.24121,0.1479,0.16633,0.29484,0.43232,0.5667,0.67378,0.67993,0.68659,0.68965,0.73305,0.7274,0.74135,0.74319,0.7339,0.74102,0.77011,0.74715,0.72792,0.73112,0.72865,0.7376,0.79905,0.7823,0.76453,0.77152,0.77155,0.77639,0.76922,0.77493,0.76581,0.77227,0.78208,0.78606,0.78125,0.76225,0.79335,0.79253,0.78851,0.7986,0.79235,0.78902,0.78049,0.80053,0.79676,0.78623,0.81627,0.8185,0.80677,0.79648,0.80338,0.80359,0.82592,0.84271,0.83456,0.83116,0.83292,0.8454,0.86267,0.85932,0.85419,0.85429,0.85048,0.88852,0.87258,0.83151,0.91041,0.90777,0.92337,0.92469,0.89492,0.91039,0.9156,0.91151,0.894,0.89491,0.88402,0.87491,0.88083,0.8766,0.86992,0.85338,0.86108,0.85369,0.83405,0.84196,0.83118,0.8245,0.84481,0.84057,0.83679,0.82576,0.79931,0.80363,0.83908,0.86099,0.83212,0.83924,0.84003,0.83501,0.82339,0.81478,0.82043,0.84399,0.84392,0.82435,0.81709,0.80773,0.81845,0.81376,0.79442,0.82815,0.83202,0.82621,0.83001,0.82443,0.82313,0.78999,0.81506,0.82432,0.82376,0.82314,0.80472,0.8059,0.80932,0.80917,0.80861,0.8162,0.8032,0.79974,0.80845,0.80468,0.77438,0.81123,0.8142,0.80827,0.79307,0.79651,0.79767,0.78061,0.79301,0.80922,0.81374,0.78371,0.80544,0.77761,0.7805,0.78336,0.76979,0.77256,0.77411,0.76371,0.77046,0.7442,0.74468,0.75359,0.74577,0.72472,0.71876,0.73089,0.70457,0.69537,0.68034,0.66309,0.66557,0.65597,0.68083,0.6624,0.63872,0.64862,0.61778,0.65341,0.6059,0.59095,0.62163,0.64464,0.6725,0.64607,0.64254,0.64451,0.66529,0.69116,0.65637,0.66619,0.65787,0.71048,0.71968,0.69868,0.70223,0.70821,0.73624,0.76523,0.73943,0.71488,0.75607,0.77655,0.77864,0.79691,0.801,0.78525,0.81804,0.80078,0.7684,0.74761,0.7101,0.70642,0.72384,0.70592,0.72444,0.71488,0.71162,0.73233,0.71526,0.72068,0.72515,0.73758,0.7434,0.73271,0.70352,0.69116,0.62861,0.59787,0.58902,0.60467,0.72676,1.0128,1.4437,1.8585,2.1098,2.3142,2.4254,1.9011,1.2562,0.66229,0.39445,0.30178,0.22861,0.32998,0.47614,0.61521,0.72022,0.75595,0.75734,0.78462,0.75623,0.78956,0.7873,0.79166,0.80644,0.7933,0.78045,0.79693,0.80133,0.81432,0.81496,0.80021,0.79851,0.80852,0.78865,0.78244,0.78709,0.79204,0.80854,0.79853,0.79777,0.81658,0.78707,0.81457,0.82944,0.81678,0.7885,0.80318,0.81417,0.80781,0.82641,0.80474,0.79964,0.81465,0.80814,0.80046,0.78873,0.79286,0.85558,0.82663,0.84749,0.84101,0.82375,0.83164,0.84466,0.84154,0.82649,0.82203,0.84287,0.88213,0.84307,0.86629,0.86205,0.86019,0.8783,0.89202,0.83949,0.85584,0.96993,0.92788,0.93627,0.93179,0.92246,0.92277,0.91842,0.92339,0.92259,0.89474,0.90017,0.90426,0.90342,0.89852,0.84282,0.85546,0.86911,0.87121,0.87105,0.87688,0.86401,0.85891,0.85609,0.86701,0.86214,0.87382,0.84401,0.88217,0.88327,0.85783,0.85211,0.84845,0.86831,0.8809,0.88065,0.83125,0.84092,0.89219,0.91117,0.88207,0.85122,0.85607,0.84708,0.8544,0.861,0.82816,0.8327,0.88604,0.84458,0.83323,0.84734,0.82321,0.83128,0.83432,0.80689,0.82595,0.81836,0.8364,0.85168,0.84501,0.81613,0.7996,0.81738,0.83918,0.81278,0.79955,0.79589,0.8226,0.84601,0.81719,0.82457,0.79701,0.81139,0.80504,0.81751,0.79227,0.81935,0.821,0.83171,0.83891,0.80796,0.81697,0.80152,0.81655,0.80588,0.79768,0.82419,0.81698,0.82096,0.81119,0.80935,0.78599,0.80304,0.79587,0.81153,0.80304,0.80386,0.78952,0.79063,0.79766,0.79969,0.78263,0.77641,0.79078,0.79818,0.80505,0.79417,0.78946,0.78442,0.77667,0.79046,0.79374,0.76369,0.76505,0.78712,0.80473,0.78673,0.77973,0.78813,0.79048,0.79186,0.78152,0.77909,0.77256,0.79827,0.82822,0.81934,0.7803,0.80084,0.83982,0.8577,0.84609,0.86216,0.83072,0.84771,0.86731,0.82496,0.81655,0.79662,0.78837,0.74604,0.74214,0.75517,0.74029,0.72578,0.76929,0.74798,0.75212,0.72741,0.7376,0.73775,0.773,0.73972,0.73392,0.7241,0.67495,0.595,0.62468,0.68421,0.77105,1.0923,1.5174,1.8872,2.0616,2.2368,2.2441,1.6909,1.0728,0.60414,0.37662,0.27037,0.23788,0.27464,0.3594,0.50568,0.60812,0.68824,0.72228,0.72138,0.69302,0.7117,0.75558,0.7599,0.74321,0.75736,0.75653,0.77169,0.75081,0.74329,0.73648,0.79004,0.7609,0.77994,0.76455,0.77567,0.75463,0.78049,0.7785,0.74808,0.75882,0.78361,0.79376,0.77849,0.78808,0.78086,0.76929,0.77167,0.78325,0.7815,0.78315,0.77901,0.78688,0.81408,0.79262,0.76929,0.80402,0.83725,0.81627,0.81984,0.80633,0.80968,0.81494,0.82102,0.81975,0.83278,0.82446,0.8381,0.85075,0.82555,0.84516,0.86413,0.86824,0.89327,0.88227,0.86459,0.88625,0.88709,0.8898,0.92988,0.92116,0.91068,0.91647,0.89762,0.90653,0.87606,0.86711,0.89287,0.89489,0.89345,0.86976,0.84221,0.83406,0.82921,0.8565,0.82265,0.81465,0.79923,0.83492,0.82749,0.81235,0.80869,0.81253,0.80585,0.83137,0.81124,0.77342,0.78948,0.83251,0.82291,0.81932,0.79608,0.80815,0.80911,0.8225,0.81055,0.79281,0.79924,0.80363,0.81625,0.81253,0.80514,0.80097,0.7969,0.82272,0.80695,0.78329,0.79165,0.80054,0.79629,0.83417,0.78245,0.80308,0.82537,0.78433,0.80664,0.77735,0.77473,0.78259,0.792,0.7945,0.7827,0.7883,0.76605,0.79643,0.79002,0.77514,0.77314,0.75156,0.7733,0.78678,0.79417,0.77968,0.77699,0.7873,0.79076,0.78277,0.76189,0.75816,0.78266,0.80123,0.7912,0.78423,0.77132,0.75483,0.7735,0.78871,0.76751,0.79411,0.8289,0.81164,0.84414,0.82171,0.80675,0.85132,0.87696,0.87272,0.86146,0.85973,0.85501,0.82,0.82218,0.8006,0.77542,0.73756,0.74873,0.72767,0.76592,0.74269,0.73355,0.7503,0.75664,0.75101,0.74598,0.75351,0.75891,0.76027,0.75941,0.73375,0.68237,0.6103,0.59591,0.63817,0.68776,0.85596,1.2263,1.6585,2.0076,2.133,2.3325,2.1403,1.521,0.9131,0.50898,0.32866,0.22809,0.25222,0.30313,0.45697,0.55553,0.67067,0.70221,0.7265,0.75982,0.75875,0.76104,0.76569,0.76659,0.77118,0.76682,0.75234,0.77785,0.7905,0.79597,0.77946,0.76592,0.77302,0.80595,0.79583,0.79025,0.7779,0.77348,0.79939,0.81706,0.78513,0.78154,0.78389,0.79598,0.82385,0.8094,0.79345,0.80485,0.82357,0.8249,0.82732,0.80284,0.79853,0.84175,0.84505,0.82824,0.81721,0.8107,0.81442,0.82211,0.8422,0.83818,0.84516,0.85499,0.85608,0.84218,0.84077,0.85023,0.8688,0.87818,0.87168,0.86604,0.87862,0.89242,0.91677,0.90769,0.91735,0.91218,0.92844,0.92117,0.91536,0.90964,0.91296,0.91484,0.92994,0.91476,0.89132,0.87122,0.87141,0.87312,0.87266,0.83699,0.86031,0.85505,0.82067,0.8511,0.8175,0.82369,0.81464,0.82017,0.82099,0.81652,0.83378,0.82727,0.83242,0.81332,0.83868,0.81482,0.82086,0.81031,0.83637,0.83369,0.80371,0.83062,0.8225,0.80956,0.83681,0.83535,0.81624,0.82506,0.81832,0.82373,0.82027,0.80413,0.79195,0.82786,0.83728,0.81144,0.80667,0.80491,0.81618,0.81398,0.78401,0.7998,0.78708,0.79653,0.81725,0.79522,0.7457,0.77869,0.83855,0.82082,0.79952,0.78727,0.7744,0.76965,0.79903,0.80716,0.78734,0.78623,0.78056,0.77893,0.79677,0.78187,0.77625,0.78089,0.7962,0.79916,0.78163,0.76099,0.75563,0.7706,0.80931,0.77898,0.7802,0.76872,0.80294,0.78961,0.75357,0.80128,0.81671,0.8392,0.8317,0.85675,0.82871,0.81779,0.84995,0.87071,0.86681,0.85495,0.87752,0.88408,0.8676,0.83496,0.81682,0.80338,0.74866,0.757,0.75448,0.74932,0.74575,0.76899,0.75989,0.76697,0.75128,0.76611,0.75379,0.75814,0.76651,0.76271,0.7612,0.72872,0.65124,0.59747,0.62273,0.66703,0.83005,1.2074,1.631,1.9795,2.1827,2.449,2.2732,1.6382,0.9734,0.49546,0.33688,0.25528,0.23234,0.29153,0.41984,0.57951,0.70359,0.74373,0.72945,0.75047,0.73333,0.74452,0.78528,0.75797,0.77308,0.77114,0.72809,0.74816,0.78363,0.74928,0.78118,0.77853,0.78909,0.77036,0.76385,0.74548,0.75794,0.75932,0.78699,0.76795,0.76346,0.75536,0.74183,0.80496,0.76922,0.75241,0.76348,0.79587,0.78911,0.75206,0.7566,0.77471,0.81377,0.75927,0.80536,0.7914,0.75969,0.77563,0.80022,0.80877,0.76563,0.76111,0.78754,0.82979,0.802,0.75934,0.78978,0.83647,0.8335,0.83286,0.82976,0.83473,0.83892,0.83913,0.89439,0.83227,0.86116,0.86558,0.89879,0.89668,0.8777,0.91763,0.89263,0.89578,0.87477,0.85749,0.85935,0.87669,0.86055,0.85629,0.84654,0.82141,0.80261,0.82291,0.83654,0.84084,0.80966,0.82355,0.83192,0.82888,0.8012,0.84725,0.81988,0.80766,0.82643,0.82433,0.77936,0.81211,0.81924,0.8067,0.81666,0.80832,0.80856,0.83412,0.84734,0.8143,0.83133,0.80221,0.81514,0.78695,0.81793,0.84925,0.81106,0.80653,0.78516,0.82703,0.82634,0.79701,0.79823,0.79333,0.83411,0.81406,0.83162,0.82056,0.83327,0.82665,0.83301,0.79512,0.73868,0.79142,0.80895,0.82476,0.81674,0.79814,0.8086,0.80582,0.7862,0.76581,0.73801,0.79163,0.83685,0.82958,0.82969,0.82077,0.84225,0.84386,0.80685,0.78679,0.81417,0.81163,0.82185,0.77689,0.69842,0.73046,0.76189,0.81067,0.80311,0.82429,0.8673,0.84874,0.83656,0.8346,0.81601,0.8421,0.87683,0.861,0.90637,0.86486,0.84703,0.91713,0.9061,0.91077,0.91478,0.90701,0.93221,0.92018,0.96058,0.93187,0.86961,0.8868,0.87295,0.88359,0.82158,0.74104,0.76557,0.82289,0.87454,0.86667,0.7852,0.74453,0.63236,0.78411,0.81502,0.71415,0.67271,0.65428,0.61697,0.58754,0.45693,0.35917,0.32814,0.4608,0.57567,0.87178,1.2399,1.5242,1.7693,2.1118,1.9289,1.2157,0.57122,0.12772,-0.011395,-0.2207,-0.25739,-0.17449,0.007537,0.16882,0.24398,0.23785,0.20734,0.15538,0.22404,0.30435,0.3212,0.27973,0.27322,0.26748,0.32681,0.30242,0.314,0.28977,0.2878,0.31575,0.35661,0.35102,0.36083,0.34935,0.37906,0.35002,0.38395,0.41531,0.42927,0.43304,0.39712,0.3744,0.44552,0.46693,0.53611,0.55354,0.52198,0.53043,0.54367,0.57496,0.57261,0.57856,0.63878,0.64882,0.64298,0.66497,0.65781,0.64903,0.66799,0.67573,0.65899,0.70446,0.70659,0.71753,0.74653,0.75652,0.78144,0.73978,0.75522,0.76173,0.78587,0.79914,0.81631,0.84729,0.84729,0.84773,0.84127,0.84208,0.82596,0.84031,0.85272,0.872,0.84177,0.85166,0.85557,0.87525,0.83842,0.80245,0.78296,0.78566,0.80767,0.77379,0.76661,0.79655,0.78429,0.81869,0.80126,0.7657,0.7329,0.72853,0.78185,0.83034,0.77727,0.7857,0.78072,0.80409,0.79775,0.77958,0.78499,0.77537,0.79915,0.79433,0.79812,0.78184,0.7843,0.78125,0.78501,0.78318,0.7759,0.78434,0.76767,0.77383,0.77798,0.78436,0.77057,0.79067,0.79615,0.79589,0.75028,0.76367,0.80267,0.82439,0.79196,0.77596,0.79355,0.81318,0.81075,0.79597,0.78186,0.76846,0.7874,0.79901,0.79458,0.79564,0.78777,0.78471,0.79968,0.80598,0.79068,0.78722,0.79228,0.77767,0.81974,0.80742,0.79925,0.78876,0.81715,0.82416,0.80186,0.79113,0.79392,0.8251,0.8425,0.85372,0.85701,0.85424,0.85515,0.87966,0.88492,0.87747,0.90006,0.88616,0.87089,0.89866,0.84377,0.83285,0.80216,0.82843,0.8332,0.79649,0.78471,0.7845,0.82082,0.79634,0.78089,0.78664,0.78892,0.8023,0.79189,0.78845,0.79253,0.79572,0.78027,0.73897,0.66562,0.65203,0.6831,0.83257,0.98973,1.3794,1.7851,2.0841,2.2352,2.3302,1.9693,1.3273,0.78262,0.44807,0.33948,0.2842,0.31217,0.34005,0.50648,0.63253,0.74219,0.74376,0.76969,0.78422,0.81119,0.80517,0.80608,0.78933,0.81607,0.78507,0.80054,0.80558,0.8005,0.81304,0.84459,0.82907,0.82324,0.82847,0.83564,0.82557,0.83303,0.8141,0.84901,0.82248,0.84253,0.84541,0.83466,0.81649,0.82962,0.84502,0.85905,0.85187,0.83347,0.83799,0.85667,0.85539,0.85862,0.84634,0.84582,0.87647,0.8899,0.86919,0.86447,0.87365,0.84955,0.86852,0.86772,0.86574,0.86724,0.89295,0.90178,0.8921,0.88687,0.8973,0.94092,0.92766,0.9264,0.92472,0.93017,0.94527,0.97118,0.96302,0.94135,0.96639,0.951,0.95494,0.97592,0.95894,0.93331,0.93619,0.935,0.93682,0.89886,0.88621,0.89092,0.88006,0.88079,0.87527,0.86515,0.87009,0.85787,0.86243,0.83476,0.86419,0.84674,0.8514,0.86233,0.86725,0.84647,0.85247,0.85145,0.86332,0.8594,0.84735,0.84232,0.84055,0.8612,0.86892,0.84957,0.83294,0.84898,0.86293,0.84396,0.85517,0.84362,0.84105,0.8482,0.85967,0.85616,0.84053,0.83671,0.84325,0.83618,0.84891,0.8476,0.83364,0.8447,0.85499,0.8242,0.81325,0.81445,0.84423,0.83895,0.85175,0.8234,0.81842,0.83883,0.83245,0.83456,0.82795,0.81735,0.81075,0.82639,0.8254,0.82364,0.78822,0.81759,0.83584,0.83054,0.7917,0.79472,0.78438,0.82091,0.86502,0.86954,0.86194,0.84877,0.85501,0.86779,0.88983,0.88511,0.9066,0.89569,0.89544,0.86798,0.83558,0.82583,0.81397,0.77038,0.76861,0.75621,0.75136,0.73329,0.78252,0.7929,0.77357,0.77391,0.75788,0.77585,0.7902,0.78116,0.76171,0.77837,0.77419,0.73437,0.64405,0.62117,0.63304,0.77057,1.0497,1.4522,1.873,2.1365,2.303,2.4231,2.2159,1.5888,0.95107,0.53485,0.37786,0.28157,0.27297,0.35651,0.53793,0.69066,0.75279,0.79371,0.75771,0.77858,0.78743,0.82963,0.81022,0.8017,0.81456,0.82528,0.80988,0.81624,0.81299,0.82127,0.82329,0.82895,0.77781,0.79638,0.79819,0.82042,0.81787,0.81106,0.79724,0.80136,0.81074,0.81716,0.81682,0.78432,0.80542,0.80101,0.81532,0.81549,0.7922,0.78625,0.8044,0.82998,0.8218,0.8019,0.80218,0.81633,0.81199,0.79793,0.80779,0.80099,0.806,0.85437,0.82892,0.8052,0.83549,0.86022,0.86199,0.85437,0.8492,0.85196,0.86049,0.86721,0.8864,0.85862,0.87376,0.90817,0.92536,0.92945,0.9152,0.9086,0.89723,0.935,0.92237,0.89013,0.89674,0.89187,0.89911,0.90934,0.88922,0.86317,0.86241,0.85869,0.85026,0.80571,0.84435,0.82755,0.86382,0.85768,0.83259,0.81995,0.81813,0.84416,0.8276,0.82959,0.82572,0.81721,0.81979,0.82538,0.82981,0.81617,0.81469,0.82739,0.80787,0.80367,0.77441,0.78373,0.80382,0.84933,0.84655,0.81166,0.80011,0.81262,0.8297,0.82262,0.80608,0.77846,0.79497,0.80137,0.80848,0.81225,0.79148,0.79598,0.80744,0.79246,0.79231,0.79248,0.79462,0.79166,0.79778,0.79495,0.78173,0.79253,0.77,0.78562,0.83124,0.76338,0.76569,0.81942,0.82019,0.7775,0.79822,0.80621,0.7933,0.80645,0.81203,0.78127,0.81309,0.80243,0.79719,0.83384,0.78348,0.79182,0.79987,0.79816,0.80917,0.79757,0.80589,0.79995,0.82078,0.82949,0.79897,0.79141,0.81606,0.83722,0.83032,0.84014,0.8461,0.83973,0.88543,0.91051,0.88206,0.89454,0.87576,0.88146,0.87167,0.85784,0.86687,0.80763,0.78782,0.79301,0.76035,0.76251,0.76589,0.75762,0.7796,0.78453,0.74806,0.77045,0.76849,0.77004,0.77298,0.75432,0.7556,0.73923,0.72406,0.6665,0.61272,0.63106,0.66395,0.85391,1.2415,1.6308,2.0105,2.1725,2.4267,2.2294,1.5858,0.96529,0.4914,0.35271,0.23819,0.23864,0.33939,0.47845,0.62043,0.70321,0.74454,0.75486,0.72084,0.7376,0.77518,0.77284,0.75883,0.74813,0.77129,0.78213,0.77698,0.76555,0.74611,0.79035,0.76492,0.80902,0.76129,0.78452,0.76189,0.78459,0.79198,0.78652,0.79189,0.76897,0.78399,0.7828,0.76646,0.78164,0.80196,0.78573,0.82101,0.7916,0.76954,0.79857,0.79925,0.81833,0.80004,0.79034,0.81515,0.79894,0.81942,0.80525,0.81241,0.7905,0.80687,0.83299,0.83172,0.82078,0.83161,0.81301,0.83169,0.84767,0.82379,0.79644,0.84949,0.89419,0.89364,0.88114,0.87093,0.85762,0.89056,0.91371,0.89824,0.90346,0.90264,0.91933,0.89553,0.90338,0.85943,0.87303,0.85508,0.86419,0.89535,0.85208,0.8386,0.85004,0.83886,0.84137,0.83396,0.83506,0.84593,0.84391,0.82565,0.80217,0.80597,0.83549,0.83891,0.8311,0.82103,0.79957,0.82406,0.82199,0.82785,0.78226,0.80836,0.81957,0.81721,0.80809,0.82331,0.81,0.80411,0.82334,0.82409,0.79988,0.79437,0.78759,0.77281,0.82094,0.78795,0.79971,0.77327,0.82072,0.81789,0.77534,0.80029,0.78006,0.78276,0.78688,0.79775,0.7677,0.76887,0.77632,0.7926,0.80872,0.78081,0.76744,0.76737,0.77539,0.77311,0.74705,0.76445,0.76649,0.81473,0.78443,0.75683,0.76537,0.74853,0.78255,0.76251,0.74472,0.76942,0.76454,0.7839,0.80118,0.76626,0.75837,0.76327,0.78455,0.80762,0.80915,0.82147,0.82725,0.79186,0.82119,0.83846,0.85077,0.83924,0.8854,0.88019,0.84334,0.80584,0.78789,0.78295,0.79394,0.73609,0.72524,0.73496,0.72575,0.75172,0.725,0.71378,0.72754,0.72951,0.74014,0.72453,0.72838,0.71323,0.71474,0.74994,0.71287,0.65547,0.57612,0.59536,0.60004,0.74124,1.0091,1.4345
