-20.344,-20.337,-20.354,-20.35,-20.346,-20.324,-20.337,-20.33,-20.333,-20.317,-20.318,-20.312,-20.322,-20.313,-20.309,-20.295,-20.297,-20.295,-20.295,-20.279,-20.272,-20.271,-20.275,-20.261,-20.257,-20.244,-20.244,-20.242,-20.239,-20.222,-20.198,-20.196,-20.192,-20.181,-20.168,-20.147,-20.141,-20.131,-20.118,-20.098,-20.072,-20.069,-20.064,-20.051,-20.034,-20.005,-19.988,-19.981,-19.973,-19.96,-19.936,-19.919,-19.919,-19.918,-19.904,-19.894,-19.901,-19.923,-19.944,-19.964,-19.977,-20.01,-20.028,-20.072,-20.103,-20.143,-20.171,-20.21,-20.242,-20.272,-20.28,-20.287,-20.305,-20.33,-20.338,-20.338,-20.337,-20.337,-20.351,-20.35,-20.339,-20.338,-20.341,-20.349,-20.345,-20.344,-20.33,-20.323,-20.333,-20.333,-20.336,-20.327,-20.324,-20.328,-20.333,-20.33,-20.322,-20.328,-20.335,-20.34,-20.337,-20.328,-20.325,-20.33,-20.346,-20.343,-20.337,-20.339,-20.338,-20.351,-20.349,-20.345,-20.347,-20.349,-20.362,-20.365,-20.354,-20.36,-20.364,-20.373,-20.374,-20.375,-20.37,-20.375,-20.379,-20.377,-20.361,-20.356,-20.35,-20.352,-20.349,-20.336,-20.323,-20.293,-20.277,-20.26,-20.257,-20.271,-20.296,-20.319,-20.328,-20.329,-20.327,-20.345,-20.369,-20.397,-20.4,-20.399,-20.406,-20.413,-20.418,-20.415,-20.407,-20.414,-20.416,-20.424,-20.423,-20.41,-20.42,-20.423,-20.42,-20.419,-20.417,-20.413,-20.415,-20.423,-20.418,-20.421,-20.451,-20.502,-20.517,-20.405,-20.19,-19.929,-19.636,-19.266,-19.1,-19.175,-19.59,-20.043,-20.451,-20.568,-20.534,-20.492,-20.397,-20.376,-20.346,-20.364,-20.347,-20.364,-20.361,-20.371,-20.35,-20.354,-20.346,-20.367,-20.356,-20.354,-20.334,-20.339,-20.341,-20.341,-20.336,-20.325,-20.313,-20.322,-20.316,-20.318,-20.299,-20.296,-20.296,-20.305,-20.296,-20.286,-20.272,-20.27,-20.265,-20.254,-20.239,-20.228,-20.226,-20.219,-20.208,-20.198,-20.179,-20.166,-20.165,-20.146,-20.128,-20.108,-20.088,-20.08,-20.066,-20.043,-20.017,-20.003,-20.007,-19.986,-19.975,-19.952,-19.952,-19.954,-19.952,-19.948,-19.941,-19.942,-19.976,-19.995,-20.029,-20.044,-20.084,-20.12,-20.168,-20.197,-20.221,-20.246,-20.281,-20.311,-20.322,-20.331,-20.345,-20.357,-20.372,-20.373,-20.376,-20.372,-20.381,-20.386,-20.394,-20.383,-20.376,-20.378,-20.395,-20.386,-20.373,-20.371,-20.374,-20.383,-20.375,-20.366,-20.368,-20.37,-20.38,-20.37,-20.361,-20.348,-20.35,-20.36,-20.367,-20.369,-20.361,-20.361,-20.375,-20.37,-20.361,-20.358,-20.36,-20.371,-20.381,-20.377,-20.37,-20.367,-20.373,-20.388,-20.388,-20.382,-20.39,-20.395,-20.404,-20.393,-20.394,-20.391,-20.399,-20.409,-20.398,-20.391,-20.393,-20.403,-20.411,-20.408,-20.396,-20.406,-20.41,-20.415,-20.408,-20.409,-20.411,-20.409,-20.419,-20.421,-20.412,-20.407,-20.408,-20.418,-20.417,-20.407,-20.411,-20.414,-20.426,-20.423,-20.414,-20.415,-20.411,-20.422,-20.426,-20.419,-20.4,-20.401,-20.404,-20.41,-20.401,-20.381,-20.37,-20.365,-20.364,-20.343,-20.292,-20.309,-20.344,-20.371,-20.371,-20.354,-20.355,-20.375,-20.388,-20.396,-20.408,-20.416,-20.441,-20.456,-20.458,-20.451,-20.451,-20.457,-20.466,-20.464,-20.457,-20.458,-20.458,-20.466,-20.466,-20.46,-20.453,-20.453,-20.461,-20.466,-20.461,-20.476,-20.522,-20.565,-20.495,-20.33,-20.091,-19.851,-19.561,-19.184,-19.125,-19.43,-19.898,-20.313,-20.552,-20.571,-20.523,-20.451,-20.384,-20.38,-20.383,-20.396,-20.392,-20.403,-20.402,-20.404,-20.391,-20.388,-20.387,-20.393,-20.376,-20.371,-20.364,-20.372,-20.364,-20.367,-20.355,-20.348,-20.339,-20.355,-20.34,-20.335,-20.315,-20.317,-20.317,-20.31,-20.293,-20.283,-20.273,-20.28,-20.26,-20.252,-20.237,-20.231,-20.226,-20.211,-20.199,-20.182,-20.167,-20.162,-20.147,-20.127,-20.104,-20.081,-20.073,-20.066,-20.039,-20.009,-19.991,-19.983,-19.977,-19.957,-19.934,-19.923,-19.923,-19.914,-19.912,-19.9,-19.905,-19.908,-19.936,-19.953,-19.969,-19.998,-20.033,-20.072,-20.116,-20.138,-20.179,-20.217,-20.254,-20.275,-20.288,-20.308,-20.324,-20.347,-20.353,-20.35,-20.354,-20.356,-20.372,-20.369,-20.37,-20.363,-20.364,-20.372,-20.382,-20.367,-20.364,-20.354,-20.372,-20.373,-20.363,-20.358,-20.362,-20.362,-20.365,-20.367,-20.362,-20.358,-20.367,-20.376,-20.368,-20.346,-20.364,-20.368,-20.378,-20.37,-20.373,-20.382,-20.386,-20.384,-20.374,-20.365,-20.375,-20.394,-20.396,-20.385,-20.384,-20.395,-20.408,-20.407,-20.432,-20.4,-20.365,-20.393,-20.416,-20.407,-20.412,-20.4,-20.391,-20.408,-20.395,-20.408,-20.411,-20.403,-20.413,-20.426,-20.412,-20.404,-20.391,-20.432,-20.428,-20.419,-20.439,-20.423,-20.416,-20.431,-20.434,-20.406,-20.421,-20.447,-20.442,-20.433,-20.419,-20.442,-20.459,-20.465,-20.448,-20.436,-20.437,-20.452,-20.447,-20.462,-20.45,-20.452,-20.461,-20.465,-20.485,-20.465,-20.457,-20.462,-20.462,-20.451,-20.446,-20.422,-20.426,-20.432,-20.401,-20.384,-20.366,-20.35,-20.372,-20.405,-20.423,-20.383,-20.402,-20.424,-20.438,-20.448,-20.432,-20.473,-20.489,-20.498,-20.512,-20.506,-20.505,-20.494,-20.514,-20.516,-20.502,-20.481,-20.488,-20.508,-20.477,-20.463,-20.501,-20.518,-20.521,-20.494,-20.48,-20.511,-20.523,-20.558,-20.582,-20.555,-20.502,-20.286,-20.078,-19.804,-19.44,-19.164,-19.17,-19.608,-20.052,-20.393,-20.551,-20.576,-20.499,-20.481,-20.366,-20.373,-20.463,-20.422,-20.449,-20.448,-20.407,-20.425,-20.444,-20.442,-20.397,-20.422,-20.418,-20.4,-20.412,-20.439,-20.415,-20.394,-20.368,-20.354,-20.4,-20.375,-20.374,-20.375,-20.384,-20.37,-20.388,-20.331,-20.353,-20.353,-20.341,-20.334,-20.304,-20.275,-20.28,-20.328,-20.296,-20.297,-20.259,-20.25,-20.229,-20.193,-20.24,-20.191,-20.157,-20.14,-20.155,-20.142,-20.11,-20.093,-20.105,-20.056,-20.032,-20.017,-20.038,-20.032,-20.005,-19.994,-20,-19.993,-20.009,-20.007,-20.01,-20.068,-20.075,-20.109,-20.148,-20.155,-20.162,-20.268,-20.279,-20.332,-20.337,-20.33,-20.35,-20.419,-20.412,-20.388,-20.435,-20.408,-20.463,-20.43,-20.4,-20.446,-20.442,-20.461,-20.454,-20.414,-20.424,-20.433,-20.433,-20.464,-20.456,-20.443,-20.422,-20.435,-20.459,-20.455,-20.443,-20.447,-20.462,-20.476,-20.471,-20.455,-20.452,-20.513,-20.514,-20.492,-20.491,-20.506,-20.495,-20.475,-20.5,-20.492,-20.43,-20.457,-20.496,-20.488,-20.501,-20.487,-20.472,-20.459,-20.476,-20.508,-20.481,-20.465,-20.489,-20.494,-20.451,-20.465,-20.483,-20.465,-20.48,-20.463,-20.462,-20.43,-20.448,-20.464,-20.449,-20.445,-20.424,-20.422,-20.446,-20.428,-20.407,-20.423,-20.422,-20.357,-20.347,-20.327,-20.331,-20.372,-20.376,-20.362,-20.367,-20.391,-20.422,-20.418,-20.388,-20.423,-20.454,-20.468,-20.437,-20.462,-20.479,-20.457,-20.455,-20.44,-20.472,-20.482,-20.466,-20.493,-20.455,-20.44,-20.458,-20.471,-20.48,-20.463,-20.483,-20.492,-20.468,-20.52,-20.575,-20.572,-20.435,-20.248,-20.112,-19.856,-19.513,-19.226,-19.161,-19.442,-19.888,-20.322,-20.563,-20.564,-20.521,-20.467,-20.444,-20.418,-20.415,-20.424,-20.424,-20.415,-20.433,-20.426,-20.416,-20.426,-20.403,-20.432,-20.393,-20.399,-20.4,-20.404,-20.396,-20.395,-20.382,-20.383,-20.388,-20.377,-20.361,-20.325,-20.37,-20.357,-20.347,-20.341,-20.332,-20.333,-20.319,-20.314,-20.304,-20.292,-20.29,-20.287,-20.283,-20.263,-20.25,-20.243,-20.23,-20.218,-20.188,-20.172,-20.159,-20.156,-20.146,-20.122,-20.115,-20.096,-20.083,-20.074,-20.054,-20.038,-20.03,-20.03,-20.023,-20.02,-20.009,-20.005,-20.029,-20.052,-20.078,-20.096,-20.123,-20.178,-20.204,-20.222,-20.235,-20.262,-20.297,-20.32,-20.347,-20.351,-20.369,-20.389,-20.399,-20.395,-20.395,-20.399,-20.41,-20.412,-20.424,-20.401,-20.415,-20.421,-20.424,-20.417,-20.412,-20.41,-20.407,-20.422,-20.426,-20.408,-20.414,-20.416,-20.418,-20.418,-20.406,-20.406,-20.41,-20.415,-20.407,-20.398,-20.406,-20.414,-20.422,-20.422,-20.427,-20.412,-20.414,-20.415,-20.425,-20.414,-20.409,-20.408,-20.413,-20.421,-20.416,-20.399,-20.399,-20.406,-20.395,-20.364,-20.327,-20.311,-20.318,-20.333,-20.344,-20.354,-20.362,-20.385,-20.399,-20.408,-20.43,-20.442,-20.456,-20.478,-20.481,-20.47,-20.464,-20.473,-20.484,-20.482,-20.462,-20.48,-20.49,-20.493,-20.494,-20.485,-20.484,-20.48,-20.491,-20.489,-20.482,-20.478,-20.48,-20.495,-20.525,-20.579,-20.583,-20.478,-20.286,-20.026,-19.696,-19.322,-19.135,-19.209,-19.39,-19.84,-20.262,-20.57,-20.594,-20.55,-20.487,-20.41,-20.397,-20.405,-20.426,-20.417,-20.418,-20.403,-20.413,-20.412,-20.412,-20.396,-20.406,-20.39,-20.398,-20.397,-20.389,-20.386,-20.392,-20.401,-20.396,-20.382,-20.381,-20.376,-20.384,-20.378,-20.362,-20.364,-20.364,-20.36,-20.353,-20.332,-20.322,-20.315,-20.319,-20.316,-20.298,-20.282,-20.284,-20.27,-20.261,-20.242,-20.22,-20.214,-20.198,-20.18,-20.154,-20.142,-20.119,-20.116,-20.108,-20.087,-20.073,-20.067,-20.06,-20.05,-20.044,-20.03,-20.026,-20.031,-20.045,-20.059,-20.071,-20.098,-20.128,-20.165,-20.197,-20.221,-20.259,-20.295,-20.326,-20.359,-20.366,-20.389,-20.4,-20.423,-20.431,-20.43,-20.432,-20.444,-20.463,-20.467,-20.458,-20.459,-20.457,-20.47,-20.468,-20.468,-20.463,-20.47,-20.473,-20.464,-20.457,-20.45,-20.447,-20.452,-20.455,-20.45,-20.441,-20.44,-20.446,-20.448,-20.442,-20.429,-20.432,-20.446,-20.44,-20.442,-20.429,-20.437,-20.449,-20.454,-20.453,-20.446,-20.446,-20.453,-20.466,-20.458,-20.451,-20.447,-20.454,-20.471,-20.469,-20.459,-20.461,-20.456,-20.464,-20.456,-20.45,-20.443,-20.442,-20.442,-20.438,-20.405,-20.388,-20.365,-20.361,-20.364,-20.38,-20.403,-20.409,-20.429,-20.433,-20.436,-20.449,-20.473,-20.506,-20.508,-20.5,-20.503,-20.498,-20.506,-20.514,-20.51,-20.502,-20.508,-20.521,-20.525,-20.517,-20.508,-20.508,-20.524,-20.524,-20.519,-20.504,-20.515,-20.551,-20.616,-20.595,-20.46,-20.258,-20.015,-19.727,-19.328,-19.191,-19.153,-19.478,-19.96,-20.363,-20.622,-20.61,-20.553,-20.503,-20.468,-20.439,-20.454,-20.456,-20.467,-20.457,-20.453,-20.442,-20.457,-20.46,-20.46,-20.445,-20.435,-20.433,-20.446,-20.441,-20.434,-20.412,-20.418,-20.419,-20.422,-20.413,-20.402,-20.394,-20.403,-20.4,-20.387,-20.376,-20.381,-20.368,-20.363,-20.357,-20.345,-20.335,-20.334,-20.336,-20.33,-20.299,-20.286,-20.281,-20.275,-20.254,-20.224,-20.214,-20.203,-20.192,-20.174,-20.143,-20.129,-20.117,-20.103,-20.102,-20.075,-20.061,-20.052,-20.061,-20.049,-20.043,-20.039,-20.046,-20.07,-20.086,-20.101,-20.13,-20.163,-20.214,-20.247,-20.268,-20.294,-20.334,-20.363,-20.379,-20.397,-20.409,-20.421,-20.442,-20.454,-20.459,-20.447,-20.458,-20.456,-20.474,-20.466,-20.457,-20.456,-20.473,-20.469,-20.469,-20.463,-20.455,-20.464,-20.466,-20.463,-20.456,-20.448,-20.453,-20.455,-20.453,-20.452,-20.445,-20.44,-20.451,-20.448,-20.436,-20.433,-20.441,-20.449,-20.446,-20.442,-20.438,-20.452,-20.46,-20.445,-20.451,-20.451,-20.448,-20.459,-20.467,-20.466,-20.456,-20.454,-20.463,-20.469,-20.463,-20.446,-20.44,-20.45,-20.437,-20.428,-20.416,-20.402,-20.393,-20.37,-20.352,-20.35,-20.373,-20.404,-20.407,-20.422,-20.418,-20.431,-20.465,-20.49,-20.494,-20.492,-20.496,-20.504,-20.504,-20.504,-20.494,-20.496,-20.497,-20.515,-20.521,-20.507,-20.498,-20.499,-20.52,-20.514,-20.51,-20.509,-20.508,-20.513,-20.511,-20.52,-20.565,-20.608,-20.555,-20.387,-20.155,-19.877,-19.717,-19.334,-19.137,-19.266,-19.69,-20.141,-20.519,-20.631,-20.578,-20.516,-20.441,-20.44,-20.427,-20.456,-20.427,-20.453,-20.429,-20.456,-20.444,-20.446,-20.425,-20.447,-20.438,-20.443,-20.414,-20.42,-20.411,-20.431,-20.407,-20.402,-20.394,-20.405,-20.401,-20.402,-20.379,-20.379,-20.366,-20.371,-20.364,-20.352,-20.34,-20.346,-20.339,-20.341,-20.322,-20.307,-20.295,-20.293,-20.286,-20.273,-20.241,-20.236,-20.232,-20.217,-20.188,-20.163,-20.153,-20.137,-20.129,-20.108,-20.098,-20.078,-20.067,-20.063,-20.053,-20.026,-20.022,-20.015,-20.023,-20.024,-20.03,-20.05,-20.085,-20.117,-20.145,-20.165,-20.204,-20.242,-20.286,-20.309,-20.325,-20.333,-20.37,-20.393,-20.41,-20.41,-20.419,-20.429,-20.443,-20.449,-20.444,-20.438,-20.446,-20.45,-20.455,-20.441,-20.442,-20.441,-20.449,-20.447,-20.448,-20.427,-20.437,-20.437,-20.434,-20.432,-20.424,-20.422,-20.432,-20.428,-20.429,-20.422,-20.424,-20.429,-20.431,-20.425,-20.422,-20.419,-20.431,-20.437,-20.437,-20.426,-20.432,-20.437,-20.451,-20.448,-20.449,-20.443,-20.445,-20.459,-20.46,-20.443,-20.44,-20.453,-20.465,-20.459,-20.457,-20.452,-20.464,-20.467,-20.462,-20.462,-20.454,-20.451,-20.47,-20.464,-20.46,-20.456,-20.46,-20.467,-20.467,-20.46,-20.453,-20.455,-20.46,-20.464,-20.459,-20.449,-20.453,-20.465,-20.472,-20.469,-20.461,-20.46,-20.46,-20.465,-20.459,-20.456,-20.456,-20.459,-20.474,-20.459,-20.455,-20.459,-20.468,-20.472,-20.463,-20.456,-20.456,-20.469,-20.474,-20.465,-20.464,-20.462,-20.461,-20.471,-20.465,-20.467,-20.456,-20.455,-20.459,-20.474,-20.465,-20.461,-20.464,-20.476,-20.469,-20.469,-20.463,-20.471,-20.469,-20.476,-20.472,-20.462,-20.465,-20.473,-20.469,-20.472,-20.46,-20.467,-20.465,-20.467,-20.469,-20.461,-20.46,-20.465,-20.467,-20.463,-20.452,-20.453,-20.453,-20.467,-20.467,-20.458,-20.449,-20.452,-20.452,-20.455,-20.448,-20.435,-20.434,-20.435,-20.423,-20.402,-20.373,-20.365,-20.393,-20.409,-20.402,-20.398,-20.398,-20.421,-20.432,-20.429,-20.43,-20.45,-20.466,-20.482,-20.478,-20.477,-20.477,-20.484,-20.489,-20.487,-20.473,-20.48,-20.487,-20.49,-20.484,-20.473,-20.478,-20.485,-20.488,-20.487,-20.474,-20.472,-20.488,-20.519,-20.576,-20.572,-20.467,-20.285,-20.061,-19.792,-19.37,-19.123,-19.22,-19.612,-20.04,-20.416,-20.544,-20.555,-20.51,-20.434,-20.405,-20.387,-20.421,-20.418,-20.431,-20.419,-20.43,-20.406,-20.426,-20.414,-20.413,-20.397,-20.408,-20.403,-20.398,-20.388,-20.386,-20.382,-20.396,-20.384,-20.386,-20.363,-20.362,-20.366,-20.366,-20.351,-20.347,-20.342,-20.344,-20.34,-20.337,-20.308,-20.307,-20.306,-20.311,-20.29,-20.279,-20.264,-20.261,-20.261,-20.245,-20.226,-20.205,-20.198,-20.193,-20.172,-20.142,-20.124,-20.114,-20.106,-20.089,-20.069,-20.051,-20.035,-20.033,-20.025,-20.015,-20.001,-19.98,-19.99,-19.988,-19.991,-19.993,-20.014,-20.041,-20.072,-20.09,-20.122,-20.154,-20.199,-20.239,-20.27,-20.294,-20.323,-20.355,-20.375,-20.374,-20.382,-20.395,-20.411,-20.422,-20.415,-20.406,-20.417,-20.416,-20.43,-20.417,-20.417,-20.418,-20.42,-20.422,-20.419,-20.405,-20.412,-20.409,-20.42,-20.42,-20.405,-20.401,-20.402,-20.415,-20.419,-20.404,-20.397,-20.405,-20.416,-20.412,-20.409,-20.41,-20.411,-20.414,-20.421,-20.418,-20.417,-20.419,-20.419,-20.427,-20.42,-20.413,-20.417,-20.432,-20.439,-20.437,-20.425,-20.425,-20.439,-20.435,-20.434,-20.427,-20.429,-20.439,-20.445,-20.442,-20.432,-20.439,-20.438,-20.445,-20.45,-20.437,-20.439,-20.437,-20.447,-20.447,-20.448,-20.438,-20.448,-20.454,-20.455,-20.439,-20.441,-20.443,-20.451,-20.457,-20.448,-20.446,-20.445,-20.454,-20.455,-20.455,-20.441,-20.449,-20.451,-20.452,-20.452,-20.446,-20.443,-20.458,-20.459,-20.458,-20.449,-20.456,-20.454,-20.457,-20.456,-20.447,-20.454,-20.453,-20.46,-20.457,-20.45,-20.45,-20.454,-20.468,-20.456,-20.451,-20.438,-20.432,-20.441,-20.448,-20.435,-20.429,-20.428,-20.418,-20.412,-20.381,-20.341,-20.337,-20.362,-20.378,-20.391,-20.385,-20.387,-20.405,-20.417,-20.414,-20.417,-20.441,-20.461,-20.478,-20.471,-20.47,-20.47,-20.487,-20.479,-20.47,-20.474,-20.472,-20.483,-20.49,-20.482,-20.476,-20.472,-20.477,-20.48,-20.482,-20.472,-20.472,-20.472,-20.483,-20.492,-20.519,-20.574,-20.562,-20.432,-20.216,-19.966,-19.823,-19.474,-19.153,-19.153,-19.489,-19.939,-20.339,-20.581,-20.55,-20.471,-20.406,-20.393,-20.403,-20.417,-20.402,-20.417,-20.41,-20.432,-20.413,-20.405,-20.399,-20.405,-20.407,-20.412,-20.401,-20.386,-20.384,-20.395,-20.393,-20.384,-20.371,-20.374,-20.374,-20.38,-20.366,-20.361,-20.354,-20.354,-20.351,-20.344,-20.333,-20.325,-20.325,-20.33,-20.314,-20.297,-20.282,-20.277,-20.28,-20.267,-20.25,-20.234,-20.224,-20.22,-20.199,-20.168,-20.161,-20.143,-20.139,-20.12,-20.106,-20.094,-20.086,-20.075,-20.058,-20.036,-20.022,-20.021,-20.013,-20.015,-20.001,-20.002,-20.009,-20.033,-20.065,-20.086,-20.111,-20.152,-20.195,-20.231,-20.249,-20.266,-20.297,-20.339,-20.37,-20.385,-20.397,-20.407,-20.436,-20.448,-20.453,-20.442,-20.45,-20.455,-20.463,-20.455,-20.446,-20.45,-20.455,-20.458,-20.458,-20.451,-20.442,-20.445,-20.459,-20.453,-20.445,-20.441,-20.442,-20.45,-20.445,-20.443,-20.437,-20.442,-20.456,-20.448,-20.44,-20.439,-20.447,-20.453,-20.451,-20.452,-20.445,-20.447,-20.454,-20.46,-20.462,-20.448,-20.456,-20.467,-20.473,-20.466,-20.46,-20.461,-20.472,-20.473,-20.47,-20.465,-20.475,-20.484,-20.488,-20.484,-20.476,-20.473,-20.479,-20.484,-20.486,-20.479,-20.474,-20.48,-20.487,-20.485,-20.481,-20.476,-20.477,-20.493,-20.494,-20.485,-20.48,-20.491,-20.502,-20.498,-20.49,-20.486,-20.489,-20.489,-20.496,-20.489,-20.488,-20.486,-20.491,-20.497,-20.494,-20.493,-20.485,-20.498,-20.504,-20.49,-20.491,-20.491,-20.496,-20.507,-20.494,-20.492,-20.491,-20.499,-20.505,-20.503,-20.49,-20.493,-20.498,-20.504,-20.505,-20.493,-20.493,-20.502,-20.505,-20.501,-20.491,-20.493,-20.495,-20.506,-20.506,-20.5,-20.495,-20.49,-20.51,-20.513,-20.493,-20.495,-20.496,-20.506,-20.504,-20.49,-20.486,-20.482,-20.488,-20.488,-20.471,-20.463,-20.453,-20.443,-20.438,-20.407,-20.358,-20.381,-20.406,-20.443,-20.439,-20.429,-20.447,-20.458,-20.468,-20.475,-20.486,-20.51,-20.522,-20.531,-20.537,-20.528,-20.525,-20.525,-20.54,-20.542,-20.529,-20.528,-20.531,-20.535,-20.545,-20.525,-20.526,-20.525,-20.545,-20.55,-20.568,-20.622,-20.604,-20.474,-20.265,-20.136,-19.877,-19.517,-19.249,-19.252,-19.618,-20.042,-20.456,-20.649,-20.627,-20.54,-20.482,-20.442,-20.464,-20.474,-20.472,-20.465,-20.466,-20.475,-20.473,-20.472,-20.459,-20.464,-20.461,-20.457,-20.457,-20.44,-20.437,-20.44,-20.446,-20.434,-20.419,-20.426,-20.421,-20.423,-20.419,-20.399,-20.4,-20.393,-20.392,-20.393,-20.38,-20.371,-20.368,-20.371,-20.361,-20.346,-20.331,-20.328,-20.324,-20.305,-20.29,-20.272,-20.254,-20.258,-20.245,-20.219,-20.198,-20.19,-20.179,-20.167,-20.144,-20.123,-20.105,-20.098,-20.094,-20.077,-20.056,-20.045,-20.046,-20.035,-20.028,-20.022,-20.022,-20.046,-20.065,-20.088,-20.107,-20.144,-20.188,-20.211,-20.242,-20.275,-20.303,-20.337,-20.375,-20.399,-20.404,-20.422,-20.435,-20.46,-20.46,-20.462,-20.463,-20.467,-20.481,-20.477,-20.466,-20.461,-20.459,-20.466,-20.468,-20.463,-20.453,-20.451,-20.467,-20.462,-20.456,-20.447,-20.444,-20.454,-20.463,-20.455,-20.445,-20.452,-20.456,-20.461,-20.452,-20.446,-20.453,-20.453,-20.468,-20.462,-20.454,-20.455,-20.459,-20.466,-20.466,-20.462,-20.466,-20.469,-20.477,-20.477,-20.47,-20.472,-20.478,-20.484,-20.483,-20.477,-20.474,-20.472,-20.486,-20.491,-20.486,-20.478,-20.481,-20.496,-20.494,-20.485,-20.48,-20.491,-20.493,-20.499,-20.487,-20.484,-20.492,-20.491,-20.497,-20.493,-20.488,-20.488,-20.495,-20.501,-20.491,-20.489,-20.494,-20.5,-20.508,-20.504,-20.491,-20.492,-20.503,-20.499,-20.502,-20.488,-20.495,-20.503,-20.498,-20.498,-20.488,-20.493,-20.497,-20.506,-20.51,-20.498,-20.496,-20.504,-20.509,-20.511,-20.499,-20.501,-20.509,-20.513,-20.519,-20.505,-20.503,-20.507,-20.518,-20.515,-20.509,-20.502,-20.507,-20.514,-20.514,-20.507,-20.498,-20.506,-20.519,-20.507,-20.496,-20.489,-20.491,-20.496,-20.486,-20.473,-20.45,-20.442,-20.414,-20.394,-20.397,-20.397,-20.426,-20.451,-20.456,-20.453,-20.458,-20.457,-20.483,-20.506,-20.525,-20.524,-20.524,-20.536,-20.545,-20.549,-20.536,-20.534,-20.538,-20.553,-20.547,-20.542,-20.54,-20.542,-20.554,-20.561,-20.547,-20.545,-20.555,-20.601,-20.645,-20.596,-20.449,-20.229,-19.968,-19.652,-19.33,-19.27,-19.514,-19.962,-20.382,-20.57,-20.67,-20.638,-20.562,-20.522,-20.477,-20.465,-20.477,-20.482,-20.491,-20.485,-20.477,-20.481,-20.482,-20.488,-20.477,-20.466,-20.46,-20.464,-20.466,-20.465,-20.454,-20.447,-20.446,-20.455,-20.444,-20.435,-20.432,-20.432,-20.44,-20.436,-20.42,-20.408,-20.403,-20.408,-20.408,-20.385,-20.378,-20.37,-20.364,-20.358,-20.351,-20.331,-20.314,-20.313,-20.305,-20.287,-20.268,-20.253,-20.246,-20.234,-20.207,-20.182,-20.17,-20.166,-20.15,-20.135,-20.113,-20.113,-20.1,-20.095,-20.073,-20.055,-20.054,-20.05,-20.063,-20.065,-20.066,-20.087,-20.106,-20.152,-20.181,-20.201,-20.238,-20.274,-20.319,-20.353,-20.371,-20.392,-20.42,-20.438,-20.453,-20.46,-20.459,-20.459,-20.474,-20.478,-20.474,-20.468,-20.476,-20.483,-20.481,-20.472,-20.46,-20.466,-20.481,-20.48,-20.466,-20.454,-20.467,-20.469,-20.471,-20.471,-20.456,-20.453,-20.459,-20.463,-20.469,-20.459,-20.463,-20.464,-20.472,-20.468,-20.458,-20.464,-20.467,-20.477,-20.477,-20.472,-20.472,-20.476,-20.479,-20.48,-20.476,-20.469,-20.474,-20.487,-20.49,-20.494,-20.483,-20.493,-20.498,-20.492,-20.486,-20.481,-20.492,-20.499,-20.498,-20.493,-20.49,-20.489,-20.497,-20.499,-20.495,-20.486,-20.496,-20.503,-20.5,-20.494,-20.486,-20.492,-20.493,-20.491,-20.476,-20.47,-20.46,-20.464,-20.454,-20.44,-20.403,-20.389,-20.381,-20.381,-20.387,-20.403,-20.418,-20.425,-20.452,-20.453,-20.455,-20.471,-20.508,-20.53,-20.526,-20.518,-20.521,-20.525,-20.533,-20.527,-20.522,-20.523,-20.533,-20.54,-20.537,-20.526,-20.522,-20.528,-20.536,-20.534,-20.53,-20.522,-20.53,-20.576,-20.631,-20.601,-20.459,-20.239,-19.973,-19.672,-19.316,-19.243,-19.258,-19.596,-20.057,-20.468,-20.668,-20.622,-20.581,-20.515,-20.472,-20.434,-20.454,-20.451,-20.469,-20.455,-20.458,-20.447,-20.458,-20.452,-20.456,-20.445,-20.447,-20.429,-20.447,-20.432,-20.43,-20.418,-20.418,-20.422,-20.428,-20.407,-20.402,-20.388,-20.403,-20.392,-20.377,-20.371,-20.367,-20.364,-20.357,-20.349,-20.333,-20.334,-20.329,-20.322,-20.31,-20.286,-20.279,-20.27,-20.262,-20.247,-20.219,-20.211,-20.204,-20.194,-20.172,-20.146,-20.135,-20.118,-20.108,-20.093,-20.09,-20.067,-20.057,-20.064,-20.049,-20.03,-20.026,-20.035,-20.041,-20.058,-20.059,-20.083,-20.106,-20.15,-20.178,-20.207,-20.241,-20.288,-20.321,-20.339,-20.348,-20.374,-20.397,-20.426,-20.43,-20.44,-20.436,-20.45,-20.456,-20.457,-20.459,-20.45,-20.45,-20.456,-20.459,-20.457,-20.444,-20.453,-20.458,-20.458,-20.452,-20.449,-20.436,-20.444,-20.45,-20.448,-20.432,-20.437,-20.443,-20.451,-20.45,-20.438,-20.428,-20.436,-20.446,-20.453,-20.438,-20.444,-20.453,-20.463,-20.455,-20.459,-20.451,-20.458,-20.469,-20.468,-20.469,-20.454,-20.459,-20.479,-20.467,-20.476,-20.466,-20.47,-20.476,-20.477,-20.475,-20.459,-20.474,-20.477,-20.484,-20.477,-20.465,-20.472,-20.477,-20.475,-20.476,-20.461,-20.467,-20.475,-20.48,-20.476,-20.472,-20.465,-20.48,-20.492,-20.478,-20.47,-20.469,-20.475,-20.486,-20.482,-20.471,-20.462,-20.462,-20.458,-20.451,-20.432,-20.416,-20.396,-20.378,-20.36,-20.361,-20.375,-20.401,-20.425,-20.428,-20.43,-20.44,-20.452,-20.48,-20.497,-20.507,-20.498,-20.509,-20.517,-20.524,-20.513,-20.511,-20.511,-20.521,-20.529,-20.517,-20.507,-20.515,-20.527,-20.528,-20.523,-20.509,-20.514,-20.521,-20.568,-20.609,-20.57,-20.424,-20.215,-19.969,-19.683,-19.298,-19.185,-19.382,-19.823,-20.252,-20.567,-20.62,-20.563,-20.511,-20.443,-20.428,-20.419,-20.45,-20.446,-20.467,-20.439,-20.441,-20.438,-20.456,-20.448,-20.449,-20.432,-20.441,-20.432,-20.44,-20.419,-20.417,-20.401,-20.418,-20.407,-20.401,-20.392,-20.392,-20.39,-20.399,-20.383,-20.376,-20.365,-20.363,-20.369,-20.363,-20.343,-20.337,-20.329,-20.321,-20.312,-20.289,-20.284,-20.276,-20.267,-20.248,-20.236,-20.216,-20.206,-20.204,-20.185,-20.167,-20.136,-20.126,-20.115,-20.101,-20.078,-20.061,-20.047,-20.051,-20.039,-20.024,-20.01,-20.011,-20.02,-20.022,-20.026,-20.042,-20.072,-20.1,-20.136,-20.169,-20.202,-20.232,-20.282,-20.313,-20.344,-20.356,-20.38,-20.406,-20.419,-20.433,-20.431,-20.436,-20.462,-20.458,-20.463,-20.46,-20.452,-20.452,-20.468,-20.462,-20.457,-20.452,-20.455,-20.457,-20.462,-20.445,-20.442,-20.441,-20.458,-20.444,-20.44,-20.432,-20.44,-20.452,-20.451,-20.444,-20.438,-20.438,-20.448,-20.45,-20.441,-20.434,-20.437,-20.445,-20.457,-20.452,-20.439,-20.44,-20.456,-20.459,-20.461,-20.45,-20.457,-20.464,-20.47,-20.466,-20.462,-20.459,-20.471,-20.478,-20.472,-20.466,-20.47,-20.473,-20.482,-20.479,-20.47,-20.465,-20.479,-20.484,-20.48,-20.478,-20.472,-20.476,-20.483,-20.487,-20.482,-20.466,-20.478,-20.491,-20.487,-20.477,-20.476,-20.477,-20.488,-20.485,-20.478,-20.478,-20.485,-20.496,-20.492,-20.483,-20.48,-20.481,-20.484,-20.495,-20.488,-20.475,-20.48,-20.482,-20.487,-20.485,-20.478,-20.483,-20.484,-20.49,-20.48,-20.477,-20.478,-20.491,-20.493,-20.488,-20.482,-20.48,-20.485,-20.495,-20.495,-20.487,-20.476,-20.481,-20.487,-20.479,-20.467,-20.463,-20.453,-20.451,-20.446,-20.418,-20.393,-20.37,-20.37,-20.376,-20.38,-20.404,-20.408,-20.413,-20.431,-20.441,-20.442,-20.457,-20.489,-20.501,-20.499,-20.494,-20.503,-20.509,-20.512,-20.507,-20.503,-20.51,-20.513,-20.516,-20.501,-20.505,-20.506,-20.52,-20.523,-20.526,-20.514,-20.556,-20.604,-20.574,-20.432,-20.217,-19.975,-19.715,-19.331,-19.202,-19.371,-19.803,-20.237,-20.56,-20.636,-20.559,-20.522,-20.457,-20.441,-20.436,-20.456,-20.435,-20.456,-20.456,-20.46,-20.448,-20.439,-20.44,-20.462,-20.444,-20.444,-20.424,-20.428,-20.43,-20.429,-20.415,-20.41,-20.4,-20.404,-20.404,-20.399,-20.382,-20.377,-20.379,-20.375,-20.378,-20.357,-20.354,-20.345,-20.351,-20.347,-20.323,-20.314,-20.315,-20.313,-20.303,-20.292,-20.269,-20.268,-20.263,-20.251,-20.225,-20.208,-20.19,-20.184,-20.162,-20.135,-20.12,-20.108,-20.101,-20.087,-20.065,-20.05,-20.035,-20.039,-20.023,-20.015,-20.006,-20.001,-20.017,-20.022,-20.055,-20.068,-20.106,-20.145,-20.179,-20.21,-20.235,-20.267,-20.312,-20.336,-20.373,-20.379,-20.404,-20.422,-20.434,-20.433,-20.433,-20.438,-20.439,-20.446,-20.452,-20.439,-20.441,-20.437,-20.451,-20.445,-20.437,-20.43,-20.433,-20.44,-20.434,-20.422,-20.421,-20.419,-20.43,-20.43,-20.422,-20.418,-20.419,-20.423,-20.427,-20.425,-20.409,-20.415,-20.422,-20.427,-20.42,-20.417,-20.418,-20.434,-20.435,-20.438,-20.44,-20.442,-20.444,-20.449,-20.454,-20.45,-20.445,-20.451,-20.463,-20.465,-20.452,-20.449,-20.453,-20.461,-20.463,-20.453,-20.461,-20.458,-20.473,-20.474,-20.457,-20.458,-20.46,-20.467,-20.47,-20.463,-20.458,-20.461,-20.469,-20.468,-20.465,-20.463,-20.465,-20.472,-20.471,-20.472,-20.463,-20.472,-20.482,-20.479,-20.469,-20.459,-20.467,-20.472,-20.479,-20.488,-20.471,-20.478,-20.475,-20.475,-20.478,-20.469,-20.47,-20.479,-20.486,-20.487,-20.474,-20.474,-20.468,-20.468,-20.474,-20.455,-20.447,-20.454,-20.439,-20.432,-20.407,-20.367,-20.358,-20.384,-20.403,-20.421,-20.417,-20.418,-20.444,-20.448,-20.448,-20.463,-20.477,-20.512,-20.511,-20.513,-20.513,-20.513,-20.519,-20.518,-20.522,-20.512,-20.516,-20.516,-20.521,-20.52,-20.507,-20.516,-20.519,-20.522,-20.521,-20.512,-20.527,-20.582,-20.618,-20.544,-20.372,-20.26,-20.015,-19.733,-19.368,-19.216,-19.332,-19.752,-20.2,-20.552,-20.642,-20.588,-20.533,-20.465,-20.449,-20.432,-20.457,-20.441,-20.474,-20.451,-20.464,-20.441,-20.445,-20.447,-20.46,-20.438,-20.446,-20.426,-20.444,-20.428,-20.432,-20.412,-20.419,-20.415,-20.417,-20.4,-20.392,-20.39,-20.405,-20.397,-20.386,-20.369,-20.367,-20.367,-20.372,-20.349,-20.342,-20.326,-20.324,-20.324,-20.305,-20.285,-20.277,-20.266,-20.268,-20.245,-20.223,-20.205,-20.193,-20.186,-20.164,-20.147,-20.126,-20.119,-20.114,-20.098,-20.075,-20.06,-20.051,-20.056,-20.045,-20.024,-20.011,-20.021,-20.032,-20.041,-20.048,-20.066,-20.099,-20.147,-20.179,-20.187,-20.218,-20.26,-20.301,-20.34,-20.367,-20.373,-20.388,-20.414,-20.435,-20.45,-20.44,-20.457,-20.464,-20.472,-20.468,-20.465,-20.458,-20.468,-20.464,-20.468,-20.466,-20.457,-20.457,-20.473,-20.46,-20.444,-20.451,-20.453,-20.458,-20.461,-20.451,-20.45,-20.447,-20.452,-20.452,-20.45,-20.447,-20.454,-20.443,-20.448,-20.448,-20.443,-20.441,-20.464,-20.464,-20.463,-20.448,-20.454,-20.457,-20.465,-20.467,-20.463,-20.468,-20.478,-20.475,-20.473,-20.462,-20.474,-20.478,-20.485,-20.485,-20.479,-20.471,-20.476,-20.488,-20.489,-20.477,-20.474,-20.47,-20.468,-20.47,-20.458,-20.453,-20.452,-20.445,-20.422,-20.376,-20.364,-20.365,-20.372,-20.394,-20.413,-20.408,-20.432,-20.445,-20.462,-20.472,-20.485,-20.505,-20.515,-20.518,-20.522,-20.515,-20.518,-20.543,-20.537,-20.528,-20.524,-20.531,-20.53,-20.542,-20.535,-20.527,-20.53,-20.545,-20.546,-20.547,-20.535,-20.531,-20.537,-20.577,-20.635,-20.619,-20.511,-20.321,-20.053,-19.742,-19.359,-19.214,-19.204,-19.488,-19.939,-20.357,-20.667,-20.647,-20.616,-20.545,-20.486,-20.456,-20.448,-20.479,-20.483,-20.476,-20.469,-20.471,-20.467,-20.467,-20.457,-20.457,-20.452,-20.456,-20.465,-20.452,-20.437,-20.426,-20.421,-20.427,-20.428,-20.421,-20.419,-20.418,-20.413,-20.402,-20.383,-20.378,-20.382,-20.39,-20.384,-20.362,-20.354,-20.352,-20.354,-20.345,-20.321,-20.317,-20.301,-20.301,-20.287,-20.264,-20.238,-20.233,-20.224,-20.21,-20.185,-20.163,-20.149,-20.142,-20.129,-20.108,-20.091,-20.077,-20.073,-20.066,-20.052,-20.042,-20.037,-20.037,-20.054,-20.064,-20.073,-20.105,-20.136,-20.178,-20.204,-20.23,-20.272,-20.311,-20.34,-20.367,-20.373,-20.392,-20.412,-20.437,-20.444,-20.448,-20.455,-20.461,-20.477,-20.48,-20.469,-20.463,-20.47,-20.48,-20.475,-20.467,-20.468,-20.467,-20.48,-20.47,-20.465,-20.458,-20.463,-20.467,-20.468,-20.461,-20.445,-20.458,-20.459,-20.459,-20.457,-20.444,-20.455,-20.465,-20.46,-20.463,-20.451,-20.45,-20.456,-20.459,-20.465,-20.459,-20.466,-20.471,-20.479,-20.482,-20.475,-20.474,-20.478,-20.481,-20.488,-20.472,-20.485,-20.49,-20.495,-20.496,-20.484,-20.492,-20.495,-20.51,-20.509,-20.509,-20.502,-20.505,-20.522,-20.517,-20.516,-20.508,-20.513,-20.524,-20.516,-20.52,-20.507,-20.5,-20.532,-20.529,-20.521,-20.508,-20.502,-20.505,-20.498,-20.471,-20.439,-20.432,-20.46,-20.487,-20.5,-20.488,-20.479,-20.509,-20.523,-20.517,-20.533,-20.539,-20.57,-20.576,-20.576,-20.571,-20.57,-20.579,-20.585,-20.589,-20.579,-20.575,-20.583,-20.598,-20.59,-20.586,-20.58,-20.576,-20.586,-20.587,-20.584,-20.588,-20.621,-20.682,-20.646,-20.495,-20.28,-20.026,-19.896,-19.558,-19.262,-19.259,-19.604,-20.074,-20.471,-20.686,-20.662,-20.597,-20.527,-20.504,-20.478,-20.488,-20.486,-20.507,-20.503,-20.499,-20.482,-20.489,-20.489,-20.496,-20.488,-20.483,-20.471,-20.469,-20.473,-20.468,-20.45,-20.449,-20.435,-20.456,-20.445,-20.427,-20.424,-20.418,-20.431,-20.422,-20.395,-20.397,-20.392,-20.382,-20.384,-20.372,-20.359,-20.351,-20.353,-20.346,-20.322,-20.302,-20.297,-20.287,-20.283,-20.264,-20.245,-20.227,-20.227,-20.211,-20.178,-20.166,-20.162,-20.145,-20.133,-20.124,-20.101,-20.088,-20.086,-20.086,-20.074,-20.054,-20.061,-20.072,-20.094,-20.113,-20.13,-20.158,-20.198,-20.235,-20.263,-20.295,-20.313,-20.353,-20.395,-20.422,-20.432,-20.45,-20.467,-20.491,-20.491,-20.495,-20.493,-20.494,-20.512,-20.507,-20.502,-20.498,-20.51,-20.519,-20.516,-20.504,-20.495,-20.502,-20.51,-20.502,-20.507,-20.487,-20.485,-20.496,-20.501,-20.502,-20.489,-20.492,-20.5,-20.506,-20.494,-20.484,-20.488,-20.497,-20.502,-20.501,-20.5,-20.495,-20.506,-20.514,-20.515,-20.507,-20.511,-20.512,-20.532,-20.527,-20.52,-20.522,-20.532,-20.536,-20.545,-20.532,-20.522,-20.537,-20.542,-20.545,-20.542,-20.539,-20.538,-20.554,-20.555,-20.55,-20.548,-20.54,-20.555,-20.562,-20.555,-20.56,-20.552,-20.563,-20.564,-20.568,-20.555,-20.569,-20.579,-20.574,-20.567,-20.564,-20.57,-20.572,-20.576,-20.569,-20.549,-20.544,-20.531,-20.518,-20.486,-20.482,-20.511,-20.545,-20.561,-20.555,-20.546,-20.566,-20.566,-20.579,-20.598,-20.608,-20.619,-20.631,-20.633,-20.645,-20.638,-20.628,-20.63,-20.642,-20.64,-20.625,-20.621,-20.622,-20.627,-20.626,-20.619,-20.609,-20.612,-20.62,-20.614,-20.607,-20.607,-20.621,-20.68,-20.703,-20.622,-20.437,-20.2,-19.938,-19.623,-19.29,-19.262,-19.609,-20.061,-20.465,-20.691,-20.685,-20.606,-20.553,-20.539,-20.501,-20.495,-20.504,-20.517,-20.531,-20.524,-20.514,-20.508,-20.497,-20.508,-20.505,-20.491,-20.489,-20.483,-20.488,-20.482,-20.471,-20.469,-20.47,-20.467,-20.458,-20.452,-20.435,-20.433,-20.432,-20.436,-20.424,-20.412,-20.411,-20.402,-20.403,-20.391,-20.377,-20.376,-20.383,-20.368,-20.362,-20.341,-20.33,-20.331,-20.334,-20.318,-20.302,-20.279,-20.271,-20.261,-20.246,-20.219,-20.199,-20.183,-20.172,-20.161,-20.13,-20.104,-20.101,-20.093,-20.07,-20.056,-20.044,-20.05,-20.06,-20.078,-20.087,-20.112,-20.148,-20.189,-20.223,-20.265,-20.298,-20.343,-20.375,-20.413,-20.433,-20.448,-20.475,-20.491,-20.504,-20.503,-20.506,-20.509,-20.519,-20.532,-20.529,-20.514,-20.52,-20.526,-20.531,-20.521,-20.512,-20.506,-20.504,-20.514,-20.505,-20.496,-20.49,-20.498,-20.503,-20.497,-20.485,-20.481,-20.481,-20.488,-20.493,-20.482,-20.477,-20.473,-20.49,-20.493,-20.486,-20.49,-20.49,-20.502,-20.509,-20.491,-20.499,-20.5,-20.51,-20.512,-20.502,-20.503,-20.506,-20.512,-20.523,-20.517,-20.514,-20.512,-20.516,-20.527,-20.51,-20.509,-20.51,-20.515,-20.516,-20.511,-20.501,-20.502,-20.515,-20.524,-20.515,-20.508,-20.504,-20.504,-20.521,-20.513,-20.507,-20.508,-20.511,-20.523,-20.52,-20.511,-20.51,-20.509,-20.519,-20.516,-20.513,-20.509,-20.514,-20.52,-20.519,-20.503,-20.492,-20.493,-20.505,-20.505,-20.492,-20.477,-20.467,-20.459,-20.447,-20.41,-20.409,-20.44,-20.471,-20.483,-20.484,-20.485,-20.491,-20.5,-20.512,-20.526,-20.544,-20.564,-20.576,-20.586,-20.581,-20.575,-20.584,-20.59,-20.585,-20.591,-20.583,-20.583,-20.581,-20.589,-20.596,-20.581,-20.582,-20.585,-20.594,-20.585,-20.587,-20.573,-20.582,-20.62,-20.671,-20.651,-20.522,-20.321,-20.082,-19.815,-19.434,-19.249,-19.364,-19.789,-20.236,-20.598,-20.697,-20.658,-20.588,-20.537,-20.497,-20.469,-20.492,-20.492,-20.504,-20.492,-20.498,-20.487,-20.502,-20.498,-20.501,-20.482,-20.493,-20.501,-20.51,-20.501,-20.487,-20.473,-20.49,-20.492,-20.496,-20.47,-20.468,-20.458,-20.467,-20.462,-20.46,-20.444,-20.445,-20.434,-20.426,-20.41,-20.387,-20.374,-20.376,-20.362,-20.349,-20.318,-20.306,-20.3,-20.3,-20.287,-20.258,-20.248,-20.226,-20.217,-20.199,-20.166,-20.151,-20.143,-20.124,-20.12,-20.097,-20.085,-20.081,-20.064,-20.048,-20.04,-20.043,-20.056,-20.065,-20.084,-20.086,-20.102,-20.123,-20.17,-20.217,-20.246,-20.275,-20.314,-20.354,-20.378,-20.399,-20.419,-20.44,-20.467,-20.48,-20.474,-20.487,-20.491,-20.498,-20.511,-20.498,-20.487,-20.478,-20.496,-20.511,-20.512,-20.486,-20.485,-20.487,-20.493,-20.483,-20.482,-20.454,-20.486,-20.49,-20.49,-20.461,-20.45,-20.473,-20.496,-20.486,-20.482,-20.488,-20.487,-20.495,-20.49,-20.488,-20.472,-20.485,-20.492,-20.477,-20.471,-20.475,-20.479,-20.489,-20.481,-20.484,-20.481,-20.483,-20.498,-20.496,-20.5,-20.488,-20.501,-20.506,-20.501,-20.495,-20.513,-20.502,-20.514,-20.516,-20.504,-20.509,-20.495,-20.535,-20.529,-20.512,-20.525,-20.514,-20.512,-20.534,-20.537,-20.508,-20.488,-20.474,-20.507,-20.468,-20.437,-20.41,-20.431,-20.459,-20.466,-20.492,-20.479,-20.484,-20.504,-20.501,-20.497,-20.513,-20.546,-20.547,-20.563,-20.577,-20.547,-20.558,-20.56,-20.567,-20.586,-20.575,-20.581,-20.577,-20.556,-20.572,-20.573,-20.569,-20.58,-20.574,-20.568,-20.582,-20.556,-20.564,-20.567,-20.617,-20.643,-20.664,-20.585,-20.409,-20.18,-19.865,-19.51,-19.272,-19.227,-19.564,-19.991,-20.425,-20.657,-20.639,-20.638,-20.541,-20.493,-20.465,-20.467,-20.468,-20.478,-20.479,-20.477,-20.485,-20.462,-20.464,-20.462,-20.458,-20.464,-20.459,-20.446,-20.43,-20.441,-20.452,-20.445,-20.437,-20.42,-20.423,-20.419,-20.433,-20.418,-20.409,-20.403,-20.402,-20.396,-20.382,-20.371,-20.363,-20.373,-20.37,-20.349,-20.331,-20.314,-20.317,-20.318,-20.297,-20.284,-20.264,-20.246,-20.25,-20.232,-20.196,-20.18,-20.171,-20.165,-20.133,-20.121,-20.095,-20.088,-20.079,-20.055,-20.05,-20.037,-20.032,-20.04,-20.042,-20.038,-20.039,-20.064,-20.107,-20.137,-20.162,-20.187,-20.229,-20.265,-20.305,-20.331,-20.349,-20.374,-20.408,-20.414,-20.436,-20.438,-20.45,-20.459,-20.477,-20.466,-20.464,-20.474,-20.459,-20.482,-20.475,-20.469,-20.465,-20.46,-20.48,-20.469,-20.457,-20.45,-20.447,-20.471,-20.456,-20.462,-20.456,-20.452,-20.446,-20.457,-20.451,-20.443,-20.448,-20.447,-20.458,-20.45,-20.44,-20.452,-20.458,-20.462,-20.46,-20.45,-20.453,-20.462,-20.461,-20.472,-20.459,-20.453,-20.459,-20.486,-20.482,-20.474,-20.471,-20.468,-20.482,-20.475,-20.461,-20.463,-20.461,-20.459,-20.45,-20.431,-20.407,-20.39,-20.386,-20.378,-20.381,-20.386,-20.413,-20.429,-20.438,-20.445,-20.439,-20.466,-20.502,-20.529,-20.523,-20.52,-20.524,-20.532,-20.536,-20.53,-20.526,-20.53,-20.545,-20.547,-20.538,-20.527,-20.529,-20.529,-20.544,-20.547,-20.532,-20.525,-20.528,-20.534,-20.532,-20.534,-20.573,-20.636,-20.591,-20.444,-20.214,-19.946,-19.65,-19.271,-19.164,-19.211,-19.586,-20.045,-20.454,-20.655,-20.634,-20.567,-20.489,-20.475,-20.458,-20.471,-20.456,-20.476,-20.479,-20.479,-20.459,-20.461,-20.457,-20.468,-20.453,-20.457,-20.442,-20.448,-20.445,-20.445,-20.437,-20.428,-20.421,-20.433,-20.43,-20.426,-20.401,-20.395,-20.404,-20.411,-20.39,-20.39,-20.371,-20.385,-20.376,-20.371,-20.347,-20.338,-20.338,-20.335,-20.318,-20.299,-20.28,-20.27,-20.262,-20.243,-20.226,-20.201,-20.188,-20.183,-20.161,-20.132,-20.127,-20.112,-20.109,-20.096,-20.075,-20.052,-20.045,-20.042,-20.042,-20.034,-20.039,-20.064,-20.096,-20.121,-20.142,-20.164,-20.185,-20.246,-20.286,-20.306,-20.341,-20.359,-20.396,-20.412,-20.424,-20.432,-20.444,-20.452,-20.477,-20.47,-20.472,-20.481,-20.49,-20.491,-20.488,-20.481,-20.478,-20.48,-20.49,-20.492,-20.474,-20.469,-20.48,-20.483,-20.487,-20.47,-20.468,-20.464,-20.476,-20.471,-20.461,-20.448,-20.465,-20.473,-20.475,-20.46,-20.454,-20.455,-20.47,-20.468,-20.463,-20.46,-20.466,-20.468,-20.477,-20.491,-20.475,-20.478,-20.485,-20.491,-20.489,-20.477,-20.484,-20.492,-20.499,-20.493,-20.486,-20.484,-20.492,-20.509,-20.496,-20.486,-20.5,-20.5,-20.493,-20.497,-20.493,-20.499,-20.508,-20.507,-20.509,-20.498,-20.494,-20.501,-20.5,-20.509,-20.502,-20.502,-20.506,-20.508,-20.512,-20.499,-20.498,-20.5,-20.501,-20.508,-20.498,-20.488,-20.496,-20.509,-20.511,-20.508,-20.49,-20.5,-20.505,-20.514,-20.512,-20.497,-20.505,-20.51,-20.513,-20.509,-20.498,-20.501,-20.503,-20.51,-20.504,-20.497,-20.487,-20.496,-20.501,-20.486,-20.481,-20.468,-20.46,-20.462,-20.427,-20.39,-20.395,-20.415,-20.45,-20.464,-20.45,-20.442,-20.456,-20.471,-20.477,-20.493,-20.506,-20.517,-20.534,-20.545,-20.543,-20.529,-20.537,-20.546,-20.55,-20.551,-20.539,-20.541,-20.552,-20.55,-20.547,-20.548,-20.54,-20.539,-20.553,-20.548,-20.543,-20.553,-20.563,-20.62,-20.634,-20.555,-20.379,-20.16,-19.929,-19.605,-19.239,-19.195,-19.506,-19.983,-20.372,-20.53,-20.631,-20.6,-20.517,-20.467,-20.434,-20.454,-20.467,-20.472,-20.474,-20.472,-20.465,-20.467,-20.469,-20.475,-20.461,-20.446,-20.447,-20.453,-20.449,-20.451,-20.441,-20.438,-20.433,-20.436,-20.424,-20.41,-20.403,-20.407,-20.412,-20.403,-20.39,-20.385,-20.378,-20.382,-20.37,-20.35,-20.345,-20.334,-20.34,-20.335,-20.319,-20.296,-20.288,-20.278,-20.27,-20.244,-20.236,-20.207,-20.203,-20.186,-20.148,-20.133,-20.114,-20.109,-20.093,-20.075,-20.051,-20.036,-20.039,-20.029,-20.015,-20.007,-19.992,-19.993,-20.009,-20.02,-20.032,-20.061,-20.106,-20.124,-20.157,-20.197,-20.242,-20.283,-20.316,-20.344,-20.368,-20.397,-20.412,-20.421,-20.438,-20.439,-20.446,-20.453,-20.454,-20.467,-20.464,-20.458,-20.462,-20.468,-20.475,-20.459,-20.45,-20.461,-20.465,-20.461,-20.454,-20.447,-20.454,-20.45,-20.449,-20.457,-20.442,-20.447,-20.449,-20.446,-20.443,-20.433,-20.436,-20.444,-20.45,-20.45,-20.441,-20.441,-20.443,-20.458,-20.456,-20.448,-20.455,-20.458,-20.469,-20.47,-20.454,-20.458,-20.463,-20.48,-20.481,-20.46,-20.462,-20.474,-20.483,-20.49,-20.479,-20.47,-20.473,-20.476,-20.476,-20.472,-20.47,-20.472,-20.48,-20.483,-20.479,-20.472,-20.478,-20.487,-20.49,-20.486,-20.473,-20.472,-20.486,-20.487,-20.482,-20.476,-20.482,-20.489,-20.488,-20.486,-20.482,-20.476,-20.485,-20.497,-20.497,-20.487,-20.485,-20.49,-20.493,-20.485,-20.477,-20.476,-20.482,-20.493,-20.493,-20.48,-20.489,-20.484,-20.496,-20.488,-20.474,-20.479,-20.486,-20.497,-20.492,-20.486,-20.479,-20.477,-20.498,-20.489,-20.482,-20.474,-20.465,-20.482,-20.474,-20.459,-20.44,-20.421,-20.431,-20.401,-20.37,-20.361,-20.383,-20.422,-20.447,-20.431,-20.42,-20.433,-20.443,-20.453,-20.469,-20.472,-20.494,-20.508,-20.518,-20.52,-20.506,-20.518,-20.521,-20.521,-20.526,-20.522,-20.515,-20.516,-20.532,-20.534,-20.524,-20.523,-20.523,-20.528,-20.53,-20.518,-20.516,-20.525,-20.537,-20.557,-20.596,-20.594,-20.481,-20.307,-20.067,-19.934,-19.651,-19.273,-19.196,-19.443,-19.894,-20.309,-20.595,-20.645,-20.577,-20.495,-20.426,-20.431,-20.444,-20.464,-20.453,-20.444,-20.449,-20.454
