6.7141,6.7007,6.676,6.7131,6.7602,6.749,6.6746,6.6439,6.7408,6.6628,6.6457,6.7394,6.7427,6.7413,6.7552,6.778,6.762,6.79,6.8201,6.7891,6.7751,6.7619,6.7773,6.8193,6.803,6.8094,6.8209,6.7722,6.8073,6.8323,6.8088,6.8353,6.8323,6.8259,6.8441,6.7843,6.7864,6.8528,6.881,6.86,6.8287,6.8159,6.8158,6.841,6.8507,6.8345,6.802,6.7906,6.8392,6.896,6.8912,6.8364,6.8016,6.8094,6.852,6.9022,6.8536,6.8371,6.8237,6.9021,6.8971,6.8457,6.7982,6.8481,6.8843,6.9051,6.8778,6.8696,6.8724,6.9091,6.9051,6.9181,6.8673,6.8525,6.9122,6.9261,6.92,6.8873,6.8761,6.9082,6.9269,6.9804,7.0151,6.9655,6.9454,6.9688,6.9967,6.9917,6.9719,6.9576,6.9662,6.9401,6.9385,6.9796,6.9953,6.8686,6.8664,6.8725,6.8881,6.8828,6.8517,6.9073,6.8875,6.8632,6.8638,6.869,6.8878,6.8872,6.8743,6.8614,6.8902,6.9146,6.9416,6.9851,7.1133,7.3009,7.3923,7.3726,7.19,6.7853,6.535,6.4577,6.5671,6.6255,6.7012,6.8055,6.8385,6.8091,6.8121,6.8428,6.8887,6.9328,6.8824,6.9048,6.8688,6.8589,6.8809,6.9131,6.8919,6.8785,6.9208,6.8915,6.8749,6.9098,6.9554,6.8926,6.8428,6.8939,6.9205,6.94,6.9036,6.8651,6.8923,6.9237,6.9264,6.9069,6.9492,6.9992,6.96,6.8759,6.8885,6.9799,7.0157,7.0109,7.0057,7.0498,7.0367,7.0458,7.0657,7.0553,7.0724,7.0633,7.0719,7.152,7.1695,7.091,7.0652,7.1405,7.1294,7.0428,7.087,7.0996,7.1101,7.0628,7.0405,6.9905,6.9482,6.9739,6.9289,6.8852,6.9083,6.8945,6.8734,6.8376,6.8002,6.8104,6.822,6.7418,6.7274,6.7378,6.7399,6.7339,6.763,6.7786,6.7487,6.7341,6.7659,6.746,6.7125,6.7265,6.7198,6.7017,6.723,6.7577,6.7824,6.7826,6.7168,6.7157,6.7565,6.7649,6.7879,6.7036,6.6985,6.7138,6.7211,6.7499,6.7601,6.7727,6.7445,6.7107,6.7117,6.7268,6.7448,6.7179,6.737,6.7562,6.7366,6.7428,6.7304,6.714,6.7112,6.7446,6.6998,6.7901,6.7829,6.7486,6.7256,6.7961,6.7852,6.8145,6.8254,6.8282,6.8308,6.7985,6.7966,6.8105,6.784,6.7301,6.7151,6.7289,6.7329,6.6904,6.6716,6.6822,6.6865,6.6841,6.663,6.6401,6.6788,6.7362,6.7155,6.6721,6.656,6.675,6.672,6.6644,6.6724,6.8392,6.9711,7.0961,7.2554,7.292,7.081,6.6084,6.2724,6.2767,6.4023,6.4498,6.4838,6.5661,6.6084,6.6642,6.6712,6.6273,6.6642,6.7157,6.6706,6.6508,6.6918,6.7082,6.7,6.6847,6.6683,6.6372,6.6432,6.6918,6.6861,6.6549,6.6917,6.7199,6.7071,6.6662,6.6659,6.6703,6.6705,6.6782,6.7285,6.7927,6.714,6.6409,6.6894,6.7579,6.7766,6.7127,6.7276,6.7512,6.7789,6.8499,6.8479,6.8119,6.8609,6.8983,6.9054,6.9144,6.9302,6.9146,6.9512,6.9603,6.9632,6.9424,6.9,6.9303,6.9674,6.9439,6.9394,6.9427,6.9074,6.8875,6.864,6.8371,6.8081,6.7777,6.7163,6.7127,6.704,6.6828,6.6388,6.6416,6.6104,6.5951,6.5779,6.5874,6.6274,6.6648,6.6051,6.5309,6.5788,6.5952,6.6176,6.5916,6.5841,6.5649,6.5711,6.5798,6.5825,6.5681,6.5589,6.5655,6.6034,6.5849,6.5895,6.6209,6.6415,6.6321,6.6351,6.586,6.6238,6.6161,6.6305,6.616,6.5978,6.5827,6.6196,6.6326,6.6182,6.6215,6.6147,6.5892,6.5911,6.6112,6.5881,6.6488,6.6335,6.6203,6.6366,6.6829,6.6702,6.6215,6.6409,6.6765,6.6774,6.7002,6.6659,6.6576,6.6636,6.6468,6.6444,6.6288,6.5753,6.5745,6.5941,6.5526,6.5319,6.5901,6.5954,6.5448,6.5529,6.582,6.602,6.5758,6.5707,6.54,6.5355,6.5534,6.5594,6.5938,6.6143,6.6942,6.8317,6.9764,7.1407,7.1815,7.0286,6.579,6.1925,6.0823,6.2292,6.3573,6.3396,6.4455,6.5203,6.6004,6.5991,6.5577,6.5349,6.5786,6.6024,6.6127,6.6143,6.6468,6.6353,6.6235,6.5871,6.6011,6.6114,6.5754,6.6217,6.5994,6.5229,6.6181,6.6521,6.6347,6.5916,6.5861,6.632,6.6478,6.7397,6.7048,6.5721,6.6286,6.6907,6.7092,6.6796,6.6806,6.6954,6.712,6.7737,6.7686,6.7559,6.785,6.8364,6.8546,6.8897,6.8629,6.8463,6.8492,6.9084,6.9572,6.9484,6.8997,6.8863,6.9648,6.9507,6.8944,6.883,6.894,6.914,6.8707,6.7855,6.7597,6.8242,6.8039,6.7089,6.656,6.6592,6.663,6.6249,6.6252,6.6104,6.5956,6.5787,6.5826,6.5912,6.6089,6.6079,6.6278,6.5709,6.5211,6.5788,6.5594,6.5466,6.5411,6.5704,6.5591,6.5645,6.5906,6.5607,6.5637,6.5738,6.5473,6.5853,6.5749,6.574,6.6283,6.6048,6.5709,6.567,6.5252,6.5951,6.6136,6.6401,6.6196,6.559,6.5593,6.5799,6.5946,6.5892,6.6061,6.6138,6.6237,6.6293,6.6203,6.6317,6.6652,6.6541,6.6004,6.6468,6.6618,6.7003,6.6929,6.6359,6.6328,6.6145,6.6217,6.5899,6.5832,6.6188,6.609,6.5574,6.5185,6.5203,6.5341,6.5534,6.5875,6.566,6.5421,6.5638,6.5522,6.5583,6.5636,6.5601,6.5833,6.5875,6.6146,6.7331,6.8783,7.0461,7.1498,7.1056,6.8519,6.4074,6.2241,6.0694,6.1867,6.3376,6.4018,6.443,6.4778,6.5485,6.5954,6.6217,6.5556,6.5598,6.5889,6.6024,6.5685,6.539,6.5805,6.6465,6.5865,6.5795,6.5756,6.5725,6.5407,6.581,6.5786,6.564,6.5898,6.6197,6.5902,6.5882,6.5945,6.6004,6.5907,6.6134,6.6264,6.6241,6.615,6.6385,6.6875,6.7177,6.6911,6.6546,6.6948,6.7349,6.7776,6.7492,6.7486,6.7639,6.8025,6.8303,6.8499,6.8478,6.8404,6.8765,6.8848,6.872,6.8814,6.8746,6.944,6.9526,6.8793,6.8376,6.7958,6.7767,6.7864,6.7577,6.7438,6.6896,6.6455,6.6667,6.6424,6.5854,6.585,6.567,6.5931,6.6255,6.5672,6.5152,6.538,6.5293,6.5461,6.5712,6.5537,6.516,6.5066,6.5468,6.5375,6.5191,6.5021,6.5123,6.5647,6.5635,6.5111,6.5005,6.5288,6.5518,6.5498,6.5421,6.56,6.5444,6.546,6.5244,6.5308,6.5488,6.5469,6.5252,6.5898,6.5857,6.5837,6.5413,6.5272,6.5788,6.6001,6.55,6.5554,6.5737,6.5806,6.5913,6.5771,6.5979,6.6081,6.6595,6.605,6.5634,6.5847,6.6344,6.6735,6.6687,6.6222,6.588,6.6147,6.5901,6.5925,6.5591,6.547,6.5812,6.5196,6.5151,6.4866,6.4975,6.5268,6.5619,6.5594,6.5128,6.4769,6.4866,6.5243,6.5401,6.5299,6.4826,6.467,6.5018,6.6484,6.7805,6.8321,6.9783,7.1147,7.0563,6.7101,6.3592,6.0658,6.0806,6.2057,6.2643,6.2844,6.3979,6.4657,6.5002,6.5404,6.5026,6.4935,6.4939,6.537,6.5609,6.5579,6.5273,6.5094,6.5719,6.5919,6.5458,6.5313,6.5295,6.5727,6.5658,6.5655,6.5453,6.5486,6.5496,6.5765,6.5534,6.5555,6.5957,6.5994,6.6041,6.6498,6.6051,6.5743,6.6192,6.6924,6.7051,6.652,6.6398,6.6756,6.7179,6.7177,6.726,6.7419,6.7802,6.8181,6.8399,6.8995,6.8559,6.811,6.8444,6.8808,6.8921,6.8717,6.9071,6.882,6.8704,6.8533,6.8059,6.8183,6.8306,6.8281,6.751,6.7027,6.663,6.6453,6.6553,6.65,6.6069,6.5966,6.6054,6.5895,6.6049,6.5671,6.5634,6.5318,6.5255,6.566,6.5272,6.5179,6.5367,6.5667,6.5575,6.5436,6.5325,6.539,6.5454,6.522,6.5062,6.5053,6.5832,6.5598,6.5658,6.534,6.5446,6.5446,6.576,6.5952,6.5773,6.5279,6.5594,6.5779,6.5564,6.5593,6.5485,6.5319,6.5794,6.5641,6.5592,6.5661,6.5508,6.5682,6.5837,6.5919,6.5629,6.5375,6.5463,6.5634,6.5708,6.5504,6.5286,6.5663,6.5796,6.6233,6.6226,6.6039,6.5977,6.6116,6.6241,6.6206,6.6392,6.6563,6.671,6.7367,6.6503,6.5548,6.5785,6.5781,6.5549,6.5642,6.5787,6.6044,6.5754,6.5419,6.531,6.5116,6.5072,6.5177,6.5349,6.5572,6.5746,6.5531,6.5752,6.573,6.5167,6.5179,6.5651,6.6989,6.9019,7.0054,7.0664,7.0885,6.9173,6.5288,6.233,6.1274,6.151,6.2378,6.352,6.4324,6.4516,6.4731,6.5099,6.5805,6.5988,6.6026,6.5556,6.5862,6.5929,6.5764,6.5531,6.518,6.54,6.5816,6.6054,6.6164,6.5909,6.5685,6.5543,6.5909,6.6209,6.5897,6.5499,6.5938,6.6342,6.6707,6.6025,6.5799,6.5926,6.6153,6.6469,6.6606,6.6515,6.6538,6.6691,6.6778,6.6757,6.6615,6.7287,6.7402,6.8165,6.8057,6.7673,6.792,6.8168,6.8599,6.8767,6.8415,6.8575,6.9076,6.9091,6.8895,6.8749,6.8752,6.87,6.8818,6.84,6.8261,6.7771,6.784,6.821,6.779,6.7143,6.6697,6.6733,6.6548,6.6326,6.6034,6.5646,6.5566,6.5368,6.5763,6.5653,6.5513,6.5468,6.5076,6.5341,6.5304,6.5469,6.5704,6.5533,6.5227,6.5156,6.4906,6.5129,6.5223,6.5475,6.5557,6.5116,6.5147,6.5294,6.5482,6.604,6.5907,6.5201,6.5027,6.5566,6.5679,6.5507,6.5038,6.506,6.5847,6.6012,6.5837,6.601,6.5569,6.579,6.6004,6.5581,6.5474,6.5584,6.551,6.5745,6.563,6.5327,6.5088,6.5381,6.5439,6.5247,6.5193,6.5644,6.5575,6.5555,6.5919,6.605,6.589,6.5186,6.5084,6.5221,6.5715,6.571,6.568,6.5312,6.5232,6.5397,6.5413,6.5657,6.5805,6.5893,6.5455,6.496,6.514,6.5761,6.6216,6.6065,6.5335,6.5041,6.5095,6.5549,6.586,6.5404,6.5554,6.556,6.5491,6.5351,6.5633,6.5619,6.5242,6.5724,6.5794,6.5684,6.5128,6.5322,6.5526,6.5779,6.5083,6.4928,6.5691,6.578,6.5867,6.572,6.5953,6.6416,6.6424,6.6163,6.6075,6.615,6.6018,6.6052,6.5877,6.5609,6.5351,6.4905,6.5169,6.5253,6.5388,6.5716,6.5424,6.4869,6.5127,6.5228,6.5075,6.551,6.5671,6.5318,6.571,6.4933,6.4813,6.5761,6.6775,6.7983,6.8489,7.0137,7.0806,6.9894,6.7107,6.3095,6.077,6.192,6.266,6.2851,6.3444,6.4401,6.5304,6.5942,6.5764,6.471,6.492,6.4863,6.5544,6.5879,6.6002,6.5133,6.5238,6.5226,6.5358,6.5478,6.5894,6.5692,6.5351,6.5466,6.5424,6.5172,6.5274,6.5691,6.5938,6.5775,6.5574,6.5462,6.5541,6.5687,6.5909,6.5978,6.6022,6.6159,6.5817,6.6288,6.6504,6.6603,6.6752,6.6965,6.6964,6.7098,6.7255,6.7289,6.7212,6.7888,6.804,6.7733,6.8099,6.832,6.837,6.8159,6.7984,6.8321,6.8521,6.8207,6.8752,6.8321,6.7717,6.7903,6.7924,6.7417,6.7038,6.6774,6.6881,6.632,6.5867,6.5616,6.5371,6.5262,6.5862,6.5874,6.5439,6.5167,6.4868,6.5223,6.5127,6.5071,6.4642,6.4796,6.5056,6.5113,6.5394,6.4716,6.4395,6.5137,6.5454,6.5532,6.4873,6.4734,6.536,6.5278,6.497,6.4861,6.4699,6.5178,6.5194,6.5628,6.5255,6.4755,6.5112,6.5735,6.5271,6.495,6.5001,6.531,6.5593,6.5567,6.5148,6.5214,6.5408,6.499,6.5308,6.5372,6.54,6.5098,6.5002,6.5339,6.5536,6.5194,6.4855,6.5415,6.5729,6.5725,6.5097,6.4706,6.496,6.5765,6.5926,6.5365,6.4949,6.5239,6.5535,6.5326,6.5214,6.5223,6.5005,6.5736,6.6281,6.5079,6.4991,6.539,6.5899,6.5666,6.5139,6.5246,6.5784,6.5756,6.565,6.5359,6.4904,6.5541,6.5876,6.648,6.6487,6.5934,6.5343,6.5756,6.6684,6.6533,6.6284,6.6697,6.6671,6.6192,6.5988,6.5672,6.5905,6.6062,6.6059,6.5568,6.5364,6.5287,6.5717,6.5949,6.5874,6.5857,6.5651,6.5292,6.5613,6.6014,6.5899,6.5588,6.482,6.5106,6.5528,6.6257,6.7282,6.894,7.0678,7.1061,7.0126,6.7127,6.3135,6.0505,6.1363,6.2014,6.2708,6.3589,6.4159,6.4095,6.4539,6.4704,6.4585,6.5196,6.5066,6.5038,6.4639,6.4808,6.4794,6.5245,6.522,6.489,6.4959,6.5024,6.4945,6.4989,6.4767,6.4974,6.4872,6.5322,6.4982,6.4766,6.491,6.4693,6.4818,6.5488,6.528,6.5006,6.5155,6.5664,6.5743,6.5248,6.529,6.5423,6.5858,6.6115,6.6083,6.6133,6.6602,6.6841,6.698,6.7462,6.7615,6.7679,6.7466,6.7159,6.7716,6.7625,6.7541,6.7995,6.79,6.801,6.7741,6.7553,6.7765,6.7696,6.745,6.7367,6.7141,6.6789,6.6341,6.6313,6.6113,6.5294,6.5332,6.5593,6.576,6.5491,6.496,6.4541,6.4633,6.4612,6.456,6.4402,6.4718,6.4456,6.4499,6.4442,6.4504,6.454,6.4053,6.4151,6.4446,6.4055,6.4056,6.4133,6.4439,6.4605,6.4223,6.3753,6.3814,6.3949,6.4033,6.3713,6.3468,6.3634,6.3829,6.3765,6.356,6.328,6.2911,6.2946,6.3069,6.2932,6.2514,6.2509,6.2396,6.2345,6.2187,6.1775,6.1658,6.1853,6.2043,6.1891,6.173,6.1538,6.1399,6.1492,6.146,6.1459,6.1293,6.1496,6.1589,6.1631,6.1535,6.1101,6.1119,6.1031,6.1066,6.0996,6.0988,6.1284,6.1387,6.144,6.0819,6.0634,6.0421,6.0515,6.071,6.0671,6.0579,6.0365,6.0369,6.0387,6.0503,6.0346,5.9898,5.9595,5.9781,5.9818,5.944,5.874,5.8916,5.8861,5.8898,5.8776,5.8981,5.8912,5.9387,5.9718,5.9515,5.971,5.9694,5.967,5.9584,5.9588,5.9486,5.9278,5.9472,5.9584,5.9533,5.9423,5.9589,5.9968,5.9997,5.9911,5.9903,6.0078,6.0287,6.0759,6.0981,6.0822,6.0845,6.1397,6.2928,6.4117,6.5536,6.6789,6.6483,6.4725,6.0561,5.6886,5.593,5.7824,5.8993,5.9788,6.0496,6.0941,6.1555,6.2174,6.2359,6.223,6.2114,6.2467,6.2871,6.2726,6.2524,6.2542,6.2754,6.3103,6.3252,6.3197,6.3086,6.2861,6.3174,6.3599,6.3688,6.3427,6.3357,6.3777,6.3979,6.3867,6.3824,6.3937,6.4282,6.4356,6.4239,6.4187,6.4341,6.4737,6.5096,6.5033,6.4816,6.5,6.5499,6.5828,6.6043,6.5916,6.581,6.6065,6.6322,6.6769,6.6802,6.6557,6.6783,6.7194,6.7251,6.7116,6.7025,6.7149,6.7409,6.7527,6.7481,6.6865,6.6543,6.6481,6.6436,6.6188,6.5469,6.5147,6.502,6.4654,6.4526,6.4196,6.395,6.4092,6.4367,6.4145,6.3639,6.3436,6.343,6.3678,6.3759,6.3551,6.329,6.3415,6.3491,6.3446,6.3226,6.3113,6.3222,6.3511,6.3798,6.3855,6.3432,6.322,6.3461,6.3705,6.3364,6.3359,6.3408,6.3703,6.3967,6.3677,6.3479,6.3398,6.3628,6.3816,6.3616,6.3687,6.3865,6.3936,6.3721,6.3797,6.3813,6.3618,6.3427,6.3483,6.3751,6.357,6.3432,6.3388,6.3518,6.3598,6.3552,6.3554,6.3436,6.3626,6.3749,6.3334,6.3128,6.3151,6.3608,6.3716,6.3614,6.323,6.3069,6.3203,6.3523,6.3417,6.3434,6.3537,6.3707,6.3697,6.3488,6.3381,6.3244,6.3281,6.3605,6.3706,6.3378,6.3373,6.348,6.3681,6.3446,6.3338,6.3365,6.349,6.3602,6.3599,6.3484,6.3334,6.3433,6.3883,6.4185,6.4239,6.4043,6.4174,6.434,6.455,6.4361,6.436,6.446,6.4462,6.4351,6.4138,6.3784,6.3745,6.366,6.3657,6.3618,6.3504,6.3521,6.3565,6.37,6.3565,6.3538,6.3329,6.3605,6.3925,6.373,6.3231,6.3317,6.3734,6.4922,6.6166,6.6759,6.7871,6.9095,6.8885,6.7055,6.2653,5.8703,5.8195,6.014,6.118,6.2012,6.2691,6.3108,6.3453,6.3926,6.3774,6.3725,6.3738,6.4061,6.4267,6.4121,6.4016,6.3761,6.4038,6.4119,6.423,6.393,6.4165,6.4289,6.4123,6.402,6.4078,6.4047,6.4275,6.4284,6.4491,6.4405,6.4288,6.4624,6.495,6.4826,6.462,6.4552,6.4626,6.5041,6.518,6.5449,6.5302,6.531,6.5743,6.5985,6.5775,6.5894,6.6129,6.6547,6.7042,6.6832,6.6675,6.6879,6.7125,6.7469,6.7732,6.7381,6.7128,6.7188,6.752,6.7297,6.7122,6.704,6.7079,6.7146,6.685,6.6237,6.5872,6.589,6.5523,6.5353,6.4962,6.4724,6.429,6.4286,6.4517,6.4426,6.3994,6.4167,6.3979,6.4096,6.3951,6.3574,6.3836,6.3909,6.3873,6.3874,6.3893,6.3724,6.3881,6.3862,6.4052,6.4044,6.409,6.3799,6.41,6.3867,6.3701,6.3644,6.3926,6.4279,6.4115,6.3676,6.358,6.3934,6.4272,6.4334,6.406,6.3746,6.4004,6.4368,6.4612,6.4492,6.4212,6.4056,6.3898,6.407,6.4168,6.3879,6.3949,6.4228,6.4334,6.4212,6.3887,6.3839,6.412,6.4431,6.4434,6.3995,6.3948,6.3989,6.393,6.4114,6.3998,6.4058,6.3912,6.4223,6.421,6.4112,6.3926,6.3928,6.4313,6.4518,6.4209,6.4207,6.4292,6.4189,6.4121,6.3978,6.4153,6.4715,6.4963,6.4794,6.4537,6.4579,6.4886,6.5094,6.5237,6.5091,6.5054,6.4943,6.4716,6.4668,6.4603,6.4355,6.4245,6.4146,6.4258,6.4343,6.4057,6.3943,6.3957,6.4165,6.4202,6.415,6.4202,6.4166,6.4426,6.4292,6.4026,6.3937,6.4455,6.5827,6.7292,6.8571,6.9208,6.8767,6.6794,6.3262,5.9996,5.9417,6.0681,6.195,6.2717,6.3137,6.3502,6.3898,6.4339,6.4347,6.4203,6.4062,6.4087,6.433,6.4702,6.4693,6.4502,6.4494,6.4306,6.4511,6.462,6.4702,6.4433,6.4534,6.4748,6.4804,6.454,6.4574,6.4812,6.5063,6.5086,6.4924,6.4717,6.4778,6.5195,6.5315,6.5144,6.487,6.4969,6.5441,6.5743,6.5764,6.5611,6.6002,6.6234,6.6218,6.6148,6.6229,6.6607,6.6886,6.7337,6.7371,6.7368,6.7321,6.7213,6.7409,6.7497,6.7451,6.7604,6.7882,6.7779,6.7302,6.7024,6.6933,6.6982,6.6849,6.6582,6.6141,6.5823,6.5725,6.5579,6.526,6.4966,6.4619,6.4405,6.4617,6.4834,6.4596,6.4202,6.4033,6.4116,6.4387,6.4208,6.3795,6.3804,6.3884,6.4081,6.3959,6.3802,6.3787,6.4029,6.4238,6.4267,6.4161,6.3947,6.3961,6.4176,6.4355,6.4037,6.4233,6.447,6.4326,6.3999,6.388,6.4131,6.4276,6.4405,6.4357,6.4126,6.3887,6.3912,6.4095,6.4158,6.4067,6.3988,6.3893,6.3952,6.3987,6.4099,6.3997,6.4068,6.405,6.415,6.3968,6.3801,6.3654,6.377,6.4133,6.4111,6.3962,6.3766,6.3808,6.388,6.4047,6.4088,6.3689,6.3813,6.4275,6.4462,6.4337,6.4109,6.4429,6.4856,6.4706,6.4482,6.4796,6.5024,6.5263,6.4962,6.4619,6.4622,6.4553,6.4328,6.395,6.4044,6.3924,6.3986,6.4158,6.3865,6.3748,6.3722,6.3713,6.3816,6.3981,6.4109,6.4059,6.409,6.398,6.3958,6.3793,6.3716,6.3857,6.5252,6.6643,6.7961,6.8465,6.8913,6.8167,6.544,6.2012,5.9,5.9835,6.1489,6.1986,6.2352,6.2806,6.3061,6.3536,6.4221,6.4358,6.3915,6.3828,6.3899,6.4092,6.4318,6.4246,6.3881,6.3831,6.4235,6.4556,6.4509,6.4151,6.4317,6.4426,6.4481,6.4244,6.4085,6.4161,6.4424,6.4649,6.4872,6.4509,6.446,6.4811,6.4887,6.4816,6.4682,6.4623,6.4926,6.5273,6.5456,6.5526,6.538,6.572,6.5932,6.6172,6.6183,6.6299,6.6321,6.671,6.7117,6.7226,6.6983,6.7073,6.7128,6.7508,6.7523,6.7441,6.7154,6.7138,6.7423,6.7317,6.6984,6.674,6.6702,6.6545,6.6029,6.553,6.5386,6.5386,6.5193,6.4801,6.4514,6.4259,6.4172,6.4102,6.4122,6.4167,6.402,6.4059,6.3984,6.4034,6.4142,6.4154,6.372,6.371,6.3521,6.349,6.373,6.3815,6.386,6.385,6.3838,6.3967,6.3931,6.3969,6.4112,6.4102,6.3932,6.3757,6.3939,6.4307,6.4271,6.4171,6.4166,6.3977,6.4364,6.4399,6.4274,6.3838,6.402,6.4226,6.4128,6.393,6.3879,6.4054,6.4084,6.3998,6.3977,6.4033,6.4128,6.4079,6.4108,6.4049,6.3856,6.4162,6.4299,6.4242,6.3925,6.3758,6.3689,6.3757,6.4083,6.4004,6.3982,6.4026,6.4241,6.468,6.4728,6.4615,6.4635,6.4648,6.4747,6.5027,6.5182,6.5219,6.528,6.5074,6.49,6.4637,6.451,6.4315,6.4257,6.4201,6.4046,6.3832,6.3903,6.4123,6.4139,6.3972,6.3861,6.3902,6.4091,6.4066,6.4008,6.3966,6.4097,6.4076,6.4102,6.3977,6.4529,6.5806,6.7152,6.8495,6.9456,6.9005,6.6899,6.2866,5.9192,5.9072,5.9779,6.0946,6.1754,6.268,6.3462,6.3796,6.4104,6.4265,6.4345,6.4262,6.3986,6.4097,6.4373,6.4343,6.4208,6.3834,6.3881,6.429,6.4556,6.4631,6.4404,6.414,6.4168,6.4407,6.4805,6.476,6.4444,6.4528,6.477,6.4752,6.4798,6.4694,6.4705,6.4923,6.505,6.4982,6.5193,6.5155,6.5294,6.5229,6.5687,6.5859,6.5968,6.625,6.6488,6.6537,6.6313,6.641,6.6796,6.7167,6.7332,6.7338,6.7132,6.7392,6.7515,6.7395,6.7552,6.738,6.7419,6.7557,6.7524,6.7266,6.6705,6.6456,6.6412,6.6234,6.576,6.5278,6.4724,6.4728,6.4853,6.4787,6.4425,6.4331,6.4265,6.4346,6.4049,6.3849,6.3926,6.3952,6.4131,6.4239,6.3972,6.3645,6.3574,6.3396,6.3798,6.3921,6.3643,6.3539,6.3806,6.3983,6.3935,6.3918,6.3788,6.3777,6.3913,6.3893,6.3682,6.397,6.395,6.3926,6.3927,6.4013,6.3944,6.3898,6.4243,6.4167,6.3918,6.386,6.3943,6.4088,6.4126,6.3878,6.3813,6.3864,6.4118,6.4036,6.3883,6.3728,6.3818,6.3769,6.3924,6.3824,6.3703,6.3796,6.3836,6.3808,6.3666,6.39,6.3997,6.4095,6.4051,6.3755,6.3859,6.404,6.4079,6.3978,6.3785,6.3558,6.3715,6.4014,6.4226,6.4203,6.3989,6.4009,6.405,6.4307,6.4258,6.4269,6.4375,6.4503,6.4493,6.4698,6.4713,6.4913,6.5155,6.5075,6.5004,6.4819,6.442,6.4154,6.424,6.4301,6.4163,6.3888,6.3643,6.3757,6.3952,6.3668,6.3427,6.356,6.3797,6.3991,6.3929,6.3843,6.3613,6.3797,6.3868,6.3735,6.393,6.5157,6.6563,6.7999,6.9228,6.9122,6.8118,6.5514,6.1349,5.8286,5.8755,6.0279,6.1265,6.2321,6.3029,6.3369,6.3186,6.3455,6.3736,6.4029,6.3801,6.3622,6.367,6.3818,6.3977,6.3827,6.3774,6.3888,6.4114,6.4129,6.402,6.3646,6.3831,6.4075,6.4368,6.4165,6.3908,6.4023,6.4286,6.429,6.418,6.4173,6.4263,6.4359,6.4519,6.4616,6.4585,6.4733,6.4911,6.5277,6.5169,6.5092,6.5225,6.5471,6.5866,6.5941,6.5944,6.5957,6.6277,6.662,6.6882,6.7015,6.6813,6.6824,6.7158,6.7164,6.6963,6.6826,6.7009,6.7182,6.7196,6.682,6.6307,6.6157,6.6188,6.6242,6.5643,6.5139,6.4768,6.4725,6.478,6.4621,6.4214,6.3829,6.3564,6.3772,6.3582,6.3347,6.3609,6.3559,6.3644,6.3852,6.3716,6.3454,6.337,6.3468,6.3447,6.3343,6.3192,6.3288,6.3614,6.3402,6.3425,6.3392,6.3522,6.3648,6.3773,6.3523,6.3362,6.3452,6.3621,6.388,6.4091,6.3807,6.3718,6.3591,6.3791,6.3639,6.3562,6.3602,6.3752,6.3938,6.3827,6.3651,6.3367,6.3498,6.3835,6.4004,6.3797,6.3485,6.3589,6.374,6.3808,6.3622,6.3459,6.3686,6.3824,6.3691,6.3629,6.3648,6.3623,6.3325,6.3654,6.3734,6.3482,6.3609,6.3772,6.4055,6.4045,6.3831,6.369,6.3779,6.389,6.3807,6.3843,6.4085,6.4038,6.3934,6.3987,6.3891,6.3522,6.3693,6.402,6.4011,6.3841,6.4216,6.4581,6.4524,6.4694,6.4696,6.4404,6.4607,6.5183,6.5547,6.5411,6.5399,6.4978,6.4918,6.4817,6.4499,6.4436,6.4359,6.4419,6.4469,6.4157,6.378,6.3945,6.4378,6.4386,6.4316,6.4261,6.4349,6.4296,6.4305,6.432,6.4079,6.4146,6.424,6.484,6.5803,6.6836,6.8164,6.9584,6.948,6.7883,6.4101,6.0674,5.8859,6.022,6.1531,6.1531,6.2481,6.3235,6.4235,6.4546,6.4791,6.4334,6.4482,6.444,6.4598,6.4576,6.4572,6.4519,6.4788,6.4829,6.4794,6.4739,6.4904,6.4855,6.5008,6.4821,6.4791,6.4849,6.4971,6.5154,6.5285,6.517,6.4874,6.4831,6.5318,6.537,6.5194,6.5349,6.5455,6.5589,6.5804,6.5837,6.5905,6.6003,6.6156,6.6566,6.6779,6.6866,6.6882,6.705,6.7116,6.7231,6.7249,6.7463,6.77,6.7924,6.7994,6.8003,6.8128,6.808,6.8125,6.7848,6.759,6.782,6.796,6.7764,6.7329,6.7101,6.6893,6.6882,6.6647,6.6438,6.5846,6.5711,6.5499,6.5501,6.5337,6.4893,6.4773,6.4858,6.4898,6.49,6.4566,6.463,6.4794,6.4893,6.4949,6.4721,6.4363,6.4371,6.4667,6.482,6.4768,6.4618,6.4792,6.4859,6.4611,6.4793,6.4961,6.5009,6.5022,6.5112,6.4897,6.4826,6.4878,6.5013,6.5267,6.5076,6.4783,6.4596,6.4727,6.5267,6.5232,6.4927,6.4816,6.4916,6.5008,6.5166,6.5024,6.4921,6.5068,6.5303,6.5102,6.5059,6.4803,6.4881,6.5039,6.4955,6.4843,6.4861,6.4925,6.5008,6.5069,6.4917,6.4713,6.4925,6.5142,6.5244,6.5138,6.5033,6.5062,6.5173,6.5074,6.5152,6.5036,6.4994,6.5138,6.5525,6.5611,6.5568,6.5729,6.5657,6.5669,6.572,6.59,6.6059,6.6169,6.6299,6.646,6.6178,6.5743,6.5311,6.5553,6.562,6.5328,6.5109,6.522,6.5156,6.4921,6.4851,6.4873,6.5113,6.5254,6.5414,6.5478,6.5185,6.503,6.4962,6.5254,6.5146,6.5073,6.567,6.718,6.8662,6.9857,7.0143,6.9815,6.7892,6.4166,6.1162,6.0826,6.1969,6.283,6.325,6.3905,6.4354,6.4657,6.5114,6.5227,6.5268,6.5309,6.5241,6.5443,6.559,6.547,6.509,6.525,6.5373,6.5539,6.5408,6.5134,6.4847,6.5111,6.5332,6.5511,6.5501,6.5401,6.5561,6.5654,6.5663,6.5507,6.5436,6.5616,6.5698,6.5877,6.5779,6.5854,6.5796,6.5998,6.6392,6.6417,6.6389,6.6432,6.6561,6.6784,6.7035,6.6874,6.6943,6.7076,6.7431,6.7747,6.7638,6.7441,6.771,6.8292,6.8503,6.8284,6.7932,6.7685,6.7707,6.7749,6.7572,6.7388,6.699,6.6846,6.6774,6.6477,6.6413,6.6158,6.5983,6.5634,6.5317,6.4949,6.4837,6.4682,6.488,6.4748,6.4423,6.4121,6.4121,6.4379,6.446,6.4248,6.4091,6.4176,6.4308,6.4332,6.4086,6.3939,6.3978,6.4195,6.4253,6.4223,6.4325,6.4241,6.4165,6.437,6.4386,6.411,6.4023,6.4363,6.4636,6.4529,6.4459,6.4298,6.4469,6.4596,6.4546,6.4363,6.4404,6.4517,6.4569,6.4483,6.4352,6.4464,6.4513,6.4403,6.4266,6.425,6.4071,6.4324,6.4679,6.4632,6.4376,6.4438,6.4416,6.4647,6.4714,6.4717,6.4959,6.5054,6.5641,6.5803,6.5579,6.5247,6.5401,6.6015,6.6312,6.6147,6.5806,6.5599,6.578,6.58,6.5665,6.5156,6.4901,6.5154,6.5018,6.4873,6.4793,6.4648,6.48,6.4798,6.4603,6.4739,6.488,6.499,6.5041,6.4835,6.4685,6.4339,6.4454,6.505,6.5766,6.6291,6.7361,6.8664,6.9884,6.9976,6.8225,6.4336,6.1086,6.0091,6.145,6.2468,6.2686,6.3381,6.3751,6.4414,6.4418,6.4556,6.47,6.4928,6.4905,6.4959,6.4746,6.492,6.5182,6.4989,6.4746,6.4995,6.489,6.4832,6.4928,6.5014,6.4816,6.4837,6.4854,6.4995,6.5172,6.4911,6.4826,6.4881,6.5129,6.5311,6.5184,6.5148,6.5151,6.5302,6.5259,6.5425,6.5643,6.5843,6.6042,6.6409,6.636,6.6331,6.6491,6.6643,6.7222,6.741,6.7509,6.7422,6.7612,6.7659,6.7503,6.7418,6.7604,6.7897,6.7981,6.8035,6.7792,6.7736,6.7439,6.7391,6.7254,6.6657,6.6362,6.6176,6.6254,6.5795,6.536,6.489,6.4795,6.4758,6.4864,6.4788,6.4729,6.4673,6.4607,6.4604,6.419,6.3819,6.3727,6.4014,6.4113,6.4128,6.3819,6.4003,6.4104,6.4466,6.4221,6.3942,6.3996,6.4173,6.4426,6.4568,6.4361,6.4154,6.4099,6.4386,6.4666,6.4276,6.4186,6.4389,6.4533,6.4543,6.4355,6.4473,6.4474,6.4461,6.43,6.4035,6.4162,6.4156,6.4436,6.4541,6.4245,6.4155,6.4402,6.4268,6.4349,6.4297,6.4228,6.386,6.4106,6.4173,6.4038,6.3796,6.3608,6.3549,6.406,6.4424,6.4541,6.442,6.4577,6.4767,6.4663,6.4528,6.4638,6.4792,6.5193,6.5192,6.4878,6.4537,6.4137,6.4099,6.4165,6.4143,6.39,6.3668,6.3534,6.3728,6.3679,6.3562,6.3557,6.3619,6.3616,6.3519,6.3443,6.3543,6.3462,6.3572,6.3674,6.3359,6.3371,6.3787,6.4781,6.6056,6.7325,6.8417,6.8485,6.7335,6.3617,5.9854,5.8043,5.9474,6.1033,6.1398,6.1539,6.1948,6.2724,6.3391,6.3434,6.3251,6.3404,6.3738,6.4051,6.354,6.3297,6.3232,6.3308,6.3437,6.3853,6.3717,6.3875,6.3994,6.3925,6.3927,6.4023,6.3946,6.3914,6.3907,6.4134,6.4175,6.3897,6.3862,6.4163,6.4751,6.4886,6.4605,6.4351,6.462,6.5079,6.5151,6.5111,6.5164,6.5532,6.5881,6.5892,6.595,6.6229,6.6319,6.6325,6.6529,6.664,6.6565,6.6704,6.7179,6.7556,6.7727,6.7547,6.7431,6.7512,6.7675,6.7294,6.6942,6.6813,6.6703,6.6609,6.629,6.5942,6.577,6.5618,6.5409,6.5086,6.4598,6.4301,6.4532,6.4339,6.4189,6.4022,6.3913,6.3821,6.4034,6.4179,6.4148,6.3991,6.3968,6.4185,6.393,6.3655,6.3577,6.3516,6.3842,6.3966,6.3824,6.3817,6.3907,6.3913,6.3947,6.3889,6.3904,6.392,6.3991,6.4196,6.3925,6.3817,6.402,6.4235,6.4231,6.4095,6.4064,6.3998,6.4276,6.4399,6.4346,6.4101,6.38,6.3923,6.4084,6.4123,6.4417,6.4132,6.3767,6.3823,6.4078,6.4027,6.3916,6.3922,6.3991,6.4033,6.4034,6.4042,6.3884,6.4075,6.4147,6.4073,6.3812,6.3965,6.4478,6.4285,6.3748,6.3685,6.385,6.4127,6.4093,6.3911,6.3959,6.384,6.4154,6.4157,6.4174,6.4071,6.3787,6.3771,6.3986,6.4054,6.3995,6.4247,6.4479,6.4586,6.4363,6.4477,6.4562,6.4602,6.4696,6.5018,6.4882,6.4698,6.4561,6.4496,6.449,6.4337,6.4105,6.4086,6.4046,6.414,6.4083,6.3909,6.3786,6.3913,6.3931,6.3934,6.3947,6.364,6.3832,6.4026,6.3997,6.3935,6.3981,6.4817,6.6147,6.736,6.7814,6.9029,6.8901,6.7635,6.3991,6.0189,5.8273,5.9678,6.1267,6.2257,6.3028,6.3127,6.3606,6.3899,6.3938,6.3484,6.3538,6.3671,6.4077,6.4202,6.398,6.3883,6.3978,6.3939,6.4305,6.4295,6.4157,6.3919,6.4182,6.4457,6.4512,6.4339,6.4489,6.4559,6.4641,6.448,6.4299,6.4158,6.4424,6.4707,6.4921,6.4813,6.4696,6.4784,6.4974,6.5164,6.5122,6.5087,6.5341,6.5716,6.6038,6.6021,6.5943,6.6001,6.6466,6.6592,6.6635,6.6425,6.6661,6.7214,6.7254,6.699,6.6836,6.6833,6.6831,6.7048,6.684,6.6455,6.6492,6.6476,6.6301,6.5956,6.5638,6.5326,6.4969,6.4804,6.4452,6.3877,6.3791,6.3741,6.3744,6.3594,6.3378,6.3317,6.3081,6.3172,6.3661,6.343,6.3079,6.3105,6.325,6.3438,6.3256,6.3038,6.315,6.3272,6.3464,6.3191,6.3147,6.3581,6.3657,6.3245,6.2975,6.3074,6.3191,6.332,6.3776,6.3822,6.3597,6.3488,6.3543,6.3668,6.3706,6.3698,6.3561,6.3465,6.3781,6.4152,6.3792,6.3598,6.3394,6.3779,6.3725,6.3899,6.3854,6.3704,6.3534,6.3677,6.3929,6.3887,6.3634,6.381,6.387,6.3865,6.365,6.3557,6.3753,6.4118,6.3741,6.359,6.3672,6.404,6.3992,6.3888,6.3789,6.3553,6.3763,6.3953,6.4002,6.3684,6.3785,6.3773,6.4008,6.4148,6.4042,6.3999,6.3849,6.4192,6.4244,6.3986,6.3708,6.3789,6.4115,6.4079,6.3948,6.3884,6.4017,6.3903,6.4202,6.411,6.4047,6.4284,6.4345,6.4345,6.4373,6.4101,6.3931,6.3983,6.4224,6.4273,6.4208,6.4016,6.4168,6.4392,6.4228,6.4149,6.4124,6.4287,6.4499,6.4414,6.4304,6.4668,6.4944,6.5149,6.5387,6.5147,6.503,6.5282,6.5491,6.5414,6.5177,6.4962,6.5136,6.5119,6.488,6.4474,6.4386,6.4556,6.4679,6.4767,6.4531,6.457,6.467,6.4636,6.4633,6.474,6.4612,6.4718,6.4715,6.4684,6.4537,6.4844,6.604,6.768,6.9131,7.0237,7.0057,6.8995,6.6836,6.303,5.9844,5.991,6.1515,6.2397,6.3532,6.4213,6.4401,6.4637,6.4742,6.4968,6.5182,6.5158,6.5208,6.5184,6.5184,6.5442,6.5394,6.5285,6.5184,6.5299,6.5617,6.5552,6.5423,6.5486,6.5534,6.547,6.538,6.5246,6.5509,6.5603,6.582,6.578,6.587,6.5929,6.5954,6.6287,6.6058,6.5791,6.5901,6.5938,6.6515,6.6555,6.6695,6.6682,6.6885,6.7132,6.7333,6.741,6.7506,6.7679,6.7802,6.824,6.7961,6.8055,6.8321,6.8469,6.8574,6.8409,6.8364,6.8615,6.8714,6.8727,6.8555,6.8008,6.7809,6.7821,6.7631,6.7438,6.691,6.656,6.676,6.6675,6.6324,6.5899,6.5688,6.5649,6.5687,6.5344,6.5153,6.5184,6.5197,6.5079,6.5195,6.5152,6.4976,6.5018,6.499,6.4973,6.465,6.4962,6.5125,6.5254,6.5525,6.5367,6.4744,6.4842,6.4939,6.5252,6.5052,6.487,6.4814,6.5043,6.5413,6.5222,6.5148,6.5153,6.5361,6.5239,6.5187,6.5083,6.5008,6.49,6.5285,6.5194,6.5001,6.5111,6.5439,6.5503,6.5435,6.5016,6.4931,6.5057,6.5198,6.5231,6.4905,6.4806,6.4834,6.4967,6.4834,6.4769,6.5068,6.5109,6.5169,6.5155,6.4818,6.4915,6.5,6.5183,6.5307,6.5156,6.5082,6.5161,6.5108,6.5223,6.4972,6.4767,6.4898,6.5187,6.5237,6.5257,6.528,6.5481,6.5663,6.5762,6.5646,6.5664,6.5648,6.6196,6.6528,6.6098,6.5744,6.5506,6.5613,6.5915,6.5779,6.5232,6.5281,6.4966,6.5133,6.5301,6.508,6.4923,6.483,6.498,6.4983,6.5076,6.4944,6.5168,6.5193,6.5114,6.4929,6.4803,6.5087,6.5905,6.7289,6.8734,6.9625,6.9838,6.9058,6.5961,6.2761,6.0426,6.138,6.2352,6.2759,6.3581,6.414,6.4353,6.4448,6.4823,6.456,6.4575,6.4526,6.4608,6.4738,6.506,6.4791,6.4682,6.483,6.5115,6.5018,6.5138,6.478,6.4541,6.47,6.486,6.4864,6.479,6.4689,6.492,6.5296,6.4938,6.4807,6.4681,6.4932,6.5351,6.549,6.5152,6.5039,6.54,6.5372,6.5633,6.549,6.5467,6.5705,6.6133,6.6335,6.6109,6.6043,6.665,6.7176,6.7247,6.6901,6.6964,6.7409,6.7629,6.7581,6.7261,6.7004,6.718,6.7381,6.7304,6.7114,6.6917,6.6781,6.6543,6.6667,6.6172,6.5676,6.5543,6.5288,6.496,6.488,6.4574,6.4346,6.4208,6.4264,6.4213,6.4217,6.408,6.3775,6.3788,6.373,6.3588,6.3812,6.3902,6.3841,6.3668,6.359,6.3488,6.3736,6.4118,6.4243,6.3926,6.3815,6.3662,6.3832,6.4194,6.4339,6.4092,6.3832,6.4089,6.4191,6.4084,6.4039,6.4227,6.4021,6.4133,6.4025,6.4107,6.4303,6.4335,6.4244,6.3812,6.3682,6.3762,6.3741,6.4011,6.4138,6.4005,6.3862,6.3821,6.4103,6.3978,6.3768,6.3716,6.3721,6.369,6.3904,6.3677,6.373,6.3875,6.379,6.3739,6.3686,6.3664,6.3715,6.3996,6.426,6.4404,6.425,6.4272,6.4569,6.4894,6.5185,6.5316,6.4814,6.4707,6.4447,6.4194,6.4,6.3764,6.3793,6.3635,6.3257,6.3182,6.3266,6.3562,6.3642,6.3893,6.3372,6.318,6.3254,6.3359,6.3567,6.3239,6.3168,6.2886,6.3152,6.3905,6.4924,6.5915,6.7105,6.8486,6.8316,6.6698,6.4965,6.1019,5.7992,5.8905,6.017,6.0588,6.1281,6.2083,6.2717,6.2928,6.3085,6.3007,6.3123,6.3308,6.3113,6.2878,6.2974,6.3399,6.3428,6.3356,6.318,6.3294,6.3191,6.3203,6.3138,6.2941,6.279,6.31,6.3218,6.3141,6.3147,6.324,6.354,6.3571,6.3619,6.3626,6.3759,6.3778,6.3825,6.3852,6.3753,6.3702,6.3797,6.4137,6.4379,6.449,6.4544,6.4657,6.5027,6.5164,6.5141,6.5117,6.5272,6.5586,6.6016,6.6077,6.6026,6.6077,6.6128,6.6447,6.6115,6.5889,6.5866,6.5921,6.5779,6.5482,6.4986,6.4672,6.4475,6.4532,6.4225,6.3698,6.3314,6.3203,6.3159,6.2879,6.2648,6.2313,6.2294,6.24,6.2557,6.226,6.2188,6.2194,6.2185,6.2315,6.2315,6.2087,6.199,6.2131,6.2288,6.198,6.1842,6.2063,6.2436,6.252,6.2332,6.1881,6.2106,6.2228,6.2595,6.2524,6.2175,6.2086,6.2167,6.2508,6.2733,6.2437,6.2136,6.2228,6.2692,6.2693,6.2546,6.2591,6.2387,6.2527,6.2505,6.2451,6.2483,6.2472,6.2572,6.2525,6.2449,6.2305,6.2236,6.223,6.2571,6.2587,6.2232,6.2147,6.2382,6.2964,6.331,6.3182,6.2951,6.2983,6.3118,6.3507,6.3514,6.3691,6.3665,6.3586,6.3478,6.3071,6.294,6.2819,6.282,6.2702,6.2473,6.2153,6.2362,6.2672,6.2732,6.2601,6.2283,6.2183,6.2403,6.2603,6.2589,6.2816,6.243,6.2325,6.2349,6.2477,6.289,6.3474,6.5074,6.6811,6.8203,6.7956,6.6561,6.3169,5.9165,5.6473,5.7256,5.9193,6.0133,6.1548,6.2023,6.2442,6.2379,6.269,6.2676,6.2834,6.2609,6.2647,6.2843,6.3265,6.3066,6.2741,6.2552,6.2551,6.2706,6.3085,6.3041,6.3132,6.3204,6.312,6.3189,6.3214,6.311,6.329,6.3593,6.3744,6.3758,6.3859,6.3989,6.3939,6.3868,6.3713,6.3764,6.3888,6.4307,6.4723,6.4802,6.4638,6.4787,6.5127,6.5445,6.5611,6.5637,6.57,6.606,6.6522,6.6857,6.642,6.6262,6.6315,6.6708,6.6916,6.6857,6.6775,6.6896,6.691,6.6796,6.6655,6.6269,6.5765,6.5527,6.5496,6.5226,6.4877,6.4491,6.409,6.4028,6.3753,6.359,6.3623,6.3582,6.3625,6.3459,6.314,6.321,6.3346,6.354,6.3306,6.3077,6.3429,6.3427,6.3316,6.319,6.3083,6.3107,6.3337,6.3382,6.3314,6.3109,6.3093,6.3226,6.3465,6.37,6.3679,6.3307,6.3282,6.3375,6.359,6.3596,6.3443,6.3559,6.3545,6.3691,6.3629,6.3676,6.3692,6.3587,6.3462,6.3385,6.3428,6.3563,6.366,6.3701,6.3628,6.3549,6.3433,6.3514,6.3825,6.379,6.3587,6.3577,6.3578,6.3737,6.3838,6.3731,6.3537,6.3486,6.3783,6.368,6.3256,6.3676,6.3674,6.4061,6.4406,6.4383,6.4109,6.4104,6.4365,6.4781,6.51,6.5022,6.4797,6.4682,6.4624,6.4478,6.4028,6.3987,6.3888,6.3925,6.4018,6.363,6.3599,6.3518,6.3738,6.3699,6.3665,6.3576,6.354,6.3705,6.4016,6.385,6.3855,6.3776,6.3875,6.4016,6.4581,6.5885,6.7498,6.874,6.9273,6.8154,6.4864,6.26,5.9958,5.9245,6.0596,6.1037,6.1632,6.2714,6.3714,6.4107,6.3877,6.3763,6.3811,6.4147,6.4133,6.4106,6.4206,6.4287,6.4478,6.4256,6.4365,6.443,6.4453,6.4353,6.4445,6.4316,6.4171,6.4281,6.463,6.4707,6.4527,6.436,6.4539,6.4989,6.5326,6.4835,6.4619,6.4506,6.5051,6.5396,6.5369,6.5307,6.5302,6.5491,6.6197,6.616,6.5946,6.5963,6.6228,6.6616,6.678,6.6843,6.726,6.7158,6.746,6.7571,6.7301,6.7267,6.7585,6.79,6.7833,6.7744,6.7399,6.7362,6.7462,6.7596,6.7468,6.7271,6.6719,6.6181,6.5861,6.5709,6.547,6.5458,6.525,6.5197,6.4844,6.4538,6.4412,6.48,6.4715,6.4466,6.4398,6.4438,6.4623,6.4388,6.4091,6.4125,6.4143,6.426,6.464,6.4644,6.4261,6.4214,6.4299,6.4345,6.428,6.4288,6.4438,6.466,6.4806,6.4902,6.4437,6.4346,6.4345,6.4539,6.4594,6.4404,6.4402,6.4504,6.4729,6.4928,6.4717,6.439,6.4304,6.4505,6.463,6.4419,6.4274,6.4436,6.47,6.4534,6.4474,6.4478,6.4631,6.4725,6.4988,6.5119,6.5172,6.5182,6.5216,6.5096,6.4855,6.4669,6.4565,6.4277,6.4193,6.4217,6.4064,6.416,6.3848,6.402,6.3903,6.3573,6.3406,6.3559,6.3746,6.3974,6.3797,6.3468,6.3471,6.369,6.3773,6.3529,6.3637,6.4395,6.594,6.7321,6.8644,6.9184,6.8117,6.4864,6.1388,5.8949,5.9798,6.0545,6.1142,6.2039,6.2298,6.2785,6.2944,6.3642,6.3705,6.3562,6.3255,6.3461,6.364,6.3752,6.3447,6.3495,6.3434,6.3751,6.3967,6.3819,6.3766,6.3778,6.3856,6.3879,6.3824,6.3767,6.3742,6.3916,6.3741,6.3856,6.3854,6.3963,6.3951,6.4055,6.4425,6.4398,6.4305,6.441,6.4861,6.5029,6.4905,6.4492,6.4742,6.5175,6.5685,6.5805,6.5757,6.5685,6.5996,6.6247,6.6346,6.6543,6.651,6.6632,6.7033,6.7229,6.675,6.6344,6.6426,6.6614,6.6817,6.6294,6.6025,6.5928,6.5748,6.525,6.4737,6.4333,6.4143,6.4039,6.4346,6.3956,6.3703,6.3403,6.3396,6.345,6.3148,6.2982,6.3102,6.3128,6.3189,6.3208,6.2799,6.2829,6.2923,6.31,6.2954,6.2737,6.2747,6.2843,6.2908,6.3024,6.3048,6.2951,6.2968,6.3157,6.3151,6.292,6.2936,6.31,6.3297,6.3398,6.3159,6.2851,6.289,6.3238,6.3568,6.3372,6.3343,6.3325,6.342,6.3334,6.3145,6.3014,6.3136,6.3247,6.3306,6.3233,6.315,6.3027,6.2937,6.3027,6.3108,6.3164,6.3346,6.3689,6.403,6.4056,6.3585,6.3433,6.4183,6.4735,6.4467,6.4022,6.3585,6.3629,6.3723,6.3654,6.3331,6.3118,6.2961,6.3165,6.3099,6.3021,6.2904,6.2918,6.3069,6.3249,6.3198,6.3247,6.2718,6.3075,6.311,6.3097,6.2674,6.2556,6.274,6.3169,6.4126,6.5309,6.6882,6.8566,6.9013,6.7456,6.3337,5.9424,5.7685,5.7548,5.9219,6.0056,6.1016,6.195,6.2337,6.2695,6.2686,6.2523,6.2653,6.2916,6.3032,6.2746,6.2756,6.2895,6.3091,6.314,6.2781,6.2635,6.2681,6.3003,6.3187,6.3052,6.3067,6.2774,6.3046,6.3371,6.3295,6.3072,6.319,6.3298,6.346,6.3369,6.3272,6.3355,6.3603,6.4028,6.4038,6.3641,6.4014,6.429,6.4499,6.457,6.4477,6.4493,6.489,6.5318,6.5444,6.5699,6.5635,6.5847,6.6235,6.612,6.626,6.6127,6.6073,6.6272,6.6304,6.618,6.6221,6.6267,6.5845,6.5707,6.5452,6.5023,6.4899,6.4768,6.4606,6.4302,6.3612,6.32,6.3213,6.3545,6.3358,6.3126,6.321,6.3365,6.339,6.3563,6.3036,6.2939,6.2904,6.32,6.3499,6.3478,6.3227,6.2972,6.3095,6.3439,6.3211,6.3083,6.3221,6.3206,6.3512,6.3502,6.3715,6.3646,6.3582,6.3682,6.3388,6.3453,6.3586,6.347,6.3522,6.3623,6.352,6.3522,6.3649,6.3839,6.3919,6.3514,6.3232,6.3527,6.3781,6.3627,6.358,6.3515,6.3751,6.4007,6.3737,6.3324,6.3348,6.351,6.3616,6.3671,6.362,6.3301,6.3325,6.3436,6.3426,6.3334,6.3369,6.3573,6.3875,6.3815,6.3411,6.3332,6.3816,6.4037,6.3914,6.3656,6.3979,6.4101,6.4395,6.4457,6.4325,6.402,6.379,6.369,6.3532,6.3313,6.2865,6.2914,6.2775,6.2934,6.3081,6.3001,6.2894,6.3136,6.2923,6.2851,6.2746,6.2864,6.2903,6.3065,6.329,6.2948,6.2665,6.2965,6.3794,6.5225,6.6777,6.8061,6.8429,6.7368,6.4055,5.9733,5.6657,5.7783,5.9606,6.0408,6.1512,6.2013,6.2344,6.2718,6.3125,6.2961,6.2659,6.2623,6.3018,6.3158,6.3128,6.2957,6.2945,6.2992,6.3505,6.339,6.3172,6.2955,6.304,6.3245,6.3308,6.3268,6.3167,6.316,6.3603,6.3732,6.3664,6.343,6.352,6.3948,6.4124,6.3766,6.3321,6.3539,6.4113,6.438,6.4248,6.4325,6.4535,6.4789,6.5094,6.5144,6.5241,6.5545,6.5616,6.5852,6.6062,6.5927,6.5959,6.6187,6.6602,6.647,6.6219,6.6464,6.6834,6.6835,6.6629,6.6326,6.6117,6.5873,6.5643,6.5543,6.507,6.4699,6.4541,6.4285,6.4169,6.4201,6.3763,6.338,6.3191,6.3423,6.3419,6.33,6.3109,6.3409,6.364,6.344,6.3118,6.3071,6.3409,6.3454,6.3169,6.3162,6.324,6.3429,6.3633,6.3444,6.3224,6.3223,6.3244,6.3461,6.3494,6.3544,6.339,6.3464,6.3942,6.3785,6.3554,6.353,6.3448,6.3548,6.3665,6.3652,6.3631,6.3607,6.3683,6.3948,6.3777,6.3706,6.3697,6.3778,6.3954,6.3811,6.3607,6.3727,6.3756,6.388,6.3896,6.3737,6.3793,6.3831,6.3727,6.3675,6.3743,6.3896,6.4027,6.3923,6.3829,6.3653,6.3615,6.3784,6.4096,6.404,6.4071,6.3982,6.3893,6.3878,6.396,6.3873,6.4109,6.4058,6.4119,6.3935,6.3793,6.3675,6.3708,6.3927
