5.3304,5.3467,5.3532,5.3719,5.3849,5.3983,5.3851,5.3736,5.3861,5.3809,5.3963,5.3849,5.3895,5.3797,5.3692,5.3574,5.3376,5.344,5.3112,5.2935,5.2794,5.2795,5.2821,5.2945,5.3018,5.2833,5.273,5.2646,5.26,5.2792,5.2782,5.2642,5.2603,5.2804,5.2841,5.2795,5.2725,5.2747,5.2817,5.2927,5.2915,5.2862,5.2913,5.2875,5.3066,5.3322,5.3759,5.4552,5.5926,5.7721,5.9562,5.958,5.6672,5.3052,5.1122,5.0922,5.1192,5.1909,5.278,5.3106,5.3321,5.3179,5.3176,5.3176,5.3115,5.3151,5.3127,5.3082,5.3335,5.3462,5.3492,5.3429,5.3319,5.3363,5.3469,5.3442,5.3455,5.34,5.3397,5.3358,5.3485,5.3473,5.3422,5.341,5.3473,5.3599,5.3657,5.3578,5.3594,5.3728,5.3758,5.3829,5.3842,5.3932,5.4239,5.4173,5.413,5.438,5.4501,5.4583,5.4654,5.4699,5.4768,5.4954,5.5017,5.4891,5.5119,5.5186,5.5155,5.5261,5.5366,5.5313,5.534,5.5125,5.4848,5.4771,5.4803,5.4532,5.4142,5.3952,5.3827,5.3779,5.3496,5.3389,5.3177,5.2987,5.2949,5.293,5.2901,5.2816,5.2729,5.2757,5.2791,5.2725,5.2569,5.2586,5.2715,5.2603,5.2591,5.2516,5.2409,5.2474,5.2594,5.2591,5.2373,5.2468,5.2561,5.2496,5.2636,5.2537,5.2436,5.2538,5.2641,5.264,5.2453,5.2421,5.2499,5.2564,5.2441,5.2412,5.2431,5.2456,5.2434,5.239,5.2365,5.2277,5.2212,5.23,5.2283,5.2265,5.2204,5.2207,5.228,5.2323,5.2335,5.216,5.2261,5.2345,5.2429,5.2421,5.2471,5.2649,5.2742,5.2729,5.2627,5.2488,5.2616,5.2714,5.2916,5.2838,5.2636,5.2415,5.2455,5.2357,5.2129,5.1987,5.1897,5.1933,5.1721,5.1649,5.164,5.1575,5.1657,5.1668,5.1654,5.1645,5.1461,5.1523,5.1548,5.148,5.1367,5.1402,5.1422,5.1671,5.1562,5.1476,5.1408,5.1549,5.1574,5.1418,5.1339,5.1464,5.1692,5.148,5.2438,5.3473,5.4798,5.6326,5.7879,5.7773,5.4874,5.1613,4.9938,4.9853,4.9918,5.0524,5.1212,5.1762,5.1866,5.185,5.1703,5.1731,5.1614,5.1721,5.1761,5.1841,5.1791,5.173,5.1739,5.1871,5.1783,5.172,5.1771,5.1764,5.1757,5.1904,5.1933,5.1972,5.1915,5.2009,5.2057,5.2036,5.1925,5.1955,5.2137,5.2223,5.2133,5.2186,5.2307,5.2316,5.2393,5.2429,5.2413,5.2459,5.2563,5.2637,5.2884,5.2934,5.2885,5.3155,5.3321,5.3353,5.3361,5.3507,5.3584,5.3528,5.3522,5.3519,5.3654,5.3632,5.3735,5.3599,5.3572,5.3363,5.3054,5.3005,5.2752,5.2491,5.2429,5.2025,5.2015,5.1855,5.1651,5.1656,5.1625,5.1596,5.1617,5.1472,5.1407,5.1305,5.1366,5.1468,5.1415,5.1217,5.1312,5.1425,5.1379,5.1402,5.1392,5.1405,5.1429,5.1421,5.1479,5.1385,5.1412,5.1492,5.1537,5.1553,5.1503,5.1458,5.1517,5.144,5.1499,5.1474,5.1497,5.148,5.1505,5.1509,5.1568,5.1392,5.1505,5.143,5.1506,5.1452,5.1337,5.1477,5.1579,5.1601,5.1705,5.1921,5.1918,5.2084,5.2215,5.209,5.1775,5.1982,5.2176,5.2289,5.2148,5.2174,5.2087,5.2026,5.1893,5.1734,5.1589,5.1438,5.1362,5.133,5.1333,5.1249,5.1281,5.1204,5.13,5.1256,5.1225,5.1211,5.1198,5.1215,5.1185,5.1261,5.1194,5.1254,5.1327,5.1161,5.1223,5.1219,5.1149,5.1277,5.1296,5.1399,5.1253,5.1358,5.1558,5.1895,5.2777,5.3983,5.541,5.7088,5.8121,5.6222,5.3051,5.0155,4.9614,4.9571,4.9942,5.0752,5.1376,5.1767,5.1666,5.1709,5.163,5.1553,5.1506,5.17,5.167,5.1684,5.1654,5.1673,5.177,5.187,5.1658,5.1736,5.1579,5.188,5.1735,5.1775,5.1905,5.1922,5.1817,5.192,5.2015,5.1983,5.1923,5.2055,5.2011,5.2106,5.2142,5.216,5.2219,5.236,5.2367,5.2435,5.2452,5.2687,5.2853,5.2914,5.3028,5.3053,5.319,5.3322,5.3423,5.3442,5.3485,5.3579,5.3634,5.3763,5.3706,5.3876,5.3863,5.3796,5.371,5.3615,5.3481,5.3204,5.2965,5.2948,5.2637,5.2397,5.2223,5.2051,5.2109,5.1979,5.1783,5.1718,5.171,5.1564,5.1536,5.1502,5.1418,5.1405,5.1538,5.1502,5.146,5.1416,5.141,5.1464,5.1512,5.1393,5.1432,5.1449,5.1409,5.1373,5.1397,5.1362,5.1433,5.1479,5.1482,5.1285,5.1408,5.1424,5.1484,5.1413,5.1348,5.137,5.1356,5.1443,5.1496,5.1365,5.1431,5.1427,5.1424,5.1374,5.1416,5.129,5.1392,5.1387,5.1349,5.1288,5.1278,5.1193,5.1423,5.1289,5.1263,5.1241,5.1327,5.1286,5.1338,5.139,5.1374,5.1529,5.1614,5.1634,5.1764,5.1887,5.1938,5.1965,5.1784,5.1898,5.1822,5.1972,5.2005,5.1953,5.1743,5.1677,5.162,5.1457,5.1397,5.1271,5.0984,5.1104,5.1076,5.1114,5.1145,5.0981,5.0985,5.1133,5.1147,5.0979,5.0944,5.0983,5.0988,5.0952,5.0958,5.0973,5.0997,5.0913,5.1025,5.1076,5.1107,5.0987,5.1074,5.1047,5.1108,5.1463,5.1759,5.2737,5.4081,5.5515,5.7384,5.7842,5.5424,5.2035,4.9565,4.9181,4.9441,5.007,5.095,5.1568,5.1535,5.1389,5.1431,5.1459,5.1576,5.1598,5.136,5.1353,5.1529,5.1613,5.1642,5.1497,5.1599,5.1616,5.173,5.1697,5.159,5.1754,5.1757,5.1692,5.171,5.17,5.179,5.1898,5.1919,5.1932,5.1959,5.1944,5.1996,5.2121,5.2166,5.2217,5.2188,5.2337,5.2476,5.2568,5.2635,5.2729,5.276,5.275,5.299,5.3165,5.3187,5.3332,5.3476,5.3565,5.365,5.3693,5.3671,5.377,5.3878,5.3803,5.3876,5.3766,5.3679,5.35,5.3395,5.3149,5.2905,5.2626,5.2437,5.2417,5.2197,5.201,5.174,5.1725,5.1847,5.1734,5.1628,5.1571,5.1623,5.1473,5.1486,5.1368,5.1442,5.1592,5.1617,5.1607,5.1469,5.1449,5.1477,5.1496,5.1524,5.1505,5.1552,5.159,5.1587,5.1653,5.1517,5.1546,5.1562,5.171,5.1592,5.1493,5.1651,5.1694,5.1699,5.1573,5.1675,5.1619,5.1618,5.1612,5.1422,5.1518,5.1615,5.1613,5.1507,5.1555,5.1683,5.1566,5.1468,5.1497,5.153,5.1569,5.1469,5.1633,5.163,5.1593,5.1567,5.1477,5.1443,5.1488,5.1553,5.1566,5.1548,5.1494,5.146,5.1613,5.1698,5.1859,5.1904,5.204,5.2133,5.2161,5.215,5.2018,5.2234,5.2355,5.2286,5.2197,5.2117,5.2076,5.198,5.2018,5.1875,5.1742,5.1507,5.145,5.1453,5.1344,5.1329,5.129,5.1333,5.1328,5.1256,5.122,5.127,5.1358,5.143,5.1334,5.1211,5.1213,5.1219,5.1365,5.1321,5.1417,5.1301,5.1329,5.1385,5.1359,5.1412,5.1368,5.1719,5.2008,5.2719,5.3935,5.5365,5.7104,5.836,5.693,5.343,5.0121,4.9431,4.9659,5.0197,5.0963,5.1595,5.1761,5.1686,5.1753,5.1723,5.1738,5.1748,5.1848,5.1855,5.1816,5.1744,5.1939,5.2004,5.1942,5.184,5.1991,5.1958,5.2131,5.2076,5.1922,5.1986,5.1974,5.2051,5.2131,5.2131,5.2261,5.2227,5.2318,5.234,5.2395,5.2302,5.2504,5.2548,5.2637,5.2672,5.2636,5.2728,5.2786,5.2965,5.3124,5.3267,5.333,5.3479,5.36,5.3656,5.3695,5.3781,5.3947,5.3951,5.3994,5.4139,5.4129,5.4053,5.4247,5.4219,5.4092,5.3812,5.3691,5.369,5.3363,5.3207,5.2954,5.2778,5.2598,5.2463,5.2279,5.2124,5.2157,5.2072,5.1886,5.1949,5.1874,5.1835,5.1862,5.1855,5.1809,5.1697,5.1739,5.1871,5.1796,5.1771,5.1709,5.1833,5.1939,5.2011,5.1998,5.1874,5.1886,5.1878,5.1932,5.1974,5.1861,5.1795,5.1843,5.1945,5.1905,5.195,5.1975,5.1896,5.1852,5.1844,5.1862,5.1862,5.1843,5.1891,5.1838,5.1844,5.1841,5.1858,5.1855,5.1853,5.1714,5.1829,5.1831,5.1926,5.1919,5.1788,5.1696,5.1818,5.1751,5.1753,5.168,5.1686,5.1706,5.1595,5.1763,5.1837,5.17,5.1798,5.1982,5.2089,5.2215,5.2348,5.2276,5.2258,5.2277,5.2438,5.2358,5.2423,5.2452,5.2362,5.2297,5.2118,5.206,5.1987,5.1862,5.1609,5.1557,5.1347,5.136,5.1408,5.1434,5.1353,5.1336,5.1257,5.1273,5.1322,5.1294,5.1247,5.1293,5.1202,5.1345,5.1355,5.1297,5.1188,5.114,5.1195,5.1158,5.1145,5.1141,5.1225,5.1208,5.1306,5.1814,5.2393,5.3523,5.4995,5.6665,5.7935,5.6986,5.3916,5.0377,4.9452,4.9462,4.9537,5.0405,5.1248,5.1593,5.1439,5.1415,5.1219,5.1467,5.1404,5.1419,5.1397,5.1328,5.1471,5.1563,5.1439,5.1529,5.1462,5.1528,5.1655,5.1604,5.1628,5.1641,5.1744,5.1785,5.1788,5.1645,5.1589,5.1695,5.1715,5.1838,5.1763,5.1844,5.189,5.2007,5.196,5.1958,5.2035,5.2164,5.2281,5.2445,5.2461,5.2465,5.2628,5.2759,5.2932,5.2956,5.3004,5.3079,5.3137,5.3345,5.3382,5.3413,5.3451,5.3585,5.3609,5.3525,5.3427,5.336,5.3389,5.3099,5.3059,5.2773,5.26,5.2444,5.2145,5.2048,5.1915,5.1691,5.1645,5.1573,5.1555,5.1479,5.1336,5.1327,5.1212,5.1203,5.1262,5.1147,5.1207,5.1285,5.1364,5.1182,5.1206,5.1192,5.1238,5.1252,5.135,5.1205,5.127,5.1218,5.1218,5.1313,5.1264,5.1311,5.1538,5.1413,5.1337,5.1331,5.1287,5.1317,5.1261,5.1219,5.1208,5.1277,5.1311,5.1242,5.1318,5.1221,5.1208,5.1234,5.1244,5.1273,5.1063,5.1055,5.1031,5.1256,5.1304,5.1504,5.1368,5.1658,5.1791,5.184,5.171,5.1615,5.1813,5.1879,5.1944,5.1933,5.1872,5.1673,5.1726,5.1703,5.156,5.1479,5.1239,5.1033,5.1147,5.1022,5.1053,5.104,5.1042,5.0987,5.0806,5.0917,5.0923,5.0991,5.0987,5.0953,5.0931,5.093,5.097,5.0972,5.1057,5.0969,5.0904,5.1066,5.1091,5.1036,5.0963,5.1058,5.1228,5.1529,5.219,5.3247,5.4574,5.6075,5.7548,5.7008,5.5598,5.2675,4.9999,4.9732,4.9499,4.9905,5.0475,5.1261,5.1612,5.1551,5.1453,5.136,5.1438,5.1478,5.149,5.1552,5.1605,5.1606,5.1691,5.1638,5.1692,5.1615,5.1576,5.1635,5.1662,5.1788,5.1833,5.1829,5.1824,5.1884,5.1983,5.1945,5.1842,5.1876,5.1975,5.206,5.2101,5.2078,5.2169,5.2263,5.2397,5.2433,5.2439,5.2445,5.2581,5.2771,5.2965,5.2982,5.3115,5.3214,5.3177,5.3348,5.3527,5.3537,5.3509,5.3614,5.3747,5.3792,5.3825,5.3951,5.3797,5.3689,5.3672,5.349,5.3327,5.3173,5.3033,5.2709,5.2477,5.2446,5.2304,5.2206,5.2045,5.1951,5.1832,5.1852,5.1737,5.1708,5.1708,5.1748,5.18,5.1707,5.1685,5.1545,5.1583,5.1813,5.1754,5.1706,5.1631,5.1679,5.1784,5.1733,5.1795,5.1801,5.1848,5.1953,5.1879,5.1982,5.1882,5.1867,5.1934,5.1904,5.1919,5.189,5.1875,5.1941,5.1944,5.1873,5.1932,5.187,5.1881,5.1859,5.1985,5.1952,5.1995,5.2002,5.1929,5.1967,5.1999,5.1909,5.2055,5.2283,5.2378,5.2374,5.2563,5.2679,5.2613,5.2447,5.2406,5.2563,5.2594,5.2672,5.2652,5.259,5.2442,5.2413,5.2349,5.2164,5.2004,5.1724,5.1611,5.1688,5.174,5.1733,5.1707,5.1814,5.184,5.1761,5.1747,5.1555,5.1618,5.1775,5.179,5.1768,5.1692,5.1758,5.1799,5.1837,5.1735,5.1781,5.1734,5.1744,5.184,5.1902,5.2082,5.2263,5.3025,5.4054,5.5525,5.7179,5.8604,5.7754,5.4533,5.1073,4.9767,4.9802,5.029,5.1203,5.1912,5.2253,5.2073,5.2043,5.203,5.2164,5.219,5.212,5.2042,5.2201,5.2283,5.2228,5.2256,5.2278,5.222,5.2342,5.231,5.2266,5.2272,5.2326,5.2417,5.2331,5.2283,5.2467,5.2581,5.2649,5.2575,5.2588,5.261,5.2603,5.2671,5.271,5.2707,5.286,5.2905,5.3017,5.2979,5.3152,5.3226,5.3411,5.3707,5.3706,5.374,5.3708,5.3924,5.4024,5.4159,5.427,5.4257,5.4274,5.4367,5.4413,5.446,5.4407,5.4223,5.423,5.4127,5.3888,5.3682,5.3512,5.3328,5.3151,5.2765,5.2604,5.258,5.2481,5.2408,5.2255,5.2175,5.2106,5.2027,5.2106,5.2097,5.2096,5.1957,5.2003,5.2036,5.2026,5.2011,5.1873,5.1879,5.1996,5.1859,5.1793,5.1992,5.193,5.1919,5.1971,5.1848,5.1828,5.1906,5.1891,5.1872,5.1997,5.1948,5.1844,5.1848,5.1824,5.1893,5.1793,5.1819,5.18,5.1874,5.1809,5.1714,5.1766,5.1905,5.1847,5.1695,5.1558,5.1574,5.1694,5.182,5.1839,5.1682,5.1689,5.1893,5.1963,5.2049,5.2007,5.2177,5.2277,5.2367,5.2328,5.2259,5.2194,5.233,5.2452,5.232,5.2323,5.2263,5.2117,5.2082,5.1929,5.1773,5.1636,5.1273,5.1324,5.1363,5.1401,5.1338,5.1256,5.1407,5.124,5.1231,5.1187,5.1237,5.1208,5.1218,5.1208,5.1019,5.1118,5.116,5.1227,5.1138,5.1042,5.1073,5.1166,5.1268,5.1265,5.117,5.1323,5.1714,5.2551,5.379,5.5191,5.6896,5.8235,5.6725,5.3207,4.9945,4.9316,4.9303,4.9545,5.0234,5.1038,5.1468,5.136,5.148,5.1367,5.1454,5.1359,5.1511,5.1453,5.1522,5.1442,5.156,5.1468,5.1472,5.1496,5.1579,5.1583,5.1547,5.1604,5.1644,5.1561,5.1591,5.1546,5.1641,5.1757,5.1803,5.1666,5.1748,5.1762,5.1853,5.1841,5.1838,5.1867,5.1919,5.209,5.207,5.2213,5.2204,5.2383,5.2525,5.2528,5.2623,5.2773,5.2866,5.2966,5.3032,5.3162,5.3236,5.3282,5.3316,5.3281,5.3458,5.3376,5.336,5.3387,5.3295,5.313,5.3023,5.2794,5.2565,5.2382,5.224,5.2014,5.1686,5.1588,5.143,5.1331,5.1166,5.1034,5.1077,5.1075,5.0907,5.0869,5.0737,5.0854,5.0842,5.0922,5.0842,5.0808,5.0651,5.0744,5.0724,5.0882,5.0826,5.0837,5.0904,5.0842,5.0863,5.0854,5.083,5.0889,5.0778,5.0893,5.0752,5.0769,5.0864,5.0881,5.0918,5.0796,5.0719,5.0721,5.0841,5.0759,5.0607,5.0707,5.072,5.0743,5.0789,5.0677,5.0579,5.0596,5.0637,5.0625,5.0666,5.0631,5.0693,5.0557,5.0615,5.0565,5.0638,5.0786,5.0908,5.096,5.1044,5.1195,5.1246,5.1114,5.1201,5.1263,5.1271,5.1242,5.1195,5.1071,5.0994,5.099,5.0844,5.079,5.0457,5.0384,5.0284,5.0148,5.0282,5.0186,5.0264,5.0249,5.0076,5.0166,5.0306,5.0186,5.0134,5.0166,5.0253,5.021,5.0176,5.0053,5.0099,5.0205,5.0357,5.0308,5.0175,5.0251,5.0209,5.0226,5.0391,5.0623,5.1167,5.2463,5.3947,5.5509,5.7059,5.6429,5.322,4.9658,4.8343,4.8224,4.8656,4.9502,5.0164,5.0472,5.0332,5.046,5.0413,5.0412,5.0412,5.0444,5.0504,5.0405,5.0414,5.0607,5.0492,5.0364,5.0391,5.0594,5.0554,5.055,5.0517,5.0432,5.0562,5.058,5.0654,5.0584,5.0586,5.0646,5.0674,5.0795,5.0651,5.0706,5.0746,5.0949,5.0999,5.094,5.0887,5.097,5.1156,5.1162,5.1268,5.1273,5.1432,5.1567,5.1605,5.1757,5.1724,5.1809,5.195,5.2032,5.2015,5.1965,5.2118,5.2153,5.2167,5.2285,5.2127,5.2021,5.1938,5.1657,5.146,5.1243,5.1073,5.0917,5.0664,5.0356,5.0285,5.0176,5.0146,4.987,4.993,4.977,4.9655,4.9653,4.9688,4.9683,4.9584,4.9589,4.952,4.9625,4.9621,4.9505,4.9488,4.9641,4.9631,4.9479,4.9513,4.9611,4.9646,4.9626,4.9655,4.9701,4.9692,4.9722,4.9639,4.9579,4.9631,4.9456,4.9452,4.9578,4.9552,4.9525,4.9517,4.9553,4.9641,4.9592,4.9475,4.9563,4.9576,4.9533,4.9478,4.9534,4.9404,4.9428,4.9592,4.9636,4.9721,4.9804,4.9858,4.9944,4.9928,4.9798,5.006,5.0067,5.0111,5.0089,4.9935,4.9872,4.9753,4.9748,4.9707,4.9577,4.9384,4.9134,4.8978,4.8993,4.9021,4.9107,4.9062,4.8949,4.8907,4.8835,4.887,4.8854,4.8874,4.8866,4.8923,4.889,4.8826,4.8873,4.8866,4.8908,4.8903,4.877,4.8817,4.8871,4.8957,4.8964,4.9024,4.9339,4.9928,5.104,5.2335,5.3865,5.5332,5.4894,5.2123,4.9073,4.7636,4.7438,4.7301,4.7679,4.8337,4.9072,4.9192,4.9215,4.9199,4.9196,4.9115,4.9215,4.9133,4.9238,4.9258,4.9135,4.9147,4.9242,4.9268,4.9313,4.9324,4.929,4.9336,4.9324,4.9504,4.9417,4.9386,4.937,4.9409,4.96,4.9436,4.9486,4.9546,4.9619,4.9666,4.9687,4.9691,4.9789,4.996,5.0104,5.0112,5.0087,5.0133,5.0228,5.0473,5.0512,5.0668,5.0588,5.0757,5.0973,5.1147,5.1088,5.1185,5.1236,5.1392,5.1449,5.1437,5.1369,5.1351,5.1366,5.103,5.0993,5.088,5.0782,5.0522,5.0274,5.0221,5.0051,4.9888,4.9644,4.953,4.954,4.9435,4.9409,4.9387,4.9398,4.9453,4.9417,4.942,4.9434,4.9447,4.9402,4.9492,4.9471,4.9323,4.9408,4.9342,4.9268,4.935,4.9438,4.956,4.9511,4.9504,4.9468,4.9445,4.957,4.9557,4.9567,4.9475,4.9413,4.9522,4.9529,4.9612,4.9538,4.9444,4.9531,4.9585,4.9548,4.9616,4.9737,4.9904,4.9984,5.0148,5.0152,5.0111,5.0013,4.9928,5.0172,5.0205,5.0348,5.0221,5.022,5.003,4.9954,4.9877,4.9797,4.9726,4.9569,4.9495,4.9301,4.928,4.9255,4.9339,4.9302,4.9315,4.9285,4.9287,4.931,4.9295,4.9275,4.9275,4.9232,4.9235,4.9229,4.9151,4.9182,4.9274,4.9371,4.9389,4.9197,4.9254,4.9332,4.9479,4.9813,5.0074,5.0958,5.2386,5.4042,5.5742,5.5895,5.3146,4.9934,4.8093,4.7585,4.77,4.7973,4.8753,4.9574,4.9869,4.9807,4.9739,4.9725,4.98,4.9819,4.9796,4.9738,4.9868,4.9899,4.9955,4.9976,4.9942,4.9945,5.005,5.0062,5.0105,5.0019,4.9983,5.0067,5.0275,5.0276,5.0156,5.026,5.0366,5.0387,5.0402,5.0275,5.0285,5.0416,5.0548,5.0622,5.0727,5.069,5.0857,5.0913,5.1042,5.1238,5.1214,5.1336,5.146,5.1715,5.1661,5.1735,5.1875,5.1972,5.2137,5.2141,5.2151,5.2251,5.2241,5.2251,5.2215,5.2159,5.1989,5.183,5.1592,5.1366,5.1289,5.1195,5.0956,5.0875,5.0579,5.0424,5.0315,5.0277,5.0196,5.0082,5.0039,5.016,5.0115,5.0092,5.0077,5.0109,4.9925,5.0014,5.0148,5.0089,5.0013,5.0006,5.0013,4.9973,5.0009,5.0145,5.0161,5.0023,5.0205,5.0199,5.0111,5.0043,5.0234,5.0158,5.0101,5.0168,5.0151,5.0174,5.0199,5.025,5.0168,5.011,5.0159,5.0218,5.0349,5.0301,5.0118,5.018,5.0323,5.0513,5.0618,5.059,5.0717,5.0843,5.0939,5.0839,5.0684,5.0646,5.0835,5.0985,5.0792,5.0811,5.0769,5.0745,5.0691,5.0553,5.0367,5.0185,5.0041,5.0021,5.0007,4.9947,4.9945,4.989,5.0054,4.9902,4.9901,4.9957,4.9952,5.0098,5.0084,4.9974,4.9964,4.9959,4.9946,5.0033,5.0056,5.0001,4.9989,5.0022,5.0054,5.0078,5.0195,5.0455,5.1181,5.2271,5.3819,5.5449,5.6939,5.634,5.3182,4.9656,4.8249,4.8212,4.844,4.9201,4.9931,5.0431,5.0479,5.0556,5.0652,5.0564,5.0519,5.0499,5.0577,5.0703,5.0643,5.0614,5.0557,5.0725,5.0729,5.0709,5.0689,5.0717,5.0781,5.0795,5.0809,5.0855,5.0886,5.0859,5.0876,5.0995,5.0963,5.0896,5.0985,5.1208,5.1221,5.1167,5.1088,5.125,5.1445,5.1446,5.156,5.1597,5.1704,5.1805,5.19,5.1993,5.2131,5.2152,5.2369,5.2436,5.2654,5.2624,5.2519,5.2668,5.2887,5.3079,5.2903,5.2755,5.2833,5.2835,5.2656,5.2487,5.2195,5.2096,5.1887,5.1767,5.1588,5.1349,5.1208,5.11,5.1045,5.091,5.0719,5.0679,5.0814,5.08,5.0656,5.058,5.0634,5.0642,5.0667,5.0595,5.0551,5.0604,5.0676,5.0493,5.0475,5.0535,5.0517,5.0605,5.0629,5.073,5.0704,5.0665,5.0657,5.0759,5.0608,5.0691,5.0679,5.0678,5.0654,5.0692,5.0643,5.0558,5.0566,5.0668,5.0713,5.0544,5.0509,5.0467,5.0428,5.0557,5.0585,5.052,5.0472,5.0565,5.0608,5.0607,5.0868,5.0904,5.1005,5.1295,5.1214,5.1067,5.1043,5.0922,5.118,5.1294,5.1293,5.1231,5.1187,5.1068,5.1122,5.0926,5.0633,5.0569,5.0446,5.0377,5.0271,5.0174,5.0182,5.0359,5.0298,5.022,5.019,5.0094,5.0124,5.0123,5.0128,5.0125,5.0081,5.0203,5.027,5.0129,5.0136,5.0185,5.0217,5.0193,5.0182,5.0181,5.0225,5.0385,5.0601,5.0992,5.1782,5.3161,5.3936,5.5615,5.7096,5.6387,5.3064,4.9404,4.8385,4.8317,4.8754,4.9559,5.038,5.064,5.0687,5.0564,5.052,5.0594,5.0655,5.0695,5.0603,5.0687,5.0741,5.0739,5.0785,5.0721,5.0671,5.0717,5.0778,5.077,5.0818,5.0754,5.0809,5.0864,5.084,5.0933,5.0956,5.1004,5.1008,5.1055,5.1054,5.1037,5.1042,5.1151,5.1263,5.1414,5.1384,5.1344,5.1521,5.1702,5.1814,5.1816,5.1965,5.2139,5.2377,5.2304,5.2357,5.2364,5.2665,5.2813,5.286,5.2825,5.2859,5.2931,5.2962,5.2977,5.2771,5.2692,5.2563,5.2596,5.2345,5.2124,5.1842,5.1587,5.1556,5.1423,5.1134,5.0927,5.0864,5.0924,5.0836,5.0747,5.0614,5.06,5.0653,5.0706,5.0592,5.0528,5.0527,5.0623,5.0717,5.0627,5.0593,5.0557,5.0511,5.0583,5.0749,5.0744,5.0604,5.0692,5.0783,5.0736,5.0666,5.0666,5.065,5.0717,5.0739,5.0721,5.0582,5.0581,5.0675,5.075,5.0703,5.0512,5.0588,5.069,5.0722,5.0573,5.0649,5.0655,5.0669,5.0708,5.0651,5.0615,5.0584,5.0537,5.0792,5.0833,5.0948,5.0948,5.1036,5.1247,5.1327,5.1302,5.1028,5.1195,5.1343,5.1416,5.1276,5.1233,5.1069,5.101,5.0971,5.081,5.0663,5.0555,5.0551,5.0416,5.0266,5.0084,5.0178,5.0365,5.0313,5.0329,5.0235,5.0186,5.0186,5.0291,5.0246,5.0162,5.0219,5.0336,5.0367,5.0277,5.0229,5.0291,5.0322,5.031,5.0171,5.0224,5.018,5.0339,5.0659,5.115,5.2311,5.3639,5.5326,5.7029,5.6889,5.3792,5.0101,4.8376,4.8239,4.871,4.9501,5.0329,5.0638,5.0648,5.072,5.0615,5.0703,5.0601,5.0673,5.0654,5.0655,5.0709,5.0637,5.0758,5.0834,5.0778,5.07,5.0684,5.0889,5.09,5.0778,5.084,5.0929,5.0967,5.0882,5.0942,5.0999,5.0986,5.1055,5.1117,5.1195,5.1181,5.1159,5.1301,5.131,5.1537,5.1425,5.158,5.1754,5.1806,5.1942,5.1991,5.1922,5.2022,5.2166,5.2431,5.2524,5.2474,5.2626,5.2747,5.2888,5.2918,5.2872,5.2848,5.2979,5.3023,5.2892,5.2634,5.2573,5.2338,5.2125,5.1918,5.1703,5.1518,5.1504,5.139,5.12,5.0882,5.0864,5.0952,5.0832,5.0866,5.0746,5.058,5.0647,5.0578,5.0638,5.0572,5.0615,5.062,5.0753,5.0586,5.0479,5.0481,5.0537,5.0601,5.0606,5.0667,5.0564,5.0684,5.0796,5.0611,5.0666,5.0621,5.0634,5.0677,5.0691,5.0609,5.0594,5.0709,5.064,5.0618,5.0588,5.0651,5.0631,5.0684,5.0664,5.0516,5.0398,5.0466,5.0494,5.0665,5.0541,5.051,5.0494,5.0571,5.0528,5.0526,5.0345,5.0396,5.0598,5.0575,5.0512,5.0444,5.046,5.0572,5.06,5.0755,5.0947,5.106,5.1043,5.1015,5.0895,5.0919,5.1007,5.0942,5.105,5.1154,5.105,5.078,5.0808,5.0786,5.0604,5.0341,5.0154,5.0134,5.0233,5.0095,5.0073,5.0057,4.9969,5.0045,5.0086,5.0058,4.9867,4.9832,5.0054,5.0004,4.9881,4.984,4.9895,4.9866,4.98,4.9889,4.9895,4.9903,4.9821,4.9914,4.988,4.9936,5.0302,5.0839,5.1799,5.3162,5.4755,5.6377,5.6516,5.3678,5.0093,4.8123,4.7943,4.821,4.8965,4.9762,5.0169,5.0278,5.0173,5.0228,5.0234,5.0117,5.0071,5.0131,5.0152,5.0212,5.0227,5.016,5.0133,5.0178,5.0298,5.0341,5.0178,5.0143,5.0134,5.0148,5.0203,5.0203,5.0213,5.019,5.0324,5.0448,5.0398,5.0347,5.0403,5.056,5.0558,5.0596,5.0541,5.0602,5.0755,5.089,5.0933,5.0915,5.1021,5.1158,5.1213,5.1409,5.1378,5.1654,5.1716,5.175,5.1838,5.203,5.1935,5.2047,5.2004,5.2053,5.2098,5.1936,5.2088,5.1976,5.1623,5.1405,5.1229,5.1113,5.0901,5.0577,5.0572,5.0291,5.025,4.9965,5.0043,4.9885,4.9891,4.9848,4.9824,4.9661,4.9543,4.9514,4.953,4.9618,4.9609,4.9542,4.9451,4.9557,4.9644,4.9603,4.9439,4.9551,4.966,4.9709,4.9719,4.9526,4.948,4.9495,4.9523,4.9599,4.9602,4.9442,4.9515,4.9454,4.9399,4.9566,4.949,4.9464,4.951,4.935,4.9332,4.9397,4.9218,4.9332,4.9421,4.9441,4.9369,4.9336,4.9285,4.9476,4.9329,4.9288,4.9192,4.9109,4.9283,4.9505,4.9487,4.9513,4.9733,4.9822,4.9756,4.9803,4.9681,4.9747,4.9789,4.9962,5.0099,4.9959,4.9912,4.991,4.9661,4.9563,4.9536,4.9397,4.9257,4.9088,4.9007,4.893,4.8977,4.8988,4.9058,4.8967,4.8975,4.8952,4.8968,4.905,4.8877,4.8858,4.8893,4.9004,4.9039,4.8944,4.8999,4.9006,4.9018,4.9028,4.9042,4.8946,4.8994,4.8904,4.9256,4.9743,5.0586,5.1762,5.3248,5.4017,5.5558,5.511,5.2113,4.8965,4.7733,4.7429,4.7476,4.8131,4.8832,4.9392,4.939,4.9453,4.9334,4.9324,4.9255,4.9344,4.9377,4.9423,4.9349,4.9421,4.9383,4.9459,4.9349,4.9437,4.9431,4.9642,4.9683,4.965,4.9629,4.959,4.9623,4.9627,4.9665,4.9716,4.9722,4.9797,4.9841,4.9872,4.9927,4.9906,5.0038,5.0155,5.0066,5.0278,5.0455,5.0583,5.0645,5.0667,5.0735,5.0939,5.1165,5.1202,5.1221,5.1381,5.1356,5.1492,5.1742,5.1667,5.1755,5.1692,5.1748,5.176,5.1844,5.1638,5.1494,5.1364,5.1252,5.1099,5.0817,5.0581,5.0415,5.0282,5.011,4.9984,4.9898,4.9883,4.9811,4.9822,4.9704,4.9632,4.9633,4.9631,4.9661,4.9659,4.9683,4.9517,4.9422,4.9624,4.9518,4.9537,4.9608,4.964,4.9702,4.9656,4.9608,4.9768,4.9714,4.983,4.9681,4.9809,4.9736,4.9793,4.9868,4.9842,4.9826,4.9703,4.9819,4.9824,4.9897,4.9695,4.9741,4.9786,4.9902,4.9913,4.981,4.9866,4.9782,4.9831,4.9752,4.9703,4.9797,4.9996,5.0049,5.0162,5.0275,5.0374,5.0463,5.0534,5.0569,5.0433,5.0488,5.0465,5.0658,5.056,5.0539,5.0346,5.028,5.0326,5.0157,5.0003,4.9823,4.9569,4.961,4.9736,4.9707,4.9528,4.9639,4.9736,4.9718,4.9651,4.9636,4.9578,4.9522,4.9707,4.9758,4.9628,4.9589,4.973,4.9732,4.9619,4.9586,4.9596,4.9731,4.9667,4.9739,4.9664,5.002,5.0592,5.15,5.2816,5.407,5.5667,5.6373,5.4279,5.1009,4.8332,4.7924,4.7988,4.8556,4.9428,4.9989,5.0063,4.9991,5.0204,5.0108,5.0036,4.9953,4.9987,5.005,5.0297,5.024,5.0235,5.0131,5.0239,5.0163,5.027,5.0177,5.0284,5.0337,5.0378,5.0256,5.0472,5.037,5.0406,5.038,5.0546,5.0416,5.0512,5.061,5.0593,5.0656,5.0636,5.0629,5.0874,5.0955,5.0838,5.0999,5.1026,5.1097,5.1356,5.1501,5.1571,5.1595,5.1709,5.1839,5.1989,5.2022,5.2069,5.2069,5.2229,5.2272,5.232,5.2417,5.2283,5.2266,5.2172,5.1958,5.1718,5.1571,5.1418,5.1198,5.0937,5.0739,5.0494,5.0483,5.0539,5.0408,5.0223,5.0098,5.003,5.0039,5.0099,5.019,5.0059,4.9858,4.9958,4.9964,4.9944,4.9949,4.985,4.999,5.0072,5.0051,5.0026,5.0054,5.0092,5.0063,4.9987,4.9988,4.9966,5.0123,5.0088,5.0095,4.9972,5.0079,5.0113,5.0112,5.0085,4.9988,4.9907,5.006,5.0093,5.0086,5.0003,4.9917,4.9994,5.0004,4.9931,4.9814,4.9849,4.9975,5.0076,4.9869,4.977,4.9919,4.9942,5.0093,5.0144,5.0257,5.0166,5.041,5.0712,5.0638,5.0616,5.0424,5.0512,5.0725,5.0801,5.0785,5.0567,5.0508,5.039,5.0435,5.0364,5.0102,4.9892,4.9849,4.9822,4.9696,4.9614,4.9576,4.9607,4.9645,4.9609,4.9647,4.9716,4.9644,4.9708,4.9763,4.9631,4.9527,4.9591,4.9648,4.9643,4.9654,4.968,4.9546,4.9748,4.9612,4.9526,4.9657,5,5.0313,5.089,5.2306,5.3735,5.5515,5.6523,5.6041,5.3047,4.9369,4.7698,4.7604,4.7945,4.8754,4.9603,4.9892,4.9948,4.9942,4.9973,4.9851,4.9967,5.0113,5.0089,4.9974,5.0049,5.0055,5.0175,5.016,5.0147,5.0107,5.0018,5.0102,5.0271,5.0221,5.0226,5.0126,5.0133,5.0232,5.0281,5.026,5.0219,5.0409,5.0528,5.0458,5.0453,5.0485,5.0646,5.0679,5.0676,5.0728,5.0774,5.0876,5.1026,5.1176,5.118,5.1361,5.1481,5.158,5.1662,5.1787,5.1843,5.1816,5.1961,5.2088,5.217,5.2192,5.2283,5.2282,5.2307,5.2166,5.2014,5.1718,5.1652,5.1516,5.1213,5.0854,5.0682,5.0588,5.0555,5.0318,5.0147,5.0081,5.0056,5.0006,4.9896,4.9849,4.9813,4.99,4.996,4.9957,4.9843,4.98,4.9685,4.9956,4.9919,4.9846,4.9784,4.9768,4.9863,4.9968,4.9873,4.9847,4.9951,4.9833,4.9754,4.9902,4.9974,4.9786,4.9843,4.9888,4.9967,4.9788,4.9861,4.9899,4.9843,4.9927,4.9869,4.9821,4.9736,4.9773,4.9829,4.9855,4.9751,4.973,4.9728,4.9813,4.9772,4.9771,4.9682,4.9772,4.9754,4.9737,4.9656,4.9637,4.9599,4.9689,4.9822,4.9903,4.9983,5.0125,5.0352,5.0406,5.0358,5.0262,5.0223,5.0393,5.0425,5.0467,5.0387,5.0495,5.049,5.0193,5.0057,5.0069,4.9905,4.9777,4.9549,4.9448,4.9493,4.9562,4.951,4.9559,4.954,4.9442,4.9484,4.935,4.9376,4.9335,4.9383,4.9315,4.941,4.9422,4.9414,4.9405,4.9358,4.9348,4.9483,4.9421,4.9449,4.9445,4.9659,4.989,5.0368,5.123,5.2603,5.4232,5.6132,5.6355,5.3549,4.9946,4.7751,4.7602,4.7719,4.8269,4.9048,4.9837,5.0028,5.0037,5.0032,4.9909,4.9975,4.9858,4.9806,4.9767,4.9963,5.0064,5.0066,4.9907,4.9997,5.0112,5.0278,5.0165,5.0213,5.0188,5.0119,5.0078,5.0196,5.0379,5.037,5.0284,5.0402,5.0466,5.0501,5.0415,5.0369,5.0521,5.0666,5.0798,5.0763,5.0778,5.0813,5.0979,5.108,5.1179,5.1244,5.1441,5.151,5.162,5.1739,5.1738,5.1865,5.1968,5.2121,5.2129,5.2247,5.2229,5.2311,5.2398,5.236,5.2147,5.2001,5.2028,5.1833,5.1736,5.1476,5.1247,5.108,5.0955,5.0724,5.0606,5.0378,5.0313,5.0298,5.0165,5.007,4.9997,5.0082,5,4.9962,4.9956,4.9885,4.995,5.0091,5.0111,5.0002,4.9964,4.9906,4.9976,5.0031,5.0033,5.0102,5.0027,5.0046,5.0131,5.0065,5.0074,5.005,5.0052,5.012,5.0109,5.007,5.0118,5.0159,5.0189,5.0164,5.0102,4.9965,4.9925,4.9991,5.0042,4.9908,4.9896,5.0075,5.0179,5.01,5.0012,5.0021,5.0069,5.0099,5.0048,4.99,4.9927,5.002,5.0062,5.0065,4.9936,4.9969,4.9875,5.0007,5.0201,5.025,5.025,5.035,5.0705,5.0652,5.0712,5.0492,5.0492,5.0626,5.0775,5.063,5.0586,5.0401,5.0479,5.0478,5.0277,5.0048,4.9883,4.9919,4.9864,4.9865,4.9778,4.976,4.9806,4.9816,4.9815,4.9811,4.9619,4.954,4.9645,4.975,4.971,4.968,4.9608,4.973,4.9744,4.9622,4.948,4.9626,4.967,4.9758,4.9594,4.9692,4.9984,5.0665,5.1683,5.2991,5.4499,5.6189,5.6269,5.338,4.9676,4.7832,4.7731,4.805,4.8809,4.9205,4.9945,5.0016,4.9986,5.0054,5.0006,4.999,4.9922,4.992,5.0024,5.006,5.0001,5.0008,5.007,5.013,5.0035,5.0113,5,5.0129,5.0089,5.0108,5.0084,5.0139,5.0131,5.0194,5.0268,5.0262,5.0201,5.0289,5.035,5.0307,5.035,5.029,5.0471,5.0561,5.0577,5.0803,5.0762,5.0924,5.0918,5.1141,5.1284,5.1301,5.1263,5.1466,5.1629,5.1522,5.1679,5.1766,5.1793,5.1977,5.2029,5.2045,5.2044,5.1962,5.1973,5.1806,5.1665,5.1426,5.1127,5.0941,5.087,5.0756,5.0551,5.0339,5.0163,5.0088,4.9932,4.9767,4.969,4.9751,4.9706,4.9672,4.9573,4.9563,4.9699,4.9616,4.9598,4.9453,4.9423,4.9478,4.9517,4.9466,4.953,4.946,4.9453,4.9493,4.9541,4.9584,4.9485,4.9506,4.9542,4.9559,4.9492,4.9576,4.953,4.9562,4.9645,4.957,4.9403,4.9349,4.9604,4.9584,4.953,4.945,4.9509,4.9487,4.9445,4.9361,4.9142,4.9217,4.9291,4.9307,4.9426,4.9275,4.9291,4.9395,4.9443,4.9536,4.9511,4.9646,4.9802,4.9792,4.991,4.9694,4.9549,4.9688,4.989,4.9862,4.9769,4.9843,4.9794,4.9686,4.9509,4.9341,4.9208,4.9046,4.9018,4.8941,4.8842,4.8773,4.8816,4.8754,4.8725,4.8729,4.8665,4.8725,4.8739,4.8702,4.8737,4.8701,4.8658,4.866,4.8688,4.8722,4.8676,4.8642,4.8602,4.8677,4.8761,4.8645,4.877,4.9209,4.9914,5.0443,5.1754,5.3218,5.4789,5.512,5.2502,4.9338,4.7253,4.7001,4.7059,4.7499,4.8146,4.8825,4.8954,4.8935,4.8811,4.8764,4.8905,4.8966,4.9029,4.8955,4.8963,4.8877,4.8889,4.8956,4.9125,4.8944,4.8902,4.8991,4.8996,4.9,4.9052,4.901,4.9074,4.9127,4.91,4.9105,4.9202,4.9243,4.9398,4.9431,4.9317,4.9319,4.9281,4.9399,4.9594,4.9648,4.9706,4.9771,4.9886,5.0023,5.0219,5.0251,5.0225,5.0394,5.0553,5.0604,5.068,5.0781,5.0984,5.1095,5.102,5.111,5.105,5.0993,5.1029,5.102,5.0872,5.0647,5.0467,5.0467,5.0205,4.9972,4.9588,4.9547,4.9355,4.9327,4.9301,4.9137,4.9011,4.8997,4.9021,4.8931,4.882,4.8904,4.8879,4.886,4.8913,4.8929,4.8791,4.8888,4.8843,4.8799,4.8876,4.8873,4.8929,4.8911,4.9037,4.8979,4.9045,4.8966,4.8929,4.8947,4.8918,4.8898,4.8793,4.8919,4.8942,4.8959,4.8953,4.8854,4.8899,4.8947,4.8929,4.8821,4.8897,4.8939,4.8959,4.8855,4.8759,4.8893,4.9069,4.9246,4.9295,4.9313,4.9406,4.9486,4.9512,4.9472,4.9257,4.9392,4.9638,4.9693,4.9631,4.9485,4.939,4.9249,4.9298,4.9206,4.8925,4.8622,4.8809,4.8723,4.8759,4.864,4.866,4.8666,4.8706,4.8673,4.8702,4.8579,4.8641,4.8633,4.8722,4.8576,4.8531,4.862,4.8638,4.8741,4.8759,4.8639,4.8683,4.875,4.8676,4.875,4.8808,4.9109,4.9684,5.0651,5.2134,5.3673,5.5263,5.5142,5.2123,4.8719,4.7181,4.6996,4.7199,4.7862,4.8588,4.9067,4.9068,4.9211,4.9109,4.9022,4.9136,4.9133,4.9054,4.9155,4.925,4.9274,4.9229,4.9238,4.9316,4.9342,4.9337,4.9261,4.9147,4.9274,4.9391,4.9374,4.9263,4.9405,4.9538,4.9465,4.9481,4.9543,4.9567,4.9617,4.9688,4.9753,4.9724,4.9865,4.9933,5.0025,5.0099,5.0121,5.0201,5.038,5.0587,5.0593,5.0636,5.0737,5.1001,5.1082,5.1064,5.114,5.1227,5.1238,5.1246,5.1343,5.1468,5.1484,5.1392,5.1318,5.1164,5.1037,5.0832,5.0639,5.0445,5.0239,4.997,4.991,4.9743,4.9723,4.9505,4.9421,4.9268,4.9197,4.9366,4.947,4.9175,4.9118,4.9095,4.9227,4.9244,4.9229,4.9208,4.9183,4.9282,4.9356,4.9319,4.9179,4.9118,4.9234,4.9414,4.9302,4.9249,4.9172,4.9277,4.9343,4.9313,4.923,4.9302,4.9271,4.9296,4.9369,4.9293,4.9244,4.9149,4.9337,4.9449,4.9348,4.925,4.9209,4.9289,4.9305,4.9272,4.9176,4.9169,4.9245,4.9338,4.9368,4.9484,4.9586,4.9746,4.9901,4.9956,4.9807,4.9717,4.9884,4.9925,4.999,4.9824,4.9946,4.989,4.9718,4.9729,4.9477,4.9333,4.9073,4.9083,4.9031,4.8911,4.8837,4.8915,4.8886,4.9012,4.892,4.878,4.873,4.8841,4.8822,4.8803,4.8756,4.8892,4.8786,4.8801,4.8866,4.8941,4.8889,4.8872,4.8929,4.9061,4.9022,4.9102,4.941,5.0233,5.1425,5.279,5.4476,5.5851,5.4755,5.1309,4.7869,4.6913,4.6983,4.7511,4.8004,4.8681,4.9248,4.9201,4.9421,4.9444,4.9465,4.926,4.933,4.9398,4.9518,4.9324,4.9428,4.9366,4.9529,4.9381,4.947,4.9442,4.9497,4.953,4.9663,4.9603,4.9399,4.9433,4.9643,4.9703,4.9542,4.9596,4.9716,4.9747,4.9844,4.9805,4.9912,4.9845,5.0087,5.0098,5.0214,5.0218,5.0335,5.0365,5.0543,5.0777,5.0943,5.0839,5.0885,5.11,5.118,5.1294,5.1241,5.1393,5.142,5.1557,5.1704,5.1589,5.1448,5.1512,5.15,5.1282,5.1022,5.0941,5.0689,5.0526,5.0413,5.0174,4.9971,4.9865,4.9747,4.9572,4.9349,4.9417,4.9312,4.9239,4.9247,4.9253,4.9218,4.9259,4.9321,4.9231,4.9081,4.9255,4.9205,4.9232,4.9234,4.915,4.9156,4.934,4.9339,4.9274,4.9135,4.9264,4.9285,4.9361,4.9321,4.9255,4.9263,4.9374,4.9393,4.92,4.9262,4.9241,4.9382,4.936,4.9275,4.9322,4.9266,4.9173,4.9166,4.9279,4.9335,4.9216,4.9302,4.9274,4.9211,4.9227,4.9257,4.9345,4.9586,4.9666,4.9673,4.9898,4.9975,4.9972,4.9861,4.985,4.9863,4.9982,5.0045,5.0038,4.9979,4.9693,4.9647,4.9636,4.9598,4.9242,4.9068,4.9086,4.9175,4.9194,4.9002,4.8975,4.902,4.9078,4.8988,4.9007,4.9023,4.8987,4.894,4.9027,4.9048,4.8974,4.8921,4.8922,4.8912,4.8965,4.9007,4.8949,4.9023,4.9109,4.9116,4.9294,4.9556,5.0456,5.1863,5.3398,5.4245,5.424,5.5555,5.4214,5.0764,4.7864,4.7072,4.7575,4.8174,4.9214,4.9431,4.9481,4.9448,4.9463,4.9459,4.9548,4.9246,4.9357,4.9427,4.9632,4.9563,4.9558,4.951,4.9586,4.9681,4.9736,4.9652,4.963,4.9647,4.964,4.9644,4.9753,4.9716,4.9707,4.9644,4.9824,4.985,4.9917,4.9827,4.9957,5.0074,5.0074,5.0153,5.0071,5.0141,5.0387,5.0604,5.0405,5.0656,5.0798,5.1075,5.0974,5.1161,5.1227,5.1331,5.147,5.1573,5.1471,5.1567,5.1647,5.1727,5.1633,5.1481,5.1485,5.1493,5.1344,5.1222,5.1042,5.0716,5.0497,5.0453,5.0149,4.9955,4.9818,4.9802,4.9699,4.9503,4.9619,4.9488,4.9498,4.9371,4.9497,4.9391,4.9389,4.9346,4.9302,4.9471,4.939,4.9335,4.9394,4.9371,4.9316,4.9355,4.9364,4.926,4.9218,4.9442,4.9385,4.9453,4.93,4.9392,4.9456,4.9524,4.9509,4.9333,4.9288,4.9452,4.9342,4.9337,4.9362,4.9324,4.9333,4.9245,4.9364,4.935,4.9207,4.9182,4.9403,4.9511,4.936,4.924,4.9393,4.9338,4.9478,4.9407,4.9292,4.9248,4.9307,4.9368,4.9457,4.9521,4.9732,4.9914,4.9867,4.9821,4.9988,4.994,4.9891,4.993,4.9841,4.9752,4.9835,5.0133,4.9885,4.9834,4.9709,4.9588,4.9633,4.9254,4.9224,4.9142,4.9144,4.9182,4.916,4.9104,4.9063,4.9051,4.9041,4.9103,4.9119,4.8997,4.9228,4.9097,4.8861,4.8964,4.9001,4.9094,4.9178,4.9094,4.9298,4.9198,4.8993,4.9125,4.949,4.9734,4.9981,5.114,5.2321,5.3751,5.5673,5.6102,5.3174,4.9512,4.749,4.73,4.738,4.7788,4.8557,4.942,4.965,4.9495,4.9588,4.9503,4.96,4.9614,4.9727,4.966,4.9611,4.9714,4.9684,4.9576,4.9596,4.9674,4.9743,4.9614,4.98,4.9847,4.9728,4.9747,4.9845,4.9994,4.9994,4.9828,4.9909,5.0012,4.9936,5.004,5.0083,5.0108,5.0122,5.0112,5.0334,5.0495,5.0431,5.0471,5.0689,5.0827,5.0821,5.0893,5.0798,5.1395,5.1229,5.1143,5.1423,5.1692,5.1671,5.1673,5.183,5.1959,5.2015,5.2011,5.1912,5.1654,5.1555,5.1358,5.1409,5.1165,5.0901,5.0729,5.052,5.0429,5.0267,4.9718,4.9886,4.9857,4.9699,4.9544,4.9603,4.9504,4.9598,4.9686,4.9579,4.9456,4.9394,4.9483,4.9558,4.9576,4.9486,4.9367,4.9319,4.9633,4.9338,4.9345,4.9322,4.9572,4.9433,4.9488,4.9542,4.9537,4.9489,4.9405,4.9678,4.95,4.9402,4.9803,4.9569,4.9359,4.956,4.948,4.944,4.9549,4.9486,4.9443,4.93,4.9432,4.9479,4.9465,4.9433,4.9712,4.929,4.9225,4.9411,4.9465,4.941,4.9356,4.9604,4.9377,4.9499,4.9546,4.9491,4.9473,4.9896,4.9871,4.9907,4.9757,4.9771,4.992,5.0067,4.9845,5.0002,5.0101,5.0098,4.9632,4.9723,4.9686,4.9364,4.9324,4.9125,4.9059,4.9084,4.9026,4.9044,4.8897,4.8717,4.8946,4.9,4.8744,4.8783,4.8945,4.8745,4.8755,4.8781,4.8789,4.8817,4.8664,4.8751,4.8582,4.8866,4.8849,4.899,4.8793,4.8765,4.8824,4.9105,4.9482,5.0394,5.1703,5.297,5.4817,5.549,5.303,4.9498,4.7287,4.677,4.7115,4.7303,4.8438,4.9034,4.9019,4.9006,4.9001,4.8946,4.8806,4.8872,4.9055,4.8964,4.8663,4.8864,4.9062,4.9148,4.9246,4.9063,4.8969,4.9345,4.9162,4.91,4.92,4.8908,4.9245,4.9144,4.918,4.9356,4.9306,4.9271,4.9404,4.9237,4.9305,4.9079,4.9379,4.9395,4.941,4.983,4.9777,4.977,4.9769,4.9812,4.9899,5.0076,5.0207,5.0332,5.0356,5.0272,5.0532,5.0697,5.084,5.0802,5.0529,5.0833,5.0982,5.1117,5.0757,5.0866,5.0729,5.0405,5.0227,5.0314,5.009,4.9553,4.9529,4.928,4.9348,4.9017,4.8823,4.9138,4.8927,4.8481,4.8737,4.8654,4.8578,4.8463,4.836,4.8612,4.8578,4.8391,4.8724,4.847,4.8467,4.8409,4.8421,4.8357,4.8644,4.8382,4.8181,4.8309,4.8486,4.8432,4.8603,4.8212,4.8295,4.8367,4.8596,4.8529,4.8282,4.8312,4.8351,4.844,4.8344,4.8417,4.841,4.83,4.8213,4.8294,4.8325,4.838,4.821,4.8426,4.8279,4.8132,4.8111,4.8232,4.8524,4.8666,4.8551,4.8628,4.8894,4.8954,4.8803,4.8557,4.8521,4.8794,4.9192,4.9147,4.8991,4.8844,4.8885,4.8705,4.845,4.8463,4.8199,4.8017,4.8017,4.8106,4.7792,4.8308,4.8066,4.8134,4.7984,4.8039,4.7853,4.8034,4.8063,4.7871,4.8006,4.7813,4.7669,4.7956,4.8098,4.803,4.791,4.809,4.8086,4.7867,4.7982,4.7953,4.8121,4.8768,4.9547,5.0443,5.1738,5.3471,5.4694,5.336,5.047,4.7078,4.6482,4.6359,4.6389,4.7249,4.7962,4.8406,4.8484,4.856,4.8588,4.8492,4.8314,4.838,4.8492,4.8478,4.848,4.8758,4.8529,4.8621,4.8627,4.8776,4.8691,4.8717,4.8734,4.8828,4.8731,4.8775,4.8835,4.8975,4.893,4.8702,4.8646,4.9182,4.9228,4.9063,4.9043,4.917,4.9352,4.9142,4.9393,4.9397,4.9596,4.9639,4.9695,4.9977,5.0016,4.9923,5.0144,5.0555,5.0431,5.0424,5.0448,5.0673,5.0556,5.0721,5.1122,5.0617,5.1132,5.0869,5.0697,5.0628,5.0456,5.0379,5.0061,5.03,4.9931,4.9872,4.9227,4.9608,4.9422,4.9183,4.9018,4.8759,4.884,4.902,4.8867,4.8656,4.8881,4.8697,4.8722,4.8766,4.899,4.8843,4.877,4.8452,4.8871,4.8582,4.8707,4.8575,4.8621,4.9004,4.8969,4.8992,4.8695,4.883,4.8642,4.8825,4.8959,4.8738,4.8835,4.9049,4.8953,4.8637,4.8379,4.8762,4.9089,4.9085,4.882,4.8844,4.8433,4.8857,4.9092,4.8942,4.8964,4.8948,4.8757,4.875,4.8887,4.8727,4.8738,4.8705,4.9023,4.9295,4.919,4.9486,4.9565,4.956,4.9557,4.9399,4.9557,4.9689,4.9625,4.9509,4.9518,4.9406,4.9518,4.9392,4.9253,4.8985,4.8717,4.8896,4.8956,4.874,4.8682,4.8526,4.8565,4.8298,4.8355,4.8709,4.8707,4.8637,4.8971,4.8538,4.8501,4.8661,4.8716,4.8557,4.8958,4.8658,4.8729,4.883,4.8668,4.8958,4.8717,4.8942,4.913,4.9302,4.9809,5.1084,5.2422,5.4374,5.5706,5.4144,5.0794,4.7365,4.6718,4.7028,4.7345,4.808,4.9037,4.9368,4.9372,4.9324,4.9053,4.9287,4.9211,4.8979,4.9064,4.924,4.9386,4.9222,4.9136,4.9495,4.9308,4.9256,4.9142,4.9355,4.9201,4.94,4.9718,4.9467,4.9401,4.9555,4.947,4.9623,4.9629,4.9762,4.9711,4.9568,4.9766,4.9841,4.9589,4.9936,5.0143,5.0023,5.0049,4.9898,5.0375,5.0635,5.084,5.0601,5.052,5.1066,5.1068
