-2.4953,-2.4917,-2.4844,-2.4818,-2.4693,-2.4728,-2.4794,-2.4832,-2.4641,-2.4537,-2.4525,-2.4478,-2.4496,-2.4465,-2.425,-2.4153,-2.411,-2.3939,-2.3872,-2.4078,-2.4255,-2.434,-2.4342,-2.4269,-2.4493,-2.4548,-2.4724,-2.4666,-2.4733,-2.4802,-2.4781,-2.4763,-2.4796,-2.4652,-2.4607,-2.4613,-2.4598,-2.4594,-2.4716,-2.4572,-2.4549,-2.4247,-2.2542,-2.0673,-1.8766,-1.7098,-1.813,-2.1597,-2.6437,-3.0231,-2.8985,-2.8026,-2.7041,-2.5948,-2.5115,-2.4637,-2.4744,-2.4427,-2.4548,-2.4373,-2.4423,-2.4141,-2.4252,-2.417,-2.4223,-2.3998,-2.4161,-2.4222,-2.4143,-2.4011,-2.3946,-2.3779,-2.3935,-2.3933,-2.4019,-2.3839,-2.3897,-2.3954,-2.3818,-2.3553,-2.3647,-2.367,-2.3603,-2.3362,-2.3263,-2.3167,-2.3261,-2.3175,-2.2973,-2.277,-2.278,-2.2672,-2.2638,-2.2412,-2.2316,-2.2107,-2.1799,-2.1553,-2.1554,-2.1406,-2.118,-2.1082,-2.069,-2.0401,-2.0195,-1.9908,-1.9781,-1.9755,-1.9697,-1.9561,-1.945,-1.9396,-1.9276,-1.9198,-1.9268,-1.9225,-1.9321,-1.9685,-1.984,-2.0182,-2.0586,-2.1067,-2.1724,-2.2296,-2.2663,-2.298,-2.3298,-2.351,-2.3723,-2.3922,-2.4171,-2.4236,-2.4137,-2.4008,-2.3928,-2.4333,-2.4646,-2.4657,-2.4667,-2.4551,-2.4559,-2.463,-2.4623,-2.4583,-2.4387,-2.4504,-2.451,-2.4592,-2.4159,-2.4233,-2.4256,-2.4304,-2.4259,-2.434,-2.4451,-2.4405,-2.4199,-2.4209,-2.4276,-2.4364,-2.4225,-2.398,-2.3896,-2.4126,-2.4311,-2.4201,-2.4204,-2.4143,-2.4237,-2.4371,-2.4355,-2.4336,-2.4325,-2.4363,-2.4277,-2.4412,-2.4378,-2.431,-2.4347,-2.4187,-2.4239,-2.439,-2.428,-2.4516,-2.4557,-2.4491,-2.4295,-2.4206,-2.4438,-2.4325,-2.4218,-2.4281,-2.4355,-2.4437,-2.4373,-2.4196,-2.4323,-2.4384,-2.4249,-2.4277,-2.4441,-2.4412,-2.4241,-2.4299,-2.4433,-2.4348,-2.4193,-2.421,-2.4392,-2.4425,-2.4437,-2.4164,-2.4069,-2.4189,-2.4071,-2.3876,-2.3655,-2.3687,-2.3615,-2.3658,-2.343,-2.3697,-2.3942,-2.4018,-2.4103,-2.4064,-2.4052,-2.4327,-2.44,-2.4281,-2.4155,-2.4096,-2.4233,-2.4203,-2.434,-2.4467,-2.4471,-2.4343,-2.4357,-2.4396,-2.4259,-2.4318,-2.4316,-2.3813,-2.2093,-2.0362,-1.8849,-1.7652,-1.8696,-2.2216,-2.4523,-2.8253,-2.8594,-2.7077,-2.6654,-2.5887,-2.5429,-2.4776,-2.4689,-2.4307,-2.4292,-2.4023,-2.4286,-2.4076,-2.3917,-2.3687,-2.3993,-2.4026,-2.4102,-2.3925,-2.3945,-2.368,-2.3804,-2.3854,-2.3845,-2.366,-2.3571,-2.3461,-2.3738,-2.3566,-2.3597,-2.3575,-2.3695,-2.3586,-2.3438,-2.3317,-2.3133,-2.312,-2.3215,-2.3033,-2.2991,-2.2838,-2.3048,-2.2961,-2.27,-2.2443,-2.2427,-2.2344,-2.2142,-2.2003,-2.1746,-2.1563,-2.1378,-2.1186,-2.0846,-2.0683,-2.0546,-2.041,-2.0355,-2.0309,-2.0244,-2.0231,-2.0017,-1.9959,-1.9789,-1.9681,-1.9697,-1.9874,-1.9989,-2.0424,-2.0842,-2.1149,-2.1468,-2.2066,-2.2648,-2.3081,-2.3405,-2.3802,-2.3954,-2.4223,-2.4268,-2.4597,-2.4742,-2.4922,-2.4897,-2.5006,-2.495,-2.4843,-2.5119,-2.5262,-2.5115,-2.5075,-2.5223,-2.527,-2.503,-2.5018,-2.5063,-2.5101,-2.5082,-2.4946,-2.4948,-2.4748,-2.4747,-2.4809,-2.4867,-2.4862,-2.4777,-2.4778,-2.4633,-2.4557,-2.4621,-2.4731,-2.4758,-2.4855,-2.4758,-2.4799,-2.4813,-2.4711,-2.4888,-2.5039,-2.5012,-2.4931,-2.4904,-2.4947,-2.485,-2.5041,-2.49,-2.4829,-2.4888,-2.5065,-2.5178,-2.4927,-2.4946,-2.4923,-2.5012,-2.4881,-2.4907,-2.4946,-2.5064,-2.5136,-2.507,-2.4807,-2.4944,-2.5045,-2.4909,-2.4897,-2.4938,-2.5099,-2.4969,-2.4777,-2.4762,-2.4972,-2.496,-2.5043,-2.4927,-2.494,-2.494,-2.4612,-2.4556,-2.4744,-2.4854,-2.4865,-2.464,-2.4384,-2.4405,-2.4205,-2.408,-2.4048,-2.4208,-2.4557,-2.4547,-2.4531,-2.4537,-2.4586,-2.4696,-2.4895,-2.5006,-2.5017,-2.4911,-2.4871,-2.4905,-2.4968,-2.4901,-2.4868,-2.4744,-2.4699,-2.4846,-2.5022,-2.4979,-2.4918,-2.4724,-2.3315,-2.1508,-1.948,-1.7282,-1.7555,-2.0571,-2.536,-3.0099,-2.993,-2.883,-2.747,-2.6639,-2.5884,-2.5182,-2.5063,-2.4583,-2.4528,-2.4383,-2.4533,-2.441,-2.4571,-2.4432,-2.4401,-2.4222,-2.4201,-2.4287,-2.4269,-2.3968,-2.4018,-2.403,-2.4138,-2.4118,-2.4004,-2.3855,-2.3957,-2.3919,-2.3881,-2.3795,-2.355,-2.3446,-2.3444,-2.3475,-2.3402,-2.3196,-2.3245,-2.3269,-2.3282,-2.3176,-2.3042,-2.2847,-2.2633,-2.2603,-2.2461,-2.2134,-2.2069,-2.1832,-2.1533,-2.1419,-2.1128,-2.0947,-2.0844,-2.0578,-2.0354,-2.0304,-1.9929,-1.9685,-1.9791,-1.9703,-1.9408,-1.9308,-1.9331,-1.9253,-1.9212,-1.9374,-1.9437,-1.9749,-2.005,-2.0649,-2.0983,-2.1601,-2.2075,-2.2509,-2.2901,-2.3089,-2.3514,-2.3832,-2.4064,-2.4151,-2.4083,-2.4191,-2.4356,-2.454,-2.4623,-2.4725,-2.4528,-2.457,-2.4642,-2.4903,-2.4613,-2.4517,-2.4656,-2.4938,-2.4963,-2.4892,-2.4797,-2.4663,-2.4609,-2.4599,-2.4543,-2.4506,-2.42,-2.4236,-2.4523,-2.4725,-2.4775,-2.4525,-2.4442,-2.4433,-2.4426,-2.4523,-2.4564,-2.4446,-2.416,-2.4009,-2.4247,-2.4492,-2.4592,-2.4441,-2.4514,-2.4584,-2.466,-2.4441,-2.4376,-2.4412,-2.4489,-2.4467,-2.4397,-2.4486,-2.4359,-2.4425,-2.4488,-2.4564,-2.4674,-2.4577,-2.4576,-2.4533,-2.4504,-2.4382,-2.4435,-2.4422,-2.444,-2.4415,-2.442,-2.4459,-2.4403,-2.4529,-2.4501,-2.4395,-2.4434,-2.4518,-2.4578,-2.4547,-2.4558,-2.4462,-2.4351,-2.4351,-2.4356,-2.4186,-2.4303,-2.448,-2.4605,-2.4515,-2.4537,-2.4512,-2.4404,-2.418,-2.4129,-2.4102,-2.4257,-2.4129,-2.3953,-2.3815,-2.3467,-2.3356,-2.3472,-2.3885,-2.4023,-2.417,-2.4196,-2.4111,-2.4294,-2.4274,-2.4277,-2.4396,-2.4461,-2.4423,-2.4441,-2.4445,-2.4378,-2.4515,-2.4457,-2.4287,-2.431,-2.4189,-2.4412,-2.4511,-2.4402,-2.3735,-2.2862,-2.0961,-1.8817,-1.6646,-1.7152,-2.0231,-2.5087,-2.9814,-2.9326,-2.7272,-2.6303,-2.5482,-2.4834,-2.4572,-2.429,-2.4099,-2.4093,-2.3883,-2.3993,-2.394,-2.3976,-2.3994,-2.3887,-2.3717,-2.3699,-2.3638,-2.3682,-2.3721,-2.3666,-2.3677,-2.3603,-2.357,-2.3353,-2.3411,-2.3428,-2.3374,-2.3327,-2.3074,-2.3125,-2.3294,-2.3185,-2.3077,-2.2848,-2.2773,-2.2687,-2.2556,-2.2631,-2.2468,-2.227,-2.2097,-2.1974,-2.2069,-2.1837,-2.164,-2.1386,-2.1132,-2.0935,-2.0857,-2.0645,-2.0406,-2.0196,-2.0045,-1.9695,-1.9371,-1.9119,-1.9239,-1.9243,-1.9143,-1.8977,-1.8913,-1.8644,-1.8568,-1.8597,-1.874,-1.8955,-1.929,-1.9492,-2.0059,-2.0524,-2.0955,-2.116,-2.1538,-2.2082,-2.2615,-2.3053,-2.3142,-2.3303,-2.3369,-2.3571,-2.3726,-2.3751,-2.3719,-2.3924,-2.4,-2.3955,-2.3969,-2.4092,-2.418,-2.4144,-2.4212,-2.4224,-2.4113,-2.4087,-2.4145,-2.4036,-2.4124,-2.3913,-2.385,-2.3799,-2.3912,-2.3943,-2.3831,-2.3873,-2.3878,-2.3853,-2.3781,-2.3819,-2.3761,-2.3822,-2.3799,-2.3874,-2.3761,-2.3667,-2.3734,-2.3913,-2.4077,-2.4081,-2.4,-2.389,-2.3846,-2.3933,-2.4005,-2.4076,-2.4082,-2.3946,-2.3905,-2.3971,-2.3899,-2.4232,-2.4204,-2.414,-2.4179,-2.4172,-2.4161,-2.4071,-2.4094,-2.4062,-2.4029,-2.4125,-2.4027,-2.4069,-2.4048,-2.3899,-2.4176,-2.4207,-2.4143,-2.4181,-2.4074,-2.4069,-2.4154,-2.4154,-2.4179,-2.4011,-2.3832,-2.4001,-2.4222,-2.4256,-2.398,-2.3882,-2.3961,-2.4135,-2.4264,-2.3964,-2.3828,-2.3847,-2.4022,-2.4039,-2.372,-2.3597,-2.3467,-2.3326,-2.3187,-2.3481,-2.3603,-2.3753,-2.3887,-2.3983,-2.3961,-2.4008,-2.4185,-2.4171,-2.4166,-2.4232,-2.4143,-2.4114,-2.4186,-2.4265,-2.4371,-2.4204,-2.4085,-2.404,-2.403,-2.4122,-2.415,-2.3938,-2.2764,-2.0695,-1.8958,-1.7121,-1.7257,-2.0099,-2.4419,-2.8697,-2.8473,-2.7245,-2.6415,-2.5611,-2.496,-2.4409,-2.4242,-2.3985,-2.3758,-2.3863,-2.3944,-2.3742,-2.3813,-2.3777,-2.3774,-2.3553,-2.3635,-2.3552,-2.3493,-2.3563,-2.3581,-2.3456,-2.3514,-2.3401,-2.3443,-2.3286,-2.3125,-2.3033,-2.312,-2.3141,-2.3269,-2.3251,-2.2978,-2.2814,-2.2897,-2.2793,-2.2582,-2.2476,-2.2612,-2.2511,-2.2307,-2.2083,-2.207,-2.1998,-2.1846,-2.165,-2.16,-2.146,-2.1241,-2.109,-2.0956,-2.065,-2.0577,-2.0366,-2.0097,-1.9906,-1.9624,-1.9562,-1.9392,-1.9285,-1.937,-1.9338,-1.9079,-1.9028,-1.8903,-1.9042,-1.9191,-1.9468,-1.9731,-2.0133,-2.0491,-2.0931,-2.1189,-2.1541,-2.215,-2.2704,-2.2922,-2.3065,-2.3304,-2.3436,-2.3692,-2.3887,-2.3907,-2.3939,-2.3947,-2.4118,-2.4178,-2.4218,-2.3847,-2.3997,-2.4202,-2.4346,-2.4374,-2.4112,-2.3976,-2.3971,-2.3985,-2.4018,-2.4036,-2.3881,-2.3848,-2.3934,-2.3924,-2.3801,-2.3903,-2.3958,-2.3905,-2.3808,-2.3711,-2.3724,-2.3908,-2.4028,-2.4021,-2.3848,-2.3864,-2.4044,-2.4115,-2.417,-2.405,-2.4075,-2.4173,-2.4156,-2.4241,-2.4325,-2.4467,-2.446,-2.4416,-2.4293,-2.4145,-2.4332,-2.4501,-2.464,-2.4553,-2.4352,-2.4165,-2.4399,-2.453,-2.4483,-2.4607,-2.4612,-2.4374,-2.4312,-2.4617,-2.4695,-2.4671,-2.4681,-2.4499,-2.4426,-2.4408,-2.4229,-2.4349,-2.4434,-2.4411,-2.4315,-2.4129,-2.3918,-2.3743,-2.3869,-2.4188,-2.416,-2.4329,-2.4451,-2.4664,-2.4786,-2.4868,-2.4868,-2.478,-2.4863,-2.4737,-2.4795,-2.4811,-2.4845,-2.4899,-2.488,-2.4952,-2.4899,-2.4786,-2.4805,-2.4823,-2.5061,-2.4787,-2.3473,-2.1481,-1.9757,-1.7951,-1.79,-1.8953,-2.2833,-2.7275,-2.9895,-2.8629,-2.7469,-2.7005,-2.6098,-2.5535,-2.4905,-2.4962,-2.4655,-2.4825,-2.4569,-2.4504,-2.4227,-2.4351,-2.4304,-2.4525,-2.4274,-2.4335,-2.4231,-2.4288,-2.404,-2.401,-2.4024,-2.4084,-2.3959,-2.4025,-2.3842,-2.3849,-2.373,-2.373,-2.3762,-2.3707,-2.3571,-2.3385,-2.3273,-2.3415,-2.3189,-2.3216,-2.3157,-2.3118,-2.2955,-2.283,-2.263,-2.2547,-2.2386,-2.2044,-2.1888,-2.1834,-2.1667,-2.142,-2.1171,-2.1057,-2.0819,-2.0524,-2.0349,-2.0175,-2.0004,-1.9773,-1.9679,-1.9543,-1.9418,-1.9298,-1.9372,-1.9343,-1.9231,-1.9312,-1.959,-2.0028,-2.0475,-2.0923,-2.1459,-2.1886,-2.2253,-2.2487,-2.2872,-2.3161,-2.351,-2.3641,-2.3914,-2.4029,-2.4247,-2.4341,-2.4487,-2.4555,-2.465,-2.4544,-2.4613,-2.4699,-2.4473,-2.4652,-2.4855,-2.4839,-2.4776,-2.4614,-2.4616,-2.4555,-2.4671,-2.4602,-2.4543,-2.4388,-2.4349,-2.4394,-2.4387,-2.4263,-2.4327,-2.4341,-2.4294,-2.426,-2.434,-2.4354,-2.4325,-2.4225,-2.4302,-2.4259,-2.4225,-2.4275,-2.429,-2.4272,-2.4232,-2.4226,-2.4319,-2.4229,-2.4337,-2.4353,-2.4381,-2.4413,-2.4413,-2.4497,-2.4442,-2.4332,-2.4418,-2.4311,-2.4388,-2.4386,-2.432,-2.4432,-2.4274,-2.4189,-2.4192,-2.4264,-2.4215,-2.4227,-2.4303,-2.4313,-2.4322,-2.4284,-2.421,-2.4302,-2.4392,-2.4307,-2.4384,-2.4144,-2.3978,-2.386,-2.3758,-2.3837,-2.3993,-2.3958,-2.3664,-2.3547,-2.3359,-2.33,-2.3414,-2.3633,-2.3776,-2.3785,-2.3843,-2.3923,-2.404,-2.3963,-2.3987,-2.4193,-2.433,-2.4226,-2.4094,-2.4163,-2.4359,-2.4315,-2.4065,-2.394,-2.4064,-2.4139,-2.4178,-2.4455,-2.4354,-2.3833,-2.2226,-2.0235,-1.8391,-1.648,-1.7042,-2.0564,-2.5361,-2.9854,-2.9056,-2.7302,-2.6736,-2.5831,-2.4828,-2.4198,-2.4191,-2.3816,-2.3796,-2.3752,-2.3814,-2.3771,-2.3674,-2.3566,-2.3693,-2.3703,-2.3738,-2.3658,-2.3596,-2.3592,-2.3486,-2.3336,-2.3205,-2.3155,-2.317,-2.3333,-2.3291,-2.3208,-2.3184,-2.3066,-2.2965,-2.2973,-2.2962,-2.2702,-2.2655,-2.2757,-2.2816,-2.2637,-2.2392,-2.2363,-2.2085,-2.199,-2.1836,-2.1841,-2.1769,-2.1514,-2.1216,-2.1085,-2.0956,-2.0704,-2.0432,-2.0174,-1.9964,-1.9609,-1.9216,-1.9384,-1.9411,-1.9362,-1.8971,-1.8739,-1.8702,-1.8547,-1.8574,-1.8512,-1.8561,-1.878,-1.9038,-1.9154,-1.9451,-2.0004,-2.0593,-2.0942,-2.1234,-2.1813,-2.2421,-2.2706,-2.2967,-2.3247,-2.3313,-2.3431,-2.3527,-2.3634,-2.3654,-2.3867,-2.3899,-2.3966,-2.3765,-2.3768,-2.3982,-2.4122,-2.4033,-2.3948,-2.4017,-2.3979,-2.3989,-2.4028,-2.4043,-2.4013,-2.3975,-2.3916,-2.3761,-2.3864,-2.3871,-2.3655,-2.3678,-2.3752,-2.3792,-2.3869,-2.3831,-2.372,-2.3694,-2.3622,-2.3646,-2.3614,-2.3639,-2.3584,-2.3657,-2.3728,-2.383,-2.3732,-2.3473,-2.3626,-2.3818,-2.3946,-2.3959,-2.3771,-2.3794,-2.3782,-2.383,-2.3796,-2.38,-2.3639,-2.3752,-2.3752,-2.3684,-2.3738,-2.3802,-2.3804,-2.3821,-2.3746,-2.3582,-2.3572,-2.348,-2.3486,-2.3596,-2.3631,-2.3759,-2.3868,-2.3864,-2.3721,-2.3746,-2.3607,-2.3577,-2.3537,-2.3658,-2.356,-2.3585,-2.3673,-2.3714,-2.3747,-2.3611,-2.3397,-2.3336,-2.3372,-2.3486,-2.3491,-2.3326,-2.3134,-2.3139,-2.2831,-2.2721,-2.29,-2.2929,-2.3077,-2.331,-2.3259,-2.3253,-2.3564,-2.3769,-2.3822,-2.3745,-2.3635,-2.3612,-2.37,-2.3717,-2.3714,-2.373,-2.3647,-2.3593,-2.3594,-2.3502,-2.36,-2.3715,-2.3702,-2.3064,-2.1469,-1.9517,-1.7424,-1.5739,-1.7072,-2.0874,-2.5904,-2.8549,-2.884,-2.7136,-2.603,-2.5248,-2.4086,-2.3548,-2.3323,-2.3353,-2.3273,-2.3461,-2.3216,-2.3276,-2.3076,-2.3107,-2.2949,-2.2981,-2.2994,-2.3063,-2.2891,-2.293,-2.2742,-2.2705,-2.2723,-2.2599,-2.2557,-2.2742,-2.2696,-2.26,-2.2486,-2.2403,-2.2363,-2.2296,-2.2169,-2.2157,-2.211,-2.1979,-2.1871,-2.1787,-2.1706,-2.172,-2.1555,-2.1377,-2.1205,-2.0995,-2.0732,-2.0722,-2.0726,-2.0414,-2.0104,-1.9961,-1.978,-1.9439,-1.9311,-1.9127,-1.8906,-1.8666,-1.8371,-1.8197,-1.8096,-1.802,-1.8012,-1.7977,-1.78,-1.7806,-1.789,-1.7835,-1.8234,-1.8487,-1.88,-1.9225,-1.9746,-2.0375,-2.08,-2.1101,-2.1525,-2.1914,-2.2191,-2.2489,-2.2669,-2.2671,-2.2725,-2.283,-2.2939,-2.3183,-2.3507,-2.347,-2.3427,-2.3362,-2.3426,-2.3342,-2.3352,-2.331,-2.3537,-2.3457,-2.3462,-2.3504,-2.3502,-2.3286,-2.3317,-2.3255,-2.3326,-2.323,-2.321,-2.333,-2.327,-2.3273,-2.3203,-2.3122,-2.3126,-2.3128,-2.3159,-2.3103,-2.314,-2.2996,-2.3016,-2.306,-2.3212,-2.3108,-2.311,-2.3139,-2.3064,-2.3227,-2.3346,-2.3318,-2.3304,-2.3412,-2.3318,-2.3286,-2.3349,-2.3323,-2.3238,-2.3194,-2.3169,-2.3398,-2.3414,-2.3413,-2.3407,-2.3412,-2.334,-2.3324,-2.3251,-2.3149,-2.3392,-2.351,-2.3594,-2.3494,-2.3446,-2.3417,-2.341,-2.3451,-2.3254,-2.3303,-2.3348,-2.3361,-2.3488,-2.3291,-2.3183,-2.3352,-2.3433,-2.3353,-2.337,-2.3282,-2.3238,-2.3199,-2.3015,-2.2869,-2.2695,-2.2755,-2.2538,-2.2467,-2.2592,-2.2613,-2.2826,-2.3111,-2.3145,-2.3237,-2.3189,-2.3254,-2.324,-2.3374,-2.3306,-2.3079,-2.3238,-2.3416,-2.3321,-2.324,-2.3147,-2.3331,-2.3215,-2.3317,-2.3349,-2.3326,-2.3176,-2.2081,-2.0139,-1.8406,-1.6474,-1.594,-1.6899,-2.0505,-2.482,-2.79,-2.7087,-2.555,-2.5023,-2.4532,-2.3937,-2.3287,-2.3132,-2.2883,-2.2979,-2.2884,-2.3015,-2.2704,-2.2717,-2.2711,-2.2746,-2.2467,-2.251,-2.2395,-2.2506,-2.2461,-2.2528,-2.2616,-2.2645,-2.2393,-2.2364,-2.2209,-2.2062,-2.2013,-2.1972,-2.1936,-2.2133,-2.2064,-2.2066,-2.1953,-2.17,-2.1494,-2.1421,-2.137,-2.1557,-2.1527,-2.1293,-2.1199,-2.1086,-2.1001,-2.0826,-2.0632,-2.0466,-2.0102,-1.9856,-1.9706,-1.97,-1.9626,-1.9313,-1.9108,-1.9081,-1.8917,-1.8772,-1.8579,-1.8439,-1.8464,-1.8338,-1.8287,-1.8115,-1.8151,-1.8235,-1.8386,-1.8678,-1.8894,-1.9268,-1.9691,-2.0171,-2.0729,-2.1049,-2.1495,-2.1804,-2.1925,-2.2145,-2.2543,-2.2748,-2.2868,-2.2948,-2.3112,-2.3286,-2.323,-2.3293,-2.3448,-2.3562,-2.3541,-2.3514,-2.357,-2.3498,-2.3545,-2.3367,-2.338,-2.3347,-2.3318,-2.3369,-2.3342,-2.3225,-2.3131,-2.3221,-2.3399,-2.327,-2.3173,-2.3143,-2.3304,-2.3461,-2.3546,-2.3421,-2.3317,-2.343,-2.3463,-2.3482,-2.3426,-2.3538,-2.3601,-2.3667,-2.3666,-2.373,-2.3764,-2.3599,-2.3742,-2.3924,-2.3984,-2.3867,-2.3901,-2.3876,-2.3817,-2.3939,-2.3954,-2.3996,-2.39,-2.3896,-2.3912,-2.4023,-2.3997,-2.4017,-2.4088,-2.3906,-2.3936,-2.3941,-2.4099,-2.3923,-2.3942,-2.3728,-2.355,-2.3672,-2.3734,-2.3665,-2.3456,-2.3221,-2.3322,-2.3229,-2.3332,-2.3485,-2.3583,-2.3744,-2.3809,-2.3828,-2.383,-2.3852,-2.4067,-2.4322,-2.417,-2.4167,-2.4202,-2.427,-2.4249,-2.4213,-2.4188,-2.416,-2.4137,-2.4105,-2.3963,-2.4062,-2.4318,-2.4311,-2.3485,-2.1669,-1.9652,-1.7834,-1.6592,-1.8161,-2.2229,-2.66,-2.9113,-2.7986,-2.6747,-2.6192,-2.5195,-2.4419,-2.4012,-2.3989,-2.3866,-2.3947,-2.3761,-2.3712,-2.3554,-2.37,-2.3519,-2.3492,-2.3467,-2.3481,-2.3562,-2.3616,-2.3581,-2.3514,-2.3547,-2.3337,-2.3144,-2.3069,-2.3088,-2.3121,-2.3042,-2.3071,-2.2936,-2.2862,-2.2818,-2.2772,-2.2757,-2.2638,-2.2492,-2.2342,-2.2152,-2.2273,-2.2203,-2.2013,-2.1928,-2.1781,-2.1637,-2.1372,-2.1166,-2.1079,-2.0916,-2.0621,-2.0346,-2.0236,-2.0016,-1.9803,-1.9576,-1.9237,-1.9109,-1.8852,-1.8705,-1.8745,-1.855,-1.8404,-1.8353,-1.8413,-1.8612,-1.882,-1.8998,-1.948,-1.9802,-2.0274,-2.0635,-2.0948,-2.1493,-2.1945,-2.227,-2.2568,-2.2918,-2.3123,-2.3259,-2.3342,-2.3542,-2.3592,-2.371,-2.3769,-2.384,-2.3834,-2.3932,-2.3976,-2.3981,-2.3977,-2.3938,-2.3973,-2.3919,-2.3787,-2.3874,-2.3858,-2.3827,-2.367,-2.3732,-2.3904,-2.404,-2.3962,-2.3779,-2.3649,-2.3559,-2.3486,-2.3377,-2.3626,-2.3648,-2.3537,-2.3511,-2.3726,-2.3862,-2.3695,-2.374,-2.3688,-2.3607,-2.3558,-2.3526,-2.3671,-2.369,-2.361,-2.3594,-2.3473,-2.3486,-2.3711,-2.3773,-2.3629,-2.3517,-2.3664,-2.3672,-2.3702,-2.3653,-2.3718,-2.382,-2.3708,-2.3691,-2.3741,-2.3606,-2.3646,-2.3641,-2.3644,-2.3598,-2.3538,-2.3645,-2.3704,-2.3711,-2.3618,-2.3509,-2.3502,-2.3589,-2.3728,-2.3771,-2.3624,-2.3631,-2.3656,-2.3538,-2.3313,-2.3351,-2.3375,-2.3442,-2.3155,-2.2876,-2.2679,-2.2655,-2.261,-2.2926,-2.3194,-2.3191,-2.3298,-2.3305,-2.3381,-2.3515,-2.3482,-2.3634,-2.3681,-2.3734,-2.3697,-2.3743,-2.3717,-2.364,-2.3482,-2.361,-2.3761,-2.3707,-2.3636,-2.372,-2.3915,-2.3682,-2.2808,-2.1813,-1.9839,-1.7816,-1.5886,-1.6207,-1.9439,-2.4554,-2.9243,-2.8625,-2.6757,-2.5782,-2.4844,-2.3999,-2.3681,-2.3437,-2.3388,-2.3454,-2.3474,-2.3306,-2.3018,-2.288,-2.3011,-2.3279,-2.3177,-2.3142,-2.3061,-2.3097,-2.2992,-2.2877,-2.2833,-2.2833,-2.2796,-2.2643,-2.2756,-2.2727,-2.2636,-2.253,-2.2545,-2.2549,-2.2441,-2.2354,-2.2185,-2.2157,-2.2134,-2.204,-2.2048,-2.2022,-2.1875,-2.1644,-2.134,-2.1226,-2.1139,-2.0866,-2.0725,-2.0586,-2.0565,-2.0337,-2.0087,-1.9881,-1.9639,-1.947,-1.9214,-1.8976,-1.8758,-1.8499,-1.8281,-1.822,-1.8168,-1.8114,-1.7956,-1.7943,-1.8052,-1.8062,-1.8206,-1.8387,-1.8834,-1.9158,-1.9681,-2.0279,-2.0829,-2.1074,-2.1325,-2.1504,-2.186,-2.2466,-2.2808,-2.3081,-2.3096,-2.3139,-2.3282,-2.3295,-2.3298,-2.3374,-2.3415,-2.3459,-2.3451,-2.3512,-2.3497,-2.3517,-2.3523,-2.3541,-2.3493,-2.3358,-2.3397,-2.3378,-2.3281,-2.3446,-2.3561,-2.3461,-2.3411,-2.3436,-2.3249,-2.3215,-2.3204,-2.3188,-2.3174,-2.3082,-2.2996,-2.3077,-2.3041,-2.3042,-2.3132,-2.3007,-2.3089,-2.3106,-2.3133,-2.3054,-2.2978,-2.3012,-2.3231,-2.3311,-2.3203,-2.3112,-2.3128,-2.3091,-2.3206,-2.3167,-2.3083,-2.3098,-2.3217,-2.3178,-2.318,-2.3243,-2.3168,-2.3188,-2.3191,-2.3122,-2.3006,-2.3091,-2.3133,-2.3039,-2.2845,-2.2929,-2.312,-2.3214,-2.3309,-2.3327,-2.3208,-2.3145,-2.3104,-2.3166,-2.3235,-2.3306,-2.3145,-2.3022,-2.3161,-2.3178,-2.3203,-2.3269,-2.3046,-2.3171,-2.3305,-2.3288,-2.3247,-2.3228,-2.3078,-2.3192,-2.3196,-2.301,-2.3172,-2.3133,-2.2955,-2.29,-2.2744,-2.2723,-2.2595,-2.2486,-2.271,-2.2702,-2.2792,-2.2986,-2.3116,-2.3144,-2.3224,-2.3284,-2.3408,-2.3438,-2.3341,-2.3352,-2.3292,-2.3322,-2.3402,-2.3353,-2.3225,-2.3198,-2.3243,-2.326,-2.3484,-2.3437,-2.3064,-2.1827,-1.9986,-1.8042,-1.6228,-1.579,-1.8254,-2.2884,-2.7596,-2.8134,-2.6536,-2.5871,-2.5043,-2.4403,-2.3624,-2.3338,-2.3277,-2.3054,-2.3072,-2.3009,-2.2754,-2.2774,-2.2752,-2.2759,-2.2814,-2.279,-2.2712,-2.2602,-2.2475,-2.2457,-2.2516,-2.2616,-2.2628,-2.2592,-2.2505,-2.2407,-2.2409,-2.2284,-2.2195,-2.2188,-2.2162,-2.2097,-2.2047,-2.1871,-2.1821,-2.1645,-2.1536,-2.154,-2.143,-2.1441,-2.1364,-2.1161,-2.0922,-2.0693,-2.0582,-2.0558,-2.0293,-2.0121,-1.9951,-1.9855,-1.9536,-1.9265,-1.9124,-1.9122,-1.8855,-1.878,-1.8634,-1.8438,-1.8357,-1.8171,-1.8064,-1.8043,-1.8011,-1.7924,-1.8134,-1.8267,-1.8378,-1.8572,-1.8923,-1.9369,-1.977,-2.0092,-2.0442,-2.0979,-2.1459,-2.1879,-2.2062,-2.2147,-2.2427,-2.2509,-2.2627,-2.2889,-2.2876,-2.2895,-2.2834,-2.295,-2.295,-2.2965,-2.2979,-2.2998,-2.3184,-2.3182,-2.3126,-2.3008,-2.2953,-2.281,-2.2934,-2.2862,-2.2813,-2.2624,-2.2548,-2.2688,-2.281,-2.2881,-2.2916,-2.2666,-2.2535,-2.2501,-2.2562,-2.262,-2.2743,-2.277,-2.2692,-2.2608,-2.271,-2.2849,-2.2802,-2.2874,-2.2761,-2.282,-2.2905,-2.2832,-2.2759,-2.27,-2.2941,-2.3097,-2.3017,-2.3041,-2.2914,-2.2989,-2.289,-2.3034,-2.3035,-2.2966,-2.3,-2.3008,-2.3007,-2.2802,-2.2827,-2.3023,-2.3086,-2.3053,-2.314,-2.3054,-2.308,-2.3012,-2.3057,-2.3234,-2.3054,-2.2904,-2.2751,-2.2859,-2.2786,-2.275,-2.2561,-2.2529,-2.2486,-2.2483,-2.2507,-2.2672,-2.2749,-2.274,-2.2746,-2.2939,-2.301,-2.3212,-2.3422,-2.3482,-2.3543,-2.3532,-2.3631,-2.3578,-2.3504,-2.3331,-2.346,-2.3455,-2.3519,-2.3612,-2.3704,-2.3643,-2.3658,-2.355,-2.2817,-2.1046,-1.9142,-1.7196,-1.639,-1.8389,-2.2657,-2.6864,-2.8374,-2.7069,-2.6171,-2.5525,-2.4787,-2.418,-2.3931,-2.3769,-2.367,-2.3759,-2.3736,-2.3679,-2.3683,-2.3438,-2.343,-2.3472,-2.3294,-2.3287,-2.3331,-2.3316,-2.3302,-2.3144,-2.3028,-2.3229,-2.3057,-2.3148,-2.3198,-2.3103,-2.28,-2.2819,-2.2792,-2.2806,-2.282,-2.2863,-2.2751,-2.2682,-2.2509,-2.2489,-2.2391,-2.2252,-2.2031,-2.1904,-2.1962,-2.1757,-2.1468,-2.1404,-2.1224,-2.0975,-2.0767,-2.065,-2.05,-2.03,-2.0105,-1.988,-1.969,-1.9463,-1.9168,-1.9022,-1.8948,-1.8955,-1.8822,-1.8667,-1.8604,-1.8666,-1.8785,-1.8982,-1.9018,-1.9341,-1.9813,-2.0341,-2.0579,-2.1175,-2.168,-2.1924,-2.2303,-2.2666,-2.2947,-2.3204,-2.3537,-2.3621,-2.3728,-2.3571,-2.3717,-2.3955,-2.4171,-2.4261,-2.4199,-2.416,-2.427,-2.4258,-2.4277,-2.42,-2.4132,-2.4095,-2.4116,-2.4045,-2.4023,-2.3946,-2.3971,-2.3905,-2.3898,-2.378,-2.3844,-2.385,-2.3882,-2.3878,-2.3927,-2.3839,-2.3759,-2.3745,-2.3756,-2.3779,-2.3729,-2.3759,-2.3732,-2.3804,-2.3892,-2.3832,-2.3652,-2.3711,-2.3877,-2.3954,-2.393,-2.3929,-2.4064,-2.4062,-2.3995,-2.3878,-2.3934,-2.4064,-2.4088,-2.3955,-2.3982,-2.3957,-2.3982,-2.4079,-2.4075,-2.3891,-2.3843,-2.3945,-2.3905,-2.3999,-2.4056,-2.401,-2.4014,-2.4003,-2.3913,-2.3915,-2.3873,-2.3913,-2.3893,-2.3968,-2.3918,-2.3884,-2.3958,-2.4097,-2.3969,-2.402,-2.3895,-2.3679,-2.3687,-2.3633,-2.3615,-2.3577,-2.3499,-2.3356,-2.3407,-2.3188,-2.319,-2.3324,-2.3342,-2.3488,-2.3449,-2.3629,-2.3673,-2.3905,-2.4035,-2.4039,-2.4172,-2.4128,-2.4101,-2.4143,-2.4277,-2.4181,-2.4162,-2.4126,-2.4058,-2.405,-2.4223,-2.4242,-2.4327,-2.429,-2.3484,-2.16,-1.9442,-1.736,-1.6225,-1.7958,-2.2527,-2.7456,-2.9757,-2.8255,-2.6819,-2.5987,-2.4796,-2.4274,-2.4124,-2.4057,-2.4019,-2.4083,-2.398,-2.3926,-2.378,-2.3898,-2.3836,-2.3879,-2.3782,-2.3697,-2.3588,-2.3642,-2.358,-2.3651,-2.3604,-2.352,-2.3397,-2.3343,-2.3295,-2.3328,-2.3282,-2.3193,-2.3208,-2.3124,-2.3213,-2.3205,-2.3081,-2.2809,-2.2774,-2.2676,-2.2697,-2.2602,-2.2464,-2.2373,-2.2178,-2.2065,-2.195,-2.1793,-2.1594,-2.1424,-2.1192,-2.108,-2.0807,-2.044,-2.0425,-2.0234,-1.9995,-1.9728,-1.9542,-1.9394,-1.9129,-1.9005,-1.8935,-1.8879,-1.879,-1.8708,-1.8737,-1.8921,-1.8992,-1.9291,-1.9716,-2.0118,-2.0521,-2.0986,-2.1527,-2.2008,-2.2391,-2.2854,-2.3083,-2.3272,-2.3524,-2.3791,-2.3845,-2.3882,-2.3891,-2.4114,-2.4119,-2.4268,-2.4238,-2.4385,-2.4482,-2.4344,-2.4405,-2.4296,-2.4257,-2.4369,-2.446,-2.4449,-2.4396,-2.4387,-2.4288,-2.4398,-2.4309,-2.4211,-2.4307,-2.4291,-2.4283,-2.4092,-2.4195,-2.424,-2.4223,-2.414,-2.4138,-2.4088,-2.4113,-2.4165,-2.4036,-2.4016,-2.4123,-2.4142,-2.4115,-2.411,-2.418,-2.4242,-2.4184,-2.4067,-2.4207,-2.418,-2.4029,-2.4084,-2.4261,-2.4329,-2.4392,-2.4304,-2.4261,-2.4192,-2.4192,-2.4229,-2.4197,-2.4168,-2.4259,-2.4244,-2.4321,-2.4284,-2.4279,-2.4226,-2.4162,-2.4049,-2.4158,-2.4326,-2.4342,-2.4298,-2.4235,-2.4096,-2.4169,-2.407,-2.4108,-2.4291,-2.4346,-2.4334,-2.4337,-2.4122,-2.4209,-2.4165,-2.417,-2.4211,-2.4173,-2.4137,-2.4265,-2.4303,-2.4229,-2.431,-2.426,-2.4219,-2.4126,-2.3956,-2.3912,-2.3863,-2.3925,-2.4016,-2.3725,-2.3592,-2.34,-2.3331,-2.3442,-2.3671,-2.3717,-2.379,-2.3814,-2.3999,-2.4079,-2.4117,-2.4217,-2.4081,-2.4137,-2.4301,-2.4438,-2.437,-2.4283,-2.4243,-2.4258,-2.4169,-2.3988,-2.4096,-2.4254,-2.4426,-2.4375,-2.3756,-2.1979,-1.9871,-1.8014,-1.7024,-1.7069,-1.9556,-2.4333,-2.8996,-2.9226,-2.7558,-2.6664,-2.5883,-2.4995,-2.4494,-2.43,-2.3951,-2.4094,-2.4003,-2.4143,-2.4021,-2.4057,-2.4014,-2.4005,-2.4028,-2.3998,-2.3973,-2.3935,-2.3739,-2.3648,-2.3657,-2.3822,-2.3938,-2.3787,-2.3655,-2.3584,-2.3641,-2.3522,-2.3542,-2.345,-2.3431,-2.3286,-2.3114,-2.3112,-2.3042,-2.2982,-2.2857,-2.2754,-2.2713,-2.271,-2.2532,-2.2364,-2.2257,-2.1966,-2.1773,-2.1686,-2.1556,-2.141,-2.1143,-2.0932,-2.0943,-2.0694,-2.024,-2.0191,-2.0063,-2.0012,-1.9905,-1.9721,-1.952,-1.9494,-1.9464,-1.9246,-1.9182,-1.9324,-1.9526,-1.9667,-1.9729,-2.0116,-2.0625,-2.0983,-2.1469,-2.2031,-2.2543,-2.2712,-2.31,-2.332,-2.3556,-2.3773,-2.3982,-2.4164,-2.4292,-2.4385,-2.4385,-2.4408,-2.4534,-2.4483,-2.4619,-2.4751,-2.4757,-2.4801,-2.4677,-2.4594,-2.4599,-2.4683,-2.4658,-2.4639,-2.4543,-2.4487,-2.4533,-2.4561,-2.4576,-2.4488,-2.4416,-2.4506,-2.4261,-2.4091,-2.421,-2.4349,-2.4295,-2.4419,-2.4303,-2.4375,-2.4311,-2.4309,-2.4307,-2.4214,-2.4242,-2.4349,-2.4438,-2.4445,-2.4503,-2.4446,-2.448,-2.4543,-2.4493,-2.4502,-2.4517,-2.4616,-2.4523,-2.4518,-2.4599,-2.4602,-2.4607,-2.4588,-2.4637,-2.4562,-2.452,-2.4516,-2.4511,-2.4504,-2.4644,-2.4592,-2.4545,-2.4455,-2.4415,-2.4521,-2.4634,-2.4576,-2.4552,-2.4589,-2.4676,-2.4731,-2.4707,-2.4579,-2.4396,-2.4233,-2.4295,-2.4276,-2.4217,-2.4171,-2.4054,-2.4022,-2.3881,-2.377,-2.3606,-2.3838,-2.4064,-2.413,-2.4241,-2.4325,-2.4474,-2.4583,-2.4573,-2.4476,-2.4368,-2.4479,-2.4649,-2.4633,-2.4672,-2.4629,-2.4651,-2.4595,-2.4738,-2.4679,-2.459,-2.4627,-2.4651,-2.4352,-2.2837,-2.1016,-1.9385,-1.7981,-1.8523,-1.9823,-2.408,-2.8045,-2.9042,-2.7812,-2.6846,-2.6296,-2.5746,-2.5437,-2.4988,-2.4848,-2.4614,-2.457,-2.4452,-2.4446,-2.4316,-2.4455,-2.439,-2.4555,-2.4432,-2.447,-2.4239,-2.4341,-2.44,-2.4244,-2.4325,-2.4366,-2.4201,-2.4186,-2.3904,-2.399,-2.3924,-2.4091,-2.4163,-2.4035,-2.384,-2.3895,-2.3801,-2.3701,-2.3693,-2.3688,-2.3728,-2.353,-2.3431,-2.3435,-2.3416,-2.3267,-2.3161,-2.2863,-2.2681,-2.2426,-2.2191,-2.2216,-2.192,-2.1777,-2.1605,-2.1427,-2.1319,-2.1082,-2.0946,-2.0956,-2.0976,-2.0712,-2.0544,-2.0419,-2.0345,-2.0436,-2.0546,-2.0667,-2.0865,-2.117,-2.1619,-2.2006,-2.2462,-2.2944,-2.3287,-2.3487,-2.4021,-2.46,-2.4895,-2.5,-2.514,-2.5293,-2.5368,-2.5523,-2.5701,-2.5828,-2.5651,-2.571,-2.5743,-2.5897,-2.5785,-2.585,-2.6007,-2.5868,-2.587,-2.5897,-2.5675,-2.5713,-2.5649,-2.5668,-2.572,-2.5625,-2.5637,-2.5474,-2.5508,-2.5326,-2.5327,-2.5316,-2.5345,-2.5366,-2.5342,-2.5361,-2.5452,-2.557,-2.5536,-2.5435,-2.537,-2.5532,-2.5698,-2.5749,-2.5731,-2.5653,-2.5584,-2.5649,-2.5667,-2.5716,-2.5764,-2.575,-2.568,-2.5662,-2.5891,-2.5715,-2.5616,-2.5601,-2.5629,-2.5635,-2.5655,-2.5774,-2.5764,-2.5719,-2.5843,-2.5868,-2.5803,-2.5754,-2.5758,-2.5738,-2.5832,-2.5708,-2.5558,-2.531,-2.531,-2.5337,-2.5332,-2.5293,-2.5059,-2.5015,-2.4816,-2.4823,-2.4851,-2.4876,-2.5069,-2.5282,-2.547,-2.5489,-2.5682,-2.571,-2.5787,-2.5717,-2.5812,-2.5728,-2.5916,-2.5875,-2.5816,-2.5846,-2.5856,-2.5836,-2.5823,-2.594,-2.5883,-2.5857,-2.595,-2.571,-2.4552,-2.2824,-2.0944,-1.879,-1.8009,-2.036,-2.5157,-3.013,-3.124,-2.9543,-2.8243,-2.7506,-2.6508,-2.5957,-2.5887,-2.564,-2.5669,-2.5594,-2.5505,-2.5486,-2.542,-2.5286,-2.5227,-2.5332,-2.531,-2.5156,-2.521,-2.5302,-2.5256,-2.5198,-2.502,-2.5009,-2.4912,-2.4908,-2.4839,-2.4907,-2.4941,-2.4887,-2.4819,-2.4735,-2.4676,-2.4578,-2.4415,-2.4324,-2.4383,-2.4305,-2.4143,-2.3902,-2.3874,-2.3929,-2.3628,-2.3388,-2.321,-2.3262,-2.32,-2.2871,-2.2753,-2.2588,-2.2178,-2.194,-2.1776,-2.1576,-2.1371,-2.1129,-2.0972,-2.0764,-2.0645,-2.0551,-2.0423,-2.027,-2.0186,-2.0245,-2.0289,-2.0404,-2.0634,-2.0952,-2.1214,-2.1726,-2.2294,-2.2821,-2.3347,-2.3834,-2.4083,-2.4318,-2.4491,-2.4824,-2.5183,-2.529,-2.5364,-2.5523,-2.5676,-2.5695,-2.5704,-2.5684,-2.5662,-2.5751,-2.585,-2.5872,-2.5733,-2.5676,-2.569,-2.5754,-2.5851,-2.586,-2.5756,-2.5856,-2.5935,-2.5879,-2.5646,-2.5574,-2.5734,-2.5661,-2.5658,-2.5683,-2.5455,-2.5605,-2.5634,-2.5681,-2.5635,-2.5583,-2.5575,-2.5514,-2.5535,-2.5526,-2.5569,-2.5569,-2.5454,-2.5391,-2.5681,-2.5599,-2.5525,-2.5444,-2.5667,-2.5819,-2.5757,-2.5589,-2.5586,-2.554,-2.5641,-2.5677,-2.5723,-2.5688,-2.5693,-2.5663,-2.5708,-2.565,-2.5633,-2.5693,-2.558,-2.5608,-2.5664,-2.5723,-2.5719,-2.5742,-2.5716,-2.5537,-2.5502,-2.5613,-2.5666,-2.5685,-2.5743,-2.5734,-2.5828,-2.5739,-2.5497,-2.5636,-2.5756,-2.559,-2.5296,-2.5378,-2.5414,-2.5283,-2.5229,-2.5072,-2.5051,-2.4827,-2.4645,-2.472,-2.5161,-2.5293,-2.5298,-2.5238,-2.52,-2.5544,-2.5743,-2.5898,-2.5825,-2.5877,-2.5839,-2.5786,-2.5824,-2.5813,-2.5827,-2.5776,-2.5838,-2.6005,-2.586,-2.5815,-2.5897,-2.6017,-2.5836,-2.496,-2.3012,-2.0896,-1.8892,-1.8209,-2.0175,-2.4872,-2.9957,-3.1516,-2.9651,-2.8291,-2.7557,-2.655,-2.5938,-2.5784,-2.5587,-2.5526,-2.5628,-2.5612,-2.5467,-2.5347,-2.5253,-2.5296,-2.5282,-2.5248,-2.5178,-2.5214,-2.5131,-2.5083,-2.5183,-2.4908,-2.4927,-2.5001,-2.5038,-2.5034,-2.4972,-2.49,-2.4823,-2.4663,-2.4636,-2.4533,-2.4435,-2.4466,-2.4359,-2.4301,-2.417,-2.3936,-2.3849,-2.3782,-2.3689,-2.3562,-2.3291,-2.3154,-2.3115,-2.297,-2.2922,-2.2613,-2.2325,-2.2259,-2.1988,-2.1694,-2.1481,-2.123,-2.1001,-2.0852,-2.0702,-2.0622,-2.0536,-2.0332,-2.0239,-2.012,-2.003,-2.006,-2.0187,-2.035,-2.0522,-2.0896,-2.1314,-2.1636,-2.2036,-2.2529,-2.3204,-2.3454,-2.3905,-2.4294,-2.4607,-2.4669,-2.4939,-2.5066,-2.5226,-2.5373,-2.5606,-2.5551,-2.5537,-2.564,-2.5585,-2.5611,-2.5734,-2.5759,-2.5632,-2.5651,-2.5721,-2.5542,-2.5515,-2.5643,-2.572,-2.5733,-2.5654,-2.5601,-2.5486,-2.5503,-2.5392,-2.5476,-2.5422,-2.5375,-2.5334,-2.5224,-2.5334,-2.5428,-2.5494,-2.5562,-2.5474,-2.5477,-2.5384,-2.533,-2.5324,-2.5444,-2.5571,-2.5494,-2.5565,-2.554,-2.551,-2.5622,-2.5562,-2.5523,-2.5617,-2.5567,-2.5518,-2.5389,-2.5594,-2.5591,-2.5691,-2.5644,-2.5588,-2.5615,-2.5593,-2.5562,-2.5617,-2.5682,-2.5567,-2.56,-2.5644,-2.5696,-2.5418,-2.5435,-2.5506,-2.5474,-2.5638,-2.5671,-2.5606,-2.5372,-2.5099,-2.5173,-2.5283,-2.5145,-2.4957,-2.4895,-2.4733,-2.4604,-2.4478,-2.466,-2.4919,-2.4981,-2.5001,-2.502,-2.5116,-2.5297,-2.5445,-2.5473,-2.5512,-2.5518,-2.5375,-2.5501,-2.5595,-2.566,-2.5541,-2.5581,-2.5404,-2.5206,-2.5277,-2.5531,-2.5652,-2.5399,-2.4488,-2.3558,-2.1649,-1.9869,-1.8433,-1.9109,-2.2615,-2.6714,-3.0099,-2.9211,-2.7962,-2.7366,-2.6677,-2.6063,-2.5544,-2.541,-2.5185,-2.5155,-2.5088,-2.5112,-2.4969,-2.4892,-2.4671,-2.48,-2.4807,-2.4867,-2.4838,-2.4821,-2.4677,-2.4751,-2.4732,-2.4837,-2.4726,-2.4711,-2.4607,-2.4591,-2.4566,-2.4623,-2.4647,-2.45,-2.4441,-2.4378,-2.4351,-2.4136,-2.4216,-2.4128,-2.3932,-2.3843,-2.3745,-2.376,-2.3704,-2.3485,-2.329,-2.3089,-2.288,-2.2752,-2.2411,-2.224,-2.2133,-2.2078,-2.1864,-2.1626,-2.1498,-2.1246,-2.1168,-2.0939,-2.0899,-2.0791,-2.0673,-2.0505,-2.0414,-2.0433,-2.0381,-2.0546,-2.0709,-2.096,-2.13,-2.1688,-2.2181,-2.2637,-2.3137,-2.3324,-2.3605,-2.3931,-2.4307,-2.4646,-2.4815,-2.4973,-2.5136,-2.5337,-2.5463,-2.5591,-2.5675,-2.562,-2.5393,-2.556,-2.5805,-2.5789,-2.5741,-2.5686,-2.573,-2.5744,-2.5711,-2.5612,-2.562,-2.5516,-2.5467,-2.5461,-2.5556,-2.5613,-2.5538,-2.5531,-2.5671,-2.5535,-2.5577,-2.5449,-2.5583,-2.5601,-2.5653,-2.557,-2.5683,-2.5669,-2.5651,-2.5783,-2.5906,-2.5845,-2.5628,-2.5693,-2.583,-2.5979,-2.5943,-2.5934,-2.5978,-2.5843,-2.5974,-2.6136,-2.6035,-2.575,-2.5696,-2.5574,-2.5585,-2.5656,-2.5779,-2.5513,-2.5138,-2.4922,-2.4915,-2.5362,-2.5757,-2.5782,-2.5788,-2.6025,-2.6066,-2.6083,-2.6148,-2.6238,-2.6273,-2.6213,-2.6429,-2.6505,-2.6486,-2.6429,-2.6341,-2.6356,-2.6477,-2.6377,-2.6209,-2.6219,-2.6442,-2.6431,-2.6455,-2.6098,-2.4461,-2.2645,-2.0743,-1.8909,-1.9316,-2.2774,-2.7114,-3.1312,-3.0684,-2.9847,-2.8845,-2.7947,-2.7297,-2.6483,-2.6448,-2.603,-2.5987,-2.5898,-2.5885,-2.5713,-2.5695,-2.5607,-2.5753,-2.5725,-2.5729,-2.56,-2.5668,-2.5555,-2.5581,-2.5489,-2.5398,-2.5339,-2.5317,-2.5214,-2.5178,-2.5073,-2.5209,-2.5006,-2.5043,-2.4818,-2.4805,-2.4908,-2.4873,-2.4715,-2.4627,-2.4425,-2.4493,-2.4267,-2.4131,-2.4081,-2.392,-2.3793,-2.3557,-2.3408,-2.3186,-2.3082,-2.2797,-2.2619,-2.2436,-2.2251,-2.1923,-2.1579,-2.1467,-2.1451,-2.1321,-2.1065,-2.0917,-2.0802,-2.0817,-2.0848,-2.0652,-2.0829,-2.0948,-2.1222,-2.1391,-2.1852,-2.233,-2.284,-2.3143,-2.3698,-2.4308,-2.4561,-2.4837,-2.5039,-2.5279,-2.5499,-2.5759,-2.5903,-2.5855,-2.5869,-2.6078,-2.6071,-2.6114,-2.6167,-2.6052,-2.6039,-2.6056,-2.622,-2.6156,-2.6214,-2.6089,-2.6094,-2.6043,-2.6027,-2.5949,-2.5966,-2.595,-2.579,-2.5745,-2.5846,-2.5767,-2.5758,-2.5682,-2.5688,-2.5656,-2.569,-2.5457,-2.549,-2.5654,-2.5713,-2.5729,-2.5728,-2.5706,-2.5738,-2.5685,-2.5726,-2.5747,-2.566,-2.5662,-2.5723,-2.5655,-2.5704,-2.5756,-2.5755,-2.568,-2.5624,-2.5618,-2.5666,-2.5701,-2.5781,-2.585,-2.5831,-2.5641,-2.5518,-2.5412,-2.5349,-2.521,-2.5214,-2.5296,-2.5201,-2.4819,-2.4502,-2.452,-2.4491,-2.485,-2.4957,-2.5183,-2.5305,-2.5518,-2.5559,-2.5644,-2.5793,-2.5791,-2.5685,-2.5661,-2.5751,-2.5829,-2.5961,-2.5981,-2.5885,-2.5918,-2.5776,-2.5829,-2.585,-2.5814,-2.5857,-2.5951,-2.5868,-2.5367,-2.3596,-2.1514,-1.9326,-1.7831,-1.9278,-2.3804,-2.865,-3.1615,-3.017,-2.9141,-2.8143,-2.7098,-2.6362,-2.5772,-2.5699,-2.5363,-2.5552,-2.5364,-2.5351,-2.527,-2.5252,-2.513,-2.5272,-2.5094,-2.5236,-2.5128,-2.5066,-2.492,-2.4984,-2.4872,-2.4876,-2.4897,-2.4882,-2.4669,-2.4644,-2.4573,-2.4623,-2.4565,-2.454,-2.4439,-2.4449,-2.4204,-2.4212,-2.4156,-2.4011,-2.3989,-2.3814,-2.375,-2.3567,-2.3544,-2.3388,-2.319,-2.3033,-2.2854,-2.2665,-2.2514,-2.2289,-2.2026,-2.1763,-2.1583,-2.1339,-2.1192,-2.0985,-2.0794,-2.0702,-2.0528,-2.0249,-2.0111,-2.001,-1.9967,-1.9918,-1.991,-2.0118,-2.0387,-2.0744,-2.1266,-2.1651,-2.2017,-2.2688,-2.315,-2.3617,-2.3896,-2.4207,-2.4503,-2.465,-2.4906,-2.5021,-2.5235,-2.5268,-2.5305,-2.5353,-2.5454,-2.5493,-2.5549,-2.5519,-2.5534,-2.5573,-2.5559,-2.552,-2.5619,-2.5645,-2.5663,-2.5502,-2.5472,-2.544,-2.5468,-2.5414,-2.5372,-2.528,-2.5373,-2.5327,-2.5211,-2.5274,-2.524,-2.5295,-2.5328,-2.5284,-2.5185,-2.5143,-2.5141,-2.508,-2.5125,-2.5118,-2.5193,-2.5144,-2.5256,-2.5311,-2.5398,-2.5265,-2.5246,-2.5334,-2.5244,-2.5128,-2.5146,-2.5191,-2.5327,-2.5335,-2.5288,-2.5182,-2.5193,-2.5254,-2.5283,-2.5265,-2.53,-2.5211,-2.5264,-2.5159,-2.492,-2.5092,-2.5167,-2.5312,-2.5367,-2.5311,-2.5265,-2.5255,-2.5059,-2.4917,-2.4791,-2.48,-2.4786,-2.4795,-2.4628,-2.4153,-2.3949,-2.3929,-2.4241,-2.4609,-2.4635,-2.4694,-2.4764,-2.4953,-2.4966,-2.5211,-2.5268,-2.5284,-2.5201,-2.5255,-2.5377,-2.5317,-2.5344,-2.5282,-2.5294,-2.5239,-2.5255,-2.5172,-2.5069,-2.5238,-2.5444,-2.5506,-2.5126,-2.3709,-2.1832,-1.9869,-1.7556,-1.7897,-2.1372,-2.658,-3.1046,-3.0362,-2.8484,-2.7613,-2.653,-2.565,-2.5277,-2.5257,-2.5106,-2.5241,-2.5067,-2.5116,-2.4903,-2.4963,-2.4845,-2.4876,-2.4784,-2.4795,-2.4725,-2.4802,-2.4727,-2.4671,-2.4582,-2.4587,-2.4495,-2.444,-2.4403,-2.4394,-2.4326,-2.4312,-2.4254,-2.42,-2.4105,-2.3981,-2.3964,-2.3907,-2.3815,-2.37,-2.3572,-2.3513,-2.3445,-2.3379,-2.3148,-2.2915,-2.2754,-2.2642,-2.2447,-2.2126,-2.1941,-2.1798,-2.1694,-2.1559,-2.1333,-2.111,-2.0826,-2.0593,-2.0495,-2.0374,-2.0283,-1.9975,-1.9901,-1.9892,-1.9693,-1.9695,-1.9771,-1.9775,-1.9973,-2.0267,-2.0856,-2.134,-2.1767,-2.1966,-2.2497,-2.2943,-2.3348,-2.3727,-2.4016,-2.421,-2.4454,-2.4753,-2.4886,-2.5035,-2.5179,-2.5225,-2.5227,-2.518,-2.5335,-2.5385,-2.5339,-2.5305,-2.5335,-2.5502,-2.5477,-2.5504,-2.5457,-2.5388,-2.5383,-2.5339,-2.537,-2.5447,-2.5399,-2.5298,-2.5284,-2.5214,-2.5299,-2.5286,-2.5381,-2.5307,-2.5199,-2.5156,-2.5049,-2.5087,-2.5251,-2.5298,-2.5316,-2.5273,-2.5348,-2.5394,-2.5286,-2.5355,-2.5387,-2.5395,-2.5318,-2.5393,-2.5445,-2.5457,-2.5452,-2.5556,-2.5622,-2.5557,-2.5512,-2.5475,-2.5616,-2.542,-2.548,-2.5484,-2.5573,-2.5634,-2.5611,-2.5484,-2.551,-2.5477,-2.5523,-2.5507,-2.5496,-2.5586,-2.5484,-2.5557,-2.5575,-2.5534,-2.5483,-2.544,-2.5354,-2.5097,-2.5165,-2.5223,-2.5102,-2.5115,-2.503,-2.4678,-2.4487,-2.4321,-2.4627,-2.4925,-2.5006,-2.5135,-2.5066,-2.5279,-2.541,-2.5472,-2.5404,-2.5362,-2.5436,-2.5504,-2.5579,-2.5542,-2.5559,-2.5631,-2.5554,-2.5475,-2.5502,-2.555,-2.5573,-2.5684,-2.5672,-2.5178,-2.3701,-2.1799,-1.9875,-1.8361,-1.9124,-2.0645,-2.4866,-2.9265,-3.0013,-2.8823,-2.7871,-2.7356,-2.6482,-2.5985,-2.5618,-2.559,-2.5265,-2.5254,-2.5267,-2.5466,-2.5171,-2.5052,-2.5091,-2.5224,-2.5084,-2.5015,-2.4908,-2.4836,-2.4933,-2.4957,-2.4831,-2.4872,-2.4894,-2.4898,-2.4801,-2.4666,-2.4617,-2.4673,-2.4587,-2.452,-2.4405,-2.4301,-2.425,-2.4172,-2.4057,-2.4041,-2.3951,-2.3821,-2.3727,-2.3669,-2.3506,-2.3253,-2.3206,-2.3117,-2.2891,-2.271,-2.2432,-2.2282,-2.21,-2.1911,-2.1731,-2.155,-2.1358,-2.1225,-2.1242,-2.116,-2.099,-2.0843,-2.0647,-2.0594,-2.0522,-2.061,-2.0751,-2.0806,-2.0979,-2.1214,-2.1688,-2.2196,-2.2605,-2.2953,-2.3377,-2.3647,-2.409,-2.4401,-2.4635,-2.4739,-2.4932,-2.5141,-2.5268,-2.5268,-2.526,-2.5343,-2.5506,-2.555,-2.5642,-2.5702,-2.564,-2.5515,-2.5623,-2.5597,-2.5562,-2.561,-2.5614,-2.5573,-2.5611,-2.5561,-2.5504,-2.536,-2.5156,-2.5209,-2.531,-2.5336,-2.5412,-2.5235,-2.5312,-2.5406,-2.5439,-2.5375,-2.5546,-2.5529,-2.5504,-2.5656,-2.5611,-2.5545,-2.5564,-2.552,-2.5608,-2.5599,-2.544,-2.5547,-2.5661,-2.5688,-2.5682,-2.5571,-2.5546,-2.5468,-2.5398,-2.5305,-2.5332,-2.5352,-2.5187,-2.4689,-2.4638,-2.4695,-2.4804,-2.5049,-2.5189,-2.5361,-2.5355,-2.5575,-2.5677,-2.5772,-2.5851,-2.5739,-2.575,-2.5998,-2.6147,-2.6245,-2.6201,-2.6139,-2.6158,-2.624,-2.6078,-2.6106,-2.6148,-2.6143,-2.6163,-2.6098,-2.6117,-2.5707,-2.4448,-2.2558,-2.0741,-1.9145,-1.9427,-2.2804,-2.7168,-3.1093,-3.0348,-2.8959,-2.823,-2.7604,-2.7037,-2.6525,-2.6504,-2.6117,-2.6009,-2.5854,-2.5851,-2.5685,-2.564,-2.5688,-2.5677,-2.5756,-2.5741,-2.5517,-2.5499,-2.5461,-2.5431,-2.5217,-2.5271,-2.5309,-2.5343,-2.5238,-2.5302,-2.5191,-2.5128,-2.4866,-2.488,-2.4883,-2.4982,-2.4798,-2.4764,-2.4604,-2.458,-2.4407,-2.4223,-2.4202,-2.4024,-2.3833,-2.3637,-2.3533,-2.3438,-2.3152,-2.2965,-2.2984,-2.2862,-2.2531,-2.222,-2.204,-2.1916,-2.1802,-2.1545,-2.1244,-2.1126,-2.1151,-2.0972,-2.0888,-2.071,-2.0714,-2.0752,-2.0879,-2.1099,-2.1467,-2.1646,-2.2025,-2.2431,-2.2892,-2.3456,-2.3881,-2.4221,-2.4578,-2.4904,-2.5154,-2.5382,-2.5541,-2.5612,-2.5857,-2.6003,-2.5884,-2.5936,-2.601,-2.6116,-2.6216,-2.6286,-2.6244,-2.6181,-2.614,-2.6168,-2.6113,-2.6146,-2.6118,-2.6131,-2.6081,-2.6032,-2.604,-2.5952,-2.59,-2.5904,-2.595,-2.5958,-2.6011,-2.5945,-2.5816,-2.5762,-2.5787,-2.5841,-2.5898,-2.5916,-2.5897,-2.5888,-2.5943,-2.5918,-2.598,-2.6028,-2.5844,-2.5811,-2.6053,-2.6001,-2.5968,-2.5979,-2.6092,-2.595,-2.5925,-2.5902,-2.602,-2.5997,-2.5907,-2.6019,-2.6038,-2.6041,-2.6102,-2.5975,-2.6007,-2.6125,-2.6069,-2.5981,-2.5983,-2.5902,-2.5779,-2.5604,-2.5627,-2.5445,-2.5497,-2.5564,-2.5419,-2.5053,-2.4847,-2.4829,-2.5053,-2.519,-2.5432,-2.5653,-2.5702,-2.5808,-2.5947,-2.6019,-2.6062,-2.6104,-2.5988,-2.62,-2.6202,-2.6158,-2.62,-2.6255,-2.6194,-2.6337,-2.6156,-2.623,-2.6295,-2.6278,-2.63,-2.6387,-2.6195,-2.5001,-2.3292,-2.1177,-1.895,-1.8637,-2.1323,-2.6048,-3.0912,-3.1716,-2.9953,-2.9135,-2.8134,-2.7144,-2.6499,-2.634,-2.6114,-2.5898,-2.5849,-2.588,-2.5819,-2.5828,-2.5714,-2.5633,-2.569,-2.5656,-2.5504,-2.5616,-2.5592,-2.5531,-2.544,-2.5403,-2.5452,-2.547,-2.5262,-2.52,-2.5172,-2.5067,-2.5112,-2.5169,-2.5097,-2.4986,-2.4817,-2.4638,-2.4751,-2.4711,-2.4578,-2.4459,-2.4277,-2.4178,-2.402,-2.3941,-2.3839,-2.3543,-2.3433,-2.3314,-2.3227,-2.294,-2.2689,-2.2486,-2.2165,-2.1907,-2.1694,-2.1583,-2.1367,-2.116,-2.1002,-2.0771,-2.0805,-2.056,-2.045,-2.0445,-2.053,-2.0584,-2.0833,-2.1157,-2.1428,-2.1911,-2.2414,-2.2898,-2.3329,-2.3737,-2.4104,-2.4487,-2.4645,-2.4969,-2.5329,-2.5416,-2.5586,-2.5737,-2.5831,-2.5902,-2.5811,-2.5862,-2.5815,-2.5915,-2.5991,-2.5879,-2.5999,-2.606,-2.6004,-2.5882,-2.587,-2.5932,-2.5952,-2.5913,-2.5896,-2.5893,-2.5888,-2.589,-2.5869,-2.5858,-2.5772,-2.574,-2.5756,-2.5726,-2.5669,-2.5634,-2.5475,-2.5549,-2.5681,-2.5779,-2.5643,-2.5708,-2.5737,-2.5599,-2.5669,-2.5643,-2.5608,-2.5618,-2.5648,-2.5667,-2.5717,-2.5683,-2.5743,-2.5553,-2.5502,-2.5624,-2.565,-2.566,-2.5682,-2.5688,-2.5562,-2.5595,-2.5716,-2.5757,-2.5674,-2.5607,-2.5665,-2.5613,-2.5619,-2.5566,-2.5512,-2.5513,-2.5512,-2.5626,-2.561,-2.5654,-2.5637,-2.5659,-2.5657,-2.559,-2.5528,-2.5551,-2.542,-2.5439,-2.5559,-2.5601,-2.5608,-2.5555,-2.5522,-2.5457,-2.5649,-2.5574,-2.541,-2.5264,-2.5226,-2.5044,-2.5075,-2.5131,-2.4922,-2.4717,-2.4432,-2.4308,-2.4377,-2.4613,-2.4904,-2.5056,-2.5074,-2.5331,-2.5388,-2.5364,-2.5394,-2.5585,-2.5588,-2.5543,-2.5674,-2.5679,-2.5776,-2.5624,-2.5496,-2.5475,-2.5513,-2.5545,-2.5505,-2.5547,-2.5593,-2.5616,-2.5206,-2.3597,-2.2686,-2.0617,-1.8361,-1.8028,-2.0186,-2.5103,-2.9893,-3.1022,-2.9118,-2.7883,-2.6962,-2.6038,-2.559,-2.5535,-2.5177,-2.5232,-2.5226,-2.5179,-2.4983,-2.5052,-2.511,-2.5062,-2.4921,-2.4974,-2.4888,-2.4804,-2.4711,-2.4778,-2.4713,-2.469,-2.4683,-2.4504,-2.4429,-2.443,-2.4388,-2.433,-2.4384,-2.4213,-2.4244,-2.4158,-2.4128,-2.3962,-2.3898,-2.3817,-2.3786,-2.3782,-2.3507,-2.3304,-2.3336,-2.3144,-2.3029,-2.2871,-2.2628,-2.2402,-2.2225,-2.2088,-2.2059,-2.1759,-2.1399,-2.1201,-2.1062,-2.0785,-2.0586,-2.0502,-2.0422,-2.0252,-2.0106,-1.9972,-1.9923,-1.9835,-1.9747,-1.9763,-1.9895,-2.0111,-2.0514,-2.0938,-2.13,-2.1638,-2.2192,-2.2813,-2.2993,-2.3356,-2.3778,-2.3905
