7.7734,7.7366,7.7154,7.7107,7.7155,7.7225,7.7126,7.6874,7.6829,7.6959,7.7079,7.7028,7.6867,7.6888,7.6993,7.7184,7.7248,7.7217,7.7346,7.7581,7.7797,7.7735,7.7571,7.7547,7.7649,7.7836,7.789,7.768,7.7557,7.7625,7.7766,7.7826,7.7666,7.7654,7.7762,7.7934,7.7986,7.7784,7.768,7.7768,7.7882,7.7913,7.7711,7.7602,7.745,7.748,7.7481,7.7267,7.704,7.6978,7.7063,7.7146,7.7007,7.6808,7.689,7.702,7.7178,7.7113,7.6993,7.7059,7.7241,7.7451,7.7416,7.7358,7.7301,7.7402,7.7646,7.7726,7.7594,7.7548,7.7611,7.7824,7.792,7.7747,7.771,7.7812,7.804,7.8114,7.7955,7.7923,7.8088,7.8229,7.8317,7.8297,7.8252,7.8364,7.8719,7.8976,7.8983,7.8983,7.9061,7.9294,7.9466,7.9382,7.9149,7.9199,7.9359,7.9364,7.9119,7.8824,7.8819,7.8925,7.9024,7.8984,7.8782,7.8694,7.8785,7.8967,7.8938,7.8773,7.8668,7.8816,7.8921,7.8654,7.7501,7.6279,7.7317,7.9898,8.2345,8.6667,9.0479,9.1983,9.2774,9.0281,8.6053,8.0255,7.8933,7.8673,7.8663,7.8774,7.8474,7.8774,7.8906,7.9445,7.9268,7.9367,7.9259,7.9552,7.95,7.9571,7.9347,7.9509,7.9389,7.9399,7.9155,7.8966,7.8599,7.8703,7.8635,7.8693,7.8441,7.8614,7.8755,7.9164,7.9205,7.9247,7.9272,7.9568,7.98,7.9919,7.9817,8.0068,8.0341,8.0784,8.0867,8.1057,8.1199,8.1576,8.2103,8.2445,8.2573,8.2722,8.3051,8.3401,8.3708,8.3695,8.3698,8.3794,8.3872,8.3753,8.3298,8.274,8.2453,8.2164,8.2063,8.16,8.1044,8.0697,8.0554,8.0492,8.0296,7.9936,7.9821,7.9832,7.9941,7.9822,7.9647,7.9519,7.9645,7.972,7.9657,7.9436,7.9411,7.9515,7.9656,7.9619,7.9567,7.9509,7.9711,7.991,8.0107,7.9918,7.9915,7.9979,8.0155,8.0121,7.9974,7.9805,7.9827,7.9927,8.0003,7.9739,7.9616,7.9614,7.9739,7.9829,7.9856,7.9649,7.9712,7.9792,8.0011,7.9881,7.968,7.966,7.9805,7.9872,7.9803,7.9599,7.9631,7.9724,7.9834,7.9694,7.9528,7.953,7.959,7.971,7.974,7.9499,7.9404,7.9435,7.9592,7.9587,7.94,7.926,7.9342,7.9427,7.9494,7.9232,7.9143,7.9188,7.9315,7.934,7.9143,7.9083,7.9247,7.9347,7.9512,7.9437,7.9304,7.9368,7.9496,7.9613,7.9528,7.9436,7.9416,7.9589,7.9734,7.9649,7.9555,7.9635,7.9724,7.993,7.9851,7.9732,7.9891,8.0005,8.0161,8.0275,8.0131,8.0105,8.0276,8.0492,8.0365,8.0192,8.0122,8.0227,8.0251,8.0134,7.9772,7.9703,7.9645,7.9809,7.9747,7.9481,7.9379,7.9429,7.9499,7.9596,7.946,7.9327,7.9282,7.9394,7.9289,7.8216,7.6839,7.7769,8.0347,8.2891,8.7141,9.0935,9.2498,9.3253,9.1168,8.3553,7.996,7.9834,7.9119,7.9514,7.9412,7.9332,7.9266,7.9663,7.9973,8.0209,7.9992,8.0078,8.0125,8.0392,8.0276,8.0169,7.9962,8.0039,7.9955,7.982,7.9337,7.9294,7.9168,7.9262,7.9214,7.9156,7.9045,7.9229,7.9476,7.9759,7.968,7.9724,7.9862,8.0151,8.0329,8.0334,8.0413,8.073,8.1129,8.1511,8.1664,8.1762,8.2052,8.248,8.2907,8.3075,8.3129,8.3354,8.3655,8.3982,8.4063,8.4003,8.4017,8.4073,8.4007,8.3594,8.3079,8.2619,8.2297,8.1987,8.1579,8.1014,8.0867,8.0643,8.0586,8.0525,8.0221,7.9999,7.9989,8.0018,8.0078,7.9868,7.9725,7.9743,7.9874,7.9896,7.971,7.9555,7.9604,7.9683,7.9741,7.9621,7.9645,7.973,7.9935,8.0139,8.0112,7.9917,7.9954,8.0005,8.0182,8.0037,7.9848,7.9796,8.0001,8.0064,7.9995,7.9746,7.9702,7.9812,7.9957,7.9855,7.9767,7.9624,7.9694,7.98,7.9769,7.9568,7.9483,7.9529,7.9671,7.9662,7.9439,7.9238,7.9302,7.9366,7.9329,7.9127,7.9034,7.9119,7.9234,7.9284,7.9176,7.9014,7.9014,7.9063,7.9171,7.9009,7.8832,7.8792,7.8914,7.8973,7.8796,7.8596,7.861,7.869,7.8767,7.8674,7.8565,7.8599,7.8761,7.8908,7.8901,7.8734,7.8658,7.875,7.8883,7.8945,7.8707,7.8674,7.878,7.8966,7.8985,7.8832,7.8817,7.8962,7.9092,7.9176,7.9074,7.9052,7.9217,7.9452,7.946,7.9401,7.9351,7.939,7.9642,7.9743,7.9521,7.9333,7.942,7.9512,7.9456,7.9118,7.8817,7.8803,7.8829,7.8822,7.8593,7.8458,7.8441,7.856,7.86,7.8544,7.8367,7.8307,7.841,7.8533,7.8355,7.734,7.5988,7.6552,7.9133,8.1393,8.5214,8.9462,9.1359,9.1821,9.0833,8.3426,7.916,7.8753,7.8324,7.8617,7.8258,7.8382,7.8314,7.8779,7.8943,7.9063,7.8863,7.9127,7.9136,7.9317,7.9106,7.906,7.8944,7.9044,7.8878,7.8578,7.817,7.8134,7.8095,7.8225,7.8058,7.7988,7.7971,7.8287,7.8499,7.866,7.8556,7.8745,7.8944,7.927,7.9295,7.9326,7.9447,7.9853,8.0218,8.0464,8.056,8.0907,8.1286,8.1549,8.185,8.1988,8.2118,8.2482,8.2892,8.3169,8.3215,8.3297,8.3429,8.3535,8.3441,8.2963,8.2573,8.2156,8.1835,8.1471,8.0897,8.0452,8.0201,8.0087,8.0028,7.9697,7.9348,7.9163,7.9213,7.9325,7.9231,7.8975,7.895,7.8979,7.9154,7.9012,7.8856,7.8819,7.8945,7.9041,7.8964,7.8724,7.8846,7.8906,7.9159,7.9173,7.8991,7.8897,7.9011,7.9173,7.9197,7.9005,7.8948,7.8961,7.9001,7.9092,7.8971,7.8857,7.8937,7.9051,7.9116,7.8948,7.8874,7.8812,7.898,7.9098,7.8954,7.8715,7.8723,7.8821,7.8963,7.881,7.8639,7.8561,7.8665,7.876,7.8625,7.8456,7.8515,7.8669,7.8865,7.8725,7.8641,7.8629,7.8743,7.8856,7.8855,7.8624,7.8551,7.8576,7.8693,7.8667,7.8388,7.8255,7.8378,7.8548,7.8586,7.8373,7.829,7.8413,7.8579,7.865,7.8538,7.8547,7.859,7.8829,7.8993,7.8794,7.8699,7.8794,7.8902,7.9001,7.8926,7.8898,7.8928,7.9085,7.9287,7.9203,7.915,7.9334,7.9613,7.9826,7.9705,7.9507,7.9562,7.9775,7.9939,7.9804,7.9604,7.9532,7.9558,7.9584,7.9421,7.9222,7.9113,7.9251,7.9307,7.921,7.9089,7.9029,7.911,7.9229,7.9222,7.9005,7.8951,7.909,7.9101,7.8499,7.7052,7.7252,7.9634,8.2366,8.6073,9.03,9.1626,9.1646,9.107,8.4579,8.0369,7.9844,7.9147,7.9687,7.9785,7.9779,7.9653,7.9995,8.038,8.0759,8.0777,8.0692,8.0599,8.0842,8.101,8.0883,8.0512,8.0451,8.0328,8.0415,8.0078,7.9844,7.9717,7.9765,7.9869,7.997,7.9865,7.9964,8.0087,8.0408,8.0613,8.055,8.0558,8.0811,8.1178,8.1429,8.146,8.1563,8.1837,8.2264,8.2641,8.2707,8.2917,8.328,8.3678,8.4015,8.4051,8.416,8.4389,8.469,8.5027,8.5062,8.5045,8.5057,8.5066,8.4949,8.4514,8.3858,8.347,8.3146,8.2807,8.233,8.1736,8.1461,8.1344,8.122,8.083,8.0648,8.0498,8.0444,8.0534,8.0485,8.0208,8.0055,8.0078,8.0175,8.0224,7.9942,7.9929,8.0051,8.0216,8.0187,7.9992,7.9913,7.994,8.0017,7.9974,7.9838,7.9674,7.9597,7.9737,7.9739,7.9575,7.9373,7.946,7.9555,7.9747,7.9716,7.9565,7.9601,7.9666,7.9764,7.9629,7.9441,7.9446,7.9573,7.9619,7.9542,7.9313,7.9101,7.9176,7.9159,7.9081,7.877,7.8657,7.8687,7.878,7.8681,7.8564,7.8489,7.8626,7.8827,7.8931,7.8704,7.8689,7.8718,7.8867,7.8896,7.8786,7.8583,7.859,7.8608,7.8624,7.8363,7.812,7.7979,7.8019,7.8035,7.7797,7.7552,7.7572,7.7626,7.7618,7.7621,7.7548,7.7559,7.7799,7.7846,7.767,7.7549,7.7362,7.7343,7.7454,7.7372,7.7092,7.69,7.6751,7.6758,7.6637,7.6358,7.6238,7.6288,7.6387,7.6332,7.6061,7.6028,7.6124,7.6213,7.6254,7.6107,7.5913,7.5721,7.4821,7.4117,7.5399,7.8054,8.1048,8.5584,8.8418,8.8264,8.8951,8.4341,7.8679,7.7193,7.6337,7.6101,7.6348,7.6522,7.6714,7.6868,7.6832,7.7227,7.745,7.7769,7.772,7.7639,7.7607,7.7818,7.7869,7.7842,7.748,7.7313,7.7152,7.7205,7.6919,7.6651,7.6514,7.6773,7.6841,7.7037,7.7006,7.7085,7.7302,7.7675,7.7875,7.7917,7.794,7.8208,7.8486,7.8722,7.876,7.8914,7.9184,7.9627,7.9981,8.0107,8.0299,8.0513,8.0729,8.107,8.1162,8.1164,8.1254,8.1437,8.1625,8.1429,8.1096,8.0799,8.0605,8.0313,7.9787,7.9171,7.8733,7.8436,7.8276,7.7824,7.7351,7.7008,7.6981,7.6959,7.6831,7.6489,7.6366,7.6367,7.6509,7.6529,7.6369,7.6305,7.6423,7.6534,7.665,7.6503,7.6551,7.6717,7.7025,7.7184,7.7174,7.7187,7.7219,7.7311,7.7529,7.7483,7.7364,7.7426,7.7606,7.7674,7.762,7.7482,7.7592,7.7875,7.8121,7.8107,7.8028,7.8141,7.8345,7.852,7.8468,7.8319,7.8316,7.8437,7.8577,7.8608,7.8394,7.8286,7.8331,7.8384,7.8359,7.8098,7.8022,7.8076,7.8235,7.8203,7.8032,7.7983,7.8074,7.8223,7.8339,7.8173,7.8135,7.8153,7.8315,7.8432,7.8334,7.8219,7.8265,7.8471,7.8676,7.8551,7.8423,7.8532,7.8752,7.8899,7.879,7.8744,7.8804,7.8952,7.9086,7.8981,7.8889,7.882,7.8958,7.9141,7.9223,7.9108,7.9207,7.931,7.9488,7.9644,7.9486,7.9546,7.9694,7.9846,7.9768,7.9641,7.9586,7.9637,7.9666,7.9474,7.9293,7.9244,7.9255,7.9369,7.9404,7.9194,7.9026,7.905,7.9153,7.9247,7.9044,7.8925,7.8924,7.8698,7.7693,7.6731,7.8019,8.0421,8.3424,8.8304,9.1263,9.1937,9.2377,9.2264,8.5206,8.0178,7.9399,7.8808,7.9089,7.9069,7.9235,7.8959,7.9338,7.9463,7.9909,7.9891,7.9834,7.9785,8.0016,8.0069,8.011,7.9899,7.9735,7.9487,7.9526,7.934,7.9049,7.8792,7.891,7.9048,7.9305,7.9212,7.928,7.9494,7.9825,7.9987,7.9994,7.9988,8.0216,8.0442,8.076,8.0783,8.0884,8.1157,8.1656,8.215,8.2464,8.2719,8.3041,8.3421,8.3895,8.4105,8.4205,8.4443,8.4714,8.5039,8.5083,8.496,8.492,8.4817,8.4675,8.4521,8.3986,8.3466,8.3103,8.2861,8.2556,8.2069,8.1694,8.1556,8.1538,8.1514,8.1237,8.1131,8.1119,8.1267,8.1228,8.1053,8.0953,8.1032,8.113,8.1192,8.106,8.0879,8.0864,8.1058,8.1102,8.1115,8.1028,8.1101,8.1278,8.1462,8.1325,8.116,8.1112,8.1256,8.1332,8.1236,8.1055,8.1142,8.1179,8.1274,8.1214,8.1054,8.0937,8.1091,8.1206,8.1254,8.102,8.0971,8.0981,8.1109,8.1079,8.0881,8.0782,8.0944,8.1057,8.1023,8.0808,8.0746,8.0795,8.0967,8.0972,8.0866,8.0681,8.0704,8.0861,8.094,8.0783,8.0605,8.0589,8.0672,8.0768,8.0628,8.044,8.0446,8.0552,8.0602,8.0468,8.0322,8.0307,8.0439,8.0526,8.0527,8.035,8.0335,8.0473,8.065,8.0661,8.051,8.0499,8.0569,8.0833,8.0791,8.0782,8.0799,8.093,8.1239,8.1263,8.11,8.1217,8.1275,8.132,8.134,8.1234,8.1065,8.0977,8.0984,8.0938,8.0743,8.0552,8.0531,8.072,8.0745,8.0634,8.047,8.055,8.0681,8.079,8.0628,8.0511,8.0418,8.0229,7.9314,7.8358,7.9562,8.2086,8.4978,8.9629,9.2683,9.3399,9.4187,9.0382,8.3884,8.1718,8.0962,8.0873,8.1084,8.1256,8.1316,8.1244,8.1516,8.1623,8.1904,8.2031,8.1948,8.1795,8.1867,8.2058,8.2191,8.1997,8.1741,8.1568,8.157,8.1477,8.1276,8.1108,8.1143,8.1294,8.1364,8.1289,8.133,8.1401,8.1698,8.1945,8.2052,8.1986,8.2065,8.2259,8.2551,8.2698,8.2774,8.3005,8.3463,8.3988,8.4303,8.4466,8.4779,8.5216,8.5663,8.5975,8.6086,8.6301,8.6398,8.6737,8.697,8.698,8.6808,8.6784,8.6595,8.6286,8.5697,8.5215,8.4893,8.4536,8.4105,8.3614,8.3248,8.3105,8.3029,8.2985,8.2678,8.2482,8.2464,8.2586,8.2691,8.2555,8.2357,8.2298,8.2408,8.2531,8.2466,8.2296,8.2264,8.2434,8.2668,8.2657,8.2573,8.2623,8.2747,8.2939,8.2802,8.2622,8.2647,8.2588,8.2656,8.2653,8.2396,8.2228,8.2258,8.2407,8.2366,8.2117,8.2022,8.2059,8.2242,8.2171,8.1938,8.187,8.1913,8.1978,8.1949,8.1641,8.1517,8.1501,8.1491,8.1587,8.1386,8.1071,8.1018,8.1147,8.1205,8.1064,8.1006,8.1072,8.1221,8.1381,8.1391,8.1249,8.1276,8.1411,8.1567,8.1461,8.1352,8.127,8.1379,8.1544,8.1573,8.13,8.1308,8.146,8.1653,8.1736,8.1724,8.183,8.2051,8.2376,8.2489,8.2276,8.2308,8.2436,8.2626,8.2643,8.2497,8.2381,8.2391,8.2252,8.2372,8.2145,8.1942,8.2093,8.2093,8.2174,8.2004,8.1849,8.1787,8.194,8.209,8.1978,8.1738,8.1602,8.0939,8.0026,8.084,8.2136,8.4675,8.8144,9.2699,9.4197,9.3188,9.3048,8.68,8.2986,8.2229,8.1351,8.152,8.1675,8.1896,8.194,8.2079,8.2268,8.2611,8.28,8.2824,8.279,8.2717,8.2763,8.281,8.2729,8.2579,8.2247,8.2076,8.2095,8.1952,8.1736,8.1507,8.1508,8.1758,8.187,8.1835,8.1883,8.2113,8.2431,8.2712,8.269,8.2755,8.2893,8.3224,8.3611,8.3884,8.387,8.4004,8.4348,8.4892,8.5035,8.5175,8.536,8.5696,8.5969,8.6129,8.6137,8.6241,8.6474,8.6688,8.6696,8.6424,8.6066,8.5753,8.5489,8.5097,8.4379,8.3905,8.3443,8.3183,8.2852,8.2349,8.1978,8.185,8.1769,8.1605,8.131,8.1061,8.1015,8.1151,8.1173,8.0941,8.0737,8.0614,8.06,8.0697,8.0552,8.0371,8.038,8.0541,8.0565,8.0426,8.0205,8.0122,8.0167,8.0151,7.9898,7.9491,7.9257,7.9154,7.9133,7.9077,7.8789,7.8511,7.8592,7.8637,7.8572,7.8278,7.8237,7.8288,7.8425,7.8357,7.8057,7.8011,7.8065,7.8154,7.8047,7.7709,7.7498,7.7368,7.7394,7.7346,7.705,7.6737,7.6577,7.6528,7.6498,7.6313,7.609,7.6083,7.6245,7.6273,7.6071,7.5911,7.5849,7.6016,7.6457,7.621,7.5858,7.5747,7.5812,7.5872,7.5788,7.5525,7.5355,7.5483,7.5607,7.5723,7.5655,7.5677,7.5886,7.616,7.6242,7.6027,7.5945,7.5982,7.6055,7.5918,7.5616,7.5389,7.5226,7.4964,7.399,7.2871,7.4077,7.6794,7.9839,8.4285,8.7077,8.7082,8.8111,8.3884,7.8155,7.6562,7.5989,7.6172,7.6701,7.7112,7.7091,7.7377,7.7658,7.7951,7.8309,7.8383,7.8177,7.8164,7.8128,7.8236,7.801,7.7591,7.7175,7.7032,7.6807,7.6426,7.5879,7.5648,7.5539,7.5633,7.5568,7.5507,7.5632,7.583,7.6133,7.6536,7.6684,7.6909,7.7187,7.7647,7.8003,7.8183,7.8343,7.8731,7.9222,7.9689,7.9898,8.013,8.0457,8.0893,8.1207,8.1299,8.1403,8.1532,8.1816,8.2127,8.2124,8.1965,8.1761,8.1628,8.1418,8.1057,8.049,8.0061,7.9808,7.9597,7.9231,7.8786,7.8544,7.8501,7.8551,7.8301,7.811,7.8054,7.802,7.8125,7.817,7.7974,7.7848,7.7906,7.8055,7.806,7.7885,7.7817,7.7893,7.8156,7.8313,7.823,7.8221,7.835,7.8499,7.8567,7.8404,7.8272,7.829,7.8337,7.8482,7.8302,7.8121,7.8098,7.8251,7.8426,7.8353,7.8224,7.8276,7.849,7.8686,7.8593,7.8501,7.8515,7.8704,7.8839,7.8751,7.8586,7.8556,7.8597,7.8693,7.8619,7.8387,7.8242,7.8264,7.8329,7.8374,7.8131,7.8104,7.8156,7.8317,7.8344,7.822,7.8195,7.8275,7.8443,7.8525,7.835,7.8351,7.8639,7.9081,7.9168,7.9051,7.8913,7.8811,7.8746,7.8686,7.844,7.8319,7.8266,7.8352,7.8429,7.8316,7.8154,7.814,7.8336,7.8502,7.842,7.8362,7.8354,7.8527,7.8725,7.8815,7.8665,7.8259,7.7286,7.659,7.801,8.023,8.2994,8.7797,9.098,9.1644,9.2338,8.7779,8.1008,7.9193,7.86,7.8442,7.8456,7.8529,7.8712,7.8935,7.9066,7.9095,7.926,7.9417,7.9558,7.9381,7.9269,7.9274,7.9374,7.9386,7.91,7.8654,7.848,7.8355,7.8329,7.8154,7.7848,7.7769,7.7909,7.813,7.8324,7.8248,7.844,7.8663,7.9071,7.9157,7.9201,7.9248,7.9552,7.991,8.0071,8.0088,8.0358,8.0746,8.1261,8.1429,8.1585,8.1802,8.2177,8.2614,8.2958,8.3002,8.3069,8.3246,8.3498,8.355,8.3333,8.2951,8.2663,8.2426,8.21,8.1514,8.1057,8.0722,8.0591,8.043,8.0293,7.9974,7.9745,7.9736,7.9772,7.9675,7.9467,7.9429,7.9539,7.967,7.9591,7.9541,7.9426,7.957,7.9704,7.966,7.9475,7.9502,7.9661,7.9923,7.998,7.9962,7.9896,7.9957,8.011,8.0143,7.9988,7.9809,7.9844,7.9969,7.9958,7.9728,7.9585,7.9603,7.9713,7.9778,7.9643,7.9543,7.9571,7.9741,7.9817,7.9733,7.9553,7.9569,7.967,7.9789,7.9671,7.9538,7.9533,7.9614,7.9767,7.9613,7.9384,7.9349,7.9448,7.9575,7.9513,7.9339,7.9329,7.9416,7.9477,7.9485,7.928,7.9192,7.9258,7.9359,7.9373,7.9169,7.9025,7.9076,7.9185,7.9175,7.901,7.8907,7.9046,7.928,7.9373,7.9215,7.9251,7.9369,7.9498,7.992,8.006,8.0065,8.0142,8.0212,8.03,8.0067,7.9685,7.947,7.9473,7.9596,7.943,7.912,7.909,7.9107,7.9207,7.9117,7.8928,7.8953,7.8983,7.9145,7.9187,7.9018,7.8945,7.8964,7.8956,7.8167,7.663,7.7023,7.9458,8.1905,8.6013,9.0043,9.1689,9.2203,9.1221,8.3989,7.9688,7.9199,7.8854,7.9201,7.9191,7.9273,7.8992,7.9375,7.9603,8.0032,7.9766,7.9758,7.964,7.9868,7.9882,7.987,7.9536,7.9537,7.9342,7.9281,7.8868,7.8637,7.8491,7.86,7.8624,7.8764,7.8666,7.8845,7.9102,7.9468,7.964,7.9689,7.981,8.0099,8.0352,8.0509,8.0543,8.0742,8.1118,8.1636,8.1964,8.2113,8.2388,8.2577,8.2978,8.3399,8.3493,8.369,8.395,8.428,8.4548,8.4566,8.4501,8.4476,8.4474,8.4301,8.3848,8.3403,8.307,8.2835,8.2564,8.205,8.1717,8.1568,8.1471,8.1438,8.1306,8.1027,8.0985,8.1007,8.1154,8.1018,8.0873,8.0827,8.093,8.107,8.1008,8.0771,8.0749,8.0834,8.1095,8.1086,8.104,8.1061,8.115,8.1317,8.1436,8.1315,8.1264,8.1253,8.1421,8.1444,8.1282,8.1079,8.1131,8.1261,8.132,8.1074,8.102,8.1062,8.1305,8.1296,8.1162,8.1062,8.1071,8.113,8.1247,8.109,8.0891,8.077,8.0841,8.088,8.0831,8.0477,8.0446,8.0517,8.0593,8.0403,8.0241,8.0205,8.0343,8.0492,8.0385,8.0251,8.0243,8.0329,8.0451,8.0527,8.0402,8.0282,8.0163,8.026,8.0294,8.0036,7.9935,7.9986,8.01,8.0127,7.9932,7.9883,8.0053,8.031,8.0409,8.0262,8.0322,8.044,8.08,8.118,8.1336,8.1265,8.1376,8.1516,8.1722,8.1534,8.1068,8.0886,8.095,8.1045,8.0853,8.0745,8.0646,8.0657,8.0803,8.0701,8.0548,8.0444,8.0549,8.0727,8.0691,8.0594,8.0574,8.0616,8.0545,7.9675,7.8413,7.9364,8.2169,8.5115,8.9098,9.2556,9.2952,9.3531,9.0454,8.4133,8.2203,8.1265,8.0514,8.0892,8.1061,8.1138,8.0969,8.1224,8.1677,8.1994,8.1774,8.1774,8.18,8.2006,8.2088,8.1919,8.1533,8.1517,8.1528,8.1514,8.1355,8.1082,8.0959,8.1046,8.1141,8.1178,8.1053,8.1163,8.1365,8.1724,8.1912,8.1919,8.2005,8.2292,8.2641,8.2947,8.3014,8.3135,8.352,8.4031,8.4214,8.4362,8.4547,8.481,8.5301,8.5588,8.5562,8.5651,8.5897,8.6221,8.641,8.6353,8.6268,8.62,8.6229,8.5925,8.5396,8.4899,8.4493,8.4211,8.4038,8.3645,8.3087,8.2798,8.2621,8.2558,8.2277,8.1913,8.1791,8.1764,8.1775,8.1682,8.1401,8.1317,8.1305,8.1407,8.1265,8.1091,8.1047,8.112,8.1288,8.127,8.1076,8.095,8.086,8.0985,8.1054,8.0834,8.0667,8.0662,8.0744,8.069,8.0604,8.047,8.0455,8.0587,8.0617,8.0312,8.016,8.0142,8.018,8.0189,8.0066,7.9717,7.9617,7.9608,7.9567,7.9304,7.8956,7.8755,7.8781,7.873,7.8535,7.8198,7.807,7.8124,7.8261,7.8222,7.8159,7.8267,7.8415,7.8509,7.8835,7.898,7.9038,7.9123,7.9238,7.9193,7.8791,7.8393,7.8273,7.8256,7.8158,7.7848,7.7682,7.7628,7.7733,7.783,7.7663,7.7639,7.7781,7.7895,7.7937,7.787,7.7697,7.7735,7.7894,7.7881,7.7235,7.575,7.5943,7.8512,8.1366,8.4832,8.9073,9.0017,8.9843,8.8896,8.2289,7.8685,7.8223,7.7796,7.7938,7.8185,7.8166,7.8082,7.8476,7.8847,7.9217,7.9082,7.9209,7.9249,7.9529,7.9418,7.9186,7.8938,7.8903,7.8769,7.8564,7.8025,7.7738,7.7605,7.7658,7.7663,7.7509,7.7349,7.7504,7.7801,7.8136,7.8195,7.8311,7.8496,7.8915,7.9288,7.9422,7.9474,7.9741,8.0183,8.0643,8.0761,8.0952,8.1268,8.1531,8.1941,8.2238,8.227,8.244,8.2712,8.3073,8.3229,8.3172,8.3119,8.3046,8.2943,8.2593,8.2005,8.1582,8.1362,8.1145,8.0806,8.0317,8.0001,7.991,7.9872,7.9812,7.9603,7.9388,7.929,7.9354,7.9475,7.9244,7.9096,7.9091,7.9215,7.9243,7.9063,7.887,7.8978,7.9185,7.9356,7.9341,7.9387,7.9393,7.9561,7.9714,7.9803,7.966,7.9731,7.9821,7.9957,7.9831,7.967,7.9583,7.967,7.9869,7.9915,7.9677,7.9638,7.9667,7.9882,7.9845,7.9691,7.963,7.9684,7.9824,7.9827,7.9669,7.9521,7.9465,7.9549,7.9493,7.9294,7.9088,7.9043,7.913,7.9155,7.8965,7.8827,7.8846,7.9022,7.9047,7.894,7.8892,7.8892,7.8999,7.9186,7.9178,7.8996,7.9069,7.9236,7.9383,7.959,7.9727,7.9914,8.0072,8.031,8.0291,7.9966,7.9772,7.9749,7.98,7.9693,7.956,7.9405,7.9421,7.952,7.9531,7.9342,7.9263,7.9326,7.9521,7.9607,7.9492,7.9451,7.9542,7.9741,7.9687,7.8852,7.7426,7.7533,7.9838,8.2128,8.3737,8.8108,9.1422,9.2329,9.3382,8.9423,8.2235,7.981,7.9436,7.9564,7.9621,7.9432,7.9549,7.9807,8.0268,8.0243,8.0271,8.0191,8.0401,8.0469,8.0455,8.0227,8.0216,8.0159,8.0222,7.9917,7.9616,7.9291,7.9207,7.9157,7.9125,7.8873,7.893,7.9081,7.9433,7.958,7.9685,7.974,8.0066,8.0331,8.0591,8.0518,8.0584,8.0834,8.1278,8.1629,8.1862,8.2048,8.2451,8.2907,8.334,8.3509,8.3594,8.3831,8.4208,8.453,8.4585,8.4598,8.4645,8.468,8.4651,8.449,8.3948,8.3489,8.3196,8.2929,8.2537,8.1981,8.1616,8.145,8.1377,8.1187,8.0865,8.0693,8.0706,8.0785,8.076,8.0557,8.0481,8.0578,8.069,8.0741,8.0545,8.0433,8.0453,8.0604,8.0745,8.0664,8.0669,8.0793,8.0986,8.1208,8.1059,8.0973,8.0981,8.1091,8.1189,8.0994,8.0841,8.0866,8.0923,8.1021,8.0926,8.0725,8.067,8.0842,8.0992,8.0974,8.077,8.0772,8.0816,8.0943,8.0906,8.0698,8.0635,8.0728,8.0834,8.0844,8.063,8.0623,8.0586,8.0681,8.0684,8.0523,8.0379,8.0408,8.0536,8.0624,8.0417,8.0332,8.0369,8.0469,8.0473,8.0352,8.0216,8.0237,8.0339,8.0399,8.0203,8.0096,8.0112,8.0254,8.0327,8.0274,8.0128,8.017,8.033,8.0468,8.0446,8.036,8.0348,8.0461,8.061,8.0527,8.0398,8.0392,8.0554,8.0689,8.0672,8.0497,8.052,8.0664,8.0744,8.0808,8.064,8.0568,8.0586,8.0753,8.0796,8.0644,8.0557,8.064,8.0816,8.085,8.0713,8.061,8.0682,8.0823,8.0932,8.082,8.0684,8.0756,8.0825,8.0952,8.0904,8.0965,8.1194,8.1425,8.1635,8.1461,8.1261,8.1116,8.1112,8.1038,8.0835,8.0648,8.0547,8.0574,8.0644,8.0453,8.0311,8.0262,8.035,8.0487,8.0551,8.0357,8.0327,8.0431,8.0605,8.0587,8.0082,7.8989,7.8058,7.9288,8.1709,8.4068,8.8662,9.2093,9.3591,9.4514,9.1273,8.3691,8.141,8.0928,8.0387,8.0607,8.0374,8.0515,8.0664,8.1123,8.1073,8.1152,8.1104,8.1359,8.1313,8.1258,8.0972,8.1029,8.0904,8.0911,8.0472,8.0154,7.9965,7.9974,7.994,7.9907,7.9728,7.9883,8.005,8.0442,8.055,8.0577,8.0628,8.0901,8.1081,8.1232,8.1193,8.1364,8.1629,8.2062,8.2336,8.2468,8.2564,8.2885,8.3326,8.3715,8.3891,8.3983,8.4294,8.4635,8.4936,8.4993,8.5078,8.5276,8.5505,8.5639,8.543,8.5075,8.4808,8.4584,8.4287,8.3731,8.3253,8.3082,8.2821,8.2663,8.2395,8.1954,8.1788,8.1737,8.1806,8.1699,8.1477,8.1228,8.1288,8.1349,8.1287,8.1057,8.0993,8.1052,8.12,8.1139,8.1068,8.1042,8.125,8.1458,8.1632,8.1465,8.1404,8.1458,8.1597,8.1657,8.145,8.1299,8.1297,8.1391,8.1445,8.1276,8.111,8.1108,8.1198,8.1254,8.1104,8.0993,8.0955,8.0931,8.1071,8.0933,8.0721,8.0657,8.074,8.0817,8.0834,8.0553,8.055,8.0638,8.0761,8.0668,8.0444,8.0406,8.052,8.0668,8.0601,8.0477,8.0406,8.0431,8.0549,8.0564,8.041,8.0287,8.0324,8.0458,8.0524,8.0375,8.031,8.0337,8.0464,8.0592,8.0417,8.0374,8.0505,8.0652,8.0794,8.072,8.0646,8.0709,8.0893,8.1072,8.1006,8.0855,8.0855,8.0998,8.1152,8.1079,8.094,8.0962,8.1163,8.134,8.1218,8.104,8.1066,8.1195,8.1332,8.1355,8.1216,8.1092,8.1214,8.135,8.1387,8.1243,8.119,8.1264,8.143,8.1537,8.148,8.1425,8.1604,8.187,8.1887,8.1858,8.1854,8.192,8.2156,8.2176,8.2076,8.1835,8.1795,8.1981,8.196,8.1782,8.1454,8.1475,8.1555,8.1644,8.1541,8.1291,8.1372,8.1536,8.1509,8.1429,8.133,8.1368,8.1521,8.1584,8.1384,8.0366,7.9071,7.9933,8.2498,8.4839,8.8731,9.2655,9.4274,9.4886,9.3319,8.5833,8.192,8.1664,8.1394,8.1667,8.1339,8.1462,8.1547,8.2122,8.2118,8.2225,8.2035,8.2182,8.2192,8.2461,8.2231,8.2193,8.2027,8.2038,8.1807,8.1608,8.1164,8.1087,8.1073,8.1271,8.1056,8.1058,8.1087,8.1422,8.1539,8.1722,8.1695,8.1776,8.2016,8.2377,8.2502,8.2481,8.2602,8.2908,8.3376,8.3738,8.3834,8.4089,8.4535,8.5028,8.5297,8.5356,8.5608,8.5958,8.6167,8.6401,8.6471,8.6515,8.6659,8.6828,8.689,8.6497,8.6159,8.5794,8.5627,8.5279,8.4692,8.4198,8.3881,8.3615,8.3474,8.3059,8.2781,8.2706,8.2768,8.2775,8.26,8.2268,8.2243,8.2223,8.2266,8.2096,8.1917,8.1856,8.1892,8.1952,8.1902,8.1747,8.1793,8.1954,8.2131,8.2022,8.1899,8.184,8.1921,8.2058,8.2128,8.1702,8.1619,8.1559,8.1605,8.163,8.1598,8.1282,8.1324,8.1367,8.1407,8.122,8.108,8.1035,8.1168,8.1173,8.0892,8.0732,8.0725,8.075,8.0812,8.0605,8.0393,8.0305,8.0415,8.0463,8.0254,8.0076,8.0067,8.0255,8.0395,8.0439,8.0356,8.0335,8.0543,8.0662,8.0543,8.0453,8.0503,8.0503,8.0686,8.0733,8.0528,8.0413,8.0426,8.0565,8.0728,8.0701,8.0584,8.0684,8.1064,8.1165,8.1346,8.1648,8.1825,8.1922,8.1854,8.1713,8.1696,8.1652,8.159,8.1513,8.1408,8.1134,8.1081,8.1204,8.1323,8.1296,8.1142,8.1023,8.1242,8.141,8.1285,8.1174,8.1176,8.1375,8.1526,8.1304,8.0257,7.9509,7.9423,8.169,8.4669,8.7589,9.1936,9.3567,9.3111,9.3121,8.6797,8.2506,8.1949,8.1342,8.163,8.1504,8.1694,8.1803,8.2295,8.2476,8.2603,8.247,8.2841,8.2896,8.3048,8.2885,8.2775,8.2642,8.2725,8.2567,8.2409,8.204,8.1938,8.1984,8.2075,8.1895,8.1854,8.1991,8.2189,8.2444,8.2532,8.2494,8.2611,8.2884,8.3153,8.3358,8.3413,8.3571,8.3971,8.4335,8.4578,8.4645,8.4866,8.525,8.5641,8.5827,8.5831,8.5953,8.616,8.6461,8.6551,8.6511,8.6489,8.6655,8.6681,8.6554,8.6149,8.5672,8.5231,8.5007,8.4529,8.3933,8.3336,8.3007,8.2817,8.2565,8.2194,8.1827,8.164,8.1606,8.1514,8.1293,8.1111,8.0975,8.0912,8.1037,8.0812,8.0572,8.0444,8.0496,8.0554,8.0562,8.0298,8.0221,8.0245,8.0383,8.0171,8.0017,7.9871,7.9928,7.9878,7.9792,7.9589,7.9437,7.9382,7.9542,7.9566,7.9482,7.9301,7.9337,7.9322,7.9337,7.9048,7.8838,7.8773,7.8836,7.8814,7.8511,7.8298,7.8303,7.8267,7.8235,7.8141,7.7837,7.7699,7.7782,7.7874,7.7843,7.7728,7.7694,7.7968,7.8419,7.8583,7.8482,7.8507,7.8625,7.8574,7.8273,7.7842,7.7659,7.7731,7.7754,7.7699,7.7408,7.7272,7.7329,7.7463,7.7474,7.7328,7.7279,7.7453,7.7669,7.7697,7.7537,7.744,7.7416,7.6998,7.574,7.5621,7.783,8.0564,8.411,8.6653,8.9531,8.9722,9.0183,8.6227,7.9999,7.8278,7.7775,7.7402,7.767,7.8095,7.775,7.7995,7.8047,7.872,7.8821,7.9008,7.8806,7.903,7.9017,7.9252,7.9064,7.897,7.8546,7.86,7.8415,7.8289,7.7621,7.7482,7.735,7.7536,7.7472,7.744,7.7493,7.7851,7.8141,7.8504,7.853,7.8807,7.9101,7.9537,7.9595,7.9734,7.9834,8.0134,8.0592,8.1022,8.1214,8.1428,8.1684,8.2158,8.2473,8.2578,8.2647,8.2884,8.317,8.3392,8.3332,8.3076,8.2866,8.2702,8.2597,8.2235,8.1668,8.1202,8.0968,8.0723,8.05,8.0045,7.9791,7.9679,7.9739,7.9628,7.942,7.9219,7.9315,7.9417,7.9372,7.9135,7.9105,7.9135,7.9201,7.9252,7.9105,7.8961,7.9077,7.9267,7.9464,7.9408,7.9434,7.9454,7.9651,7.9732,7.9678,7.9552,7.9629,7.968,7.9781,7.9555,7.9461,7.9477,7.9605,7.9737,7.9771,7.9508,7.9529,7.9584,7.9784,7.9671,7.9526,7.9436,7.9524,7.9618,7.9546,7.9254,7.919,7.9134,7.9233,7.9118,7.8849,7.8717,7.8784,7.8983,7.9124,7.8931,7.8908,7.8951,7.9226,7.9399,7.9631,7.9733,7.979,7.9928,8.0033,7.9666,7.9283,7.9068,7.9067,7.9124,7.8818,7.8625,7.8598,7.8734,7.8921,7.886,7.8752,7.8781,7.8903,7.9096,7.9061,7.8879,7.8905,7.9052,7.9068,7.8282,7.6849,7.7356,8.0023,8.2531,8.6382,9.0411,9.1637,9.1472,9.231,8.7006,8.0474,7.9085,7.8536,7.8924,7.8911,7.8797,7.8745,7.9083,7.951,7.9779,7.9659,7.9704,7.9791,7.9993,8.0016,7.9928,7.9738,7.9675,7.9624,7.9514,7.9113,7.8748,7.852,7.8489,7.8548,7.8489,7.8345,7.8537,7.882,7.9245,7.9396,7.9467,7.9697,7.9999,8.0274,8.0357,8.0394,8.0515,8.0833,8.1229,8.1546,8.1668,8.1958,8.2332,8.2745,8.305,8.3082,8.3257,8.353,8.3883,8.4042,8.3967,8.3894,8.3854,8.3776,8.3538,8.2905,8.2663,8.2272,8.198,8.1709,8.1225,8.0761,8.0513,8.0371,8.0331,8.0105,7.9838,7.9791,7.983,7.9867,7.9725,7.9588,7.9605,7.9713,7.9782,7.9643,7.9524,7.9473,7.9562,7.9772,7.9829,7.9792,7.9832,8.0016,8.0194,8.0196,8.0041,7.9986,8.0035,8.0145,8.0074,7.9862,7.981,7.9908,7.9955,7.9919,7.9783,7.9683,7.9718,7.9907,7.9993,7.9856,7.9679,7.9727,7.9892,7.9952,7.9777,7.9644,7.9627,7.9715,7.9752,7.9586,7.9382,7.9349,7.9482,7.9565,7.943,7.9342,7.9299,7.9426,7.9554,7.9498,7.9284,7.9224,7.9315,7.946,7.9342,7.9102,7.907,7.9148,7.9225,7.9143,7.8928,7.8868,7.8966,7.9127,7.9135,7.9023,7.8991,7.9086,7.9333,7.9439,7.9329,7.9267,7.9363,7.9479,7.9562,7.9385,7.9352,7.9443,7.9593,7.9649,7.9463,7.9361,7.938,7.953,7.9599,7.9526,7.93,7.9205,7.9317,7.944,7.9425,7.9233,7.9191,7.9262,7.9456,7.9402,7.931,7.9365,7.948,7.9688,7.9649,7.9485,7.9708,8.005,8.0402,8.0406,8.0201,8.0054,8,7.996,7.9796,7.9406,7.9187,7.9224,7.9211,7.9163,7.8914,7.8772,7.8811,7.8991,7.8997,7.8879,7.8822,7.8938,7.904,7.9102,7.903,7.8751,7.8034,7.6878,7.7263,7.9335,8.1302,8.5235,8.9766,9.1942,9.2353,9.183,8.4503,7.9683,7.9327,7.8761,7.8888,7.8825,7.9096,7.9095,7.9442,7.934,7.9552,7.9546,7.9857,7.9743,7.9636,7.9468,7.9588,7.9526,7.941,7.8941,7.8698,7.8449,7.8446,7.825,7.8066,7.8002,7.8308,7.8581,7.8778,7.8797,7.8925,7.9046,7.937,7.9569,7.955,7.9483,7.9739,7.9988,8.0349,8.0462,8.0662,8.101,8.1466,8.1822,8.2044,8.2177,8.2436,8.2806,8.3021,8.325,8.3237,8.3404,8.3629,8.3871,8.3966,8.3717,8.3518,8.3314,8.3065,8.2657,8.2078,8.1606,8.1313,8.1103,8.0801,8.0409,8.0116,8.005,8.0038,8.0051,7.9779,7.9483,7.9397,7.9519,7.9536,7.9399,7.9307,7.9362,7.9476,7.9531,7.9412,7.9391,7.9455,7.9709,7.99,7.9825,7.9676,7.9769,7.978,7.9916,7.9892,7.9709,7.9608,7.9691,7.9817,7.9867,7.9602,7.9593,7.9652,7.9793,7.9717,7.9562,7.9464,7.9553,7.9623,7.9524,7.9367,7.9227,7.9201,7.9353,7.9412,7.9285,7.9114,7.9238,7.9321,7.9404,7.9241,7.9139,7.9193,7.935,7.9455,7.9289,7.9163,7.9218,7.9375,7.9478,7.9277,7.921,7.9181,7.9279,7.9352,7.9297,7.9091,7.9052,7.9172,7.9327,7.9295,7.9081,7.9033,7.9255,7.9422,7.9448,7.9313,7.9396,7.9609,7.9807,7.9754,7.9642,7.9634,7.9703,7.9857,7.9912,7.9778,7.9697,7.9795,7.997,8.0049,7.9852,7.9822,7.9835,8.004,8.0159,8.0094,8.0053,8.0304,8.053,8.0641,8.0676,8.0684,8.0743,8.0979,8.1155,8.0975,8.0862,8.0869,8.0921,8.0943,8.0646,8.0456,8.0393,8.0383,8.0411,8.0277,8.0024,8.0005,8.0091,8.0171,8.0103,7.9939,7.9905,7.9954,8.0021,7.945,7.7946,7.7851,8.0063,8.2633,8.612,9.0576,9.2557,9.2742,9.308,8.6582,8.1052,8.0335,7.9727,8.0134,8.0083,8.0042,7.9898,8.0216,8.0492,8.0908,8.0802,8.0756,8.069,8.0893,8.1001,8.0988,8.0686,8.0627,8.0554,8.0555,8.0176,7.9927,7.9784,7.99,7.9828,7.9734,7.9613,7.9752,7.9953,8.0211,8.0296,8.0299,8.036,8.0718,8.0964,8.1119,8.1037,8.117,8.1511,8.1993,8.2278,8.2474,8.2859,8.3275,8.3808,8.4044,8.4067,8.4243,8.4607,8.4922,8.5207,8.5229,8.5291,8.5297,8.5397,8.527,8.4805,8.4275,8.39,8.3626,8.3276,8.2752,8.2204,8.1839,8.1661,8.1507,8.1403,8.1052,8.0943,8.0986,8.1003,8.0987,8.079,8.0679,8.075,8.0833,8.0796,8.0576,8.05,8.0559,8.0673,8.0657,8.0563,8.0512,8.0629,8.0734,8.0681,8.0612,8.0502,8.0528,8.0697,8.0681,8.0462,8.024,8.0271,8.0411,8.044,8.0226,8.0193,8.0248,8.0398,8.0479,8.0372,8.0191,8.0283,8.0371,8.0529,8.0399,8.0138,8.0155,8.0224,8.0295,8.0227,7.9929,7.9935,7.9909,8.0049,7.9958,7.9874,7.9807,7.9951,8.0105,8.0143,8.0091,8.0086,8.0117,8.0239,8.0254,8.0077,8.002,8.0018,8.0181,8.0247,8.01,8.0016,8.0048,8.031,8.0568,8.0514,8.0608,8.0915,8.0913,8.0879,8.0668,8.0688,8.085,8.0887,8.0823,8.0637,8.0369,8.0251,8.0414,8.0488,8.0404,8.0233,8.0288,8.0386,8.0487,8.041,8.0264,8.0222,8.0345,8.0478,8.0087,7.8817,7.8272,8.0189,8.1821,8.4504,8.8002,9.194,9.2736,9.2637,9.0508,8.3867,8.1056,8.0492,8.0115,8.0356,8.0322,8.0289,8.0581,8.0873,8.1204,8.1083,8.1204,8.1217,8.1386,8.1471,8.1453,8.1213,8.1188,8.1119,8.1199,8.0959,8.0777,8.0597,8.0692,8.0717,8.0688,8.0492,8.0573,8.0781,8.102,8.1007,8.1053,8.1216,8.1506,8.1635,8.1841,8.1838,8.1916,8.2224,8.2579,8.2769,8.2857,8.3068,8.3417,8.3765,8.3877,8.3886,8.3901,8.4157,8.4434,8.4488,8.4305,8.4258,8.429,8.4261,8.402,8.3491,8.2872,8.2372,8.1997,8.1572,8.0961,8.0418,7.999,7.9774,7.9611,7.9268,7.8929,7.8807,7.8806,7.8819,7.8505,7.8286,7.82,7.8241,7.8385,7.8304,7.7992,7.7857,7.7831,7.7935,7.7881,7.7802,7.7782,7.7895,7.7934,7.7936,7.7721,7.7645,7.7706,7.789,7.7796,7.7602,7.7499,7.7561,7.7653,7.7808,7.7634,7.7597,7.767,7.7787,7.785,7.7583,7.7403,7.738,7.7405,7.7398,7.7135,7.6937,7.6854,7.6944,7.6876,7.6597,7.6441,7.6417,7.6402,7.6515,7.6483,7.6266,7.6258,7.645,7.6675,7.676,7.6716,7.6778,7.7003,7.7346,7.7328,7.7329,7.7643,7.8007,7.8266,7.8213,7.7996,7.7951,7.783,7.772,7.764,7.742,7.7315,7.7353,7.7505,7.7545,7.7349,7.7246,7.7333,7.7504,7.7614,7.7459,7.7437,7.7534,7.7757,7.7855,7.7723,7.7553,7.6841,7.5798,7.6665,7.9183,8.1591,8.5551,8.955,9.0516,9.0741,8.8279,8.1337,7.8286,7.7981,7.7472,7.7682,7.7723,7.7938,7.8226,7.8423,7.8502,7.8618,7.8763,7.8967,7.8914,7.8737,7.8591,7.8672,7.8685,7.8647,7.8226,7.7993,7.7802,7.7787,7.7566,7.7297,7.7179,7.737,7.758,7.7781,7.7787,7.7861,7.8115,7.8528,7.8833,7.9005,7.9046,7.9364,7.9698,8.0081,8.0171,8.0379,8.0666,8.1126,8.1565,8.1774,8.1826,8.2026,8.2382,8.2894,8.3038,8.3011,8.3136,8.3355,8.3514,8.3365,8.2993,8.2571,8.2274,8.203,8.1618,8.1026,8.0624,8.0369,8.019,7.9947,7.9591,7.9355,7.9305,7.9376,7.9297,7.9124,7.8957,7.8943,7.9028,7.9091,7.8956,7.877,7.8819,7.8884,7.9014,7.8851,7.8818,7.8872,7.9183,7.9365,7.9346,7.9184,7.9291,7.9455,7.9549,7.9518,7.9355,7.9218,7.9296,7.936,7.9278,7.9049,7.904,7.9067,7.9148,7.9101,7.8927,7.8906,7.9016,7.9172,7.9156,7.8901,7.8889,7.8991,7.9156,7.9145,7.8993,7.8819,7.8786,7.8872,7.887,7.8675,7.8476,7.848,7.8599,7.8649,7.851,7.8404,7.8456,7.859,7.8641,7.8461,7.8314,7.8387,7.8483,7.8543,7.8463,7.8253,7.8219,7.8289,7.8362,7.8306,7.816,7.8159,7.8337,7.8574,7.8583,7.8443,7.8452,7.8603,7.8756,7.8713,7.8507,7.8518,7.8634,7.8837,7.8834,7.8731,7.8694,7.8777,7.9015,7.9125,7.9179,7.9402,7.9765,7.9942,7.9902,7.9607,7.9397,7.9329,7.927,7.9139,7.8882,7.8718,7.8701,7.8818,7.8815,7.8671,7.8489,7.8512,7.8655,7.8765,7.8611,7.8476,7.8408,7.8455,7.8525,7.8274,7.7317,7.6001,7.6646,7.911,8.1284,8.5185,8.9409,9.1289,9.146,9.2255,8.6985,8.0159,7.8743,7.8264,7.8473,7.8282,7.8315,7.8411,7.8797,7.9036,7.8995,7.8958,7.9067,7.9164,7.9173,7.9023,7.894,7.8934,7.8941,7.886,7.8524,7.8136,7.7935,7.7884,7.7844,7.7642,7.7549,7.7708,7.8009,7.8295,7.8352,7.8405,7.861,7.8826,7.9107,7.9101,7.9166,7.9361,7.9562,7.9915,8.0231,8.0384,8.0625,8.1077,8.152,8.1815,8.1912,8.2078,8.2377,8.2712,8.292,8.2906,8.3001,8.3207,8.3356,8.3193,8.2794,8.2432,8.2147,8.2024,8.1744,8.1207,8.0744,8.0352,8.0148,7.9999,7.9647,7.9326,7.9197,7.9252,7.9255,7.905,7.8836,7.8804,7.8883,7.8965,7.881,7.8652,7.8677,7.8738,7.8913,7.8883,7.8766,7.8811,7.9046,7.9298,7.9331,7.9176,7.9138,7.9171,7.9388,7.931,7.9052,7.9021,7.9069,7.9172,7.9122,7.886,7.8745,7.8761,7.8897,7.9001,7.8855,7.8777,7.8749,7.8912,7.8947,7.88,7.8681,7.8727,7.8851,7.8899,7.8639,7.8583,7.8482,7.8579,7.8589,7.8385,7.8187,7.8208,7.8318,7.8477,7.8431,7.8285,7.8281,7.8344,7.851,7.8419,7.822,7.8253,7.8377,7.8485,7.844,7.8238,7.8191,7.8295,7.8398,7.8348,7.8216,7.8212,7.8259,7.8432,7.8541,7.8418,7.8419,7.8601,7.8787,7.8873,7.8852,7.8764,7.8992,7.9487,7.9868,7.9762,7.9647,7.9677,7.9728,7.9652,7.9355,7.9211,7.9022,7.9102,7.9103,7.8906,7.8699,7.8618,7.8747,7.8794,7.8715,7.8588,7.8553,7.8726,7.8885,7.8784,7.8599,7.8463,7.8056,7.6863,7.6441,7.7091,7.9387,8.193,8.6257,9.0122,9.1311,9.1807,8.9434,8.244,7.9192,7.864,7.8255,7.8579,7.8625,7.8851,7.8688,7.9017,7.9092,7.9465,7.9357,7.9333,7.9158,7.9282,7.9362,7.9618,7.9335,7.9108,7.8857,7.8878,7.8775,7.859,7.8272,7.8289,7.8313,7.856,7.8448,7.8594,7.8731,7.9147,7.9375,7.9499,7.9464,7.9553,7.9747,8.0108,8.027,8.0376,8.0595,8.0977,8.1409,8.1763,8.1914,8.2163,8.252,8.2909,8.3196,8.3258,8.3424,8.3706,8.4015,8.4055,8.3937,8.3729,8.3583,8.3395,8.3123,8.2566,8.201,8.162,8.1342,8.1058,8.0634,8.0209,8.0081,8.006,8.008,7.9845,7.9678,7.9624,7.9771,7.9831,7.9764,7.952,7.9524,7.9553,7.973,7.9657,7.9467,7.9377,7.9473,7.9641,7.9745,7.9608,7.9695,7.9825,7.9999,7.993,7.9773,7.9683,7.9743,7.9842,7.9882,7.9674,7.959,7.9551,7.9731,7.9752,7.9608,7.9521,7.9634,7.9739,7.9822,7.9625,7.952,7.9508,7.9599,7.9616,7.9496,7.9341,7.9407,7.9519,7.9575,7.9475,7.9318,7.9247,7.9356,7.9483,7.9403,7.9227,7.9196,7.9251,7.9376,7.9234,7.9053,7.8942,7.9026,7.9092,7.9005,7.8842,7.8806,7.8855,7.9007,7.902,7.8858,7.8737,7.8829,7.9016,7.9124,7.9064,7.9063,7.9174,7.9271,7.9518,7.9446,7.957,7.9857,8.0262,8.0382,8.0125,7.9962,7.985,7.9892,7.985,7.9595,7.9314,7.9382,7.9441,7.9516,7.9441,7.922,7.9269,7.9406,7.9549,7.9486,7.9368,7.9381,7.9506,7.9604,7.9445,7.9102,7.8376,7.7044,7.6823,7.8132,8.0322,8.2916,8.7434,9.0743,9.1657,9.2259,8.8058,8.1429,7.9493,7.8946,7.8751,7.8892,7.8927,7.9263,7.943,7.9563,7.9585,7.9787,7.9881,8.0056,7.9928,7.9825,7.9841,7.9964,7.9981,7.9731,7.9387,7.9212,7.9108,7.9057,7.881,7.8624,7.8578,7.8721,7.8901,7.8918,7.8962,7.9149,7.9298,7.9625,7.9789,7.9785,7.99,8.0161,8.053,8.0755,8.086,8.1143,8.1564,8.2053,8.2337,8.2453,8.2712,8.3057,8.3454,8.3658,8.3687,8.38,8.3917,8.4155,8.4297,8.4095,8.3769,8.3436,8.3226,8.2887,8.2355,8.1773,8.1432,8.1175,8.095,8.0546,8.0256,8.0087,8.0124,8.0092,7.9899,7.9667,7.9671,7.9694,7.9838,7.9762,7.9566,7.9489,7.9582,7.9654,7.9666,7.944,7.9474,7.9601,7.9859,7.9916,7.9825,7.9779,7.9846,7.9997,7.9953,7.9731,7.9613,7.96,7.97,7.9711,7.9579,7.9374,7.9426,7.9559,7.9625,7.9475,7.9362,7.9395,7.9479,7.9561,7.9365,7.9229,7.9274,7.9406,7.9436,7.9225,7.9125,7.9171,7.9248,7.9422,7.9358,7.9249,7.9252,7.9373,7.9656,7.9656,7.9617,7.9671,7.977,8.0067,8.0297,8.0315,8.027,8.0301,8.0314,8.0059,7.9637,7.9458,7.9208,7.9241,7.9153,7.8883,7.8742,7.8712,7.8881,7.901,7.8861,7.8851,7.8998,7.9179,7.9292,7.9126,7.9095,7.9239,7.9215,7.8461,7.7037,7.6987,7.8904,8.157,8.4815,8.9544,9.1867,9.1991,9.229,8.6079,8.0614,7.9462,7.8693,7.9064,7.9082,7.9005,7.8902,7.9132,7.941,7.9782,7.9757,7.9717,7.9606,7.9732,8.0006,8.0272,8.0202,8.0269,8.0336,8.0522,8.0374,8.0098,7.9947,7.9934,8.0013,8.0013,7.9805,7.9711,7.9851,8.0158,8.0264,8.0322,8.0377,8.0656,8.0993,8.1366,8.1499,8.164,8.1946,8.2473,8.285,8.3158,8.3442,8.3852,8.4391,8.4818,8.5001,8.5077,8.5353,8.5701,8.6036,8.6093,8.605,8.5981,8.59,8.5706,8.5306,8.4733,8.4227,8.389,8.3542,8.3208,8.2703,8.2251,8.2082,8.198,8.1772,8.1561,8.1498,8.1594,8.1662,8.1619,8.1455,8.1325,8.1342,8.1459,8.1423,8.1202,8.1077,8.0991,8.1172,8.1389,8.1225,8.11,8.1051,8.1231,8.133,8.1132,8.1004,8.094,8.099,8.0996,8.0959,8.0754,8.0747,8.0757,8.0919,8.0877,8.067,8.0745,8.0867,8.0955,8.0849,8.0728,8.0716,8.0734,8.0858,8.082,8.069,8.0594,8.0775
