-19.802,-19.81,-19.812,-19.809,-19.815,-19.87,-19.905,-19.81,-19.617,-19.379,-19.089,-18.742,-18.51,-18.489,-18.85,-19.108,-19.492,-19.875,-19.909,-19.892,-19.804,-19.771,-19.716,-19.728,-19.727,-19.742,-19.727,-19.738,-19.737,-19.728,-19.718,-19.728,-19.719,-19.715,-19.699,-19.705,-19.713,-19.72,-19.697,-19.703,-19.691,-19.706,-19.706,-19.701,-19.684,-19.677,-19.681,-19.686,-19.67,-19.675,-19.675,-19.662,-19.66,-19.653,-19.635,-19.629,-19.616,-19.619,-19.612,-19.586,-19.572,-19.561,-19.563,-19.547,-19.513,-19.502,-19.497,-19.479,-19.471,-19.438,-19.425,-19.4,-19.412,-19.4,-19.378,-19.362,-19.362,-19.363,-19.364,-19.357,-19.368,-19.371,-19.403,-19.433,-19.459,-19.492,-19.524,-19.557,-19.61,-19.628,-19.64,-19.672,-19.717,-19.749,-19.757,-19.745,-19.757,-19.771,-19.779,-19.775,-19.783,-19.782,-19.793,-19.806,-19.809,-19.798,-19.796,-19.785,-19.795,-19.788,-19.774,-19.76,-19.776,-19.766,-19.777,-19.778,-19.763,-19.751,-19.751,-19.755,-19.747,-19.746,-19.752,-19.745,-19.748,-19.746,-19.743,-19.754,-19.758,-19.757,-19.755,-19.756,-19.761,-19.769,-19.765,-19.756,-19.755,-19.753,-19.775,-19.775,-19.771,-19.768,-19.77,-19.782,-19.795,-19.793,-19.788,-19.793,-19.803,-19.794,-19.792,-19.767,-19.765,-19.764,-19.771,-19.763,-19.745,-19.734,-19.714,-19.692,-19.68,-19.667,-19.666,-19.705,-19.711,-19.717,-19.719,-19.727,-19.737,-19.759,-19.784,-19.778,-19.772,-19.787,-19.786,-19.795,-19.789,-19.793,-19.797,-19.804,-19.792,-19.798,-19.795,-19.808,-19.82,-19.819,-19.813,-19.817,-19.812,-19.831,-19.831,-19.84,-19.883,-19.923,-19.869,-19.802,-19.601,-19.32,-19.002,-18.615,-18.446,-18.512,-18.939,-19.369,-19.787,-19.913,-19.879,-19.824,-19.753,-19.724,-19.699,-19.714,-19.69,-19.728,-19.721,-19.743,-19.719,-19.726,-19.717,-19.727,-19.714,-19.711,-19.69,-19.71,-19.701,-19.711,-19.705,-19.691,-19.677,-19.677,-19.661,-19.669,-19.655,-19.656,-19.653,-19.662,-19.64,-19.622,-19.598,-19.59,-19.583,-19.581,-19.568,-19.566,-19.553,-19.555,-19.543,-19.522,-19.486,-19.474,-19.46,-19.451,-19.433,-19.406,-19.381,-19.365,-19.364,-19.342,-19.324,-19.31,-19.296,-19.282,-19.274,-19.256,-19.248,-19.258,-19.267,-19.283,-19.296,-19.314,-19.35,-19.383,-19.419,-19.445,-19.494,-19.518,-19.556,-19.583,-19.613,-19.625,-19.653,-19.673,-19.689,-19.695,-19.716,-19.715,-19.733,-19.725,-19.724,-19.727,-19.736,-19.747,-19.759,-19.742,-19.741,-19.738,-19.741,-19.746,-19.739,-19.727,-19.737,-19.744,-19.754,-19.75,-19.736,-19.721,-19.739,-19.74,-19.738,-19.736,-19.745,-19.753,-19.751,-19.738,-19.738,-19.736,-19.748,-19.745,-19.753,-19.756,-19.76,-19.766,-19.779,-19.778,-19.769,-19.772,-19.779,-19.801,-19.789,-19.776,-19.784,-19.805,-19.82,-19.811,-19.82,-19.828,-19.843,-19.839,-19.847,-19.852,-19.84,-19.859,-19.869,-19.865,-19.854,-19.846,-19.838,-19.849,-19.851,-19.834,-19.835,-19.842,-19.843,-19.838,-19.808,-19.791,-19.77,-19.731,-19.74,-19.754,-19.749,-19.762,-19.77,-19.791,-19.789,-19.775,-19.796,-19.818,-19.83,-19.833,-19.843,-19.854,-19.841,-19.849,-19.833,-19.833,-19.839,-19.832,-19.846,-19.845,-19.836,-19.822,-19.829,-19.845,-19.851,-19.83,-19.835,-19.847,-19.886,-19.919,-19.92,-19.83,-19.643,-19.411,-19.133,-18.969,-18.565,-18.427,-18.636,-19.089,-19.51,-19.828,-19.939,-19.883,-19.846,-19.763,-19.755,-19.746,-19.769,-19.762,-19.759,-19.733,-19.741,-19.739,-19.765,-19.742,-19.733,-19.709,-19.727,-19.735,-19.735,-19.697,-19.697,-19.698,-19.696,-19.68,-19.682,-19.667,-19.68,-19.665,-19.662,-19.65,-19.641,-19.653,-19.645,-19.638,-19.624,-19.596,-19.608,-19.598,-19.586,-19.572,-19.553,-19.543,-19.523,-19.52,-19.496,-19.477,-19.448,-19.445,-19.423,-19.383,-19.366,-19.372,-19.344,-19.333,-19.318,-19.297,-19.296,-19.302,-19.294,-19.269,-19.246,-19.255,-19.276,-19.322,-19.333,-19.36,-19.387,-19.423,-19.466,-19.508,-19.533,-19.584,-19.61,-19.625,-19.666,-19.663,-19.682,-19.715,-19.716,-19.725,-19.709,-19.715,-19.722,-19.731,-19.744,-19.734,-19.725,-19.698,-19.726,-19.742,-19.734,-19.72,-19.711,-19.72,-19.734,-19.721,-19.713,-19.727,-19.735,-19.748,-19.707,-19.727,-19.701,-19.73,-19.721,-19.706,-19.707,-19.719,-19.722,-19.733,-19.71,-19.717,-19.723,-19.731,-19.734,-19.739,-19.723,-19.724,-19.747,-19.744,-19.729,-19.739,-19.764,-19.776,-19.761,-19.769,-19.752,-19.772,-19.783,-19.763,-19.777,-19.766,-19.784,-19.78,-19.786,-19.769,-19.781,-19.78,-19.783,-19.774,-19.776,-19.786,-19.772,-19.763,-19.78,-19.784,-19.78,-19.752,-19.773,-19.762,-19.761,-19.756,-19.762,-19.768,-19.798,-19.758,-19.74,-19.763,-19.759,-19.751,-19.765,-19.766,-19.74,-19.737,-19.731,-19.753,-19.745,-19.705,-19.719,-19.669,-19.693,-19.651,-19.67,-19.7,-19.701,-19.741,-19.732,-19.703,-19.726,-19.736,-19.736,-19.772,-19.78,-19.788,-19.785,-19.823,-19.792,-19.804,-19.793,-19.809,-19.807,-19.78,-19.785,-19.788,-19.802,-19.824,-19.792,-19.804,-19.785,-19.794,-19.807,-19.851,-19.806,-19.828,-19.866,-19.785,-19.625,-19.38,-19.119,-18.8,-18.495,-18.462,-18.792,-19.044,-19.469,-19.839,-19.898,-19.862,-19.765,-19.731,-19.71,-19.731,-19.706,-19.71,-19.723,-19.748,-19.733,-19.746,-19.718,-19.709,-19.723,-19.724,-19.717,-19.72,-19.743,-19.719,-19.719,-19.732,-19.726,-19.703,-19.7,-19.729,-19.7,-19.697,-19.716,-19.684,-19.681,-19.663,-19.637,-19.638,-19.681,-19.625,-19.61,-19.608,-19.594,-19.601,-19.589,-19.569,-19.547,-19.529,-19.534,-19.509,-19.505,-19.452,-19.459,-19.443,-19.441,-19.42,-19.39,-19.36,-19.353,-19.338,-19.332,-19.341,-19.291,-19.312,-19.308,-19.307,-19.296,-19.314,-19.329,-19.356,-19.4,-19.425,-19.438,-19.494,-19.544,-19.571,-19.598,-19.63,-19.655,-19.662,-19.707,-19.72,-19.693,-19.724,-19.731,-19.738,-19.747,-19.735,-19.739,-19.74,-19.744,-19.748,-19.746,-19.732,-19.745,-19.773,-19.75,-19.742,-19.755,-19.749,-19.766,-19.752,-19.727,-19.712,-19.732,-19.747,-19.745,-19.732,-19.728,-19.745,-19.742,-19.736,-19.721,-19.695,-19.733,-19.747,-19.745,-19.718,-19.726,-19.733,-19.722,-19.733,-19.696,-19.725,-19.715,-19.723,-19.742,-19.716,-19.726,-19.726,-19.737,-19.729,-19.731,-19.732,-19.737,-19.735,-19.751,-19.752,-19.748,-19.725,-19.74,-19.742,-19.736,-19.717,-19.701,-19.687,-19.726,-19.702,-19.651,-19.636,-19.635,-19.659,-19.696,-19.706,-19.703,-19.708,-19.718,-19.774,-19.759,-19.792,-19.813,-19.817,-19.814,-19.805,-19.803,-19.805,-19.805,-19.823,-19.814,-19.797,-19.828,-19.846,-19.821,-19.822,-19.817,-19.83,-19.837,-19.822,-19.805,-19.808,-19.822,-19.869,-19.89,-19.909,-19.845,-19.696,-19.47,-19.177,-18.843,-18.49,-18.425,-18.708,-19.17,-19.585,-19.883,-19.903,-19.874,-19.824,-19.747,-19.694,-19.706,-19.713,-19.715,-19.729,-19.684,-19.711,-19.716,-19.724,-19.715,-19.696,-19.674,-19.707,-19.7,-19.691,-19.678,-19.674,-19.672,-19.684,-19.67,-19.666,-19.642,-19.656,-19.657,-19.662,-19.648,-19.636,-19.609,-19.631,-19.618,-19.601,-19.598,-19.575,-19.581,-19.581,-19.558,-19.536,-19.531,-19.531,-19.503,-19.487,-19.463,-19.46,-19.441,-19.433,-19.406,-19.396,-19.388,-19.37,-19.377,-19.342,-19.305,-19.314,-19.309,-19.312,-19.306,-19.295,-19.291,-19.324,-19.348,-19.386,-19.409,-19.405,-19.448,-19.494,-19.527,-19.557,-19.612,-19.632,-19.656,-19.656,-19.69,-19.693,-19.707,-19.722,-19.742,-19.723,-19.732,-19.734,-19.745,-19.735,-19.73,-19.735,-19.74,-19.733,-19.737,-19.729,-19.718,-19.733,-19.754,-19.728,-19.738,-19.721,-19.724,-19.722,-19.727,-19.717,-19.722,-19.717,-19.726,-19.739,-19.706,-19.714,-19.718,-19.699,-19.711,-19.73,-19.72,-19.736,-19.716,-19.719,-19.713,-19.721,-19.737,-19.739,-19.75,-19.731,-19.722,-19.731,-19.75,-19.753,-19.759,-19.72,-19.737,-19.762,-19.761,-19.739,-19.733,-19.757,-19.745,-19.754,-19.768,-19.76,-19.768,-19.746,-19.757,-19.761,-19.748,-19.744,-19.753,-19.746,-19.731,-19.711,-19.704,-19.681,-19.675,-19.672,-19.653,-19.661,-19.674,-19.71,-19.705,-19.696,-19.706,-19.728,-19.757,-19.764,-19.791,-19.793,-19.795,-19.781,-19.809,-19.788,-19.782,-19.802,-19.814,-19.813,-19.805,-19.806,-19.79,-19.809,-19.813,-19.811,-19.792,-19.803,-19.802,-19.801,-19.79,-19.838,-19.877,-19.862,-19.728,-19.497,-19.374,-19.094,-18.725,-18.466,-18.425,-18.769,-19.209,-19.628,-19.87,-19.887,-19.806,-19.741,-19.704,-19.698,-19.687,-19.708,-19.712,-19.711,-19.715,-19.726,-19.714,-19.705,-19.692,-19.698,-19.685,-19.689,-19.69,-19.672,-19.675,-19.686,-19.675,-19.672,-19.661,-19.67,-19.667,-19.646,-19.635,-19.64,-19.642,-19.644,-19.633,-19.63,-19.605,-19.608,-19.61,-19.58,-19.574,-19.57,-19.569,-19.548,-19.548,-19.523,-19.495,-19.483,-19.482,-19.458,-19.427,-19.41,-19.375,-19.374,-19.377,-19.351,-19.33,-19.323,-19.312,-19.319,-19.292,-19.28,-19.29,-19.276,-19.282,-19.305,-19.313,-19.352,-19.393,-19.407,-19.456,-19.499,-19.53,-19.568,-19.582,-19.618,-19.63,-19.644,-19.673,-19.704,-19.706,-19.698,-19.705,-19.732,-19.73,-19.719,-19.723,-19.727,-19.748,-19.749,-19.741,-19.729,-19.728,-19.732,-19.734,-19.73,-19.716,-19.733,-19.738,-19.741,-19.731,-19.715,-19.711,-19.719,-19.722,-19.719,-19.707,-19.708,-19.716,-19.723,-19.717,-19.705,-19.71,-19.711,-19.714,-19.713,-19.711,-19.708,-19.713,-19.721,-19.729,-19.716,-19.709,-19.712,-19.716,-19.714,-19.71,-19.719,-19.728,-19.727,-19.738,-19.724,-19.724,-19.735,-19.745,-19.748,-19.763,-19.738,-19.75,-19.757,-19.768,-19.77,-19.762,-19.761,-19.778,-19.783,-19.78,-19.781,-19.782,-19.785,-19.798,-19.792,-19.776,-19.791,-19.797,-19.796,-19.799,-19.779,-19.769,-19.772,-19.781,-19.768,-19.747,-19.751,-19.749,-19.748,-19.734,-19.72,-19.716,-19.683,-19.691,-19.658,-19.635,-19.651,-19.658,-19.685,-19.697,-19.685,-19.685,-19.688,-19.698,-19.71,-19.725,-19.733,-19.746,-19.769,-19.769,-19.762,-19.744,-19.75,-19.762,-19.761,-19.761,-19.757,-19.758,-19.765,-19.769,-19.768,-19.757,-19.764,-19.765,-19.77,-19.761,-19.758,-19.791,-19.841,-19.851,-19.738,-19.525,-19.292,-19.015,-18.612,-18.374,-18.42,-18.62,-19.095,-19.512,-19.821,-19.865,-19.802,-19.749,-19.69,-19.691,-19.684,-19.693,-19.693,-19.707,-19.706,-19.704,-19.693,-19.706,-19.704,-19.695,-19.684,-19.691,-19.683,-19.687,-19.689,-19.69,-19.672,-19.667,-19.675,-19.677,-19.661,-19.652,-19.643,-19.655,-19.647,-19.633,-19.614,-19.625,-19.618,-19.619,-19.594,-19.584,-19.575,-19.571,-19.566,-19.557,-19.537,-19.524,-19.515,-19.511,-19.474,-19.451,-19.446,-19.421,-19.41,-19.392,-19.361,-19.345,-19.334,-19.321,-19.32,-19.303,-19.289,-19.281,-19.292,-19.289,-19.28,-19.275,-19.315,-19.344,-19.383,-19.415,-19.442,-19.481,-19.548,-19.578,-19.596,-19.613,-19.66,-19.683,-19.713,-19.722,-19.73,-19.738,-19.754,-19.761,-19.771,-19.745,-19.764,-19.779,-19.79,-19.779,-19.781,-19.776,-19.781,-19.785,-19.784,-19.784,-19.783,-19.786,-19.78,-19.777,-19.782,-19.779,-19.779,-19.782,-19.772,-19.772,-19.775,-19.778,-19.768,-19.761,-19.768,-19.759,-19.756,-19.763,-19.762,-19.756,-19.752,-19.759,-19.765,-19.774,-19.757,-19.742,-19.746,-19.75,-19.753,-19.748,-19.747,-19.764,-19.763,-19.757,-19.746,-19.739,-19.747,-19.77,-19.763,-19.757,-19.745,-19.743,-19.743,-19.746,-19.743,-19.743,-19.735,-19.736,-19.749,-19.743,-19.725,-19.727,-19.748,-19.752,-19.741,-19.732,-19.742,-19.75,-19.744,-19.745,-19.742,-19.741,-19.747,-19.755,-19.753,-19.747,-19.724,-19.733,-19.747,-19.743,-19.742,-19.746,-19.739,-19.739,-19.731,-19.723,-19.726,-19.733,-19.727,-19.723,-19.703,-19.683,-19.682,-19.671,-19.655,-19.634,-19.628,-19.651,-19.694,-19.694,-19.684,-19.691,-19.704,-19.703,-19.7,-19.723,-19.736,-19.743,-19.765,-19.77,-19.771,-19.768,-19.766,-19.768,-19.774,-19.766,-19.76,-19.763,-19.774,-19.776,-19.773,-19.756,-19.76,-19.768,-19.772,-19.763,-19.764,-19.766,-19.783,-19.841,-19.851,-19.739,-19.552,-19.435,-19.195,-18.902,-18.509,-18.374,-18.572,-19.031,-19.47,-19.796,-19.873,-19.822,-19.781,-19.701,-19.687,-19.665,-19.698,-19.688,-19.704,-19.676,-19.687,-19.676,-19.683,-19.694,-19.689,-19.669,-19.673,-19.669,-19.681,-19.672,-19.665,-19.656,-19.663,-19.654,-19.649,-19.628,-19.645,-19.642,-19.642,-19.626,-19.612,-19.604,-19.61,-19.605,-19.6,-19.584,-19.57,-19.561,-19.558,-19.542,-19.526,-19.519,-19.505,-19.493,-19.473,-19.448,-19.432,-19.411,-19.405,-19.381,-19.359,-19.357,-19.336,-19.32,-19.298,-19.28,-19.258,-19.258,-19.26,-19.247,-19.245,-19.243,-19.245,-19.269,-19.286,-19.318,-19.331,-19.384,-19.425,-19.475,-19.503,-19.52,-19.548,-19.585,-19.624,-19.636,-19.651,-19.674,-19.696,-19.701,-19.698,-19.71,-19.712,-19.732,-19.739,-19.747,-19.721,-19.728,-19.735,-19.738,-19.73,-19.727,-19.725,-19.73,-19.734,-19.732,-19.721,-19.707,-19.71,-19.715,-19.713,-19.711,-19.706,-19.71,-19.713,-19.711,-19.708,-19.714,-19.712,-19.719,-19.706,-19.71,-19.706,-19.714,-19.714,-19.723,-19.712,-19.7,-19.715,-19.718,-19.732,-19.73,-19.715,-19.714,-19.725,-19.742,-19.726,-19.731,-19.73,-19.743,-19.749,-19.748,-19.737,-19.74,-19.728,-19.744,-19.75,-19.735,-19.744,-19.749,-19.753,-19.749,-19.744,-19.739,-19.756,-19.747,-19.749,-19.736,-19.745,-19.746,-19.76,-19.762,-19.747,-19.744,-19.739,-19.734,-19.74,-19.733,-19.725,-19.722,-19.731,-19.722,-19.699,-19.672,-19.654,-19.641,-19.641,-19.647,-19.68,-19.694,-19.695,-19.701,-19.701,-19.703,-19.698,-19.724,-19.753,-19.767,-19.761,-19.778,-19.772,-19.778,-19.777,-19.771,-19.78,-19.785,-19.794,-19.788,-19.783,-19.767,-19.797,-19.804,-19.798,-19.79,-19.783,-19.787,-19.796,-19.801,-19.799,-19.798,-19.84,-19.88,-19.836,-19.673,-19.457,-19.197,-18.908,-18.521,-18.422,-18.661,-19.142,-19.383,-19.761,-19.961,-19.916,-19.859,-19.774,-19.753,-19.731,-19.759,-19.759,-19.786,-19.767,-19.791,-19.753,-19.775,-19.763,-19.775,-19.753,-19.747,-19.74,-19.758,-19.741,-19.751,-19.728,-19.729,-19.723,-19.724,-19.714,-19.703,-19.691,-19.695,-19.678,-19.676,-19.654,-19.654,-19.647,-19.633,-19.613,-19.606,-19.594,-19.603,-19.594,-19.57,-19.544,-19.528,-19.514,-19.503,-19.481,-19.456,-19.44,-19.414,-19.398,-19.389,-19.364,-19.347,-19.328,-19.313,-19.314,-19.282,-19.256,-19.255,-19.265,-19.255,-19.247,-19.25,-19.26,-19.292,-19.33,-19.352,-19.385,-19.432,-19.472,-19.502,-19.539,-19.565,-19.607,-19.635,-19.648,-19.669,-19.679,-19.685,-19.712,-19.711,-19.72,-19.719,-19.735,-19.732,-19.752,-19.743,-19.731,-19.739,-19.748,-19.741,-19.732,-19.734,-19.736,-19.734,-19.742,-19.735,-19.73,-19.723,-19.73,-19.725,-19.743,-19.732,-19.732,-19.719,-19.725,-19.721,-19.713,-19.722,-19.714,-19.718,-19.725,-19.708,-19.724,-19.74,-19.76,-19.741,-19.708,-19.686,-19.711,-19.714,-19.722,-19.733,-19.71,-19.704,-19.698,-19.717,-19.72,-19.717,-19.715,-19.721,-19.733,-19.729,-19.726,-19.723,-19.733,-19.733,-19.731,-19.726,-19.732,-19.73,-19.742,-19.736,-19.709,-19.724,-19.721,-19.726,-19.732,-19.723,-19.724,-19.731,-19.734,-19.73,-19.727,-19.724,-19.723,-19.717,-19.722,-19.716,-19.712,-19.731,-19.73,-19.734,-19.733,-19.72,-19.716,-19.73,-19.719,-19.709,-19.704,-19.712,-19.705,-19.697,-19.675,-19.661,-19.646,-19.644,-19.617,-19.609,-19.614,-19.644,-19.675,-19.661,-19.656,-19.666,-19.678,-19.684,-19.702,-19.729,-19.734,-19.74,-19.733,-19.754,-19.751,-19.747,-19.753,-19.753,-19.754,-19.751,-19.762,-19.748,-19.759,-19.762,-19.754,-19.771,-19.752,-19.753,-19.759,-19.765,-19.755,-19.756,-19.792,-19.844,-19.857,-19.741,-19.542,-19.278,-18.999,-18.843,-18.465,-18.351,-18.622,-19.075,-19.51,-19.816,-19.866,-19.821,-19.779,-19.702,-19.68,-19.659,-19.696,-19.696,-19.708,-19.677,-19.696,-19.693,-19.699,-19.685,-19.692,-19.672,-19.675,-19.664,-19.673,-19.665,-19.663,-19.658,-19.662,-19.658,-19.656,-19.636,-19.64,-19.634,-19.643,-19.607,-19.609,-19.6,-19.607,-19.608,-19.593,-19.586,-19.57,-19.57,-19.554,-19.541,-19.521,-19.509,-19.5,-19.495,-19.478,-19.446,-19.429,-19.424,-19.408,-19.398,-19.362,-19.346,-19.324,-19.326,-19.306,-19.299,-19.285,-19.265,-19.268,-19.266,-19.241,-19.242,-19.253,-19.279,-19.3,-19.322,-19.345,-19.382,-19.428,-19.483,-19.516,-19.539,-19.573,-19.598,-19.627,-19.649,-19.659,-19.675,-19.689,-19.709,-19.717,-19.706,-19.718,-19.724,-19.728,-19.73,-19.713,-19.741,-19.735,-19.739,-19.724,-19.721,-19.71,-19.716,-19.728,-19.725,-19.722,-19.717,-19.711,-19.722,-19.709,-19.709,-19.702,-19.705,-19.715,-19.713,-19.701,-19.709,-19.712,-19.711,-19.705,-19.7,-19.703,-19.705,-19.711,-19.715,-19.721,-19.716,-19.717,-19.728,-19.723,-19.728,-19.721,-19.721,-19.725,-19.723,-19.724,-19.714,-19.725,-19.733,-19.741,-19.724,-19.731,-19.737,-19.73,-19.747,-19.735,-19.723,-19.753,-19.737,-19.743,-19.74,-19.721,-19.728,-19.737,-19.749,-19.744,-19.74,-19.741,-19.745,-19.751,-19.742,-19.731,-19.725,-19.735,-19.746,-19.756,-19.746,-19.745,-19.739,-19.739,-19.719,-19.732,-19.725,-19.722,-19.717,-19.695,-19.671,-19.639,-19.625,-19.639,-19.648,-19.645,-19.656,-19.675,-19.693,-19.696,-19.693,-19.704,-19.72,-19.743,-19.765,-19.765,-19.758,-19.75,-19.754,-19.763,-19.755,-19.751,-19.76,-19.764,-19.768,-19.77,-19.763,-19.76,-19.765,-19.775,-19.768,-19.768,-19.763,-19.773,-19.758,-19.767,-19.8,-19.858,-19.841,-19.711,-19.488,-19.209,-18.895,-18.513,-18.369,-18.523,-18.742,-19.187,-19.624,-19.86,-19.863,-19.802,-19.747,-19.701,-19.693,-19.682,-19.687,-19.678,-19.708,-19.692,-19.701,-19.686,-19.694,-19.686,-19.697,-19.689,-19.683,-19.673,-19.671,-19.66,-19.661,-19.657,-19.659,-19.644,-19.642,-19.647,-19.636,-19.623,-19.627,-19.637,-19.614,-19.603,-19.592,-19.575,-19.578,-19.593,-19.578,-19.548,-19.54,-19.527,-19.52,-19.513,-19.502,-19.488,-19.47,-19.458,-19.422,-19.412,-19.381,-19.375,-19.371,-19.324,-19.314,-19.308,-19.305,-19.288,-19.283,-19.257,-19.244,-19.241,-19.26,-19.255,-19.248,-19.274,-19.298,-19.338,-19.362,-19.404,-19.437,-19.495,-19.514,-19.542,-19.562,-19.6,-19.64,-19.66,-19.674,-19.667,-19.677,-19.702,-19.7,-19.711,-19.718,-19.71,-19.703,-19.72,-19.722,-19.72,-19.717,-19.715,-19.713,-19.73,-19.705,-19.707,-19.686,-19.685,-19.692,-19.683,-19.692,-19.702,-19.705,-19.695,-19.689,-19.678,-19.689,-19.689,-19.688,-19.683,-19.677,-19.672,-19.675,-19.694,-19.694,-19.693,-19.695,-19.695,-19.703,-19.706,-19.708,-19.675,-19.692,-19.702,-19.715,-19.712,-19.688,-19.705,-19.709,-19.711,-19.708,-19.698,-19.707,-19.721,-19.728,-19.714,-19.719,-19.699,-19.708,-19.712,-19.726,-19.715,-19.709,-19.715,-19.709,-19.705,-19.708,-19.709,-19.717,-19.711,-19.725,-19.711,-19.718,-19.726,-19.732,-19.733,-19.721,-19.709,-19.71,-19.709,-19.712,-19.707,-19.707,-19.708,-19.71,-19.715,-19.695,-19.683,-19.683,-19.657,-19.644,-19.608,-19.601,-19.607,-19.62,-19.651,-19.656,-19.667,-19.682,-19.692,-19.707,-19.705,-19.722,-19.729,-19.748,-19.751,-19.74,-19.732,-19.76,-19.781,-19.774,-19.77,-19.773,-19.78,-19.787,-19.793,-19.779,-19.77,-19.773,-19.784,-19.784,-19.787,-19.782,-19.786,-19.818,-19.881,-19.859,-19.718,-19.492,-19.251,-18.976,-18.579,-18.391,-18.491,-18.908,-19.354,-19.725,-19.847,-19.818,-19.8,-19.728,-19.695,-19.656,-19.672,-19.665,-19.692,-19.68,-19.683,-19.661,-19.675,-19.669,-19.681,-19.665,-19.657,-19.648,-19.661,-19.639,-19.637,-19.625,-19.627,-19.617,-19.629,-19.618,-19.615,-19.601,-19.608,-19.602,-19.589,-19.575,-19.573,-19.57,-19.581,-19.566,-19.544,-19.529,-19.528,-19.526,-19.504,-19.473,-19.473,-19.47,-19.456,-19.442,-19.425,-19.407,-19.387,-19.368,-19.348,-19.319,-19.292,-19.28,-19.28,-19.271,-19.256,-19.251,-19.246,-19.241,-19.229,-19.216,-19.209,-19.214,-19.236,-19.285,-19.297,-19.324,-19.359,-19.404,-19.445,-19.473,-19.513,-19.558,-19.585,-19.629,-19.643,-19.655,-19.658,-19.674,-19.686,-19.691,-19.688,-19.687,-19.692,-19.707,-19.706,-19.702,-19.711,-19.714,-19.703,-19.702,-19.702,-19.698,-19.704,-19.701,-19.692,-19.687,-19.677,-19.692,-19.691,-19.691,-19.679,-19.684,-19.674,-19.688,-19.682,-19.668,-19.67,-19.679,-19.678,-19.677,-19.659,-19.661,-19.67,-19.693,-19.685,-19.668,-19.673,-19.674,-19.683,-19.694,-19.683,-19.685,-19.686,-19.697,-19.706,-19.701,-19.701,-19.716,-19.719,-19.736,-19.727,-19.727,-19.74,-19.744,-19.748,-19.755,-19.751,-19.758,-19.762,-19.771,-19.767,-19.76,-19.763,-19.765,-19.783,-19.773,-19.777,-19.79,-19.806,-19.807,-19.819,-19.812,-19.819,-19.837,-19.848,-19.848,-19.845,-19.845,-19.866,-19.878,-19.888,-19.879,-19.882,-19.881,-19.892,-19.906,-19.901,-19.9,-19.899,-19.903,-19.906,-19.913,-19.903,-19.918,-19.928,-19.902,-19.863,-19.837,-19.834,-19.856,-19.86,-19.862,-19.853,-19.844,-19.854,-19.868,-19.864,-19.855,-19.877,-19.882,-19.882,-19.865,-19.856,-19.853,-19.845,-19.851,-19.84,-19.826,-19.83,-19.835,-19.839,-19.828,-19.819,-19.817,-19.82,-19.836,-19.826,-19.804,-19.809,-19.832,-19.884,-19.911,-19.831,-19.636,-19.414,-19.178,-18.862,-18.473,-18.408,-18.711,-18.946,-19.375,-19.735,-19.861,-19.864,-19.79,-19.741,-19.677,-19.685,-19.691,-19.712,-19.704,-19.709,-19.696,-19.698,-19.705,-19.716,-19.68,-19.683,-19.691,-19.691,-19.678,-19.665,-19.665,-19.654,-19.665,-19.669,-19.654,-19.643,-19.632,-19.645,-19.648,-19.631,-19.618,-19.621,-19.608,-19.594,-19.58,-19.557,-19.562,-19.575,-19.583,-19.567,-19.529,-19.515,-19.486,-19.486,-19.478,-19.451,-19.43,-19.424,-19.416,-19.38,-19.359,-19.34,-19.33,-19.312,-19.301,-19.277,-19.275,-19.279,-19.27,-19.259,-19.238,-19.214,-19.27,-19.281,-19.3,-19.318,-19.346,-19.402,-19.436,-19.48,-19.522,-19.541,-19.587,-19.636,-19.673,-19.698,-19.703,-19.712,-19.722,-19.744,-19.737,-19.737,-19.763,-19.784,-19.768,-19.769,-19.763,-19.762,-19.767,-19.781,-19.786,-19.761,-19.755,-19.776,-19.784,-19.768,-19.756,-19.754,-19.755,-19.783,-19.766,-19.761,-19.739,-19.746,-19.775,-19.773,-19.744,-19.738,-19.747,-19.753,-19.756,-19.744,-19.754,-19.737,-19.754,-19.752,-19.756,-19.739,-19.737,-19.771,-19.771,-19.755,-19.755,-19.76,-19.746,-19.768,-19.736,-19.749,-19.772,-19.786,-19.794,-19.785,-19.77,-19.783,-19.809,-19.836,-19.839,-19.836,-19.858,-19.876,-19.913,-19.969,-19.978,-19.987,-19.997,-20.014,-20.034,-20.027,-20.03,-20.061,-20.079,-20.072,-20.093,-20.102,-20.118,-20.125,-20.136,-20.138,-20.138,-20.105,-20.106,-20.094,-20.08,-20.047,-20.027,-20.012,-20.018,-19.996,-19.993,-20.011,-20.045,-20.027,-20.028,-20.039,-20.048,-20.053,-20.057,-20.061,-20.056,-20.058,-20.066,-20.059,-20.048,-20.042,-20.029,-20.029,-20.012,-19.985,-19.969,-19.974,-19.983,-19.982,-19.963,-19.93,-19.932,-19.93,-19.934,-19.923,-19.911,-19.938,-19.993,-19.988,-19.855,-19.623,-19.335,-19.008,-18.618,-18.471,-18.572,-19.02,-19.473,-19.879,-19.956,-19.916,-19.879,-19.787,-19.756,-19.734,-19.769,-19.764,-19.794,-19.78,-19.809,-19.779,-19.784,-19.765,-19.783,-19.766,-19.772,-19.756,-19.782,-19.746,-19.734,-19.73,-19.731,-19.723,-19.734,-19.73,-19.72,-19.7,-19.707,-19.72,-19.725,-19.713,-19.706,-19.705,-19.711,-19.726,-19.717,-19.707,-19.684,-19.697,-19.677,-19.676,-19.662,-19.653,-19.656,-19.659,-19.656,-19.629,-19.609,-19.595,-19.581,-19.579,-19.552,-19.53,-19.518,-19.516,-19.491,-19.471,-19.463,-19.462,-19.462,-19.471,-19.432,-19.446,-19.489,-19.497,-19.494,-19.495,-19.514,-19.553,-19.583,-19.638,-19.773,-19.875,-19.847,-19.799,-19.788,-19.838,-19.857,-19.844,-19.817,-19.795,-19.856,-19.909,-19.897,-19.869,-19.61,-19.291,-19.516,-19.97,-20.164,-20.104,-19.982,-19.911,-19.9,-19.925,-19.935,-19.938,-19.909,-19.907,-19.895,-19.915,-19.889,-19.881,-19.868,-19.874,-19.882,-19.865,-19.848,-19.857,-19.854,-19.894,-19.879,-19.853,-19.855,-19.883,-19.892,-19.912,-19.897,-19.903,-19.899,-19.903,-19.885,-19.878,-19.869,-19.873,-19.883,-19.876,-19.87,-19.86,-19.865,-19.881,-19.875,-19.877,-19.878,-19.887,-19.889,-19.885,-19.864,-19.846,-19.85,-19.848,-19.837,-19.826,-19.807,-19.8,-19.762,-19.727,-19.711,-19.699,-19.719,-19.747,-19.767,-19.762,-19.766,-19.764,-19.787,-19.813,-19.832,-19.838,-19.843,-19.85,-19.856,-19.853,-19.847,-19.843,-19.854,-19.855,-19.868,-19.862,-19.859,-19.857,-19.872,-19.87,-19.862,-19.86,-19.87,-19.867,-19.884,-19.901,-19.957,-19.972,-19.879,-19.685,-19.433,-19.273,-18.968,-18.582,-18.473,-18.676,-19.152,-19.575,-19.95,-19.994,-19.963,-19.906,-19.851,-19.842,-19.841,-19.855,-19.838,-19.849,-19.844,-19.842,-19.835,-19.836,-19.827,-19.827,-19.82,-19.813,-19.798,-19.798,-19.801,-19.798,-19.793,-19.788,-19.787,-19.789,-19.791,-19.787,-19.775,-19.768,-19.762,-19.761,-19.751,-19.741,-19.728,-19.726,-19.724,-19.714,-19.701,-19.683,-19.667,-19.659,-19.645,-19.618,-19.592,-19.572,-19.566,-19.546,-19.522,-19.493,-19.478,-19.462,-19.443,-19.429,-19.405,-19.385,-19.375,-19.365,-19.353,-19.337,-19.331,-19.334,-19.338,-19.344,-19.359,-19.387,-19.422,-19.457,-19.495,-19.524,-19.569,-19.61,-19.648,-19.66,-19.682,-19.705,-19.724,-19.739,-19.747,-19.744,-19.754,-19.765,-19.775,-19.775,-19.768,-19.768,-19.778,-19.786,-19.784,-19.778,-19.769,-19.774,-19.777,-19.78,-19.77,-19.763,-19.769,-19.772,-19.771,-19.763,-19.752,-19.756,-19.757,-19.756,-19.746,-19.739,-19.741,-19.749,-19.751,-19.746,-19.738,-19.75,-19.751,-19.752,-19.747,-19.743,-19.745,-19.759,-19.766,-19.771,-19.761,-19.757,-19.757,-19.767,-19.762,-19.761,-19.767,-19.779,-19.785,-19.783,-19.778,-19.787,-19.794,-19.799,-19.797,-19.791,-19.789,-19.801,-19.81,-19.809,-19.798,-19.796,-19.805,-19.819,-19.82,-19.812,-19.808,-19.815,-19.82,-19.82,-19.81,-19.806,-19.814,-19.818,-19.816,-19.815,-19.806,-19.811,-19.813,-19.811,-19.805,-19.789,-19.783,-19.782,-19.771,-19.738,-19.703,-19.689,-19.687,-19.705,-19.719,-19.73,-19.735,-19.742,-19.754,-19.757,-19.764,-19.776,-19.802,-19.813,-19.81,-19.81,-19.816,-19.826,-19.838,-19.845,-19.843,-19.853,-19.856,-19.88,-19.915,-19.914,-19.871,-19.862,-19.899,-19.915,-19.872,-19.832,-19.815,-19.869,-19.942,-19.913,-19.802,-19.596,-19.382,-19.128,-18.732,-18.488,-18.535,-19.011,-19.524,-19.846,-19.986,-19.962,-19.864,-19.769,-19.717,-19.701,-19.749,-19.741,-19.736,-19.719,-19.716,-19.713,-19.719,-19.722,-19.716,-19.698,-19.705,-19.713,-19.739,-19.723,-19.695,-19.676,-19.666,-19.676,-19.691,-19.69,-19.718,-19.715,-19.71,-19.664,-19.654,-19.668,-19.675,-19.717,-19.72,-19.669,-19.63,-19.604,-19.601,-19.592,-19.571,-19.576,-19.583,-19.569,-19.542,-19.511,-19.501,-19.497,-19.487,-19.482,-19.45,-19.412,-19.384,-19.382,-19.379,-19.346,-19.327,-19.331,-19.329,-19.317,-19.305,-19.297,-19.31,-19.329,-19.347,-19.368,-19.392,-19.429,-19.47,-19.511,-19.553,-19.58,-19.621,-19.662,-19.702,-19.721,-19.74,-19.756,-19.773,-19.787,-19.78,-19.785,-19.784,-19.801,-19.802,-19.805,-19.809,-19.808,-19.826,-19.831,-19.822,-19.814,-19.821,-19.832,-19.845,-19.843,-19.845,-19.844,-19.854,-19.862,-19.872,-19.872,-19.864,-19.872,-19.871,-19.879,-19.869,-19.879,-19.881,-19.884,-19.891,-19.879,-19.873,-19.887,-19.894,-19.901,-19.892,-19.892,-19.895,-19.907,-19.913,-19.908,-19.9,-19.905,-19.905,-19.914,-19.91,-19.899,-19.897,-19.911,-19.914,-19.908,-19.906,-19.899,-19.903,-19.904,-19.898,-19.886,-19.885,-19.889,-19.887,-19.894,-19.881,-19.874,-19.888,-19.881,-19.877,-19.866,-19.865,-19.875,-19.88,-19.875,-19.862,-19.864,-19.867,-19.869,-19.865,-19.856,-19.859,-19.856,-19.864,-19.864,-19.858,-19.852,-19.859,-19.865,-19.876,-19.866,-19.856,-19.86,-19.86,-19.869,-19.864,-19.856,-19.853,-19.863,-19.862,-19.853,-19.838,-19.846,-19.857,-19.854,-19.844,-19.818,-19.816,-19.814,-19.796,-19.758,-19.759,-19.772,-19.798,-19.806,-19.799,-19.802,-19.819,-19.834,-19.854,-19.871,-19.869,-19.896,-19.897,-19.906,-19.912,-19.909,-19.905,-19.909,-19.911,-19.911,-19.909,-19.911,-19.922,-19.933,-19.933,-19.927,-19.921,-19.927,-19.935,-19.934,-19.931,-19.958,-20.011,-20.026,-19.959,-19.794,-19.562,-19.333,-19.02,-18.654,-18.597,-18.905,-19.363,-19.755,-20.009,-20.029,-19.941,-19.883,-19.839,-19.85,-19.851,-19.855,-19.85,-19.852,-19.852,-19.852,-19.841,-19.84,-19.848,-19.851,-19.843,-19.842,-19.84,-19.847,-19.849,-19.853,-19.836,-19.829,-19.835,-19.837,-19.824,-19.813,-19.799,-19.798,-19.794,-19.789,-19.776,-19.768,-19.766,-19.769,-19.762,-19.738,-19.721,-19.71,-19.712,-19.701,-19.68,-19.664,-19.651,-19.641,-19.628,-19.597,-19.582,-19.572,-19.562,-19.547,-19.522,-19.5,-19.492,-19.477,-19.467,-19.446,-19.435,-19.422,-19.414,-19.416,-19.416,-19.414,-19.439,-19.464,-19.505,-19.531,-19.561,-19.582,-19.625,-19.666,-19.701,-19.731,-19.763,-19.798,-19.824,-19.841,-19.848,-19.857,-19.872,-19.891,-19.889,-19.877,-19.879,-19.891,-19.899,-19.898,-19.888,-19.885,-19.884,-19.884,-19.892,-19.887,-19.878,-19.882,-19.885,-19.881,-19.866,-19.861,-19.862,-19.866,-19.871,-19.866,-19.859,-19.859,-19.866,-19.866,-19.859,-19.857,-19.86,-19.865,-19.868,-19.863,-19.858,-19.862,-19.869,-19.876,-19.875,-19.867,-19.862,-19.861,-19.866,-19.866,-19.862,-19.863,-19.868,-19.871,-19.867,-19.869,-19.871,-19.874,-19.885,-19.891,-19.885,-19.881,-19.885,-19.892,-19.89,-19.875,-19.865,-19.868,-19.87,-19.86,-19.844,-19.821,-19.797,-19.777,-19.768,-19.764,-19.769,-19.792,-19.796,-19.798,-19.803,-19.812,-19.84,-19.873,-19.899,-19.901,-19.898,-19.902,-19.906,-19.906,-19.904,-19.904,-19.909,-19.921,-19.924,-19.916,-19.903,-19.893,-19.896,-19.907,-19.914,-19.912,-19.91,-19.921,-19.923,-19.946,-19.99,-20,-19.902,-19.712,-19.456,-19.158,-18.795,-18.583,-18.621,-18.792,-19.245,-19.666,-19.986,-20.033,-19.986,-19.923,-19.854,-19.843,-19.844,-19.863,-19.852,-19.864,-19.854,-19.871,-19.852,-19.856,-19.844,-19.857,-19.852,-19.866,-19.849,-19.846,-19.837,-19.837,-19.835,-19.835,-19.812,-19.815,-19.805,-19.806,-19.795,-19.793,-19.773,-19.779,-19.767,-19.753,-19.739,-19.737,-19.728,-19.724,-19.711,-19.689,-19.684,-19.669,-19.659,-19.649,-19.617,-19.599,-19.589,-19.577,-19.548,-19.521,-19.51,-19.5,-19.491,-19.469,-19.44,-19.421,-19.422,-19.411,-19.413,-19.405,-19.398,-19.399,-19.409,-19.414,-19.432,-19.459,-19.503,-19.537,-19.578,-19.607,-19.644,-19.684,-19.726,-19.749,-19.772,-19.783,-19.805,-19.811,-19.833,-19.839,-19.846,-19.853,-19.866,-19.876,-19.893,-19.896,-19.899,-19.901,-19.894,-19.891,-19.885,-19.881,-19.886,-19.884,-19.863,-19.855,-19.861,-19.861,-19.857,-19.859,-19.846,-19.848,-19.847,-19.845,-19.849,-19.836,-19.831,-19.829,-19.833,-19.824,-19.82,-19.816,-19.823,-19.831,-19.832,-19.824,-19.83,-19.83,-19.829,-19.827,-19.824,-19.827,-19.828,-19.844,-19.84,-19.835,-19.833,-19.832,-19.846,-19.845,-19.851,-19.842,-19.852,-19.862,-19.863,-19.84,-19.824,-19.812,-19.824,-19.825,-19.815,-19.808,-19.807,-19.792,-19.771,-19.755,-19.748,-19.765,-19.787,-19.805,-19.805,-19.817,-19.821,-19.852,-19.874,-19.89,-19.889,-19.893,-19.893,-19.893,-19.893,-19.89,-19.887,-19.893,-19.903,-19.908,-19.901,-19.899,-19.898,-19.907,-19.903,-19.898,-19.893,-19.894,-19.905,-19.915,-19.945,-19.977,-19.988,-19.896,-19.705,-19.453,-19.163,-18.804,-18.576,-18.614,-18.994,-19.449,-19.845,-20.027,-20.006,-19.938,-19.866,-19.836,-19.829,-19.846,-19.833,-19.843,-19.831,-19.843,-19.838,-19.841,-19.823,-19.824,-19.817,-19.822,-19.812,-19.81,-19.796,-19.806,-19.798,-19.793,-19.772,-19.779,-19.768,-19.776,-19.765,-19.762,-19.752,-19.745,-19.746,-19.744,-19.731,-19.721,-19.71,-19.707,-19.695,-19.677,-19.663,-19.657,-19.649,-19.635,-19.612,-19.593,-19.581,-19.569,-19.547,-19.534,-19.506,-19.49,-19.479,-19.466,-19.448,-19.421,-19.412,-19.399,-19.395,-19.376,-19.369,-19.363,-19.374,-19.38,-19.395,-19.412,-19.448,-19.485,-19.522,-19.535,-19.569,-19.603,-19.639,-19.672,-19.704,-19.718,-19.739,-19.761,-19.782,-19.787,-19.789,-19.795,-19.808,-19.816,-19.819,-19.816,-19.821,-19.825,-19.838,-19.832,-19.825,-19.817,-19.827,-19.831,-19.826,-19.816,-19.815,-19.817,-19.823,-19.817,-19.81,-19.806,-19.814,-19.819,-19.822,-19.81,-19.809,-19.814,-19.827,-19.827,-19.823,-19.816,-19.818,-19.814,-19.814,-19.815,-19.811,-19.817,-19.829,-19.832,-19.828,-19.814,-19.818,-19.826,-19.833,-19.834,-19.824,-19.824,-19.829,-19.831,-19.82,-19.81,-19.813,-19.825,-19.832,-19.829,-19.814,-19.817,-19.818,-19.824,-19.828,-19.817,-19.819,-19.824,-19.832,-19.83,-19.82,-19.819,-19.824,-19.832,-19.83,-19.824,-19.816,-19.82,-19.83,-19.836,-19.83,-19.83,-19.832,-19.841,-19.841,-19.839,-19.834,-19.836,-19.837,-19.841,-19.835,-19.831,-19.838,-19.844,-19.845,-19.848,-19.837,-19.837,-19.837,-19.842,-19.837,-19.824,-19.821,-19.821,-19.816,-19.801,-19.786,-19.769,-19.747,-19.734,-19.727,-19.737,-19.755,-19.769,-19.779,-19.791,-19.793,-19.798,-19.817,-19.841,-19.854,-19.861,-19.869,-19.872,-19.874,-19.876,-19.864,-19.866,-19.873,-19.886,-19.883,-19.878,-19.874,-19.877,-19.884,-19.884,-19.881,-19.876,-19.878,-19.881,-19.877,-19.888,-19.925,-19.983,-19.945,-19.805,-19.571,-19.305,-19.015,-18.66,-18.544,-18.717,-19.161,-19.389,-19.781,-20.012,-19.977,-19.926,-19.846,-19.825,-19.799,-19.827,-19.809,-19.828,-19.811,-19.827,-19.813,-19.82,-19.803,-19.825,-19.813,-19.812,-19.798,-19.809,-19.788,-19.805,-19.793,-19.791,-19.781,-19.79,-19.777,-19.781,-19.761,-19.769,-19.762,-19.766,-19.751,-19.742,-19.726,-19.727,-19.727,-19.711,-19.69,-19.688,-19.682,-19.673,-19.666,-19.653,-19.625,-19.607,-19.598,-19.587,-19.561,-19.541,-19.53,-19.517,-19.507,-19.486,-19.464,-19.45,-19.44,-19.43,-19.412,-19.387,-19.387,-19.386,-19.39,-19.381,-19.387,-19.4,-19.427,-19.457,-19.494,-19.515,-19.556,-19.594,-19.641,-19.662,-19.694,-19.727,-19.759,-19.779,-19.793,-19.795,-19.809,-19.817,-19.838,-19.835,-19.843,-19.839,-19.847,-19.85,-19.851,-19.838,-19.836,-19.84,-19.851,-19.832,-19.829,-19.817,-19.831,-19.834,-19.84,-19.832,-19.832,-19.829,-19.834,-19.829,-19.822,-19.824,-19.834,-19.836,-19.845,-19.834,-19.825,-19.813,-19.816,-19.82,-19.827,-19.824,-19.829,-19.832,-19.837,-19.833,-19.83,-19.822,-19.826,-19.834,-19.841,-19.838,-19.832,-19.843,-19.852,-19.85,-19.846,-19.839,-19.84,-19.848,-19.856,-19.848,-19.849,-19.852,-19.861,-19.857,-19.852,-19.851,-19.849,-19.853,-19.847,-19.839,-19.839,-19.833,-19.83,-19.825,-19.803,-19.772,-19.751,-19.747,-19.746,-19.755,-19.768,-19.79,-19.8,-19.81,-19.807,-19.819,-19.839,-19.859,-19.878,-19.878,-19.869,-19.879,-19.88,-19.889,-19.885,-19.885,-19.888,-19.898,-19.9,-19.896,-19.883,-19.881,-19.885,-19.896,-19.893,-19.887,-19.891,-19.893,-19.901,-19.921,-19.959,-19.993,-19.916,-19.756,-19.509,-19.206,-18.864,-18.592,-18.543,-18.865,-19.314,-19.737,-20.003,-19.992,-19.977,-19.914,-19.856,-19.82,-19.812,-19.828,-19.815,-19.815,-19.814,-19.821,-19.823,-19.824,-19.811,-19.816,-19.813,-19.812,-19.797,-19.792,-19.794,-19.8,-19.799,-19.795,-19.776,-19.768,-19.771,-19.774,-19.765,-19.76,-19.751,-19.75,-19.742,-19.738,-19.727,-19.719,-19.71,-19.706,-19.691,-19.679,-19.664,-19.656,-19.653,-19.643,-19.617,-19.599,-19.583,-19.576,-19.557,-19.531,-19.511,-19.498,-19.485,-19.469,-19.447,-19.433,-19.428,-19.417,-19.402,-19.385,-19.385,-19.391,-19.398,-19.408,-19.427,-19.45,-19.483,-19.519,-19.556,-19.585,-19.615,-19.653,-19.698,-19.731,-19.758,-19.774,-19.794,-19.812,-19.826,-19.833,-19.838,-19.848,-19.854,-19.858,-19.858,-19.847,-19.846,-19.848,-19.864,-19.86,-19.853,-19.856,-19.859,-19.859,-19.85,-19.841,-19.839,-19.843,-19.85,-19.842,-19.836,-19.838,-19.84,-19.84,-19.84,-19.828,-19.829,-19.827,-19.834,-19.835,-19.828,-19.826,-19.826,-19.831,-19.838,-19.833,-19.836,-19.843,-19.851,-19.851,-19.845,-19.84,-19.841,-19.851,-19.86,-19.853,-19.847,-19.85,-19.859,-19.867,-19.867,-19.862,-19.866,-19.869,-19.87,-19.863,-19.858,-19.862,-19.872,-19.875,-19.872,-19.862,-19.864,-19.867,-19.87,-19.87,-19.859,-19.862,-19.873,-19.878,-19.874,-19.862,-19.851,-19.855,-19.861,-19.852,-19.838,-19.829,-19.815,-19.799,-19.768,-19.753,-19.758,-19.777,-19.806,-19.819,-19.809,-19.814,-19.827,-19.842,-19.863,-19.869,-19.879,-19.881,-19.894,-19.9,-19.893,-19.893,-19.904,-19.909,-19.91,-19.905,-19.906,-19.907,-19.909,-19.904,-19.899,-19.894,-19.898,-19.905,-19.911,-19.907,-19.901,-19.909,-19.947,-20,-19.988,-19.861,-19.663,-19.422,-19.157,-18.755,-18.595,-18.546,-18.828,-19.312,-19.699,-19.98,-19.981,-19.943,-19.884,-19.838,-19.814,-19.836,-19.842,-19.855,-19.842,-19.841,-19.834,-19.843,-19.841,-19.843,-19.83,-19.828,-19.817,-19.822,-19.818,-19.813,-19.799,-19.806,-19.805,-19.809,-19.794,-19.79,-19.779,-19.783,-19.778,-19.771,-19.756,-19.76,-19.754,-19.751,-19.742,-19.726,-19.709,-19.711,-19.702,-19.69,-19.674,-19.664,-19.656,-19.642,-19.619,-19.593,-19.572,-19.559,-19.54,-19.515,-19.491,-19.477,-19.467,-19.46,-19.455,-19.438,-19.421,-19.409,-19.41,-19.402,-19.393,-19.391,-19.414,-19.44,-19.469,-19.489,-19.524,-19.56,-19.613,-19.658,-19.684,-19.716,-19.753,-19.787,-19.801,-19.809,-19.82,-19.835,-19.852,-19.864,-19.868,-19.866,-19.875,-19.883,-19.892,-19.887,-19.885,-19.887,-19.89,-19.891,-19.884,-19.874,-19.879,-19.884,-19.891,-19.882,-19.871,-19.867,-19.869,-19.868,-19.865,-19.857,-19.87,-19.873,-19.875,-19.864,-19.854,-19.853,-19.859,-19.866,-19.865,-19.857,-19.86,-19.864,-19.869,-19.869,-19.862,-19.86,-19.865,-19.867,-19.876,-19.87,-19.866,-19.874,-19.882,-19.885,-19.881,-19.879,-19.882,-19.883,-19.883,-19.876,-19.881,-19.887,-19.894,-19.895,-19.89,-19.886,-19.889,-19.89,-19.896,-19.891,-19.887,-19.889,-19.897,-19.898,-19.897,-19.89,-19.894,-19.899,-19.898,-19.896,-19.886,-19.89,-19.896,-19.9,-19.897,-19.891,-19.893,-19.898,-19.901,-19.899,-19.891,-19.891,-19.896,-19.899,-19.898,-19.891,-19.891,-19.896,-19.896,-19.896,-19.889,-19.889,-19.89,-19.897,-19.9,-19.893,-19.888,-19.892,-19.898,-19.897,-19.886,-19.884,-19.887,-19.894,-19.89,-19.889,-19.886,-19.887,-19.895,-19.897,-19.887,-19.888,-19.888,-19.895,-19.896,-19.895,-19.885,-19.892,-19.893,-19.9,-19.894,-19.891,-19.891,-19.896,-19.898,-19.894,-19.884,-19.888,-19.896,-19.898,-19.893,-19.885,-19.886,-19.891,-19.896,-19.893,-19.885,-19.882,-19.89,-19.894,-19.892,-19.889,-19.886,-19.892,-19.899,-19.897,-19.886,-19.887,-19.892,-19.891,-19.893,-19.885,-19.886,-19.886,-19.891,-19.895,-19.887,-19.885,-19.886,-19.886,-19.887,-19.876,-19.871,-19.874,-19.872,-19.863,-19.843,-19.83,-19.818,-19.805,-19.792,-19.789,-19.793,-19.815,-19.826,-19.828,-19.836,-19.836,-19.835,-19.847,-19.869,-19.877,-19.887,-19.894,-19.9,-19.905,-19.897,-19.889,-19.893,-19.898,-19.901,-19.894,-19.89,-19.891,-19.896,-19.904,-19.905,-19.904,-19.9,-19.912,-19.953,-20.002,-19.96,-19.826,-19.619,-19.395,-19.147,-18.729,-18.567,-18.767,-19.197,-19.604,-19.761,-19.964,-19.971,-19.899,-19.842,-19.801,-19.813,-19.824,-19.842,-19.841,-19.837,-19.829,-19.836,-19.834,-19.836,-19.824,-19.819,-19.821,-19.825,-19.817,-19.814,-19.8,-19.797,-19.796,-19.8,-19.788,-19.784,-19.777,-19.78,-19.777,-19.765,-19.75,-19.744,-19.74,-19.735,-19.724,-19.706,-19.701,-19.698,-19.691,-19.688,-19.669,-19.657,-19.648,-19.641,-19.624,-19.594,-19.576,-19.566,-19.552,-19.533,-19.513,-19.494,-19.476,-19.463,-19.443,-19.425,-19.409,-19.402,-19.395,-19.387,-19.372,-19.364,-19.366,-19.366,-19.382,-19.396,-19.414,-19.449,-19.497,-19.53,-19.563,-19.592,-19.632,-19.678,-19.714,-19.742,-19.763,-19.785,-19.813,-19.823,-19.832,-19.838,-19.844,-19.854,-19.866,-19.865,-19.859,-19.865,-19.871,-19.876,-19.872,-19.863,-19.861,-19.866,-19.871,-19.87,-19.856,-19.858,-19.868,-19.87,-19.863,-19.855,-19.851,-19.857,-19.864,-19.865,-19.856,-19.852,-19.853,-19.857,-19.857,-19.845,-19.846,-19.854,-19.859,-19.861,-19.853,-19.854,-19.862,-19.864,-19.868,-19.863,-19.854,-19.857,-19.863,-19.874,-19.872,-19.863,-19.867,-19.876,-19.878,-19.875,-19.869,-19.867,-19.875,-19.887,-19.883,-19.874,-19.877,-19.878,-19.882,-19.882,-19.879,-19.881,-19.887,-19.897,-19.892,-19.885,-19.882,-19.882,-19.894,-19.893,-19.889,-19.89,-19.895,-19.892,-19.89,-19.888,-19.893,-19.893,-19.901,-19.902,-19.894,-19.89,-19.891,-19.896,-19.898,-19.897,-19.895,-19.896,-19.902,-19.898,-19.892,-19.889,-19.894,-19.898,-19.902,-19.895,-19.887,-19.89,-19.896,-19.9,-19.899,-19.889,-19.89,-19.891,-19.898,-19.892,-19.894,-19.894,-19.902,-19.902,-19.892,-19.881,-19.88,-19.893,-19.898,-19.896,-19.889,-19.89,-19.892,-19.893,-19.898,-19.893,-19.897,-19.896,-19.903,-19.9,-19.885,-19.887,-19.894,-19.902,-19.892,-19.88,-19.873,-19.879,-19.873,-19.872,-19.855,-19.854,-19.852,-19.837,-19.807,-19.777,-19.774,-19.811,-19.833,-19.845,-19.845,-19.825,-19.84,-19.867,-19.887,-19.905,-19.902,-19.906,-19.912,-19.913,-19.907,-19.904,-19.91,-19.92,-19.925,-19.919,-19.905,-19.905,-19.917,-19.925,-19.915,-19.909,-19.91,-19.919,-19.926,-19.937,-19.985,-20.024,-19.95,-19.773,-19.526,-19.369,-19.08,-18.705,-18.592,-18.73,-19.163,-19.582,-19.956,-20.019,-19.978,-19.912,-19.848,-19.835,-19.829,-19.841,-19.823,-19.837,-19.83,-19.84,-19.83,-19.836,-19.822,-19.833,-19.832,-19.831,-19.815,-19.81,-19.805,-19.817,-19.812,-19.802,-19.784,-19.786,-19.79,-19.796,-19.78,-19.769,-19.761,-19.767,-19.762,-19.761,-19.741
