-5.5047,-5.4983,-5.4996,-5.5181,-5.5193,-5.5196,-5.514,-5.5073,-5.5331,-5.5528,-5.566,-5.5658,-5.5795,-5.6037,-5.6294,-5.6594,-5.683,-5.7183,-5.7606,-5.777,-5.7712,-5.7717,-5.7775,-5.7656,-5.7762,-5.7474,-5.7035,-5.6825,-5.6609,-5.6458,-5.626,-5.6187,-5.6164,-5.5929,-5.5946,-5.5836,-5.5535,-5.5262,-5.499,-5.4963,-5.4856,-5.4589,-5.4522,-5.457,-5.4491,-5.4243,-5.383,-5.3676,-5.3775,-5.3878,-5.391,-5.3769,-5.3583,-5.3627,-5.3609,-5.3564,-5.3393,-5.3155,-5.3079,-5.3141,-5.3103,-5.3002,-5.2902,-5.2997,-5.3018,-5.311,-5.3159,-5.3247,-5.3474,-5.3666,-5.3862,-5.4044,-5.4128,-5.4409,-5.4606,-5.4857,-5.4904,-5.4937,-5.5114,-5.547,-5.5453,-5.5791,-5.5969,-5.6145,-5.6398,-5.7112,-5.7375,-5.7265,-5.7171,-5.7181,-5.7249,-5.7241,-5.7269,-5.7096,-5.721,-5.7488,-5.7759,-5.773,-5.7939,-5.7982,-5.8083,-5.8241,-5.817,-5.8074,-5.8104,-5.8405,-5.884,-5.9013,-5.9027,-5.9139,-5.9148,-5.9116,-5.9015,-5.8701,-5.8628,-5.8435,-5.8071,-5.7793,-5.7562,-5.7557,-5.7393,-5.7089,-5.6692,-5.6372,-5.632,-5.6508,-5.6906,-5.705,-5.6253,-5.4522,-5.1773,-4.867,-4.5489,-4.2849,-4.172,-4.2418,-4.4133,-4.7946,-5.4024,-5.9144,-5.9742,-5.9444,-5.8847,-5.7957,-5.7881,-5.7553,-5.7691,-5.7574,-5.7556,-5.7193,-5.7241,-5.7178,-5.7288,-5.733,-5.7453,-5.753,-5.767,-5.7623,-5.7718,-5.7634,-5.7764,-5.7926,-5.7995,-5.7875,-5.7854,-5.7733,-5.7788,-5.7816,-5.768,-5.7446,-5.7481,-5.7612,-5.7964,-5.7956,-5.7892,-5.782,-5.7937,-5.7975,-5.7922,-5.7826,-5.7618,-5.7551,-5.757,-5.7568,-5.7551,-5.7526,-5.7501,-5.7482,-5.7495,-5.7534,-5.75,-5.738,-5.7363,-5.7318,-5.7124,-5.6997,-5.7024,-5.7184,-5.7363,-5.7268,-5.7281,-5.7284,-5.7295,-5.7244,-5.7204,-5.7231,-5.7175,-5.7184,-5.7055,-5.6927,-5.6852,-5.6843,-5.6741,-5.6808,-5.6796,-5.6643,-5.648,-5.6496,-5.6466,-5.6363,-5.6029,-5.5984,-5.609,-5.6318,-5.6206,-5.6147,-5.6041,-5.6071,-5.6219,-5.6173,-5.6039,-5.5985,-5.5977,-5.6125,-5.607,-5.5902,-5.5774,-5.5757,-5.5837,-5.5816,-5.5711,-5.5703,-5.5741,-5.5941,-5.5908,-5.5873,-5.5741,-5.5734,-5.5878,-5.6003,-5.5949,-5.591,-5.5974,-5.6109,-5.6312,-5.6334,-5.6347,-5.6446,-5.6587,-5.6786,-5.6856,-5.6847,-5.6963,-5.7186,-5.7311,-5.7298,-5.7273,-5.7276,-5.7284,-5.7392,-5.7197,-5.6913,-5.6845,-5.6868,-5.6852,-5.6767,-5.6687,-5.6414,-5.6255,-5.6527,-5.6533,-5.6347,-5.6333,-5.6421,-5.6726,-5.6946,-5.6993,-5.6992,-5.7315,-5.7749,-5.7935,-5.7992,-5.7982,-5.8131,-5.8279,-5.8372,-5.825,-5.816,-5.8237,-5.8306,-5.8373,-5.8316,-5.8178,-5.8205,-5.8312,-5.8404,-5.8424,-5.8565,-5.8607,-5.8419,-5.7348,-5.5255,-5.1794,-4.8557,-4.5489,-4.3637,-4.3833,-4.4253,-4.7385,-5.2133,-5.878,-6.1216,-6.0868,-6.0233,-5.95,-5.9384,-5.8905,-5.893,-5.8684,-5.8735,-5.8665,-5.8661,-5.8482,-5.8503,-5.8299,-5.8514,-5.8573,-5.8483,-5.8288,-5.8368,-5.8488,-5.8688,-5.8504,-5.8408,-5.8444,-5.8629,-5.8586,-5.8598,-5.8452,-5.8515,-5.8496,-5.8609,-5.8598,-5.8409,-5.8401,-5.8484,-5.8519,-5.845,-5.8289,-5.8235,-5.8135,-5.8184,-5.8207,-5.7837,-5.7852,-5.7881,-5.7879,-5.787,-5.7811,-5.7854,-5.7907,-5.7825,-5.7821,-5.7656,-5.7483,-5.7421,-5.7372,-5.7346,-5.7308,-5.723,-5.7252,-5.7372,-5.7351,-5.7217,-5.7125,-5.7123,-5.7337,-5.7321,-5.7238,-5.6925,-5.6928,-5.703,-5.7073,-5.6942,-5.6655,-5.6631,-5.6737,-5.6686,-5.6619,-5.6318,-5.6293,-5.637,-5.6537,-5.6597,-5.6394,-5.6384,-5.6482,-5.6505,-5.6539,-5.6299,-5.6348,-5.6408,-5.6453,-5.6319,-5.619,-5.5903,-5.6116,-5.624,-5.623,-5.6102,-5.6027,-5.606,-5.6289,-5.6328,-5.6191,-5.6104,-5.625,-5.6415,-5.6472,-5.6303,-5.6264,-5.6459,-5.6547,-5.6733,-5.6766,-5.6623,-5.6784,-5.7015,-5.7192,-5.7285,-5.7288,-5.7258,-5.7392,-5.7492,-5.7429,-5.7256,-5.723,-5.7368,-5.7448,-5.7361,-5.7191,-5.7212,-5.7205,-5.7229,-5.7072,-5.7019,-5.6839,-5.6594,-5.6652,-5.6746,-5.6506,-5.6449,-5.6503,-5.6698,-5.6838,-5.684,-5.691,-5.7226,-5.7441,-5.7752,-5.7862,-5.7745,-5.7861,-5.8057,-5.8231,-5.8339,-5.8129,-5.822,-5.8339,-5.845,-5.8321,-5.8391,-5.8415,-5.8517,-5.8541,-5.8546,-5.8765,-5.8964,-5.8625,-5.8159,-5.646,-5.3222,-5.0235,-4.7279,-4.4982,-4.4161,-4.4595,-4.7427,-5.1903,-5.8693,-6.151,-6.1227,-6.0932,-6.019,-5.9891,-5.9391,-5.9065,-5.8814,-5.8881,-5.8802,-5.8862,-5.8753,-5.8693,-5.8627,-5.8802,-5.8812,-5.8846,-5.8728,-5.8872,-5.8976,-5.9066,-5.8943,-5.8812,-5.8719,-5.8804,-5.8639,-5.8536,-5.8368,-5.8475,-5.8574,-5.8666,-5.8621,-5.8497,-5.843,-5.848,-5.8628,-5.8553,-5.838,-5.843,-5.8491,-5.8676,-5.8582,-5.8398,-5.8405,-5.8423,-5.8526,-5.852,-5.8301,-5.8323,-5.8279,-5.8356,-5.8356,-5.8218,-5.8072,-5.8097,-5.8124,-5.8155,-5.8081,-5.7945,-5.8004,-5.817,-5.8141,-5.8111,-5.7989,-5.7956,-5.8141,-5.8093,-5.7897,-5.7768,-5.7773,-5.7809,-5.7841,-5.7702,-5.7491,-5.739,-5.7464,-5.7421,-5.7301,-5.7113,-5.7049,-5.7083,-5.7136,-5.6992,-5.6839,-5.6816,-5.6927,-5.6936,-5.6795,-5.6602,-5.6606,-5.6588,-5.6639,-5.6565,-5.6471,-5.6348,-5.6376,-5.6458,-5.6479,-5.6291,-5.6301,-5.6327,-5.6489,-5.6414,-5.6288,-5.6243,-5.6341,-5.6512,-5.6542,-5.6467,-5.6451,-5.6506,-5.6678,-5.6828,-5.6857,-5.6759,-5.6859,-5.7019,-5.7177,-5.7239,-5.7156,-5.7271,-5.7351,-5.7371,-5.729,-5.709,-5.7186,-5.7233,-5.7251,-5.7123,-5.6852,-5.6692,-5.6753,-5.7001,-5.693,-5.6805,-5.6763,-5.6866,-5.7155,-5.7323,-5.734,-5.7593,-5.7963,-5.8199,-5.8354,-5.8244,-5.831,-5.8407,-5.8576,-5.8564,-5.8464,-5.8546,-5.859,-5.8728,-5.8819,-5.8727,-5.8676,-5.871,-5.8835,-5.8997,-5.9209,-5.9414,-5.9622,-5.892,-5.7349,-5.4157,-5.0714,-4.7374,-4.5072,-4.4838,-4.4596,-4.6839,-4.8817,-5.433,-6.0559,-6.1552,-6.1203,-6.0542,-6.0226,-6.0118,-5.9893,-5.9726,-5.9704,-5.9695,-5.9829,-5.9768,-5.9604,-5.9591,-5.9744,-5.9928,-5.9951,-5.9841,-5.99,-5.9965,-6.0153,-6.0235,-6.0193,-6.0092,-6.009,-6.0196,-6.0167,-5.9993,-5.9835,-5.9829,-5.9912,-5.9912,-5.9813,-5.9774,-5.9885,-6.0075,-6.0157,-6.0112,-6.0052,-6.0113,-6.0185,-6.0327,-6.0266,-6.0102,-6.0069,-6.0174,-6.0275,-6.0157,-5.9961,-5.995,-5.9988,-6.0025,-5.9916,-5.9764,-5.9697,-5.9833,-5.9878,-5.9824,-5.9715,-5.9666,-5.9687,-5.9795,-5.9766,-5.963,-5.9421,-5.9383,-5.9427,-5.9366,-5.9164,-5.8996,-5.8881,-5.8928,-5.8872,-5.8689,-5.8498,-5.8466,-5.8526,-5.8477,-5.834,-5.8231,-5.8203,-5.8228,-5.831,-5.8211,-5.801,-5.7973,-5.7998,-5.8027,-5.7912,-5.7675,-5.7653,-5.7672,-5.7742,-5.7601,-5.7352,-5.729,-5.7364,-5.7418,-5.7331,-5.7149,-5.7135,-5.7135,-5.7229,-5.7272,-5.7137,-5.7197,-5.7337,-5.7556,-5.7589,-5.7502,-5.7468,-5.7605,-5.7793,-5.7789,-5.7671,-5.7628,-5.7781,-5.8007,-5.8031,-5.7959,-5.7904,-5.7929,-5.8095,-5.8258,-5.8253,-5.8182,-5.8212,-5.8248,-5.8269,-5.7979,-5.7816,-5.7893,-5.7925,-5.8009,-5.7893,-5.7587,-5.7377,-5.7509,-5.7636,-5.7513,-5.742,-5.7268,-5.7405,-5.7644,-5.7788,-5.7856,-5.8182,-5.8563,-5.8887,-5.903,-5.8969,-5.9042,-5.9157,-5.9347,-5.936,-5.9279,-5.9292,-5.9264,-5.9382,-5.9324,-5.9137,-5.9052,-5.8994,-5.922,-5.9386,-5.9718,-5.9847,-5.9584,-5.8545,-5.6259,-5.2937,-4.9108,-4.6015,-4.4859,-4.4823,-4.5217,-4.8435,-5.388,-6.0077,-6.1606,-6.1105,-6.0795,-6.0109,-5.9989,-5.9801,-5.9777,-5.948,-5.9536,-5.9492,-5.9667,-5.9568,-5.9532,-5.9487,-5.9637,-5.9729,-5.9805,-5.9679,-5.9744,-5.9842,-5.9994,-5.9892,-5.9835,-5.9507,-5.9398,-5.9436,-5.941,-5.929,-5.9154,-5.9212,-5.9364,-5.9415,-5.9257,-5.9246,-5.9319,-5.9461,-5.9582,-5.9504,-5.9348,-5.9389,-5.9557,-5.9533,-5.9579,-5.9372,-5.9283,-5.9277,-5.9377,-5.9285,-5.9046,-5.9005,-5.8992,-5.9066,-5.895,-5.8736,-5.8633,-5.8626,-5.8711,-5.8639,-5.8438,-5.8416,-5.8414,-5.8484,-5.8338,-5.822,-5.8048,-5.8033,-5.8095,-5.8064,-5.7952,-5.7782,-5.7778,-5.7828,-5.7807,-5.7597,-5.7484,-5.7475,-5.7494,-5.7423,-5.7251,-5.7126,-5.7092,-5.7188,-5.7171,-5.712,-5.6936,-5.6931,-5.6994,-5.7064,-5.6984,-5.6799,-5.6793,-5.6846,-5.6869,-5.6791,-5.6576,-5.6581,-5.6608,-5.6668,-5.6587,-5.6392,-5.6349,-5.6435,-5.6512,-5.6505,-5.6407,-5.6383,-5.6459,-5.6654,-5.6692,-5.6649,-5.6634,-5.6772,-5.6939,-5.705,-5.694,-5.6922,-5.7081,-5.7275,-5.7361,-5.7332,-5.7338,-5.7488,-5.77,-5.7744,-5.7682,-5.7555,-5.7607,-5.7784,-5.7904,-5.7924,-5.7808,-5.79,-5.8081,-5.8221,-5.8241,-5.8143,-5.8191,-5.8383,-5.8471,-5.8311,-5.8068,-5.8031,-5.8189,-5.8304,-5.8261,-5.8102,-5.797,-5.7863,-5.7813,-5.7855,-5.7715,-5.7697,-5.7647,-5.7765,-5.7833,-5.7904,-5.8022,-5.824,-5.8725,-5.8913,-5.8991,-5.8968,-5.9096,-5.9239,-5.9233,-5.9192,-5.9071,-5.9096,-5.9181,-5.9181,-5.9134,-5.8964,-5.9018,-5.9105,-5.9224,-5.9383,-5.9534,-5.9849,-5.9419,-5.8144,-5.5489,-5.1979,-4.8381,-4.5626,-4.4892,-4.4787,-4.4581,-4.5578,-5.1934,-5.8997,-6.1251,-6.1099,-6.0384,-5.9969,-5.9805,-5.9594,-5.9417,-5.9364,-5.9425,-5.9491,-5.9446,-5.921,-5.9302,-5.9506,-5.9696,-5.9783,-5.981,-5.9752,-5.9816,-6.0016,-6.0091,-6.0016,-5.9833,-5.9804,-5.987,-5.9858,-5.9707,-5.9597,-5.9519,-5.9562,-5.9591,-5.9463,-5.9363,-5.9399,-5.9501,-5.9587,-5.9567,-5.9484,-5.954,-5.9661,-5.9733,-5.9695,-5.9585,-5.9518,-5.9573,-5.9769,-5.9626,-5.9427,-5.9343,-5.9404,-5.948,-5.9421,-5.9221,-5.913,-5.9134,-5.9187,-5.9145,-5.8984,-5.8835,-5.8797,-5.8876,-5.8863,-5.8698,-5.8555,-5.8494,-5.8586,-5.8538,-5.8307,-5.8134,-5.8068,-5.8131,-5.8049,-5.7846,-5.7673,-5.7595,-5.7634,-5.7638,-5.7518,-5.7318,-5.7204,-5.7258,-5.7379,-5.7328,-5.7093,-5.7118,-5.7155,-5.7276,-5.718,-5.7019,-5.7003,-5.7012,-5.7104,-5.7043,-5.6859,-5.6862,-5.693,-5.7038,-5.7033,-5.6919,-5.683,-5.692,-5.703,-5.705,-5.6973,-5.6951,-5.7032,-5.7231,-5.7326,-5.7244,-5.7251,-5.7381,-5.7579,-5.7656,-5.7614,-5.7604,-5.7711,-5.7808,-5.7981,-5.7981,-5.7928,-5.8016,-5.8155,-5.8334,-5.8331,-5.8249,-5.8311,-5.844,-5.8587,-5.8561,-5.8432,-5.8487,-5.8613,-5.8754,-5.8693,-5.8572,-5.863,-5.8669,-5.8791,-5.8594,-5.8352,-5.8262,-5.8322,-5.8405,-5.8265,-5.8052,-5.7775,-5.7644,-5.7746,-5.7737,-5.7552,-5.7475,-5.7391,-5.7659,-5.7887,-5.788,-5.8023,-5.8481,-5.8743,-5.9048,-5.9138,-5.8987,-5.9037,-5.929,-5.9365,-5.935,-5.9292,-5.9348,-5.9454,-5.9404,-5.9448,-5.9416,-5.9569,-5.9664,-5.9976,-6.0322,-6.0549,-6.0157,-5.9699,-5.8134,-5.4862,-5.147,-4.8089,-4.5873,-4.5972,-4.6277,-4.8782,-5.3298,-5.9956,-6.2553,-6.2398,-6.1961,-6.1184,-6.1083,-6.0674,-6.0786,-6.0497,-6.0526,-6.0333,-6.053,-6.0449,-6.05,-6.0161,-6.0345,-6.0354,-6.0539,-6.0478,-6.045,-6.0443,-6.0614,-6.0628,-6.0577,-6.0445,-6.0517,-6.0509,-6.0473,-6.0253,-6.0086,-6.0038,-6.0055,-6.0026,-5.9961,-5.9727,-5.9668,-5.9644,-5.9764,-5.9725,-5.9624,-5.9603,-5.9661,-5.9829,-5.983,-5.9643,-5.9574,-5.966,-5.9726,-5.9667,-5.9453,-5.9399,-5.9403,-5.9419,-5.9413,-5.9273,-5.9112,-5.9036,-5.9148,-5.9124,-5.8991,-5.8849,-5.8848,-5.8974,-5.8913,-5.8794,-5.8573,-5.8523,-5.8553,-5.8471,-5.8289,-5.8158,-5.8079,-5.8069,-5.8051,-5.7944,-5.7667,-5.7646,-5.7551,-5.7523,-5.7353,-5.7166,-5.7073,-5.7128,-5.7155,-5.7132,-5.6915,-5.6952,-5.7026,-5.7074,-5.7027,-5.6837,-5.6787,-5.6805,-5.697,-5.6984,-5.6825,-5.6765,-5.6742,-5.6933,-5.6836,-5.6708,-5.6617,-5.6708,-5.682,-5.6895,-5.6824,-5.6777,-5.6828,-5.7028,-5.7127,-5.7077,-5.7052,-5.7108,-5.7293,-5.7491,-5.748,-5.7472,-5.7488,-5.7725,-5.7924,-5.794,-5.781,-5.7941,-5.8076,-5.8253,-5.8274,-5.8266,-5.8296,-5.8495,-5.8599,-5.8547,-5.8432,-5.8452,-5.8487,-5.8689,-5.8689,-5.856,-5.851,-5.8542,-5.8656,-5.85,-5.8281,-5.8155,-5.8195,-5.8311,-5.8165,-5.8,-5.778,-5.7596,-5.7759,-5.7785,-5.7632,-5.7557,-5.7517,-5.761,-5.7795,-5.7887,-5.7941,-5.8262,-5.8665,-5.8904,-5.8994,-5.8901,-5.9005,-5.9123,-5.9298,-5.9179,-5.907,-5.9109,-5.9211,-5.9304,-5.9295,-5.917,-5.9232,-5.9245,-5.9524,-5.9796,-5.9962,-6.0075,-5.9176,-5.7453,-5.4168,-5.0838,-4.7624,-4.5193,-4.4974,-4.5691,-4.8401,-5.2895,-5.9558,-6.2166,-6.191,-6.1243,-6.0748,-6.0427,-6.0065,-5.9969,-5.9737,-5.966,-5.9469,-5.9612,-5.9572,-5.9477,-5.9314,-5.9386,-5.9448,-5.9521,-5.941,-5.939,-5.9402,-5.9651,-5.9707,-5.969,-5.9564,-5.9555,-5.9469,-5.9577,-5.9452,-5.9231,-5.9133,-5.9137,-5.9208,-5.9155,-5.894,-5.8955,-5.8987,-5.92,-5.9239,-5.9094,-5.9065,-5.9067,-5.9239,-5.927,-5.9175,-5.9144,-5.924,-5.9328,-5.9446,-5.943,-5.9329,-5.9369,-5.9459,-5.9501,-5.94,-5.931,-5.9322,-5.948,-5.9561,-5.9429,-5.9258,-5.9343,-5.9387,-5.9415,-5.9251,-5.9191,-5.9104,-5.9072,-5.9148,-5.8973,-5.8787,-5.8729,-5.8662,-5.866,-5.8532,-5.8323,-5.8265,-5.8174,-5.8205,-5.8093,-5.796,-5.7867,-5.7957,-5.7974,-5.7878,-5.7778,-5.7702,-5.7711,-5.7795,-5.7767,-5.764,-5.7557,-5.7547,-5.7661,-5.7808,-5.7659,-5.7575,-5.7553,-5.7627,-5.7639,-5.7621,-5.7519,-5.7627,-5.7762,-5.7833,-5.7822,-5.772,-5.7768,-5.7891,-5.8044,-5.8155,-5.7998,-5.8133,-5.8279,-5.8454,-5.8404,-5.8313,-5.8444,-5.859,-5.8704,-5.868,-5.8554,-5.8656,-5.8804,-5.8991,-5.9002,-5.896,-5.894,-5.8976,-5.9099,-5.9006,-5.8899,-5.8751,-5.8763,-5.8917,-5.8777,-5.8578,-5.8372,-5.8165,-5.8241,-5.8267,-5.8092,-5.7944,-5.8025,-5.8163,-5.8286,-5.8347,-5.8403,-5.8705,-5.9017,-5.934,-5.9516,-5.9366,-5.9455,-5.9635,-5.9785,-5.9734,-5.9599,-5.9688,-5.974,-5.9939,-5.9889,-5.9732,-5.9787,-5.9914,-6.0032,-6.0113,-6.0408,-6.0578,-6.0066,-5.8934,-5.6294,-5.2824,-4.9664,-4.6965,-4.5607,-4.6192,-4.7976,-5.1688,-5.8123,-6.2704,-6.287,-6.247,-6.1816,-6.111,-6.1022,-6.0829,-6.0662,-6.0423,-6.045,-6.0361,-6.0518,-6.0371,-6.0257,-6.0173,-6.0355,-6.0363,-6.0371,-6.0225,-6.0168,-6.0272,-6.0363,-6.0212,-6.0119,-5.9992,-6.0052,-6.0057,-6.0109,-5.9945,-5.9888,-5.9929,-6.0154,-6.0062,-5.9955,-5.9918,-6.0002,-6.0122,-6.0138,-5.9989,-5.9924,-6.0012,-6.0143,-6.0091,-5.9954,-5.991,-6.0004,-6.0176,-6.0152,-6.0107,-5.9944,-5.9945,-6.0015,-6.0066,-5.9986,-5.9815,-5.9784,-5.9856,-5.9925,-5.979,-5.9626,-5.9608,-5.9656,-5.9742,-5.9576,-5.9393,-5.9346,-5.9431,-5.9432,-5.9306,-5.9085,-5.898,-5.8974,-5.9005,-5.884,-5.8614,-5.8447,-5.8362,-5.8384,-5.8289,-5.8056,-5.8012,-5.8016,-5.8114,-5.7988,-5.7794,-5.7721,-5.7761,-5.7878,-5.7856,-5.7708,-5.7543,-5.7535,-5.7693,-5.7684,-5.7558,-5.7442,-5.7453,-5.7559,-5.7634,-5.7448,-5.7281,-5.7325,-5.7493,-5.7543,-5.7482,-5.739,-5.7426,-5.7612,-5.7717,-5.7685,-5.7665,-5.7711,-5.7799,-5.8002,-5.8,-5.7934,-5.7997,-5.8067,-5.8292,-5.8224,-5.8052,-5.7954,-5.8018,-5.8133,-5.8068,-5.7758,-5.7771,-5.7663,-5.7636,-5.7462,-5.7454,-5.7309,-5.7356,-5.7465,-5.7551,-5.7497,-5.7588,-5.7816,-5.8182,-5.8507,-5.8629,-5.8643,-5.877,-5.896,-5.9017,-5.8966,-5.8883,-5.8994,-5.9095,-5.9246,-5.9134,-5.9051,-5.9102,-5.919,-5.9327,-5.9371,-5.9245,-5.9627,-5.9779,-6.016,-5.9127,-5.7104,-5.3929,-5.0806,-4.7842,-4.5407,-4.5048,-4.5617,-4.8502,-5.0623,-5.6579,-6.1673,-6.1766,-6.1611,-6.112,-6.0605,-6.0099,-5.9786,-5.9752,-5.9982,-5.9801,-5.9709,-5.953,-5.9519,-5.9609,-5.9601,-5.9447,-5.9386,-5.9315,-5.9372,-5.9522,-5.9568,-5.9422,-5.9608,-5.9709,-5.9754,-5.9588,-5.9417,-5.9272,-5.9289,-5.9419,-5.9421,-5.929,-5.9294,-5.9344,-5.9435,-5.9307,-5.9173,-5.9141,-5.9205,-5.9238,-5.9329,-5.9162,-5.9024,-5.9053,-5.9173,-5.9202,-5.9014,-5.8972,-5.9043,-5.9106,-5.9168,-5.8957,-5.895,-5.8968,-5.9116,-5.91,-5.8958,-5.8881,-5.8918,-5.8963,-5.9044,-5.8963,-5.8808,-5.8812,-5.8813,-5.8895,-5.8756,-5.8476,-5.8437,-5.849,-5.8478,-5.8365,-5.8086,-5.8101,-5.8094,-5.8101,-5.7981,-5.7787,-5.7724,-5.7729,-5.7793,-5.7778,-5.7647,-5.7543,-5.7579,-5.7696,-5.7625,-5.7448,-5.7394,-5.7451,-5.7536,-5.7522,-5.736,-5.7321,-5.7389,-5.7511,-5.7493,-5.7313,-5.7254,-5.7271,-5.7358,-5.7433,-5.738,-5.7254,-5.7336,-5.7471,-5.7587,-5.7556,-5.7512,-5.7579,-5.7759,-5.7916,-5.7955,-5.7898,-5.801,-5.8219,-5.8337,-5.8329,-5.8235,-5.8338,-5.8415,-5.8641,-5.8651,-5.8609,-5.8557,-5.8583,-5.8608,-5.8508,-5.8307,-5.8315,-5.828,-5.8421,-5.8348,-5.8005,-5.7727,-5.7884,-5.7971,-5.7944,-5.776,-5.7716,-5.7778,-5.8068,-5.8288,-5.8359,-5.8579,-5.8844,-5.915,-5.9285,-5.928,-5.9214,-5.9316,-5.9503,-5.9554,-5.9531,-5.9404,-5.9474,-5.9615,-5.9674,-5.9644,-5.9545,-5.9577,-5.9653,-6.0042,-6.0341,-6.0485,-5.9854,-5.8485,-5.5877,-5.2594,-4.9022,-4.6205,-4.5302,-4.573,-4.7293,-5.1066,-5.7358,-6.177,-6.2322,-6.1784,-6.1076,-6.0727,-6.0552,-6.0363,-6.0406,-6.0249,-6.0133,-6.0052,-6.0217,-6.0202,-6.0118,-5.9991,-6.0053,-6.0192,-6.0268,-6.0161,-6.0077,-6.0084,-6.0254,-6.025,-6.0137,-5.9932,-5.9943,-5.9966,-6.0061,-5.9954,-5.9806,-5.9778,-5.9865,-5.9955,-5.9895,-5.9744,-5.9729,-5.9822,-5.9903,-5.9837,-5.9661,-5.9683,-5.9731,-5.9873,-5.9791,-5.9672,-5.9636,-5.967,-5.9793,-5.9781,-5.9721,-5.9567,-5.9555,-5.9731,-5.9717,-5.9546,-5.9455,-5.9486,-5.9613,-5.9587,-5.9413,-5.9331,-5.9319,-5.9437,-5.9384,-5.9201,-5.9048,-5.9032,-5.9027,-5.9123,-5.8961,-5.8751,-5.8679,-5.8703,-5.8685,-5.8581,-5.833,-5.8326,-5.8293,-5.841,-5.821,-5.8042,-5.8029,-5.8091,-5.8175,-5.8076,-5.797,-5.7942,-5.7868,-5.805,-5.8005,-5.7862,-5.7761,-5.7758,-5.7858,-5.7865,-5.773,-5.7639,-5.7706,-5.7837,-5.7842,-5.7723,-5.768,-5.7769,-5.7902,-5.7937,-5.78,-5.7745,-5.7831,-5.7973,-5.8109,-5.8167,-5.808,-5.8147,-5.8288,-5.85,-5.8499,-5.8429,-5.8526,-5.8742,-5.8875,-5.889,-5.8754,-5.8904,-5.9037,-5.9207,-5.9177,-5.9115,-5.911,-5.9203,-5.9364,-5.9384,-5.9277,-5.9226,-5.9306,-5.9492,-5.9476,-5.9338,-5.9326,-5.9377,-5.9547,-5.9563,-5.9469,-5.9383,-5.9484,-5.9608,-5.9631,-5.9548,-5.9425,-5.934,-5.9345,-5.9334,-5.9209,-5.9046,-5.9004,-5.8984,-5.9065,-5.8753,-5.8454,-5.8517,-5.8602,-5.8599,-5.8509,-5.8338,-5.8423,-5.8682,-5.8909,-5.8988,-5.911,-5.9295,-5.9554,-5.9772,-5.9839,-5.9701,-5.9764,-5.9842,-6.0046,-6.0036,-5.9915,-5.9907,-6.0005,-6.0127,-6.0152,-6.0023,-6.026,-6.0638,-6.1108,-6.0651,-6.0074,-5.8268,-5.5027,-5.1952,-4.8599,-4.6236,-4.5878,-4.6217,-4.8716,-5.3052,-5.9426,-6.2407,-6.2415,-6.2017,-6.1426,-6.1117,-6.0602,-6.0705,-6.0683,-6.0754,-6.0594,-6.0531,-6.0347,-6.0525,-6.0585,-6.0665,-6.051,-6.0568,-6.0623,-6.0824,-6.0777,-6.0628,-6.0559,-6.0643,-6.0635,-6.0595,-6.0328,-6.0276,-6.0255,-6.0455,-6.0389,-6.0366,-6.0202,-6.0275,-6.0392,-6.0443,-6.0343,-6.0259,-6.032,-6.0411,-6.0431,-6.0337,-6.0148,-6.0191,-6.0291,-6.0333,-6.0227,-6.0124,-6.0176,-6.0292,-6.0318,-6.0291,-6.0137,-6.0083,-6.0129,-6.0198,-6.0125,-5.9965,-5.9946,-5.9964,-6.0066,-5.998,-5.9816,-5.9758,-5.9798,-5.9862,-5.9783,-5.9535,-5.9454,-5.9463,-5.9506,-5.9422,-5.9265,-5.9071,-5.9027,-5.9071,-5.9043,-5.8818,-5.8641,-5.8548,-5.859,-5.8516,-5.8379,-5.8221,-5.8227,-5.8315,-5.8332,-5.819,-5.8122,-5.8124,-5.8183,-5.8295,-5.823,-5.805,-5.8005,-5.8032,-5.8141,-5.8078,-5.7965,-5.7954,-5.8054,-5.8225,-5.8227,-5.8132,-5.824,-5.8409,-5.8638,-5.8633,-5.859,-5.8648,-5.8853,-5.8987,-5.9083,-5.9116,-5.9167,-5.9331,-5.9627,-5.9789,-5.9818,-5.983,-5.9946,-6.0166,-6.0217,-6.0167,-6.0191,-6.0282,-6.053,-6.0593,-6.0488,-6.0478,-6.0547,-6.0744,-6.0804,-6.0746,-6.0654,-6.0676,-6.0835,-6.0926,-6.0878,-6.075,-6.0758,-6.0836,-6.0943,-6.086,-6.0701,-6.0702,-6.0778,-6.0853,-6.077,-6.0614,-6.0622,-6.0734,-6.0777,-6.0788,-6.0691,-6.066,-6.0668,-6.0765,-6.0788,-6.064,-6.0613,-6.0695,-6.0838,-6.0859,-6.0709,-6.065,-6.066,-6.0787,-6.0778,-6.0637,-6.0552,-6.0578,-6.0632,-6.0727,-6.0649,-6.0503,-6.0566,-6.0657,-6.0759,-6.0675,-6.0517,-6.0565,-6.0636,-6.0731,-6.0612,-6.0437,-6.0375,-6.032,-6.0372,-6.0209,-5.9922,-5.9884,-5.9893,-5.994,-5.9717,-5.9479,-5.9381,-5.9351,-5.9488,-5.9451,-5.9274,-5.9253,-5.9374,-5.9724,-5.9871,-6.0001,-6.0069,-6.0225,-6.0465,-6.0487,-6.0354,-6.0368,-6.0457,-6.0514,-6.0614,-6.0544,-6.0438,-6.0511,-6.0666,-6.0832,-6.1062,-6.1173,-6.1206,-6.033,-5.8466,-5.5224,-5.1909,-4.8781,-4.6799,-4.6906,-4.7148,-4.9678,-5.4025,-5.7105,-6.2402,-6.3515,-6.2524,-6.2053,-6.1519,-6.1517,-6.1133,-6.1108,-6.0773,-6.0919,-6.0773,-6.0783,-6.0447,-6.0593,-6.0535,-6.0798,-6.0691,-6.069,-6.0635,-6.0813,-6.0896,-6.1136,-6.0983,-6.0913,-6.0828,-6.0937,-6.0794,-6.0724,-6.0459,-6.0562,-6.0588,-6.0707,-6.0547,-6.0407,-6.0434,-6.0568,-6.0563,-6.0512,-6.035,-6.0437,-6.0465,-6.0567,-6.0491,-6.0331,-6.0329,-6.0435,-6.0556,-6.0566,-6.043,-6.0455,-6.0564,-6.067,-6.0642,-6.044,-6.042,-6.0445,-6.0568,-6.0508,-6.0343,-6.0289,-6.0322,-6.0393,-6.0443,-6.0272,-6.0157,-6.0128,-6.0249,-6.0203,-6.0074,-5.985,-5.9875,-5.9847,-5.9844,-5.9629,-5.947,-5.9408,-5.9491,-5.9414,-5.9289,-5.9034,-5.9083,-5.9029,-5.9095,-5.8976,-5.8813,-5.8739,-5.8834,-5.8897,-5.8893,-5.8694,-5.8724,-5.8731,-5.884,-5.8796,-5.8612,-5.8572,-5.8666,-5.8745,-5.8746,-5.8539,-5.8562,-5.8555,-5.8676,-5.8681,-5.8573,-5.8431,-5.8511,-5.8659,-5.8747,-5.8675,-5.8597,-5.8689,-5.896,-5.8984,-5.902,-5.8976,-5.912,-5.9361,-5.9477,-5.9499,-5.9556,-5.9599,-5.9804,-5.9983,-5.9966,-5.9875,-5.9887,-6.0009,-6.0164,-6.0167,-6.0073,-6.0078,-6.015,-6.0283,-6.0268,-6.0141,-6.016,-6.0298,-6.0452,-6.0406,-6.0262,-6.0265,-6.0324,-6.0484,-6.0463,-6.0358,-6.0275,-6.0321,-6.0524,-6.0505,-6.0396,-6.0312,-6.038,-6.053,-6.0574,-6.0409,-6.0369,-6.047,-6.0602,-6.0657,-6.0569,-6.0515,-6.0479,-6.0588,-6.0669,-6.0662,-6.0488,-6.055,-6.0624,-6.076,-6.0694,-6.0575,-6.0613,-6.0717,-6.0806,-6.067,-6.0549,-6.0609,-6.0665,-6.07,-6.0515,-6.0244,-6.0165,-6.0191,-6.0282,-6.0168,-5.998,-5.9855,-5.9721,-5.9836,-5.9809,-5.9642,-5.9568,-5.9625,-5.9723,-5.972,-5.965,-5.9778,-5.9983,-6.0412,-6.0562,-6.0529,-6.0472,-6.0557,-6.067,-6.081,-6.0859,-6.0801,-6.0783,-6.09,-6.1027,-6.0945,-6.0829,-6.0939,-6.124,-6.1598,-6.174,-6.0831,-5.942,-5.6751,-5.3679,-5.0577,-4.8903,-4.704,-4.6859,-4.7763,-5.0628,-5.5479,-6.1614,-6.3913,-6.356,-6.3135,-6.2111,-6.2032,-6.1515,-6.1796,-6.1495,-6.1497,-6.1211,-6.1433,-6.1343,-6.1572,-6.1221,-6.137,-6.1214,-6.1491,-6.1502,-6.1607,-6.1312,-6.1468,-6.1404,-6.1588,-6.1429,-6.1377,-6.1271,-6.1384,-6.1323,-6.1305,-6.1178,-6.1292,-6.1269,-6.1396,-6.1263,-6.1198,-6.1135,-6.1239,-6.1353,-6.1335,-6.118,-6.1084,-6.1143,-6.1224,-6.1214,-6.1094,-6.1137,-6.1166,-6.1302,-6.1162,-6.1067,-6.1103,-6.1183,-6.1232,-6.116,-6.1058,-6.0933,-6.0989,-6.1077,-6.1056,-6.1015,-6.0787,-6.0874,-6.0851,-6.0891,-6.0759,-6.0622,-6.0566,-6.0755,-6.0694,-6.0615,-6.0298,-6.0324,-6.0222,-6.0255,-6.0157,-6.0006,-5.9833,-5.9928,-5.9868,-5.9871,-5.9594,-5.9572,-5.9491,-5.9665,-5.9509,-5.9341,-5.9343,-5.9338,-5.9408,-5.9374,-5.9112,-5.9167,-5.9148,-5.9248,-5.914,-5.9085,-5.8872,-5.8907,-5.8979,-5.8964,-5.883,-5.8735,-5.8766,-5.8894,-5.8871,-5.8871,-5.8718,-5.8744,-5.8933,-5.8984,-5.8936,-5.8893,-5.9014,-5.9242,-5.9332,-5.9369,-5.9309,-5.9313,-5.9361,-5.9605,-5.9627,-5.9587,-5.9565,-5.9729,-5.9857,-5.9933,-5.9821,-5.989,-5.9943,-6.0065,-6.0025,-5.9924,-5.9976,-6.0087,-6.0204,-6.0254,-6.0146,-6.0035,-6.0115,-6.0255,-6.031,-6.0231,-6.0163,-6.0219,-6.0222,-6.0138,-5.9973,-5.9812,-5.9817,-5.984,-5.9777,-5.9631,-5.9305,-5.9143,-5.9287,-5.9335,-5.9245,-5.9052,-5.9023,-5.9102,-5.9264,-5.9338,-5.9285,-5.9474,-5.9923,-6.0263,-6.0366,-6.0259,-6.0323,-6.0369,-6.0573,-6.0542,-6.0447,-6.0425,-6.0563,-6.0676,-6.0685,-6.0573,-6.0512,-6.0565,-6.08,-6.1032,-6.1118,-6.0857,-5.9786,-5.7821,-5.4614,-5.152,-4.8714,-4.6794,-4.7098,-4.7859,-5.1004,-5.5788,-6.2154,-6.3732,-6.36,-6.3271,-6.2293,-6.1828,-6.1403,-6.1433,-6.1144,-6.1097,-6.0915,-6.1067,-6.1015,-6.1041,-6.0826,-6.0955,-6.0967,-6.1163,-6.107,-6.1031,-6.0961,-6.1144,-6.1154,-6.1182,-6.0975,-6.0905,-6.0831,-6.0934,-6.077,-6.0657,-6.0568,-6.064,-6.0743,-6.0795,-6.0627,-6.0606,-6.0611,-6.0848,-6.0813,-6.0662,-6.0627,-6.0658,-6.08,-6.0766,-6.064,-6.0443,-6.0459,-6.0561,-6.067,-6.0611,-6.0511,-6.0507,-6.0599,-6.068,-6.0595,-6.043,-6.043,-6.0504,-6.0597,-6.0459,-6.0332,-6.0352,-6.0569,-6.0618,-6.0567,-6.0352,-6.029,-6.0305,-6.0452,-6.0305,-6.0095,-5.9996,-5.998,-6.0093,-6.0015,-5.974,-5.9682,-5.9641,-5.9777,-5.9681,-5.9496,-5.9341,-5.9382,-5.9396,-5.9461,-5.9395,-5.9306,-5.9236,-5.9353,-5.9399,-5.9298,-5.9115,-5.908,-5.9088,-5.9103,-5.8959,-5.8846,-5.8818,-5.8891,-5.8886,-5.8768,-5.8625,-5.8656,-5.8646,-5.8757,-5.8733,-5.859,-5.8561,-5.8647,-5.8767,-5.8758,-5.8639,-5.8662,-5.8756,-5.896,-5.9008,-5.8963,-5.8973,-5.9026,-5.9238,-5.9341,-5.9304,-5.9335,-5.9451,-5.9533,-5.9638,-5.957,-5.9485,-5.9625,-5.9794,-5.9887,-5.9799,-5.9618,-5.9676,-5.9857,-5.9963,-5.9861,-5.9757,-5.9821,-5.9965,-6.0023,-5.9897,-5.9729,-5.9769,-5.9814,-6.0061,-6.0001,-5.9761,-5.9615,-5.9705,-5.971,-5.9654,-5.9411,-5.96,-5.9571,-5.9635,-5.9506,-5.909,-5.889,-5.8812,-5.8817,-5.861,-5.8492,-5.8372,-5.8496,-5.8696,-5.8741,-5.8625,-5.8555,-5.8581,-5.8562,-5.9133,-5.9603,-5.9605,-5.9604,-5.9649,-5.9621,-5.9598,-5.9569,-5.9637,-5.9674,-5.9496,-5.9403,-5.9352,-5.9444,-5.9548,-5.9584,-5.9964,-6.0142,-6.0414,-6.0053,-5.8885,-5.6336,-5.2845,-4.9666,-4.6509,-4.5001,-4.5398,-4.6141,-4.9554,-5.4953,-6.0819,-6.2228,-6.1698,-6.125,-6.0891,-6.0821,-6.0349,-6.0252,-6.0286,-6.0486,-6.0379,-6.0475,-6.0056,-6.006,-6.0381,-6.0804,-6.0295,-6.0234,-5.9946,-6.0228,-6.0292,-6.041,-6.0652,-6.0428,-6.0105,-6.0228,-6.0706,-6.0851,-6.0431,-6.0325,-6.0486,-6.0639,-6.0582,-6.0618,-6.0643,-6.0675,-6.0545,-6.016,-6.0093,-5.9829,-5.9854,-6.0196,-5.997,-5.9805,-5.9859,-6.0054,-5.9762,-5.9736,-5.9832,-5.9794,-6.0075,-6.019,-6.005,-5.9874,-5.9781,-5.9908,-6.0148,-6.0128,-5.9734,-5.9958,-6.0358,-6.032,-6.021,-5.9992,-5.9832,-5.9797,-5.9952,-6.0065,-6.0074,-5.9536,-5.9441,-5.9728,-5.9787,-5.9481,-5.9199,-5.9229,-5.9232,-5.9062,-5.8831,-5.9154,-5.9124,-5.8901,-5.8668,-5.8765,-5.921,-5.9137,-5.9033,-5.9153,-5.9102,-5.8914,-5.8942,-5.8756,-5.9089,-5.911,-5.8868,-5.8307,-5.8045,-5.8793,-5.9246,-5.8914,-5.877,-5.8873,-5.9047,-5.8838,-5.8727,-5.873,-5.8852,-5.8999,-5.8796,-5.8675,-5.8799,-5.8524,-5.8722,-5.9189,-5.9224,-5.8893,-5.9276,-5.9391,-5.9417,-5.9594,-5.9276,-5.9165,-5.9824,-6.0182,-5.9961,-6.0093,-6.0182,-6.0105,-6.0226,-6.0102,-6.0078,-6.0426,-6.026,-6.0201,-6.0341,-6.0263,-6.0208,-6.0378,-6.057,-6.0602,-6.0682,-6.0442,-6.0501,-6.0887,-6.0766,-6.0576,-6.0515,-6.0404,-6.0577,-6.0675,-6.0584,-6.055,-6.0422,-6.0225,-6.0281,-6.0163,-6.008,-5.9947,-5.9774,-5.9739,-5.9735,-5.9857,-5.955,-5.9486,-5.9192,-5.9382,-5.9448,-5.9071,-5.9389,-5.9891,-5.9834,-5.9772,-5.9904,-6.0092,-6.0582,-6.0863,-6.0564,-6.0502,-6.0657,-6.0762,-6.0815,-6.068,-6.0542,-6.1033,-6.1133,-6.1014,-6.1028,-6.0809,-6.0751,-6.1272,-6.1729,-6.1569,-6.0402,-5.8776,-5.6008,-5.3088,-4.9508,-4.682,-4.6564,-4.6858,-4.9342,-5.3374,-5.995,-6.3496,-6.3725,-6.3229,-6.2365,-6.2087,-6.1844,-6.1603,-6.1392,-6.1517,-6.1513,-6.1478,-6.1382,-6.1717,-6.1475,-6.1258,-6.1095,-6.1316,-6.1635,-6.1529,-6.1257,-6.1097,-6.1257,-6.1446,-6.1292,-6.1129,-6.0866,-6.1152,-6.1166,-6.1061,-6.1071,-6.0833,-6.0819,-6.097,-6.0996,-6.0956,-6.065,-6.0611,-6.0624,-6.062,-6.0576,-6.047,-6.0603,-6.0548,-6.0489,-6.0745,-6.055,-6.0418,-6.0501,-6.0847,-6.0666,-6.0218,-6.0611,-6.0922,-6.0749,-6.0603,-6.0507,-6.0637,-6.0444,-6.0288,-6.0299,-6.0271,-6.0185,-5.995,-6.0034,-5.9977,-5.9891,-5.9885,-6.0259,-6.014,-5.9877,-6.0001,-5.9771,-5.9801,-5.982,-5.9671,-5.9538,-5.9342,-5.9395,-5.9366,-5.9319,-5.9345,-5.9105,-5.9093,-5.92,-5.9076,-5.8927,-5.8768,-5.8909,-5.8967,-5.8777,-5.8753,-5.8813,-5.8583,-5.8541,-5.8747,-5.8855,-5.86,-5.8485,-5.8798,-5.9088,-5.8664,-5.8112,-5.8417,-5.8664,-5.8611,-5.8789,-5.8664,-5.834,-5.8414,-5.8627,-5.8525,-5.8583,-5.8706,-5.8755,-5.8641,-5.8567,-5.8439,-5.8712,-5.9231,-5.9269,-5.9211,-5.9267,-5.9097,-5.9002,-5.9391,-5.9658,-5.9538,-5.9269,-5.9249,-5.958,-5.9591,-5.9446,-5.9283,-5.9315,-5.9363,-5.943,-5.9063,-5.8913,-5.9297,-5.9161,-5.8995,-5.8568,-5.8389,-5.8622,-5.87,-5.8729,-5.8602,-5.865,-5.8515,-5.8667,-5.8946,-5.9511,-5.9763,-5.9577,-5.956,-5.9859,-6.0277,-6.0214,-6.006,-6.0152,-6.0277,-6.0233,-6.0142,-6.0134,-6.0126,-5.9937,-5.989,-6.0026,-6.0257,-6.0432,-6.0412,-6.0552,-6.0111,-5.8339,-5.5099,-5.2193,-4.9254,-4.6725,-4.5491,-4.5841,-4.8652,-5.2752,-5.9405,-6.2648,-6.2547,-6.2518,-6.2208,-6.1647,-6.117,-6.0854,-6.0729,-6.094,-6.077,-6.066,-6.0453,-6.0571,-6.0672,-6.0782,-6.0779,-6.0667,-6.066,-6.0892,-6.0837,-6.0646,-6.028,-6.0669,-6.0876,-6.1008,-6.0806,-6.0658,-6.0637,-6.0663,-6.0664,-6.0634,-6.0682,-6.0783,-6.0774,-6.0909,-6.0747,-6.043,-6.0497,-6.0656,-6.0805,-6.0781,-6.0617,-6.0599,-6.0724,-6.0769,-6.0709,-6.0563,-6.0547,-6.0542,-6.0744,-6.0778,-6.063,-6.0624,-6.0475,-6.0461,-6.0423,-6.0189,-6.0146,-6.006,-6.0243,-6.0189,-6.0156,-6.0178,-6.0113,-6.0095,-6.0199,-6.0178,-6.0073,-6.0172,-6.0282,-6.0235,-6.0254,-6.0222,-6.0422,-6.0501,-6.0487,-6.0405,-6.0262,-6.0384,-6.0634,-6.0673,-6.0661,-6.0302,-6.0333,-6.0358,-6.0349,-6.0174,-5.9952,-5.976,-5.9656,-5.9521,-5.9233,-5.8977,-5.8678,-5.8518,-5.8376,-5.8209,-5.8038,-5.798,-5.7786,-5.7737,-5.7606,-5.7468,-5.7532,-5.763,-5.7701,-5.7661,-5.7577,-5.7467,-5.7581,-5.7542,-5.7626,-5.7617,-5.7439,-5.7493,-5.7565,-5.7672,-5.7608,-5.7451,-5.7553,-5.7703,-5.7714,-5.7817,-5.7817,-5.779,-5.7778,-5.7779,-5.7796,-5.7695,-5.7645,-5.7862,-5.7953,-5.7864,-5.7693,-5.753,-5.7738,-5.7894,-5.7899,-5.7717,-5.7566,-5.7395,-5.7581,-5.7735,-5.7781,-5.8166,-5.8329,-5.8517,-5.8637,-5.819,-5.7966,-5.7973,-5.7571,-5.7527,-5.7716,-5.7811,-5.7913,-5.7985,-5.8169,-5.8151,-5.7966,-5.7796,-5.7781,-5.7811,-5.767,-5.762,-5.7757,-5.7975,-5.8149,-5.8408,-5.8698,-5.8887,-5.9371,-5.9958,-6.0379,-5.9481,-5.784,-5.5351,-5.2889,-5.0138,-4.8153,-4.8549,-4.9338,-5.1985,-5.6235,-6.2402,-6.539,-6.5557,-6.5497,-6.4867,-6.4658,-6.4443,-6.4344,-6.4223,-6.4291,-6.4008,-6.3921,-6.3957,-6.4006,-6.3818,-6.3588,-6.321,-6.3137,-6.3104,-6.3014,-6.2884,-6.2944,-6.299,-6.3187,-6.3238,-6.3294,-6.3302,-6.3493,-6.369,-6.3841,-6.3871,-6.3799,-6.3712,-6.3633,-6.3677,-6.3411,-6.3273,-6.3247,-6.317,-6.3026,-6.2802,-6.2514,-6.2406,-6.2405,-6.2441,-6.2242,-6.2101,-6.1801,-6.1729,-6.1732,-6.162,-6.1442,-6.1282,-6.1323,-6.1281,-6.1169,-6.1291,-6.1281,-6.1124,-6.1041,-6.1198,-6.1259,-6.1298,-6.1301,-6.1342,-6.1246,-6.1304,-6.1352,-6.1152,-6.104,-6.1043,-6.1156,-6.1069,-6.0757,-6.0569,-6.0612,-6.0464,-6.0398,-6.0282,-6.0278,-6.0237,-5.9947,-5.9684,-5.9664,-5.987,-6.0123,-6.0146,-6.0131,-6.02,-6.0412,-6.063,-6.08,-6.0939,-6.1017,-6.1219,-6.1266,-6.1504,-6.1547,-6.1518,-6.1603,-6.1661,-6.1734,-6.1699,-6.1666,-6.1672,-6.1645,-6.1657,-6.1488,-6.1326,-6.1285,-6.1175,-6.114,-6.1044,-6.0738,-6.0787,-6.0834,-6.0925,-6.0967,-6.0887,-6.0926,-6.1047,-6.1026,-6.102,-6.0893,-6.078,-6.0651,-6.0658,-6.05,-6.0623,-6.0451,-6.0312,-6.0276,-6.0284,-6.0189,-6.0214,-6.011,-6.0057,-6.0078,-6.0138,-6.0248,-6.0262,-6.0449,-6.0455,-6.0476,-6.0392,-6.0444,-6.035,-6.0344,-6.0345,-6.0237,-6.0161,-6.0118,-6.0074,-5.996,-5.9843,-5.9906,-5.9916,-6.0089,-6.0014,-6.0025,-6.0167,-6.0324,-6.0487,-6.0829,-6.0866,-6.0896,-6.1095,-6.129,-6.1236,-6.0973,-6.1143,-6.1335,-6.1316,-6.1173,-6.1017,-6.1065,-6.0902,-6.0851,-6.083,-6.0729,-6.0697,-6.0833,-6.0852,-6.0069,-5.9354,-5.7445,-5.439,-5.182,-4.9146,-4.7457,-4.759,-4.8481,-5.1048,-5.5274,-6.0913,-6.3365,-6.3084,-6.245,-6.1508,-6.1186,-6.0778,-6.0796,-6.0629,-6.0619,-6.037,-6.0392,-6.0313,-6.0414,-6.0449,-6.0368,-6.0075,-6.0098,-6.0128,-6.0328,-6.0286,-6.0234,-6.029,-6.045,-6.0435,-6.0489,-6.0311,-6.0465,-6.0418,-6.0324,-6.0181,-6.0169,-6.0044,-6.0224,-6.0358,-6.0383,-6.0109,-5.985,-5.9945,-6.0065,-6.0171,-6.0161,-6.0091,-6.011,-6.0224,-6.0293,-6.0271,-6.0073,-6.0025,-5.994,-5.9969,-6.0012,-5.9933,-5.9809,-5.9787,-5.9906,-5.9873,-5.9639,-5.9556,-5.951,-5.9694,-5.9629,-5.94,-5.9232,-5.938,-5.9445,-5.9456,-5.9168,-5.9055,-5.9055,-5.9208,-5.9127,-5.903,-5.8752,-5.8699,-5.8613,-5.8642,-5.8585,-5.8422,-5.8308,-5.8353,-5.8354,-5.8342,-5.8246,-5.8155,-5.8113,-5.8073,-5.8121,-5.8098,-5.8005,-5.802,-5.8052,-5.8113,-5.806,-5.801,-5.7843,-5.7836,-5.7739,-5.7688,-5.7617,-5.7746,-5.7829,-5.7685,-5.7565,-5.7588,-5.7653,-5.7754,-5.7619,-5.7618,-5.7718,-5.78,-5.7825,-5.7795,-5.7789,-5.7849,-5.7891,-5.8115,-5.83,-5.832,-5.8249,-5.8254,-5.8483,-5.8681,-5.8607,-5.852,-5.8612,-5.8748,-5.8784,-5.8829,-5.8877,-5.8915,-5.8871,-5.8884,-5.8883,-5.9033,-5.9114,-5.9037,-5.9022,-5.9028,-5.9042,-5.9149,-5.9219,-5.9218,-5.9052,-5.8943,-5.8967,-5.9043,-5.9208,-5.9174,-5.9101,-5.9071,-5.913,-5.9155,-5.9169,-5.9015,-5.9023,-5.9019,-5.9161,-5.9171,-5.9053,-5.8932,-5.8984,-5.9185,-5.9166,-5.8974,-5.8847,-5.8915,-5.9036,-5.8998,-5.9031,-5.8973,-5.8988,-5.9138,-5.9221,-5.9144,-5.9051,-5.8988,-5.9007,-5.906,-5.9056,-5.882,-5.8699,-5.8516,-5.8614,-5.8552,-5.8442,-5.8354,-5.8308,-5.8258,-5.8308,-5.802,-5.8094,-5.8131,-5.815,-5.8135,-5.8081,-5.807,-5.8256,-5.8622,-5.8873,-5.898,-5.9027,-5.9182,-5.9314,-5.9357,-5.9307,-5.9291,-5.9253,-5.9426,-5.9456,-5.9365,-5.9257,-5.9362,-5.9419,-5.9622,-5.9642,-5.9592,-5.8706,-5.7115,-5.4536,-5.1753,-4.9177,-4.7135,-4.6579,-4.7022,-4.8702,-5.2333,-5.7755,-6.1943,-6.2689,-6.1939,-6.1233,-6.0712,-6.0358,-6.0209,-6.023,-6.0011,-6.0013,-6.0016,-6.0183,-6.0115,-5.9979,-5.994,-5.9992,-6.0071,-6.0106,-5.9974,-6.0062,-6.0036,-6.0111,-6.0047,-5.9962,-5.9881,-5.9895,-5.9871,-6.0081,-6.0183,-6.0001,-5.9934,-5.9876,-5.9973,-5.9933,-5.9827,-5.9817,-5.9971,-6.008,-6.0135,-6.0059,-5.9944,-5.9953,-6.0061,-6.0072,-6.0067,-6.0051,-5.9962,-6.0019,-6.0149,-5.9997,-5.9989,-6.0007,-6.0019,-6.0015,-6.0042,-5.9994,-5.9966,-5.9958,-5.9939,-5.9854,-5.9808,-5.9785,-5.9846,-5.9958,-5.9798,-5.9759,-5.9697,-5.9645,-5.9694,-5.9589,-5.9416,-5.9367,-5.9339,-5.9394,-5.9323,-5.9022,-5.8958,-5.8902,-5.893,-5.8784,-5.8615,-5.855,-5.849,-5.8536,-5.8383,-5.8186,-5.8226,-5.8302,-5.8381,-5.8243,-5.7955,-5.7856,-5.7887,-5.7867,-5.7778,-5.7606,-5.7513,-5.7571,-5.7664,-5.7528,-5.724,-5.7201,-5.7273,-5.7413,-5.7394,-5.7165,-5.7203,-5.7167,-5.7379,-5.7435,-5.7272,-5.7122,-5.7134,-5.7163,-5.7264,-5.7306,-5.7164,-5.7388,-5.7557,-5.7669,-5.7737,-5.7728,-5.7794,-5.7932,-5.8017,-5.8059,-5.8041,-5.8077,-5.8148,-5.8339,-5.8443,-5.84,-5.8396,-5.8424,-5.8627,-5.8681,-5.8684,-5.8634,-5.8733,-5.8814,-5.8866,-5.8814,-5.873,-5.8803,-5.8868,-5.8893,-5.8813,-5.8727,-5.8796,-5.894,-5.902,-5.8932,-5.8964,-5.8944,-5.8995,-5.9001,-5.8982,-5.8902,-5.8889,-5.8916,-5.8883,-5.8787,-5.8629,-5.8613,-5.8617,-5.8608,-5.8356,-5.8187,-5.8236,-5.8298,-5.8389,-5.8305,-5.8279,-5.8352,-5.8449,-5.8754,-5.8907,-5.907,-5.9218,-5.9413,-5.9644,-5.9693,-5.9801,-5.9803,-5.9865,-6.0004,-6.0084,-5.995,-5.9887,-5.9952,-6.0088,-6.0251,-6.0375,-6.0499,-6.1003,-6.1761,-6.1659,-6.0356,-5.8236,-5.5237,-5.2698,-5.0127,-4.8054,-4.7882,-4.8536,-5.1363,-5.5723,-6.187,-6.3562,-6.351,-6.3295,-6.2512,-6.198,-6.1403,-6.1164,-6.0909,-6.099,-6.0739,-6.0779,-6.0654,-6.0649,-6.0609,-6.0686,-6.0438,-6.0579,-6.0606,-6.0885,-6.0767,-6.0716,-6.0644,-6.081,-6.081,-6.084,-6.0694,-6.0737,-6.0672,-6.0812,-6.0827,-6.0709,-6.0588,-6.069,-6.0791,-6.0913,-6.0784,-6.0677,-6.0683,-6.0846,-6.0786,-6.0737,-6.0638,-6.0537,-6.0477,-6.0575,-6.0529,-6.0351,-6.0367,-6.0316,-6.0375,-6.0338,-6.0258,-6.0221,-6.0238,-6.0438,-6.0421,-6.034,-6.0407,-6.0442,-6.0532,-6.0471,-6.0436,-6.0308,-6.0358,-6.0344,-6.0232,-6.0201,-6.0088,-6.0036,-6.0035,-5.9925,-5.9838,-5.9739,-5.9712,-5.9785,-5.9816,-5.9831,-5.9839,-5.9917,-5.9727,-5.946,-5.9421,-5.9245,-5.9175,-5.9051,-5.9103,-5.8837,-5.871,-5.8642,-5.8734,-5.876,-5.8673,-5.8434,-5.8257,-5.8031,-5.7975,-5.7736,-5.747,-5.7263,-5.7228,-5.7133,-5.6964,-5.6863,-5.6931,-5.6759,-5.6761,-5.6658,-5.6589,-5.6396,-5.6473,-5.6507,-5.6566,-5.6524,-5.6564,-5.6692,-5.6767,-5.6799,-5.6799,-5.6866,-5.7053,-5.7288,-5.7314,-5.7337,-5.7313,-5.7433,-5.7534,-5.7718,-5.777,-5.7665,-5.785,-5.7921,-5.7954,-5.8023,-5.7998,-5.8001,-5.8054,-5.8176,-5.8277,-5.8151,-5.8208,-5.8387,-5.8495,-5.8488,-5.8424,-5.8358,-5.845,-5.8528,-5.8527,-5.8394,-5.8212,-5.8116,-5.8154,-5.8117,-5.8092,-5.7908,-5.7754,-5.7817,-5.7668,-5.7596,-5.7498,-5.7559,-5.7612,-5.7538,-5.7414,-5.7426,-5.7597,-5.7909,-5.8029,-5.8126,-5.8133,-5.8407,-5.8531,-5.8648,-5.8579,-5.8425,-5.8473,-5.8698,-5.8667,-5.8553,-5.84,-5.8446,-5.8492,-5.8546,-5.8529,-5.8566,-5.8617,-5.8895,-5.9115,-5.8374,-5.6728,-5.406,-5.1313,-4.824,-4.598,-4.5454,-4.5323,-4.6876,-5.0501,-5.595,-6.0594,-6.1142,-6.0504,-6.0128,-5.9816,-5.9423,-5.9028,-5.9146,-5.8943,-5.9172,-5.9173,-5.9007,-5.8841,-5.8935,-5.8988,-5.9011,-5.8965,-5.9021,-5.9118,-5.9213,-5.9181,-5.9102,-5.9078,-5.9283,-5.9337,-5.9293,-5.9175,-5.9065,-5.9059,-5.9158,-5.9049,-5.8932,-5.8764,-5.8769,-5.9017,-5.9029,-5.9024,-5.886,-5.8826,-5.9012,-5.9067,-5.9156,-5.9084,-5.9129,-5.9255,-5.9252,-5.9239,-5.8963,-5.8989,-5.9168,-5.9346,-5.9128,-5.8892,-5.8867,-5.8798,-5.8853,-5.8749,-5.8687,-5.8708,-5.8674,-5.8679,-5.8627,-5.8423,-5.8368,-5.8357,-5.8304,-5.8218,-5.8141,-5.7969,-5.7969,-5.8077,-5.7933,-5.7825,-5.7612,-5.7643,-5.7694,-5.7603,-5.7479,-5.7415,-5.7353,-5.7518,-5.7421,-5.7196,-5.7244,-5.7205,-5.7173,-5.7283,-5.7186,-5.709,-5.7064,-5.7121,-5.7072,-5.714,-5.7104,-5.7025,-5.7035,-5.7051,-5.6953,-5.6861,-5.6947,-5.7017,-5.7098,-5.6903,-5.6837,-5.6828,-5.6946,-5.7065,-5.6998,-5.7018,-5.7041,-5.7139,-5.7253,-5.729,-5.7213,-5.7306,-5.7362,-5.7483,-5.7425,-5.7444,-5.746,-5.7569,-5.7722,-5.7821,-5.7786,-5.7792,-5.7716,-5.7705,-5.7865,-5.7943,-5.7919,-5.7998,-5.8124,-5.8281,-5.8286,-5.8227,-5.8342,-5.8478,-5.857,-5.8553,-5.8488,-5.8633,-5.874,-5.8812,-5.872,-5.8647,-5.8715,-5.8769,-5.8911,-5.898,-5.8844,-5.8911,-5.8877,-5.9073,-5.9114,-5.9011,-5.8886,-5.8689,-5.8651,-5.8593,-5.8509,-5.8413,-5.8305,-5.8337,-5.8091,-5.7854,-5.779,-5.7726,-5.7728,-5.7736,-5.7744,-5.7624,-5.7736,-5.793,-5.8138,-5.8199,-5.8412,-5.8669,-5.8854,-5.9027,-5.8946,-5.8955,-5.9053,-5.9133,-5.923,-5.9152,-5.9142,-5.9159,-5.9208,-5.923,-5.9314,-5.9323,-5.9521,-5.9766,-5.9905,-5.8985,-5.7285,-5.4479,-5.1597,-4.8832,-4.6957,-4.6662,-4.6614,-4.8564,-5.242,-5.7964,-6.168,-6.1806,-6.1497,-6.0805,-6.0457,-6.0066,-5.9788,-5.9781,-5.9758,-5.9732,-5.9627,-5.9491,-5.9545,-5.9643,-5.971,-5.975,-5.9539,-5.9613,-5.97,-5.9754,-5.9651,-5.9611,-5.9669,-5.9696,-5.981,-5.9754,-5.9688,-5.9661,-5.9744,-5.9848,-5.9878,-5.9776,-5.9759,-5.9778,-5.9822,-5.9753,-5.968,-5.9645,-5.9695,-5.983,-5.9811,-5.9648,-5.9609,-5.9588,-5.9587,-5.9525,-5.9372,-5.929,-5.9293,-5.9307,-5.9164,-5.9039,-5.9024,-5.9053,-5.9086,-5.9141,-5.9044,-5.8908,-5.8936,-5.8971,-5.8986,-5.8939,-5.886,-5.8896,-5.8874,-5.8933,-5.8906,-5.8803,-5.8682,-5.8533,-5.8534,-5.8412,-5.8358,-5.8317,-5.8185,-5.8081,-5.7949,-5.8028,-5.7975,-5.7944,-5.7941,-5.7811,-5.7612,-5.7544,-5.7544,-5.7671,-5.7625,-5.754,-5.7439,-5.7345,-5.7333,-5.7421,-5.7276,-5.7179,-5.7189,-5.7265,-5.7245,-5.7134,-5.7097,-5.7112,-5.7146,-5.7113,-5.7086,-5.701,-5.6985,-5.7033,-5.7138,-5.7096,-5.6984,-5.7016,-5.7181,-5.7274,-5.7255,-5.7172,-5.7289,-5.7408,-5.7555,-5.7645,-5.7664,-5.7701,-5.7804,-5.7951,-5.8021,-5.7999,-5.8022,-5.8028,-5.8092,-5.8137,-5.8133,-5.8093,-5.8168,-5.8372,-5.843,-5.8448,-5.8391,-5.8493,-5.8601,-5.8641,-5.8658,-5.8593,-5.8638,-5.8734,-5.8883,-5.8827,-5.8811,-5.8788,-5.8916,-5.9021,-5.906,-5.9003,-5.9047,-5.9224,-5.924,-5.9194,-5.9137,-5.9071,-5.9135,-5.9204,-5.9134,-5.9063,-5.9045,-5.903,-5.9103,-5.9114,-5.8994,-5.8903,-5.8942,-5.9048,-5.9032,-5.9006,-5.8775,-5.8813,-5.8818,-5.8836,-5.8944,-5.8952,-5.881,-5.8741,-5.8593,-5.8469,-5.8509,-5.8615,-5.8549,-5.8477,-5.839,-5.816,-5.8032,-5.8033,-5.7941,-5.7963,-5.7866,-5.78,-5.7806,-5.7954,-5.8064,-5.8221,-5.8366,-5.869,-5.8922,-5.8896,-5.892,-5.8894,-5.8974,-5.9084,-5.9102,-5.8988,-5.8933,-5.8937,-5.9188,-5.9184,-5.9071,-5.9024,-5.9353,-5.9588,-5.9558,-5.8407,-5.6531,-5.3652,-5.0992,-4.8149,-4.6276,-4.6551,-4.6935,-4.9548,-5.3642,-5.6378,-6.1218,-6.2238,-6.1457,-6.1052,-6.0345,-6.008,-5.9677,-5.981,-5.9722,-5.984,-5.9595,-5.9715,-5.96,-5.9759,-5.962,-5.9684,-5.9594,-5.9853,-5.9869,-5.9939,-5.9741,-5.9757,-5.9726,-5.9793,-5.9666,-5.9671,-5.9577,-5.9652,-5.9682,-5.9712,-5.9564,-5.9607,-5.9604,-5.9688,-5.9604,-5.9538,-5.9505,-5.9578,-5.9556,-5.9552,-5.9451,-5.9495,-5.9523,-5.9521,-5.9459,-5.9411,-5.9267,-5.9291,-5.9361,-5.9456,-5.9386,-5.9255,-5.9193,-5.9186,-5.9228,-5.9179,-5.91,-5.9153,-5.9105,-5.9028,-5.8959,-5.8786,-5.8705,-5.8705,-5.8842,-5.882,-5.8611,-5.8431,-5.8451,-5.8545,-5.8544,-5.8387,-5.8217,-5.8159,-5.8222,-5.8116,-5.8007,-5.7724,-5.7674,-5.7691,-5.7651,-5.7533,-5.7361,-5.7327,-5.7361,-5.7322,-5.7324,-5.72,-5.7291,-5.7257,-5.7261,-5.7203,-5.7035,-5.7001,-5.7034,-5.7002,-5.6971,-5.681,-5.6836,-5.6959,-5.7055,-5.6974,-5.6864,-5.6698,-5.6794,-5.6955,-5.7027,-5.686,-5.6811,-5.687,-5.7027,-5.6987,-5.7048,-5.7055,-5.7192,-5.7219,-5.7203,-5.7165,-5.7262,-5.7292,-5.7458,-5.7464,-5.75,-5.7461,-5.7504,-5.7575,-5.7649,-5.776,-5.7665,-5.7665,-5.7805,-5.783,-5.778,-5.7669,-5.7723,-5.7827,-5.7963,-5.7991,-5.7898,-5.7896,-5.7966,-5.808,-5.8057,-5.7974,-5.786,-5.7894,-5.8036,-5.7944,-5.7896,-5.79,-5.7972,-5.8102,-5.8109,-5.8055,-5.7993,-5.8038,-5.8145,-5.808,-5.7966,-5.7991,-5.8048,-5.8109,-5.8061,-5.804,-5.7974,-5.8004,-5.8035,-5.8048,-5.8037,-5.7933
