3.8977,3.9059,3.8881,3.8857,3.8735,3.8655,3.8647,3.8653,3.88,3.8762,3.8899,3.8784,3.8955,3.8876,3.8743,3.8796,3.9077,3.8945,3.8677,3.8853,3.8892,3.8851,3.8783,3.9043,3.8688,3.8672,3.8693,3.8719,3.8621,3.8766,3.8732,3.8625,3.8693,3.8621,3.8721,3.8734,3.8643,3.8692,3.8851,3.8962,3.8981,3.9179,3.9145,3.9119,3.9187,3.9448,3.9426,3.9411,3.946,3.9577,3.965,3.9702,3.9721,3.9512,3.9422,3.9122,3.8883,3.862,3.86,3.8564,3.8717,3.8512,3.83,3.8394,3.8456,3.8511,3.8332,3.8274,3.8313,3.8601,3.8485,3.8451,3.8408,3.8265,3.7989,3.7164,3.706,3.7548,3.9664,4.267,4.6505,5.045,5.3222,5.3388,5.123,4.7113,4.3118,4.1775,4.0228,3.9454,3.9031,3.8976,3.8818,3.8608,3.8439,3.8712,3.8467,3.8294,3.8367,3.8324,3.8403,3.8499,3.8587,3.8319,3.8563,3.8617,3.8475,3.8437,3.8575,3.8471,3.8462,3.8663,3.871,3.8739,3.8766,3.8738,3.8612,3.882,3.8771,3.8895,3.8834,3.9044,3.9112,3.9043,3.9206,3.9229,3.9561,3.9542,3.9529,3.9661,3.9721,3.9834,4.0164,4.0394,4.0452,4.0671,4.0757,4.0955,4.0943,4.085,4.1105,4.1251,4.1236,4.1316,4.1418,4.11,4.1169,4.0837,4.0703,4.07,4.0615,4.0323,4.0074,3.9897,3.9625,3.9582,3.9382,3.9372,3.9302,3.9192,3.911,3.9128,3.8974,3.8808,3.8986,3.8897,3.9016,3.8965,3.894,3.8913,3.8889,3.8822,3.891,3.8856,3.8934,3.893,3.8826,3.8955,3.906,3.8988,3.8895,3.903,3.9021,3.9021,3.8998,3.892,3.8955,3.9026,3.8911,3.8949,3.8909,3.9221,3.8887,3.8998,3.9037,3.8827,3.9023,3.8959,3.8886,3.8586,3.8791,3.8906,3.8996,3.9105,3.8974,3.8612,3.8834,3.8906,3.8817,3.8869,3.8913,3.8705,3.8804,3.8837,3.8794,3.889,3.8745,3.8794,3.8918,3.8757,3.8757,3.8929,3.8926,3.8945,3.9009,3.9214,3.9247,3.9175,3.9197,3.9153,3.9226,3.9267,3.9489,3.9824,3.9828,3.9752,3.9789,3.9744,3.9741,3.9509,3.9305,3.8837,3.8489,3.8596,3.8702,3.881,3.8507,3.8668,3.8782,3.87,3.8594,3.8539,3.8541,3.8606,3.8558,3.8361,3.8634,3.8474,3.8304,3.776,3.7287,3.7311,3.7922,4.0405,4.39,4.7629,5.0869,5.3166,5.3197,5.1824,4.7866,4.3689,4.1239,4.025,3.9603,3.9158,3.9122,3.8829,3.8592,3.8565,3.8717,3.8545,3.8527,3.8398,3.8381,3.8651,3.8613,3.8436,3.8581,3.877,3.8626,3.8703,3.8731,3.8646,3.9109,3.8757,3.8671,3.8695,3.8929,3.8985,3.8786,3.8891,3.8916,3.9115,3.9129,3.9064,3.9113,3.9168,3.9201,3.9214,3.9293,3.9399,3.9569,3.9634,3.9778,3.9974,4.0168,4.0351,4.0332,4.0644,4.0853,4.0828,4.0774,4.105,4.1147,4.1125,4.1366,4.1429,4.1542,4.1437,4.1371,4.1234,4.1236,4.1023,4.0944,4.0909,4.0478,4.0209,4.0258,3.9612,3.947,3.9564,3.9414,3.9316,3.9325,3.9127,3.9016,3.8896,3.8801,3.8852,3.8661,3.8896,3.8735,3.902,3.9024,3.9089,3.8848,3.8812,3.8868,3.894,3.8962,3.8904,3.8976,3.9139,3.915,3.8956,3.8934,3.9054,3.908,3.8997,3.8773,3.8908,3.912,3.8819,3.8864,3.899,3.8998,3.9109,3.9052,3.9005,3.8993,3.887,3.9056,3.8922,3.8864,3.8797,3.9089,3.9092,3.9075,3.9101,3.9116,3.9489,3.9502,3.9059,3.9254,3.9429,3.96,3.9816,4.0056,3.9912,3.984,3.99,3.983,3.95,3.9122,3.919,3.9066,3.9009,3.873,3.8752,3.8765,3.8495,3.8758,3.8735,3.8496,3.8495,3.8508,3.8435,3.8767,3.8715,3.8526,3.863,3.854,3.8558,3.7731,3.7226,3.7367,3.8633,4.1037,4.2778,4.6493,5.0379,5.3104,5.3378,5.1393,4.6732,4.2718,4.1057,3.9883,3.9634,3.9177,3.9262,3.8795,3.8908,3.8685,3.8762,3.8638,3.8548,3.8536,3.8602,3.87,3.8935,3.8806,3.8691,3.8634,3.8595,3.8577,3.8725,3.8738,3.8877,3.8867,3.8942,3.8685,3.8989,3.9079,3.9013,3.8922,3.9094,3.916,3.9256,3.9379,3.934,3.9226,3.9237,3.94,3.9634,3.9593,3.9853,4.0132,4.0179,4.0025,4.0049,4.03,4.0416,4.0746,4.0802,4.0973,4.1395,4.118,4.1153,4.1361,4.1489,4.1499,4.1525,4.1295,4.1427,4.133,4.1183,4.1055,4.0614,4.0666,4.0223,4.0223,3.9657,3.9791,3.9502,3.9393,3.9198,3.9225,3.9124,3.9113,3.9245,3.9178,3.9143,3.9037,3.8888,3.8957,3.9172,3.9365,3.9068,3.894,3.9046,3.8978,3.8898,3.8939,3.9168,3.9234,3.9124,3.8971,3.8857,3.9141,3.9125,3.9177,3.9147,3.9208,3.9265,3.913,3.9022,3.898,3.8918,3.9195,3.9047,3.9198,3.918,3.9172,3.9168,3.9181,3.9129,3.914,3.9061,3.9034,3.9176,3.9151,3.9152,3.9192,3.912,3.9183,3.9261,3.9486,3.9581,3.9394,3.9537,3.9601,3.9691,4.0115,4.0116,4.0239,4.038,4.0127,4.0165,3.9993,3.9647,3.9369,3.9142,3.8984,3.8914,3.899,3.8729,3.8758,3.8627,3.8856,3.8681,3.8743,3.8874,3.8676,3.8995,3.8801,3.8955,3.8716,3.8809,3.8659,3.7942,3.7446,3.7643,3.8915,4.1292,4.4958,4.8989,5.2415,5.3999,5.3088,4.9956,4.5296,4.2008,4.0524,3.9809,3.948,3.9257,3.9239,3.922,3.916,3.903,3.8784,3.8751,3.8666,3.8872,3.8761,3.8782,3.8575,3.8907,3.8776,3.9029,3.8878,3.899,3.8821,3.8743,3.8909,3.8963,3.9008,3.9046,3.9063,3.9279,3.9128,3.9164,3.894,3.9156,3.9255,3.9184,3.9459,3.9416,3.9531,3.9654,3.9702,3.9848,3.9916,3.9891,4.0168,4.0231,4.0616,4.0522,4.0485,4.0962,4.1024,4.093,4.0944,4.1199,4.1455,4.1657,4.1734,4.1686,4.1472,4.1381,4.1438,4.1339,4.1267,4.1102,4.0796,4.0439,4.0322,3.9965,3.9904,3.9732,3.9878,3.9407,3.9319,3.9325,3.946,3.948,3.914,3.8986,3.9231,3.9073,3.9261,3.9295,3.9309,3.9252,3.9144,3.9147,3.9164,3.924,3.9203,3.9141,3.9118,3.9435,3.9223,3.9144,3.9289,3.9338,3.9293,3.9197,3.9125,3.9135,3.9196,3.9238,3.931,3.9315,3.9131,3.9006,3.9308,3.934,3.9261,3.9236,3.9264,3.9237,3.9298,3.9325,3.9233,3.914,3.9143,3.9005,3.9008,3.9134,3.906,3.9116,3.9184,3.9284,3.9187,3.9176,3.9065,3.8908,3.8948,3.9423,3.93,3.9357,3.9667,3.942,3.9626,3.9794,3.992,3.9755,3.9896,4.0114,3.9984,4.0087,4.0118,4.0176,3.9941,3.9636,3.9544,3.9471,3.9274,3.8833,3.8874,3.9038,3.9054,3.9102,3.8939,3.874,3.8873,3.8869,3.8704,3.893,3.8919,3.9141,3.8871,3.8648,3.862,3.8244,3.7445,3.7652,3.7777,3.9436,4.2238,4.5788,4.9807,5.2761,5.4081,5.2774,4.9099,4.4377,4.1567,4.063,3.9969,3.9314,3.9297,3.9186,3.9287,3.9247,3.8982,3.8854,3.8823,3.8784,3.8989,3.9104,3.9155,3.8977,3.8973,3.8972,3.9103,3.9073,3.9076,3.8958,3.8983,3.8976,3.8979,3.9022,3.9005,3.9195,3.9145,3.9304,3.9283,3.9242,3.9432,3.9454,3.9462,3.9514,3.9866,3.965,3.9707,3.9758,3.9913,4.0147,4.008,4.0296,4.0579,4.0508,4.0546,4.0803,4.0837,4.0909,4.1434,4.156,4.1441,4.1538,4.1456,4.1669,4.1771,4.1825,4.1878,4.1828,4.1664,4.1413,4.1033,4.0736,4.0652,4.0602,4.0378,4.0103,3.9828,3.9722,3.9679,3.9555,3.945,3.9435,3.9215,3.936,3.9448,3.9321,3.9197,3.9363,3.9334,3.9358,3.9342,3.9242,3.9257,3.936,3.9227,3.9328,3.9475,3.9261,3.9332,3.9326,3.9354,3.9433,3.9141,3.9349,3.9303,3.9505,3.9373,3.9178,3.9146,3.9244,3.9354,3.9352,3.9245,3.9088,3.9415,3.9197,3.9438,3.928,3.9462,3.9377,3.9332,3.916,3.9139,3.9155,3.9087,3.8986,3.9181,3.9132,3.9379,3.9159,3.9131,3.9088,3.8965,3.9015,3.9106,3.9196,3.9073,3.9299,3.9319,3.932,3.9458,3.9539,3.939,3.9687,3.9627,3.9753,3.9831,3.9953,4.0117,4.0149,4.0127,4.0242,4.0135,3.9922,3.9626,3.9542,3.9169,3.91,3.9273,3.9223,3.8776,3.8821,3.8891,3.8729,3.9036,3.8847,3.8838,3.9079,3.8838,3.8792,3.8775,3.8712,3.8783,3.8645,3.8322,3.738,3.7557,3.8172,4.0159,4.1487,4.4613,4.8647,5.1643,5.3454,5.2481,4.9467,4.4401,4.1635,4.0743,4.0103,3.9464,3.946,3.9311,3.9151,3.8747,3.8885,3.8756,3.8871,3.8812,3.8825,3.8808,3.8939,3.876,3.898,3.8954,3.8846,3.8718,3.8747,3.8963,3.9025,3.8947,3.8965,3.8942,3.9065,3.9235,3.9193,3.9278,3.9245,3.9453,3.9445,3.9655,3.9293,3.9155,3.9464,3.9262,3.9575,3.9623,3.9811,4.0002,4.0204,4.0174,4.0197,4.0278,4.0484,4.0811,4.0937,4.103,4.1181,4.1451,4.145,4.1458,4.1611,4.1655,4.1629,4.1577,4.1361,4.1597,4.1524,4.1428,4.0888,4.0789,4.0621,4.0396,4.0196,4.0131,3.9872,3.9736,3.9642,3.9455,3.93,3.9239,3.9247,3.9428,3.9321,3.9093,3.9102,3.9294,3.9359,3.9307,3.9094,3.9183,3.9042,3.8958,3.9024,3.9081,3.923,3.9392,3.9417,3.9252,3.9456,3.9385,3.9275,3.9263,3.9338,3.9253,3.9363,3.9478,3.9251,3.9291,3.9425,3.9384,3.9609,3.9584,3.9205,3.9277,3.9214,3.9349,3.9296,3.9335,3.9207,3.9364,3.9087,3.9201,3.9206,3.9215,3.9105,3.9077,3.9149,3.9194,3.9403,3.9351,3.9446,3.9682,3.9811,3.9795,3.9733,3.9641,3.984,3.9951,4.0254,4.0419,4.0394,4.0251,3.9905,3.993,3.9655,3.9432,3.9236,3.9256,3.8875,3.8949,3.9015,3.8997,3.9029,3.8919,3.8898,3.9098,3.9107,3.899,3.8785,3.8866,3.9019,3.8862,3.8874,3.893,3.8392,3.751,3.7521,3.8047,4.0166,4.3403,4.709,5.0677,5.3545,5.3905,5.1904,4.7427,4.3416,4.1327,4.0406,4.0123,3.968,3.9517,3.9629,3.933,3.9255,3.9181,3.8956,3.9046,3.907,3.9024,3.9094,3.8822,3.9011,3.929,3.9095,3.9086,3.9055,3.9253,3.9329,3.9343,3.919,3.9178,3.9208,3.9353,3.9339,3.9568,3.9617,3.9503,3.9554,3.9469,3.9548,3.9642,3.975,3.9877,3.9852,3.9964,4.0095,4.0212,4.0167,4.0183,4.0512,4.0588,4.0665,4.0852,4.111,4.1172,4.1155,4.154,4.1584,4.1725,4.2008,4.1877,4.1736,4.2022,4.2133,4.1955,4.1836,4.1694,4.1585,4.1441,4.1183,4.0871,4.0651,4.0516,4.0304,4.0142,3.9867,3.9688,3.988,3.9578,3.9811,3.974,3.9655,3.9632,3.9646,3.9503,3.946,3.9492,3.9621,3.9698,3.9621,3.9543,3.9528,3.9496,3.9484,3.9451,3.9638,3.9498,3.9616,3.9437,3.9712,3.9564,3.9856,3.9805,3.9754,3.9699,3.9636,3.9929,3.9665,3.9501,3.9272,3.9405,3.9443,3.9656,3.9568,3.9657,3.965,3.9728,3.9735,3.9652,3.9549,3.9476,3.9622,3.9516,3.9546,3.9454,3.9528,3.9552,3.9367,3.931,3.9452,3.9497,3.9347,3.9429,3.9534,3.9362,3.9516,3.9645,3.9868,4.0064,4.0189,4.0047,4.0188,4.0394,4.0571,4.0524,4.0347,4.0335,4.0504,4.0569,4.0457,4.0336,4.0166,3.9745,3.9536,3.9352,3.9163,3.9211,3.9354,3.9339,3.9146,3.9233,3.936,3.9332,3.9091,3.9153,3.9273,3.9308,3.9328,3.9253,3.9081,3.8774,3.7989,3.7953,3.819,4.0108,4.3153,4.6687,5.0667,5.3869,5.4373,5.2792,4.8815,4.4457,4.1792,4.0976,4.0389,3.9858,3.9708,3.95,3.9538,3.9412,3.9335,3.9334,3.9154,3.9196,3.9147,3.9318,3.9409,3.9419,3.9424,3.9227,3.9308,3.9322,3.9372,3.9419,3.9397,3.9455,3.9498,3.9301,3.946,3.951,3.9668,3.9692,3.956,3.936,3.9505,3.9799,3.9979,4,3.9859,4.0008,4.0246,4.049,4.0174,4.0302,4.0411,4.059,4.0864,4.0963,4.1004,4.1325,4.1441,4.1448,4.1579,4.166,4.1752,4.1833,4.1984,4.2087,4.2008,4.2153,4.2355,4.2218,4.1964,4.175,4.1454,4.1321,4.0996,4.0716,4.0685,4.0752,4.0556,4.0325,4.0161,3.9974,3.985,3.9979,3.9882,3.9834,3.9674,3.9701,3.9866,3.9557,3.9731,3.978,3.9675,3.9588,3.9654,3.9714,3.9692,3.981,3.9805,3.9809,3.9839,3.9468,3.9611,3.9638,3.9587,3.9697,3.9973,3.9968,3.9666,3.9632,3.9954,3.9885,3.989,3.9905,3.9616,3.9709,3.9732,3.9903,3.9772,3.9611,3.9712,3.9664,3.9593,3.9659,3.9606,3.9619,3.9737,3.9822,3.9617,3.9374,3.9405,3.9635,3.9809,3.9885,3.9801,3.9916,3.9925,4.0039,4.0075,4.0189,4.0301,4.0351,4.0403,4.0645,4.0452,4.0704,4.0832,4.0575,4.0578,4.0238,3.9878,3.9583,3.9532,3.9297,3.9212,3.9387,3.9454,3.9415,3.9397,3.946,3.9569,3.9492,3.9346,3.9291,3.9268,3.9174,3.9347,3.9263,3.923,3.8562,3.795,3.8,3.9194,4.1784,4.5224,4.8789,5.075,5.3619,5.426,5.189,4.8042,4.3843,4.2051,4.0905,4.0261,3.9883,3.9734,3.9603,3.9724,3.9598,3.9582,3.9196,3.9394,3.933,3.9483,3.942,3.9491,3.9367,3.9373,3.9211,3.9307,3.9572,3.9591,3.9323,3.95,3.9341,3.9369,3.9441,3.9615,3.9575,3.9591,3.9766,3.9766,3.9699,3.9722,3.9844,4.0084,4.0035,4.0024,4.0067,4.0115,4.0535,4.0341,4.0549,4.0614,4.0676,4.0782,4.0961,4.1158,4.1223,4.1423,4.1551,4.1743,4.1859,4.202,4.2006,4.198,4.2076,4.227,4.2184,4.2111,4.1839,4.1817,4.1696,4.1396,4.13,4.1356,4.1012,4.075,4.0344,3.9993,3.9898,3.9892,3.9873,3.963,3.9814,3.9678,3.9692,3.9411,3.9647,3.9612,3.9731,3.9674,3.9582,3.962,3.9689,3.9581,3.9641,3.961,3.9691,3.977,3.9687,3.974,3.9823,3.9733,3.9789,3.9531,3.9578,3.9509,3.9772,3.957,3.973,3.9724,3.9679,3.9667,3.9665,3.9777,3.9772,3.9668,3.9652,3.977,3.973,3.9576,3.9603,3.9577,3.954,3.9658,3.9749,3.9792,3.9923,3.9788,3.9788,3.991,4.0064,4.0007,4.0206,4.0321,4.0579,4.0288,4.047,4.0546,4.0438,4.0723,4.0527,4.0111,3.9763,3.9567,3.9532,3.9318,3.962,3.9479,3.9287,3.9318,3.9342,3.9281,3.9181,3.9305,3.9509,3.9206,3.9444,3.935,3.9009,3.9097,3.911,3.8923,3.8245,3.7894,3.7836,3.9415,4.1983,4.5836,4.9502,5.2478,5.371,5.2886,4.9674,4.5168,4.2292,4.1132,4.0129,3.9664,3.9716,3.9554,3.933,3.9447,3.9371,3.9407,3.9314,3.9053,3.9306,3.9391,3.9433,3.9456,3.9177,3.9314,3.9399,3.9496,3.9438,3.9457,3.9517,3.9273,3.9288,3.9557,3.9431,3.9512,3.9531,3.966,3.9579,3.9609,3.9753,3.9997,3.988,3.9972,3.9747,4.0024,4.0263,4.0258,4.0362,4.0469,4.0454,4.0689,4.0627,4.0948,4.1289,4.1293,4.1363,4.1464,4.1469,4.1584,4.1671,4.2037,4.2116,4.2172,4.2144,4.2145,4.2208,4.1929,4.1871,4.1535,4.1465,4.1158,4.093,4.0575,4.0418,4.0411,4.0365,4.0169,3.9985,3.9979,3.9784,3.9675,3.9569,3.952,3.9843,3.9873,3.9947,3.9618,3.9685,3.972,3.9726,3.9771,3.9597,3.9642,3.9611,3.9698,3.9897,3.9497,3.9574,3.9737,3.9857,3.9727,3.9708,3.9891,3.9771,3.9737,3.9712,3.9899,4.0058,3.9838,3.9769,3.9732,3.9806,3.9834,3.9908,3.9817,3.9643,3.9581,3.9674,3.9809,3.9697,3.9731,3.9902,4.015,4.028,4.0278,4.0218,4.0476,4.0424,4.0608,4.078,4.0756,4.0882,4.0781,4.0634,4.0594,4.0261,4.0119,3.9851,3.9801,3.9654,3.9468,3.9632,3.9738,3.9603,3.9569,3.9652,3.9425,3.9258,3.9684,3.9622,3.9471,3.9309,3.9339,3.9414,3.937,3.8944,3.8114,3.8052,3.8172,3.9335,4.1829,4.5477,4.9404,5.2982,5.4507,5.3698,5.0666,4.5912,4.2764,4.1319,4.0594,4.0222,4.0009,3.9846,3.959,3.9738,3.9442,3.9438,3.9608,3.9454,3.948,3.9353,3.9259,3.9743,3.953,3.9515,3.96,3.9434,3.9654,3.9409,3.9408,3.9658,3.9468,3.9553,3.979,3.9761,3.9845,3.9697,3.9699,3.979,3.979,4.0019,4.0093,4.0021,3.994,4.0031,4.0383,4.0258,4.0329,4.0551,4.0609,4.0747,4.0922,4.1057,4.1145,4.1279,4.1527,4.1784,4.1753,4.1701,4.171,4.1895,4.2019,4.2165,4.2257,4.2117,4.2003,4.188,4.19,4.1792,4.1525,4.1329,4.1204,4.0919,4.0621,4.0266,4.015,4.0297,4.0325,4.0146,3.9742,3.9808,3.9792,3.9732,3.9952,3.9855,3.9877,3.9835,3.98,3.9678,3.9705,3.9626,3.9829,4.0129,4.0023,3.9731,3.9714,3.9626,3.9562,3.976,3.9824,3.9981,3.9947,3.987,3.9751,3.9836,3.9782,3.9779,3.9658,3.9937,4.0003,3.982,3.9834,3.9844,3.9774,3.9753,3.9887,3.9956,3.999,3.9866,3.9684,3.9755,3.9623,3.9731,3.9655,3.9591,3.9679,3.9807,3.9893,3.9926,3.9904,4.0112,4.0129,4.0448,4.0509,4.0464,4.0396,4.0618,4.0827,4.0951,4.0609,4.0481,4.0381,4.019,3.9985,3.9692,3.9486,3.9314,3.9485,3.9283,3.9465,3.9478,3.9467,3.9428,3.9364,3.9302,3.9475,3.9552,3.9358,3.9015,3.9172,3.9279,3.9306,3.8496,3.7764,3.8013,3.8971,4.166,4.5044,4.8764,5.2466,5.4597,5.3862,5.0975,4.6393,4.2811,4.1384,4.058,4.02,4.0024,3.9839,3.9741,3.959,3.939,3.9549,3.9139,3.933,3.9164,3.9198,3.9278,3.9402,3.9339,3.9366,3.9347,3.9432,3.9526,3.9409,3.9363,3.919,3.9261,3.9319,3.9568,3.9558,3.9649,3.9607,3.9477,3.9753,3.9598,3.9815,3.9878,3.9822,4.0045,4.0204,4.0171,4.0162,4.0158,4.0226,4.052,4.0559,4.0559,4.0823,4.0996,4.1151,4.1188,4.1453,4.1634,4.148,4.171,4.1722,4.1941,4.1992,4.1916,4.1938,4.2002,4.2115,4.1859,4.1615,4.1485,4.1274,4.1084,4.0996,4.0665,4.0467,4.0292,4.0151,4.0029,3.9813,3.9979,3.9996,3.9647,3.9602,3.9647,3.9792,3.9841,3.9761,3.9752,3.9721,3.9597,3.953,3.9649,3.968,3.9734,3.9767,3.9721,3.9658,3.9782,3.9675,3.9651,3.9644,3.9807,3.9596,3.9627,3.9769,3.9961,3.9843,3.9795,3.9773,3.9646,3.9864,3.9883,3.9784,3.9949,3.986,3.9721,3.9661,3.9547,3.9567,3.9652,3.9879,3.9806,3.9771,3.9811,3.9687,3.9666,3.959,3.9676,3.97,3.9457,3.9605,3.9714,3.9666,3.9713,3.9804,3.9993,4.0137,4.0014,4.0013,4.0097,4.02,4.0256,4.0478,4.0631,4.0589,4.0545,4.0518,4.0587,4.0441,4.017,3.9827,3.9811,3.96,3.9627,3.949,3.8952,3.9065,3.9383,3.9383,3.9402,3.9294,3.9256,3.9129,3.9397,3.9315,3.9326,3.9315,3.9324,3.9221,3.8079,3.7903,3.805,3.8643,3.9828,4.4108,4.8052,5.1444,5.4354,5.3969,5.1205,4.6572,4.3261,4.1502,4.0648,3.9966,3.9766,3.9629,3.9567,3.943,3.9241,3.9384,3.9392,3.9549,3.9294,3.9094,3.9174,3.9016,3.9328,3.9319,3.9272,3.9221,3.931,3.948,3.936,3.93,3.9267,3.9437,3.9421,3.9543,3.9553,3.9454,3.9626,3.9528,3.9704,3.9655,3.9917,3.9839,3.9787,3.9892,3.9894,4.0131,4.0197,4.0397,4.0245,4.046,4.0618,4.0615,4.0741,4.1132,4.1188,4.14,4.1516,4.1564,4.1766,4.1927,4.168,4.1767,4.1829,4.1913,4.2062,4.2023,4.1964,4.1634,4.1285,4.0979,4.0871,4.0884,4.0631,4.0344,4.012,4.0079,3.9958,3.9685,3.9644,3.9642,3.9712,3.9701,3.9659,3.9628,3.9573,3.9521,3.9501,3.9531,3.9485,3.9591,3.9469,3.9379,3.9365,3.9476,3.9481,3.9604,3.964,3.943,3.9309,3.9543,3.9608,3.9654,3.9379,3.9294,3.9585,3.9574,3.9588,3.9427,3.9531,3.9718,3.9764,3.9307,3.9438,3.9553,3.9342,3.9314,3.9395,3.9351,3.9467,3.926,3.9313,3.9427,3.9488,3.9409,3.9288,3.9475,3.9583,3.9432,3.9413,3.9763,3.9937,3.989,3.9793,3.9991,3.9877,3.9906,4.0154,4.0109,4.0222,4.0415,4.063,4.014,4.0149,3.9768,3.9759,3.9534,3.9434,3.9563,3.8974,3.9192,3.8973,3.8928,3.8956,3.8999,3.891,3.8795,3.8913,3.8808,3.8992,3.9068,3.9079,3.9405,3.9117,3.8262,3.7324,3.7499,3.8289,4.0821,4.4136,4.7571,5.0998,5.3443,5.3179,5.1187,4.6505,4.2786,4.1302,4.0857,4.0108,3.9417,3.9479,3.9091,3.9389,3.9139,3.9072,3.9066,3.9071,3.9213,3.9202,3.8916,3.899,3.8737,3.8987,3.8892,3.9011,3.9081,3.908,3.913,3.9163,3.8964,3.9356,3.9613,3.9215,3.9211,3.931,3.9158,3.9283,3.965,3.9627,3.94,3.9416,3.9611,3.977,3.9746,3.9951,3.9933,4.0035,4.0034,4.0187,4.0436,4.0491,4.0586,4.0981,4.097,4.1064,4.1287,4.1293,4.1443,4.152,4.1531,4.1663,4.1489,4.1786,4.1836,4.1673,4.1553,4.1259,4.1243,4.106,4.0789,4.0603,4.0453,4.0291,3.9981,4.0022,3.9761,3.9579,3.9628,3.933,3.9353,3.9402,3.9328,3.9179,3.9416,3.9276,3.9475,3.9499,3.9462,3.9326,3.903,3.9142,3.9248,3.9325,3.9311,3.9191,3.932,3.9268,3.9367,3.9412,3.9527,3.9279,3.9452,3.9238,3.9337,3.9507,3.9423,3.943,3.9393,3.9432,3.9216,3.9206,3.9534,3.9603,3.9228,3.9433,3.9432,3.9085,3.9068,3.9313,3.9366,3.9204,3.9214,3.9431,3.9415,3.9505,3.9607,3.956,3.9598,3.9673,3.9837,3.9742,3.9845,4.021,4.0267,4.013,4.0233,4.0309,4.0274,4.0225,3.9726,3.9391,3.9356,3.925,3.9011,3.908,3.9213,3.9062,3.9011,3.8921,3.8963,3.8804,3.8831,3.8816,3.9061,3.9133,3.9022,3.8928,3.8797,3.8641,3.857,3.7466,3.7463,3.7934,4.0031,4.3245,4.6958,5.0941,5.3674,5.4229,5.3127,4.9747,4.5216,4.2335,4.0806,4.0056,3.9445,3.9513,3.9277,3.919,3.8909,3.8982,3.8757,3.8814,3.8891,3.8934,3.8733,3.8807,3.8841,3.8826,3.8846,3.893,3.9001,3.903,3.8815,3.8655,3.8796,3.9081,3.9122,3.9115,3.9059,3.9007,3.896,3.9087,3.9138,3.9035,3.943,3.9281,3.9313,3.9328,3.944,3.9634,3.9613,3.9623,3.9603,3.983,3.9988,4.0328,4.0342,4.0275,4.0702,4.0678,4.0771,4.0956,4.105,4.1284,4.1451,4.1455,4.1047,4.1161,4.1333,4.1424,4.1281,4.1155,4.0675,4.052,4.0586,4.0303,4.0116,3.9974,3.9578,3.9306,3.9319,3.9091,3.9065,3.9198,3.9255,3.9234,3.9171,3.9115,3.8956,3.8949,3.8957,3.8993,3.9036,3.893,3.8915,3.9008,3.9139,3.9127,3.8787,3.8726,3.8926,3.8991,3.9104,3.9181,3.915,3.9097,3.9086,3.9015,3.8867,3.8986,3.9055,3.8939,3.9035,3.9075,3.9252,3.8924,3.8846,3.8905,3.9018,3.884,3.882,3.9052,3.9109,3.9048,3.8916,3.8941,3.9121,3.9007,3.8815,3.8701,3.8654,3.8982,3.8913,3.893,3.875,3.8733,3.8869,3.9223,3.9304,3.9248,3.9161,3.9183,3.9445,3.9677,3.9658,3.9812,3.9859,4.0017,3.9823,3.9711,3.9669,3.9435,3.9173,3.9056,3.88,3.8757,3.8623,3.8546,3.8526,3.8496,3.8703,3.8577,3.857,3.8591,3.8336,3.8408,3.8581,3.845,3.8513,3.8455,3.8386,3.8361,3.7555,3.7028,3.7237,3.8988,4.1629,4.5449,4.9803,5.2937,5.3682,5.2018,4.8153,4.3922,4.1204,4.02,3.9809,3.9378,3.8992,3.8639,3.8707,3.8616,3.8626,3.8538,3.8654,3.8306,3.8265,3.8322,3.8522,3.8318,3.8453,3.855,3.8458,3.8446,3.8695,3.868,3.8539,3.8651,3.8691,3.8433,3.89,3.8833,3.8939,3.8634,3.8785,3.8755,3.8684,3.8835,3.8988,3.8787,3.9066,3.9215,3.9284,3.9328,3.9288,3.9593,3.9743,3.9736,3.9806,3.9823,4.0135,4.0385,4.0475,4.0489,4.0416,4.0864,4.0742,4.0909,4.1046,4.0888,4.1099,4.0985,4.1225,4.1001,4.0909,4.0821,4.0546,4.021,4.0089,4.0102,3.9642,3.9371,3.9346,3.9213,3.9164,3.8911,3.8907,3.8799,3.8759,3.8812,3.8739,3.8791,3.8689,3.8754,3.8809,3.8686,3.8637,3.8879,3.8883,3.8903,3.8669,3.8703,3.8622,3.8777,3.8739,3.8812,3.8763,3.8846,3.8758,3.8768,3.8839,3.8866,3.8711,3.8722,3.8809,3.8848,3.8735,3.9077,3.9048,3.8856,3.8487,3.8507,3.864,3.9038,3.8935,3.8683,3.8524,3.8685,3.8544,3.8675,3.8734,3.8645,3.8704,3.8567,3.8562,3.8772,3.8886,3.8969,3.8834,3.8807,3.8495,3.8416,3.8707,3.8868,3.8997,3.9022,3.928,3.8992,3.913,3.9289,3.9467,3.9673,3.9524,3.9649,3.9633,3.9635,3.9523,3.9343,3.9284,3.8977,3.8809,3.8498,3.8481,3.8522,3.8397,3.8388,3.8487,3.8318,3.8396,3.8516,3.8314,3.8376,3.8253,3.8281,3.8419,3.8518,3.8324,3.7671,3.7146,3.7038,3.7235,3.9183,4.1697,4.5368,4.9518,5.2586,5.3091,5.1639,4.7995,4.3652,4.1127,3.9826,3.93,3.8879,3.8898,3.8531,3.8588,3.8477,3.8429,3.8366,3.8535,3.8542,3.8467,3.8394,3.8362,3.8302,3.8186,3.8354,3.8407,3.8441,3.8583,3.8482,3.8553,3.8478,3.8646,3.8583,3.8495,3.8596,3.8668,3.8599,3.8734,3.875,3.8839,3.882,3.8827,3.8899,3.9012,3.9331,3.9316,3.9166,3.94,3.953,3.9807,3.9672,3.9849,3.9935,4.0178,4.0297,4.0423,4.0516,4.082,4.0731,4.0807,4.0879,4.1076,4.1196,4.1138,4.1167,4.1016,4.1123,4.1137,4.0781,4.0573,4.0219,3.9772,3.9725,3.9673,3.9589,3.9434,3.9176,3.9256,3.9311,3.8983,3.892,3.9011,3.8975,3.8666,3.8722,3.8706,3.8777,3.8832,3.8915,3.8774,3.8708,3.855,3.8744,3.8703,3.8824,3.8855,3.8989,3.8828,3.8723,3.8901,3.8955,3.8877,3.8664,3.8742,3.8788,3.8996,3.8885,3.8996,3.8975,3.872,3.8786,3.8615,3.8693,3.8904,3.8796,3.8707,3.8693,3.8658,3.8687,3.8684,3.8786,3.8857,3.8949,3.8739,3.9072,3.9166,3.9283,3.9321,3.9421,3.9454,3.9517,3.9589,3.9675,3.9918,3.9637,3.9461,3.9487,3.9214,3.9173,3.8889,3.889,3.8745,3.8509,3.8296,3.8369,3.8542,3.8583,3.8483,3.834,3.8557,3.8492,3.8575,3.8306,3.819,3.8471,3.8373,3.8295,3.8232,3.7238,3.7051,3.754,3.8983,4.1738,4.5279,4.9183,5.2145,5.289,5.1578,4.7688,4.3163,4.0887,4.0227,3.9491,3.8613,3.8837,3.866,3.8464,3.8361,3.8414,3.8472,3.8596,3.8531,3.8548,3.8395,3.8327,3.8452,3.8343,3.8271,3.8356,3.8624,3.8357,3.8433,3.865,3.8331,3.8528,3.8741,3.8672,3.8694,3.8795,3.8752,3.8812,3.8781,3.8768,3.8851,3.8851,3.8973,3.9078,3.912,3.91,3.9323,3.952,3.9498,3.9495,3.9697,3.9994,4.0081,3.9994,4.0224,4.0423,4.0732,4.0916,4.0908,4.0743,4.1025,4.0947,4.1086,4.1056,4.1142,4.0866,4.094,4.0706,4.0574,4.015,3.9938,4.0016,3.9832,3.9761,3.9566,3.9288,3.8926,3.8942,3.8984,3.8968,3.8874,3.8708,3.8849,3.8959,3.8664,3.8418,3.871,3.8617,3.8577,3.864,3.8787,3.9007,3.896,3.8702,3.8582,3.8751,3.8782,3.9029,3.8766,3.8783,3.8906,3.8913,3.8654,3.8849,3.8837,3.8871,3.8867,3.8532,3.8929,3.9091,3.909,3.8856,3.8836,3.8998,3.901,3.927,3.9333,3.9402,3.9399,3.9422,3.9559,3.9592,3.9749,3.978,3.9938,3.996,3.956,3.9453,3.9597,3.9371,3.8819,3.8876,3.8694,3.8589,3.8619,3.8935,3.8677,3.8558,3.8397,3.8464,3.8605,3.8681,3.86,3.8281,3.8492,3.8471,3.8502,3.8496,3.767,3.6941,3.7084,3.8046,4.057,4.2185,4.5874,5.0006,5.3157,5.376,5.1992,4.7906,4.3691,4.1171,4.0103,3.9585,3.9052,3.9076,3.884,3.8625,3.831,3.8495,3.8502,3.8583,3.8566,3.8804,3.8524,3.8622,3.8509,3.849,3.8526,3.8706,3.8683,3.8592,3.8649,3.8592,3.8497,3.8685,3.8716,3.881,3.8625,3.8716,3.8832,3.8919,3.882,3.8987,3.9064,3.9078,3.9019,3.9257,3.9372,3.9524,3.9564,3.9653,3.9441,3.9568,3.9769,4.0201,4.0219,4.0281,4.0359,4.0682,4.063,4.0756,4.0709,4.1011,4.1133,4.1044,4.1099,4.1146,4.1176,4.1112,4.0981,4.0724,4.0411,4.0253,4.0122,3.9646,3.9618,3.939,3.945,3.9286,3.9261,3.9066,3.908,3.8872,3.9044,3.9083,3.9059,3.8884,3.8867,3.8877,3.9021,3.9038,3.9008,3.8874,3.8743,3.8889,3.8781,3.8943,3.9056,3.9038,3.9005,3.8832,3.9049,3.896,3.9077,3.8859,3.9047,3.8982,3.9098,3.8931,3.8784,3.894,3.8962,3.8881,3.8988,3.8938,3.8803,3.8875,3.9228,3.927,3.9303,3.9164,3.9402,3.926,3.9308,3.9497,3.9602,4.0036,3.9981,3.974,3.9849,3.9734,4.0127,3.9863,3.9649,3.9486,3.8994,3.8957,3.8989,3.9032,3.8714,3.8755,3.8617,3.867,3.8709,3.8906,3.8596,3.8544,3.8513,3.8485,3.8552,3.8451,3.8623,3.8751,3.805,3.7251,3.7372,3.7948,4.0164,4.3135,4.6984,5.087,5.3621,5.3429,5.2566,4.9066,4.4264,4.1371,4.0314,3.9746,3.9319,3.9059,3.8899,3.8848,3.8809,3.8791,3.8698,3.883,3.8326,3.8464,3.8476,3.8768,3.8602,3.851,3.8319,3.8664,3.8697,3.8779,3.8663,3.9005,3.877,3.8968,3.8783,3.8539,3.8623,3.8757,3.8733,3.9168,3.9361,3.9337,3.8963,3.9086,3.9173,3.9236,3.9315,3.9441,3.9442,3.9465,3.9811,3.9815,3.9796,3.9959,4.0347,4.0495,4.0293,4.0377,4.0695,4.0835,4.096,4.1042,4.1084,4.1177,4.1238,4.1098,4.1106,4.1022,4.0866,4.0885,4.0853,4.0552,4.0242,3.9952,3.9791,3.9792,3.9494,3.9342,3.93,3.9058,3.9185,3.9338,3.8977,3.8994,3.9068,3.9061,3.9039,3.8873,3.8918,3.9072,3.905,3.9211,3.9027,3.8992,3.9047,3.883,3.9026,3.9286,3.9049,3.8975,3.9398,3.9265,3.9237,3.8949,3.8989,3.8979,3.9043,3.9034,3.9098,3.8828,3.9002,3.8843,3.9009,3.9127,3.9196,3.9166,3.9333,3.9091,3.8842,3.8849,3.9269,3.9245,3.9329,3.9512,3.938,3.9159,3.9478,3.961,3.9584,3.9808,3.997,3.9903,3.9945,4.0038,4.0016,4.0057,3.963,3.9336,3.9246,3.9004,3.8801,3.8992,3.8918,3.8808,3.8974,3.8619,3.8602,3.8618,3.8613,3.8645,3.8457,3.8606,3.8742,3.8621,3.8598,3.8754,3.8725,3.7938,3.7258,3.7415,3.8239,4.089,4.4425,4.8225,5.1309,5.3289,5.2492,5.1316,4.7054,4.3253,4.1192,4.0107,3.9564,3.8949,3.8891,3.8811,3.9175,3.8843,3.8792,3.8625,3.8677,3.8415,3.8719,3.8666,3.8688,3.8666,3.853,3.8529,3.8863,3.8864,3.8608,3.8738,3.871,3.8576,3.8881,3.8818,3.8761,3.8816,3.8925,3.9015,3.8965,3.8987,3.9049,3.9171,3.9227,3.9456,3.9528,3.9399,3.9424,3.9543,3.9518,3.9792,3.9823,4.0004,4.0192,4.031,4.0705,4.0487,4.0399,4.0753,4.0686,4.0688,4.1171,4.1218,4.127,4.108,4.1073,4.1172,4.088,4.0908,4.0779,4.0711,4.044,4.0173,4.0008,3.9897,3.9679,3.9448,3.9239,3.9327,3.9036,3.8826,3.9029,3.9031,3.8835,3.9085,3.8813,3.8709,3.8913,3.8903,3.8894,3.8927,3.8905,3.9063,3.8983,3.8923,3.8857,3.8942,3.9048,3.8913,3.8898,3.9025,3.9145,3.8897,3.906,3.9192,3.9104,3.9111,3.8771,3.8886,3.9099,3.8956,3.8618,3.8816,3.9081,3.8979,3.8784,3.9078,3.9293,3.9392,3.9381,3.9358,3.9445,3.9542,3.9669,3.9859,3.9898,3.9799,3.9876,3.9925,4.0008,3.9751,3.9328,3.8918,3.9105,3.8757,3.8648,3.8838,3.8778,3.8627,3.8716,3.8395,3.855,3.8633,3.8583,3.8438,3.8619,3.8627,3.841,3.8477,3.85,3.8561,3.8007,3.7338,3.7203,3.7901,3.9942,4.3211,4.7161,5.0714,5.2995,5.3009,5.0392,4.5578,4.2171,4.0448,3.9913,3.9365,3.9126,3.9125,3.8856,3.8936,3.8721,3.8633,3.8551,3.8547,3.8421,3.8686,3.8767,3.8786,3.8271,3.8292,3.8474,3.8631,3.8593,3.882,3.8442,3.8828,3.8856,3.8786,3.877,3.8745,3.8962,3.886,3.8984,3.8819,3.8869,3.9027,3.9001,3.8907,3.9083,3.9276,3.9355,3.9361,3.9739,3.9667,3.9689,3.9946,3.9999,4.0031,4.0161,4.0468,4.0325,4.086,4.1067,4.079,4.0797,4.0701,4.0974,4.1075,4.1058,4.1065,4.1165,4.0907,4.0738,4.0723,4.0542,4.028,4.0155,3.9792,3.967,3.9675,3.9527,3.9272,3.9197,3.9205,3.8947,3.8956,3.922,3.9062,3.8842,3.906,3.8957,3.8817,3.9002,3.8742,3.9105,3.8914,3.8904,3.8892,3.8752,3.9075,3.9068,3.9225,3.9224,3.9004,3.8849,3.8882,3.8902,3.9031,3.9264,3.9176,3.9114,3.9031,3.8914,3.9069,3.8999,3.9085,3.9072,3.9368,3.9481,3.9461,3.9453,3.9754,3.9816,3.9522,3.9581,3.9934,4.0156,4.0086,4.0222,4.0036,3.9491,3.9409,3.9616,3.9605,3.9218,3.8928,3.8914,3.8819,3.8782,3.8866,3.8904,3.8792,3.887,3.8685,3.8765,3.882,3.8743,3.8618,3.8524,3.8573,3.8673,3.8643,3.7672,3.7227,3.7616,3.9115,4.0429,4.3978,4.7953,5.1461,5.4067,5.32,5.0517,4.5793,4.2252,4.0869,4.0349,3.9511,3.9157,3.9092,3.8762,3.8831,3.9141,3.8844,3.8759,3.8623,3.8678,3.8632,3.8835,3.8856,3.8745,3.8863,3.8906,3.8754,3.8631,3.8723,3.8879,3.8853,3.8922,3.8963,3.9239,3.9037,3.8824,3.8968,3.8866,3.9314,3.9417,3.908,3.9148,3.9412,3.9711,3.9439,3.9293,3.9481,3.9612,3.9938,4.0064,4.0064,4.0057,4.0336,4.0304,4.0551,4.0627,4.0774,4.0819,4.1307,4.1343,4.1064,4.1128,4.093,4.086,4.1004,4.1184,4.1128,4.0903,4.0825,4.0647,4.0254,4.0078,3.9869,3.9566,3.9668,3.9323,3.9347,3.9549,3.9332,3.9288,3.9063,3.9039,3.907,3.9043,3.9132,3.9178,3.9242,3.9191,3.9163,3.9149,3.9075,3.9124,3.9326,3.9269,3.9536,3.9197,3.9052,3.9301,3.929,3.9245,3.9199,3.8986,3.8931,3.9117,3.9446,3.9164,3.9074,3.9081,3.9087,3.9205,3.9281,3.9324,3.9157,3.9062,3.9029,3.9305,3.9287,3.93,3.9219,3.9512,3.9645,3.9431,3.9489,3.9334,3.9694,3.984,4.0367,4.043,4.0138,4.0087,4.0074,3.9958,3.9899,3.9794,3.9393,3.9262,3.8918,3.9013,3.8783,3.8673,3.8769,3.8779,3.8858,3.87,3.8873,3.9,3.8899,3.8741,3.8732,3.8926,3.8833,3.8817,3.826,3.7467,3.7513,3.7825,3.9966,4.3118,4.6917,5.0948,5.2508,5.4004,5.3047,4.931,4.4658,4.1659,4.0812,3.9925,3.9674,3.9432,3.9217,3.8904,3.9042,3.8477,3.8668,3.8777,3.8761,3.9009,3.877,3.8763,3.8733,3.8847,3.8747,3.8918,3.9043,3.9058,3.8803,3.8889,3.8723,3.8907,3.8952,3.891,3.8938,3.9036,3.9003,3.9146,3.9153,3.9319,3.9299,3.9354,3.9352,3.9327,3.971,3.9552,3.9676,3.9459,3.9769,4.0055,4.0178,4.0338,4.0429,4.0489,4.0521,4.0631,4.106,4.1066,4.108,4.1099,4.1186,4.1198,4.1232,4.1445,4.1166,4.1048,4.102,4.101,4.0771,4.0686,4.0382,4.0261,3.9867,4.002,3.9877,3.9403,3.9517,3.9509,3.9322,3.9161,3.9247,3.9309,3.9209,3.916,3.9284,3.932,3.9231,3.9339,3.9415,3.9331,3.9074,3.9223,3.9183,3.9194,3.926,3.952,3.947,3.9354,3.9496,3.9332,3.895,3.9219,3.9273,3.9436,3.958,3.9478,3.9296,3.9242,3.9323,3.9256,3.9262,3.9316,3.9429,3.9273,3.9184,3.9324,3.9148,3.916,3.9426,3.9319,3.9472,3.9199,3.9099,3.9242,3.9378,3.9113,3.9286,3.945,3.9364,3.9326,3.9511,3.9554,3.9823,3.9993,3.985,3.9947,4.0344,4.02,4.0382,4.0479,4.0333,4.0019,3.9844,3.9691,3.9524,3.9141,3.9096,3.9151,3.9019,3.9116,3.8927,3.8829,3.8868,3.892,3.8946,3.8917,3.91,3.901,3.874,3.8868,3.8849,3.895,3.8584,3.7835,3.7526,3.7964,3.9515,4.2498,4.622,5.0075,5.2989,5.3875,5.1886,4.8004,4.3913,4.1572,4.0669,4.0022,3.9292,3.9222,3.9068,3.9141,3.9191,3.9053,3.873,3.8858,3.9068,3.9034,3.8862,3.9096,3.9041,3.8726,3.8833,3.8952,3.9181,3.8862,3.878,3.9028,3.9059,3.9238,3.9167,3.9071,3.9111,3.9098,3.9089,3.9168,3.9279,3.9417,3.9471,3.9273,3.9487,3.9666,3.9431,3.9675,3.9823,4.001,4.0034,4.0002,4.0322,4.0451,4.049,4.0333,4.0792,4.0789,4.0901,4.116,4.1187,4.1246,4.1202,4.1245,4.1415,4.1301,4.1482,4.1143,4.1173,4.1058,4.0996,4.0805,4.0594,4.0294,3.9981,3.9765,3.9784,3.978,3.9641,3.962,3.9426,3.9033,3.9038,3.9163,3.9078,3.9212,3.934,3.926,3.943,3.9209,3.8895,3.911,3.927,3.9292,3.8988,3.9248,3.9397,3.9412,3.926,3.9215,3.9292,3.9087,3.9338,3.927,3.9405,3.9333,3.9215,3.9314,3.9052,3.9275,3.8978,3.9111,3.9238,3.9368,3.9264,3.9092,3.8998,3.903,3.9239,3.9128,3.9136,3.9159,3.9109,3.8986,3.9087,3.9091,3.9418,3.9394,3.909,3.9115,3.9613,3.9279,3.9511,3.9708,3.9752,4.0067,4.0074,4.009,4.001,4.0084,3.9958,3.9866,3.9499,3.9126,3.9167,3.9068,3.8814,3.8645,3.8581,3.8694,3.8742,3.8739,3.8792,3.8664,3.8875,3.8779,3.8383,3.829,3.8444,3.8844,3.8569,3.8511,3.7898,3.7402,3.732,3.8395,4.0736,4.4248,4.8176,5.1372,5.3121,5.2552,4.9805,4.4619,4.1519,4.0378,3.9776,3.9507,3.9236,3.9429,3.8891,3.8753,3.8757,3.868,3.8665,3.8513,3.876,3.8798,3.8772,3.8842,3.8417,3.8578,3.8704,3.8659,3.8649,3.8578,3.8659,3.8838,3.9038,3.8998,3.8901,3.8707,3.8769,3.8985,3.9133,3.903,3.9157,3.9186,3.9066,3.9127,3.9281,3.9414,3.955,3.9595,3.9761,3.9655,3.9866,4.0025,4.0225,4.0262,4.017,4.0549,4.0499,4.0605,4.0761,4.1088,4.1119,4.1095,4.1331,4.1409,4.1001,4.124,4.1165,4.1026,4.0958,4.069,4.045,4.0674,4.0315,3.992,3.9984,3.9746,3.9431,3.9227,3.9137,3.9443,3.9305,3.9147,3.9008,3.898,3.9079,3.9138,3.9186,3.9049,3.8761,3.8991,3.9154,3.9095,3.9157,3.9162,3.8914,3.8739,3.896,3.8896,3.9242,3.9285,3.9221,3.9134,3.9041,3.9004,3.9059,3.9036,3.8983,3.9159,3.9241,3.9143,3.9288,3.893,3.8858,3.9137,3.898,3.9049,3.9221,3.9213,3.9192,3.9276,3.9138,3.915,3.9179,3.9546,3.9586,3.9451,3.9638,3.9787,3.9646,3.988,4.0143,4.01,4.0073,3.9996,4.0383,4.007,3.9717,3.9372,3.906,3.8846,3.8951,3.9006,3.8811,3.8899,3.914,3.8943,3.8929,3.8771,3.8738,3.8483,3.8704,3.8936,3.8892,3.9036,3.8723,3.8432,3.808,3.7592,3.7217,3.7889,4.0547,4.3957,4.7848,5.1705,5.3855,5.3484,5.0782,4.6154,4.2312,4.0733,4.0093,3.9566,3.9389,3.9264,3.9298,3.915,3.8747,3.8731,3.8818,3.8985,3.8561,3.8625,3.8686,3.9096,3.8977,3.882,3.8898,3.8893,3.8914,3.8817,3.8709,3.9037,3.8995,3.8782,3.917,3.8989,3.9236,3.9247,3.908,3.9161,3.9088,3.9337,3.926,3.9583,3.9642,3.9532,3.9435,3.9486,3.9535,4.0028,4.0101,4.0041,4.0006,4.0112,4.0523,4.0662,4.0896,4.0894,4.0975,4.1051,4.0905,4.1402,4.1472,4.1335,4.1369,4.1253,4.1191,4.1128,4.1162,4.058,4.046,4.0458,4.038,3.9948,3.9974,3.9827,3.9597,3.9516,3.9484,3.9623,3.9459,3.9212,3.9088,3.92,3.9138,3.9433,3.9112,3.8969,3.92,3.9245,3.9154,3.9203,3.9132,3.911,3.9271,3.9423,3.9222,3.8978,3.9201,3.9245,3.9331,3.9136,3.9134,3.9066,3.9293,3.9152,3.9149,3.9263,3.9383,3.8988,3.9191,3.9262,3.9496,3.932,3.9136,3.9277,3.9133,3.8973,3.9302,3.9537,3.9374,3.9092,3.882,3.9057,3.9215,3.9186,3.9138,3.9249,3.9267,3.9204,3.9195,3.9031,3.8969,3.9162,3.9206,3.9127,3.9347,3.9247,3.9182,3.9083,3.9228,3.917,3.931,3.9629,3.9523,3.9834,3.9931,3.9603,3.9785,4.0139,4.0047,3.9997,4.0077,4.0256,4.0161,3.9912,3.946,3.9429,3.9333,3.9202,3.8831,3.8914,3.888,3.8784,3.8843,3.8985,3.9001,3.8752,3.8722,3.9025,3.8949,3.8999,3.8946,3.8987,3.8819,3.8739,3.774,3.7263,3.7657,3.9107,4.1673,4.5349,4.9542,5.2648,5.409,5.2789,4.9212,4.4741,4.1742,4.0742,4.0299,3.9787,3.9167,3.9319,3.9535,3.9007,3.8607,3.8878,3.8793,3.8898,3.8928,3.8782,3.8965,3.873,3.8923,3.8916,3.8915,3.8893,3.9074,3.9143,3.9177,3.9178,3.9054,3.8983,3.8963,3.9176,3.9271,3.9205,3.9155,3.8936,3.9183,3.9311,3.9361,3.9422,3.9493,3.9647,3.9779,3.9908,4.0069,3.9731,4.0081,4.0287,4.0251,4.0291,4.0687,4.0898,4.0467,4.0911,4.1033,4.1103,4.1283,4.1398,4.1397,4.1625,4.1532,4.1531,4.1728,4.1489,4.1288,4.0983,4.0628,4.0468,4.0524,4.0383,4.0168,4.0216,3.9855,3.9642,3.9556,3.9319,3.9327,3.9235,3.9515,3.9647,3.9406,3.9303,3.9064,3.9204,3.9232,3.9162,3.925,3.917,3.9331,3.9289,3.9163,3.9143,3.9393,3.9296,3.9277,3.9072,3.9127,3.9478,3.9256,3.9207,3.9298,3.9471,3.9269,3.9382,3.9382,3.9148,3.9135,3.9124,3.9202,3.9168,3.9372,3.9485,3.9446,3.9187,3.9028,3.9178,3.9271,3.9131,3.9271,3.9387,3.9299,3.9112,3.8957,3.9147,3.9244,3.9227,3.9224,3.9115,3.9338,3.9341,3.9068,3.9013,3.9107,3.9196,3.9249,3.9162,3.9342,3.92,3.9008,3.8905,3.8959,3.9064,3.9139,3.9425,3.929,3.9326,3.9579,3.966,3.9611,3.9566,3.9692,3.9631,3.9733,4.0087,4.0261,4.0208,4.0176,4.0021,3.9855,3.9574,3.9653,3.921,3.8869,3.9099,3.8956,3.9132,3.9133,3.8853,3.8921,3.9033,3.8927,3.8857,3.8799,3.8971,3.8967,3.8904,3.876,3.901,3.8796,3.8507,3.7501,3.7304,3.7752,4.0211,4.3666,4.7579,5.1121,5.3727,5.3713,5.2905,4.9409,4.4717,4.1906,4.0884,4.0201,3.923,3.9485,3.9124,3.9319,3.9139,3.9187,3.8944,3.8989,3.8844,3.9007,3.9115,3.8977,3.8819,3.8785,3.897,3.9064,3.893,3.9251,3.9171,3.9066,3.8787,3.9136,3.9011,3.9194,3.9122,3.9339,3.9353,3.9201,3.9547,3.9379,3.9439,3.9549,3.9453,3.9637,3.9834,3.978,3.9837,3.9792,4.0147,4.0106,4.0117,4.0292,4.0458,4.0698,4.0831,4.1,4.111,4.1234,4.1289,4.118,4.1302,4.1771,4.1838,4.1507,4.1593,4.168,4.1677,4.161,4.1188,4.0953,4.0746,4.0548,4.047,4.014,3.9891,3.9788,3.9883,3.9787,3.9486,3.9608,3.9553,3.9202,3.924,3.9506,3.9491,3.9295,3.9347,3.9438,3.942,3.9199,3.9328,3.9201,3.9434,3.9366,3.9253,3.9204,3.9303,3.9414,3.9356,3.9308,3.9184,3.9219,3.9378,3.9411,3.9279,3.929,3.9531,3.9705,3.962,3.9118,3.9165,3.9296,3.9336,3.9201,3.9401,3.9403,3.9362,3.9484,3.9346,3.9368,3.9259,3.9252,3.9224,3.9284,3.9338,3.9355,3.9176,3.9178,3.9167,3.9371,3.9237,3.9221,3.9241,3.9257,3.9262,3.894,3.904,3.9301,3.9048,3.8929,3.8987,3.9231,3.9354,3.9131,3.9146,3.9234,3.9304,3.96,3.9571,3.9777,3.9744,3.9692,3.9901,4.0016,4.0248,4.0195,4.0251,3.9986,3.9912,3.9701,3.9608,3.9373,3.915,3.9157,3.9014,3.9077,3.8966,3.9021,3.8803,3.8943,3.8966,3.8838,3.892,3.888,3.8793,3.8859,3.9211,3.903,3.8797,3.8463,3.7526,3.7282,3.7744,3.9482,4.2114,4.3843,4.7728,5.1036,5.3054,5.2778,5.0362,4.5717,4.2065,4.0979,4.0202,3.9853,3.96,3.9341,3.8892,3.8926,3.8906,3.9023,3.8765,3.9058,3.8651,3.8608,3.8762,3.9037,3.8886,3.8834,3.8966,3.9142,3.8799,3.8981,3.8984,3.8969,3.9352
