-18.702,-18.694,-18.692,-18.678,-18.665,-18.654,-18.635,-18.632,-18.618,-18.608,-18.577,-18.558,-18.549,-18.528,-18.518,-18.493,-18.485,-18.476,-18.464,-18.428,-18.42,-18.413,-18.417,-18.407,-18.395,-18.396,-18.399,-18.407,-18.428,-18.44,-18.457,-18.494,-18.524,-18.553,-18.603,-18.617,-18.656,-18.687,-18.731,-18.769,-18.785,-18.786,-18.81,-18.823,-18.828,-18.829,-18.833,-18.842,-18.861,-18.865,-18.863,-18.849,-18.845,-18.854,-18.878,-18.862,-18.858,-18.837,-18.854,-18.852,-18.856,-18.832,-18.837,-18.837,-18.84,-18.836,-18.836,-18.841,-18.845,-18.838,-18.826,-18.818,-18.817,-18.829,-18.83,-18.837,-18.828,-18.829,-18.833,-18.835,-18.837,-18.823,-18.836,-18.845,-18.855,-18.857,-18.844,-18.842,-18.849,-18.845,-18.85,-18.847,-18.846,-18.851,-18.861,-18.848,-18.862,-18.85,-18.859,-18.863,-18.86,-18.857,-18.847,-18.856,-18.855,-18.855,-18.85,-18.853,-18.841,-18.846,-18.831,-18.824,-18.796,-18.767,-18.759,-18.775,-18.788,-18.796,-18.805,-18.807,-18.821,-18.826,-18.823,-18.831,-18.855,-18.881,-18.89,-18.885,-18.885,-18.896,-18.89,-18.9,-18.89,-18.89,-18.898,-18.907,-18.894,-18.888,-18.894,-18.895,-18.894,-18.894,-18.899,-18.889,-18.912,-18.986,-19.031,-18.977,-18.896,-18.693,-18.426,-18.134,-17.725,-17.51,-17.538,-17.969,-18.439,-18.842,-19.009,-18.991,-18.951,-18.9,-18.878,-18.81,-18.825,-18.839,-18.845,-18.832,-18.839,-18.83,-18.836,-18.827,-18.83,-18.814,-18.812,-18.81,-18.823,-18.805,-18.795,-18.791,-18.799,-18.79,-18.789,-18.769,-18.764,-18.767,-18.761,-18.755,-18.746,-18.737,-18.73,-18.736,-18.714,-18.71,-18.688,-18.67,-18.665,-18.653,-18.632,-18.619,-18.596,-18.592,-18.578,-18.548,-18.524,-18.507,-18.496,-18.489,-18.476,-18.447,-18.435,-18.436,-18.425,-18.421,-18.401,-18.41,-18.413,-18.421,-18.422,-18.435,-18.458,-18.505,-18.532,-18.569,-18.609,-18.63,-18.666,-18.715,-18.735,-18.749,-18.76,-18.788,-18.812,-18.837,-18.829,-18.835,-18.845,-18.854,-18.861,-18.855,-18.857,-18.856,-18.861,-18.868,-18.858,-18.86,-18.864,-18.867,-18.867,-18.861,-18.849,-18.85,-18.843,-18.847,-18.846,-18.842,-18.843,-18.852,-18.845,-18.836,-18.828,-18.831,-18.84,-18.841,-18.839,-18.832,-18.842,-18.843,-18.831,-18.834,-18.837,-18.837,-18.84,-18.845,-18.855,-18.844,-18.842,-18.84,-18.851,-18.855,-18.852,-18.855,-18.86,-18.869,-18.868,-18.859,-18.851,-18.86,-18.868,-18.866,-18.872,-18.854,-18.852,-18.862,-18.865,-18.86,-18.856,-18.863,-18.872,-18.873,-18.872,-18.861,-18.867,-18.859,-18.863,-18.861,-18.856,-18.841,-18.854,-18.841,-18.825,-18.818,-18.802,-18.785,-18.766,-18.77,-18.788,-18.807,-18.816,-18.814,-18.82,-18.817,-18.812,-18.825,-18.847,-18.864,-18.884,-18.88,-18.886,-18.892,-18.899,-18.891,-18.9,-18.892,-18.895,-18.894,-18.896,-18.897,-18.908,-18.895,-18.891,-18.889,-18.887,-18.886,-18.922,-18.99,-19.017,-18.922,-18.739,-18.505,-18.367,-18.089,-17.64,-17.464,-17.622,-18.075,-18.519,-18.87,-19,-18.98,-18.924,-18.86,-18.831,-18.831,-18.845,-18.845,-18.842,-18.832,-18.837,-18.834,-18.836,-18.838,-18.838,-18.823,-18.828,-18.833,-18.833,-18.811,-18.804,-18.801,-18.805,-18.804,-18.793,-18.78,-18.777,-18.783,-18.774,-18.759,-18.746,-18.75,-18.74,-18.729,-18.726,-18.703,-18.694,-18.691,-18.676,-18.669,-18.638,-18.62,-18.612,-18.602,-18.578,-18.553,-18.534,-18.522,-18.505,-18.49,-18.469,-18.445,-18.445,-18.448,-18.43,-18.417,-18.408,-18.412,-18.418,-18.433,-18.432,-18.452,-18.474,-18.503,-18.538,-18.574,-18.61,-18.658,-18.7,-18.727,-18.75,-18.777,-18.796,-18.814,-18.837,-18.852,-18.855,-18.854,-18.861,-18.872,-18.874,-18.882,-18.878,-18.892,-18.893,-18.886,-18.88,-18.882,-18.886,-18.886,-18.876,-18.878,-18.872,-18.874,-18.876,-18.875,-18.859,-18.858,-18.864,-18.869,-18.876,-18.864,-18.865,-18.869,-18.87,-18.863,-18.86,-18.859,-18.862,-18.867,-18.869,-18.856,-18.861,-18.869,-18.873,-18.882,-18.875,-18.877,-18.88,-18.892,-18.881,-18.874,-18.87,-18.875,-18.887,-18.885,-18.882,-18.884,-18.893,-18.886,-18.891,-18.888,-18.875,-18.88,-18.881,-18.889,-18.893,-18.875,-18.87,-18.883,-18.89,-18.882,-18.883,-18.882,-18.888,-18.89,-18.888,-18.887,-18.889,-18.886,-18.887,-18.891,-18.883,-18.883,-18.885,-18.888,-18.884,-18.885,-18.887,-18.886,-18.896,-18.891,-18.885,-18.871,-18.888,-18.883,-18.89,-18.891,-18.868,-18.864,-18.873,-18.873,-18.875,-18.86,-18.85,-18.841,-18.839,-18.821,-18.786,-18.778,-18.794,-18.828,-18.836,-18.829,-18.823,-18.835,-18.853,-18.857,-18.862,-18.877,-18.901,-18.913,-18.912,-18.913,-18.914,-18.912,-18.914,-18.921,-18.923,-18.914,-18.91,-18.922,-18.917,-18.918,-18.918,-18.922,-18.928,-18.92,-18.924,-18.97,-19.04,-19.006,-18.867,-18.631,-18.394,-18.263,-17.887,-17.525,-17.501,-17.824,-18.303,-18.685,-18.965,-18.989,-18.927,-18.864,-18.825,-18.814,-18.825,-18.822,-18.819,-18.825,-18.833,-18.822,-18.818,-18.811,-18.803,-18.817,-18.798,-18.793,-18.792,-18.779,-18.795,-18.793,-18.779,-18.778,-18.778,-18.77,-18.767,-18.747,-18.741,-18.735,-18.735,-18.719,-18.711,-18.702,-18.696,-18.688,-18.675,-18.662,-18.64,-18.636,-18.627,-18.615,-18.588,-18.564,-18.547,-18.532,-18.505,-18.484,-18.464,-18.454,-18.436,-18.42,-18.404,-18.387,-18.383,-18.381,-18.38,-18.357,-18.355,-18.359,-18.355,-18.372,-18.398,-18.411,-18.444,-18.485,-18.522,-18.565,-18.588,-18.632,-18.672,-18.711,-18.741,-18.764,-18.774,-18.795,-18.819,-18.839,-18.841,-18.844,-18.847,-18.858,-18.861,-18.864,-18.863,-18.866,-18.872,-18.871,-18.861,-18.868,-18.866,-18.873,-18.871,-18.864,-18.856,-18.859,-18.863,-18.87,-18.86,-18.853,-18.852,-18.852,-18.861,-18.869,-18.86,-18.858,-18.856,-18.862,-18.863,-18.864,-18.864,-18.862,-18.881,-18.879,-18.867,-18.871,-18.874,-18.868,-18.878,-18.873,-18.871,-18.88,-18.886,-18.892,-18.878,-18.885,-18.884,-18.886,-18.89,-18.887,-18.885,-18.889,-18.893,-18.884,-18.886,-18.887,-18.891,-18.899,-18.907,-18.902,-18.886,-18.888,-18.887,-18.893,-18.892,-18.88,-18.882,-18.894,-18.902,-18.903,-18.895,-18.893,-18.894,-18.892,-18.89,-18.89,-18.893,-18.895,-18.9,-18.903,-18.888,-18.887,-18.895,-18.908,-18.898,-18.876,-18.884,-18.88,-18.89,-18.888,-18.877,-18.865,-18.855,-18.828,-18.806,-18.792,-18.797,-18.816,-18.839,-18.845,-18.839,-18.834,-18.849,-18.849,-18.872,-18.891,-18.901,-18.903,-18.911,-18.912,-18.919,-18.917,-18.918,-18.918,-18.924,-18.92,-18.924,-18.91,-18.914,-18.923,-18.919,-18.92,-18.918,-18.924,-18.927,-18.949,-19.002,-19.059,-18.988,-18.807,-18.56,-18.272,-17.922,-17.589,-17.514,-17.826,-18.07,-18.496,-18.894,-19.025,-19.026,-18.948,-18.906,-18.847,-18.851,-18.85,-18.862,-18.86,-18.869,-18.859,-18.861,-18.841,-18.844,-18.833,-18.848,-18.841,-18.835,-18.824,-18.823,-18.821,-18.826,-18.807,-18.806,-18.8,-18.797,-18.799,-18.794,-18.781,-18.781,-18.765,-18.76,-18.751,-18.742,-18.729,-18.726,-18.716,-18.703,-18.683,-18.671,-18.66,-18.645,-18.634,-18.607,-18.59,-18.575,-18.568,-18.543,-18.524,-18.508,-18.496,-18.482,-18.472,-18.449,-18.449,-18.441,-18.444,-18.44,-18.436,-18.426,-18.43,-18.455,-18.489,-18.512,-18.536,-18.562,-18.603,-18.645,-18.675,-18.707,-18.74,-18.767,-18.787,-18.819,-18.839,-18.839,-18.86,-18.876,-18.888,-18.879,-18.887,-18.893,-18.892,-18.895,-18.887,-18.885,-18.893,-18.891,-18.892,-18.884,-18.888,-18.875,-18.889,-18.877,-18.868,-18.866,-18.88,-18.878,-18.877,-18.86,-18.865,-18.866,-18.867,-18.862,-18.857,-18.852,-18.86,-18.859,-18.868,-18.861,-18.857,-18.857,-18.87,-18.873,-18.864,-18.855,-18.855,-18.876,-18.887,-18.886,-18.875,-18.87,-18.873,-18.881,-18.877,-18.869,-18.863,-18.874,-18.88,-18.878,-18.86,-18.861,-18.869,-18.876,-18.864,-18.859,-18.856,-18.869,-18.859,-18.868,-18.863,-18.854,-18.844,-18.854,-18.851,-18.838,-18.828,-18.811,-18.793,-18.76,-18.751,-18.752,-18.764,-18.8,-18.81,-18.802,-18.804,-18.809,-18.828,-18.843,-18.855,-18.876,-18.874,-18.873,-18.881,-18.882,-18.88,-18.879,-18.878,-18.887,-18.884,-18.88,-18.882,-18.879,-18.886,-18.893,-18.877,-18.887,-18.891,-18.906,-18.954,-19.014,-18.967,-18.827,-18.587,-18.327,-18.009,-17.606,-17.465,-17.649,-18.108,-18.541,-18.912,-19,-18.966,-18.917,-18.843,-18.825,-18.806,-18.827,-18.818,-18.828,-18.806,-18.823,-18.818,-18.818,-18.804,-18.809,-18.798,-18.805,-18.79,-18.795,-18.773,-18.775,-18.772,-18.775,-18.762,-18.76,-18.742,-18.74,-18.745,-18.737,-18.727,-18.724,-18.714,-18.717,-18.701,-18.686,-18.663,-18.658,-18.644,-18.631,-18.609,-18.596,-18.586,-18.566,-18.546,-18.518,-18.497,-18.488,-18.484,-18.464,-18.449,-18.427,-18.424,-18.414,-18.403,-18.386,-18.369,-18.367,-18.372,-18.368,-18.378,-18.389,-18.408,-18.448,-18.486,-18.499,-18.533,-18.569,-18.594,-18.625,-18.678,-18.693,-18.726,-18.749,-18.784,-18.8,-18.806,-18.81,-18.823,-18.826,-18.838,-18.831,-18.842,-18.844,-18.852,-18.852,-18.843,-18.842,-18.848,-18.853,-18.855,-18.843,-18.836,-18.833,-18.84,-18.835,-18.833,-18.822,-18.824,-18.827,-18.835,-18.823,-18.825,-18.822,-18.829,-18.824,-18.823,-18.808,-18.813,-18.817,-18.822,-18.822,-18.821,-18.821,-18.833,-18.833,-18.834,-18.822,-18.836,-18.841,-18.841,-18.835,-18.833,-18.839,-18.843,-18.847,-18.847,-18.84,-18.84,-18.845,-18.845,-18.856,-18.84,-18.847,-18.843,-18.845,-18.842,-18.838,-18.836,-18.843,-18.845,-18.84,-18.84,-18.833,-18.842,-18.853,-18.853,-18.85,-18.842,-18.846,-18.847,-18.842,-18.844,-18.842,-18.842,-18.837,-18.844,-18.85,-18.835,-18.834,-18.831,-18.832,-18.817,-18.819,-18.804,-18.809,-18.79,-18.772,-18.738,-18.734,-18.737,-18.746,-18.769,-18.773,-18.773,-18.789,-18.802,-18.811,-18.829,-18.851,-18.872,-18.886,-18.885,-18.878,-18.879,-18.88,-18.888,-18.88,-18.878,-18.883,-18.886,-18.882,-18.894,-18.891,-18.882,-18.883,-18.888,-18.926,-18.983,-19.01,-18.929,-18.742,-18.505,-18.257,-17.892,-17.533,-17.473,-17.799,-18.263,-18.67,-18.858,-18.997,-18.992,-18.914,-18.854,-18.808,-18.824,-18.831,-18.84,-18.835,-18.842,-18.839,-18.834,-18.831,-18.83,-18.817,-18.818,-18.817,-18.809,-18.798,-18.795,-18.798,-18.798,-18.792,-18.785,-18.772,-18.772,-18.768,-18.764,-18.759,-18.751,-18.733,-18.742,-18.722,-18.704,-18.701,-18.693,-18.684,-18.677,-18.66,-18.652,-18.641,-18.625,-18.612,-18.591,-18.571,-18.553,-18.548,-18.533,-18.508,-18.489,-18.474,-18.465,-18.463,-18.449,-18.432,-18.427,-18.423,-18.422,-18.416,-18.418,-18.425,-18.442,-18.467,-18.497,-18.53,-18.564,-18.597,-18.642,-18.674,-18.699,-18.736,-18.766,-18.807,-18.828,-18.837,-18.85,-18.862,-18.87,-18.872,-18.877,-18.878,-18.883,-18.891,-18.898,-18.897,-18.891,-18.894,-18.904,-18.899,-18.882,-18.878,-18.87,-18.875,-18.885,-18.886,-18.897,-18.902,-18.906,-18.918,-18.901,-18.896,-18.892,-18.889,-18.883,-18.882,-18.866,-18.86,-18.869,-18.866,-18.871,-18.871,-18.866,-18.867,-18.866,-18.864,-18.866,-18.862,-18.863,-18.878,-18.868,-18.868,-18.866,-18.86,-18.872,-18.872,-18.875,-18.866,-18.87,-18.877,-18.868,-18.868,-18.858,-18.865,-18.864,-18.874,-18.857,-18.856,-18.856,-18.859,-18.869,-18.861,-18.86,-18.854,-18.863,-18.867,-18.867,-18.86,-18.861,-18.867,-18.859,-18.864,-18.859,-18.851,-18.863,-18.87,-18.874,-18.865,-18.869,-18.87,-18.876,-18.879,-18.869,-18.869,-18.875,-18.869,-18.865,-18.855,-18.854,-18.849,-18.857,-18.846,-18.836,-18.816,-18.81,-18.798,-18.764,-18.756,-18.76,-18.795,-18.797,-18.805,-18.807,-18.809,-18.82,-18.827,-18.85,-18.863,-18.877,-18.894,-18.9,-18.901,-18.902,-18.894,-18.899,-18.899,-18.901,-18.897,-18.892,-18.886,-18.905,-18.908,-18.905,-18.892,-18.915,-18.973,-19.033,-19,-18.841,-18.611,-18.371,-18.101,-17.654,-17.501,-17.681,-18.135,-18.577,-18.904,-19.024,-18.967,-18.914,-18.86,-18.848,-18.841,-18.861,-18.863,-18.868,-18.877,-18.871,-18.866,-18.868,-18.859,-18.864,-18.85,-18.846,-18.841,-18.835,-18.829,-18.826,-18.813,-18.818,-18.813,-18.821,-18.807,-18.8,-18.787,-18.783,-18.778,-18.772,-18.756,-18.747,-18.741,-18.73,-18.723,-18.704,-18.689,-18.683,-18.673,-18.654,-18.629,-18.609,-18.593,-18.589,-18.576,-18.56,-18.529,-18.52,-18.499,-18.485,-18.467,-18.448,-18.438,-18.443,-18.431,-18.419,-18.409,-18.414,-18.406,-18.42,-18.433,-18.442,-18.465,-18.514,-18.537,-18.561,-18.597,-18.629,-18.682,-18.715,-18.749,-18.77,-18.799,-18.814,-18.836,-18.84,-18.849,-18.862,-18.867,-18.878,-18.879,-18.869,-18.873,-18.875,-18.881,-18.889,-18.886,-18.876,-18.879,-18.879,-18.884,-18.87,-18.86,-18.867,-18.869,-18.86,-18.864,-18.855,-18.862,-18.867,-18.868,-18.859,-18.858,-18.862,-18.864,-18.865,-18.865,-18.855,-18.859,-18.859,-18.868,-18.857,-18.85,-18.859,-18.869,-18.875,-18.87,-18.859,-18.866,-18.869,-18.886,-18.879,-18.878,-18.866,-18.877,-18.881,-18.874,-18.876,-18.869,-18.874,-18.883,-18.89,-18.874,-18.874,-18.88,-18.89,-18.9,-18.881,-18.883,-18.884,-18.886,-18.886,-18.876,-18.879,-18.884,-18.89,-18.893,-18.886,-18.874,-18.874,-18.877,-18.879,-18.875,-18.862,-18.859,-18.853,-18.84,-18.817,-18.789,-18.78,-18.778,-18.789,-18.799,-18.807,-18.812,-18.828,-18.823,-18.831,-18.848,-18.868,-18.893,-18.903,-18.911,-18.917,-18.905,-18.903,-18.914,-18.907,-18.905,-18.91,-18.913,-18.918,-18.912,-18.905,-18.904,-18.905,-18.917,-18.927,-18.951,-19.004,-19.031,-18.944,-18.752,-18.495,-18.212,-17.84,-17.569,-17.558,-17.897,-18.379,-18.788,-19.048,-19.034,-18.975,-18.901,-18.857,-18.836,-18.85,-18.856,-18.857,-18.854,-18.865,-18.857,-18.857,-18.852,-18.853,-18.843,-18.847,-18.833,-18.825,-18.817,-18.823,-18.818,-18.813,-18.804,-18.8,-18.796,-18.798,-18.79,-18.78,-18.765,-18.758,-18.764,-18.754,-18.744,-18.727,-18.726,-18.721,-18.701,-18.677,-18.669,-18.663,-18.652,-18.641,-18.616,-18.588,-18.576,-18.568,-18.559,-18.541,-18.517,-18.502,-18.488,-18.481,-18.473,-18.449,-18.44,-18.43,-18.434,-18.425,-18.418,-18.435,-18.454,-18.484,-18.505,-18.528,-18.551,-18.579,-18.624,-18.662,-18.69,-18.713,-18.75,-18.787,-18.818,-18.828,-18.848,-18.863,-18.87,-18.882,-18.89,-18.891,-18.896,-18.9,-18.904,-18.89,-18.891,-18.888,-18.899,-18.901,-18.901,-18.89,-18.892,-18.885,-18.892,-18.885,-18.88,-18.883,-18.875,-18.878,-18.884,-18.873,-18.873,-18.88,-18.878,-18.873,-18.872,-18.86,-18.871,-18.877,-18.875,-18.868,-18.875,-18.872,-18.879,-18.879,-18.874,-18.882,-18.887,-18.895,-18.894,-18.885,-18.878,-18.883,-18.895,-18.889,-18.89,-18.897,-18.897,-18.892,-18.895,-18.89,-18.893,-18.899,-18.896,-18.897,-18.897,-18.895,-18.891,-18.9,-18.909,-18.894,-18.894,-18.899,-18.903,-18.909,-18.902,-18.892,-18.878,-18.885,-18.889,-18.886,-18.869,-18.851,-18.85,-18.832,-18.798,-18.784,-18.794,-18.808,-18.827,-18.836,-18.835,-18.839,-18.846,-18.879,-18.893,-18.902,-18.906,-18.91,-18.917,-18.921,-18.921,-18.92,-18.922,-18.922,-18.918,-18.92,-18.916,-18.915,-18.929,-18.932,-18.925,-18.924,-18.93,-18.951,-19.012,-19.05,-19.02,-18.893,-18.679,-18.412,-18.104,-17.692,-17.522,-17.644,-18.08,-18.532,-18.908,-19.05,-19.008,-18.966,-18.897,-18.886,-18.845,-18.881,-18.859,-18.869,-18.841,-18.858,-18.852,-18.871,-18.856,-18.854,-18.844,-18.849,-18.837,-18.838,-18.814,-18.816,-18.82,-18.829,-18.819,-18.811,-18.792,-18.79,-18.783,-18.785,-18.777,-18.766,-18.762,-18.757,-18.741,-18.731,-18.711,-18.706,-18.706,-18.691,-18.665,-18.646,-18.63,-18.62,-18.605,-18.592,-18.565,-18.539,-18.533,-18.519,-18.503,-18.488,-18.478,-18.466,-18.466,-18.441,-18.43,-18.432,-18.436,-18.433,-18.436,-18.445,-18.462,-18.484,-18.521,-18.551,-18.578,-18.611,-18.654,-18.694,-18.729,-18.737,-18.763,-18.786,-18.826,-18.843,-18.849,-18.855,-18.872,-18.886,-18.895,-18.89,-18.888,-18.885,-18.89,-18.887,-18.899,-18.885,-18.896,-18.897,-18.895,-18.891,-18.881,-18.876,-18.881,-18.878,-18.891,-18.877,-18.874,-18.873,-18.882,-18.871,-18.864,-18.866,-18.874,-18.873,-18.868,-18.869,-18.868,-18.876,-18.883,-18.876,-18.879,-18.874,-18.878,-18.888,-18.893,-18.881,-18.883,-18.881,-18.891,-18.887,-18.882,-18.884,-18.884,-18.891,-18.901,-18.896,-18.889,-18.891,-18.903,-18.902,-18.899,-18.891,-18.892,-18.897,-18.898,-18.9,-18.891,-18.897,-18.908,-18.905,-18.904,-18.894,-18.895,-18.901,-18.907,-18.905,-18.901,-18.903,-18.902,-18.913,-18.911,-18.903,-18.897,-18.895,-18.909,-18.91,-18.904,-18.897,-18.902,-18.907,-18.904,-18.898,-18.89,-18.889,-18.878,-18.88,-18.848,-18.829,-18.813,-18.805,-18.801,-18.803,-18.812,-18.839,-18.843,-18.847,-18.854,-18.851,-18.872,-18.893,-18.917,-18.914,-18.918,-18.924,-18.932,-18.932,-18.931,-18.927,-18.928,-18.942,-18.936,-18.941,-18.929,-18.936,-18.941,-18.949,-18.943,-18.944,-18.987,-19.055,-19.035,-18.904,-18.669,-18.416,-18.131,-17.71,-17.529,-17.65,-18.074,-18.53,-18.913,-19.032,-19.019,-18.99,-18.918,-18.889,-18.866,-18.887,-18.864,-18.886,-18.879,-18.888,-18.863,-18.867,-18.86,-18.874,-18.858,-18.863,-18.845,-18.845,-18.833,-18.842,-18.823,-18.827,-18.814,-18.817,-18.818,-18.814,-18.799,-18.791,-18.782,-18.783,-18.764,-18.756,-18.747,-18.746,-18.738,-18.728,-18.702,-18.701,-18.685,-18.682,-18.66,-18.636,-18.619,-18.61,-18.585,-18.574,-18.545,-18.526,-18.519,-18.502,-18.489,-18.472,-18.461,-18.45,-18.456,-18.433,-18.438,-18.422,-18.432,-18.436,-18.452,-18.469,-18.492,-18.523,-18.562,-18.598,-18.634,-18.661,-18.702,-18.736,-18.776,-18.797,-18.814,-18.83,-18.859,-18.859,-18.875,-18.872,-18.88,-18.882,-18.891,-18.89,-18.889,-18.889,-18.901,-18.896,-18.896,-18.888,-18.889,-18.887,-18.893,-18.893,-18.881,-18.867,-18.878,-18.884,-18.872,-18.865,-18.87,-18.866,-18.87,-18.872,-18.871,-18.86,-18.856,-18.86,-18.863,-18.868,-18.859,-18.861,-18.877,-18.861,-18.867,-18.866,-18.871,-18.875,-18.876,-18.876,-18.869,-18.871,-18.875,-18.882,-18.879,-18.871,-18.874,-18.881,-18.883,-18.881,-18.878,-18.863,-18.88,-18.884,-18.88,-18.861,-18.87,-18.877,-18.882,-18.882,-18.868,-18.875,-18.878,-18.875,-18.877,-18.886,-18.885,-18.886,-18.886,-18.889,-18.893,-18.877,-18.875,-18.89,-18.887,-18.874,-18.878,-18.882,-18.883,-18.888,-18.881,-18.871,-18.88,-18.884,-18.884,-18.871,-18.864,-18.87,-18.87,-18.879,-18.869,-18.85,-18.86,-18.864,-18.869,-18.863,-18.854,-18.85,-18.857,-18.858,-18.845,-18.833,-18.814,-18.809,-18.804,-18.781,-18.742,-18.74,-18.765,-18.79,-18.798,-18.784,-18.781,-18.807,-18.804,-18.815,-18.82,-18.845,-18.863,-18.874,-18.881,-18.868,-18.864,-18.864,-18.869,-18.881,-18.875,-18.863,-18.87,-18.876,-18.879,-18.881,-18.869,-18.877,-18.889,-18.938,-18.991,-18.988,-18.866,-18.655,-18.425,-18.173,-17.73,-17.538,-17.495,-17.775,-18.248,-18.632,-18.946,-18.981,-18.936,-18.87,-18.813,-18.809,-18.829,-18.834,-18.84,-18.825,-18.826,-18.829,-18.83,-18.821,-18.816,-18.808,-18.81,-18.8,-18.813,-18.788,-18.787,-18.784,-18.791,-18.781,-18.775,-18.759,-18.757,-18.756,-18.756,-18.735,-18.726,-18.713,-18.715,-18.707,-18.692,-18.674,-18.672,-18.662,-18.651,-18.64,-18.621,-18.604,-18.588,-18.579,-18.55,-18.527,-18.51,-18.497,-18.477,-18.463,-18.437,-18.428,-18.408,-18.411,-18.385,-18.374,-18.368,-18.367,-18.362,-18.365,-18.36,-18.367,-18.389,-18.417,-18.437,-18.477,-18.505,-18.546,-18.59,-18.633,-18.659,-18.694,-18.731,-18.754,-18.786,-18.801,-18.808,-18.811,-18.821,-18.83,-18.838,-18.838,-18.844,-18.852,-18.858,-18.859,-18.85,-18.852,-18.857,-18.862,-18.856,-18.842,-18.844,-18.845,-18.842,-18.845,-18.836,-18.836,-18.835,-18.853,-18.849,-18.832,-18.836,-18.829,-18.842,-18.839,-18.832,-18.836,-18.84,-18.844,-18.837,-18.829,-18.831,-18.84,-18.85,-18.858,-18.849,-18.848,-18.851,-18.86,-18.856,-18.86,-18.855,-18.863,-18.871,-18.871,-18.865,-18.867,-18.872,-18.873,-18.875,-18.869,-18.869,-18.862,-18.868,-18.876,-18.874,-18.869,-18.87,-18.876,-18.887,-18.874,-18.874,-18.868,-18.874,-18.878,-18.882,-18.871,-18.869,-18.872,-18.876,-18.866,-18.866,-18.868,-18.877,-18.884,-18.881,-18.877,-18.872,-18.879,-18.88,-18.876,-18.873,-18.872,-18.867,-18.862,-18.856,-18.852,-18.853,-18.857,-18.86,-18.835,-18.822,-18.807,-18.78,-18.763,-18.765,-18.775,-18.787,-18.801,-18.813,-18.811,-18.823,-18.814,-18.818,-18.853,-18.87,-18.885,-18.873,-18.875,-18.888,-18.888,-18.885,-18.884,-18.876,-18.889,-18.89,-18.887,-18.889,-18.886,-18.89,-18.891,-18.898,-18.89,-18.914,-18.982,-19.029,-18.941,-18.739,-18.478,-18.206,-17.84,-17.538,-17.506,-17.863,-18.33,-18.752,-18.993,-18.995,-18.966,-18.898,-18.849,-18.815,-18.818,-18.814,-18.823,-18.827,-18.83,-18.816,-18.812,-18.816,-18.811,-18.808,-18.802,-18.789,-18.788,-18.792,-18.795,-18.789,-18.776,-18.763,-18.765,-18.764,-18.758,-18.745,-18.735,-18.734,-18.734,-18.729,-18.718,-18.698,-18.698,-18.684,-18.668,-18.659,-18.64,-18.622,-18.614,-18.606,-18.589,-18.574,-18.553,-18.539,-18.524,-18.498,-18.467,-18.461,-18.454,-18.435,-18.409,-18.402,-18.386,-18.383,-18.378,-18.376,-18.364,-18.366,-18.376,-18.389,-18.399,-18.417,-18.435,-18.464,-18.488,-18.543,-18.578,-18.607,-18.647,-18.687,-18.719,-18.74,-18.757,-18.768,-18.798,-18.799,-18.81,-18.812,-18.818,-18.822,-18.826,-18.828,-18.828,-18.824,-18.825,-18.827,-18.819,-18.812,-18.814,-18.817,-18.819,-18.81,-18.81,-18.808,-18.81,-18.806,-18.792,-18.797,-18.799,-18.801,-18.803,-18.791,-18.783,-18.783,-18.792,-18.796,-18.789,-18.785,-18.791,-18.796,-18.795,-18.789,-18.785,-18.791,-18.805,-18.804,-18.799,-18.789,-18.796,-18.798,-18.804,-18.803,-18.789,-18.791,-18.806,-18.81,-18.813,-18.802,-18.796,-18.794,-18.805,-18.807,-18.801,-18.798,-18.808,-18.816,-18.812,-18.798,-18.786,-18.784,-18.786,-18.785,-18.775,-18.768,-18.764,-18.741,-18.715,-18.698,-18.685,-18.699,-18.722,-18.738,-18.731,-18.739,-18.749,-18.765,-18.787,-18.799,-18.807,-18.817,-18.828,-18.83,-18.823,-18.82,-18.82,-18.827,-18.828,-18.824,-18.818,-18.825,-18.825,-18.832,-18.837,-18.823,-18.823,-18.832,-18.87,-18.939,-18.941,-18.833,-18.635,-18.508,-18.234,-17.878,-17.508,-17.39,-17.633,-18.097,-18.533,-18.88,-18.94,-18.898,-18.847,-18.77,-18.751,-18.739,-18.769,-18.755,-18.763,-18.743,-18.753,-18.741,-18.756,-18.739,-18.753,-18.731,-18.735,-18.723,-18.728,-18.705,-18.716,-18.703,-18.715,-18.7,-18.696,-18.682,-18.682,-18.672,-18.672,-18.654,-18.651,-18.646,-18.643,-18.628,-18.613,-18.601,-18.591,-18.583,-18.57,-18.557,-18.538,-18.52,-18.507,-18.486,-18.459,-18.442,-18.43,-18.41,-18.398,-18.371,-18.354,-18.347,-18.342,-18.337,-18.317,-18.31,-18.303,-18.314,-18.316,-18.325,-18.325,-18.35,-18.379,-18.419,-18.447,-18.474,-18.514,-18.556,-18.587,-18.621,-18.635,-18.677,-18.689,-18.72,-18.722,-18.733,-18.738,-18.754,-18.757,-18.765,-18.755,-18.762,-18.774,-18.779,-18.781,-18.773,-18.764,-18.771,-18.77,-18.772,-18.755,-18.761,-18.766,-18.764,-18.761,-18.761,-18.75,-18.753,-18.756,-18.758,-18.752,-18.749,-18.749,-18.75,-18.747,-18.75,-18.743,-18.744,-18.751,-18.753,-18.749,-18.741,-18.747,-18.75,-18.758,-18.757,-18.755,-18.752,-18.759,-18.768,-18.768,-18.762,-18.767,-18.767,-18.773,-18.78,-18.766,-18.769,-18.778,-18.782,-18.78,-18.767,-18.771,-18.776,-18.777,-18.786,-18.779,-18.781,-18.78,-18.787,-18.777,-18.775,-18.77,-18.777,-18.77,-18.779,-18.779,-18.778,-18.774,-18.767,-18.767,-18.753,-18.742,-18.737,-18.729,-18.711,-18.683,-18.65,-18.647,-18.67,-18.693,-18.701,-18.709,-18.722,-18.731,-18.742,-18.758,-18.764,-18.788,-18.79,-18.794,-18.797,-18.796,-18.792,-18.794,-18.799,-18.805,-18.791,-18.798,-18.797,-18.803,-18.805,-18.802,-18.801,-18.809,-18.838,-18.89,-18.914,-18.833,-18.655,-18.426,-18.156,-17.793,-17.45,-17.411,-17.548,-17.989,-18.438,-18.793,-18.932,-18.906,-18.834,-18.772,-18.743,-18.733,-18.757,-18.757,-18.761,-18.743,-18.75,-18.751,-18.752,-18.736,-18.736,-18.731,-18.722,-18.728,-18.731,-18.715,-18.719,-18.708,-18.707,-18.698,-18.691,-18.686,-18.686,-18.682,-18.677,-18.656,-18.658,-18.653,-18.642,-18.627,-18.61,-18.607,-18.6,-18.588,-18.58,-18.564,-18.539,-18.53,-18.516,-18.492,-18.475,-18.454,-18.442,-18.424,-18.406,-18.376,-18.365,-18.355,-18.348,-18.342,-18.326,-18.323,-18.319,-18.313,-18.314,-18.325,-18.328,-18.346,-18.377,-18.412,-18.435,-18.458,-18.495,-18.537,-18.58,-18.614,-18.641,-18.672,-18.7,-18.721,-18.732,-18.739,-18.742,-18.763,-18.771,-18.778,-18.782,-18.781,-18.782,-18.792,-18.79,-18.787,-18.782,-18.787,-18.787,-18.783,-18.78,-18.767,-18.771,-18.777,-18.782,-18.767,-18.767,-18.772,-18.774,-18.768,-18.761,-18.759,-18.765,-18.767,-18.762,-18.766,-18.754,-18.757,-18.762,-18.77,-18.764,-18.758,-18.764,-18.766,-18.777,-18.772,-18.761,-18.766,-18.774,-18.777,-18.777,-18.768,-18.773,-18.779,-18.783,-18.78,-18.775,-18.772,-18.781,-18.789,-18.782,-18.775,-18.777,-18.779,-18.784,-18.779,-18.782,-18.775,-18.779,-18.783,-18.793,-18.784,-18.783,-18.783,-18.793,-18.799,-18.782,-18.774,-18.777,-18.787,-18.79,-18.788,-18.785,-18.787,-18.795,-18.798,-18.789,-18.785,-18.786,-18.791,-18.8,-18.793,-18.786,-18.784,-18.791,-18.794,-18.795,-18.785,-18.782,-18.796,-18.798,-18.793,-18.784,-18.797,-18.786,-18.783,-18.774,-18.774,-18.773,-18.767,-18.773,-18.751,-18.743,-18.719,-18.696,-18.687,-18.69,-18.711,-18.724,-18.729,-18.729,-18.738,-18.742,-18.744,-18.762,-18.782,-18.804,-18.807,-18.804,-18.812,-18.822,-18.821,-18.819,-18.811,-18.817,-18.818,-18.818,-18.824,-18.816,-18.817,-18.82,-18.821,-18.82,-18.837,-18.885,-18.943,-18.896,-18.827,-18.624,-18.374,-18.14,-17.725,-17.423,-17.462,-17.86,-18.324,-18.692,-18.913,-18.898,-18.834,-18.774,-18.75,-18.753,-18.759,-18.76,-18.76,-18.767,-18.763,-18.758,-18.754,-18.752,-18.754,-18.756,-18.742,-18.734,-18.733,-18.726,-18.734,-18.732,-18.715,-18.712,-18.711,-18.698,-18.692,-18.689,-18.682,-18.675,-18.67,-18.664,-18.648,-18.644,-18.641,-18.629,-18.615,-18.592,-18.582,-18.569,-18.557,-18.544,-18.52,-18.496,-18.486,-18.474,-18.452,-18.423,-18.4,-18.384,-18.378,-18.369,-18.347,-18.331,-18.327,-18.325,-18.321,-18.301,-18.297,-18.302,-18.316,-18.328,-18.342,-18.366,-18.39,-18.436,-18.474,-18.507,-18.543,-18.583,-18.625,-18.644,-18.67,-18.693,-18.711,-18.742,-18.757,-18.765,-18.771,-18.778,-18.789,-18.798,-18.793,-18.791,-18.792,-18.796,-18.8,-18.793,-18.793,-18.785,-18.8,-18.804,-18.8,-18.788,-18.779,-18.78,-18.79,-18.789,-18.784,-18.778,-18.778,-18.791,-18.79,-18.775,-18.776,-18.784,-18.787,-18.786,-18.776,-18.773,-18.779,-18.787,-18.782,-18.787,-18.78,-18.788,-18.787,-18.799,-18.792,-18.79,-18.792,-18.797,-18.798,-18.802,-18.801,-18.803,-18.812,-18.807,-18.81,-18.806,-18.814,-18.81,-18.816,-18.813,-18.803,-18.806,-18.808,-18.816,-18.821,-18.812,-18.817,-18.814,-18.817,-18.811,-18.808,-18.811,-18.81,-18.823,-18.819,-18.811,-18.807,-18.813,-18.821,-18.813,-18.813,-18.811,-18.811,-18.819,-18.829,-18.82,-18.818,-18.8,-18.812,-18.82,-18.821,-18.824,-18.823,-18.835,-18.825,-18.819,-18.811,-18.82,-18.831,-18.826,-18.812,-18.803,-18.809,-18.807,-18.801,-18.797,-18.767,-18.768,-18.765,-18.738,-18.715,-18.719,-18.743,-18.754,-18.76,-18.757,-18.761,-18.776,-18.782,-18.788,-18.804,-18.82,-18.827,-18.837,-18.84,-18.845,-18.837,-18.836,-18.842,-18.849,-18.846,-18.837,-18.832,-18.837,-18.848,-18.842,-18.836,-18.841,-18.842,-18.847,-18.865,-18.927,-18.975,-18.92,-18.752,-18.501,-18.217,-17.868,-17.522,-17.438,-17.732,-18.198,-18.617,-18.92,-18.954,-18.911,-18.853,-18.787,-18.767,-18.765,-18.779,-18.783,-18.782,-18.768,-18.775,-18.774,-18.778,-18.761,-18.752,-18.761,-18.763,-18.762,-18.753,-18.743,-18.735,-18.734,-18.732,-18.715,-18.712,-18.713,-18.713,-18.714,-18.701,-18.696,-18.682,-18.676,-18.676,-18.659,-18.646,-18.642,-18.635,-18.62,-18.606,-18.581,-18.568,-18.553,-18.535,-18.507,-18.491,-18.473,-18.475,-18.461,-18.441,-18.416,-18.401,-18.389,-18.376,-18.369,-18.348,-18.341,-18.343,-18.338,-18.342,-18.34,-18.341,-18.364,-18.403,-18.427,-18.45,-18.491,-18.51,-18.55,-18.583,-18.612,-18.646,-18.674,-18.711,-18.739,-18.749,-18.757,-18.765,-18.782,-18.79,-18.791,-18.795,-18.796,-18.81,-18.813,-18.804,-18.802,-18.805,-18.803,-18.807,-18.797,-18.791,-18.79,-18.792,-18.801,-18.791,-18.78,-18.78,-18.79,-18.789,-18.79,-18.777,-18.775,-18.779,-18.778,-18.776,-18.77,-18.767,-18.777,-18.778,-18.783,-18.775,-18.772,-18.772,-18.777,-18.779,-18.778,-18.777,-18.782,-18.792,-18.79,-18.777,-18.781,-18.784,-18.798,-18.79,-18.784,-18.791,-18.788,-18.796,-18.796,-18.797,-18.793,-18.787,-18.799,-18.8,-18.79,-18.782,-18.788,-18.796,-18.8,-18.798,-18.789,-18.791,-18.798,-18.801,-18.788,-18.787,-18.789,-18.799,-18.795,-18.8,-18.791,-18.781,-18.774,-18.787,-18.778,-18.776,-18.77,-18.763,-18.759,-18.745,-18.721,-18.684,-18.684,-18.705,-18.724,-18.728,-18.731,-18.724,-18.735,-18.756,-18.745,-18.758,-18.768,-18.795,-18.812,-18.802,-18.81,-18.818,-18.819,-18.82,-18.82,-18.805,-18.815,-18.816,-18.81,-18.811,-18.809,-18.81,-18.819,-18.821,-18.821,-18.813,-18.839,-18.908,-18.943,-18.867,-18.682,-18.438,-18.159,-17.787,-17.452,-17.377,-17.707,-18.177,-18.605,-18.895,-18.915,-18.894,-18.835,-18.791,-18.744,-18.737,-18.743,-18.746,-18.758,-18.757,-18.751,-18.744,-18.748,-18.737,-18.744,-18.728,-18.731,-18.73,-18.727,-18.729,-18.711,-18.706,-18.708,-18.709,-18.707,-18.692,-18.68,-18.683,-18.673,-18.666,-18.657,-18.642,-18.635,-18.633,-18.622,-18.603,-18.597,-18.577,-18.577,-18.557,-18.548,-18.535,-18.516,-18.498,-18.481,-18.457,-18.432,-18.417,-18.406,-18.392,-18.378,-18.355,-18.345,-18.332,-18.329,-18.317,-18.306,-18.307,-18.311,-18.325,-18.341,-18.353,-18.372,-18.406,-18.436,-18.473,-18.507,-18.544,-18.589,-18.627,-18.658,-18.674,-18.699,-18.717,-18.738,-18.754,-18.758,-18.77,-18.773,-18.787,-18.786,-18.786,-18.791,-18.795,-18.795,-18.803,-18.801,-18.792,-18.794,-18.801,-18.796,-18.801,-18.786,-18.788,-18.791,-18.789,-18.778,-18.773,-18.773,-18.777,-18.786,-18.783,-18.782,-18.773,-18.771,-18.777,-18.77,-18.764,-18.766,-18.773,-18.779,-18.773,-18.77,-18.778,-18.772,-18.78,-18.788,-18.779,-18.784,-18.788,-18.791,-18.789,-18.781,-18.783,-18.787,-18.8,-18.803,-18.792,-18.791,-18.787,-18.794,-18.794,-18.788,-18.794,-18.79,-18.805,-18.805,-18.803,-18.799,-18.798,-18.797,-18.803,-18.805,-18.795,-18.79,-18.794,-18.806,-18.797,-18.797,-18.795,-18.799,-18.807,-18.805,-18.795,-18.8,-18.801,-18.803,-18.801,-18.792,-18.788,-18.787,-18.793,-18.794,-18.79,-18.786,-18.784,-18.78,-18.765,-18.754,-18.733,-18.704,-18.696,-18.712,-18.725,-18.734,-18.739,-18.744,-18.744,-18.747,-18.755,-18.771,-18.789,-18.805,-18.812,-18.807,-18.81,-18.818,-18.825,-18.818,-18.816,-18.82,-18.825,-18.83,-18.825,-18.816,-18.819,-18.829,-18.832,-18.823,-18.821,-18.854,-18.925,-18.952,-18.856,-18.765,-18.539,-18.279,-17.987,-17.548,-17.386,-17.548,-18,-18.446,-18.809,-18.921,-18.888,-18.839,-18.778,-18.765,-18.743,-18.76,-18.757,-18.764,-18.758,-18.762,-18.755,-18.761,-18.759,-18.762,-18.747,-18.732,-18.733,-18.734,-18.722,-18.722,-18.708,-18.706,-18.709,-18.711,-18.692,-18.68,-18.677,-18.682,-18.671,-18.668,-18.656,-18.646,-18.64,-18.635,-18.624,-18.601,-18.59,-18.582,-18.567,-18.554,-18.527,-18.509,-18.496,-18.477,-18.462,-18.43,-18.406,-18.398,-18.39,-18.379,-18.351,-18.339,-18.326,-18.32,-18.313,-18.3,-18.296,-18.298,-18.307,-18.314,-18.331,-18.354,-18.386,-18.422,-18.464,-18.491,-18.528,-18.567,-18.608,-18.627,-18.655,-18.675,-18.701,-18.726,-18.748,-18.751,-18.758,-18.761,-18.774,-18.786,-18.779,-18.768,-18.772,-18.781,-18.793,-18.782,-18.774,-18.779,-18.785,-18.79,-18.791,-18.782,-18.776,-18.781,-18.782,-18.782,-18.769,-18.765,-18.767,-18.765,-18.763,-18.758,-18.756,-18.761,-18.76,-18.754,-18.756,-18.753,-18.757,-18.773,-18.765,-18.763,-18.758,-18.767,-18.761,-18.765,-18.768,-18.765,-18.764,-18.775,-18.774,-18.777,-18.769,-18.768,-18.774,-18.782,-18.781,-18.776,-18.776,-18.78,-18.779,-18.787,-18.78,-18.777,-18.789,-18.788,-18.785,-18.777,-18.773,-18.782,-18.781,-18.781,-18.775,-18.775,-18.784,-18.789,-18.783,-18.778,-18.782,-18.78,-18.784,-18.784,-18.776,-18.773,-18.775,-18.778,-18.782,-18.78,-18.777,-18.778,-18.785,-18.786,-18.777,-18.773,-18.772,-18.784,-18.783,-18.774,-18.775,-18.778,-18.784,-18.788,-18.786,-18.775,-18.775,-18.769,-18.773,-18.764,-18.762,-18.757,-18.753,-18.737,-18.726,-18.703,-18.676,-18.668,-18.682,-18.712,-18.713,-18.712,-18.716,-18.724,-18.733,-18.727,-18.737,-18.752,-18.777,-18.797,-18.793,-18.794,-18.795,-18.798,-18.799,-18.795,-18.796,-18.795,-18.809,-18.804,-18.803,-18.799,-18.799,-18.801,-18.809,-18.809,-18.829,-18.898,-18.938,-18.853,-18.662,-18.417,-18.167,-17.803,-17.41,-17.371,-17.703,-18.169,-18.572,-18.849,-18.88,-18.814,-18.765,-18.737,-18.725,-18.728,-18.741,-18.737,-18.75,-18.743,-18.741,-18.728,-18.732,-18.731,-18.739,-18.732,-18.72,-18.711,-18.706,-18.701,-18.696,-18.681,-18.68,-18.676,-18.677,-18.679,-18.673,-18.658,-18.655,-18.654,-18.652,-18.631,-18.621,-18.617,-18.609,-18.596,-18.576,-18.56,-18.546,-18.537,-18.524,-18.501,-18.484,-18.473,-18.465,-18.454,-18.43,-18.403,-18.379,-18.361,-18.351,-18.34,-18.326,-18.309,-18.304,-18.296,-18.281,-18.277,-18.271,-18.287,-18.295,-18.316,-18.337,-18.37,-18.384,-18.423,-18.462,-18.502,-18.536,-18.581,-18.622,-18.652,-18.668,-18.694,-18.715,-18.739,-18.752,-18.759,-18.758,-18.771,-18.78,-18.782,-18.782,-18.781,-18.779,-18.782,-18.786,-18.788,-18.78,-18.785,-18.79,-18.791,-18.788,-18.771,-18.776,-18.776,-18.774,-18.777,-18.765,-18.766,-18.774,-18.779,-18.768,-18.759,-18.764,-18.763,-18.765,-18.765,-18.764,-18.763,-18.76,-18.762,-18.763,-18.753,-18.765,-18.771,-18.775,-18.771,-18.772,-18.777,-18.789,-18.789,-18.783,-18.78,-18.773,-18.777,-18.787,-18.792,-18.791,-18.789,-18.788,-18.789,-18.79,-18.791,-18.788,-18.797,-18.809,-18.803,-18.801,-18.802,-18.796,-18.806,-18.815,-18.8,-18.794,-18.802,-18.807,-18.82,-18.808,-18.806,-18.799,-18.806,-18.815,-18.812,-18.8,-18.809,-18.818,-18.821,-18.816,-18.822,-18.822,-18.825,-18.814,-18.818,-18.818,-18.814,-18.822,-18.82,-18.824,-18.815,-18.816,-18.814,-18.82,-18.808,-18.815,-18.81,-18.812,-18.807,-18.792,-18.771,-18.76,-18.735,-18.721,-18.722,-18.729,-18.743,-18.755,-18.764,-18.769,-18.774,-18.766,-18.773,-18.799,-18.82,-18.838,-18.836,-18.832,-18.84,-18.847,-18.845,-18.848,-18.848,-18.85,-18.848,-18.849,-18.837,-18.837,-18.852,-18.857,-18.857,-18.844,-18.846,-18.878,-18.935,-18.975,-18.886,-18.71,-18.465,-18.181,-17.819,-17.505,-17.445,-17.786,-18.259,-18.679,-18.948,-18.952,-18.934,-18.868,-18.81,-18.775,-18.764,-18.782,-18.793,-18.792,-18.786,-18.78,-18.773,-18.776,-18.783,-18.779,-18.767,-18.768,-18.757,-18.757,-18.761,-18.762,-18.749,-18.745,-18.746,-18.733,-18.718,-18.72,-18.716,-18.714,-18.703,-18.685,-18.682,-18.68,-18.677,-18.661,-18.642,-18.628,-18.622,-18.609,-18.592,-18.582,-18.574,-18.56,-18.545,-18.526,-18.496,-18.474,-18.457,-18.444,-18.427,-18.407,-18.388,-18.371,-18.371,-18.362,-18.352,-18.341,-18.338,-18.349,-18.348,-18.349,-18.366,-18.389,-18.412,-18.444,-18.475,-18.5,-18.54,-18.59,-18.634,-18.662,-18.687,-18.715,-18.739,-18.754,-18.773,-18.78,-18.793,-18.806,-18.811,-18.814,-18.814,-18.803,-18.811,-18.814,-18.821,-18.813,-18.816,-18.815,-18.816,-18.814,-18.807,-18.802,-18.807,-18.801,-18.804,-18.793,-18.794,-18.792,-18.799,-18.803,-18.794,-18.784,-18.781,-18.788,-18.789,-18.782,-18.771,-18.778,-18.779,-18.781,-18.781,-18.787,-18.785,-18.796,-18.789,-18.789,-18.789,-18.786,-18.793,-18.792,-18.788,-18.789,-18.792,-18.797,-18.804,-18.808,-18.8,-18.805,-18.806,-18.807,-18.804,-18.804,-18.812,-18.805,-18.816,-18.813,-18.801,-18.81,-18.806,-18.816,-18.812,-18.808,-18.804,-18.812,-18.818,-18.814,-18.81,-18.798,-18.8,-18.804,-18.803,-18.799,-18.794,-18.793,-18.795,-18.783,-18.772,-18.755,-18.732,-18.711,-18.703,-18.698,-18.704,-18.724,-18.74,-18.748,-18.747,-18.748,-18.762,-18.788,-18.798,-18.82,-18.821,-18.82,-18.833,-18.829,-18.835,-18.823,-18.829,-18.839,-18.839,-18.835,-18.83,-18.835,-18.834,-18.845,-18.835,-18.829,-18.822,-18.837,-18.893,-18.953,-18.934,-18.806,-18.585,-18.319,-18.015,-17.598,-17.415,-17.531,-17.969,-18.21,-18.604,-18.914,-18.919,-18.892,-18.82,-18.785,-18.742,-18.771,-18.769,-18.782,-18.764,-18.767,-18.757,-18.772,-18.76,-18.766,-18.741,-18.749,-18.743,-18.75,-18.731,-18.729,-18.719,-18.73,-18.726,-18.721,-18.703,-18.7,-18.684,-18.693,-18.675,-18.665,-18.659,-18.659,-18.644,-18.636,-18.616,-18.611,-18.6,-18.592,-18.579,-18.575,-18.556,-18.53,-18.519,-18.502,-18.47,-18.446,-18.437,-18.421,-18.403,-18.382,-18.369,-18.357,-18.349,-18.341,-18.328,-18.316,-18.31,-18.322,-18.323,-18.322,-18.335,-18.353,-18.388,-18.416,-18.455,-18.485,-18.529,-18.574,-18.614,-18.64,-18.671,-18.696,-18.728,-18.74,-18.752,-18.754,-18.769,-18.785,-18.793,-18.794,-18.799,-18.79,-18.801,-18.805,-18.806,-18.796,-18.785,-18.793,-18.805,-18.804,-18.793,-18.788,-18.794,-18.791,-18.793,-18.783,-18.776,-18.772,-18.779,-18.786,-18.779,-18.767,-18.778,-18.775,-18.779,-18.767,-18.769,-18.768,-18.78,-18.782,-18.77,-18.768,-18.77,-18.777,-18.78,-18.778,-18.775,-18.781,-18.791,-18.792,-18.797,-18.788,-18.782,-18.795,-18.796,-18.795,-18.789,-18.792,-18.792,-18.796,-18.79,-18.783,-18.795,-18.792,-18.803,-18.797,-18.797,-18.797,-18.8,-18.801,-18.804,-18.79,-18.79,-18.792,-18.798,-18.797,-18.795,-18.796,-18.798,-18.797,-18.799,-18.801,-18.802,-18.805,-18.803,-18.806,-18.803,-18.799,-18.802,-18.804,-18.81,-18.804,-18.798,-18.808,-18.805,-18.808,-18.805,-18.798,-18.798,-18.808,-18.8,-18.8,-18.792,-18.796,-18.793,-18.791,-18.792,-18.775,-18.767,-18.764,-18.76,-18.743,-18.706,-18.683,-18.688,-18.707,-18.721,-18.734,-18.735,-18.749,-18.759,-18.765,-18.784,-18.793,-18.817,-18.829,-18.832,-18.827,-18.825,-18.833,-18.837,-18.843,-18.84,-18.836,-18.83,-18.838,-18.843,-18.843,-18.839,-18.84,-18.848,-18.874,-18.936,-18.967,-18.884,-18.704,-18.459,-18.214,-17.829,-17.459,-17.414,-17.578,-17.994,-18.436,-18.779,-18.942,-18.905,-18.854,-18.781,-18.77,-18.771,-18.795,-18.792,-18.789,-18.781,-18.796,-18.79,-18.791,-18.774,-18.776,-18.775,-18.781,-18.766,-18.759,-18.749,-18.743,-18.747,-18.746,-18.731,-18.725,-18.722,-18.716,-18.706,-18.699,-18.691,-18.685,-18.689,-18.682,-18.666,-18.652,-18.645,-18.641,-18.634,-18.607,-18.594,-18.574,-18.569,-18.559,-18.527,-18.499,-18.486,-18.472,-18.457,-18.432,-18.405,-18.394,-18.381,-18.368,-18.354,-18.344,-18.326,-18.329,-18.329,-18.329,-18.32,-18.326,-18.347,-18.376,-18.401,-18.423,-18.459,-18.496,-18.542,-18.58,-18.615,-18.646,-18.682,-18.712,-18.742,-18.754,-18.765,-18.776,-18.795,-18.794,-18.804,-18.796,-18.797,-18.811,-18.823,-18.808,-18.811,-18.809,-18.814,-18.819,-18.814,-18.81,-18.808,-18.816,-18.814,-18.81,-18.809,-18.806,-18.806,-18.805,-18.799,-18.791,-18.792,-18.798,-18.794,-18.796,-18.782,-18.791,-18.793,-18.784,-18.789,-18.782,-18.792,-18.793,-18.806,-18.792,-18.792,-18.793,-18.799,-18.803,-18.806,-18.798,-18.804,-18.804,-18.813,-18.814,-18.802,-18.808,-18.813,-18.821,-18.817,-18.814,-18.81,-18.817,-18.827,-18.819,-18.817,-18.817,-18.819,-18.825,-18.813,-18.817,-18.813,-18.812,-18.824,-18.827,-18.815,-18.81,-18.812,-18.814,-18.822,-18.816,-18.813,-18.808,-18.817,-18.817,-18.822,-18.811,-18.809,-18.813,-18.823,-18.82,-18.81,-18.817,-18.814,-18.82,-18.818,-18.811,-18.811,-18.819,-18.82,-18.822,-18.815,-18.814,-18.819,-18.821,-18.818,-18.811,-18.817,-18.819,-18.821,-18.827,-18.817,-18.809,-18.803,-18.801,-18.812,-18.809,-18.792,-18.789,-18.771,-18.772,-18.753,-18.716,-18.71,-18.723,-18.744,-18.757,-18.752,-18.751,-18.756,-18.769,-18.774,-18.78,-18.798,-18.81,-18.828,-18.832,-18.833,-18.834,-18.84,-18.847,-18.849,-18.847,-18.85,-18.856,-18.854,-18.847,-18.847,-18.843,-18.851,-18.859,-18.865,-18.909,-18.97,-18.949,-18.808,-18.58,-18.33,-18.059,-17.616,-17.427,-17.603,-18.028,-18.469,-18.809,-18.957,-18.911,-18.857,-18.815,-18.777,-18.776,-18.799,-18.791,-18.794,-18.791,-18.805,-18.795,-18.792,-18.777,-18.779,-18.777,-18.781,-18.772,-18.771,-18.76,-18.763,-18.755,-18.75,-18.739,-18.74,-18.737,-18.735,-18.726,-18.722,-18.709,-18.703,-18.699,-18.698,-18.669,-18.666,-18.659,-18.651,-18.643,-18.618,-18.603,-18.591,-18.575,-18.558,-18.549,-18.527,-18.506,-18.493,-18.473,-18.441,-18.419,-18.41,-18.4,-18.387,-18.377,-18.352,-18.347,-18.341,-18.338,-18.324,-18.327,-18.341,-18.352,-18.368,-18.386,-18.406,-18.443,-18.479,-18.524,-18.559,-18.59,-18.63,-18.673,-18.708,-18.732,-18.748,-18.77,-18.78,-18.796,-18.802,-18.808,-18.812,-18.825,-18.83,-18.832,-18.831,-18.827,-18.827,-18.836,-18.831,-18.826,-18.821,-18.827,-18.832,-18.833,-18.819,-18.799,-18.815,-18.825,-18.818,-18.817,-18.805,-18.814,-18.819,-18.815,-18.808,-18.803,-18.808,-18.81,-18.814,-18.804,-18.799,-18.803,-18.812,-18.819,-18.814,-18.809,-18.816,-18.825,-18.828,-18.819,-18.816,-18.809,-18.825,-18.83,-18.832,-18.824,-18.815,-18.814,-18.833,-18.843,-18.834,-18.834,-18.832,-18.839,-18.831,-18.834,-18.829,-18.835
