-15.348,-15.346,-15.349,-15.342,-15.345,-15.337,-15.34,-15.346,-15.363,-15.387,-15.409,-15.416,-15.415,-15.415,-15.417,-15.416,-15.418,-15.417,-15.418,-15.423,-15.421,-15.423,-15.423,-15.432,-15.459,-15.504,-15.53,-15.451,-15.255,-15.005,-14.754,-14.577,-14.747,-15.015,-15.177,-15.301,-15.503,-15.518,-15.555,-15.624,-15.543,-15.516,-15.463,-15.434,-15.413,-15.418,-15.409,-15.418,-15.407,-15.405,-15.395,-15.394,-15.386,-15.386,-15.375,-15.376,-15.369,-15.37,-15.361,-15.357,-15.352,-15.347,-15.334,-15.328,-15.318,-15.309,-15.296,-15.286,-15.276,-15.261,-15.247,-15.231,-15.214,-15.201,-15.181,-15.167,-15.146,-15.131,-15.109,-15.093,-15.085,-15.066,-15.049,-15.035,-15.025,-15.012,-15.004,-15.002,-14.999,-14.999,-15.005,-15.019,-15.04,-15.066,-15.101,-15.139,-15.177,-15.22,-15.259,-15.295,-15.315,-15.348,-15.385,-15.411,-15.441,-15.461,-15.479,-15.495,-15.514,-15.521,-15.532,-15.538,-15.548,-15.551,-15.561,-15.561,-15.569,-15.569,-15.575,-15.573,-15.577,-15.575,-15.581,-15.575,-15.576,-15.574,-15.575,-15.576,-15.577,-15.572,-15.572,-15.568,-15.571,-15.568,-15.566,-15.564,-15.565,-15.561,-15.556,-15.555,-15.554,-15.55,-15.547,-15.54,-15.543,-15.543,-15.545,-15.548,-15.551,-15.554,-15.556,-15.555,-15.561,-15.561,-15.564,-15.567,-15.569,-15.572,-15.579,-15.58,-15.584,-15.591,-15.593,-15.596,-15.598,-15.603,-15.605,-15.605,-15.61,-15.614,-15.614,-15.62,-15.623,-15.625,-15.627,-15.629,-15.632,-15.629,-15.629,-15.632,-15.628,-15.631,-15.63,-15.631,-15.634,-15.635,-15.635,-15.634,-15.632,-15.635,-15.633,-15.635,-15.636,-15.642,-15.642,-15.644,-15.644,-15.646,-15.647,-15.651,-15.649,-15.648,-15.642,-15.644,-15.646,-15.644,-15.645,-15.644,-15.642,-15.64,-15.64,-15.641,-15.644,-15.648,-15.646,-15.647,-15.65,-15.651,-15.653,-15.65,-15.648,-15.65,-15.649,-15.65,-15.651,-15.649,-15.648,-15.639,-15.631,-15.633,-15.62,-15.607,-15.606,-15.611,-15.607,-15.601,-15.6,-15.596,-15.587,-15.588,-15.592,-15.609,-15.631,-15.66,-15.664,-15.666,-15.656,-15.657,-15.657,-15.656,-15.656,-15.656,-15.656,-15.657,-15.656,-15.659,-15.673,-15.712,-15.733,-15.746,-15.665,-15.459,-15.217,-14.967,-14.775,-15.003,-15.254,-15.363,-15.519,-15.769,-15.826,-15.846,-15.827,-15.721,-15.681,-15.639,-15.651,-15.631,-15.643,-15.633,-15.643,-15.631,-15.64,-15.627,-15.632,-15.611,-15.614,-15.598,-15.599,-15.584,-15.582,-15.568,-15.566,-15.551,-15.549,-15.534,-15.528,-15.52,-15.515,-15.495,-15.486,-15.47,-15.462,-15.443,-15.428,-15.407,-15.391,-15.366,-15.347,-15.324,-15.307,-15.285,-15.265,-15.241,-15.222,-15.203,-15.182,-15.174,-15.16,-15.148,-15.145,-15.14,-15.137,-15.141,-15.152,-15.171,-15.189,-15.223,-15.253,-15.296,-15.333,-15.371,-15.407,-15.441,-15.475,-15.506,-15.527,-15.54,-15.559,-15.579,-15.588,-15.599,-15.604,-15.615,-15.616,-15.623,-15.624,-15.633,-15.633,-15.637,-15.633,-15.634,-15.632,-15.629,-15.622,-15.626,-15.621,-15.616,-15.61,-15.609,-15.607,-15.613,-15.607,-15.602,-15.594,-15.594,-15.589,-15.587,-15.588,-15.586,-15.577,-15.574,-15.566,-15.562,-15.559,-15.561,-15.555,-15.557,-15.557,-15.555,-15.553,-15.558,-15.558,-15.558,-15.559,-15.564,-15.559,-15.561,-15.559,-15.564,-15.563,-15.568,-15.568,-15.573,-15.572,-15.575,-15.574,-15.579,-15.58,-15.581,-15.585,-15.587,-15.589,-15.588,-15.586,-15.588,-15.589,-15.589,-15.588,-15.587,-15.588,-15.589,-15.586,-15.587,-15.592,-15.588,-15.588,-15.591,-15.59,-15.587,-15.589,-15.582,-15.58,-15.577,-15.577,-15.577,-15.576,-15.575,-15.573,-15.576,-15.574,-15.575,-15.576,-15.574,-15.571,-15.573,-15.574,-15.573,-15.574,-15.572,-15.572,-15.57,-15.568,-15.568,-15.569,-15.57,-15.566,-15.564,-15.564,-15.564,-15.563,-15.562,-15.565,-15.56,-15.558,-15.556,-15.557,-15.556,-15.556,-15.554,-15.552,-15.55,-15.553,-15.55,-15.551,-15.546,-15.55,-15.545,-15.542,-15.535,-15.527,-15.522,-15.526,-15.521,-15.521,-15.518,-15.514,-15.503,-15.505,-15.489,-15.47,-15.476,-15.486,-15.481,-15.48,-15.477,-15.476,-15.469,-15.478,-15.484,-15.5,-15.531,-15.55,-15.555,-15.557,-15.556,-15.554,-15.554,-15.554,-15.554,-15.556,-15.555,-15.554,-15.555,-15.562,-15.573,-15.611,-15.648,-15.632,-15.507,-15.264,-15.032,-14.785,-14.691,-14.86,-15.148,-15.282,-15.373,-15.647,-15.699,-15.726,-15.714,-15.62,-15.575,-15.531,-15.523,-15.51,-15.511,-15.51,-15.504,-15.5,-15.5,-15.495,-15.488,-15.486,-15.477,-15.465,-15.458,-15.458,-15.45,-15.444,-15.437,-15.427,-15.419,-15.409,-15.4,-15.387,-15.378,-15.366,-15.356,-15.344,-15.331,-15.311,-15.302,-15.294,-15.276,-15.257,-15.243,-15.223,-15.202,-15.183,-15.164,-15.143,-15.126,-15.106,-15.094,-15.082,-15.068,-15.06,-15.053,-15.052,-15.055,-15.061,-15.069,-15.079,-15.106,-15.133,-15.172,-15.21,-15.25,-15.288,-15.324,-15.357,-15.392,-15.42,-15.449,-15.47,-15.487,-15.5,-15.513,-15.524,-15.534,-15.538,-15.543,-15.545,-15.549,-15.55,-15.549,-15.548,-15.552,-15.551,-15.55,-15.549,-15.55,-15.544,-15.541,-15.537,-15.533,-15.53,-15.528,-15.525,-15.525,-15.517,-15.518,-15.511,-15.511,-15.509,-15.506,-15.503,-15.502,-15.499,-15.495,-15.493,-15.488,-15.485,-15.482,-15.481,-15.481,-15.482,-15.477,-15.481,-15.479,-15.48,-15.479,-15.48,-15.479,-15.48,-15.48,-15.479,-15.483,-15.483,-15.488,-15.487,-15.49,-15.49,-15.49,-15.494,-15.494,-15.492,-15.489,-15.489,-15.489,-15.49,-15.488,-15.487,-15.486,-15.487,-15.487,-15.488,-15.488,-15.492,-15.492,-15.493,-15.489,-15.488,-15.487,-15.485,-15.484,-15.481,-15.482,-15.478,-15.476,-15.476,-15.475,-15.473,-15.471,-15.468,-15.469,-15.473,-15.468,-15.468,-15.467,-15.463,-15.461,-15.459,-15.456,-15.454,-15.452,-15.456,-15.456,-15.452,-15.449,-15.45,-15.446,-15.45,-15.449,-15.444,-15.442,-15.441,-15.435,-15.436,-15.43,-15.428,-15.429,-15.423,-15.421,-15.423,-15.421,-15.416,-15.418,-15.412,-15.412,-15.41,-15.405,-15.406,-15.401,-15.399,-15.399,-15.393,-15.395,-15.391,-15.386,-15.389,-15.387,-15.384,-15.381,-15.369,-15.367,-15.363,-15.35,-15.343,-15.345,-15.347,-15.342,-15.338,-15.333,-15.335,-15.328,-15.333,-15.336,-15.351,-15.376,-15.39,-15.394,-15.394,-15.395,-15.388,-15.391,-15.393,-15.387,-15.391,-15.389,-15.393,-15.393,-15.392,-15.402,-15.43,-15.467,-15.478,-15.371,-15.141,-14.908,-14.651,-14.5,-14.8,-15.004,-15.13,-15.312,-15.49,-15.507,-15.544,-15.568,-15.484,-15.441,-15.368,-15.367,-15.344,-15.357,-15.345,-15.349,-15.333,-15.344,-15.333,-15.336,-15.32,-15.324,-15.31,-15.315,-15.306,-15.312,-15.301,-15.304,-15.282,-15.286,-15.278,-15.274,-15.266,-15.256,-15.24,-15.233,-15.222,-15.208,-15.195,-15.181,-15.161,-15.144,-15.126,-15.114,-15.089,-15.064,-15.056,-15.036,-15.021,-15.004,-14.981,-14.968,-14.952,-14.945,-14.943,-14.937,-14.931,-14.935,-14.939,-14.948,-14.972,-14.996,-15.021,-15.056,-15.098,-15.129,-15.151,-15.188,-15.226,-15.255,-15.295,-15.326,-15.342,-15.365,-15.386,-15.395,-15.413,-15.424,-15.436,-15.44,-15.442,-15.445,-15.448,-15.445,-15.456,-15.448,-15.454,-15.455,-15.448,-15.448,-15.451,-15.443,-15.446,-15.437,-15.438,-15.432,-15.434,-15.428,-15.425,-15.424,-15.419,-15.41,-15.409,-15.401,-15.404,-15.395,-15.399,-15.39,-15.387,-15.378,-15.381,-15.375,-15.37,-15.365,-15.368,-15.368,-15.372,-15.364,-15.368,-15.368,-15.372,-15.374,-15.37,-15.37,-15.37,-15.365,-15.368,-15.363,-15.366,-15.36,-15.357,-15.366,-15.365,-15.368,-15.37,-15.365,-15.359,-15.35,-15.351,-15.343,-15.345,-15.343,-15.344,-15.342,-15.342,-15.338,-15.334,-15.334,-15.332,-15.333,-15.327,-15.326,-15.321,-15.32,-15.32,-15.315,-15.313,-15.312,-15.308,-15.313,-15.31,-15.306,-15.303,-15.307,-15.3,-15.3,-15.299,-15.299,-15.3,-15.298,-15.297,-15.293,-15.294,-15.292,-15.289,-15.288,-15.273,-15.268,-15.259,-15.25,-15.242,-15.247,-15.235,-15.213,-15.205,-15.186,-15.163,-15.175,-15.182,-15.179,-15.186,-15.203,-15.207,-15.219,-15.236,-15.256,-15.278,-15.284,-15.282,-15.288,-15.286,-15.288,-15.289,-15.288,-15.286,-15.287,-15.282,-15.284,-15.282,-15.28,-15.278,-15.278,-15.308,-15.352,-15.366,-15.285,-15.062,-14.813,-14.55,-14.412,-14.625,-14.851,-15.026,-15.189,-15.286,-15.3,-15.293,-15.394,-15.407,-15.345,-15.299,-15.253,-15.234,-15.23,-15.224,-15.229,-15.222,-15.223,-15.213,-15.212,-15.196,-15.192,-15.181,-15.181,-15.175,-15.173,-15.165,-15.158,-15.15,-15.145,-15.138,-15.132,-15.119,-15.114,-15.1,-15.093,-15.076,-15.063,-15.052,-15.037,-15.022,-15.009,-14.992,-14.982,-14.965,-14.948,-14.928,-14.909,-14.891,-14.876,-14.861,-14.846,-14.835,-14.826,-14.817,-14.813,-14.805,-14.812,-14.817,-14.829,-14.853,-14.878,-14.913,-14.933,-14.972,-15.007,-15.046,-15.086,-15.119,-15.152,-15.179,-15.205,-15.23,-15.247,-15.263,-15.277,-15.291,-15.298,-15.304,-15.314,-15.318,-15.322,-15.328,-15.326,-15.335,-15.333,-15.337,-15.333,-15.34,-15.336,-15.339,-15.337,-15.34,-15.333,-15.337,-15.336,-15.334,-15.332,-15.331,-15.33,-15.329,-15.324,-15.327,-15.325,-15.323,-15.32,-15.322,-15.321,-15.32,-15.318,-15.316,-15.318,-15.317,-15.316,-15.318,-15.317,-15.315,-15.317,-15.322,-15.322,-15.325,-15.325,-15.327,-15.332,-15.336,-15.338,-15.344,-15.346,-15.349,-15.357,-15.361,-15.36,-15.365,-15.366,-15.371,-15.37,-15.376,-15.376,-15.379,-15.38,-15.386,-15.388,-15.391,-15.391,-15.394,-15.395,-15.397,-15.399,-15.4,-15.401,-15.408,-15.408,-15.41,-15.41,-15.412,-15.414,-15.415,-15.416,-15.417,-15.419,-15.423,-15.424,-15.425,-15.428,-15.431,-15.433,-15.437,-15.436,-15.432,-15.425,-15.417,-15.409,-15.407,-15.416,-15.407,-15.396,-15.388,-15.376,-15.356,-15.359,-15.37,-15.372,-15.377,-15.389,-15.405,-15.409,-15.42,-15.442,-15.475,-15.489,-15.493,-15.497,-15.496,-15.503,-15.5,-15.506,-15.503,-15.507,-15.508,-15.509,-15.51,-15.512,-15.511,-15.523,-15.544,-15.589,-15.619,-15.554,-15.369,-15.126,-14.879,-14.659,-14.764,-15.055,-15.172,-15.292,-15.588,-15.673,-15.704,-15.71,-15.604,-15.589,-15.525,-15.516,-15.503,-15.506,-15.503,-15.504,-15.496,-15.495,-15.489,-15.487,-15.478,-15.476,-15.464,-15.463,-15.453,-15.448,-15.443,-15.437,-15.425,-15.422,-15.414,-15.406,-15.395,-15.388,-15.378,-15.366,-15.353,-15.341,-15.328,-15.312,-15.296,-15.282,-15.264,-15.244,-15.224,-15.206,-15.187,-15.166,-15.158,-15.139,-15.12,-15.107,-15.092,-15.082,-15.069,-15.066,-15.065,-15.07,-15.074,-15.086,-15.107,-15.135,-15.176,-15.212,-15.254,-15.295,-15.332,-15.371,-15.391,-15.42,-15.454,-15.477,-15.502,-15.517,-15.537,-15.546,-15.562,-15.568,-15.576,-15.578,-15.582,-15.582,-15.588,-15.587,-15.591,-15.586,-15.59,-15.587,-15.588,-15.585,-15.587,-15.584,-15.581,-15.577,-15.576,-15.57,-15.57,-15.57,-15.569,-15.565,-15.566,-15.566,-15.566,-15.562,-15.563,-15.561,-15.56,-15.554,-15.557,-15.556,-15.554,-15.55,-15.549,-15.551,-15.553,-15.554,-15.556,-15.557,-15.562,-15.563,-15.567,-15.569,-15.572,-15.575,-15.575,-15.58,-15.583,-15.583,-15.588,-15.591,-15.593,-15.597,-15.603,-15.602,-15.608,-15.606,-15.61,-15.613,-15.612,-15.612,-15.613,-15.616,-15.615,-15.618,-15.62,-15.622,-15.622,-15.621,-15.62,-15.619,-15.622,-15.623,-15.622,-15.624,-15.622,-15.624,-15.624,-15.625,-15.627,-15.627,-15.623,-15.623,-15.623,-15.62,-15.622,-15.624,-15.625,-15.621,-15.62,-15.623,-15.623,-15.621,-15.624,-15.625,-15.626,-15.626,-15.625,-15.627,-15.623,-15.626,-15.627,-15.629,-15.627,-15.628,-15.625,-15.626,-15.626,-15.628,-15.631,-15.633,-15.625,-15.621,-15.617,-15.611,-15.605,-15.612,-15.614,-15.599,-15.585,-15.577,-15.547,-15.539,-15.542,-15.545,-15.547,-15.558,-15.57,-15.572,-15.581,-15.595,-15.622,-15.65,-15.66,-15.661,-15.661,-15.662,-15.661,-15.66,-15.656,-15.655,-15.651,-15.653,-15.657,-15.653,-15.655,-15.658,-15.662,-15.684,-15.724,-15.754,-15.691,-15.511,-15.264,-15.02,-14.791,-14.906,-15.216,-15.329,-15.448,-15.729,-15.81,-15.829,-15.824,-15.715,-15.669,-15.622,-15.621,-15.605,-15.609,-15.602,-15.606,-15.597,-15.596,-15.586,-15.589,-15.576,-15.57,-15.558,-15.556,-15.545,-15.542,-15.534,-15.528,-15.518,-15.509,-15.501,-15.493,-15.48,-15.473,-15.455,-15.441,-15.429,-15.415,-15.398,-15.384,-15.367,-15.347,-15.327,-15.309,-15.288,-15.266,-15.248,-15.225,-15.204,-15.183,-15.175,-15.156,-15.142,-15.127,-15.115,-15.109,-15.102,-15.099,-15.102,-15.11,-15.129,-15.152,-15.184,-15.216,-15.253,-15.286,-15.319,-15.355,-15.392,-15.421,-15.437,-15.459,-15.481,-15.5,-15.519,-15.529,-15.538,-15.548,-15.558,-15.56,-15.566,-15.567,-15.57,-15.568,-15.573,-15.575,-15.574,-15.574,-15.575,-15.575,-15.573,-15.57,-15.567,-15.561,-15.559,-15.554,-15.55,-15.549,-15.545,-15.546,-15.545,-15.544,-15.545,-15.542,-15.541,-15.528,-15.526,-15.519,-15.517,-15.514,-15.515,-15.512,-15.514,-15.516,-15.515,-15.518,-15.518,-15.52,-15.522,-15.521,-15.524,-15.528,-15.532,-15.533,-15.531,-15.535,-15.538,-15.536,-15.544,-15.542,-15.542,-15.543,-15.546,-15.549,-15.546,-15.55,-15.549,-15.548,-15.551,-15.553,-15.555,-15.553,-15.556,-15.555,-15.554,-15.555,-15.555,-15.555,-15.556,-15.557,-15.555,-15.553,-15.553,-15.556,-15.551,-15.552,-15.55,-15.552,-15.55,-15.55,-15.55,-15.549,-15.547,-15.545,-15.543,-15.542,-15.545,-15.54,-15.541,-15.543,-15.533,-15.535,-15.534,-15.531,-15.533,-15.528,-15.533,-15.533,-15.531,-15.53,-15.53,-15.535,-15.53,-15.527,-15.526,-15.53,-15.529,-15.531,-15.531,-15.53,-15.527,-15.53,-15.53,-15.527,-15.524,-15.532,-15.532,-15.532,-15.529,-15.528,-15.533,-15.527,-15.526,-15.526,-15.529,-15.529,-15.526,-15.528,-15.527,-15.525,-15.521,-15.517,-15.503,-15.495,-15.493,-15.496,-15.475,-15.459,-15.434,-15.414,-15.428,-15.437,-15.436,-15.447,-15.455,-15.459,-15.462,-15.477,-15.494,-15.523,-15.527,-15.531,-15.532,-15.532,-15.534,-15.529,-15.535,-15.531,-15.535,-15.531,-15.534,-15.526,-15.526,-15.528,-15.53,-15.547,-15.585,-15.606,-15.626,-15.532,-15.304,-15.068,-14.799,-14.624,-14.913,-15.116,-15.24,-15.415,-15.6,-15.628,-15.667,-15.675,-15.581,-15.577,-15.506,-15.49,-15.471,-15.482,-15.463,-15.47,-15.458,-15.468,-15.46,-15.454,-15.433,-15.436,-15.422,-15.425,-15.41,-15.416,-15.399,-15.396,-15.385,-15.376,-15.366,-15.368,-15.349,-15.349,-15.338,-15.324,-15.308,-15.302,-15.278,-15.264,-15.251,-15.231,-15.215,-15.19,-15.172,-15.151,-15.127,-15.114,-15.094,-15.073,-15.05,-15.04,-15.022,-15.014,-15.014,-14.997,-14.992,-14.987,-14.993,-15.001,-15.03,-15.049,-15.077,-15.118,-15.156,-15.187,-15.236,-15.267,-15.302,-15.329,-15.365,-15.388,-15.4,-15.415,-15.437,-15.448,-15.461,-15.466,-15.47,-15.474,-15.479,-15.48,-15.482,-15.481,-15.485,-15.478,-15.479,-15.471,-15.475,-15.467,-15.466,-15.456,-15.462,-15.452,-15.455,-15.446,-15.447,-15.439,-15.442,-15.436,-15.433,-15.426,-15.421,-15.417,-15.417,-15.407,-15.407,-15.402,-15.4,-15.391,-15.392,-15.394,-15.392,-15.39,-15.389,-15.383,-15.384,-15.386,-15.381,-15.38,-15.383,-15.381,-15.382,-15.387,-15.385,-15.389,-15.391,-15.39,-15.39,-15.391,-15.389,-15.392,-15.392,-15.393,-15.391,-15.391,-15.39,-15.392,-15.392,-15.395,-15.393,-15.389,-15.396,-15.394,-15.393,-15.391,-15.391,-15.391,-15.386,-15.383,-15.385,-15.386,-15.383,-15.383,-15.379,-15.379,-15.38,-15.382,-15.379,-15.379,-15.379,-15.382,-15.379,-15.381,-15.379,-15.377,-15.377,-15.378,-15.377,-15.379,-15.38,-15.382,-15.382,-15.384,-15.385,-15.385,-15.387,-15.388,-15.385,-15.384,-15.375,-15.367,-15.361,-15.346,-15.352,-15.35,-15.333,-15.314,-15.295,-15.286,-15.297,-15.307,-15.3,-15.312,-15.321,-15.335,-15.333,-15.356,-15.38,-15.403,-15.412,-15.416,-15.416,-15.423,-15.42,-15.426,-15.426,-15.43,-15.429,-15.434,-15.437,-15.436,-15.437,-15.436,-15.442,-15.455,-15.496,-15.54,-15.531,-15.403,-15.148,-14.911,-14.653,-14.58,-14.905,-15.087,-15.212,-15.435,-15.524,-15.528,-15.563,-15.628,-15.565,-15.502,-15.449,-15.432,-15.426,-15.421,-15.42,-15.417,-15.414,-15.407,-15.404,-15.395,-15.388,-15.381,-15.376,-15.371,-15.372,-15.362,-15.357,-15.351,-15.344,-15.334,-15.328,-15.319,-15.31,-15.297,-15.289,-15.274,-15.266,-15.252,-15.239,-15.224,-15.208,-15.188,-15.175,-15.156,-15.138,-15.121,-15.11,-15.09,-15.069,-15.058,-15.034,-15.025,-15.011,-15.002,-14.995,-14.989,-14.989,-14.996,-15.006,-15.027,-15.055,-15.083,-15.123,-15.161,-15.204,-15.226,-15.267,-15.308,-15.343,-15.378,-15.404,-15.432,-15.454,-15.477,-15.491,-15.506,-15.518,-15.53,-15.535,-15.543,-15.547,-15.551,-15.559,-15.564,-15.564,-15.57,-15.567,-15.575,-15.572,-15.572,-15.575,-15.571,-15.568,-15.57,-15.565,-15.566,-15.564,-15.567,-15.564,-15.561,-15.561,-15.561,-15.559,-15.556,-15.555,-15.553,-15.551,-15.546,-15.541,-15.542,-15.539,-15.534,-15.539,-15.535,-15.54,-15.539,-15.54,-15.546,-15.548,-15.548,-15.553,-15.555,-15.561,-15.562,-15.569,-15.566,-15.573,-15.572,-15.575,-15.582,-15.58,-15.585,-15.587,-15.585,-15.589,-15.59,-15.595,-15.597,-15.598,-15.596,-15.6,-15.6,-15.6,-15.6,-15.601,-15.602,-15.604,-15.601,-15.602,-15.602,-15.605,-15.61,-15.61,-15.613,-15.615,-15.613,-15.617,-15.617,-15.62,-15.62,-15.626,-15.623,-15.624,-15.624,-15.626,-15.628,-15.632,-15.628,-15.63,-15.634,-15.635,-15.639,-15.641,-15.638,-15.642,-15.644,-15.642,-15.647,-15.645,-15.649,-15.649,-15.651,-15.65,-15.647,-15.649,-15.651,-15.656,-15.658,-15.657,-15.656,-15.658,-15.657,-15.656,-15.657,-15.661,-15.662,-15.662,-15.667,-15.662,-15.666,-15.663,-15.66,-15.656,-15.65,-15.643,-15.637,-15.627,-15.633,-15.633,-15.615,-15.607,-15.583,-15.567,-15.587,-15.587,-15.592,-15.607,-15.619,-15.628,-15.626,-15.642,-15.673,-15.695,-15.7,-15.706,-15.704,-15.706,-15.705,-15.709,-15.708,-15.707,-15.708,-15.709,-15.71,-15.706,-15.707,-15.711,-15.719,-15.741,-15.784,-15.812,-15.741,-15.546,-15.416,-15.186,-14.922,-14.825,-15.165,-15.318,-15.401,-15.677,-15.831,-15.866,-15.888,-15.834,-15.747,-15.708,-15.671,-15.679,-15.66,-15.675,-15.656,-15.663,-15.65,-15.657,-15.641,-15.645,-15.625,-15.631,-15.613,-15.615,-15.603,-15.6,-15.588,-15.584,-15.57,-15.564,-15.549,-15.543,-15.527,-15.523,-15.503,-15.498,-15.483,-15.473,-15.456,-15.442,-15.423,-15.41,-15.391,-15.372,-15.353,-15.331,-15.311,-15.289,-15.268,-15.247,-15.23,-15.215,-15.203,-15.19,-15.178,-15.177,-15.173,-15.175,-15.178,-15.192,-15.213,-15.24,-15.276,-15.312,-15.353,-15.391,-15.431,-15.465,-15.5,-15.528,-15.559,-15.581,-15.604,-15.614,-15.631,-15.635,-15.647,-15.651,-15.663,-15.662,-15.664,-15.665,-15.669,-15.671,-15.675,-15.674,-15.676,-15.672,-15.674,-15.67,-15.668,-15.665,-15.666,-15.659,-15.664,-15.661,-15.663,-15.655,-15.657,-15.65,-15.65,-15.645,-15.642,-15.635,-15.628,-15.619,-15.62,-15.61,-15.611,-15.606,-15.607,-15.603,-15.605,-15.604,-15.606,-15.606,-15.613,-15.61,-15.613,-15.611,-15.616,-15.616,-15.621,-15.62,-15.622,-15.622,-15.625,-15.625,-15.63,-15.631,-15.634,-15.639,-15.644,-15.644,-15.645,-15.646,-15.652,-15.653,-15.653,-15.653,-15.653,-15.661,-15.661,-15.659,-15.659,-15.663,-15.663,-15.663,-15.663,-15.664,-15.667,-15.668,-15.666,-15.668,-15.668,-15.671,-15.672,-15.672,-15.675,-15.675,-15.674,-15.673,-15.675,-15.675,-15.673,-15.673,-15.668,-15.666,-15.663,-15.665,-15.666,-15.668,-15.664,-15.662,-15.662,-15.665,-15.664,-15.667,-15.667,-15.672,-15.669,-15.668,-15.67,-15.672,-15.666,-15.667,-15.671,-15.673,-15.67,-15.671,-15.669,-15.67,-15.669,-15.669,-15.667,-15.667,-15.664,-15.663,-15.654,-15.652,-15.646,-15.645,-15.646,-15.646,-15.643,-15.645,-15.645,-15.649,-15.645,-15.647,-15.643,-15.649,-15.647,-15.65,-15.651,-15.65,-15.651,-15.645,-15.642,-15.636,-15.626,-15.617,-15.621,-15.621,-15.602,-15.595,-15.568,-15.551,-15.564,-15.569,-15.572,-15.585,-15.595,-15.601,-15.598,-15.609,-15.634,-15.663,-15.671,-15.674,-15.676,-15.674,-15.676,-15.68,-15.679,-15.679,-15.679,-15.686,-15.685,-15.685,-15.685,-15.688,-15.695,-15.7,-15.738,-15.781,-15.758,-15.62,-15.373,-15.138,-14.879,-14.786,-15.154,-15.304,-15.389,-15.661,-15.801,-15.828,-15.856,-15.794,-15.716,-15.672,-15.647,-15.649,-15.632,-15.639,-15.63,-15.63,-15.617,-15.622,-15.607,-15.606,-15.591,-15.589,-15.578,-15.576,-15.566,-15.563,-15.551,-15.547,-15.535,-15.53,-15.519,-15.514,-15.498,-15.492,-15.477,-15.468,-15.455,-15.442,-15.424,-15.414,-15.398,-15.378,-15.359,-15.341,-15.317,-15.302,-15.28,-15.259,-15.239,-15.217,-15.209,-15.192,-15.173,-15.16,-15.151,-15.145,-15.139,-15.139,-15.147,-15.153,-15.176,-15.2,-15.237,-15.267,-15.303,-15.336,-15.375,-15.409,-15.448,-15.463,-15.494,-15.521,-15.544,-15.561,-15.578,-15.589,-15.604,-15.609,-15.618,-15.625,-15.629,-15.627,-15.634,-15.633,-15.636,-15.637,-15.635,-15.632,-15.632,-15.629,-15.629,-15.631,-15.628,-15.624,-15.623,-15.619,-15.621,-15.616,-15.618,-15.612,-15.61,-15.607,-15.607,-15.605,-15.6,-15.6,-15.6,-15.595,-15.59,-15.587,-15.583,-15.578,-15.58,-15.577,-15.58,-15.58,-15.581,-15.581,-15.586,-15.584,-15.588,-15.587,-15.593,-15.594,-15.598,-15.602,-15.602,-15.602,-15.607,-15.607,-15.608,-15.614,-15.616,-15.614,-15.615,-15.617,-15.618,-15.619,-15.615,-15.612,-15.612,-15.611,-15.611,-15.609,-15.61,-15.608,-15.609,-15.607,-15.608,-15.607,-15.607,-15.604,-15.604,-15.604,-15.599,-15.601,-15.599,-15.597,-15.599,-15.597,-15.598,-15.597,-15.593,-15.596,-15.596,-15.595,-15.595,-15.593,-15.592,-15.594,-15.59,-15.59,-15.591,-15.588,-15.584,-15.586,-15.581,-15.581,-15.583,-15.582,-15.581,-15.584,-15.582,-15.584,-15.58,-15.584,-15.586,-15.581,-15.582,-15.583,-15.579,-15.583,-15.58,-15.581,-15.577,-15.579,-15.577,-15.578,-15.577,-15.577,-15.573,-15.572,-15.57,-15.569,-15.565,-15.567,-15.566,-15.561,-15.56,-15.561,-15.557,-15.562,-15.561,-15.559,-15.56,-15.563,-15.562,-15.556,-15.547,-15.538,-15.527,-15.525,-15.524,-15.511,-15.494,-15.471,-15.454,-15.453,-15.468,-15.468,-15.473,-15.483,-15.493,-15.494,-15.502,-15.524,-15.553,-15.564,-15.568,-15.572,-15.567,-15.568,-15.565,-15.57,-15.566,-15.57,-15.563,-15.565,-15.563,-15.564,-15.563,-15.563,-15.569,-15.599,-15.643,-15.646,-15.528,-15.287,-15.051,-14.792,-14.662,-14.999,-15.165,-15.259,-15.479,-15.646,-15.665,-15.683,-15.706,-15.608,-15.568,-15.508,-15.501,-15.486,-15.488,-15.486,-15.485,-15.475,-15.473,-15.463,-15.46,-15.445,-15.441,-15.432,-15.426,-15.422,-15.422,-15.418,-15.411,-15.4,-15.394,-15.381,-15.373,-15.362,-15.355,-15.345,-15.335,-15.321,-15.309,-15.296,-15.284,-15.261,-15.244,-15.224,-15.208,-15.183,-15.174,-15.155,-15.134,-15.111,-15.1,-15.079,-15.063,-15.047,-15.033,-15.02,-15.014,-15.011,-15.005,-15.015,-15.026,-15.045,-15.072,-15.104,-15.14,-15.175,-15.194,-15.237,-15.277,-15.315,-15.346,-15.383,-15.411,-15.433,-15.455,-15.479,-15.49,-15.502,-15.516,-15.518,-15.524,-15.53,-15.534,-15.543,-15.543,-15.547,-15.551,-15.552,-15.548,-15.549,-15.557,-15.547,-15.547,-15.546,-15.542,-15.542,-15.545,-15.543,-15.545,-15.536,-15.536,-15.537,-15.536,-15.539,-15.533,-15.53,-15.529,-15.529,-15.525,-15.523,-15.52,-15.526,-15.524,-15.522,-15.523,-15.524,-15.521,-15.523,-15.525,-15.526,-15.527,-15.53,-15.531,-15.535,-15.537,-15.54,-15.544,-15.544,-15.546,-15.561,-15.541,-15.561,-15.544,-15.559,-15.539,-15.557,-15.542,-15.553,-15.544,-15.551,-15.544,-15.553,-15.546,-15.554,-15.544,-15.546,-15.544,-15.547,-15.549,-15.546,-15.548,-15.546,-15.545,-15.539,-15.544,-15.54,-15.55,-15.539,-15.549,-15.539,-15.548,-15.538,-15.551,-15.538,-15.552,-15.539,-15.552,-15.534,-15.55,-15.532,-15.554,-15.532,-15.554,-15.529,-15.553,-15.528,-15.553,-15.53,-15.554,-15.528,-15.558,-15.529,-15.556,-15.53,-15.554,-15.53,-15.557,-15.528,-15.558,-15.532,-15.56,-15.531,-15.555,-15.519,-15.541,-15.498,-15.524,-15.502,-15.522,-15.48,-15.489,-15.441,-15.469,-15.456,-15.484,-15.45,-15.492,-15.479,-15.515,-15.489,-15.539,-15.542,-15.588,-15.569,-15.597,-15.573,-15.602,-15.577,-15.605,-15.58,-15.606,-15.587,-15.612,-15.589,-15.614,-15.593,-15.62,-15.609,-15.668,-15.685,-15.722,-15.596,-15.383,-15.122,-14.88,-14.734,-15.029,-15.224,-15.381,-15.541,-15.711,-15.698,-15.774,-15.798,-15.757,-15.685,-15.634,-15.603,-15.597,-15.589,-15.593,-15.593,-15.589,-15.584,-15.58,-15.572,-15.568,-15.56,-15.556,-15.55,-15.548,-15.544,-15.537,-15.537,-15.527,-15.519,-15.511,-15.504,-15.495,-15.486,-15.475,-15.464,-15.45,-15.436,-15.418,-15.41,-15.392,-15.376,-15.356,-15.342,-15.321,-15.307,-15.283,-15.279,-15.256,-15.245,-15.222,-15.218,-15.2,-15.193,-15.184,-15.18,-15.171,-15.183,-15.184,-15.202,-15.216,-15.249,-15.275,-15.321,-15.353,-15.404,-15.436,-15.465,-15.492,-15.537,-15.558,-15.595,-15.609,-15.641,-15.65,-15.672,-15.674,-15.694,-15.691,-15.709,-15.705,-15.718,-15.71,-15.727,-15.717,-15.731,-15.72,-15.735,-15.724,-15.739,-15.727,-15.738,-15.73,-15.739,-15.728,-15.741,-15.731,-15.743,-15.73,-15.739,-15.729,-15.737,-15.727,-15.737,-15.726,-15.735,-15.723,-15.733,-15.724,-15.732,-15.722,-15.732,-15.721,-15.733,-15.722,-15.737,-15.731,-15.746,-15.741,-15.75,-15.748,-15.759,-15.757,-15.767,-15.763,-15.773,-15.768,-15.778,-15.775,-15.789,-15.789,-15.797,-15.795,-15.804,-15.803,-15.812,-15.808,-15.813,-15.806,-15.813,-15.81,-15.817,-15.813,-15.819,-15.814,-15.82,-15.817,-15.825,-15.824,-15.825,-15.822,-15.824,-15.817,-15.819,-15.818,-15.823,-15.818,-15.823,-15.821,-15.824,-15.822,-15.82,-15.82,-15.822,-15.82,-15.82,-15.824,-15.82,-15.823,-15.817,-15.819,-15.819,-15.819,-15.822,-15.819,-15.818,-15.818,-15.814,-15.816,-15.812,-15.815,-15.815,-15.816,-15.816,-15.817,-15.814,-15.813,-15.81,-15.812,-15.808,-15.811,-15.805,-15.809,-15.805,-15.81,-15.804,-15.803,-15.803,-15.799,-15.791,-15.8,-15.79,-15.79,-15.779,-15.778,-15.768,-15.764,-15.746,-15.755,-15.752,-15.738,-15.719,-15.702,-15.679,-15.698,-15.696,-15.702,-15.713,-15.73,-15.733,-15.742,-15.751,-15.784,-15.796,-15.803,-15.806,-15.813,-15.808,-15.812,-15.808,-15.815,-15.808,-15.813,-15.805,-15.81,-15.806,-15.809,-15.808,-15.827,-15.858,-15.903,-15.879,-15.754,-15.512,-15.389,-15.149,-14.924,-15.079,-15.363,-15.488,-15.595,-15.875,-15.942,-15.964,-15.962,-15.864,-15.818,-15.773,-15.768,-15.754,-15.761,-15.754,-15.754,-15.745,-15.749,-15.74,-15.743,-15.73,-15.723,-15.715,-15.711,-15.702,-15.698,-15.692,-15.688,-15.675,-15.67,-15.658,-15.65,-15.634,-15.628,-15.615,-15.605,-15.593,-15.586,-15.57,-15.553,-15.538,-15.52,-15.502,-15.485,-15.462,-15.439,-15.417,-15.395,-15.374,-15.352,-15.333,-15.316,-15.3,-15.287,-15.276,-15.267,-15.266,-15.26,-15.261,-15.264,-15.283,-15.303,-15.329,-15.356,-15.391,-15.43,-15.467,-15.502,-15.541,-15.572,-15.603,-15.632,-15.656,-15.67,-15.688,-15.7,-15.707,-15.714,-15.725,-15.729,-15.733,-15.736,-15.742,-15.742,-15.744,-15.743,-15.743,-15.736,-15.732,-15.731,-15.734,-15.733,-15.73,-15.718,-15.715,-15.711,-15.715,-15.709,-15.711,-15.706,-15.705,-15.702,-15.701,-15.696,-15.695,-15.69,-15.692,-15.686,-15.683,-15.677,-15.678,-15.673,-15.673,-15.671,-15.674,-15.674,-15.675,-15.674,-15.676,-15.676,-15.677,-15.675,-15.678,-15.674,-15.679,-15.677,-15.679,-15.68,-15.68,-15.678,-15.684,-15.686,-15.688,-15.69,-15.689,-15.691,-15.698,-15.698,-15.699,-15.699,-15.698,-15.697,-15.701,-15.702,-15.7,-15.699,-15.7,-15.704,-15.705,-15.704,-15.706,-15.704,-15.705,-15.701,-15.701,-15.7,-15.698,-15.695,-15.697,-15.697,-15.698,-15.698,-15.697,-15.696,-15.702,-15.701,-15.702,-15.702,-15.704,-15.704,-15.702,-15.699,-15.697,-15.698,-15.698,-15.698,-15.694,-15.695,-15.698,-15.697,-15.699,-15.699,-15.698,-15.705,-15.704,-15.705,-15.703,-15.699,-15.701,-15.702,-15.702,-15.698,-15.698,-15.699,-15.7,-15.7,-15.697,-15.693,-15.694,-15.69,-15.686,-15.688,-15.687,-15.684,-15.676,-15.67,-15.66,-15.649,-15.651,-15.65,-15.632,-15.619,-15.597,-15.578,-15.579,-15.591,-15.59,-15.601,-15.615,-15.626,-15.627,-15.631,-15.653,-15.684,-15.693,-15.698,-15.696,-15.697,-15.697,-15.7,-15.701,-15.701,-15.703,-15.7,-15.702,-15.701,-15.705,-15.706,-15.709,-15.728,-15.769,-15.802,-15.751,-15.581,-15.323,-15.086,-14.851,-14.894,-15.249,-15.388,-15.47,-15.759,-15.845,-15.859,-15.887,-15.838,-15.762,-15.702,-15.677,-15.659,-15.659,-15.651,-15.65,-15.641,-15.637,-15.633,-15.628,-15.615,-15.608,-15.596,-15.591,-15.577,-15.572,-15.567,-15.562,-15.553,-15.545,-15.532,-15.523,-15.514,-15.507,-15.49,-15.482,-15.469,-15.458,-15.44,-15.426,-15.411,-15.395,-15.375,-15.356,-15.336,-15.313,-15.303,-15.281,-15.259,-15.237,-15.217,-15.198,-15.177,-15.163,-15.153,-15.146,-15.138,-15.136,-15.135,-15.142,-15.155,-15.178,-15.205,-15.237,-15.277,-15.315,-15.336,-15.371,-15.412,-15.446,-15.482,-15.508,-15.535,-15.556,-15.574,-15.587,-15.605,-15.612,-15.621,-15.623,-15.632,-15.632,-15.636,-15.637,-15.641,-15.639,-15.64,-15.641,-15.641,-15.637,-15.637,-15.633,-15.631,-15.623,-15.622,-15.619,-15.618,-15.613,-15.612,-15.609,-15.604,-15.598,-15.593,-15.589,-15.587,-15.585,-15.581,-15.579,-15.575,-15.564,-15.56,-15.557,-15.553,-15.552,-15.552,-15.554,-15.554,-15.555,-15.553,-15.552,-15.552,-15.556,-15.552,-15.552,-15.552,-15.549,-15.552,-15.549,-15.55,-15.553,-15.552,-15.556,-15.554,-15.553,-15.553,-15.552,-15.551,-15.55,-15.551,-15.546,-15.548,-15.547,-15.544,-15.541,-15.538,-15.536,-15.531,-15.53,-15.529,-15.528,-15.525,-15.524,-15.522,-15.521,-15.517,-15.518,-15.514,-15.513,-15.51,-15.511,-15.512,-15.511,-15.509,-15.505,-15.502,-15.502,-15.502,-15.501,-15.502,-15.508,-15.501,-15.502,-15.501,-15.504,-15.5,-15.5,-15.5,-15.499,-15.497,-15.495,-15.496,-15.5,-15.497,-15.493,-15.497,-15.497,-15.495,-15.493,-15.491,-15.49,-15.494,-15.493,-15.495,-15.495,-15.488,-15.489,-15.486,-15.491,-15.49,-15.488,-15.481,-15.474,-15.465,-15.457,-15.449,-15.449,-15.452,-15.431,-15.42,-15.398,-15.378,-15.385,-15.393,-15.391,-15.403,-15.413,-15.423,-15.423,-15.439,-15.47,-15.486,-15.493,-15.497,-15.496,-15.493,-15.499,-15.496,-15.498,-15.495,-15.497,-15.496,-15.497,-15.496,-15.497,-15.493,-15.502,-15.529,-15.569,-15.583,-15.492,-15.27,-15.032,-14.766,-14.653,-14.674,-15.009,-15.175,-15.265,-15.524,-15.587,-15.604,-15.656,-15.618,-15.537,-15.494,-15.45,-15.456,-15.439,-15.448,-15.44,-15.447,-15.44,-15.44,-15.43,-15.444,-15.429,-15.43,-15.413,-15.42,-15.405,-15.406,-15.398,-15.398,-15.385,-15.38,-15.372,-15.369,-15.353,-15.348,-15.338,-15.329,-15.311,-15.3,-15.29,-15.272,-15.256,-15.242,-15.221,-15.201,-15.182,-15.164,-15.138,-15.114,-15.093,-15.073,-15.062,-15.046,-15.033,-15.024,-15.017,-15.015,-15.019,-15.024,-15.03,-15.044,-15.063,-15.092,-15.127,-15.164,-15.208,-15.245,-15.285,-15.321,-15.361,-15.388,-15.419,-15.443,-15.472,-15.489,-15.507,-15.519,-15.534,-15.536,-15.545,-15.546,-15.55,-15.55,-15.554,-15.559,-15.563,-15.563,-15.566,-15.563,-15.566,-15.561,-15.561,-15.563,-15.562,-15.56,-15.556,-15.555,-15.551,-15.549,-15.549,-15.545,-15.548,-15.541,-15.539,-15.536,-15.535,-15.528,-15.53,-15.525,-15.52,-15.51,-15.509,-15.506,-15.501,-15.502,-15.502,-15.5,-15.501,-15.503,-15.502,-15.501,-15.504,-15.502,-15.506,-15.511,-15.513,-15.512,-15.514,-15.51,-15.51,-15.508,-15.513,-15.514,-15.513,-15.513,-15.51,-15.508,-15.511,-15.517,-15.515,-15.512,-15.515,-15.515,-15.517,-15.514,-15.515,-15.516,-15.518,-15.517,-15.515,-15.518,-15.517,-15.517,-15.519,-15.522,-15.522,-15.521,-15.521,-15.524,-15.525,-15.531,-15.53,-15.532,-15.533,-15.537,-15.537,-15.539,-15.534,-15.527,-15.521,-15.513,-15.504,-15.509,-15.512,-15.497,-15.488,-15.474,-15.457,-15.447,-15.46,-15.465,-15.462,-15.477,-15.491,-15.501,-15.509,-15.532,-15.56,-15.581,-15.585,-15.59,-15.59,-15.598,-15.599,-15.604,-15.605,-15.607,-15.608,-15.612,-15.61,-15.614,-15.617,-15.623,-15.632,-15.669,-15.71,-15.721,-15.616,-15.383,-15.142,-14.885,-14.757,-15.035,-15.257,-15.339,-15.567,-15.744,-15.75,-15.775,-15.841,-15.786,-15.719,-15.665,-15.642,-15.639,-15.637,-15.64,-15.637,-15.637,-15.632,-15.631,-15.629,-15.623,-15.616,-15.612,-15.605,-15.603,-15.599,-15.594,-15.589,-15.583,-15.577,-15.569,-15.563,-15.553,-15.547,-15.538,-15.527,-15.52,-15.507,-15.495,-15.482,-15.466,-15.453,-15.435,-15.42,-15.408,-15.393,-15.375,-15.357,-15.337,-15.32,-15.3,-15.287,-15.271,-15.261,-15.253,-15.247,-15.245,-15.249,-15.254,-15.272,-15.293,-15.327,-15.362,-15.383,-15.424,-15.468,-15.507,-15.55,-15.587,-15.622,-15.649,-15.685,-15.706,-15.726,-15.745,-15.759,-15.767,-15.781,-15.786,-15.795,-15.8,-15.802,-15.802,-15.801,-15.804,-15.809,-15.81,-15.813,-15.815,-15.818,-15.816,-15.822,-15.816,-15.816,-15.815,-15.814,-15.808,-15.802,-15.804,-15.799,-15.796,-15.794,-15.791,-15.789,-15.785,-15.783,-15.785,-15.785,-15.779,-15.773,-15.771,-15.768,-15.766,-15.766,-15.769,-15.77,-15.772,-15.775,-15.779,-15.782,-15.785,-15.787,-15.792,-15.795,-15.795,-15.8,-15.805,-15.806,-15.809,-15.812,-15.815,-15.818,-15.82,-15.821,-15.824,-15.823,-15.826,-15.828,-15.828,-15.832,-15.837,-15.841,-15.843,-15.843,-15.846,-15.844,-15.848,-15.844,-15.846,-15.847,-15.848,-15.849,-15.85,-15.849,-15.849,-15.847,-15.848,-15.846,-15.846,-15.846,-15.852,-15.847,-15.848,-15.848,-15.85,-15.848,-15.85,-15.846,-15.846,-15.846,-15.849,-15.849,-15.85,-15.848,-15.846,-15.845,-15.844,-15.847,-15.846,-15.845,-15.846,-15.845,-15.843,-15.844,-15.843,-15.841,-15.841,-15.842,-15.843,-15.844,-15.835,-15.832,-15.826,-15.815,-15.806,-15.814,-15.811,-15.788,-15.776,-15.753,-15.73,-15.733,-15.745,-15.748,-15.754,-15.769,-15.778,-15.78,-15.783,-15.808,-15.835,-15.847,-15.847,-15.853,-15.849,-15.851,-15.851,-15.851,-15.85,-15.851,-15.851,-15.851,-15.848,-15.849,-15.847,-15.852,-15.864,-15.906,-15.942,-15.906,-15.763,-15.505,-15.268,-15.014,-14.973,-15.344,-15.492,-15.578,-15.865,-15.982,-16,-16.001,-15.988,-15.905,-15.85,-15.818,-15.806,-15.802,-15.796,-15.795,-15.788,-15.787,-15.778,-15.775,-15.763,-15.756,-15.745,-15.738,-15.727,-15.723,-15.714,-15.711,-15.7,-15.689,-15.674,-15.667,-15.657,-15.646,-15.63,-15.62,-15.605,-15.593,-15.575,-15.559,-15.542,-15.526,-15.507,-15.488,-15.473,-15.449,-15.44,-15.421,-15.398,-15.377,-15.355,-15.337,-15.32,-15.306,-15.293,-15.282,-15.274,-15.27,-15.273,-15.279,-15.292,-15.314,-15.342,-15.372,-15.411,-15.454,-15.475,-15.506,-15.542,-15.579,-15.613,-15.639,-15.668,-15.69,-15.71,-15.723,-15.735,-15.742,-15.753,-15.756,-15.756,-15.76,-15.763,-15.763,-15.77,-15.771,-15.771,-15.771,-15.773,-15.766,-15.769,-15.766,-15.764,-15.757,-15.757,-15.756,-15.752,-15.747,-15.745,-15.74,-15.741,-15.739,-15.74,-15.736,-15.733,-15.729,-15.73,-15.725,-15.72,-15.717,-15.713,-15.708,-15.71,-15.712,-15.714,-15.716,-15.718,-15.716,-15.717,-15.723,-15.72,-15.721,-15.719,-15.72,-15.722,-15.725,-15.726,-15.727,-15.729,-15.731,-15.736,-15.739,-15.738,-15.738,-15.741,-15.738,-15.74,-15.738,-15.738,-15.739,-15.742,-15.745,-15.739,-15.738,-15.738,-15.739,-15.735,-15.733,-15.735,-15.737,-15.736,-15.736,-15.735,-15.734,-15.734,-15.734,-15.73,-15.73,-15.73,-15.73,-15.731,-15.731,-15.73,-15.729,-15.731,-15.733,-15.732,-15.735,-15.731,-15.732,-15.732,-15.737,-15.735,-15.734,-15.736,-15.735,-15.734,-15.737,-15.736,-15.736,-15.736,-15.736,-15.736,-15.738,-15.737,-15.738,-15.738,-15.742,-15.742,-15.74,-15.735,-15.735,-15.733,-15.736,-15.735,-15.734,-15.735,-15.736,-15.737,-15.74,-15.739,-15.738,-15.74,-15.735,-15.736,-15.73,-15.722,-15.707,-15.698,-15.701,-15.691,-15.679,-15.659,-15.64,-15.638,-15.654,-15.652,-15.661,-15.676,-15.686,-15.689,-15.69,-15.719,-15.746,-15.75,-15.752,-15.752,-15.751,-15.755,-15.752,-15.754,-15.753,-15.756,-15.754,-15.758,-15.756,-15.76,-15.758,-15.758,-15.77,-15.803,-15.842,-15.832,-15.7,-15.582,-15.332,-15.082,-15.08,-15.082,-15.313,-15.456,-15.551,-15.832,-15.886,-15.918,-15.907,-15.817,-15.768,-15.724,-15.711,-15.704,-15.699,-15.698,-15.694,-15.694,-15.685,-15.683,-15.674,-15.673,-15.662,-15.651,-15.643,-15.639,-15.632,-15.627,-15.62,-15.611,-15.602,-15.596,-15.588,-15.579,-15.566,-15.557,-15.553,-15.539,-15.525,-15.509,-15.493,-15.476,-15.455,-15.438,-15.418,-15.396,-15.375,-15.353,-15.331,-15.309,-15.288,-15.267,-15.25,-15.231,-15.218,-15.206,-15.202,-15.198,-15.193,-15.194,-15.203,-15.217,-15.242,-15.27,-15.308,-15.347,-15.385,-15.423,-15.464,-15.496,-15.529,-15.557,-15.585,-15.605,-15.625,-15.635,-15.649,-15.662,-15.666,-15.671,-15.676,-15.682,-15.682,-15.686,-15.687,-15.687,-15.692,-15.69,-15.686,-15.686,-15.687,-15.682,-15.679,-15.673,-15.669,-15.669,-15.667,-15.666,-15.663,-15.662,-15.658,-15.655,-15.651,-15.649,-15.645,-15.644,-15.643,-15.64,-15.635,-15.628,-15.63,-15.62,-15.622,-15.617,-15.619,-15.619,-15.618,-15.619,-15.615,-15.619,-15.619,-15.617,-15.616,-15.617,-15.616,-15.62,-15.62,-15.621,-15.622,-15.621,-15.626,-15.624,-15.628,-15.628,-15.63,-15.631,-15.628,-15.629,-15.628,-15.628,-15.628,-15.624,-15.622,-15.622,-15.623,-15.626,-15.623,-15.624,-15.624,-15.625,-15.621,-15.616,-15.612,-15.613,-15.61,-15.613,-15.613,-15.615,-15.615,-15.612,-15.61,-15.607,-15.607,-15.611,-15.608,-15.609,-15.606,-15.606,-15.606,-15.607,-15.603,-15.599,-15.597,-15.596,-15.596,-15.593,-15.597,-15.592,-15.59,-15.585,-15.583,-15.584,-15.588,-15.588,-15.588,-15.583,-15.587,-15.589,-15.586,-15.59,-15.584,-15.584,-15.585,-15.584,-15.582,-15.58,-15.585,-15.585,-15.583,-15.583,-15.585,-15.581,-15.58,-15.576,-15.574,-15.572,-15.56,-15.555,-15.537,-15.544,-15.532,-15.519,-15.497,-15.478,-15.472,-15.476,-15.486,-15.479,-15.487,-15.496,-15.5,-15.501,-15.517,-15.55,-15.569,-15.569,-15.573,-15.568,-15.572,-15.569,-15.57,-15.572,-15.568,-15.576,-15.575,-15.575,-15.572,-15.564,-15.565,-15.575,-15.592,-15.634,-15.672,-15.623,-15.451,-15.186,-14.942,-14.713,-14.797,-15.114,-15.266,-15.381,-15.618,-15.672,-15.659,-15.73,-15.726,-15.659,-15.606,-15.567,-15.54,-15.544,-15.535,-15.544,-15.541,-15.542,-15.531,-15.532,-15.52,-15.521,-15.515,-15.518,-15.515,-15.514,-15.498,-15.494,-15.486,-15.487,-15.478,-15.474,-15.469,-15.461,-15.444,-15.437,-15.425,-15.409,-15.394,-15.379,-15.365,-15.349,-15.333,-15.313,-15.3,-15.286,-15.261,-15.243,-15.219,-15.203,-15.182,-15.164,-15.15,-15.141,-15.129,-15.122,-15.114,-15.113,-15.118,-15.124,-15.14,-15.162,-15.194,-15.227,-15.246,-15.288,-15.324,-15.361,-15.404,-15.433,-15.47,-15.5,-15.531,-15.545,-15.563,-15.579,-15.592,-15.603,-15.613,-15.619,-15.624,-15.623,-15.629,-15.627,-15.63,-15.629,-15.628,-15.628,-15.629,-15.624,-15.625,-15.622,-15.624,-15.617,-15.615,-15.614,-15.611,-15.608,-15.607,-15.601,-15.6,-15.597,-15.596,-15.593,-15.592,-15.585,-15.581,-15.573,-15.572,-15.57,-15.566,-15.561,-15.559,-15.557,-15.553,-15.549,-15.549,-15.549,-15.552,-15.549,-15.554,-15.555,-15.557,-15.555,-15.558,-15.557,-15.56,-15.56,-15.56,-15.564,-15.565,-15.567,-15.572,-15.57,-15.57,-15.574,-15.573,-15.572,-15.575,-15.573,-15.574,-15.575,-15.58,-15.578,-15.578,-15.577,-15.576,-15.578,-15.579,-15.579,-15.577,-15.57,-15.573,-15.575,-15.574,-15.573,-15.575,-15.576,-15.578,-15.575,-15.576,-15.579,-15.578,-15.579,-15.576,-15.576,-15.575,-15.576,-15.579,-15.582,-15.582,-15.586,-15.587,-15.59,-15.581,-15.577,-15.568,-15.558,-15.559,-15.568,-15.562,-15.55,-15.544,-15.524,-15.51,-15.532,-15.538,-15.54,-15.557,-15.574,-15.585,-15.591,-15.607,-15.645,-15.664,-15.672,-15.678,-15.682,-15.686,-15.69,-15.691,-15.696,-15.696,-15.699,-15.699,-15.704,-15.708,-15.713,-15.714,-15.725,-15.75,-15.795,-15.829,-15.774,-15.598,-15.34,-15.095,-14.884,-14.977,-15.291,-15.445,-15.552,-15.698,-15.849,-15.861,-15.931,-15.92,-15.823,-15.778,-15.738,-15.737,-15.732,-15.736,-15.734,-15.734,-15.727,-15.73,-15.723,-15.721,-15.717,-15.71,-15.703,-15.704,-15.698,-15.694,-15.688,-15.682,-15.673,-15.663,-15.657,-15.65,-15.636,-15.63,-15.618,-15.609,-15.595,-15.582,-15.565,-15.55,-15.534,-15.518,-15.507,-15.494,-15.473,-15.455,-15.432,-15.417,-15.395,-15.377,-15.363,-15.349,-15.337,-15.325,-15.317,-15.316,-15.315,-15.32,-15.331,-15.352,-15.38,-15.413,-15.433,-15.474,-15.515,-15.554,-15.597,-15.629,-15.672,-15.705,-15.734,-15.76,-15.781,-15.8,-15.813,-15.825,-15.836,-15.841,-15.851,-15.854,-15.855,-15.861,-15.863,-15.863,-15.866,-15.865,-15.865,-15.865,-15.866,-15.864,-15.865,-15.863,-15.863,-15.859,-15.86,-15.857,-15.856,-15.852,-15.849,-15.846,-15.849,-15.846,-15.841,-15.84,-15.835,-15.831,-15.825,-15.818,-15.813,-15.811,-15.808,-15.806,-15.808,-15.805,-15.807,-15.808,-15.808,-15.812,-15.811,-15.812,-15.814,-15.814,-15.809,-15.813,-15.818,-15.818,-15.823,-15.826,-15.829,-15.831,-15.83,-15.836,-15.832,-15.835,-15.839,-15.842,-15.843,-15.842,-15.842,-15.844,-15.845,-15.846,-15.848,-15.847,-15.85,-15.853,-15.855,-15.855,-15.856,-15.848,-15.845,-15.845,-15.842,-15.846,-15.847,-15.848,-15.847,-15.844,-15.842,-15.842,-15.843,-15.842,-15.841,-15.838,-15.834,-15.836,-15.831,-15.829,-15.826,-15.826,-15.822,-15.818,-15.827,-15.823,-15.823,-15.822,-15.823,-15.822,-15.823,-15.822,-15.823,-15.823,-15.825,-15.826,-15.829,-15.825,-15.829,-15.827
