-8.2167,-8.2481,-8.2601,-8.2616,-8.2681,-8.262,-8.2702,-8.2714,-8.2768,-8.2648,-8.2621,-8.273,-8.276,-8.2672,-8.2637,-8.2704,-8.2954,-8.3319,-8.3492,-8.3563,-8.2495,-8.0292,-7.7911,-7.542,-7.4081,-7.66,-7.8578,-7.9498,-8.127,-8.3624,-8.404,-8.4293,-8.4203,-8.3121,-8.2744,-8.2242,-8.2347,-8.2146,-8.2206,-8.2021,-8.2149,-8.1941,-8.2043,-8.1875,-8.1775,-8.1648,-8.1585,-8.1552,-8.157,-8.147,-8.138,-8.1234,-8.1272,-8.1108,-8.1088,-8.0931,-8.081,-8.0739,-8.0656,-8.055,-8.0456,-8.0339,-8.0184,-8.0044,-8.003,-7.9834,-7.9616,-7.9482,-7.9283,-7.9108,-7.8859,-7.8614,-7.8431,-7.8243,-7.7969,-7.778,-7.7629,-7.767,-7.7406,-7.7213,-7.7279,-7.728,-7.7134,-7.716,-7.7174,-7.7394,-7.756,-7.7817,-7.8153,-7.8638,-7.8983,-7.9482,-7.983,-8.0199,-8.0495,-8.0798,-8.1098,-8.1343,-8.1574,-8.1797,-8.1893,-8.1973,-8.2052,-8.2232,-8.2249,-8.2312,-8.225,-8.233,-8.2363,-8.2395,-8.2426,-8.2463,-8.2389,-8.2445,-8.2416,-8.2494,-8.2435,-8.2402,-8.2378,-8.2429,-8.2361,-8.242,-8.2348,-8.239,-8.2376,-8.2344,-8.2345,-8.234,-8.2136,-8.2173,-8.2267,-8.2216,-8.2216,-8.2194,-8.2149,-8.2055,-8.2026,-8.2047,-8.2073,-8.2097,-8.2062,-8.1999,-8.2056,-8.2019,-8.2029,-8.2036,-8.2137,-8.2131,-8.2103,-8.2073,-8.2164,-8.2185,-8.2226,-8.2254,-8.2246,-8.2291,-8.2267,-8.2322,-8.2322,-8.2287,-8.2268,-8.2343,-8.2279,-8.2182,-8.2388,-8.2359,-8.2358,-8.2422,-8.2382,-8.2341,-8.238,-8.2394,-8.2359,-8.2386,-8.2437,-8.2488,-8.2428,-8.2384,-8.2415,-8.2443,-8.2393,-8.2495,-8.2562,-8.2481,-8.2459,-8.2451,-8.2378,-8.2437,-8.2482,-8.2456,-8.2561,-8.2524,-8.2496,-8.2482,-8.2416,-8.2455,-8.2552,-8.2542,-8.2597,-8.2595,-8.2615,-8.2592,-8.2555,-8.2698,-8.2656,-8.2644,-8.2625,-8.2673,-8.2725,-8.2648,-8.2731,-8.2614,-8.2774,-8.2676,-8.2687,-8.2626,-8.2655,-8.2745,-8.2776,-8.2742,-8.2827,-8.2755,-8.28,-8.2801,-8.2699,-8.2756,-8.284,-8.2754,-8.2869,-8.2897,-8.2868,-8.2846,-8.2879,-8.2867,-8.2809,-8.2796,-8.2744,-8.2681,-8.2531,-8.2464,-8.2487,-8.244,-8.2331,-8.2095,-8.1833,-8.1826,-8.2029,-8.2055,-8.2158,-8.2221,-8.2345,-8.2357,-8.2366,-8.2707,-8.3052,-8.3033,-8.3078,-8.3144,-8.3178,-8.3122,-8.3118,-8.3158,-8.3086,-8.313,-8.318,-8.3247,-8.3166,-8.316,-8.3094,-8.3161,-8.3482,-8.3842,-8.4048,-8.3462,-8.1694,-7.9261,-7.8156,-7.5739,-7.4308,-7.7677,-7.9192,-8.0171,-8.2323,-8.4305,-8.4585,-8.4967,-8.4544,-8.3569,-8.3211,-8.278,-8.2758,-8.2713,-8.2649,-8.2559,-8.2644,-8.2552,-8.2494,-8.2357,-8.2352,-8.2184,-8.2109,-8.1927,-8.1961,-8.1936,-8.191,-8.1741,-8.1717,-8.1559,-8.1496,-8.1411,-8.1354,-8.1142,-8.1089,-8.11,-8.0988,-8.0881,-8.0807,-8.0671,-8.0499,-8.0297,-8.0218,-7.9988,-7.9806,-7.9564,-7.9459,-7.9204,-7.9088,-7.8921,-7.869,-7.8501,-7.827,-7.815,-7.8043,-7.7964,-7.7957,-7.7856,-7.7737,-7.7937,-7.8024,-7.8095,-7.8262,-7.8518,-7.886,-7.9323,-7.9735,-8.0125,-8.0542,-8.0913,-8.124,-8.1569,-8.1821,-8.2067,-8.2387,-8.2628,-8.2696,-8.2776,-8.2855,-8.2994,-8.305,-8.3125,-8.3129,-8.3174,-8.3212,-8.3214,-8.3256,-8.3292,-8.3278,-8.3304,-8.3253,-8.3276,-8.325,-8.3243,-8.315,-8.3257,-8.3267,-8.3257,-8.3266,-8.3215,-8.3156,-8.3213,-8.3161,-8.3133,-8.3077,-8.3064,-8.3043,-8.308,-8.3003,-8.2998,-8.2983,-8.2944,-8.2933,-8.2965,-8.2882,-8.2925,-8.2937,-8.2894,-8.2933,-8.2965,-8.2984,-8.2966,-8.2992,-8.3079,-8.3066,-8.3129,-8.3124,-8.3154,-8.3144,-8.3211,-8.3199,-8.3288,-8.3273,-8.3292,-8.331,-8.3267,-8.3293,-8.3309,-8.3353,-8.3383,-8.3345,-8.3342,-8.3394,-8.3385,-8.3385,-8.3414,-8.3315,-8.3386,-8.3385,-8.3476,-8.3455,-8.352,-8.3492,-8.3397,-8.3516,-8.3531,-8.3492,-8.3603,-8.3544,-8.3611,-8.3714,-8.3641,-8.3591,-8.3506,-8.3656,-8.3694,-8.3652,-8.3594,-8.3661,-8.3659,-8.3708,-8.3716,-8.3715,-8.3716,-8.3774,-8.3761,-8.3759,-8.3806,-8.3865,-8.3829,-8.3769,-8.3774,-8.3809,-8.3753,-8.3991,-8.3971,-8.3904,-8.3916,-8.3946,-8.3937,-8.3932,-8.3962,-8.3908,-8.3945,-8.3931,-8.3922,-8.4006,-8.3971,-8.391,-8.3953,-8.4048,-8.3904,-8.4035,-8.4073,-8.4054,-8.4086,-8.4019,-8.4058,-8.4121,-8.4012,-8.4058,-8.4091,-8.4129,-8.4093,-8.4109,-8.4059,-8.4104,-8.4137,-8.4096,-8.3982,-8.3872,-8.3769,-8.3798,-8.367,-8.3591,-8.3338,-8.318,-8.3151,-8.3342,-8.3262,-8.333,-8.3575,-8.3653,-8.3715,-8.3736,-8.4019,-8.4243,-8.4366,-8.4435,-8.4422,-8.4478,-8.4534,-8.4491,-8.4498,-8.4487,-8.45,-8.4553,-8.4531,-8.4523,-8.4518,-8.4525,-8.456,-8.4793,-8.5211,-8.547,-8.5407,-8.4214,-8.1929,-7.9568,-7.7141,-7.5685,-7.8819,-8.0747,-8.1587,-8.3498,-8.5696,-8.5976,-8.6183,-8.5912,-8.5019,-8.4735,-8.4207,-8.4275,-8.4027,-8.4075,-8.3881,-8.396,-8.3924,-8.3896,-8.3738,-8.3734,-8.3532,-8.354,-8.3315,-8.3444,-8.3299,-8.3187,-8.2993,-8.318,-8.3005,-8.2914,-8.269,-8.2689,-8.2589,-8.2513,-8.2431,-8.2298,-8.2153,-8.1994,-8.1921,-8.1816,-8.1615,-8.1419,-8.1335,-8.1078,-8.081,-8.0677,-8.0398,-8.0409,-8.0129,-7.9868,-7.9709,-7.9591,-7.9446,-7.9259,-7.9267,-7.926,-7.92,-7.9121,-7.9188,-7.9249,-7.9422,-7.9554,-7.9873,-8.0208,-8.0584,-8.0979,-8.1505,-8.1835,-8.2229,-8.2516,-8.2935,-8.3255,-8.3589,-8.3796,-8.3938,-8.4023,-8.4156,-8.4249,-8.4396,-8.4391,-8.4542,-8.4482,-8.4611,-8.4568,-8.4657,-8.4716,-8.4583,-8.4619,-8.4722,-8.4653,-8.4698,-8.4627,-8.4629,-8.4615,-8.4669,-8.4662,-8.4649,-8.4629,-8.4671,-8.4602,-8.4553,-8.46,-8.4526,-8.461,-8.4607,-8.4502,-8.4498,-8.4417,-8.449,-8.4423,-8.4441,-8.4311,-8.4344,-8.4361,-8.4405,-8.4321,-8.4394,-8.4266,-8.4339,-8.4428,-8.4392,-8.4351,-8.4423,-8.4423,-8.4422,-8.4544,-8.4472,-8.4545,-8.4611,-8.4622,-8.4689,-8.4656,-8.4712,-8.4763,-8.4747,-8.4767,-8.4792,-8.4802,-8.4787,-8.4869,-8.489,-8.4836,-8.4955,-8.4951,-8.4935,-8.5022,-8.4974,-8.5037,-8.5063,-8.5106,-8.5096,-8.5085,-8.5054,-8.507,-8.5095,-8.5238,-8.5178,-8.525,-8.5294,-8.5222,-8.5243,-8.5298,-8.53,-8.5338,-8.5305,-8.5376,-8.536,-8.5416,-8.5389,-8.5421,-8.5467,-8.5463,-8.5476,-8.5473,-8.5506,-8.5533,-8.5511,-8.5542,-8.5512,-8.5564,-8.5552,-8.5573,-8.557,-8.5536,-8.5526,-8.556,-8.5587,-8.5674,-8.563,-8.5636,-8.569,-8.5587,-8.5598,-8.5636,-8.5655,-8.562,-8.5663,-8.5651,-8.5639,-8.5694,-8.5695,-8.5691,-8.5701,-8.5755,-8.567,-8.5765,-8.5743,-8.5778,-8.5838,-8.58,-8.5845,-8.5867,-8.5934,-8.5894,-8.5851,-8.5925,-8.5949,-8.5948,-8.5923,-8.5981,-8.5922,-8.5914,-8.5784,-8.5772,-8.564,-8.5706,-8.5641,-8.548,-8.5287,-8.5165,-8.4963,-8.5164,-8.5285,-8.5263,-8.5386,-8.5452,-8.5536,-8.5546,-8.5718,-8.6069,-8.6285,-8.6329,-8.6418,-8.6424,-8.64,-8.6415,-8.6446,-8.6452,-8.6528,-8.6482,-8.6507,-8.6493,-8.6449,-8.6494,-8.6483,-8.6516,-8.6836,-8.7273,-8.7443,-8.6473,-8.4338,-8.1932,-7.9547,-7.7678,-8.0108,-8.2416,-8.3505,-8.5011,-8.735,-8.7903,-8.8096,-8.8149,-8.7523,-8.7007,-8.6311,-8.6148,-8.5832,-8.5972,-8.5801,-8.5961,-8.5678,-8.5758,-8.5618,-8.5542,-8.5585,-8.5503,-8.5141,-8.537,-8.5233,-8.5178,-8.5039,-8.5049,-8.4917,-8.4932,-8.4725,-8.4736,-8.4483,-8.4431,-8.4275,-8.4209,-8.4011,-8.3979,-8.3819,-8.365,-8.3464,-8.3316,-8.2951,-8.2885,-8.2806,-8.2525,-8.2251,-8.2041,-8.2017,-8.1789,-8.1576,-8.1459,-8.1331,-8.1028,-8.0999,-8.0873,-8.0796,-8.078,-8.0801,-8.064,-8.095,-8.096,-8.1045,-8.1394,-8.2074,-8.2328,-8.2499,-8.2772,-8.3205,-8.3674,-8.4154,-8.4532,-8.4738,-8.5092,-8.5354,-8.5396,-8.5527,-8.5309,-8.5343,-8.5672,-8.5797,-8.5846,-8.6005,-8.5919,-8.6033,-8.5965,-8.5766,-8.5631,-8.5605,-8.558,-8.5698,-8.5699,-8.5844,-8.5911,-8.585,-8.5618,-8.5651,-8.5518,-8.5431,-8.5814,-8.5532,-8.5242,-8.5582,-8.5502,-8.5217,-8.5125,-8.5338,-8.5129,-8.472,-8.5013,-8.519,-8.5185,-8.5122,-8.5161,-8.5059,-8.4844,-8.482,-8.4658,-8.5048,-8.5035,-8.5121,-8.4814,-8.4815,-8.4844,-8.4815,-8.4851,-8.4979,-8.4879,-8.4934,-8.4978,-8.4887,-8.4872,-8.4892,-8.4864,-8.5075,-8.4876,-8.4758,-8.4814,-8.4839,-8.4956,-8.4801,-8.4853,-8.4945,-8.4918,-8.4704,-8.4657,-8.4756,-8.4831,-8.4892,-8.4792,-8.4776,-8.4873,-8.4688,-8.4769,-8.4425,-8.4437,-8.4612,-8.4729,-8.4732,-8.4672,-8.4714,-8.4821,-8.4615,-8.463,-8.4479,-8.4523,-8.4513,-8.4481,-8.4541,-8.4556,-8.4647,-8.4484,-8.4389,-8.4587,-8.4375,-8.4453,-8.4352,-8.4348,-8.4358,-8.4216,-8.4051,-8.4016,-8.3789,-8.401,-8.4072,-8.3576,-8.3375,-8.3186,-8.3297,-8.301,-8.3036,-8.3069,-8.2984,-8.2978,-8.3274,-8.3292,-8.3168,-8.3472,-8.3706,-8.3626,-8.3844,-8.3843,-8.377,-8.3876,-8.3704,-8.3593,-8.3588,-8.3617,-8.3606,-8.3741,-8.3644,-8.3665,-8.3543,-8.3635,-8.3803,-8.42,-8.4462,-8.4262,-8.2837,-8.0254,-7.779,-7.531,-7.5178,-7.8208,-8.0184,-8.169,-8.2605,-8.4017,-8.3595,-8.3613,-8.4946,-8.4651,-8.4158,-8.3742,-8.3369,-8.3056,-8.3005,-8.2816,-8.2875,-8.2814,-8.2825,-8.2604,-8.2671,-8.2491,-8.2356,-8.2282,-8.2304,-8.211,-8.2,-8.1898,-8.1958,-8.173,-8.1665,-8.1476,-8.1533,-8.1383,-8.1316,-8.1076,-8.0934,-8.0768,-8.0708,-8.0584,-8.0399,-8.0362,-8.0159,-7.994,-7.9861,-7.9654,-7.94,-7.9216,-7.8904,-7.8745,-7.8569,-7.8377,-7.8113,-7.8022,-7.7942,-7.7858,-7.7727,-7.7628,-7.7671,-7.7837,-7.7837,-7.7993,-7.8392,-7.8704,-7.8851,-7.9253,-7.9662,-8.0051,-8.0529,-8.0877,-8.1229,-8.1492,-8.1899,-8.2226,-8.2383,-8.2671,-8.2823,-8.2914,-8.3033,-8.3158,-8.3223,-8.3282,-8.3276,-8.3228,-8.3187,-8.3368,-8.338,-8.3418,-8.3387,-8.3419,-8.3437,-8.3449,-8.3437,-8.3339,-8.3537,-8.3591,-8.34,-8.3404,-8.34,-8.3318,-8.3385,-8.3483,-8.3371,-8.3352,-8.3359,-8.3284,-8.3249,-8.329,-8.3258,-8.3358,-8.3272,-8.3232,-8.3299,-8.3303,-8.3286,-8.3245,-8.3325,-8.336,-8.3302,-8.3357,-8.3435,-8.3541,-8.352,-8.3536,-8.3558,-8.3591,-8.3603,-8.3717,-8.3638,-8.3829,-8.3799,-8.3868,-8.3849,-8.388,-8.3905,-8.3951,-8.393,-8.3958,-8.399,-8.4066,-8.4145,-8.4126,-8.4156,-8.414,-8.4159,-8.4132,-8.421,-8.4277,-8.4336,-8.4301,-8.4406,-8.4399,-8.4406,-8.445,-8.4443,-8.4462,-8.4394,-8.4384,-8.429,-8.4247,-8.4433,-8.44,-8.4282,-8.4224,-8.4167,-8.3937,-8.3872,-8.4054,-8.4085,-8.4094,-8.4297,-8.439,-8.4468,-8.4487,-8.4827,-8.5101,-8.5323,-8.54,-8.5446,-8.54,-8.545,-8.5473,-8.5533,-8.5529,-8.565,-8.5707,-8.5733,-8.5641,-8.5715,-8.5849,-8.5862,-8.611,-8.6523,-8.6704,-8.5795,-8.3623,-8.1275,-7.8816,-7.721,-7.925,-8.1499,-8.2707,-8.3231,-8.5884,-8.7409,-8.7369,-8.8001,-8.7362,-8.6757,-8.6089,-8.5988,-8.5799,-8.5876,-8.5858,-8.5867,-8.5782,-8.5805,-8.5633,-8.5708,-8.5727,-8.5638,-8.5588,-8.5662,-8.5494,-8.5482,-8.5435,-8.5435,-8.5296,-8.5299,-8.5207,-8.521,-8.5122,-8.5041,-8.4912,-8.4825,-8.467,-8.4603,-8.4483,-8.4318,-8.4128,-8.4048,-8.3859,-8.3813,-8.3603,-8.3427,-8.3169,-8.2976,-8.2841,-8.2671,-8.2516,-8.239,-8.2205,-8.2097,-8.2041,-8.2015,-8.1994,-8.2003,-8.2095,-8.22,-8.2399,-8.2652,-8.2995,-8.3166,-8.3649,-8.4043,-8.4551,-8.4956,-8.5413,-8.5722,-8.6122,-8.6449,-8.6753,-8.7015,-8.722,-8.7374,-8.7551,-8.7604,-8.7649,-8.7739,-8.7834,-8.7871,-8.7998,-8.7989,-8.7995,-8.7958,-8.8182,-8.8147,-8.8183,-8.8278,-8.8261,-8.832,-8.8373,-8.835,-8.8374,-8.8432,-8.8482,-8.8399,-8.8519,-8.855,-8.8513,-8.8486,-8.8453,-8.8434,-8.8445,-8.8496,-8.8438,-8.8357,-8.8451,-8.8432,-8.84,-8.8383,-8.8364,-8.8387,-8.8342,-8.8414,-8.8441,-8.8422,-8.8417,-8.84,-8.8528,-8.8465,-8.8455,-8.8493,-8.8525,-8.8564,-8.8602,-8.8583,-8.8615,-8.8573,-8.8694,-8.8697,-8.8698,-8.8675,-8.8702,-8.8714,-8.8792,-8.8797,-8.8766,-8.8784,-8.8807,-8.8812,-8.8761,-8.8921,-8.8978,-8.8949,-8.8946,-8.8989,-8.8995,-8.8974,-8.9057,-8.9095,-8.9132,-8.9199,-8.9184,-8.9219,-8.9205,-8.9227,-8.9233,-8.9253,-8.9284,-8.9267,-8.928,-8.9279,-8.9245,-8.9233,-8.9322,-8.9347,-8.9383,-8.9393,-8.9286,-8.9338,-8.9245,-8.911,-8.9101,-8.9046,-8.9095,-8.9092,-8.9006,-8.8884,-8.8688,-8.8458,-8.8461,-8.8602,-8.8716,-8.8796,-8.8933,-8.902,-8.9022,-8.9067,-8.9241,-8.9536,-8.9737,-8.9821,-8.9791,-8.9769,-8.984,-8.9886,-8.9826,-8.9783,-8.9704,-8.9602,-8.976,-8.9851,-8.9782,-8.9774,-8.9799,-9.0059,-9.0426,-9.0538,-8.9677,-8.7664,-8.5202,-8.2915,-8.0838,-8.2423,-8.5174,-8.639,-8.7708,-9.0541,-9.1178,-9.1323,-9.1559,-9.0633,-8.9991,-8.9342,-8.9114,-8.8844,-8.8856,-8.869,-8.875,-8.8627,-8.8668,-8.8556,-8.8523,-8.8316,-8.8227,-8.8129,-8.8096,-8.8003,-8.7972,-8.792,-8.7921,-8.7807,-8.7706,-8.7574,-8.7464,-8.7274,-8.7156,-8.7065,-8.6979,-8.673,-8.6601,-8.6447,-8.6276,-8.605,-8.5833,-8.5582,-8.5347,-8.5102,-8.493,-8.4778,-8.4498,-8.4299,-8.4116,-8.3838,-8.3808,-8.3642,-8.3498,-8.3397,-8.3281,-8.3204,-8.3196,-8.3203,-8.3305,-8.3524,-8.3669,-8.3891,-8.4325,-8.4724,-8.5125,-8.5398,-8.5762,-8.6127,-8.6475,-8.681,-8.7068,-8.7344,-8.7532,-8.7821,-8.7844,-8.7986,-8.7969,-8.8051,-8.8162,-8.8233,-8.8278,-8.829,-8.829,-8.8352,-8.8308,-8.8426,-8.8423,-8.8454,-8.8388,-8.8466,-8.8404,-8.8353,-8.8257,-8.8386,-8.8335,-8.8354,-8.8267,-8.8225,-8.8191,-8.8184,-8.8146,-8.8152,-8.8092,-8.8056,-8.8044,-8.8059,-8.7997,-8.7964,-8.7899,-8.7908,-8.7854,-8.793,-8.7944,-8.7917,-8.7961,-8.8009,-8.8006,-8.8002,-8.8004,-8.8077,-8.8057,-8.8131,-8.8137,-8.8147,-8.8152,-8.8181,-8.8185,-8.8183,-8.8214,-8.8273,-8.8292,-8.8287,-8.8293,-8.8269,-8.8302,-8.8371,-8.836,-8.8315,-8.8342,-8.8326,-8.8348,-8.837,-8.8418,-8.8408,-8.8448,-8.8389,-8.8404,-8.8371,-8.8412,-8.84,-8.8446,-8.8381,-8.8384,-8.8398,-8.8439,-8.8416,-8.8415,-8.8411,-8.8372,-8.8427,-8.8439,-8.8374,-8.8417,-8.84,-8.8432,-8.8296,-8.8327,-8.8348,-8.8366,-8.8408,-8.8404,-8.8339,-8.8347,-8.8359,-8.8359,-8.8383,-8.838,-8.8327,-8.836,-8.8341,-8.8349,-8.8286,-8.8357,-8.837,-8.8412,-8.8349,-8.8329,-8.8266,-8.8199,-8.8102,-8.8074,-8.7972,-8.7961,-8.7894,-8.7681,-8.75,-8.7307,-8.7166,-8.7282,-8.7391,-8.7323,-8.749,-8.7649,-8.7736,-8.7712,-8.7738,-8.7988,-8.8298,-8.839,-8.8471,-8.8395,-8.8364,-8.834,-8.8423,-8.8414,-8.8397,-8.8406,-8.8371,-8.8405,-8.8366,-8.8348,-8.8311,-8.8481,-8.886,-8.9055,-8.9291,-8.8828,-8.7186,-8.4614,-8.2271,-7.996,-8.0251,-8.3739,-8.5121,-8.6308,-8.8824,-8.9707,-8.9782,-9.0236,-8.9465,-8.8761,-8.8366,-8.8068,-8.7739,-8.7717,-8.7721,-8.7666,-8.7652,-8.7605,-8.7447,-8.7361,-8.7188,-8.7138,-8.704,-8.6939,-8.6794,-8.6721,-8.6612,-8.6635,-8.6559,-8.6399,-8.6292,-8.61,-8.602,-8.592,-8.5792,-8.5565,-8.5432,-8.5403,-8.5173,-8.4964,-8.4821,-8.4604,-8.449,-8.4253,-8.4013,-8.3751,-8.3572,-8.3256,-8.3137,-8.2837,-8.2655,-8.2491,-8.242,-8.2202,-8.2056,-8.1942,-8.1883,-8.183,-8.1748,-8.1792,-8.1831,-8.2001,-8.2286,-8.2543,-8.2844,-8.3134,-8.3451,-8.385,-8.4283,-8.4645,-8.4966,-8.5145,-8.5281,-8.5537,-8.5767,-8.5877,-8.6031,-8.6115,-8.6164,-8.6145,-8.6258,-8.625,-8.626,-8.6247,-8.6336,-8.6258,-8.6256,-8.6287,-8.6262,-8.6205,-8.6182,-8.5981,-8.6051,-8.5973,-8.617,-8.5964,-8.5925,-8.5871,-8.5819,-8.5864,-8.5747,-8.5695,-8.5554,-8.5539,-8.5537,-8.552,-8.5416,-8.5366,-8.5306,-8.5252,-8.5162,-8.5099,-8.5074,-8.5076,-8.5034,-8.4992,-8.4969,-8.4957,-8.488,-8.4893,-8.4798,-8.4842,-8.477,-8.4849,-8.4835,-8.483,-8.4826,-8.4796,-8.4707,-8.4774,-8.4817,-8.4746,-8.4726,-8.4644,-8.4584,-8.4602,-8.4624,-8.4591,-8.4562,-8.4577,-8.4528,-8.442,-8.4436,-8.4417,-8.4367,-8.4352,-8.4349,-8.4277,-8.4257,-8.429,-8.4225,-8.4209,-8.411,-8.417,-8.4172,-8.4125,-8.4041,-8.4034,-8.3989,-8.3946,-8.399,-8.3945,-8.3886,-8.3853,-8.3845,-8.3722,-8.3669,-8.3729,-8.3664,-8.3476,-8.3404,-8.3333,-8.328,-8.3308,-8.3157,-8.2953,-8.2821,-8.2569,-8.2391,-8.2501,-8.2556,-8.2454,-8.2494,-8.2633,-8.2731,-8.288,-8.3016,-8.3219,-8.3278,-8.3369,-8.3408,-8.3412,-8.3461,-8.3429,-8.3377,-8.3421,-8.3409,-8.3393,-8.3399,-8.337,-8.3305,-8.3269,-8.3333,-8.3355,-8.3633,-8.3973,-8.4078,-8.3199,-8.0948,-7.8471,-7.5813,-7.476,-7.5139,-7.798,-7.9882,-8.1271,-8.3391,-8.331,-8.3234,-8.4102,-8.4392,-8.3657,-8.3283,-8.2751,-8.2545,-8.2313,-8.2401,-8.2349,-8.2297,-8.2263,-8.212,-8.2032,-8.2006,-8.1896,-8.1739,-8.1628,-8.1681,-8.1593,-8.1536,-8.1412,-8.1361,-8.1302,-8.1364,-8.1179,-8.1137,-8.0967,-8.0791,-8.0734,-8.0663,-8.0538,-8.0422,-8.0374,-8.02,-8.0045,-7.9896,-7.9715,-7.9584,-7.9375,-7.9237,-7.8972,-7.8757,-7.8622,-7.8438,-7.82,-7.8144,-7.8037,-7.7943,-7.7936,-7.7866,-7.7883,-7.7845,-7.7902,-7.8083,-7.8273,-7.8591,-7.8942,-7.9286,-7.98,-8.0139,-8.0566,-8.0966,-8.1263,-8.1674,-8.1998,-8.2186,-8.2426,-8.2546,-8.2715,-8.2859,-8.3033,-8.3001,-8.3057,-8.3097,-8.3283,-8.3294,-8.3326,-8.3305,-8.3269,-8.334,-8.3426,-8.3431,-8.3429,-8.3371,-8.3434,-8.3363,-8.3459,-8.3389,-8.3364,-8.3336,-8.3331,-8.33,-8.3334,-8.3256,-8.3291,-8.325,-8.32,-8.3143,-8.3196,-8.3224,-8.3142,-8.3162,-8.316,-8.3139,-8.3118,-8.3117,-8.3144,-8.311,-8.314,-8.3155,-8.3218,-8.3223,-8.3219,-8.3191,-8.3201,-8.3251,-8.3315,-8.3306,-8.3341,-8.3334,-8.3443,-8.3424,-8.3431,-8.3459,-8.3443,-8.3518,-8.3512,-8.3571,-8.3552,-8.359,-8.3595,-8.3585,-8.3573,-8.3535,-8.3606,-8.3635,-8.359,-8.3613,-8.3556,-8.3686,-8.3585,-8.3637,-8.3665,-8.3671,-8.3674,-8.3678,-8.3699,-8.3733,-8.3666,-8.3708,-8.3756,-8.376,-8.3815,-8.3835,-8.3766,-8.3787,-8.3796,-8.388,-8.376,-8.3686,-8.3627,-8.3593,-8.3467,-8.342,-8.3422,-8.3414,-8.3283,-8.3255,-8.2959,-8.2824,-8.2875,-8.2936,-8.3033,-8.3025,-8.3117,-8.3308,-8.3371,-8.3368,-8.3678,-8.3963,-8.4119,-8.4204,-8.4182,-8.4224,-8.4233,-8.4233,-8.4228,-8.4249,-8.4233,-8.4234,-8.4228,-8.4181,-8.4308,-8.4303,-8.4358,-8.4584,-8.4994,-8.5223,-8.4581,-8.2495,-8.0184,-7.7584,-7.5484,-7.697,-7.9574,-8.0873,-8.2164,-8.4861,-8.568,-8.5782,-8.6159,-8.5596,-8.4905,-8.4345,-8.4047,-8.3825,-8.3916,-8.3821,-8.3796,-8.3682,-8.3715,-8.355,-8.3579,-8.3446,-8.3392,-8.3263,-8.3216,-8.3151,-8.3134,-8.3003,-8.2969,-8.2866,-8.2879,-8.2732,-8.2692,-8.2515,-8.2449,-8.2311,-8.227,-8.2108,-8.1937,-8.183,-8.1601,-8.1494,-8.1404,-8.1217,-8.0993,-8.0813,-8.0597,-8.0393,-8.0315,-8.0085,-7.9804,-7.9684,-7.9444,-7.9395,-7.9262,-7.9083,-7.9057,-7.9021,-7.8918,-7.9009,-7.9057,-7.9201,-7.9402,-7.971,-8.0086,-8.0516,-8.0951,-8.1199,-8.1579,-8.1962,-8.2272,-8.2671,-8.2896,-8.3176,-8.3435,-8.3629,-8.3809,-8.4021,-8.3994,-8.4069,-8.4117,-8.4183,-8.4192,-8.4226,-8.435,-8.4309,-8.4372,-8.4475,-8.4389,-8.4339,-8.442,-8.4364,-8.4374,-8.4422,-8.428,-8.4331,-8.4307,-8.4373,-8.4286,-8.4301,-8.426,-8.4269,-8.4246,-8.4168,-8.4177,-8.4199,-8.4124,-8.4161,-8.4123,-8.4109,-8.4016,-8.4025,-8.3961,-8.4006,-8.4034,-8.3963,-8.4009,-8.3994,-8.4038,-8.4034,-8.4032,-8.4028,-8.4073,-8.4089,-8.4105,-8.4124,-8.4138,-8.4142,-8.4131,-8.4266,-8.4309,-8.4272,-8.4273,-8.4292,-8.4391,-8.4336,-8.4345,-8.4318,-8.4341,-8.4393,-8.4434,-8.4445,-8.438,-8.4385,-8.4412,-8.4446,-8.4487,-8.4442,-8.4443,-8.4534,-8.4449,-8.4547,-8.4498,-8.4481,-8.4574,-8.4584,-8.4588,-8.4595,-8.4642,-8.4548,-8.4579,-8.4673,-8.4649,-8.4621,-8.4617,-8.4696,-8.4648,-8.4575,-8.4703,-8.4732,-8.4748,-8.4659,-8.4623,-8.4706,-8.4799,-8.4774,-8.4744,-8.4717,-8.4755,-8.4813,-8.4812,-8.4835,-8.4864,-8.478,-8.4896,-8.4876,-8.4871,-8.4785,-8.4845,-8.4911,-8.4943,-8.4877,-8.4865,-8.4861,-8.4993,-8.493,-8.4873,-8.4673,-8.4646,-8.4594,-8.4621,-8.4633,-8.4408,-8.4412,-8.4233,-8.4023,-8.4004,-8.4159,-8.4173,-8.425,-8.4418,-8.4582,-8.4602,-8.4588,-8.4724,-8.5077,-8.526,-8.5356,-8.5318,-8.534,-8.5479,-8.5451,-8.5429,-8.5445,-8.5491,-8.5456,-8.5426,-8.5496,-8.5451,-8.5451,-8.5566,-8.5735,-8.6018,-8.6301,-8.6212,-8.5017,-8.2654,-8.0371,-7.7858,-7.6564,-7.9884,-8.1436,-8.2408,-8.4824,-8.6828,-8.713,-8.7237,-8.7407,-8.6348,-8.5848,-8.5359,-8.5373,-8.525,-8.5213,-8.5045,-8.5127,-8.5052,-8.4999,-8.4829,-8.478,-8.4661,-8.4706,-8.4588,-8.4555,-8.4463,-8.4409,-8.4295,-8.4201,-8.413,-8.4156,-8.3969,-8.3908,-8.3764,-8.3623,-8.3503,-8.3391,-8.325,-8.3151,-8.3017,-8.291,-8.2711,-8.2583,-8.2343,-8.2154,-8.1979,-8.1751,-8.1652,-8.1492,-8.1317,-8.1024,-8.0865,-8.0741,-8.0647,-8.0445,-8.0342,-8.0263,-8.0292,-8.0275,-8.0319,-8.0357,-8.0477,-8.0734,-8.0994,-8.1349,-8.1792,-8.2011,-8.2325,-8.2826,-8.3175,-8.3647,-8.3952,-8.4231,-8.452,-8.4754,-8.4924,-8.5036,-8.5212,-8.5359,-8.5392,-8.5521,-8.5528,-8.5565,-8.5663,-8.5693,-8.5717,-8.5676,-8.5733,-8.5733,-8.5729,-8.5726,-8.5766,-8.5772,-8.5794,-8.5772,-8.5777,-8.5736,-8.5668,-8.572,-8.5687,-8.571,-8.5696,-8.5619,-8.5585,-8.5573,-8.5692,-8.5599,-8.5528,-8.5604,-8.5619,-8.5604,-8.5617,-8.5515,-8.5505,-8.5548,-8.5602,-8.5612,-8.5576,-8.561,-8.5681,-8.5666,-8.5696,-8.5688,-8.573,-8.5751,-8.5818,-8.5773,-8.5822,-8.5894,-8.5932,-8.5942,-8.5913,-8.5931,-8.5941,-8.599,-8.6077,-8.6093,-8.6107,-8.6061,-8.6104,-8.6158,-8.6152,-8.6062,-8.6056,-8.6249,-8.6247,-8.6238,-8.6241,-8.6189,-8.6259,-8.6279,-8.6298,-8.6273,-8.6229,-8.6295,-8.6323,-8.6333,-8.6391,-8.6406,-8.6425,-8.6365,-8.6394,-8.6468,-8.6429,-8.648,-8.6507,-8.6478,-8.6474,-8.6419,-8.6533,-8.6492,-8.6575,-8.653,-8.6473,-8.66,-8.6575,-8.6591,-8.6649,-8.6575,-8.6637,-8.6666,-8.6704,-8.6657,-8.6657,-8.6747,-8.6766,-8.6775,-8.6778,-8.683,-8.678,-8.6799,-8.6858,-8.6856,-8.6877,-8.6927,-8.6903,-8.6935,-8.7025,-8.6967,-8.6993,-8.7003,-8.692,-8.7001,-8.7046,-8.7022,-8.6959,-8.709,-8.7069,-8.7051,-8.7081,-8.7146,-8.7116,-8.7132,-8.7091,-8.7087,-8.7013,-8.7028,-8.6927,-8.6812,-8.6816,-8.6695,-8.6671,-8.6476,-8.621,-8.6314,-8.6445,-8.6517,-8.6621,-8.6768,-8.6842,-8.6856,-8.691,-8.717,-8.7492,-8.7697,-8.7733,-8.7744,-8.7759,-8.7754,-8.7755,-8.7803,-8.7832,-8.7814,-8.7825,-8.7876,-8.785,-8.7858,-8.7881,-8.7857,-8.8074,-8.8436,-8.8863,-8.8772,-8.7539,-8.5168,-8.2944,-8.0484,-7.9309,-8.2671,-8.4236,-8.5194,-8.7492,-8.9339,-8.9632,-8.9915,-8.9853,-8.8901,-8.8382,-8.7896,-8.7891,-8.7657,-8.7643,-8.7534,-8.7625,-8.7481,-8.7547,-8.729,-8.7309,-8.7169,-8.7233,-8.7052,-8.7039,-8.697,-8.6904,-8.6966,-8.6776,-8.6602,-8.6653,-8.6513,-8.6419,-8.6343,-8.6178,-8.6081,-8.5991,-8.5852,-8.5761,-8.5567,-8.5367,-8.5285,-8.5211,-8.5071,-8.4818,-8.46,-8.4348,-8.4345,-8.4105,-8.3965,-8.3805,-8.3513,-8.3349,-8.3303,-8.3193,-8.2981,-8.296,-8.2968,-8.2956,-8.288,-8.3025,-8.3187,-8.3315,-8.3642,-8.4014,-8.432,-8.4776,-8.5019,-8.5378,-8.5796,-8.614,-8.6474,-8.6797,-8.7107,-8.7365,-8.7595,-8.7754,-8.792,-8.8028,-8.813,-8.8078,-8.8214,-8.8273,-8.8317,-8.8342,-8.8432,-8.8407,-8.8392,-8.838,-8.8384,-8.8403,-8.8465,-8.8442,-8.8456,-8.8432,-8.8471,-8.8375,-8.8377,-8.8389,-8.8388,-8.8369,-8.8361,-8.8364,-8.838,-8.8347,-8.8276,-8.8215,-8.8218,-8.8285,-8.8235,-8.8152,-8.8137,-8.8164,-8.8138,-8.8161,-8.8108,-8.8111,-8.8074,-8.8099,-8.8115,-8.8082,-8.8163,-8.8205,-8.8202,-8.8246,-8.8292,-8.8236,-8.8232,-8.8337,-8.8336,-8.8344,-8.8301,-8.8397,-8.8459,-8.8485,-8.8475,-8.8441,-8.8456,-8.8529,-8.8586,-8.8492,-8.8484,-8.8464,-8.8485,-8.853,-8.8541,-8.8555,-8.8483,-8.854,-8.8542,-8.85,-8.8691,-8.8622,-8.8604,-8.8565,-8.8653,-8.866,-8.8627,-8.8647,-8.8668,-8.8658,-8.864,-8.8624,-8.8667,-8.8715,-8.8714,-8.8712,-8.8611,-8.862,-8.871,-8.8747,-8.8689,-8.8649,-8.8655,-8.8696,-8.8742,-8.8685,-8.8758,-8.879,-8.878,-8.8817,-8.8808,-8.8828,-8.8789,-8.8833,-8.8857,-8.8841,-8.8874,-8.8981,-8.8876,-8.8917,-8.8949,-8.8894,-8.8992,-8.9022,-8.9055,-8.9018,-8.9012,-8.9033,-8.8917,-8.9008,-8.9007,-8.9027,-8.8971,-8.9008,-8.9026,-8.9041,-8.9037,-8.908,-8.8979,-8.9062,-8.9029,-8.9014,-8.8996,-8.9082,-8.9018,-8.9043,-8.9051,-8.9069,-8.8986,-8.8956,-8.8932,-8.884,-8.8784,-8.8572,-8.8637,-8.8608,-8.8462,-8.826,-8.8165,-8.7966,-8.8017,-8.812,-8.8068,-8.8215,-8.8424,-8.8376,-8.8379,-8.8498,-8.8908,-8.9051,-8.9237,-8.9195,-8.9217,-8.9218,-8.9223,-8.9259,-8.9194,-8.9204,-8.9205,-8.9203,-8.9206,-8.922,-8.92,-8.9207,-8.9238,-8.9622,-8.9946,-9.0024,-8.894,-8.6708,-8.4367,-8.1893,-8.0377,-8.3211,-8.4609,-8.569,-8.6733,-8.9256,-9.0369,-9.0059,-9.0679,-8.9914,-8.9467,-8.8634,-8.8517,-8.8289,-8.8338,-8.8208,-8.8265,-8.801,-8.8079,-8.7853,-8.7926,-8.7744,-8.7697,-8.7515,-8.7558,-8.7472,-8.7399,-8.7288,-8.7221,-8.7166,-8.7036,-8.6938,-8.6871,-8.6646,-8.6709,-8.6516,-8.6379,-8.6286,-8.6102,-8.5969,-8.5878,-8.5657,-8.5506,-8.5394,-8.5196,-8.5039,-8.486,-8.4541,-8.4368,-8.4089,-8.4053,-8.3833,-8.3621,-8.3416,-8.3357,-8.3128,-8.3121,-8.3037,-8.3009,-8.298,-8.3068,-8.3197,-8.3238,-8.3387,-8.3633,-8.4055,-8.4342,-8.4687,-8.516,-8.5551,-8.5964,-8.6294,-8.6575,-8.6857,-8.7121,-8.7344,-8.7433,-8.7599,-8.7731,-8.7867,-8.7884,-8.8021,-8.7942,-8.8005,-8.7972,-8.796,-8.7988,-8.8048,-8.8006,-8.8073,-8.8007,-8.8036,-8.7906,-8.794,-8.7895,-8.7889,-8.7895,-8.7878,-8.7788,-8.7844,-8.7801,-8.7689,-8.7646,-8.7741,-8.7641,-8.7624,-8.7675,-8.7584,-8.7453,-8.7438,-8.7351,-8.7338,-8.7271,-8.7299,-8.7221,-8.7152,-8.7131,-8.7112,-8.7072,-8.7052,-8.6966,-8.7121,-8.7131,-8.7181,-8.703,-8.7136,-8.7042,-8.7138,-8.7102,-8.7048,-8.6976,-8.7069,-8.704,-8.7022,-8.7021,-8.704,-8.703,-8.6919,-8.6949,-8.6935,-8.6933,-8.6954,-8.6921,-8.6884,-8.6786,-8.6838,-8.6844,-8.6809,-8.6725,-8.673,-8.6609,-8.6579,-8.6602,-8.6628,-8.6573,-8.6462,-8.6417,-8.6426,-8.6459,-8.6383,-8.6335,-8.6261,-8.6247,-8.6321,-8.6266,-8.6107,-8.6167,-8.6059,-8.6081,-8.6008,-8.5917,-8.5928,-8.5881,-8.5907,-8.588,-8.5874,-8.5805,-8.5739,-8.575,-8.5583,-8.5627,-8.5688,-8.5634,-8.5609,-8.5497,-8.547,-8.5354,-8.5287,-8.5154,-8.5025,-8.5053,-8.4985,-8.4932,-8.4706,-8.4557,-8.4311,-8.4097,-8.4035,-8.4167,-8.4239,-8.4335,-8.4331,-8.4471,-8.4496,-8.4634,-8.4803,-8.4962,-8.5035,-8.5191,-8.512,-8.5174,-8.5094,-8.5126,-8.5107,-8.5088,-8.4936,-8.5077,-8.5031,-8.5116,-8.5084,-8.5058,-8.5065,-8.5272,-8.5744,-8.599,-8.5345,-8.3425,-8.087,-7.8302,-7.6761,-7.8036,-8.0613,-8.22,-8.3552,-8.5335,-8.515,-8.53,-8.6285,-8.6019,-8.5433,-8.5152,-8.4711,-8.4344,-8.4285,-8.4094,-8.4245,-8.4117,-8.4079,-8.3943,-8.3959,-8.3781,-8.3728,-8.3605,-8.3479,-8.3416,-8.3398,-8.3305,-8.325,-8.3116,-8.3113,-8.2982,-8.2964,-8.2908,-8.2813,-8.264,-8.2652,-8.2414,-8.2351,-8.214,-8.204,-8.195,-8.1793,-8.1644,-8.1455,-8.1271,-8.1061,-8.0867,-8.0632,-8.0633,-8.0327,-8.0158,-8.0107,-7.9858,-7.9718,-7.9616,-7.9554,-7.9536,-7.9504,-7.9433,-7.9426,-7.9607,-7.9863,-8.0173,-8.0463,-8.0816,-8.1239,-8.1698,-8.2104,-8.257,-8.285,-8.303,-8.3383,-8.3649,-8.3901,-8.4072,-8.4207,-8.4484,-8.461,-8.467,-8.464,-8.468,-8.4803,-8.4904,-8.4916,-8.4954,-8.4885,-8.5017,-8.5052,-8.5039,-8.4923,-8.5014,-8.4992,-8.5034,-8.5068,-8.4921,-8.4965,-8.5043,-8.501,-8.4999,-8.5043,-8.5045,-8.5062,-8.4998,-8.4922,-8.4928,-8.4923,-8.4939,-8.4925,-8.4882,-8.4872,-8.4834,-8.4846,-8.4815,-8.4839,-8.482,-8.4772,-8.4841,-8.4838,-8.4893,-8.4959,-8.4927,-8.4907,-8.5,-8.5015,-8.5097,-8.5075,-8.5095,-8.5146,-8.519,-8.5135,-8.5241,-8.5163,-8.5259,-8.5234,-8.5249,-8.5264,-8.5294,-8.5295,-8.5231,-8.5311,-8.5246,-8.5316,-8.5362,-8.5351,-8.5374,-8.5442,-8.5367,-8.546,-8.543,-8.5441,-8.5406,-8.5401,-8.5468,-8.5494,-8.5405,-8.5409,-8.5422,-8.559,-8.5583,-8.5569,-8.5552,-8.5529,-8.5546,-8.5549,-8.553,-8.5545,-8.5528,-8.5585,-8.5619,-8.5592,-8.5621,-8.5553,-8.5573,-8.5616,-8.5663,-8.5505,-8.533,-8.5399,-8.5253,-8.5209,-8.5365,-8.5294,-8.5079,-8.5045,-8.4984,-8.4693,-8.4725,-8.4824,-8.4824,-8.4873,-8.4944,-8.5134,-8.5103,-8.5188,-8.5386,-8.5717,-8.5827,-8.5886,-8.5939,-8.5942,-8.594,-8.594,-8.591,-8.5984,-8.6014,-8.6068,-8.6041,-8.6006,-8.5994,-8.5968,-8.6081,-8.6353,-8.6741,-8.6969,-8.6117,-8.402,-8.164,-7.9134,-7.7232,-7.9091,-8.1534,-8.2647,-8.4091,-8.6855,-8.7389,-8.7601,-8.7799,-8.6693,-8.655,-8.5958,-8.572,-8.5592,-8.5633,-8.5488,-8.5518,-8.5451,-8.5407,-8.5283,-8.5243,-8.5165,-8.5108,-8.4973,-8.4991,-8.4846,-8.4867,-8.4757,-8.4694,-8.4557,-8.453,-8.4393,-8.4343,-8.4277,-8.4169,-8.4,-8.3939,-8.3795,-8.3717,-8.3503,-8.3373,-8.3165,-8.3005,-8.2824,-8.2586,-8.2549,-8.2261,-8.2086,-8.1855,-8.1649,-8.1521,-8.139,-8.1182,-8.1017,-8.0888,-8.0779,-8.0706,-8.068,-8.0616,-8.0589,-8.0701,-8.0848,-8.103,-8.1309,-8.1667,-8.2086,-8.2517,-8.2914,-8.3249,-8.374,-8.3917,-8.4164,-8.4182,-8.4645,-8.4929,-8.5239,-8.5392,-8.5506,-8.5609,-8.5672,-8.5783,-8.5796,-8.5838,-8.5873,-8.5924,-8.5903,-8.5996,-8.5967,-8.5985,-8.5972,-8.6032,-8.5917,-8.5998,-8.601,-8.5991,-8.5965,-8.5928,-8.5952,-8.6005,-8.5957,-8.5966,-8.5881,-8.5884,-8.589,-8.5869,-8.5866,-8.5858,-8.5747,-8.5823,-8.5769,-8.5707,-8.5691,-8.5715,-8.5698,-8.5712,-8.5685,-8.5659,-8.5689,-8.5687,-8.5707,-8.5733,-8.5665,-8.5668,-8.5816,-8.5748,-8.583,-8.5881,-8.5916,-8.5872,-8.5858,-8.5997,-8.601,-8.6025,-8.6038,-8.6065,-8.6051,-8.6055,-8.6125,-8.6051,-8.6074,-8.6128,-8.6235,-8.6148,-8.6163,-8.6177,-8.6154,-8.617,-8.6147,-8.626,-8.6333,-8.6263,-8.6282,-8.6294,-8.629,-8.6312,-8.6331,-8.6362,-8.6362,-8.6354,-8.6413,-8.6394,-8.6462,-8.6422,-8.6499,-8.6513,-8.6515,-8.6554,-8.6561,-8.6524,-8.6528,-8.6632,-8.6653,-8.6634,-8.6656,-8.6637,-8.6698,-8.675,-8.6782,-8.6762,-8.6767,-8.6817,-8.6794,-8.6807,-8.6823,-8.6828,-8.6919,-8.6907,-8.69,-8.6927,-8.6926,-8.6939,-8.7019,-8.7041,-8.7056,-8.7038,-8.7012,-8.7058,-8.7009,-8.6879,-8.6847,-8.6787,-8.6834,-8.6835,-8.6693,-8.6615,-8.6431,-8.622,-8.6201,-8.6282,-8.6316,-8.6383,-8.6539,-8.67,-8.6677,-8.6712,-8.6854,-8.7281,-8.7403,-8.7501,-8.7491,-8.7524,-8.7641,-8.7631,-8.762,-8.7508,-8.7506,-8.7694,-8.7674,-8.7692,-8.7675,-8.7716,-8.7733,-8.7831,-8.8156,-8.8591,-8.8284,-8.6991,-8.4595,-8.2309,-7.9899,-7.9085,-8.2593,-8.4039,-8.4922,-8.7625,-8.918,-8.9359,-8.9686,-8.9461,-8.8501,-8.8091,-8.7569,-8.745,-8.7396,-8.7387,-8.7322,-8.7258,-8.7287,-8.7225,-8.7095,-8.6966,-8.692,-8.689,-8.6764,-8.6692,-8.6643,-8.6579,-8.6505,-8.6475,-8.6356,-8.6379,-8.616,-8.609,-8.6021,-8.592,-8.578,-8.5595,-8.5452,-8.5424,-8.5233,-8.5103,-8.4974,-8.4834,-8.4587,-8.4455,-8.424,-8.4007,-8.3753,-8.3672,-8.3522,-8.3259,-8.3127,-8.2985,-8.2844,-8.2683,-8.2608,-8.2496,-8.2466,-8.2459,-8.2459,-8.2526,-8.2706,-8.2881,-8.3227,-8.362,-8.3963,-8.4323,-8.4846,-8.5033,-8.5386,-8.5755,-8.6111,-8.6414,-8.6763,-8.6979,-8.718,-8.7263,-8.7434,-8.7591,-8.7668,-8.7666,-8.7765,-8.7785,-8.7892,-8.7896,-8.7887,-8.7905,-8.7915,-8.7974,-8.7953,-8.7979,-8.8013,-8.8013,-8.7956,-8.802,-8.8004,-8.7942,-8.7961,-8.7952,-8.7951,-8.7987,-8.7961,-8.7934,-8.7851,-8.7875,-8.7855,-8.7805,-8.7716,-8.7705,-8.7748,-8.7745,-8.7743,-8.7746,-8.7645,-8.7634,-8.7727,-8.775,-8.7617,-8.7711,-8.7804,-8.7826,-8.7669,-8.7765,-8.7832,-8.7892,-8.7884,-8.7823,-8.7872,-8.7937,-8.7983,-8.7998,-8.8003,-8.7984,-8.8113,-8.8115,-8.8142,-8.8157,-8.8104,-8.8107,-8.8203,-8.8204,-8.8235,-8.82,-8.8254,-8.8282,-8.8276,-8.8283,-8.8325,-8.8296,-8.8291,-8.8334,-8.8259,-8.8347,-8.8369,-8.8321,-8.8398,-8.8383,-8.8376,-8.8377,-8.8478,-8.8452,-8.843,-8.8455,-8.8476,-8.8471,-8.8517,-8.8503,-8.8483,-8.8482,-8.8466,-8.8543,-8.859,-8.8596,-8.8555,-8.8577,-8.86,-8.8614,-8.8582,-8.8591,-8.8623,-8.8644,-8.8657,-8.8603,-8.864,-8.8702,-8.8681,-8.8752,-8.8734,-8.8676,-8.8723,-8.8721,-8.8753,-8.8768,-8.871,-8.8692,-8.8772,-8.8816,-8.8828,-8.8745,-8.8777,-8.8829,-8.8811,-8.8749,-8.8795,-8.8848,-8.8729,-8.8803,-8.8766,-8.868,-8.8626,-8.8444,-8.8543,-8.8561,-8.8382,-8.8182,-8.8019,-8.7829,-8.7849,-8.7974,-8.8009,-8.8186,-8.8321,-8.8383,-8.834,-8.8474,-8.8778,-8.8908,-8.9044,-8.9125,-8.9089,-8.9135,-8.9171,-8.924,-8.9241,-8.9236,-8.9191,-8.9173,-8.9332,-8.9263,-8.9287,-8.9317,-8.9348,-8.9621,-9.0061,-9.0257,-8.9328,-8.8431,-8.6073,-8.3777,-8.145,-8.0889,-8.4482,-8.5828,-8.6746,-8.9393,-9.0739,-9.0827,-9.1104,-9.0484,-8.9714,-8.9147,-8.8961,-8.8846,-8.8769,-8.8803,-8.8658,-8.862,-8.8555,-8.8565,-8.8461,-8.8348,-8.8225,-8.8242,-8.8135,-8.8139,-8.8061,-8.7953,-8.7806,-8.7765,-8.7675,-8.7672,-8.7507,-8.7415,-8.7272,-8.7119,-8.6973,-8.6987,-8.6833,-8.6726,-8.6584,-8.6426,-8.6207,-8.6067,-8.5932,-8.5745,-8.5589,-8.5324,-8.5148,-8.493,-8.4709,-8.4538,-8.4393,-8.4191,-8.4008,-8.3853,-8.3858,-8.385,-8.3793,-8.3753,-8.379,-8.3857,-8.4034,-8.4216,-8.4483,-8.4929,-8.5279,-8.5685,-8.6087,-8.6481,-8.6959,-8.7264,-8.7588,-8.788,-8.8042,-8.8415,-8.8542,-8.8598,-8.8726,-8.881,-8.8992,-8.9026,-8.9069,-8.9174,-8.9085,-8.9075,-8.9263,-8.9262,-8.9228,-8.9237,-8.923,-8.9217,-8.9206,-8.9249,-8.9245,-8.9246,-8.9222,-8.922,-8.9238,-8.9256,-8.9251,-8.9194,-8.9186,-8.9229,-8.9228,-8.9167,-8.9112,-8.9124,-8.9101,-8.9011,-8.902,-8.8967,-8.9004,-8.9014,-8.9009,-8.8893,-8.8908,-8.8966,-8.8961,-8.8925,-8.8992,-8.902,-8.9024,-8.9103,-8.9087,-8.9009,-8.9113,-8.9138,-8.9177,-8.9147,-8.9129,-8.9201,-8.9184,-8.9174,-8.919,-8.9222,-8.922,-8.9255,-8.926,-8.9252,-8.9231,-8.922,-8.9308,-8.9235,-8.9216,-8.9238,-8.927,-8.9252,-8.9237,-8.929,-8.9289,-8.9399,-8.9296,-8.9228,-8.93,-8.9277,-8.9281,-8.9304,-8.9283,-8.928,-8.9255,-8.9295,-8.9284,-8.9271,-8.9308,-8.9286,-8.9201,-8.9276,-8.9268,-8.9183,-8.9206,-8.9239,-8.9246,-8.9232,-8.9186,-8.9145,-8.918,-8.916,-8.9093,-8.9109,-8.9177,-8.9168,-8.9152,-8.911,-8.9093,-8.9119,-8.9135,-8.9139,-8.9168,-8.9109,-8.9161,-8.9117,-8.9117,-8.9138,-8.9087,-8.9041,-8.8993,-8.9135,-8.9155,-8.9068,-8.9053,-8.9021,-8.9012,-8.8987,-8.9057,-8.9055,-8.8967,-8.9019,-8.9006,-8.8907,-8.8787,-8.87,-8.8645,-8.8674,-8.8547,-8.8458,-8.8289,-8.8164,-8.7923,-8.7882,-8.8025,-8.7968,-8.797,-8.8088,-8.8142,-8.8248,-8.821,-8.8405,-8.8689,-8.8813,-8.8868,-8.8837,-8.8898,-8.8899,-8.88,-8.8712,-8.8805,-8.8747,-8.8875,-8.8978,-8.8855,-8.8805,-8.8643,-8.8745,-8.8957,-8.932,-8.9604,-8.9187,-8.767,-8.5127,-8.2775,-8.0385,-8.0399,-8.3847,-8.5284,-8.5974,-8.7385,-8.9184,-8.9338,-8.9587,-8.9981,-8.9196,-8.8715,-8.7972,-8.7896,-8.764,-8.7655,-8.7489,-8.7447,-8.7305,-8.7166,-8.714,-8.706,-8.6888,-8.6853,-8.6717,-8.6737,-8.6542,-8.6438,-8.6402,-8.6414,-8.624,-8.615,-8.5979,-8.5952,-8.5841,-8.5682,-8.5547,-8.5323,-8.516,-8.5009,-8.4827,-8.4603,-8.4423,-8.4327,-8.4101,-8.4011,-8.3699,-8.3478,-8.3186,-8.2987,-8.2744,-8.2487,-8.2261,-8.1996,-8.1975,-8.1787,-8.1584,-8.1412,-8.1302,-8.1318,-8.1301,-8.1406,-8.1532,-8.1692,-8.187,-8.206,-8.2333,-8.2689,-8.3092,-8.3437,-8.3784,-8.4089,-8.4375,-8.4674,-8.4859,-8.5012,-8.5225,-8.5271,-8.5399,-8.5422,-8.5508,-8.5538,-8.5599,-8.5534,-8.5565,-8.5557,-8.5627,-8.5442,-8.5431,-8.547,-8.5469,-8.5383,-8.542,-8.5287,-8.5356,-8.5276,-8.5288,-8.5162,-8.5148,-8.4985,-8.4992,-8.496,-8.4841,-8.4795,-8.4784,-8.4714,-8.4716,-8.4611,-8.4544,-8.4469,-8.4371,-8.4364,-8.4394,-8.4389,-8.4237,-8.4218,-8.4164,-8.408,-8.4042,-8.4085,-8.3985,-8.401,-8.4002,-8.4016,-8.3964,-8.3926,-8.3941,-8.3966,-8.3899,-8.3893,-8.3846,-8.3866,-8.3929,-8.3905,-8.3845,-8.3803,-8.3772,-8.3802,-8.3676,-8.3696,-8.3657,-8.3609,-8.3708,-8.3723,-8.3615,-8.3553,-8.349,-8.3422,-8.3503,-8.3497,-8.347,-8.3475,-8.3399,-8.3431,-8.3339,-8.3293,-8.3227,-8.3253,-8.3277,-8.3172,-8.3169,-8.3127,-8.3176,-8.3182,-8.305,-8.2906,-8.2833,-8.2713,-8.2672,-8.2614,-8.263,-8.2489,-8.241,-8.2341,-8.203,-8.2,-8.2016,-8.2081,-8.2042,-8.2167,-8.2299,-8.2338,-8.2378,-8.2696,-8.2949,-8.3068,-8.3137,-8.3148,-8.3213,-8.3232,-8.3184,-8.3177,-8.3199,-8.3268,-8.3236,-8.3252,-8.3242,-8.3203,-8.3272,-8.3254,-8.3509,-8.3893,-8.4085,-8.396,-8.2742,-8.0357,-7.7957,-7.5409,-7.4826,-7.7658,-7.9556,-8.1097,-8.2984,-8.3788,-8.3475,-8.4183,-8.4773,-8.424,-8.382,-8.3233,-8.2957,-8.2779,-8.2788,-8.2812,-8.2806,-8.2684,-8.2678,-8.2599,-8.2635,-8.2556,-8.2482,-8.2299,-8.2286,-8.225,-8.2223,-8.2135,-8.2063,-8.1952,-8.195,-8.1928,-8.1806,-8.1646,-8.1567,-8.1536,-8.145,-8.131,-8.1156,-8.1062,-8.0915,-8.0857,-8.0663,-8.0469,-8.0247,-8.0113,-7.9947,-7.9686,-7.949,-7.9306,-7.9175,-7.9027,-7.8875,-7.8669,-7.8698,-7.8518,-7.8579,-7.8536,-7.8484,-7.8555,-7.8719,-7.8876,-7.9178,-7.9505,-7.9824,-8.0351,-8.0897,-8.1279,-8.1663,-8.2086,-8.2361,-8.27,-8.3012,-8.3221,-8.3348,-8.3523,-8.364,-8.3761,-8.3902,-8.402,-8.4026,-8.4111,-8.4245,-8.4241,-8.4198,-8.4205,-8.4247,-8.4337,-8.436,-8.4418,-8.4323,-8.4385,-8.4442,-8.438,-8.4378,-8.4408,-8.4432,-8.4375,-8.4408,-8.447,-8.4377,-8.4476,-8.4469,-8.4473,-8.4442,-8.4417,-8.4455,-8.4422,-8.4436,-8.4373,-8.4408,-8.438,-8.4386,-8.4429,-8.4315,-8.4401,-8.4381,-8.4373,-8.4447,-8.4456,-8.4473,-8.4505,-8.4553,-8.4587,-8.4604,-8.4649,-8.4693,-8.4732,-8.4816,-8.4854,-8.4861,-8.4884,-8.486,-8.4853,-8.4861,-8.4916,-8.4953,-8.4963,-8.4911,-8.489,-8.5001,-8.4997,-8.4952,-8.4983,-8.5001,-8.5012,-8.5008,-8.5036,-8.5118,-8.5068,-8.5049,-8.5078,-8.507,-8.5105,-8.5146,-8.5136,-8.5119,-8.5246,-8.5257,-8.5259,-8.5267,-8.5226,-8.523,-8.5292,-8.5281,-8.5369,-8.5302,-8.525,-8.5206,-8.5115,-8.4972,-8.4849,-8.5056,-8.5099,-8.5002,-8.4842,-8.4808,-8.4527,-8.4438,-8.4565,-8.4567,-8.4568,-8.4758,-8.4858,-8.4936,-8.4976,-8.5068,-8.5355,-8.5654,-8.5779,-8.5799,-8.5859,-8.5893,-8.5893,-8.5939,-8.5957,-8.592,-8.5896,-8.594,-8.5952,-8.6054,-8.6108,-8.6058,-8.622,-8.6569,-8.6906,-8.653,-8.4877,-8.2382,-8.0086,-7.7623,-7.7801,-7.9859,-8.1679,-8.299,-8.4845,-8.7252,-8.7635,-8.8016,-8.7637,-8.6742,-8.6283,-8.5901,-8.5835,-8.5697,-8.5776,-8.5756,-8.5694,-8.563,-8.5613,-8.5537,-8.5507,-8.5508,-8.5454,-8.5296,-8.5255,-8.5287,-8.5247,-8.5134,-8.5024,-8.5044,-8.4932,-8.4864,-8.4735,-8.4567,-8.4593,-8.4529,-8.4371,-8.4209,-8.4026,-8.3945,-8.3825,-8.3738,-8.3551,-8.3386,-8.3171,-8.2997,-8.2769,-8.2607,-8.2416,-8.2247,-8.2037,-8.1854,-8.1782,-8.159,-8.1485,-8.142,-8.139,-8.1384,-8.1426,-8.1458,-8.1595,-8.1762,-8.2127,-8.2419,-8.2725,-8.3197,-8.361,-8.4054,-8.4477,-8.4901,-8.5291,-8.5585,-8.5889,-8.6122,-8.6301,-8.6548,-8.6713,-8.6857,-8.6929,-8.7021,-8.7125,-8.7111,-8.7165,-8.7263,-8.7296,-8.7352,-8.7393,-8.7419,-8.7405,-8.743,-8.7492,-8.754,-8.7582,-8.7539,-8.746,-8.753,-8.7509,-8.7496,-8.7545,-8.7543,-8.7526,-8.7537,-8.7515,-8.7459,-8.7513,-8.7487,-8.7545,-8.7509,-8.7436,-8.7378,-8.7446,-8.7503,-8.7444,-8.7505,-8.745,-8.7483,-8.7561,-8.7532,-8.7556,-8.7524,-8.7512,-8.7509,-8.7658,-8.768,-8.7684,-8.7746,-8.7713,-8.7817,-8.786,-8.7899,-8.7892,-8.7995,-8.8058,-8.8087,-8.8094,-8.8095,-8.8113,-8.8104,-8.8183,-8.8191,-8.8279,-8.8304,-8.8323,-8.8329,-8.8352,-8.838,-8.8397,-8.8409,-8.8386,-8.8434,-8.844,-8.8512,-8.8525,-8.8567,-8.8555,-8.8538,-8.8591,-8.8654,-8.863,-8.8685,-8.8688,-8.8677,-8.8737,-8.8762,-8.8731,-8.8734,-8.8775,-8.8764,-8.8817,-8.8841,-8.8856,-8.886,-8.8856,-8.889,-8.9012,-8.8946,-8.8958,-8.9059,-8.9065,-8.9019,-8.9036,-8.9076,-8.9098,-8.9118,-8.9202,-8.9145,-8.9133,-8.9212,-8.9209,-8.9224,-8.9199,-8.9215,-8.9242,-8.9274,-8.9313,-8.9245,-8.9146,-8.9054,-8.9089,-8.8948,-8.8862,-8.8933,-8.8893,-8.8797,-8.8686,-8.8447,-8.8194,-8.8334,-8.8534,-8.8588,-8.8667,-8.8733,-8.8796,-8.8922,-8.9072,-8.932,-8.9571,-8.9644,-8.9688,-8.9708,-8.976,-8.9708,-8.9662,-8.9631,-8.9783,-8.982,-8.9772,-8.9822,-8.9801,-8.9778,-8.9754,-8.9884,-9.0136,-9.0508,-9.0667,-8.9723,-8.7722,-8.5318,-8.2925,-8.1749,-8.1221,-8.4796,-8.6267,-8.7202,-9.0064,-9.1328,-9.1607,-9.1701,-9.1102,-9.022,-8.9894,-8.9504,-8.948,-8.9291,-8.9415,-8.9214,-8.9269,-8.9088,-8.9214,-8.9065,-8.9083,-8.8885,-8.8883,-8.8722,-8.8725,-8.856,-8.8675,-8.8511,-8.8397,-8.8278,-8.8267,-8.8094,-8.8092,-8.7921,-8.7836,-8.7649,-8.7568,-8.7493,-8.7371,-8.7263,-8.717,-8.6935,-8.6737,-8.6628,-8.637,-8.6203,-8.6004,-8.5769,-8.5584,-8.5373,-8.519,-8.4989,-8.4879,-8.4712,-8.4642,-8.4593,-8.4437,-8.4478,-8.4466,-8.4508,-8.4578,-8.4728,-8.494,-8.5318,-8.574,-8.6146,-8.6537,-8.6988,-8.7384,-8.7769,-8.8116,-8.8461,-8.8728,-8.8962,-8.9142,-8.9328,-8.9557,-8.9685,-8.9739,-8.9781,-8.9815,-8.9916,-8.9969,-8.9986,-8.996,-9.0037,-9.0029,-9.0116,-9.0119,-9.0098,-9.0017,-9.015,-9.0052,-9.0041,-9.0026,-9.0133,-9.0019,-9.0037,-8.9995,-9.0043,-8.9987,-8.9977,-8.9894,-8.985,-8.9923,-8.9918,-8.9834,-8.9802,-8.9784,-8.9782,-8.9646,-8.9742,-8.9679,-8.9591,-8.9624,-8.9626,-8.9608,-8.9615,-8.9591,-8.9625,-8.9519,-8.9606,-8.9647,-8.9683,-8.9621,-8.9641,-8.9633,-8.9639,-8.974,-8.9648,-8.962,-8.965,-8.9668,-8.9674,-8.9674,-8.9692,-8.9667,-8.9714,-8.9728,-8.9728,-8.9608,-8.9599,-8.9626,-8.9627,-8.9632,-8.9634,-8.9593,-8.963,-8.9649,-8.9604,-8.9673,-8.9719,-8.963,-8.9657,-8.9625,-8.9709,-8.9696,-8.9595,-8.9569,-8.9614,-8.9686,-8.9613,-8.9665,-8.9657,-8.9655,-8.9638,-8.9632,-8.9518,-8.9594,-8.9635,-8.9645,-8.9591,-8.9662,-8.9519,-8.955,-8.9554,-8.954,-8.9554,-8.9605,-8.9569,-8.955,-8.9498,-8.9591,-8.9514,-8.9584,-8.9558,-8.9464,-8.949,-8.9535,-8.9494,-8.9506,-8.9543,-8.9486,-8.9498,-8.9484,-8.9514,-8.9409,-8.94,-8.9557,-8.9509,-8.9412,-8.9348,-8.9296,-8.9435,-8.9435,-8.938,-8.9212,-8.9117,-8.9028,-8.8963,-8.8926,-8.8658,-8.8466,-8.8312,-8.8206,-8.8295,-8.8416,-8.8382,-8.8471,-8.8606,-8.8683,-8.8558,-8.8736,-8.9025,-8.9281,-8.9307,-8.935,-8.9344,-8.9346,-8.9281,-8.9342,-8.924,-8.9219,-8.9314,-8.9264,-8.9232,-8.9301,-8.9256,-8.9193,-8.9251,-8.9411,-8.9754,-8.9986,-8.9308,-8.7344,-8.4745,-8.2435,-8.047,-8.1971,-8.4736,-8.6144,-8.7402,-8.9453,-8.978,-8.9888,-9.0476,-8.9807,-8.9481,-8.9069,-8.8572,-8.8367,-8.8283,-8.8085,-8.8036,-8.7913,-8.7937,-8.7721,-8.7722,-8.7594,-8.747,-8.7308,-8.7303,-8.7093,-8.7074,-8.6939,-8.6948,-8.6775,-8.6793,-8.6667,-8.6499,-8.6385,-8.6254,-8.6083,-8.5957,-8.5794,-8.5628,-8.5521,-8.529,-8.5024,-8.4826,-8.4661,-8.4397,-8.4158,-8.3868,-8.356,-8.3392,-8.3139,-8.2994,-8.2732,-8.2376,-8.2272,-8.2027
