0.1543,0.14563,0.14329,0.11738,0.13476,0.10344,0.087554,0.046508,0.060149,0.054477,0.044545,0.02938,0.026888,0.017311,0.011661,-0.0089937,-0.016054,-0.025244,-0.0064114,-0.013265,-0.0040446,-0.018332,-0.030988,-0.046863,-0.057945,-0.046396,-0.052748,-0.080369,-0.045376,-0.052907,-0.060036,-0.084782,-0.10154,-0.096665,-0.097502,-0.10843,-0.11202,-0.11409,-0.12637,-0.1232,-0.11748,-0.1397,-0.13554,-0.13251,-0.13075,-0.12043,-0.12959,-0.14683,-0.14539,-0.14196,-0.14721,-0.16354,-0.15548,-0.13028,-0.16172,-0.16904,-0.1655,-0.16217,-0.15011,-0.15054,-0.16429,-0.1555,-0.1434,-0.14585,-0.16002,-0.16082,-0.1583,-0.18137,-0.20044,-0.20039,-0.19523,-0.19058,-0.21678,-0.21083,-0.24505,-0.24197,-0.2535,-0.25716,-0.26707,-0.26932,-0.27287,-0.27712,-0.28995,-0.28811,-0.29012,-0.28239,-0.26164,-0.25164,-0.25405,-0.24306,-0.24195,-0.23912,-0.2423,-0.26008,-0.26549,-0.297,-0.30778,-0.32233,-0.33295,-0.33563,-0.33042,-0.33212,-0.32987,-0.32911,-0.34576,-0.32695,-0.32685,-0.33228,-0.32883,-0.31556,-0.3215,-0.31137,-0.30513,-0.32249,-0.32857,-0.33759,-0.34825,-0.36473,-0.35622,-0.38557,-0.38958,-0.38456,-0.38303,-0.41444,-0.43578,-0.44638,-0.44894,-0.42947,-0.45138,-0.45436,-0.46305,-0.44452,-0.45133,-0.45308,-0.45808,-0.46517,-0.45342,-0.4263,-0.32372,-0.19632,-0.070761,-0.0074987,0.18274,0.41628,0.46513,0.19624,-0.30495,-0.80861,-0.81186,-0.69114,-0.64214,-0.49256,-0.44409,-0.42339,-0.42657,-0.42978,-0.46029,-0.4425,-0.45217,-0.44799,-0.45492,-0.44336,-0.46874,-0.45066,-0.45637,-0.45589,-0.47196,-0.46543,-0.48554,-0.47392,-0.48332,-0.49574,-0.5003,-0.50659,-0.52918,-0.52312,-0.54613,-0.53785,-0.54478,-0.53996,-0.52676,-0.51074,-0.50441,-0.50336,-0.47168,-0.45971,-0.46743,-0.44449,-0.42792,-0.39822,-0.40154,-0.41013,-0.36841,-0.3344,-0.3137,-0.29142,-0.2611,-0.23903,-0.21138,-0.20053,-0.18895,-0.15957,-0.15553,-0.14579,-0.12891,-0.10533,-0.087072,-0.086487,-0.049463,-0.04278,-0.038494,-0.035208,-0.06254,-0.078029,-0.10127,-0.14301,-0.17709,-0.21979,-0.23938,-0.26655,-0.28032,-0.31859,-0.3281,-0.33562,-0.35405,-0.36579,-0.39268,-0.4157,-0.42163,-0.42812,-0.43103,-0.42214,-0.41503,-0.4007,-0.38621,-0.3878,-0.38558,-0.37882,-0.36974,-0.3892,-0.401,-0.42683,-0.43527,-0.48002,-0.48898,-0.50464,-0.5192,-0.52989,-0.54439,-0.56451,-0.5811,-0.60226,-0.60759,-0.60799,-0.60869,-0.61549,-0.61901,-0.61355,-0.60164,-0.60298,-0.60981,-0.59943,-0.60254,-0.59687,-0.59436,-0.58974,-0.58753,-0.5787,-0.57342,-0.5674,-0.55393,-0.55555,-0.54763,-0.54731,-0.5337,-0.50343,-0.48996,-0.4967,-0.50031,-0.51108,-0.49641,-0.47261,-0.47072,-0.48323,-0.4785,-0.48576,-0.48462,-0.5051,-0.50465,-0.50712,-0.52345,-0.5383,-0.53736,-0.53844,-0.55171,-0.54362,-0.55515,-0.58014,-0.58237,-0.59235,-0.58618,-0.57981,-0.59153,-0.63585,-0.65217,-0.65093,-0.65824,-0.68079,-0.68228,-0.66217,-0.63418,-0.63412,-0.64329,-0.66849,-0.65464,-0.62643,-0.62181,-0.60106,-0.59176,-0.59446,-0.58585,-0.57604,-0.58453,-0.61892,-0.60761,-0.58895,-0.59187,-0.60987,-0.63125,-0.64072,-0.64957,-0.6446,-0.6424,-0.63163,-0.63817,-0.63229,-0.63108,-0.62138,-0.62643,-0.63399,-0.63683,-0.6415,-0.65098,-0.62139,-0.57054,-0.45879,-0.31018,-0.16561,0.012551,0.18099,0.19311,-0.056765,-0.58467,-1.0742,-0.97851,-0.83567,-0.78403,-0.71913,-0.63581,-0.54087,-0.56987,-0.56641,-0.5922,-0.56555,-0.53421,-0.52714,-0.52434,-0.5487,-0.5749,-0.53329,-0.53006,-0.50877,-0.5295,-0.50107,-0.53837,-0.52853,-0.5163,-0.50131,-0.46982,-0.46928,-0.49087,-0.44268,-0.43715,-0.42121,-0.41277,-0.36641,-0.33062,-0.34392,-0.33958,-0.32297,-0.31501,-0.32154,-0.31918,-0.31436,-0.32853,-0.32205,-0.31536,-0.28799,-0.29626,-0.31978,-0.28485,-0.25701,-0.22648,-0.20506,-0.1863,-0.13624,-0.051434,-0.039809,-0.058844,-0.06045,-0.03608,-0.021882,0.013157,-0.0087267,-0.01744,-0.0486,-0.080807,-0.11188,-0.14924,-0.2532,-0.30948,-0.33092,-0.40756,-0.46927,-0.4706,-0.47558,-0.53156,-0.57543,-0.56527,-0.57232,-0.58721,-0.60046,-0.60248,-0.60852,-0.58383,-0.61142,-0.624,-0.61399,-0.60442,-0.60286,-0.59708,-0.59243,-0.56646,-0.57253,-0.59539,-0.56493,-0.57892,-0.5779,-0.54054,-0.53723,-0.54638,-0.52618,-0.54535,-0.53884,-0.55894,-0.56344,-0.56684,-0.57522,-0.54563,-0.53908,-0.52874,-0.52747,-0.51018,-0.4993,-0.52552,-0.50151,-0.48475,-0.47805,-0.46517,-0.43525,-0.43288,-0.44701,-0.43731,-0.44456,-0.45359,-0.41451,-0.45273,-0.45263,-0.44287,-0.44763,-0.41919,-0.40681,-0.37845,-0.37365,-0.35673,-0.34036,-0.33052,-0.32702,-0.30431,-0.29597,-0.2891,-0.29971,-0.28502,-0.27657,-0.27025,-0.26669,-0.25568,-0.25785,-0.23797,-0.2149,-0.20569,-0.21545,-0.20743,-0.21127,-0.21211,-0.20605,-0.19079,-0.18066,-0.1953,-0.18728,-0.19193,-0.20517,-0.23157,-0.24965,-0.26769,-0.29835,-0.31742,-0.34712,-0.38093,-0.40005,-0.42446,-0.43439,-0.45758,-0.4716,-0.50498,-0.53906,-0.55496,-0.59998,-0.66536,-0.74492,-0.78254,-0.75892,-0.73392,-0.67751,-0.56829,-0.45073,-0.37023,-0.25546,-0.12192,-0.10553,-0.38887,-0.90601,-1.4047,-1.4161,-1.2761,-1.1573,-1.0051,-0.86046,-0.71913,-0.66695,-0.61895,-0.60689,-0.58224,-0.59011,-0.58866,-0.58681,-0.57357,-0.57515,-0.56678,-0.57094,-0.5682,-0.58092,-0.56605,-0.5569,-0.54764,-0.54001,-0.53631,-0.53476,-0.52585,-0.52074,-0.50566,-0.49987,-0.49088,-0.49405,-0.47755,-0.46219,-0.45478,-0.44006,-0.42556,-0.4039,-0.38412,-0.36932,-0.34683,-0.3403,-0.32898,-0.31263,-0.29159,-0.26928,-0.25111,-0.23277,-0.21039,-0.18354,-0.16778,-0.15531,-0.14188,-0.125,-0.10885,-0.092243,-0.087815,-0.078411,-0.067166,-0.052999,-0.053318,-0.061782,-0.066876,-0.07843,-0.10415,-0.13888,-0.18405,-0.2369,-0.28822,-0.33343,-0.37578,-0.41026,-0.44915,-0.48088,-0.50948,-0.52756,-0.54477,-0.5588,-0.5746,-0.57853,-0.58557,-0.59515,-0.59963,-0.60629,-0.6009,-0.59469,-0.59906,-0.59673,-0.60676,-0.60729,-0.60831,-0.61396,-0.61917,-0.61882,-0.62411,-0.61764,-0.62626,-0.62627,-0.63246,-0.62984,-0.63551,-0.64445,-0.64844,-0.65333,-0.65601,-0.65571,-0.66218,-0.6629,-0.6685,-0.66917,-0.67474,-0.68115,-0.68298,-0.6849,-0.69031,-0.69315,-0.69443,-0.69718,-0.69907,-0.70317,-0.71,-0.71323,-0.7147,-0.7185,-0.72626,-0.73273,-0.73696,-0.73917,-0.73929,-0.74271,-0.7415,-0.73558,-0.73473,-0.73624,-0.74104,-0.73671,-0.73791,-0.7366,-0.74646,-0.74554,-0.74606,-0.74752,-0.75508,-0.75595,-0.76056,-0.7669,-0.76801,-0.7654,-0.77382,-0.78878,-0.78824,-0.78344,-0.79017,-0.79652,-0.79965,-0.80048,-0.79613,-0.79024,-0.77454,-0.77175,-0.7677,-0.77151,-0.77382,-0.78405,-0.76923,-0.74654,-0.7272,-0.73604,-0.73477,-0.73755,-0.74763,-0.75267,-0.76783,-0.77885,-0.7844,-0.79504,-0.81247,-0.83451,-0.84088,-0.8468,-0.8474,-0.85072,-0.85037,-0.85752,-0.85435,-0.84873,-0.84875,-0.84765,-0.84554,-0.84521,-0.84603,-0.83967,-0.78155,-0.64466,-0.49719,-0.37345,-0.19521,0.044267,0.13942,-0.14708,-0.62299,-1.1698,-1.2418,-1.1249,-1.0482,-0.93329,-0.81698,-0.77313,-0.76306,-0.7505,-0.76608,-0.7551,-0.77966,-0.77007,-0.78102,-0.77432,-0.77608,-0.75804,-0.75792,-0.74731,-0.76072,-0.74369,-0.75045,-0.73876,-0.74517,-0.73253,-0.74767,-0.73932,-0.74822,-0.73921,-0.74491,-0.73298,-0.73012,-0.7196,-0.71721,-0.70605,-0.69564,-0.68474,-0.68103,-0.66149,-0.65294,-0.63647,-0.62615,-0.61804,-0.60167,-0.58088,-0.56304,-0.55863,-0.54307,-0.5123,-0.49739,-0.47804,-0.45603,-0.44312,-0.43029,-0.41531,-0.40074,-0.3873,-0.36875,-0.35858,-0.35651,-0.35161,-0.33985,-0.34872,-0.35289,-0.37031,-0.38703,-0.44507,-0.48688,-0.52592,-0.56748,-0.61275,-0.64315,-0.68353,-0.70376,-0.73468,-0.77563,-0.79352,-0.80203,-0.80894,-0.81487,-0.82717,-0.83768,-0.84211,-0.8425,-0.83944,-0.84328,-0.84239,-0.82672,-0.82868,-0.81964,-0.8215,-0.8128,-0.81387,-0.81197,-0.82016,-0.82429,-0.82534,-0.82166,-0.8109,-0.804,-0.80916,-0.79555,-0.79616,-0.80153,-0.79924,-0.80172,-0.80443,-0.79648,-0.79189,-0.79189,-0.79498,-0.80819,-0.80746,-0.79392,-0.79218,-0.80167,-0.82615,-0.8095,-0.80448,-0.80561,-0.81162,-0.81628,-0.81854,-0.8089,-0.8092,-0.81694,-0.81392,-0.80886,-0.81461,-0.82437,-0.81135,-0.82038,-0.82477,-0.81869,-0.82615,-0.81001,-0.81247,-0.82641,-0.83391,-0.82616,-0.82316,-0.82579,-0.82695,-0.82203,-0.81391,-0.82437,-0.83005,-0.83201,-0.83018,-0.82302,-0.82162,-0.82076,-0.82278,-0.81861,-0.82526,-0.82923,-0.82383,-0.82536,-0.82555,-0.81222,-0.82582,-0.81939,-0.81669,-0.83265,-0.82988,-0.82785,-0.82742,-0.83421,-0.8286,-0.8292,-0.82599,-0.82774,-0.82478,-0.81188,-0.78332,-0.78235,-0.77656,-0.7719,-0.78972,-0.77055,-0.73843,-0.7222,-0.71116,-0.73211,-0.74544,-0.75013,-0.75244,-0.76732,-0.78268,-0.79505,-0.8042,-0.81199,-0.83417,-0.85412,-0.85202,-0.84881,-0.84245,-0.8543,-0.85779,-0.85711,-0.8369,-0.85497,-0.86047,-0.86018,-0.86431,-0.84451,-0.83404,-0.75771,-0.61081,-0.47445,-0.3282,-0.13356,0.11405,0.046169,-0.30874,-0.84844,-1.2062,-1.1489,-1.0502,-0.94091,-0.81527,-0.7874,-0.77279,-0.75687,-0.76183,-0.75783,-0.76944,-0.76935,-0.77278,-0.76402,-0.74926,-0.73599,-0.74077,-0.73719,-0.73168,-0.71714,-0.70764,-0.70804,-0.69991,-0.70147,-0.68793,-0.69829,-0.69716,-0.69586,-0.69983,-0.6973,-0.68714,-0.67465,-0.67153,-0.67,-0.66201,-0.64784,-0.63803,-0.62588,-0.6192,-0.60108,-0.57836,-0.56208,-0.55396,-0.53356,-0.50645,-0.48792,-0.46929,-0.46144,-0.44639,-0.42489,-0.40132,-0.38157,-0.37559,-0.36272,-0.35732,-0.34558,-0.33517,-0.32334,-0.31404,-0.30301,-0.30182,-0.29524,-0.29272,-0.31181,-0.34098,-0.36594,-0.39851,-0.41729,-0.4615,-0.51092,-0.54923,-0.58835,-0.62515,-0.6609,-0.69301,-0.71147,-0.72858,-0.74382,-0.76398,-0.77761,-0.78096,-0.78074,-0.78421,-0.79902,-0.79958,-0.78912,-0.78984,-0.79134,-0.78973,-0.78632,-0.78357,-0.78537,-0.79038,-0.79199,-0.7948,-0.79011,-0.78283,-0.77883,-0.77544,-0.78323,-0.77881,-0.77935,-0.78006,-0.77039,-0.77622,-0.77481,-0.77688,-0.77661,-0.77851,-0.77844,-0.7815,-0.78686,-0.78282,-0.78458,-0.79149,-0.79889,-0.79715,-0.79804,-0.80226,-0.80475,-0.80942,-0.81503,-0.8114,-0.82107,-0.82296,-0.82333,-0.82351,-0.82512,-0.82317,-0.83315,-0.83764,-0.83866,-0.83544,-0.84121,-0.84236,-0.84538,-0.84605,-0.8431,-0.84802,-0.85104,-0.85647,-0.8559,-0.85818,-0.8557,-0.86413,-0.86643,-0.86762,-0.86624,-0.86966,-0.8656,-0.86615,-0.87559,-0.87723,-0.86566,-0.86922,-0.87368,-0.87439,-0.87095,-0.87056,-0.87143,-0.87099,-0.8721,-0.87304,-0.87221,-0.86963,-0.8736,-0.87315,-0.86567,-0.87179,-0.87972,-0.87911,-0.87526,-0.87584,-0.86634,-0.86356,-0.85933,-0.8683,-0.87901,-0.86246,-0.84718,-0.851,-0.87794,-0.86335,-0.83178,-0.81108,-0.80826,-0.80854,-0.80516,-0.8157,-0.80124,-0.75902,-0.74096,-0.73413,-0.74894,-0.75635,-0.76958,-0.78985,-0.79324,-0.79664,-0.79368,-0.81811,-0.83596,-0.83856,-0.83589,-0.83852,-0.85085,-0.86226,-0.85836,-0.85809,-0.85393,-0.85959,-0.85651,-0.8577,-0.85932,-0.86337,-0.85795,-0.78848,-0.65476,-0.5197,-0.3888,-0.20523,0.042981,0.048458,-0.27323,-0.80812,-1.2353,-1.1731,-1.1031,-1.0425,-0.89445,-0.81953,-0.79571,-0.79055,-0.79194,-0.79093,-0.79291,-0.8027,-0.79513,-0.79251,-0.77257,-0.77457,-0.76482,-0.76533,-0.75723,-0.75765,-0.74362,-0.74402,-0.74068,-0.74814,-0.74255,-0.73215,-0.73587,-0.74433,-0.74196,-0.73194,-0.72887,-0.72222,-0.72029,-0.71041,-0.68493,-0.66852,-0.66581,-0.66721,-0.65545,-0.63594,-0.62328,-0.6083,-0.59731,-0.59505,-0.57398,-0.54988,-0.54493,-0.52966,-0.51887,-0.4994,-0.49112,-0.48249,-0.47048,-0.45289,-0.44024,-0.42788,-0.40842,-0.41632,-0.42438,-0.4108,-0.40464,-0.38765,-0.39133,-0.39905,-0.41362,-0.42116,-0.44761,-0.49166,-0.53413,-0.57147,-0.62258,-0.66218,-0.69377,-0.73151,-0.77197,-0.79819,-0.81494,-0.83721,-0.85761,-0.86608,-0.88598,-0.89953,-0.90146,-0.89747,-0.89059,-0.88656,-0.90715,-0.9078,-0.90895,-0.90766,-0.90761,-0.91262,-0.89914,-0.8916,-0.92408,-0.91526,-0.90733,-0.90955,-0.92941,-0.93952,-0.92989,-0.92448,-0.90929,-0.91004,-0.93136,-0.92042,-0.92202,-0.9254,-0.92149,-0.91248,-0.91195,-0.93156,-0.91985,-0.91226,-0.91936,-0.92974,-0.92519,-0.94507,-0.9466,-0.94731,-0.9403,-0.93267,-0.92876,-0.93025,-0.93971,-0.9514,-0.95624,-0.94719,-0.9539,-0.9591,-0.9597,-0.95843,-0.95847,-0.95913,-0.96002,-0.94847,-0.95449,-0.95851,-0.97128,-0.9729,-0.96505,-0.95851,-0.95484,-0.95517,-0.94758,-0.94835,-0.94603,-0.95521,-0.94724,-0.95622,-0.94371,-0.95329,-0.94341,-0.94098,-0.95506,-0.94761,-0.95737,-0.94524,-0.93848,-0.94332,-0.94094,-0.93954,-0.93945,-0.94061,-0.94464,-0.94853,-0.93499,-0.92669,-0.93459,-0.94768,-0.9442,-0.94746,-0.93283,-0.93797,-0.93427,-0.93958,-0.92725,-0.91418,-0.89561,-0.89758,-0.89478,-0.90308,-0.90308,-0.89796,-0.86031,-0.85188,-0.83918,-0.85259,-0.85894,-0.85999,-0.88326,-0.88659,-0.89824,-0.90806,-0.92581,-0.94398,-0.95738,-0.95714,-0.96357,-0.95752,-0.97253,-0.96201,-0.96272,-0.96864,-0.97073,-0.98635,-0.97718,-0.9713,-0.97674,-0.96011,-0.89781,-0.76518,-0.62601,-0.50417,-0.31667,-0.14467,-0.19766,-0.51108,-1.0835,-1.4519,-1.3246,-1.1939,-1.1117,-1.0603,-0.9642,-0.89894,-0.90692,-0.89792,-0.90256,-0.90717,-0.91582,-0.91687,-0.9274,-0.91384,-0.90364,-0.887,-0.89532,-0.90705,-0.90227,-0.90272,-0.90996,-0.90013,-0.89223,-0.89577,-0.89906,-0.89001,-0.89796,-0.88715,-0.88401,-0.87442,-0.88153,-0.8654,-0.88182,-0.85786,-0.84345,-0.83416,-0.84144,-0.81131,-0.79987,-0.7827,-0.76078,-0.76009,-0.75979,-0.73141,-0.72101,-0.69686,-0.68526,-0.67305,-0.65975,-0.62604,-0.62292,-0.61634,-0.59073,-0.57471,-0.54924,-0.55201,-0.53663,-0.54148,-0.52261,-0.51685,-0.51306,-0.52176,-0.52636,-0.55083,-0.5554,-0.58685,-0.6249,-0.67583,-0.7282,-0.77032,-0.80327,-0.84884,-0.88613,-0.926,-0.95169,-0.96718,-0.98075,-0.99232,-0.99475,-0.98619,-0.99163,-0.98587,-0.98777,-0.99729,-0.99988,-0.99629,-0.98859,-1.0027,-1.0019,-1.001,-0.99529,-0.99023,-0.99484,-0.98398,-0.98456,-0.98245,-0.98681,-0.98761,-0.98901,-0.99141,-0.98728,-0.98693,-1.0005,-1.0037,-1.0037,-1.0074,-1.0041,-0.99773,-1.0068,-1.0137,-1.0113,-1.0139,-1.0236,-1.0283,-1.027,-1.0279,-1.0268,-1.0302,-1.0395,-1.042,-1.0392,-1.0448,-1.0474,-1.0364,-1.0449,-1.0542,-1.0485,-1.0464,-1.05,-1.0533,-1.0583,-1.0661,-1.0591,-1.0629,-1.071,-1.0594,-1.0595,-1.0657,-1.0694,-1.0689,-1.0646,-1.0571,-1.0582,-1.066,-1.0654,-1.0754,-1.0752,-1.0724,-1.0596,-1.0731,-1.0769,-1.077,-1.0635,-1.0683,-1.0665,-1.0479,-1.0281,-1.0309,-1.0291,-1.0448,-1.0422,-1.0051,-0.99779,-0.97636,-0.96938,-0.98651,-1.0022,-1.0108,-1.0271,-1.0388,-1.045,-1.0577,-1.0649,-1.0805,-1.0916,-1.1032,-1.1086,-1.1144,-1.1089,-1.1133,-1.1228,-1.1132,-1.1154,-1.1317,-1.1349,-1.1348,-1.129,-1.1205,-1.09,-0.97971,-0.84878,-0.72573,-0.57391,-0.39031,-0.29898,-0.52394,-0.98084,-1.5625,-1.5701,-1.4159,-1.3467,-1.2318,-1.1424,-1.0624,-1.0794,-1.0601,-1.0599,-1.0382,-1.0528,-1.0523,-1.0647,-1.0567,-1.0534,-1.0316,-1.0445,-1.036,-1.039,-1.0201,-1.0249,-1.0184,-1.0364,-1.0296,-1.0349,-1.0245,-1.035,-1.0325,-1.0346,-1.0225,-1.0182,-1.0102,-1.0037,-0.99059,-0.97917,-0.96945,-0.95717,-0.94074,-0.93574,-0.92015,-0.90556,-0.89605,-0.8915,-0.87969,-0.85607,-0.84349,-0.82179,-0.81839,-0.80339,-0.78483,-0.76928,-0.75653,-0.73244,-0.73078,-0.71566,-0.71259,-0.70399,-0.69851,-0.69641,-0.68156,-0.67858,-0.68473,-0.70382,-0.73403,-0.75956,-0.79082,-0.82938,-0.85171,-0.90294,-0.9536,-0.99387,-1.0293,-1.0582,-1.0979,-1.1264,-1.1507,-1.157,-1.1631,-1.1683,-1.1786,-1.1713,-1.1672,-1.1758,-1.1733,-1.1615,-1.1606,-1.1548,-1.1491,-1.1453,-1.1534,-1.149,-1.138,-1.1364,-1.138,-1.1365,-1.1298,-1.1278,-1.126,-1.1335,-1.1339,-1.1297,-1.1235,-1.1218,-1.1354,-1.1324,-1.1327,-1.1233,-1.1187,-1.1205,-1.1257,-1.1221,-1.1294,-1.1305,-1.1302,-1.1411,-1.1446,-1.138,-1.1349,-1.1352,-1.1432,-1.1461,-1.1431,-1.1294,-1.1401,-1.144,-1.1462,-1.1396,-1.1353,-1.1362,-1.1359,-1.1399,-1.1443,-1.14,-1.1429,-1.1453,-1.1513,-1.1524,-1.1409,-1.1437,-1.1484,-1.1533,-1.1469,-1.1429,-1.1469,-1.1468,-1.1501,-1.1516,-1.1445,-1.1387,-1.1431,-1.1432,-1.148,-1.1463,-1.1405,-1.1431,-1.1484,-1.1503,-1.1558,-1.1478,-1.1511,-1.1584,-1.1511,-1.1425,-1.1279,-1.1114,-1.116,-1.1197,-1.1117,-1.1189,-1.1101,-1.0804,-1.0734,-1.0625,-1.0654,-1.0851,-1.0847,-1.1008,-1.102,-1.1078,-1.1118,-1.1421,-1.158,-1.1674,-1.1706,-1.1866,-1.1838,-1.1909,-1.1892,-1.1885,-1.181,-1.1787,-1.1875,-1.1847,-1.1812,-1.1847,-1.189,-1.1596,-1.051,-0.91063,-0.77586,-0.63676,-0.45479,-0.27702,-0.44131,-0.86211,-1.4328,-1.5967,-1.5245,-1.4109,-1.3114,-1.1945,-1.0988,-1.0926,-1.0631,-1.0728,-1.0538,-1.0685,-1.0651,-1.0748,-1.0554,-1.0613,-1.0522,-1.062,-1.0454,-1.0554,-1.0409,-1.044,-1.0377,-1.044,-1.0347,-1.0449,-1.0385,-1.0475,-1.0425,-1.0402,-1.0318,-1.0287,-1.0236,-1.0171,-0.98988,-0.98423,-0.9755,-0.96892,-0.95471,-0.94246,-0.93117,-0.9181,-0.9051,-0.89271,-0.87572,-0.85913,-0.8462,-0.8364,-0.82781,-0.80875,-0.7906,-0.77654,-0.7689,-0.75128,-0.73298,-0.71769,-0.71828,-0.70259,-0.7028,-0.68768,-0.68002,-0.66899,-0.68002,-0.68602,-0.69049,-0.70659,-0.73652,-0.77849,-0.82254,-0.857,-0.89897,-0.94335,-0.98463,-1.0239,-1.0515,-1.0819,-1.1087,-1.1238,-1.1482,-1.1541,-1.1578,-1.1611,-1.1659,-1.1681,-1.1667,-1.1541,-1.1512,-1.1533,-1.1555,-1.1566,-1.1523,-1.1484,-1.1475,-1.1483,-1.1468,-1.138,-1.14,-1.1312,-1.1344,-1.1356,-1.1393,-1.1383,-1.1435,-1.1426,-1.1405,-1.1351,-1.1318,-1.1274,-1.1332,-1.1329,-1.1343,-1.135,-1.1382,-1.1466,-1.1503,-1.1554,-1.1512,-1.1517,-1.1631,-1.1661,-1.1666,-1.1608,-1.17,-1.1718,-1.1836,-1.1758,-1.1699,-1.1727,-1.1744,-1.185,-1.1804,-1.1721,-1.1741,-1.175,-1.1878,-1.1872,-1.177,-1.1842,-1.1904,-1.1896,-1.1828,-1.1832,-1.1872,-1.1908,-1.1918,-1.1922,-1.1904,-1.1898,-1.1896,-1.1935,-1.1931,-1.1886,-1.1921,-1.1891,-1.1899,-1.1979,-1.2002,-1.1927,-1.1936,-1.2005,-1.1925,-1.1865,-1.1951,-1.1967,-1.1896,-1.1986,-1.1983,-1.2,-1.1916,-1.1995,-1.2079,-1.2085,-1.2083,-1.217,-1.2225,-1.2243,-1.2214,-1.2084,-1.1977,-1.2087,-1.2216,-1.2349,-1.2424,-1.2241,-1.2235,-1.2258,-1.2275,-1.238,-1.2425,-1.2454,-1.2585,-1.2619,-1.2591,-1.26,-1.2812,-1.284,-1.2825,-1.2863,-1.2826,-1.2846,-1.2856,-1.2799,-1.2695,-1.2665,-1.2665,-1.2685,-1.2605,-1.2562,-1.2487,-1.2349,-1.1551,-1.012,-0.87323,-0.73677,-0.55915,-0.33738,-0.38556,-0.74126,-1.2649,-1.659,-1.5749,-1.4608,-1.3603,-1.224,-1.1844,-1.1664,-1.1509,-1.1441,-1.1317,-1.1357,-1.1457,-1.1385,-1.1284,-1.1121,-1.1044,-1.1075,-1.1053,-1.0932,-1.0903,-1.1012,-1.0907,-1.0881,-1.0988,-1.0753,-1.0657,-1.0557,-1.059,-1.0622,-1.0523,-1.0404,-1.0286,-1.0193,-1.0055,-0.99692,-0.98036,-0.96894,-0.96669,-0.95477,-0.92971,-0.91731,-0.90387,-0.88469,-0.86412,-0.85081,-0.84089,-0.83086,-0.81494,-0.79622,-0.7872,-0.76274,-0.74934,-0.7437,-0.73553,-0.7239,-0.70362,-0.70453,-0.69124,-0.6884,-0.67526,-0.66869,-0.67306,-0.67187,-0.68541,-0.70852,-0.71874,-0.7464,-0.78323,-0.83224,-0.88047,-0.91552,-0.94829,-0.98694,-1.0246,-1.0483,-1.0723,-1.0859,-1.1127,-1.1322,-1.14,-1.146,-1.1482,-1.1505,-1.1593,-1.1541,-1.1487,-1.1556,-1.149,-1.1578,-1.1643,-1.1578,-1.1516,-1.1523,-1.1546,-1.1559,-1.1525,-1.1446,-1.1481,-1.1538,-1.1548,-1.147,-1.1414,-1.142,-1.1444,-1.1396,-1.1451,-1.1391,-1.1371,-1.1407,-1.1499,-1.1472,-1.1427,-1.143,-1.1481,-1.1592,-1.1551,-1.1566,-1.162,-1.1594,-1.1686,-1.1711,-1.1658,-1.1712,-1.1746,-1.1783,-1.1798,-1.1777,-1.1764,-1.1745,-1.1806,-1.1815,-1.177,-1.1811,-1.1852,-1.1828,-1.183,-1.18,-1.1838,-1.1799,-1.1844,-1.1831,-1.1836,-1.1817,-1.1882,-1.1877,-1.1872,-1.1879,-1.1844,-1.186,-1.1875,-1.1899,-1.1865,-1.1865,-1.1911,-1.1982,-1.2014,-1.1834,-1.1788,-1.1862,-1.1834,-1.1851,-1.1833,-1.1785,-1.18,-1.1851,-1.1876,-1.1887,-1.1855,-1.1804,-1.1842,-1.1864,-1.1833,-1.1809,-1.1809,-1.1855,-1.1907,-1.1897,-1.1868,-1.1848,-1.1861,-1.1895,-1.1871,-1.1821,-1.18,-1.1812,-1.1862,-1.1818,-1.1786,-1.1696,-1.1706,-1.1681,-1.1594,-1.1273,-1.1105,-1.1143,-1.1089,-1.1171,-1.1103,-1.078,-1.0639,-1.0589,-1.0817,-1.0895,-1.0841,-1.1039,-1.1086,-1.1119,-1.1183,-1.1355,-1.1549,-1.1722,-1.1836,-1.1892,-1.1856,-1.197,-1.1928,-1.1973,-1.197,-1.2007,-1.1979,-1.2018,-1.1982,-1.2003,-1.1932,-1.1224,-0.98335,-0.90843,-0.78688,-0.61259,-0.40827,-0.22272,-0.44301,-0.88296,-1.435,-1.5558,-1.439,-1.3749,-1.2206,-1.1284,-1.0926,-1.0929,-1.0933,-1.0971,-1.0869,-1.1017,-1.0988,-1.1043,-1.09,-1.0802,-1.0633,-1.0728,-1.0601,-1.0578,-1.0464,-1.051,-1.0485,-1.0578,-1.0494,-1.0562,-1.0447,-1.0392,-1.033,-1.0352,-1.0248,-1.0215,-1.01,-1.0103,-1.0036,-0.98648,-0.97333,-0.96737,-0.95875,-0.94877,-0.93248,-0.91953,-0.90849,-0.89629,-0.88887,-0.87295,-0.85483,-0.8449,-0.83072,-0.81441,-0.79747,-0.78046,-0.76572,-0.76005,-0.75245,-0.74242,-0.73252,-0.71965,-0.71445,-0.70594,-0.70447,-0.69413,-0.69686,-0.69541,-0.71665,-0.73316,-0.76192,-0.79205,-0.83188,-0.88074,-0.93032,-0.96085,-0.99925,-1.0116,-1.0429,-1.0793,-1.1072,-1.1209,-1.143,-1.1602,-1.1653,-1.1754,-1.1657,-1.1752,-1.1754,-1.1677,-1.1687,-1.1596,-1.1625,-1.1787,-1.1863,-1.1789,-1.1722,-1.1685,-1.1691,-1.1727,-1.1719,-1.1621,-1.163,-1.1595,-1.1701,-1.1682,-1.1667,-1.1575,-1.1563,-1.1592,-1.1642,-1.1583,-1.1667,-1.1646,-1.1696,-1.1727,-1.176,-1.1753,-1.1782,-1.1834,-1.1872,-1.1882,-1.1836,-1.1939,-1.1977,-1.2014,-1.2007,-1.1974,-1.2017,-1.2064,-1.207,-1.2037,-1.2069,-1.2035,-1.2052,-1.2093,-1.2121,-1.2079,-1.2122,-1.2088,-1.2101,-1.2106,-1.2024,-1.211,-1.2128,-1.2159,-1.2219,-1.2164,-1.2145,-1.2119,-1.2061,-1.219,-1.2185,-1.2254,-1.2309,-1.2287,-1.2307,-1.2337,-1.2324,-1.2314,-1.2352,-1.2428,-1.2465,-1.2365,-1.238,-1.2456,-1.2499,-1.2481,-1.2358,-1.2365,-1.2358,-1.2324,-1.2279,-1.2249,-1.2286,-1.2351,-1.2359,-1.2397,-1.2345,-1.2402,-1.2431,-1.2482,-1.2527,-1.2489,-1.2494,-1.2497,-1.2485,-1.2444,-1.2373,-1.2458,-1.2386,-1.2437,-1.2322,-1.2123,-1.2099,-1.2111,-1.2032,-1.189,-1.1836,-1.184,-1.1848,-1.1814,-1.1774,-1.1792,-1.1827,-1.1963,-1.211,-1.2425,-1.2488,-1.2498,-1.2603,-1.2766,-1.2777,-1.2668,-1.2641,-1.2684,-1.2797,-1.2852,-1.2828,-1.2821,-1.293,-1.2807,-1.2452,-1.144,-1.0139,-0.87831,-0.73115,-0.55465,-0.45035,-0.64987,-1.0637,-1.6542,-1.7667,-1.5881,-1.4929,-1.3897,-1.302,-1.2221,-1.213,-1.2059,-1.2182,-1.2142,-1.2266,-1.2214,-1.2183,-1.1971,-1.2098,-1.1985,-1.1935,-1.1777,-1.1717,-1.1777,-1.1765,-1.1691,-1.1593,-1.1575,-1.1541,-1.1518,-1.1646,-1.1409,-1.1319,-1.1271,-1.136,-1.1278,-1.123,-1.1182,-1.1197,-1.1017,-1.0987,-1.0808,-1.0689,-1.0627,-1.0543,-1.0425,-1.0381,-1.0131,-0.99656,-0.98899,-0.97848,-0.96578,-0.95064,-0.93248,-0.92732,-0.91525,-0.90088,-0.88535,-0.86639,-0.86279,-0.85537,-0.84506,-0.83483,-0.83319,-0.82458,-0.82974,-0.835,-0.8378,-0.85304,-0.8891,-0.90818,-0.94849,-0.98092,-1.0225,-1.0583,-1.1101,-1.1503,-1.1729,-1.1992,-1.2187,-1.2435,-1.2563,-1.2569,-1.2607,-1.2682,-1.2769,-1.2752,-1.2744,-1.2777,-1.2882,-1.2902,-1.2928,-1.2846,-1.2838,-1.2792,-1.2798,-1.2804,-1.2812,-1.2741,-1.2661,-1.268,-1.2752,-1.2676,-1.2693,-1.2734,-1.2753,-1.2713,-1.2726,-1.2731,-1.27,-1.2784,-1.2843,-1.2909,-1.2842,-1.28,-1.2828,-1.2903,-1.2985,-1.2959,-1.3032,-1.3052,-1.3108,-1.3115,-1.3118,-1.3063,-1.3064,-1.3194,-1.3218,-1.3207,-1.3223,-1.3214,-1.3308,-1.3409,-1.3339,-1.3267,-1.3316,-1.3352,-1.3338,-1.3362,-1.3378,-1.3388,-1.3355,-1.3341,-1.3373,-1.3381,-1.3404,-1.3424,-1.3466,-1.3451,-1.3356,-1.3342,-1.3334,-1.3411,-1.3483,-1.3414,-1.3476,-1.3521,-1.3583,-1.35,-1.3425,-1.3411,-1.3415,-1.3513,-1.3549,-1.3526,-1.3425,-1.334,-1.3174,-1.3149,-1.3091,-1.3179,-1.3137,-1.317,-1.3008,-1.2719,-1.2598,-1.2553,-1.2748,-1.2836,-1.2819,-1.2855,-1.2847,-1.2865,-1.2811,-1.2919,-1.3292,-1.3795,-1.3757,-1.3564,-1.3108,-1.3208,-1.34,-1.3786,-1.4119,-1.4172,-1.4119,-1.3935,-1.3986,-1.3907,-1.3811,-1.3065,-1.1526,-1.0305,-0.93466,-0.75404,-0.57358,-0.56559,-0.86482,-1.3921,-1.874,-1.7716,-1.6805,-1.5894,-1.4877,-1.3964,-1.3045,-1.3023,-1.2902,-1.3064,-1.302,-1.3168,-1.308,-1.3204,-1.3113,-1.302,-1.2885,-1.2845,-1.2735,-1.277,-1.2685,-1.2651,-1.2582,-1.2704,-1.2643,-1.2646,-1.2515,-1.2468,-1.2388,-1.2429,-1.234,-1.2298,-1.217,-1.2164,-1.1961,-1.198,-1.1859,-1.1633,-1.1506,-1.1434,-1.1222,-1.1116,-1.0995,-1.0939,-1.0654,-1.0551,-1.0369,-1.014,-0.99211,-0.98382,-0.96841,-0.94238,-0.91733,-0.88716,-0.88119,-0.8846,-0.87948,-0.87978,-0.86088,-0.84775,-0.84032,-0.83027,-0.82932,-0.83941,-0.85479,-0.85902,-0.90621,-0.9692,-1.0053,-1.05,-1.0968,-1.1337,-1.1666,-1.188,-1.2068,-1.242,-1.25,-1.2581,-1.274,-1.2713,-1.2934,-1.2849,-1.283,-1.29,-1.2907,-1.2919,-1.2852,-1.2866,-1.3013,-1.3075,-1.2974,-1.3071,-1.3068,-1.295,-1.3065,-1.3135,-1.3142,-1.3168,-1.3028,-1.2989,-1.3193,-1.3159,-1.3199,-1.3126,-1.3229,-1.3231,-1.3196,-1.3251,-1.3426,-1.335,-1.354,-1.3408,-1.3308,-1.3561,-1.3563,-1.3537,-1.3639,-1.3668,-1.3568,-1.3468,-1.3602,-1.3833,-1.3802,-1.36,-1.3639,-1.3706,-1.3626,-1.3708,-1.3805,-1.3683,-1.3725,-1.3826,-1.3756,-1.3692,-1.3766,-1.3881,-1.4014,-1.3995,-1.3975,-1.3978,-1.3907,-1.3978,-1.4013,-1.3931,-1.385,-1.3873,-1.4022,-1.397,-1.4029,-1.3907,-1.3884,-1.4037,-1.4184,-1.4097,-1.3965,-1.4016,-1.4,-1.4087,-1.403,-1.3982,-1.403,-1.4087,-1.3985,-1.3979,-1.3976,-1.4021,-1.4063,-1.399,-1.3938,-1.378,-1.3556,-1.356,-1.3517,-1.3539,-1.3639,-1.3419,-1.3145,-1.3012,-1.2968,-1.3174,-1.3104,-1.3258,-1.3423,-1.3487,-1.3467,-1.3368,-1.3581,-1.3942,-1.4105,-1.4159,-1.4142,-1.406,-1.4105,-1.4168,-1.4122,-1.4129,-1.4183,-1.4181,-1.4199,-1.4243,-1.4275,-1.4024,-1.3137,-1.2432,-1.115,-0.97214,-0.81731,-0.61712,-0.48985,-0.7143,-1.1492,-1.7266,-1.8466,-1.6925,-1.6404,-1.514,-1.4041,-1.3584,-1.3463,-1.3476,-1.3615,-1.3516,-1.3724,-1.3558,-1.3611,-1.3342,-1.3457,-1.3187,-1.3345,-1.3219,-1.3218,-1.2967,-1.2977,-1.3048,-1.3098,-1.2963,-1.2928,-1.2824,-1.2884,-1.2825,-1.2685,-1.2528,-1.2546,-1.254,-1.2496,-1.234,-1.2281,-1.2219,-1.207,-1.1887,-1.1846,-1.1729,-1.1737,-1.1546,-1.1377,-1.1235,-1.1111,-1.0872,-1.0668,-1.0579,-1.0437,-1.0188,-0.99081,-0.99375,-1.0038,-0.98715,-0.96795,-0.94968,-0.94484,-0.95254,-0.94043,-0.93247,-0.92345,-0.91691,-0.94491,-0.97088,-0.99702,-1.0116,-1.0576,-1.1191,-1.1656,-1.2087,-1.2237,-1.2444,-1.29,-1.3336,-1.3446,-1.3628,-1.3664,-1.3882,-1.3887,-1.409,-1.4118,-1.4138,-1.4089,-1.4268,-1.4223,-1.4146,-1.4165,-1.4165,-1.4131,-1.4191,-1.4107,-1.4062,-1.4183,-1.4207,-1.4078,-1.4045,-1.4059,-1.4091,-1.4003,-1.4079,-1.4052,-1.404,-1.4085,-1.4079,-1.3989,-1.3955,-1.387,-1.4011,-1.4171,-1.4223,-1.4043,-1.4006,-1.4028,-1.4136,-1.4152,-1.407,-1.4128,-1.4204,-1.426,-1.4249,-1.4186,-1.4117,-1.4098,-1.4253,-1.4241,-1.4226,-1.4197,-1.421,-1.4307,-1.4295,-1.4258,-1.4207,-1.4244,-1.4186,-1.4243,-1.4279,-1.4201,-1.4259,-1.4306,-1.4308,-1.4269,-1.4193,-1.4262,-1.4366,-1.4315,-1.4312,-1.4182,-1.4225,-1.4277,-1.4413,-1.4328,-1.4284,-1.4212,-1.4244,-1.4314,-1.4219,-1.4191,-1.4207,-1.4373,-1.4326,-1.4292,-1.4286,-1.4293,-1.429,-1.428,-1.4202,-1.4406,-1.4378,-1.4248,-1.4315,-1.4373,-1.439,-1.4304,-1.4264,-1.4262,-1.4229,-1.4313,-1.4327,-1.4148,-1.3987,-1.3855,-1.3788,-1.385,-1.3831,-1.3879,-1.3749,-1.3501,-1.3285,-1.3202,-1.3392,-1.3477,-1.35,-1.3544,-1.3601,-1.3675,-1.3723,-1.4025,-1.4159,-1.4194,-1.4355,-1.4539,-1.4424,-1.436,-1.435,-1.4353,-1.448,-1.4443,-1.4419,-1.4439,-1.4438,-1.4521,-1.4308,-1.3968,-1.2813,-1.1398,-1.0244,-0.86673,-0.65363,-0.45885,-0.65594,-1.1033,-1.6751,-1.8409,-1.7078,-1.6432,-1.5225,-1.4153,-1.3679,-1.3603,-1.3547,-1.3734,-1.3625,-1.3715,-1.3427,-1.3469,-1.3462,-1.3436,-1.3168,-1.3239,-1.3166,-1.3276,-1.3326,-1.3174,-1.301,-1.299,-1.2956,-1.3021,-1.2956,-1.2874,-1.2703,-1.2699,-1.2566,-1.2621,-1.2542,-1.2484,-1.2427,-1.2447,-1.2411,-1.2265,-1.2002,-1.1988,-1.1893,-1.1675,-1.1562,-1.1398,-1.1222,-1.0894,-1.0982,-1.0884,-1.0426,-1.0532,-1.0337,-1.0334,-0.99217,-0.99362,-0.96383,-0.95608,-0.96106,-0.93198,-0.93958,-0.94784,-0.95546,-0.92284,-0.92125,-0.92626,-0.94662,-0.95971,-0.98718,-1.0383,-1.094,-1.1266,-1.1604,-1.1736,-1.2239,-1.2654,-1.2878,-1.2953,-1.3377,-1.3651,-1.3689,-1.3895,-1.3914,-1.3974,-1.4159,-1.4214,-1.4071,-1.4046,-1.4301,-1.426,-1.4233,-1.4158,-1.4257,-1.4288,-1.4192,-1.4067,-1.3993,-1.3985,-1.4068,-1.4214,-1.4076,-1.3965,-1.4062,-1.4015,-1.39,-1.3736,-1.407,-1.4108,-1.4031,-1.3948,-1.3775,-1.3871,-1.3943,-1.3986,-1.395,-1.3862,-1.4055,-1.4032,-1.406,-1.4095,-1.406,-1.3947,-1.3979,-1.4112,-1.4185,-1.4127,-1.4172,-1.4193,-1.4195,-1.4271,-1.4195,-1.4177,-1.4191,-1.4151,-1.4316,-1.4325,-1.4253,-1.4228,-1.4289,-1.4338,-1.4346,-1.4182,-1.4185,-1.4159,-1.4131,-1.4321,-1.4221,-1.4164,-1.4295,-1.4329,-1.4269,-1.4295,-1.4251,-1.414,-1.4143,-1.427,-1.4399,-1.4315,-1.4207,-1.4303,-1.4329,-1.4377,-1.4182,-1.4337,-1.4411,-1.4319,-1.4014,-1.438,-1.4446,-1.4237,-1.4441,-1.4335,-1.4239,-1.42,-1.4296,-1.4333,-1.4374,-1.4189,-1.4212,-1.4285,-1.4416,-1.4328,-1.4288,-1.4295,-1.4386,-1.4128,-1.4257,-1.4362,-1.4181,-1.4068,-1.411,-1.4036,-1.3895,-1.3726,-1.3733,-1.3736,-1.3723,-1.3639,-1.3634,-1.373,-1.3791,-1.3796,-1.3824,-1.4017,-1.4397,-1.441,-1.4335,-1.4365,-1.4232,-1.4519,-1.4639,-1.4607,-1.4455,-1.4473,-1.446,-1.4552,-1.4498,-1.4602,-1.4518,-1.4013,-1.2691,-1.1371,-0.99114,-0.79628,-0.56149,-0.46835,-0.76755,-1.2642,-1.7686,-1.7844,-1.658,-1.5997,-1.4394,-1.4058,-1.385,-1.3751,-1.3837,-1.3797,-1.3569,-1.3786,-1.3708,-1.3837,-1.3581,-1.3498,-1.3321,-1.3396,-1.3357,-1.3388,-1.3275,-1.3258,-1.3204,-1.3253,-1.3126,-1.3071,-1.2938,-1.2965,-1.291,-1.2884,-1.2754,-1.279,-1.2716,-1.2567,-1.2647,-1.2553,-1.226,-1.2304,-1.2347,-1.2159,-1.199,-1.1805,-1.1697,-1.1572,-1.1408,-1.1184,-1.1038,-1.0911,-1.093,-1.0857,-1.0667,-1.0539,-1.0283,-1.0208,-0.99826,-0.97597,-0.95521,-0.95716,-0.9599,-0.94667,-0.93561,-0.91988,-0.91841,-0.91677,-0.94615,-0.96558,-0.98827,-1.0269,-1.0671,-1.1034,-1.1435,-1.1821,-1.2169,-1.2551,-1.2942,-1.3105,-1.3364,-1.3503,-1.3557,-1.3676,-1.3971,-1.3893,-1.3836,-1.3985,-1.4021,-1.392,-1.3989,-1.3878,-1.3946,-1.3875,-1.3836,-1.3846,-1.3844,-1.3745,-1.3721,-1.3718,-1.3724,-1.3623,-1.3693,-1.3702,-1.3728,-1.3691,-1.3624,-1.3573,-1.363,-1.3579,-1.3656,-1.3697,-1.3715,-1.3657,-1.3756,-1.3864,-1.3734,-1.3715,-1.3871,-1.4024,-1.406,-1.3902,-1.3947,-1.409,-1.4115,-1.411,-1.4339,-1.4433,-1.4134,-1.4052,-1.3958,-1.4178,-1.4348,-1.4248,-1.4424,-1.4169,-1.4219,-1.4302,-1.4432,-1.4524,-1.4599,-1.449,-1.4614,-1.4695,-1.4675,-1.4648,-1.4574,-1.4578,-1.4591,-1.4766,-1.4801,-1.4794,-1.4688,-1.4431,-1.4446,-1.4795,-1.4699,-1.4556,-1.4316,-1.4174,-1.4393,-1.4433,-1.4323,-1.4412,-1.4522,-1.4627,-1.4537,-1.4509,-1.4439,-1.4556,-1.4623,-1.4565,-1.4434,-1.4517,-1.4463,-1.4521,-1.464,-1.4542,-1.4552,-1.449,-1.458,-1.4512,-1.4513,-1.4629,-1.465,-1.4578,-1.4743,-1.4648,-1.4605,-1.4689,-1.4421,-1.4305,-1.434,-1.4151,-1.3978,-1.4225,-1.4144,-1.4006,-1.4076,-1.4063,-1.4169,-1.4211,-1.4224,-1.4466,-1.4615,-1.4721,-1.4797,-1.4925,-1.4874,-1.4897,-1.5014,-1.5151,-1.515,-1.5136,-1.5061,-1.5062,-1.5164,-1.5194,-1.5041,-1.4849,-1.4057,-1.2619,-1.1244,-0.98552,-0.79006,-0.61515,-0.69666,-1.0876,-1.6815,-1.9934,-1.8342,-1.7439,-1.6796,-1.5693,-1.4733,-1.4257,-1.417,-1.4074,-1.4021,-1.3953,-1.4103,-1.4177,-1.412,-1.397,-1.3913,-1.39,-1.3952,-1.3898,-1.3796,-1.3653,-1.3748,-1.3718,-1.3615,-1.3702,-1.3816,-1.3823,-1.3657,-1.3602,-1.3581,-1.3528,-1.3381,-1.3386,-1.3373,-1.3256,-1.3085,-1.2976,-1.2744,-1.2688,-1.2545,-1.2534,-1.2217,-1.2144,-1.2415,-1.212,-1.1909,-1.1721,-1.1589,-1.1452,-1.1298,-1.11,-1.0932,-1.0821,-1.0772,-1.0695,-1.0519,-1.0417,-1.0376,-1.0257,-1.0314,-1.0162,-1.0115,-1.0063,-1.0084,-1.0377,-1.0671,-1.0979,-1.1493,-1.1865,-1.2279,-1.2686,-1.3096,-1.3416,-1.383,-1.4129,-1.4374,-1.457,-1.4761,-1.4764,-1.4854,-1.4827,-1.4862,-1.4905,-1.4877,-1.4733,-1.4799,-1.4775,-1.4754,-1.4722,-1.4601,-1.4698,-1.4651,-1.454,-1.4421,-1.4387,-1.4677,-1.4643,-1.4594,-1.4644,-1.4593,-1.4569,-1.4509,-1.463,-1.4586,-1.4683,-1.4647,-1.469,-1.4617,-1.4722,-1.48,-1.4747,-1.4672,-1.4791,-1.4899,-1.5001,-1.4934,-1.4891,-1.4769,-1.5,-1.4992,-1.5024,-1.5093,-1.4971,-1.4915,-1.5088,-1.5125,-1.519,-1.5174,-1.5092,-1.5152,-1.5239,-1.5289,-1.5155,-1.5041,-1.5081,-1.5396,-1.5233,-1.5211,-1.5293,-1.5279,-1.5134,-1.5145,-1.5181,-1.5317,-1.5361,-1.54,-1.5299,-1.5329,-1.5371,-1.5326,-1.5451,-1.5339,-1.5328,-1.5391,-1.5366,-1.5459,-1.5459,-1.5403,-1.5455,-1.543,-1.5443,-1.5419,-1.5292,-1.5226,-1.5297,-1.5411,-1.5325,-1.523,-1.522,-1.51,-1.5047,-1.4912,-1.465,-1.4707,-1.4666,-1.4701,-1.4689,-1.4661,-1.47,-1.4765,-1.4834,-1.5022,-1.5428,-1.5431,-1.5425,-1.5506,-1.5508,-1.543,-1.5543,-1.5606,-1.5555,-1.5484,-1.5541,-1.5466,-1.5485,-1.5424,-1.5368,-1.5503,-1.4438,-1.2924,-1.1915,-1.059,-0.86395,-0.76907,-0.71018,-0.94308,-1.4332,-1.9932,-1.9695,-1.7963,-1.7195,-1.5878,-1.5192,-1.4418,-1.4557,-1.4504,-1.4546,-1.4262,-1.4499,-1.4471,-1.4512,-1.4344,-1.4519,-1.4288,-1.422,-1.4154,-1.4277,-1.4187,-1.4127,-1.3877,-1.4007,-1.3906,-1.3999,-1.3833,-1.3841,-1.3714,-1.3648,-1.3626,-1.3788,-1.3483,-1.3388,-1.3427,-1.3275,-1.3243,-1.3067,-1.293,-1.2998,-1.294,-1.2731,-1.2563,-1.2495,-1.2236,-1.2075,-1.1856,-1.1525,-1.1438,-1.1316,-1.1165,-1.1045,-1.0774,-1.0605,-1.068,-1.0633,-1.0594,-1.0437,-1.0167,-1.0159,-1.0257,-1.0295,-1.0301,-1.0351,-1.052,-1.0973,-1.137,-1.1757,-1.2308,-1.2755,-1.3141,-1.3504,-1.3833,-1.4002,-1.4477,-1.4693,-1.4772,-1.4885,-1.5059,-1.5032,-1.4976,-1.5029,-1.5071,-1.4997,-1.4976,-1.4836,-1.4941,-1.5176,-1.5122,-1.4867,-1.4957,-1.4921,-1.4969,-1.4789,-1.4752,-1.4675,-1.466,-1.4594,-1.4554,-1.4487,-1.4438,-1.4624,-1.4669,-1.4518,-1.4578,-1.4519,-1.4655,-1.4719,-1.4691,-1.4676,-1.4644,-1.463,-1.4878,-1.4832,-1.4841,-1.4825,-1.4902,-1.4859,-1.4978,-1.5075,-1.5008,-1.4974,-1.5057,-1.4983,-1.4911,-1.5074,-1.527,-1.5295,-1.5266,-1.5185,-1.5055,-1.5106,-1.5459,-1.5518,-1.5525,-1.5581,-1.5749,-1.5717,-1.5704,-1.5833,-1.5887,-1.6008,-1.6072,-1.6037,-1.5971,-1.5948,-1.5992,-1.6034,-1.6001,-1.5919,-1.5909,-1.598,-1.5911,-1.5926,-1.5824,-1.5715,-1.5811,-1.5907,-1.5881,-1.5955,-1.5818,-1.5809,-1.58,-1.5804,-1.5746,-1.5709,-1.5784,-1.5642,-1.543,-1.5442,-1.5292,-1.5303,-1.5381,-1.5106,-1.4866,-1.4599,-1.4743,-1.4868,-1.5001,-1.4967,-1.5046,-1.5141,-1.5171,-1.5362,-1.5443,-1.5585,-1.5728,-1.5921,-1.5848,-1.594,-1.5811,-1.5762,-1.5824,-1.5907,-1.5858,-1.5829,-1.5848,-1.5876,-1.5895,-1.5725,-1.4905,-1.3533,-1.207,-1.0739,-0.86215,-0.6705,-0.71458,-1.0618,-1.6346,-2.0631,-1.9201,-1.7894,-1.6983,-1.5786,-1.5092,-1.481,-1.4729,-1.463,-1.4699,-1.4533,-1.4702,-1.4638,-1.4684,-1.459,-1.4819,-1.4626,-1.4609,-1.4443,-1.4391,-1.4477,-1.4458,-1.4373,-1.4459,-1.4491,-1.4389,-1.4401,-1.44,-1.4312,-1.4164,-1.4125,-1.4005,-1.3901,-1.3899,-1.3814,-1.3645,-1.3437,-1.3176,-1.296,-1.2841,-1.2898,-1.2732,-1.2534,-1.2313,-1.2144,-1.1996,-1.1659,-1.1486,-1.1336,-1.1276,-1.1137,-1.0956,-1.0683,-1.0588,-1.0546,-1.04,-1.0271,-1.0151,-1.0122,-0.99506,-0.99866,-1.0035,-1.0057,-1.0156,-1.0532,-1.0845,-1.1243,-1.1858,-1.2061,-1.2599,-1.3042,-1.3577,-1.3924,-1.4115,-1.4296,-1.4508,-1.4885,-1.5118,-1.5367,-1.5497,-1.5585,-1.5503,-1.5628,-1.551,-1.5487,-1.5423,-1.5475,-1.5441,-1.5317,-1.5241,-1.5278,-1.5361,-1.5236,-1.5202,-1.518,-1.5319,-1.5073,-1.52,-1.5053,-1.4929,-1.5073,-1.5003,-1.4925,-1.4782,-1.4861,-1.477,-1.4846,-1.4877,-1.4698,-1.4693,-1.4773,-1.4751,-1.484,-1.4846,-1.512,-1.5185,-1.509,-1.5131,-1.5023,-1.5029,-1.5065,-1.5269,-1.5174,-1.5179,-1.5067,-1.4971,-1.5153,-1.526,-1.5239,-1.5195,-1.521,-1.5341,-1.5293,-1.528,-1.5227,-1.5201,-1.5165,-1.531,-1.5344,-1.5255,-1.5267,-1.5221,-1.5422,-1.5394,-1.5293,-1.5271,-1.548,-1.5448,-1.5381,-1.5315,-1.5562,-1.5569,-1.546,-1.5592,-1.5487,-1.5413,-1.5387,-1.5371,-1.5336,-1.531,-1.5246,-1.5189,-1.5203,-1.5127,-1.4895,-1.4727,-1.4624,-1.4832,-1.493,-1.4881,-1.4785,-1.5068,-1.525,-1.5323,-1.5405,-1.5622,-1.5777,-1.5805,-1.5763,-1.5753,-1.5865,-1.5888,-1.5897,-1.5862,-1.5828,-1.5979,-1.592,-1.5914,-1.5891,-1.5902,-1.5607,-1.4684,-1.3384,-1.1958,-1.0638,-0.86427,-0.6734,-0.7752,-1.1182,-1.7232,-2.0213,-1.8746,-1.7823,-1.6886,-1.5898,-1.5069,-1.4772,-1.4785,-1.478,-1.4613,-1.4586,-1.4582,-1.4669,-1.4539,-1.4549,-1.447,-1.4397,-1.434,-1.4351,-1.4454,-1.4464,-1.4432,-1.4293,-1.4232,-1.4101,-1.4042,-1.4118,-1.4085,-1.4236,-1.4218,-1.42,-1.4086,-1.392,-1.3791,-1.3841,-1.3671,-1.3528,-1.3494,-1.3432,-1.3267,-1.3181,-1.3105,-1.2995,-1.2807,-1.2697,-1.2445,-1.2182,-1.2074,-1.1977,-1.1928,-1.1803,-1.1572,-1.1434,-1.1189,-1.1234,-1.1066,-1.0915,-1.0881,-1.0803,-1.0794,-1.0775,-1.0864,-1.0992,-1.1258,-1.1591,-1.2008,-1.2451,-1.2916,-1.3441,-1.3707,-1.4066,-1.4535,-1.4823,-1.51,-1.5298,-1.5603,-1.5805,-1.5911,-1.6082,-1.6299,-1.6393,-1.6274,-1.6223,-1.618,-1.6126,-1.6223,-1.6121,-1.6078,-1.606,-1.6074,-1.6103,-1.613,-1.5957,-1.5863,-1.5912,-1.5877,-1.5865,-1.5736,-1.5561,-1.5547,-1.5566,-1.5616,-1.5618,-1.5621,-1.5624,-1.5657,-1.5613,-1.5637,-1.5576,-1.5567,-1.5565,-1.5631,-1.5668,-1.5575,-1.5596,-1.5726,-1.5792,-1.5744,-1.5722,-1.5753,-1.5769,-1.5819,-1.5861,-1.578,-1.5754,-1.5791,-1.5943,-1.595,-1.5834,-1.5888,-1.5885,-1.6087,-1.6129,-1.6164,-1.621,-1.6105,-1.6226,-1.6334,-1.6337,-1.6338,-1.6417,-1.6487,-1.6427,-1.6316,-1.6303,-1.6404,-1.6394,-1.6427,-1.6308,-1.6349,-1.6309,-1.6398,-1.6419,-1.6364,-1.6311,-1.6411,-1.6406,-1.6444,-1.6434,-1.6426,-1.6419,-1.6231,-1.6132,-1.5998,-1.5926,-1.58,-1.5885,-1.5957,-1.5699,-1.5604,-1.5548,-1.5343,-1.5544,-1.5626,-1.5672,-1.5771,-1.5879,-1.6037,-1.603,-1.6237,-1.6386,-1.6479,-1.6672,-1.6681,-1.6633,-1.6668,-1.6673,-1.6784,-1.6797,-1.6691,-1.6712,-1.6757,-1.6832,-1.6897,-1.6763,-1.6461,-1.5489,-1.4231,-1.2767,-1.1211,-0.93156,-0.7513,-0.90302,-1.2769,-1.8629,-2.1228,-1.9883,-1.8938,-1.8003,-1.6707,-1.6126,-1.5855,-1.5766,-1.5832,-1.5736,-1.5795,-1.5842,-1.5925,-1.5767,-1.5805,-1.5705,-1.5709,-1.5678,-1.5709,-1.5538,-1.5548,-1.5479,-1.5536,-1.5534,-1.5606,-1.547,-1.5414,-1.5405,-1.5464,-1.5413,-1.529,-1.5231,-1.5114,-1.5067,-1.4978,-1.4782,-1.4751,-1.4644,-1.459,-1.4402,-1.4242,-1.4095,-1.3968,-1.3776,-1.3604,-1.346,-1.3268,-1.311,-1.3018,-1.2828,-1.2644,-1.2444,-1.223,-1.2088,-1.1898,-1.187,-1.172,-1.1647,-1.1611,-1.1595,-1.1487,-1.1489,-1.1598,-1.1853,-1.2156,-1.2391,-1.2817,-1.3328,-1.3715,-1.4209,-1.4684,-1.5031,-1.5367,-1.5719,-1.5909,-1.6069,-1.6186,-1.6373,-1.6505,-1.6645,-1.6646,-1.6755,-1.6759,-1.6756,-1.6718,-1.6749,-1.6612,-1.6577,-1.6507,-1.6571,-1.6575,-1.6591,-1.6557,-1.6526,-1.6566,-1.654,-1.6461,-1.6367,-1.6323,-1.6399,-1.6391,-1.6327,-1.621,-1.623,-1.6311,-1.6267,-1.622,-1.6218,-1.6211,-1.6286,-1.64,-1.6351,-1.6323,-1.6323,-1.633,-1.6437,-1.641,-1.6419,-1.639,-1.6464,-1.657,-1.658,-1.6537,-1.6595,-1.6592,-1.6558,-1.6565,-1.6559,-1.6564,-1.6621,-1.6711,-1.6675,-1.6582,-1.658,-1.6623,-1.6708,-1.6694,-1.6546,-1.6564,-1.6615,-1.6674,-1.6678,-1.6654,-1.6607,-1.6708,-1.6622,-1.6637,-1.6648,-1.6611,-1.6653,-1.6685,-1.6636,-1.6619,-1.6626,-1.6571,-1.6551,-1.6655,-1.6626,-1.659,-1.6635,-1.6645,-1.6604,-1.6617,-1.6703,-1.669,-1.6723,-1.6733,-1.6702,-1.6669,-1.66,-1.6623,-1.6595,-1.6686,-1.6672,-1.6461,-1.6294,-1.6302,-1.6273,-1.6195,-1.6299,-1.6103,-1.5837,-1.5703,-1.5557,-1.5763,-1.589,-1.5903,-1.5967,-1.6017,-1.6039,-1.6119,-1.6277,-1.6445,-1.6495,-1.657,-1.6594,-1.6639,-1.6631,-1.6641,-1.6674,-1.6649,-1.67,-1.6725,-1.6618,-1.6671,-1.6768,-1.6767,-1.6626,-1.5815,-1.43,-1.2802,-1.1407,-0.96215,-0.75778,-0.76472,-1.0943,-1.6206,-2.1183,-2.0508,-1.902,-1.8284,-1.6992,-1.6175,-1.5828,-1.5752,-1.5617,-1.5734,-1.565,-1.5888,-1.5669,-1.5763,-1.5644,-1.5768,-1.5579,-1.5676,-1.5636,-1.5638,-1.5559,-1.5544,-1.5389,-1.5406,-1.5404,-1.546,-1.5307,-1.5349,-1.5268,-1.5263,-1.5267,-1.5185,-1.5054,-1.5059,-1.4904,-1.4874,-1.4762,-1.4557,-1.444,-1.4295,-1.4257,-1.4123,-1.3986,-1.3802,-1.3664,-1.3579,-1.3368,-1.3133,-1.2934,-1.2799,-1.2649,-1.2526,-1.2361,-1.2117,-1.2008,-1.1904,-1.1879,-1.1747,-1.1632,-1.1612,-1.1638,-1.1571,-1.1662,-1.1806,-1.2085,-1.2415,-1.2916,-1.3318,-1.3794,-1.4015,-1.447,-1.4897,-1.5183,-1.5385,-1.5763,-1.6078,-1.6202,-1.6435,-1.6546,-1.6571,-1.6683,-1.6836,-1.6912,-1.6853,-1.6885,-1.6864,-1.686,-1.6901,-1.6805,-1.668,-1.6717,-1.6775,-1.6857,-1.6754,-1.6777,-1.6752,-1.6795,-1.6785,-1.6703,-1.6602,-1.6582,-1.6641,-1.6686,-1.6524,-1.6527,-1.6526,-1.6672,-1.6572,-1.6552,-1.659,-1.6568,-1.6525,-1.6593,-1.6583,-1.6614,-1.6666,-1.6693,-1.674,-1.6721,-1.665,-1.6681,-1.6666,-1.6704,-1.6735,-1.6721,-1.6742,-1.6796,-1.6808,-1.6789,-1.6725,-1.6701,-1.6676,-1.6704,-1.6789,-1.6789,-1.676,-1.6783,-1.6725,-1.6718,-1.6667,-1.6674,-1.6787,-1.6832,-1.6829,-1.679,-1.6779,-1.6805,-1.6833,-1.6824,-1.6729,-1.671,-1.6802,-1.6825,-1.684,-1.6829,-1.6817,-1.6816,-1.6784,-1.6861,-1.6871,-1.6833,-1.6864,-1.6713,-1.6555,-1.6489,-1.6418,-1.6329,-1.6512,-1.6463,-1.6219,-1.613,-1.5861,-1.5823,-1.6049,-1.607,-1.6217,-1.6319,-1.6403,-1.6542,-1.6696,-1.6783,-1.6883,-1.6963,-1.6976,-1.6965,-1.7113,-1.7163,-1.7281,-1.7249,-1.7187,-1.7105,-1.7051,-1.7073,-1.7203,-1.7186,-1.7007,-1.6104,-1.4637,-1.322,-1.1966,-1.0141,-0.81094,-0.83579,-1.1887,-1.7207,-2.1901,-2.0996,-1.9518,-1.886,-1.7442,-1.693,-1.6385,-1.6192,-1.6111,-1.6235,-1.6221,-1.6198,-1.6127,-1.6124,-1.6084,-1.6011,-1.5901,-1.5927,-1.5946,-1.5935,-1.5829,-1.5707,-1.576,-1.5816,-1.5792,-1.5802,-1.5704,-1.565,-1.5649,-1.5754,-1.5651,-1.5662,-1.547,-1.5392,-1.5298,-1.5211,-1.503,-1.4951,-1.4846,-1.4775,-1.4634,-1.442,-1.422,-1.4116,-1.4022,-1.3991,-1.3733,-1.3488,-1.3325,-1.3139,-1.2938,-1.274,-1.2578,-1.2523,-1.2417,-1.2261,-1.217,-1.2039,-1.2029,-1.1965,-1.1939,-1.195,-1.1988,-1.2256,-1.2696,-1.2939,-1.3325,-1.3746,-1.4153,-1.4629,-1.5025,-1.5411,-1.572,-1.6102,-1.6396,-1.6652,-1.6775,-1.6817,-1.7038,-1.7142,-1.7239,-1.7216,-1.7283,-1.7256,-1.7271,-1.7274,-1.7253,-1.7233,-1.7246,-1.7215,-1.7181,-1.7227,-1.7166,-1.7093,-1.7131,-1.7184,-1.7166,-1.7119,-1.6987,-1.6989,-1.7026,-1.6994,-1.7026,-1.6992,-1.699,-1.6982,-1.697,-1.6947,-1.6856,-1.6905,-1.7012,-1.7053,-1.7023,-1.7015,-1.7038,-1.7091,-1.7132,-1.7154,-1.7166,-1.7003,-1.7049,-1.7061,-1.7226,-1.722,-1.7218,-1.7137,-1.7221,-1.7163,-1.7228,-1.7201,-1.7123,-1.7162,-1.7178,-1.7179,-1.718,-1.7268,-1.7307,-1.727,-1.7166,-1.7228,-1.7215,-1.7257,-1.7217,-1.7194,-1.7264,-1.7288,-1.7288,-1.7239,-1.7253,-1.7218,-1.7313,-1.7349,-1.7372,-1.7364,-1.7253,-1.7266,-1.7265,-1.7321,-1.7365,-1.7324,-1.7394,-1.7397,-1.7408,-1.7344,-1.7287,-1.7392,-1.7392,-1.7419,-1.7324,-1.7362,-1.7383,-1.7336,-1.7359,-1.7398,-1.7429,-1.7474,-1.74,-1.7347,-1.7401,-1.7391,-1.7401
