1.8327,1.8321,1.8401,1.8515,1.861,1.8688,1.8226,1.8431,1.8305,1.8532,1.866,1.853,1.8363,1.8314,1.8625,1.8422,1.8625,1.8645,1.8698,1.8451,1.8368,1.8649,1.8907,1.9068,1.9597,2.0584,2.1707,2.3202,2.4953,2.4601,2.1617,1.8505,1.6545,1.6588,1.6875,1.7475,1.8614,1.8655,1.887,1.8436,1.9022,1.8738,1.8661,1.8918,1.8915,1.8971,1.8834,1.9128,1.8893,1.9041,1.8953,1.8796,1.8478,1.894,1.8976,1.9222,1.9188,1.9104,1.8987,1.9367,1.9035,1.9134,1.9355,1.9213,1.9092,1.8885,1.9283,1.9297,1.9508,1.9542,1.952,1.9541,1.9744,1.9292,1.9706,1.9988,1.9812,1.9883,2.0201,2.0446,2.0157,2.0297,2.0517,2.0394,2.0473,2.0734,2.0651,2.0768,2.1037,2.0448,2.0767,2.0866,2.0578,2.0484,2.0401,2.0132,1.9959,1.9872,1.9691,1.9596,1.936,1.9394,1.9086,1.8714,1.8749,1.8898,1.8698,1.8736,1.9117,1.8852,1.8504,1.8742,1.8858,1.8459,1.8569,1.8412,1.8604,1.8681,1.8725,1.8747,1.8414,1.8477,1.8666,1.848,1.8395,1.87,1.8634,1.8483,1.8367,1.8567,1.8549,1.8446,1.8385,1.8211,1.8516,1.8489,1.8765,1.8802,1.8374,1.8615,1.8496,1.8525,1.8717,1.8607,1.8543,1.8474,1.8615,1.844,1.8438,1.8683,1.8663,1.8434,1.8656,1.8625,1.8775,1.8684,1.9019,1.8934,1.8757,1.8729,1.8909,1.8909,1.8812,1.8798,1.9067,1.926,1.8911,1.8625,1.8892,1.9023,1.8812,1.8155,1.8142,1.8331,1.817,1.8387,1.8263,1.8112,1.8108,1.7966,1.8136,1.838,1.7955,1.8344,1.7891,1.8162,1.8052,1.8134,1.8085,1.8142,1.8159,1.8017,1.7874,1.8342,1.8065,1.8264,1.8431,1.8633,1.9055,1.9571,2.0837,2.2076,2.3727,2.445,2.3494,2.1159,1.8408,1.7,1.6698,1.6862,1.7197,1.7967,1.8371,1.855,1.8453,1.8349,1.8726,1.8468,1.8498,1.8764,1.8586,1.8669,1.856,1.844,1.8453,1.8699,1.891,1.8747,1.8656,1.8546,1.8833,1.8878,1.8838,1.8578,1.8877,1.8926,1.9039,1.921,1.8815,1.9096,1.9235,1.8933,1.919,1.9267,1.9253,1.9393,1.9299,1.9497,1.952,1.9366,1.9682,1.9726,1.9398,1.9596,2.0306,1.9924,2.0158,2.0337,2.0299,2.0268,2.0338,2.0647,2.064,2.0662,2.0544,2.0527,2.0442,2.0231,2.0144,1.9937,2.0353,2,1.9491,1.9533,1.933,1.911,1.9124,1.8621,1.8666,1.8665,1.8559,1.85,1.8638,1.8433,1.8472,1.8703,1.8763,1.8548,1.8468,1.854,1.8426,1.8466,1.8943,1.7983,1.8412,1.8568,1.8287,1.8469,1.836,1.871,1.8225,1.8488,1.8632,1.8181,1.8596,1.864,1.8255,1.8778,1.8509,1.8343,1.8448,1.8484,1.8331,1.8446,1.8479,1.8656,1.857,1.859,1.8186,1.8105,1.8281,1.8434,1.8278,1.8582,1.839,1.8442,1.8594,1.8968,1.8796,1.8836,1.8786,1.91,1.8663,1.8506,1.8808,1.9048,1.8935,1.8961,1.8832,1.8921,1.8708,1.8507,1.8218,1.8535,1.841,1.807,1.7963,1.8166,1.8393,1.7607,1.8363,1.8262,1.816,1.8032,1.7665,1.7979,1.8147,1.7859,1.8004,1.8222,1.7847,1.782,1.7634,1.7778,1.7811,1.7768,1.8015,1.8103,1.8202,1.8138,1.8186,1.8429,1.897,1.9759,2.0937,2.2296,2.4,2.4182,2.2095,1.9006,1.6466,1.5955,1.6345,1.6902,1.7432,1.8067,1.8256,1.8239,1.8573,1.8108,1.8313,1.8273,1.8533,1.8527,1.8494,1.8314,1.8475,1.8703,1.8409,1.838,1.858,1.8704,1.8791,1.8674,1.87,1.8624,1.8599,1.8574,1.855,1.8829,1.8949,1.8408,1.8892,1.9212,1.8936,1.8743,1.8921,1.8966,1.8973,1.9116,1.9344,1.9553,1.9572,1.935,1.9733,1.9562,1.9637,1.9888,2.0079,1.9862,2.0014,2.0063,2.0018,2.0454,2.0493,2.0231,2.0497,2.0623,2.0396,2.0282,2.0224,1.994,1.9667,1.9753,1.9689,1.9867,1.9903,1.9385,1.9217,1.8464,1.8669,1.9269,1.856,1.8614,1.8702,1.8724,1.8291,1.8418,1.8538,1.8551,1.848,1.8525,1.8346,1.8203,1.8204,1.8319,1.8431,1.8515,1.838,1.8288,1.8103,1.8551,1.8507,1.827,1.8376,1.8713,1.8743,1.841,1.8512,1.8349,1.8221,1.86,1.8512,1.8349,1.854,1.8847,1.869,1.8467,1.8373,1.8366,1.8474,1.8534,1.8432,1.8428,1.8478,1.8566,1.8237,1.8157,1.8524,1.8557,1.841,1.8608,1.8409,1.8763,1.8563,1.8451,1.8807,1.8807,1.8939,1.9215,1.9011,1.8783,1.9245,1.8895,1.9122,1.8614,1.8929,1.9124,1.8808,1.8589,1.8577,1.8703,1.8435,1.819,1.8226,1.841,1.8251,1.7934,1.8098,1.8231,1.8219,1.799,1.7893,1.8313,1.8069,1.7826,1.831,1.7881,1.804,1.8338,1.8205,1.8374,1.777,1.8002,1.8191,1.827,1.7959,1.8083,1.8431,1.8693,1.8661,1.9676,2.0846,2.2498,2.3687,2.4688,2.2955,1.9321,1.6417,1.6406,1.6634,1.6683,1.7784,1.8413,1.8491,1.8337,1.8495,1.8925,1.847,1.8405,1.857,1.8422,1.8464,1.8329,1.872,1.8561,1.8713,1.8635,1.8416,1.8656,1.8681,1.8796,1.8532,1.8395,1.8731,1.8669,1.8893,1.8825,1.8606,1.8632,1.9152,1.8881,1.9082,1.8984,1.8999,1.9116,1.8904,1.9486,1.9284,1.8905,1.9321,1.9283,1.9657,1.9795,1.9616,1.9681,1.9847,1.9987,2.0327,2.0295,1.9919,2.0023,2.0296,2.0252,2.0671,2.0623,2.0404,2.051,2.0475,2.0071,2.0103,2.0022,2.0244,1.9655,1.9314,1.9196,1.9106,1.8962,1.8812,1.8872,1.8785,1.8508,1.8372,1.8524,1.8739,1.8373,1.8109,1.8501,1.844,1.8245,1.8286,1.8758,1.8349,1.8178,1.8356,1.8454,1.845,1.8463,1.8464,1.8096,1.8226,1.8535,1.8493,1.8398,1.8484,1.8421,1.8322,1.8333,1.8588,1.8468,1.819,1.8254,1.8629,1.8516,1.817,1.8468,1.8532,1.8594,1.8436,1.823,1.8506,1.8624,1.8316,1.8362,1.8397,1.8637,1.8527,1.7941,1.8073,1.8776,1.874,1.7788,1.841,1.8335,1.8289,1.8359,1.8288,1.829,1.8045,1.838,1.8495,1.8442,1.8388,1.8412,1.8519,1.8921,1.9052,1.8774,1.8767,1.8482,1.9104,1.9452,1.896,1.9017,1.8685,1.8598,1.865,1.8821,1.8231,1.8344,1.8158,1.8134,1.8344,1.807,1.7955,1.8195,1.7945,1.7917,1.8205,1.7786,1.7967,1.8352,1.8255,1.7642,1.7865,1.8203,1.8072,1.8003,1.7875,1.8176,1.8076,1.7886,1.7816,1.8065,1.8201,1.8148,1.82,1.8412,1.8694,1.9906,2.0497,2.2259,2.4,2.4682,2.2743,1.935,1.7867,1.6352,1.6267,1.6515,1.7551,1.8428,1.8256,1.8288,1.8446,1.8382,1.8404,1.8667,1.8307,1.8398,1.8773,1.8446,1.8336,1.8394,1.8491,1.8685,1.8642,1.8834,1.877,1.865,1.8759,1.8812,1.8965,1.8694,1.8953,1.8882,1.8824,1.8932,1.8933,1.8711,1.8822,1.8876,1.8997,1.9058,1.9246,1.9432,1.9226,1.9256,1.9156,1.9616,2.0025,1.9698,1.9832,2.0233,1.9903,2.012,2.0235,2.0331,2.0627,2.0531,2.0547,2.0546,2.0665,2.082,2.0459,2.0774,2.0722,2.0477,2.0561,2.0208,2.0161,1.9707,1.9866,1.9875,1.9383,1.9033,1.9072,1.8971,1.9012,1.9037,1.8705,1.8607,1.8818,1.8861,1.8682,1.8756,1.8767,1.8734,1.8428,1.8846,1.8647,1.8399,1.8736,1.8787,1.8654,1.8461,1.8256,1.8522,1.8742,1.8858,1.8916,1.8779,1.8468,1.8512,1.8815,1.8798,1.856,1.8469,1.88,1.8904,1.8541,1.8584,1.8746,1.8986,1.8878,1.8861,1.8757,1.8868,1.878,1.8823,1.8661,1.8315,1.8711,1.8618,1.8694,1.9018,1.8737,1.8478,1.8861,1.9014,1.8757,1.8632,1.8603,1.8525,1.852,1.8426,1.88,1.8721,1.8604,1.8934,1.911,1.8554,1.9212,1.9293,1.9222,1.9572,1.9257,1.886,1.9125,1.9475,1.9379,1.9318,1.9352,1.9339,1.9138,1.9418,1.8808,1.8779,1.8821,1.8328,1.8295,1.863,1.838,1.8496,1.8636,1.8808,1.7985,1.825,1.8485,1.8509,1.8578,1.8359,1.8566,1.8395,1.8266,1.8468,1.8509,1.8409,1.8508,1.8749,1.8656,1.8408,1.8361,1.8447,1.8692,1.8753,1.9374,1.979,2.0713,2.2205,2.3096,2.5051,2.4375,2.0863,1.7776,1.6665,1.6763,1.7083,1.792,1.873,1.9241,1.8825,1.9093,1.8695,1.8722,1.8997,1.9139,1.883,1.8942,1.8887,1.9013,1.8849,1.8977,1.8904,1.9239,1.8811,1.8901,1.9022,1.9014,1.9204,1.9231,1.9026,1.9283,1.9334,1.9087,1.9279,1.9567,1.9667,1.9595,1.9639,1.9526,1.9459,1.9664,1.9524,1.9663,1.9801,1.977,1.9591,2.0041,1.9943,1.9913,2.0222,2.0544,2.0395,2.054,2.0802,2.0479,2.074,2.0757,2.0952,2.108,2.0986,2.0827,2.0973,2.0936,2.0828,2.1136,2.0766,2.0229,2.0023,1.9997,1.9909,1.9645,1.9609,1.9577,1.9004,1.9264,1.9177,1.8948,1.8893,1.901,1.9178,1.89,1.8983,1.8988,1.9104,1.8464,1.8675,1.8813,1.8805,1.869,1.8925,1.8768,1.8959,1.8889,1.8676,1.8578,1.8933,1.8889,1.8973,1.8735,1.8584,1.8875,1.8563,1.8585,1.8932,1.8822,1.8862,1.8615,1.8707,1.8691,1.8978,1.88,1.8851,1.8712,1.8789,1.8747,1.8303,1.8085,1.8717,1.8573,1.8968,1.8858,1.8891,1.8774,1.8738,1.875,1.8816,1.8617,1.8673,1.839,1.8605,1.8501,1.8863,1.8616,1.8512,1.8746,1.8479,1.8706,1.9239,1.9336,1.9155,1.8789,1.9029,1.9253,1.9149,1.9337,1.9252,1.9195,1.8896,1.922,1.8721,1.8837,1.8592,1.8614,1.8545,1.8581,1.8263,1.8343,1.8159,1.845,1.8345,1.8144,1.8438,1.8187,1.8104,1.8132,1.779,1.8644,1.8377,1.8154,1.8115,1.8194,1.8421,1.8074,1.808,1.8494,1.8363,1.8467,1.8341,1.8309,1.8757,1.9035,1.9451,2.1043,2.2423,2.3968,2.4482,2.174,1.8927,1.7254,1.6505,1.6667,1.7132,1.7787,1.8407,1.8655,1.8799,1.8647,1.8429,1.8557,1.8536,1.8862,1.8478,1.8786,1.8663,1.8754,1.8487,1.872,1.8592,1.8495,1.8704,1.8775,1.8619,1.8657,1.8398,1.8648,1.8794,1.8912,1.861,1.8758,1.9042,1.882,1.9171,1.8912,1.9091,1.9252,1.92,1.9108,1.9071,1.9333,1.9422,1.922,1.9443,1.9257,1.9565,1.9912,1.9698,2.0009,1.9948,2.0012,2.02,2.031,2.0352,2.0401,2.0394,2.0137,2.0431,2.0502,2.0434,2.026,2.0171,2.0095,1.9976,1.969,1.9463,1.9319,1.9238,1.9047,1.9261,1.9069,1.8937,1.8459,1.8641,1.859,1.8636,1.8366,1.8361,1.8342,1.8316,1.8322,1.8192,1.8595,1.816,1.8124,1.8229,1.8119,1.8173,1.8152,1.8222,1.8042,1.8149,1.8454,1.844,1.8391,1.8432,1.8098,1.8203,1.8091,1.8176,1.821,1.794,1.786,1.8384,1.8598,1.8478,1.848,1.8046,1.8555,1.871,1.8387,1.8496,1.8817,1.8578,1.8361,1.8629,1.8609,1.836,1.856,1.8585,1.8268,1.8224,1.8646,1.9017,1.8436,1.8899,1.9017,1.8515,1.8708,1.8788,1.8669,1.8983,1.8895,1.8824,1.8768,1.8798,1.8721,1.9027,1.8681,1.8359,1.8016,1.8433,1.8119,1.789,1.8355,1.8269,1.7967,1.7895,1.802,1.7922,1.8295,1.8362,1.829,1.8042,1.7475,1.7614,1.757,1.8432,1.8576,1.8334,1.836,1.832,1.775,1.8077,1.8557,1.878,1.9207,1.9973,2.1183,2.1914,2.3671,2.449,2.2829,1.9462,1.6661,1.6154,1.5905,1.6458,1.7378,1.7915,1.858,1.8546,1.817,1.8216,1.8775,1.8401,1.8186,1.7989,1.8294,1.8405,1.8427,1.8506,1.8562,1.8546,1.8265,1.8551,1.8712,1.8594,1.889,1.8562,1.868,1.8423,1.8612,1.8629,1.8949,1.8875,1.8893,1.8814,1.8965,1.8564,1.8599,1.8987,1.9446,1.9104,1.9353,1.9288,1.9107,1.9592,1.9383,1.9601,1.9171,1.9529,2.0057,1.9881,1.986,2.0051,2.0037,1.9958,2.0249,2.042,2.0562,1.999,2.0312,2.0488,2.0228,2.0081,2.0257,1.9957,1.9725,1.8943,1.9353,1.9275,1.899,1.9007,1.8874,1.8799,1.8512,1.859,1.8151,1.8127,1.8388,1.8486,1.8177,1.8345,1.8378,1.8402,1.8307,1.8367,1.8232,1.8143,1.8243,1.7989,1.8421,1.8453,1.8126,1.8314,1.8226,1.7985,1.8538,1.8553,1.8363,1.848,1.8329,1.8332,1.8021,1.8091,1.8227,1.8332,1.8328,1.7811,1.801,1.8759,1.8335,1.8193,1.8171,1.8361,1.8372,1.8122,1.8434,1.8768,1.8532,1.8381,1.8314,1.873,1.8532,1.8746,1.8821,1.9037,1.8511,1.8846,1.8897,1.8988,1.9007,1.8965,1.8978,1.8252,1.8614,1.8784,1.8625,1.862,1.8424,1.8227,1.8057,1.8093,1.7924,1.7881,1.7735,1.7861,1.7822,1.8077,1.7914,1.7751,1.7614,1.7537,1.78,1.7403,1.7607,1.8156,1.8006,1.7652,1.7648,1.7889,1.7897,1.781,1.801,1.7815,1.8191,1.8753,1.9328,2.0551,2.1681,2.3748,2.4336,2.209,1.8801,1.6189,1.5788,1.6393,1.6813,1.758,1.7857,1.7728,1.8178,1.8191,1.8355,1.8275,1.8349,1.8215,1.7933,1.8329,1.83,1.8332,1.8335,1.8399,1.8516,1.7922,1.8216,1.8235,1.8498,1.8516,1.8413,1.8469,1.8456,1.8633,1.8553,1.8408,1.8819,1.8945,1.8588,1.8904,1.8694,1.8686,1.869,1.8736,1.8941,1.9301,1.9035,1.9262,1.9466,1.9444,1.9552,1.9553,1.9644,1.9237,1.9757,2.022,2.0151,2.0146,2.0361,2.0375,2.0094,2.011,2.0111,2.0397,2.029,2.0045,2.0315,2.0003,1.982,1.9907,1.9586,1.9267,1.9257,1.9166,1.9042,1.8914,1.8937,1.8578,1.88,1.8139,1.8202,1.8643,1.8368,1.8718,1.8589,1.8326,1.8519,1.8068,1.8118,1.8305,1.8401,1.8372,1.827,1.8389,1.8274,1.8401,1.8475,1.7874,1.8855,1.8268,1.8384,1.8468,1.845,1.8343,1.8123,1.8571,1.8382,1.8398,1.8465,1.839,1.822,1.838,1.8136,1.8488,1.8471,1.8665,1.8404,1.8715,1.8575,1.8281,1.8361,1.8527,1.883,1.8965,1.8926,1.9209,1.9046,1.8882,1.8927,1.8951,1.9027,1.9225,1.9271,1.8736,1.8937,1.913,1.8588,1.8665,1.8585,1.8168,1.8146,1.8381,1.8229,1.8159,1.8142,1.8153,1.819,1.8194,1.8197,1.8176,1.8184,1.82,1.822,1.7987,1.7915,1.8415,1.8201,1.8126,1.8378,1.841,1.8283,1.8087,1.8378,1.7981,1.8261,1.8708,1.9658,2.1002,2.173,2.3451,2.4658,2.4643,2.1633,1.8364,1.6861,1.6549,1.663,1.7424,1.8132,1.8437,1.8779,1.8851,1.8553,1.8585,1.8792,1.8492,1.8568,1.8449,1.8561,1.8882,1.8759,1.8867,1.8476,1.8862,1.8982,1.8301,1.8926,1.9146,1.9249,1.8875,1.8888,1.9005,1.8963,1.8709,1.8813,1.9179,1.9373,1.9292,1.9372,1.9277,1.9154,1.9163,1.9622,1.9595,1.9656,1.9774,1.9853,1.9741,1.9681,1.9839,2.0154,2.0044,1.987,2.0524,2.057,2.0816,1.9943,2.0757,2.0911,2.0675,2.0795,2.0789,2.0834,2.0353,2.066,2.044,2.0307,2.0089,2.0076,1.9869,1.9511,1.9511,1.9299,1.9207,1.889,1.9057,1.9251,1.8979,1.8799,1.8827,1.8808,1.8596,1.8747,1.8749,1.8649,1.8618,1.8701,1.866,1.8843,1.8606,1.8743,1.8862,1.8768,1.8508,1.8457,1.8497,1.8793,1.8923,1.8903,1.8721,1.8436,1.8544,1.8848,1.8978,1.8965,1.8824,1.8693,1.866,1.8785,1.8983,1.8958,1.8893,1.8756,1.8979,1.853,1.8975,1.8908,1.8763,1.9086,1.8965,1.9014,1.8969,1.9038,1.8998,1.8993,1.9233,1.9476,1.9179,1.9312,1.8771,1.9466,1.9747,1.9435,1.9296,1.963,1.9072,1.8924,1.9145,1.9051,1.9175,1.8627,1.841,1.8432,1.86,1.867,1.8854,1.8594,1.8628,1.8117,1.8377,1.85,1.8504,1.8462,1.8243,1.8462,1.8264,1.843,1.8525,1.8416,1.8421,1.8418,1.8553,1.8532,1.8662,1.8638,1.8505,1.8635,1.8971,1.9444,2.0002,2.1372,2.2538,2.3928,2.498,2.242,1.9813,1.7277,1.6949,1.6934,1.7068,1.8104,1.8894,1.9005,1.8617,1.887,1.9094,1.9284,1.9234,1.9147,1.8974,1.9123,1.9062,1.8884,1.8701,1.9099,1.9109,1.9031,1.9049,1.9123,1.9374,1.9621,1.9203,1.9061,1.9318,1.9602,1.9245,1.9232,1.9623,1.9547,1.9153,1.9615,1.9764,1.9662,1.971,1.9987,1.9987,1.9628,1.9939,2.0064,1.997,2.0149,2.0702,2.0587,2.0299,2.0456,2.0665,2.0816,2.0274,2.085,2.1249,2.0724,2.1025,2.1105,2.1069,2.1107,2.0868,2.1041,2.0995,2.0742,2.044,2.0348,2.0339,2.0132,2.0131,1.9814,1.9613,1.9477,1.9237,1.8808,1.9522,1.9485,1.917,1.9266,1.9348,1.9402,1.9303,1.9155,1.9253,1.8894,1.8948,1.8971,1.8876,1.8951,1.9007,1.9129,1.8953,1.9018,1.9067,1.8722,1.9471,1.9057,1.8947,1.9329,1.9299,1.9026,1.9179,1.9486,1.9286,1.9293,1.9404,1.9165,1.8871,1.9312,1.9398,1.9382,1.9495,1.9465,1.9379,1.9938,1.9112,1.9098,1.9701,1.9588,1.957,1.9775,1.9897,1.9833,1.9994,1.9911,1.9597,1.9768,1.9649,1.9678,1.9813,1.9669,1.9476,1.9763,1.9831,1.9041,1.9296,1.9153,1.9203,1.9011,1.9004,1.9147,1.8957,1.8989,1.922,1.8994,1.8679,1.8675,1.8928,1.9083,1.895,1.887,1.9204,1.8902,1.8982,1.8997,1.8717,1.93,1.9088,1.9316,1.9067,1.8918,1.9268,1.9667,1.9953,2.0905,2.1999,2.3493,2.4796,2.5265,2.4332,2.1078,1.8118,1.714,1.7419,1.7776,1.8718,1.9115,1.9521,1.9936,1.9373,1.9305,1.9675,1.9466,1.9038,1.9307,1.9695,1.9498,1.9607,1.9618,1.931,1.9691,1.978,1.9953,1.9602,1.9749,1.9812,1.9944,1.961,1.9511,1.9906,2.016,2.0022,2.0062,1.9956,1.9847,1.9739,2.0108,1.9946,2.0129,2.0393,2.024,2.0402,2.0865,2.0503,2.0427,2.0515,2.1009,2.0879,2.0876,2.0998,2.1399,2.1264,2.153,2.1449,2.1243,2.1351,2.1317,2.1673,2.1581,2.1524,2.1627,2.1565,2.1323,2.1321,2.1208,2.1203,2.0484,2.0256,2.038,2.0203,2.0208,2.0301,2.0042,2.0049,1.9834,1.9926,1.9848,1.9354,1.9954,1.9594,1.9092,1.9633,1.9856,1.9787,1.9402,1.9703,1.9935,1.9727,1.9191,1.9618,1.9763,1.997,1.9622,1.9764,1.9472,1.966,1.9839,1.9782,1.9567,1.9951,1.9484,1.9759,1.995,1.9826,1.9796,1.9777,1.9602,1.9574,1.9393,1.9852,2.0109,1.9641,1.9588,1.9646,1.9866,2.0025,2.0125,1.9781,1.919,1.9741,1.9918,1.9939,2.0676,2.078,2.0698,2.0271,2.0484,2.0449,2.0515,2.0529,2.0277,2.032,2.0181,1.996,2.0353,2.0225,2.0168,1.9942,1.9405,1.9299,1.9509,1.9095,1.9499,1.978,1.9721,1.9432,1.9498,1.9627,1.9546,1.9874,1.9676,1.9515,1.9578,1.9853,1.9802,1.9693,1.9341,1.9666,1.9796,1.9778,1.9459,1.9608,1.9788,1.9756,2.0203,2.075,2.1359,2.2422,2.3919,2.568,2.6265,2.3772,2.0576,1.8048,1.8055,1.829,1.8559,1.9434,2.0207,2.0235,1.9964,2.0035,2.0404,1.9776,2.0226,2.0353,2.0128,2.0422,2.0121,2.0475,2.002,2.0114,2.0475,2.046,1.982,2.0018,2.0548,2.0499,2.0282,2.0761,2.0552,2.0603,2.0367,2.0345,2.0289,2.0712,2.0984,2.0759,2.0673,2.0753,2.0965,2.1307,2.0997,2.0967,2.1339,2.1185,2.0857,2.1397,2.1498,2.1574,2.1804,2.1722,2.2054,2.1926,2.2306,2.2019,2.2349,2.2384,2.2385,2.2263,2.2294,2.2402,2.2179,2.2194,2.2169,2.2158,2.2032,2.1613,2.1504,2.1531,2.1529,2.1068,2.0983,2.0935,2.1019,2.0674,2.0466,2.0929,2.0499,2.0372,2.036,2.0651,2.0385,2.0585,2.0545,2.0267,2.0535,2.0166,2.0293,2.0141,2.041,2.0438,2.0395,2.046,2.0568,2.0423,2.073,2.0365,2.0664,2.0402,2.0243,2.0793,2.0449,2.0576,2.0524,2.0556,2.0376,2.0069,2.0451,2.036,2.037,2.0317,2.025,2.0229,2.0279,2.0358,2.0525,2.1025,2.0816,2.0582,2.0359,2.048,2.0763,2.0743,2.0521,2.0535,2.0669,2.0902,2.0975,2.0627,2.0949,2.0708,2.0703,2.1268,2.1005,2.0745,2.1137,2.0809,2.0809,2.086,2.0563,2.0504,2.0573,2.0297,2.0362,2.023,2.0296,2.0311,1.9961,2.0046,2.0084,2.004,2.0106,2.0189,2.0202,2.0287,2.0021,2.0005,2.0392,2.0039,1.9962,2.0056,2.0171,2.032,2.0494,2.0223,2.0369,2.0042,2.0319,2.1097,2.0998,2.1704,2.3197,2.42,2.5594,2.6868,2.4781,2.1538,1.8385,1.7881,1.8204,1.8936,1.9902,2.0002,2.0428,2.0808,2.031,2.0308,2.0253,2.0752,2.0588,2.0464,2.0459,2.0636,2.0228,2.0678,2.0518,2.0558,2.0541,2.0596,2.0629,2.0321,2.041,2.0686,2.0828,2.06,2.0507,2.0542,2.0712,2.0754,2.0531,2.0401,2.1082,2.085,2.083,2.1015,2.1064,2.0886,2.1491,2.1315,2.1127,2.1239,2.1747,2.1684,2.1764,2.1732,2.1764,2.1809,2.1972,2.2072,2.2172,2.2181,2.2258,2.1993,2.2247,2.2538,2.2147,2.2328,2.2075,2.184,2.1982,2.1814,2.1,2.0924,2.0405,2.1059,2.0977,2.0994,2.061,2.0597,2.0698,2.0273,2.0314,2.0167,2.0645,2.0461,2.0374,2.0168,2.0088,2.0078,2.0135,2.0236,1.9932,1.9709,2.0033,2.0037,2.005,1.9809,2.0161,2.0044,2.0358,2.0473,2.026,2.0053,1.9797,2.0203,2.0221,2.0226,2.0061,2.0018,1.9966,1.9713,1.9797,2.002,2.0163,2.0149,1.9988,1.9866,1.9906,1.9323,2.0213,2.006,1.9899,2.0031,1.9904,2.0013,2.0185,2.0117,1.9894,2.0188,1.9741,1.9753,1.9518,2.0071,1.9869,2.0395,2.048,2.0576,2.0395,2.0414,2.0269,2.01,2.0233,2.0335,2.0309,2.0319,2.0393,2.0422,2.0188,1.9832,2.0004,1.9904,2.01,1.9521,1.9148,1.9543,1.9687,1.9671,1.9293,1.9525,1.9637,1.962,1.9652,1.9584,1.9481,1.9441,1.9512,1.9452,1.9323,1.9418,1.9627,1.9645,1.9924,1.9302,1.9267,1.9193,1.9404,1.9692,1.9585,2.0071,2.0672,2.1525,2.2179,2.3654,2.5295,2.5639,2.3776,2.1225,1.8504,1.7861,1.7813,1.8511,1.9088,2.0002,1.9771,2.0148,2.0234,1.9752,2.0019,1.9792,2.0113,1.9722,1.9566,1.9618,2.0088,1.9971,1.9933,2.0135,2.0025,1.9879,1.9982,1.9794,2.014,2.0348,1.9992,2.0221,2.0154,2.0215,2.0323,2.0315,2.0576,2.0505,2.0403,1.9973,2.0678,2.0865,2.0875,2.0645,2.1052,2.0562,2.0838,2.0921,2.1297,2.1201,2.1033,2.1482,2.1477,2.1199,2.1732,2.1528,2.1593,2.1779,2.1887,2.1644,2.1875,2.2064,2.1982,2.2052,2.18,2.1758,2.1398,2.1503,2.1288,2.1159,2.1148,2.0831,2.0815,2.0648,2.0104,2.0111,1.9743,1.9998,2.0035,2.0082,2.0057,2.0061,1.9981,1.9514,1.9667,1.9835,1.9571,1.9703,1.9641,1.9572,1.9649,1.9637,2.0085,1.9838,1.9768,1.9812,1.9903,1.9917,1.9684,1.9893,1.9822,1.9505,1.947,1.9908,1.9831,1.9921,1.9348,1.9705,1.9907,1.9567,1.9596,1.9532,1.9878,2.0254,1.9851,1.9148,1.9484,2.0294,1.9966,1.9938,2.0002,1.9791,1.9829,2.0093,2.0319,2.0359,2.0296,2.0324,1.9974,2.0029,2.0137,2.0805,2.023,2.0264,2.0458,2.0263,1.9713,1.9951,2.0098,1.9684,1.9804,1.9651,1.9725,1.9561,1.9401,1.9603,1.9624,1.9352,1.9176,1.9396,1.9564,1.9516,1.9541,1.939,1.8974,1.9253,1.9751,1.9335,1.8859,1.8935,1.9475,1.9126,1.9499,1.9766,1.9658,1.982,2,2.0168,2.1234,2.2004,2.3674,2.5135,2.5572,2.2729,2.0049,1.8144,1.7988,1.8276,1.8465,1.8499,1.9175,1.984,1.9493,1.9383,2.0034,2.0386,2.0077,2.0145,1.9741,1.9564,1.9895,1.9653,1.9935,1.9925,1.9729,2.0161,2.004,1.9868,1.9637,2.0246,2.0254,2.0181,1.9837,1.9984,2.019,2.0326,2.018,2.0657,2.0282,2.0142,2.0496,2.0282,2.0714,2.0558,2.0346,2.0826,2.0572,2.0908,2.0814,2.0778,2.1052,2.1108,2.1143,2.1402,2.1372,2.1552,2.1252,2.1751,2.1681,2.1726,2.1863,2.1784,2.1943,2.1874,2.1795,2.1548,2.183,2.1325,2.0897,2.0836,2.055,2.0725,2.097,2.0595,2.0515,2.0306,1.9727,1.9747,2.0046,1.9878,1.9812,1.9907,1.9868,1.9614,1.9856,1.9892,1.9658,1.9753,1.9721,1.9878,1.9726,1.9628,1.9707,2.0021,1.9512,1.9646,1.9962,1.9982,2.0092,1.9676,1.9828,1.9395,1.9606,2.014,2.0074,1.981,1.9828,1.9891,1.9634,1.9691,2.017,1.9715,1.9628,1.985,1.9965,1.981,1.9906,1.9319,1.9777,1.9969,1.9791,2.0213,2.0294,1.9945,2.017,2.0587,2.0773,2.0587,2.0346,2.0184,2.0181,2.0586,2.0531,2.0298,2.0499,2.0124,2.0222,2.0183,1.9906,1.9854,1.9508,1.9496,1.9906,1.9635,1.9749,1.9195,1.8966,1.9558,1.9569,1.912,1.8895,1.9311,1.9823,1.9776,1.9448,1.9553,1.9492,1.9673,1.9459,1.9504,1.9732,1.9465,1.9397,1.9941,1.9496,2.0103,2.0049,2.0619,2.1118,2.2329,2.3319,2.52,2.5706,2.3414,2.0161,1.7677,1.7532,1.7601,1.7763,1.9024,1.9604,1.9184,1.9391,1.9427,1.9341,1.9313,1.9616,1.9137,1.9696,1.9992,1.9742,1.9644,1.9472,1.93,1.9145,1.9268,1.9255,1.9079,1.8851,1.8546,1.8684,1.8865,1.8935,1.9052,1.9069,1.9015,1.9093,1.9286,1.8791,1.8656,1.8647,1.9108,1.9901,2.0289,2.0378,2.0802,2.0673,2.0821,2.1063,2.1235,2.107,2.1303,2.1319,2.1452,2.13,2.1393,2.2063,2.2101,2.2143,2.2271,2.2356,2.2553,2.2695,2.2586,2.2501,2.243,2.2363,2.2289,2.2232,2.1974,2.2102,2.1777,2.1288,2.0914,2.0647,2.0853,2.0805,2.053,2.0557,2.0463,2.0304,2.044,2.062,2.0372,2.0598,2.0681,2.0688,2.0786,2.1048,2.0968,2.0846,2.0925,2.1227,2.1493,2.1483,2.1638,2.1825,2.25,2.25,2.2238,2.2099,2.1702,2.1552,2.1266,2.0931,2.0408,2.0545,2.0418,2.0184,1.9873,1.9702,1.9834,1.9659,1.9763,1.9947,1.9905,2.0153,2.0406,2.0466,2.0743,2.0639,2.0532,2.0964,2.1093,2.1292,2.1264,2.1373,2.1157,2.1368,2.1887,2.2081,2.2023,2.1876,2.1803,2.1692,2.1715,2.1765,2.1672,2.1354,2.1253,2.1609,2.1608,2.1442,2.1522,2.1998,2.1818,2.1524,2.1696,2.1788,2.1834,2.1878,2.1931,2.1821,2.1885,2.201,2.1918,2.1812,2.1922,2.1903,2.1742,2.1915,2.1876,2.191,2.2068,2.2212,2.2539,2.3555,2.4848,2.6002,2.7796,2.8527,2.6272,2.245,2.0003,1.9697,2.0152,2.1198,2.2274,2.259,2.2594,2.2423,2.2484,2.2948,2.2767,2.2631,2.26,2.2852,2.3065,2.2993,2.3024,2.2879,2.3008,2.3023,2.3315,2.3321,2.3445,2.3461,2.33,2.301,2.3314,2.3338,2.3439,2.3631,2.3761,2.3758,2.3996,2.3922,2.3811,2.4004,2.4159,2.4186,2.4165,2.4312,2.4347,2.4418,2.4244,2.445,2.4271,2.4245,2.429,2.4148,2.4175,2.4468,2.4365,2.425,2.4454,2.4281,2.419,2.4432,2.4228,2.4241,2.44,2.4144,2.4133,2.3925,2.3783,2.3773,2.3521,2.3404,2.3508,2.3194,2.3293,2.3207,2.2682,2.2913,2.3447,2.3225,2.3175,2.306,2.2948,2.2976,2.3053,2.2876,2.3022,2.2949,2.2757,2.2838,2.2997,2.2912,2.3328,2.2865,2.2897,2.282,2.2715,2.2695,2.3054,2.32,2.2953,2.2995,2.2962,2.2949,2.2724,2.2889,2.282,2.3158,2.3021,2.3072,2.2949,2.3039,2.2861,2.2737,2.2694,2.2952,2.3031,2.2956,2.3202,2.3246,2.3528,2.3326,2.3466,2.3478,2.3182,2.3412,2.3483,2.3649,2.3574,2.349,2.3228,2.3083,2.3305,2.3126,2.3071,2.2643,2.2636,2.2562,2.2515,2.2315,2.2474,2.2753,2.2433,2.2499,2.2469,2.2623,2.2475,2.2534,2.2531,2.2584,2.2767,2.2755,2.2621,2.2412,2.2382,2.2609,2.2658,2.2585,2.2639,2.2549,2.2731,2.2759,2.2966,2.3782,2.4878,2.6048,2.6845,2.8362,2.7724,2.4861,2.1687,2.1134,2.0727,2.0911,2.1708,2.2128,2.2903,2.2925,2.2887,2.2657,2.2777,2.278,2.2926,2.3129,2.2636,2.306,2.2948,2.2731,2.3046,2.3116,2.303,2.2972,2.3088,2.2957,2.3079,2.3211,2.3139,2.3294,2.3174,2.3044,2.3437,2.3325,2.3206,2.3173,2.3346,2.3276,2.3406,2.3694,2.3681,2.3378,2.3392,2.3808,2.3927,2.4034,2.4081,2.4016,2.4143,2.4152,2.4198,2.4568,2.4392,2.457,2.4684,2.4907,2.503,2.472,2.4987,2.473,2.496,2.491,2.4786,2.4475,2.4611,2.4714,2.439,2.4164,2.4061,2.3902,2.3884,2.3667,2.3289,2.3289,2.3162,2.342,2.3281,2.3125,2.2994,2.3116,2.3085,2.311,2.3057,2.2931,2.2903,2.3053,2.3281,2.3094,2.3134,2.3142,2.3361,2.3147,2.3051,2.3204,2.312,2.3137,2.3056,2.3133,2.3039,2.3035,2.3262,2.3263,2.3019,2.3046,2.3282,2.2814,2.3085,2.3315,2.3504,2.3507,2.3548,2.3414,2.3703,2.3687,2.3845,2.3947,2.3671,2.3632,2.3627,2.3868,2.3925,2.3767,2.3724,2.3977,2.3652,2.3845,2.3495,2.3368,2.3413,2.3342,2.3234,2.3126,2.3022,2.3229,2.3017,2.3057,2.2952,2.3055,2.3094,2.3006,2.285,2.2823,2.3279,2.32,2.3195,2.3236,2.326,2.3221,2.3037,2.31,2.3158,2.3128,2.309,2.3073,2.3294,2.3493,2.4208,2.5135,2.658,2.7772,2.9522,2.9144,2.6241,2.2844,2.1841,2.1374,2.1775,2.2064,2.2952,2.3581,2.3794,2.3686,2.3375,2.3661,2.3585,2.3795,2.384,2.3875,2.3511,2.3687,2.3823,2.3793,2.3521,2.3848,2.4201,2.4224,2.4256,2.3953,2.3912,2.4095,2.4002,2.4297,2.4104,2.4497,2.4273,2.4289,2.4399,2.4603,2.4659,2.4487,2.4775,2.4544,2.4981,2.4965,2.4808,2.4741,2.5016,2.5217,2.5121,2.5424,2.5192,2.5489,2.5638,2.5444,2.5495,2.5758,2.5992,2.6098,2.5674,2.5888,2.5845,2.6119,2.6133,2.6015,2.6028,2.5522,2.5759,2.5589,2.5316,2.4966,2.4863,2.4631,2.4693,2.4722,2.4475,2.4407,2.4145,2.4362,2.441,2.4314,2.4301,2.437,2.4191,2.4345,2.4357,2.4296,2.4366,2.4115,2.4216,2.4371,2.4224,2.4145,2.416,2.4322,2.4327,2.4279,2.4359,2.4151,2.4289,2.4229,2.389,2.4579,2.4454,2.4326,2.4433,2.438,2.4253,2.4329,2.4498,2.4533,2.4339,2.3999,2.4417,2.4409,2.4719,2.4818,2.4999,2.4933,2.5055,2.4718,2.4687,2.4661,2.4843,2.5036,2.4943,2.4938,2.493,2.4674,2.4546,2.4435,2.4511,2.415,2.4032,2.4084,2.3964,2.3913,2.4079,2.4076,2.4023,2.4223,2.408,2.415,2.4075,2.3982,2.3933,2.4112,2.4111,2.4148,2.4044,2.4091,2.3986,2.4175,2.4028,2.3983,2.4149,2.422,2.4512,2.4754,2.5089,2.6018,2.7105,2.8974,3.0297,3.0476,2.7216,2.4198,2.2686,2.2187,2.2177,2.3001,2.3949,2.4623,2.4435,2.4273,2.4648,2.4717,2.4896,2.4771,2.4727,2.4537,2.4883,2.46,2.4721,2.4923,2.4744,2.4832,2.4827,2.4877,2.4924,2.4767,2.4684,2.4974,2.5079,2.5115,2.5161,2.4992,2.5372,2.5441,2.5281,2.5263,2.5191,2.5179,2.5458,2.548,2.551,2.5599,2.5419,2.5361,2.5792,2.5854,2.5982,2.6032,2.5822,2.5807,2.6228,2.627,2.6524,2.6349,2.6419,2.6633,2.6653,2.7065,2.6892,2.6632,2.6716,2.6714,2.6778,2.6449,2.6141,2.6131,2.5959,2.598,2.5791,2.5546,2.5432,2.5059,2.5266,2.4803,2.48,2.5048,2.4845,2.4904,2.486,2.485,2.4559,2.4841,2.4663,2.4737,2.462,2.4573,2.4759,2.4843,2.4785,2.4595,2.4658,2.4522,2.4427,2.4738,2.4995,2.4919,2.4845,2.4743,2.4686,2.4825,2.5047,2.4929,2.4812,2.4631,2.4513,2.4635,2.482,2.5,2.4808,2.4831,2.4711,2.4627,2.5122,2.536,2.5258,2.5397,2.5479,2.5109,2.5302,2.5045,2.5394,2.5481,2.5353,2.5374,2.5144,2.5014,2.4913,2.4878,2.4882,2.4626,2.4599,2.4734,2.4452,2.4394,2.4418,2.4414,2.4615,2.4693,2.4394,2.4498,2.4337,2.4294,2.4471,2.4413,2.4587,2.4383,2.4445,2.4449,2.4468,2.4188,2.4336,2.4473,2.4664,2.4383,2.4532,2.4852,2.4915,2.5399,2.6379,2.7841,2.9543,3.109,2.9827,2.654,2.3641,2.2911,2.2519,2.2449,2.3459,2.4256,2.4941,2.4535,2.4848,2.4597,2.4739,2.4892,2.4719,2.4648,2.4806,2.5005,2.4852,2.4882,2.4626,2.4797,2.4733,2.4879,2.5004,2.4955,2.4951,2.4908,2.4982,2.4865,2.4971,2.4711,2.4913,2.5311,2.5107,2.5318,2.5249,2.5235,2.5083,2.5136,2.5214,2.5504,2.5451,2.5557,2.5388,2.5814,2.5891,2.5908,2.5838,2.5914,2.6162,2.622,2.6173,2.6284,2.6232,2.671,2.6714,2.6797,2.6564,2.6766,2.6888,2.6688,2.6478,2.6438,2.6574,2.6227,2.5735,2.5769,2.5856,2.5693,2.5529,2.5165,2.495,2.5321,2.4982,2.4929,2.4966,2.4639,2.4543,2.4742,2.466,2.4483,2.4567,2.4506,2.4605,2.4702,2.4713,2.451,2.4514,2.4754,2.4626,2.4513,2.4617,2.4752,2.4771,2.4735,2.4359,2.4448,2.4936,2.4997,2.4941,2.4612,2.4489,2.4353,2.4627,2.4889,2.4721,2.4654,2.4658,2.4589,2.4525,2.4631,2.4545,2.4546,2.4691,2.4691,2.4851,2.476,2.4921,2.4697,2.4969,2.5111,2.5197,2.5254,2.5112,2.514,2.5171,2.5081,2.5131,2.5219,2.5335,2.5186,2.5141,2.4945,2.4746,2.4631,2.4557,2.4193,2.462,2.4518,2.4417,2.458,2.4284,2.4127,2.4399,2.4432,2.4147,2.4293,2.4359,2.4186,2.4396,2.4454,2.4369,2.4242,2.4249,2.4371,2.4358,2.4356,2.4435,2.4271,2.4253,2.4597,2.4725,2.4726,2.4781,2.5519,2.6802,2.7812,2.9398,3.1067,2.9863,2.6473,2.3445,2.2506,2.2489,2.2915,2.3824,2.4458,2.4893,2.4889,2.4698,2.45,2.469,2.4742,2.4796,2.4558,2.4807,2.4826,2.4846,2.4777,2.4819,2.4831,2.4924,2.4982,2.4873,2.4807,2.5096,2.4989,2.4961,2.4893,2.5005,2.5103,2.5024,2.4943,2.4847,2.4971,2.5387,2.5482,2.5413,2.5436,2.559,2.5429,2.5386,2.5233,2.5453,2.5881,2.5941,2.5951,2.594,2.6062,2.6079,2.6459,2.6478,2.6513,2.6412,2.6533,2.6576,2.662,2.6672,2.6809,2.6591,2.6596,2.6363,2.6407,2.628,2.6347,2.5941,2.6076,2.5694,2.5475,2.5267,2.5188,2.5073,2.5023,2.4783,2.4847,2.4699,2.4828,2.4627,2.4702,2.4748,2.455,2.474,2.4618,2.4721,2.4468,2.4272,2.4577,2.4584,2.4517,2.4591,2.4474,2.4483,2.4698,2.458,2.4437,2.4426,2.4607,2.4635,2.4438,2.4637,2.4633,2.4504,2.4473,2.4428,2.4535,2.4731,2.4652,2.4534,2.4596,2.4484,2.4524,2.441,2.4706,2.4738,2.4894,2.4905,2.4957,2.4794,2.4842,2.4918,2.4961,2.499,2.4874,2.5202,2.4944,2.4993,2.477,2.4843,2.4656,2.4448,2.4518,2.4184,2.4378,2.4209,2.4273,2.4298,2.4111,2.4106,2.3927,2.404,2.3954,2.4061,2.4039,2.3882,2.3985,2.406,2.3879,2.3913,2.3973,2.3923,2.3625,2.4079,2.3974,2.403,2.3958,2.4064,2.3966,2.4216,2.4433,2.4655,2.5287,2.6327,2.7482,2.9266,3.032,2.8601,2.5492,2.2933,2.2448,2.2365,2.2438,2.3437,2.4076,2.4538,2.4265,2.4304,2.4265,2.4095,2.4174,2.4256,2.4296,2.4268,2.4108,2.4408,2.4272,2.4151,2.4341,2.4262,2.4141,2.4285,2.4237,2.4567,2.4501,2.4301,2.4309,2.458,2.4416,2.444,2.438,2.4538,2.4529,2.4284,2.4462,2.4708,2.4683,2.4718,2.4624,2.4553,2.4935,2.4889,2.4989,2.4962,2.5133,2.5291,2.5369,2.551,2.5517,2.5563,2.5636,2.5661,2.5761,2.5471,2.5865,2.5854,2.5977,2.5872,2.5598,2.5463,2.5484,2.5569,2.5406,2.5141,2.4921,2.4805,2.4722,2.4507,2.4598,2.4288,2.4099,2.3905,2.3931,2.3898,2.3916,2.3836,2.3771,2.3673,2.3772,2.3811,2.3773,2.374,2.3646,2.3969,2.3737,2.3653,2.3768,2.3678,2.3764,2.3934,2.4076,2.3677,2.3651,2.3761,2.386,2.3841,2.3956,2.3872,2.3686,2.3861,2.385,2.3764,2.3948,2.4002,2.372,2.3636,2.3702,2.3678,2.3706,2.378,2.3738,2.3679,2.3796,2.3905,2.3894,2.4097,2.4292,2.4215,2.4209,2.4199,2.4013,2.4296,2.4406,2.3952,2.3967,2.4177,2.4274,2.4231,2.4146,2.3873,2.3917,2.3695,2.3465,2.3544,2.2857,2.3244,2.3671,2.3553,2.3485,2.3379,2.3267,2.3178,2.357,2.3145,2.3251,2.3405,2.3313,2.3241,2.3003,2.3389,2.362,2.3303,2.3197,2.3065,2.3165,2.3086,2.3561,2.4044,2.3945,2.4572,2.568,2.6751,2.8877,2.9885,2.8349,2.5068,2.2058,2.1523,2.1479,2.1723,2.23,2.3029,2.3649,2.3791,2.3811,2.3333,2.3385,2.3641,2.3123,2.3025,2.3416,2.3583,2.3584,2.3378,2.3177,2.3511,2.3773,2.3632,2.3122,2.3764,2.3835,2.3789,2.3752,2.3378,2.3597,2.3788,2.3458,2.3232,2.3169,2.3359,2.3667,2.4098,2.3887,2.3927,2.3825,2.3645,2.3744,2.3887,2.3815,2.4021,2.3923,2.4031,2.4367,2.4383,2.4047,2.4256,2.472,2.4525,2.4562,2.4559,2.458,2.5278,2.4961,2.4811,2.4723,2.435,2.4816,2.4827,2.462,2.4278,2.4159,2.368,2.3908,2.4133,2.3628,2.3344,2.3377,2.3061,2.3051,2.3225,2.2981,2.2955,2.2916,2.2889,2.2727,2.2853,2.284,2.2651,2.2888,2.2721,2.267,2.2666,2.2736,2.2614,2.2707,2.2676,2.2768,2.2515,2.2812,2.2481,2.2442,2.24,2.2766,2.2791,2.28,2.2783,2.2704,2.276,2.2781,2.2969,2.2949,2.2951,2.2904,2.2953,2.2984,2.2925,2.2879,2.3076,2.318,2.3038,2.3337,2.3399,2.3682,2.3874,2.3644,2.3558,2.3449,2.3575,2.353,2.3883,2.4043,2.3925,2.3928,2.3336,2.322,2.3435,2.3476,2.3453,2.3403,2.3018,2.3176,2.3033,2.2693,2.3032,2.2789,2.3382,2.3569,2.32,2.3251,2.3737,2.3544,2.3308,2.3563,2.3697,2.3774,2.3863,2.3562,2.3803,2.39,2.4271,2.4101,2.4264,2.4287,2.4823,2.5196,2.5744,2.6956,2.8437,2.9097,3.0469,2.9812,2.6735,2.3663,2.2539,2.2816,2.2694,2.3322,2.4386,2.4757,2.4625,2.484,2.4729,2.4596,2.4698,2.482,2.4634,2.4582,2.4495,2.4533,2.4591,2.4694,2.4626,2.4583,2.4575,2.4822,2.4933,2.4764,2.4746,2.467,2.4697,2.4544,2.4517,2.4598,2.4908,2.4379,2.4464,2.4561,2.4615,2.4764,2.4879,2.456,2.4596,2.4927,2.503,2.525,2.5193,2.5346,2.5534,2.569,2.5753,2.5904,2.5588,2.5778,2.5634,2.6012,2.6083,2.6279,2.6335,2.6085,2.6219,2.6289,2.6448,2.6294,2.6131,2.617,2.6158,2.5688,2.5348,2.5433,2.5337,2.5289,2.5014,2.4878,2.454,2.4695,2.4615,2.4659,2.4644,2.465,2.4388,2.4456,2.4664,2.4387,2.4358,2.4395,2.4427,2.4359,2.4383,2.4517,2.4584,2.4818,2.4697,2.4644,2.4479,2.4476,2.471,2.4877,2.4712,2.4619,2.4588,2.4728,2.453,2.4638,2.4804,2.477,2.4671,2.4797,2.4799,2.4882,2.4657,2.4991,2.5049,2.5051,2.5395,2.5388,2.553,2.544,2.5234,2.5251,2.5263,2.5235,2.5093,2.5267,2.5497,2.5333,2.4974,2.5005,2.4975,2.4781,2.479,2.4565,2.4362,2.4792,2.4567,2.4278,2.4331,2.4489,2.4403,2.4351,2.4446,2.4297,2.4466,2.432,2.4743,2.4519,2.4271,2.4459,2.4436,2.4482,2.4742,2.4613,2.4814,2.4563,2.4692,2.4649,2.4911,2.5393,2.6022,2.7427,2.8034,2.9491,3.0872,3.017,2.6965,2.3977,2.3255,2.3039,2.3455,2.4084,2.4741,2.4994,2.5188,2.52,2.5267,2.5246,2.5133,2.5323,2.5246,2.5141,2.5325,2.537,2.5401,2.5311,2.5351,2.5181,2.5476,2.5671,2.5534,2.5624,2.557,2.5387,2.5332,2.5345,2.5844,2.5804,2.5606,2.5797,2.5998,2.5919,2.6013,2.5999,2.6008,2.598,2.6128,2.6221,2.6204,2.6328,2.6486,2.6771,2.682,2.66,2.6692,2.6978,2.7002,2.7102,2.7309,2.7275,2.7353,2.7197,2.7177,2.7437,2.769,2.7356,2.7482,2.7477,2.73,2.713,2.7046,2.6891,2.6681,2.668,2.6352,2.637,2.6316,2.6193,2.5907,2.5841,2.5658,2.5861,2.583,2.5778,2.574,2.5767,2.583,2.5695,2.5761,2.565,2.5507,2.5621,2.5671,2.5692,2.5639,2.5685,2.5782,2.5805,2.5676,2.5604,2.582,2.5804,2.5809,2.5783,2.5746,2.5714,2.5661,2.5875,2.5882,2.5858,2.5876,2.5905,2.5829,2.5728,2.5913,2.6053,2.6109,2.6019,2.6109,2.6312,2.6197,2.6252,2.6205,2.6706,2.6547,2.6384,2.6354,2.6155,2.657,2.6659,2.6474,2.6467,2.6055,2.6224,2.6165,2.6071,2.5916,2.5971,2.5922,2.5698,2.5688,2.5547,2.5491,2.5608,2.5762,2.5711,2.5798,2.5441,2.5776,2.5783,2.5511,2.5646,2.5504,2.5363,2.5519,2.5618,2.5799,2.5726,2.5741,2.5802,2.5815,2.59,2.5904,2.6282,2.7142,2.8403,2.9532,3.0988,3.2142,3.0408,2.6928,2.4331,2.3794,2.4106,2.4581,2.5528,2.5844,2.6088,2.6173,2.6232,2.6008,2.6219,2.6195,2.6139,2.6139,2.6205,2.6345,2.6186,2.6332,2.6267,2.6195,2.6439,2.6246,2.6321,2.6377,2.6355,2.6172,2.6398,2.6527,2.6733,2.6724,2.6397,2.6588,2.6566,2.6806,2.6913,2.6648,2.6754,2.6979,2.6904,2.7126,2.6962,2.7207,2.7131,2.7234,2.7329,2.7383,2.7634,2.7553,2.7701,2.776,2.7848,2.7847,2.793,2.7876,2.786,2.8132,2.8154,2.8129,2.8259,2.8254,2.8008,2.7901,2.7783,2.7505,2.7529,2.7196,2.7171,2.6902,2.6906,2.6745,2.6538,2.6492,2.6392,2.6282,2.6342,2.6271,2.6208,2.6168,2.6218,2.6076,2.5979,2.6107,2.6097,2.6159,2.6183,2.6292,2.6297,2.6309,2.6176,2.6097,2.6222,2.6208,2.6167,2.6524,2.6393,2.6217,2.6293,2.6256,2.6367,2.6364,2.6588,2.6468,2.628,2.6292,2.6276,2.6538,2.6378,2.6499,2.6491,2.6822,2.6483,2.6908,2.6898,2.7133,2.7061,2.6928,2.6617,2.6756,2.6812,2.6994,2.6947,2.6952,2.6967,2.6667,2.6745,2.6627,2.6483,2.6582,2.6353,2.6103,2.6047,2.6102,2.6197,2.6139,2.6294,2.6229,2.6122,2.5975,2.5821,2.603,2.6114,2.5986,2.5945,2.5897,2.6252,2.6158,2.6049,2.6168,2.6368,2.6224,2.6166,2.6274,2.6421,2.6687,2.7262,2.8544,3.0032,3.1599,3.2693,3.1465,2.7875,2.4769,2.4285,2.4411,2.4971,2.5871,2.638,2.6696,2.6569,2.6546,2.6742,2.6558,2.6429,2.66,2.6371,2.689,2.6793,2.6705,2.6871,2.6757,2.6809,2.6652,2.6835,2.6832,2.6731,2.6877,2.7008,2.6997,2.6906,2.706,2.7001,2.6951,2.7191,2.7173,2.7194,2.6988,2.7142,2.7275,2.736,2.7384,2.7427,2.758,2.7849,2.7756,2.774,2.7879,2.8179,2.8048,2.823,2.826,2.8284,2.8278,2.8468,2.84,2.842,2.8547,2.8692,2.8804,2.8789,2.8517,2.8664,2.8602,2.8612,2.8376,2.8063,2.8057,2.7907,2.7831,2.7605,2.7763,2.7575,2.7177,2.7163,2.7293,2.6941,2.6883,2.7036,2.692,2.6733,2.6894,2.711,2.6908,2.6731,2.6868,2.6961,2.7078,2.7026,2.6672,2.6902,2.714,2.7029,2.7134,2.7008,2.7122,2.7095,2.7014,2.716,2.6955,2.6984,2.7295,2.7311,2.712,2.7072,2.6973,2.7206,2.7209,2.7362,2.7395,2.778,2.7737,2.7702,2.7606,2.7446,2.7586,2.7747,2.7795,2.7839,2.778,2.77,2.763,2.7621,2.7618,2.7294,2.749,2.7152,2.7111,2.7096,2.7021,2.693,2.6922,2.7037,2.7004,2.6961,2.685,2.6982,2.6998,2.7075,2.6768,2.7014,2.7023,2.7121,2.6921,2.7105,2.7005,2.6833,2.722,2.7137,2.7072,2.7319,2.7629,2.8141,2.9437,3.0611,3.1442,3.2969,3.323,3.0297,2.7125,2.5429,2.548,2.564,2.6277,2.7064,2.743,2.7753,2.7668,2.7454,2.7616,2.7569,2.7548,2.7505,2.7672,2.7613,2.7659,2.778,2.7664,2.7846,2.7865,2.7704,2.7785,2.7679,2.7716,2.7762,2.7919
