-2.6177,-2.6374,-2.697,-2.7228,-2.7538,-2.7903,-2.8352,-2.8615,-2.8957,-2.9152,-2.9139,-2.9133,-2.9243,-2.9463,-2.9604,-2.968,-2.9558,-2.9672,-2.9698,-2.9617,-2.9495,-2.9524,-2.9584,-2.9637,-2.9574,-2.9463,-2.946,-2.9442,-2.9335,-2.9278,-2.9467,-2.9352,-2.9214,-2.9343,-2.9303,-2.9214,-2.9122,-2.9075,-2.9145,-2.9156,-2.9182,-2.9039,-2.9116,-2.9166,-2.9116,-2.9141,-2.9047,-2.9127,-2.9226,-2.9256,-2.9242,-2.9284,-2.9202,-2.9352,-2.9315,-2.924,-2.9161,-2.9173,-2.9306,-2.9293,-2.9278,-2.9104,-2.9067,-2.9371,-2.9304,-2.9232,-2.9152,-2.9169,-2.9283,-2.928,-2.9184,-2.9153,-2.8954,-2.9143,-2.9279,-2.9245,-2.9178,-2.9012,-2.9078,-2.9083,-2.9322,-2.9213,-2.9168,-2.9166,-2.9186,-2.9225,-2.9212,-2.9177,-2.9188,-2.9041,-2.9019,-2.9083,-2.9167,-2.9222,-2.8974,-2.8935,-2.884,-2.8742,-2.8615,-2.8626,-2.8365,-2.852,-2.842,-2.8218,-2.8257,-2.8513,-2.8606,-2.8737,-2.87,-2.8813,-2.8898,-2.9027,-2.9094,-2.9051,-2.9066,-2.9163,-2.921,-2.9165,-2.9157,-2.9047,-2.8947,-2.8979,-2.9002,-2.898,-2.9091,-2.9295,-2.9264,-2.8617,-2.7139,-2.5353,-2.3932,-2.2667,-2.3496,-2.6596,-3.0958,-3.4413,-3.3517,-3.1659,-3.0985,-3.0178,-2.9399,-2.898,-2.8898,-2.8729,-2.8699,-2.8728,-2.8839,-2.8677,-2.8597,-2.8496,-2.8528,-2.8486,-2.8466,-2.8558,-2.8515,-2.8414,-2.834,-2.831,-2.8385,-2.8273,-2.8227,-2.8195,-2.823,-2.821,-2.8011,-2.8039,-2.805,-2.7957,-2.7971,-2.7745,-2.7721,-2.7701,-2.766,-2.7466,-2.7366,-2.7182,-2.7216,-2.7166,-2.7016,-2.6722,-2.6493,-2.6472,-2.6536,-2.6452,-2.6161,-2.5902,-2.5556,-2.5493,-2.5081,-2.4819,-2.481,-2.4638,-2.4468,-2.4478,-2.4354,-2.4137,-2.3948,-2.4002,-2.406,-2.4087,-2.3967,-2.4042,-2.4073,-2.4162,-2.4403,-2.4714,-2.5245,-2.5636,-2.5974,-2.6247,-2.672,-2.704,-2.7427,-2.7622,-2.7767,-2.7851,-2.8072,-2.8368,-2.8387,-2.8338,-2.8384,-2.8438,-2.8463,-2.8547,-2.8593,-2.862,-2.8568,-2.8437,-2.8494,-2.8511,-2.84,-2.8228,-2.8422,-2.8551,-2.8263,-2.8257,-2.8214,-2.8194,-2.8202,-2.8223,-2.8197,-2.8175,-2.8173,-2.8095,-2.8183,-2.8137,-2.8073,-2.8051,-2.8038,-2.8113,-2.8176,-2.8217,-2.8232,-2.8218,-2.8297,-2.8327,-2.8328,-2.8331,-2.8285,-2.8201,-2.8246,-2.8292,-2.8257,-2.835,-2.844,-2.8366,-2.8377,-2.843,-2.8443,-2.8564,-2.8432,-2.8439,-2.8502,-2.846,-2.8484,-2.8325,-2.8502,-2.8491,-2.8433,-2.8627,-2.8539,-2.8462,-2.8419,-2.8385,-2.8278,-2.839,-2.838,-2.8461,-2.8461,-2.8441,-2.8402,-2.8419,-2.8383,-2.8528,-2.842,-2.8462,-2.8517,-2.8477,-2.8415,-2.8326,-2.8387,-2.8521,-2.8636,-2.8577,-2.8415,-2.8449,-2.859,-2.8696,-2.8551,-2.8393,-2.8442,-2.8511,-2.863,-2.8678,-2.8578,-2.8504,-2.8475,-2.8343,-2.8378,-2.8173,-2.8303,-2.8134,-2.8107,-2.8206,-2.8049,-2.7827,-2.7912,-2.8114,-2.824,-2.8279,-2.8351,-2.8591,-2.8654,-2.8737,-2.8791,-2.877,-2.8784,-2.8796,-2.8835,-2.8916,-2.8825,-2.8807,-2.8778,-2.8886,-2.8875,-2.8826,-2.8913,-2.9027,-2.8734,-2.7479,-2.5918,-2.4328,-2.2998,-2.3217,-2.506,-2.9175,-3.338,-3.3725,-3.2112,-3.1126,-3.0369,-2.95,-2.9058,-2.8906,-2.8823,-2.8767,-2.8826,-2.8794,-2.8764,-2.8704,-2.8583,-2.8698,-2.865,-2.855,-2.8587,-2.8524,-2.8564,-2.8624,-2.8714,-2.8666,-2.8605,-2.8696,-2.8711,-2.8736,-2.8681,-2.8508,-2.8523,-2.8242,-2.8266,-2.821,-2.8121,-2.8054,-2.7979,-2.7868,-2.7774,-2.7783,-2.7575,-2.747,-2.7367,-2.7216,-2.6967,-2.6979,-2.6909,-2.6811,-2.6663,-2.6577,-2.6321,-2.6239,-2.6044,-2.5766,-2.5683,-2.5592,-2.533,-2.5163,-2.5037,-2.4942,-2.4888,-2.476,-2.4685,-2.4744,-2.4687,-2.4752,-2.4782,-2.4788,-2.4805,-2.4696,-2.4918,-2.5438,-2.5719,-2.6191,-2.6702,-2.6956,-2.7359,-2.7699,-2.7923,-2.8053,-2.8375,-2.8568,-2.8695,-2.8818,-2.9053,-2.9056,-2.9131,-2.9091,-2.9115,-2.9117,-2.9169,-2.9111,-2.9084,-2.9202,-2.93,-2.923,-2.8982,-2.8962,-2.9165,-2.9145,-2.8965,-2.8852,-2.875,-2.8864,-2.8843,-2.8853,-2.8824,-2.8848,-2.9054,-2.9003,-2.8935,-2.8836,-2.8815,-2.8862,-2.8843,-2.9061,-2.8978,-2.8906,-2.8966,-2.8981,-2.918,-2.9131,-2.904,-2.8935,-2.893,-2.9116,-2.9123,-2.9048,-2.8957,-2.9047,-2.9329,-2.9218,-2.9188,-2.9131,-2.9092,-2.9134,-2.9087,-2.9269,-2.9243,-2.9163,-2.9125,-2.9187,-2.9155,-2.9211,-2.9226,-2.9171,-2.9134,-2.9183,-2.9076,-2.917,-2.9147,-2.9222,-2.9187,-2.9244,-2.9174,-2.913,-2.9337,-2.9292,-2.9215,-2.9075,-2.9209,-2.9288,-2.9243,-2.9306,-2.9213,-2.922,-2.9075,-2.9075,-2.9015,-2.9152,-2.9152,-2.9128,-2.9324,-2.9338,-2.9082,-2.9144,-2.9173,-2.9025,-2.907,-2.8998,-2.8755,-2.875,-2.8755,-2.8422,-2.8454,-2.8704,-2.8802,-2.8778,-2.8868,-2.8972,-2.8986,-2.9093,-2.9202,-2.9306,-2.9266,-2.9262,-2.9201,-2.9285,-2.9311,-2.9277,-2.9116,-2.9069,-2.9212,-2.9213,-2.9252,-2.9215,-2.933,-2.9017,-2.8555,-2.6811,-2.5193,-2.4072,-2.3482,-2.4633,-2.779,-3.1114,-3.3086,-3.1903,-3.0939,-3.0777,-3.0228,-2.9585,-2.9231,-2.9149,-2.8759,-2.8876,-2.8874,-2.8974,-2.8917,-2.8687,-2.8733,-2.8674,-2.8669,-2.8745,-2.8676,-2.8652,-2.8509,-2.8495,-2.8469,-2.8601,-2.8617,-2.8734,-2.86,-2.857,-2.8541,-2.839,-2.8232,-2.8319,-2.8221,-2.8296,-2.8273,-2.816,-2.806,-2.8023,-2.7874,-2.7695,-2.7486,-2.7482,-2.7632,-2.7549,-2.7366,-2.7289,-2.7185,-2.6868,-2.6782,-2.662,-2.6378,-2.6338,-2.6245,-2.6145,-2.5877,-2.5704,-2.5542,-2.5488,-2.5357,-2.5368,-2.5283,-2.5209,-2.5171,-2.5096,-2.5161,-2.4965,-2.4944,-2.5085,-2.5387,-2.5629,-2.5918,-2.6339,-2.6477,-2.6681,-2.7037,-2.7412,-2.7903,-2.8299,-2.8467,-2.8458,-2.8757,-2.8977,-2.9232,-2.918,-2.9093,-2.907,-2.9266,-2.9253,-2.9268,-2.9265,-2.9519,-2.9436,-2.9353,-2.9295,-2.9311,-2.9215,-2.9075,-2.8974,-2.8964,-2.9059,-2.9038,-2.8891,-2.9112,-2.9094,-2.8932,-2.9018,-2.8859,-2.8822,-2.8965,-2.8925,-2.8985,-2.9117,-2.9035,-2.9117,-2.9077,-2.8977,-2.9016,-2.9097,-2.9006,-2.9,-2.9014,-2.9159,-2.9165,-2.9096,-2.901,-2.9291,-2.9231,-2.9223,-2.9215,-2.916,-2.9225,-2.9038,-2.9108,-2.9242,-2.9176,-2.908,-2.9065,-2.9163,-2.9105,-2.9062,-2.9055,-2.9232,-2.937,-2.9219,-2.903,-2.9084,-2.9144,-2.9141,-2.9112,-2.9064,-2.9005,-2.9239,-2.9227,-2.9179,-2.896,-2.9065,-2.9084,-2.8978,-2.884,-2.8754,-2.8953,-2.878,-2.8649,-2.8508,-2.8371,-2.8351,-2.8661,-2.8741,-2.8817,-2.8988,-2.9059,-2.8954,-2.8936,-2.9108,-2.9173,-2.922,-2.9221,-2.9257,-2.9308,-2.9296,-2.9205,-2.9218,-2.9083,-2.9217,-2.9285,-2.9038,-2.9338,-2.932,-2.9011,-2.7722,-2.6093,-2.4494,-2.3735,-2.3053,-2.3953,-2.7443,-3.1324,-3.3707,-3.2732,-3.1522,-3.0907,-3.0167,-2.9671,-2.9123,-2.8991,-2.8822,-2.8931,-2.8986,-2.8857,-2.8684,-2.8652,-2.8743,-2.8705,-2.8702,-2.874,-2.8727,-2.8581,-2.8559,-2.8526,-2.8605,-2.8492,-2.8478,-2.841,-2.8472,-2.8464,-2.8422,-2.8296,-2.8241,-2.8215,-2.8096,-2.8121,-2.8115,-2.8038,-2.7935,-2.7935,-2.7835,-2.7732,-2.7646,-2.7564,-2.7353,-2.7191,-2.7002,-2.7019,-2.6814,-2.6674,-2.6367,-2.6312,-2.6213,-2.5873,-2.5692,-2.5533,-2.5321,-2.5136,-2.5137,-2.5105,-2.5019,-2.4831,-2.4697,-2.4598,-2.4521,-2.459,-2.4458,-2.4288,-2.4601,-2.5103,-2.5358,-2.5414,-2.5803,-2.6213,-2.6686,-2.6997,-2.7353,-2.7718,-2.7872,-2.8117,-2.8324,-2.8549,-2.8591,-2.872,-2.8924,-2.8926,-2.908,-2.9016,-2.9169,-2.909,-2.9186,-2.9164,-2.9111,-2.9291,-2.922,-2.911,-2.9098,-2.905,-2.9065,-2.8977,-2.8903,-2.8789,-2.878,-2.8907,-2.8877,-2.8676,-2.8806,-2.8776,-2.8663,-2.8558,-2.8742,-2.8614,-2.867,-2.8777,-2.8699,-2.8677,-2.8661,-2.8758,-2.8776,-2.8671,-2.8746,-2.8882,-2.8749,-2.8549,-2.8651,-2.8823,-2.8817,-2.8929,-2.88,-2.8751,-2.8808,-2.8859,-2.8726,-2.8692,-2.8692,-2.8813,-2.8822,-2.8666,-2.87,-2.8655,-2.8681,-2.8693,-2.866,-2.8759,-2.8703,-2.8696,-2.8688,-2.887,-2.867,-2.8773,-2.8636,-2.8584,-2.8692,-2.8725,-2.8742,-2.8749,-2.8813,-2.8769,-2.8795,-2.8627,-2.8639,-2.8654,-2.8716,-2.8795,-2.8725,-2.8608,-2.8621,-2.8513,-2.8746,-2.8777,-2.861,-2.8589,-2.8429,-2.8554,-2.8572,-2.8489,-2.8432,-2.8364,-2.8228,-2.8107,-2.7883,-2.7908,-2.7925,-2.8225,-2.8415,-2.8308,-2.8267,-2.8338,-2.8477,-2.8556,-2.8512,-2.8641,-2.8759,-2.8756,-2.8726,-2.859,-2.8616,-2.8745,-2.8742,-2.8541,-2.8732,-2.8556,-2.8624,-2.8732,-2.8626,-2.793,-2.6461,-2.4886,-2.3367,-2.2391,-2.2966,-2.5559,-2.9674,-3.3158,-3.2407,-3.1126,-3.0421,-2.9578,-2.9147,-2.8841,-2.8673,-2.8271,-2.8276,-2.8283,-2.8212,-2.8158,-2.8125,-2.7987,-2.8105,-2.8128,-2.8132,-2.8055,-2.8045,-2.7968,-2.7861,-2.7946,-2.7808,-2.7833,-2.7818,-2.797,-2.7865,-2.7832,-2.7849,-2.7621,-2.752,-2.7421,-2.7435,-2.7398,-2.7341,-2.7161,-2.7138,-2.7152,-2.6905,-2.6792,-2.6878,-2.67,-2.6678,-2.6449,-2.6348,-2.6274,-2.6237,-2.6127,-2.5822,-2.5499,-2.5445,-2.5178,-2.516,-2.4921,-2.4681,-2.458,-2.4374,-2.4341,-2.4162,-2.402,-2.4074,-2.3959,-2.3835,-2.3907,-2.3893,-2.3925,-2.3895,-2.4096,-2.429,-2.473,-2.5096,-2.5404,-2.5801,-2.6146,-2.6472,-2.6891,-2.7197,-2.7446,-2.7692,-2.8152,-2.8202,-2.8162,-2.8255,-2.8325,-2.8185,-2.8252,-2.8442,-2.8409,-2.8485,-2.8437,-2.8334,-2.8359,-2.8382,-2.8446,-2.8233,-2.8268,-2.8346,-2.8393,-2.828,-2.8183,-2.8243,-2.8217,-2.8119,-2.8035,-2.7999,-2.7952,-2.8007,-2.796,-2.7852,-2.7838,-2.7844,-2.7814,-2.7915,-2.8049,-2.7973,-2.7901,-2.8035,-2.8114,-2.8021,-2.7881,-2.7902,-2.7923,-2.8167,-2.8072,-2.7893,-2.7875,-2.7932,-2.7999,-2.8021,-2.8132,-2.8,-2.7978,-2.8019,-2.7976,-2.7991,-2.7932,-2.7963,-2.798,-2.7968,-2.8003,-2.7865,-2.7923,-2.7919,-2.7955,-2.788,-2.7815,-2.7835,-2.7925,-2.8096,-2.8044,-2.7956,-2.7942,-2.8061,-2.7979,-2.7936,-2.7914,-2.7791,-2.7849,-2.7952,-2.7986,-2.7954,-2.7866,-2.7815,-2.7902,-2.8058,-2.8053,-2.7974,-2.7914,-2.7815,-2.7878,-2.8011,-2.7845,-2.7894,-2.79,-2.7995,-2.7995,-2.7741,-2.7804,-2.7919,-2.7857,-2.785,-2.7807,-2.7839,-2.7882,-2.7807,-2.777,-2.792,-2.7979,-2.7992,-2.7916,-2.7919,-2.786,-2.7963,-2.7956,-2.786,-2.7753,-2.7765,-2.7734,-2.7684,-2.7527,-2.7464,-2.7337,-2.7221,-2.7122,-2.7058,-2.7071,-2.7282,-2.7393,-2.7461,-2.7607,-2.7611,-2.7758,-2.7846,-2.7813,-2.7842,-2.7851,-2.7923,-2.7825,-2.7779,-2.7975,-2.7753,-2.7771,-2.7876,-2.7884,-2.7943,-2.8001,-2.8,-2.7849,-2.662,-2.5149,-2.3471,-2.2023,-2.1865,-2.296,-2.6197,-3.0294,-3.2269,-3.1122,-2.9903,-2.9291,-2.8348,-2.8013,-2.7748,-2.7519,-2.7346,-2.7351,-2.7375,-2.7464,-2.7271,-2.7255,-2.7197,-2.7127,-2.705,-2.7173,-2.71,-2.7031,-2.7091,-2.7177,-2.7087,-2.708,-2.7131,-2.7088,-2.6974,-2.695,-2.6994,-2.6936,-2.6803,-2.675,-2.6801,-2.6709,-2.6636,-2.6645,-2.6638,-2.6414,-2.6288,-2.6199,-2.6177,-2.6226,-2.6158,-2.594,-2.5873,-2.5791,-2.5738,-2.5455,-2.5351,-2.5291,-2.5074,-2.485,-2.4775,-2.4715,-2.4546,-2.4277,-2.407,-2.3954,-2.3821,-2.3609,-2.3598,-2.3682,-2.3605,-2.3582,-2.3535,-2.3518,-2.3439,-2.3463,-2.376,-2.3832,-2.4094,-2.4262,-2.4767,-2.5203,-2.5594,-2.5822,-2.6115,-2.6512,-2.6849,-2.6957,-2.7095,-2.7305,-2.757,-2.7587,-2.7615,-2.778,-2.7643,-2.7692,-2.769,-2.7743,-2.786,-2.7879,-2.7751,-2.7698,-2.7604,-2.7571,-2.7654,-2.7684,-2.7559,-2.7499,-2.7457,-2.7599,-2.753,-2.7396,-2.7264,-2.7314,-2.7294,-2.7342,-2.7371,-2.7293,-2.731,-2.723,-2.7208,-2.7275,-2.7222,-2.713,-2.7104,-2.7325,-2.7322,-2.7228,-2.7417,-2.7448,-2.7482,-2.7322,-2.7281,-2.7318,-2.7348,-2.74,-2.752,-2.7457,-2.7463,-2.7487,-2.7326,-2.7339,-2.7376,-2.7341,-2.7452,-2.7451,-2.7476,-2.7586,-2.7561,-2.7427,-2.7289,-2.7431,-2.7421,-2.7503,-2.746,-2.7456,-2.7476,-2.7481,-2.7444,-2.74,-2.7373,-2.7486,-2.7439,-2.7396,-2.7372,-2.7496,-2.757,-2.7512,-2.731,-2.7422,-2.759,-2.7595,-2.7582,-2.7584,-2.7499,-2.7368,-2.7451,-2.746,-2.7572,-2.7556,-2.76,-2.7497,-2.7469,-2.7506,-2.7473,-2.7447,-2.7527,-2.7499,-2.7542,-2.7526,-2.7628,-2.7646,-2.7698,-2.7561,-2.7521,-2.7493,-2.7475,-2.7614,-2.7692,-2.766,-2.7622,-2.7568,-2.7592,-2.7685,-2.7668,-2.7564,-2.7403,-2.7419,-2.7462,-2.7416,-2.7236,-2.7024,-2.6877,-2.6809,-2.6716,-2.7078,-2.7226,-2.7252,-2.7345,-2.7432,-2.7602,-2.7447,-2.7517,-2.7738,-2.7737,-2.7752,-2.7711,-2.7694,-2.7695,-2.7768,-2.7737,-2.7748,-2.7793,-2.7762,-2.7904,-2.8019,-2.7914,-2.6823,-2.5972,-2.4459,-2.2941,-2.1858,-2.2248,-2.4301,-2.8213,-3.2212,-3.1816,-3.0591,-2.9884,-2.9192,-2.8406,-2.8154,-2.7766,-2.7617,-2.7806,-2.7761,-2.7659,-2.7525,-2.7499,-2.7492,-2.7566,-2.7574,-2.7423,-2.7373,-2.729,-2.7381,-2.738,-2.7517,-2.7439,-2.7419,-2.7601,-2.7566,-2.7515,-2.7302,-2.7311,-2.7277,-2.716,-2.7179,-2.7135,-2.706,-2.683,-2.6859,-2.678,-2.6621,-2.6621,-2.6585,-2.6498,-2.6297,-2.6292,-2.6145,-2.6114,-2.6028,-2.5897,-2.5752,-2.5518,-2.5217,-2.5055,-2.5024,-2.4945,-2.4863,-2.4727,-2.4467,-2.4366,-2.4174,-2.4074,-2.4041,-2.396,-2.3883,-2.3857,-2.3922,-2.3987,-2.3869,-2.3887,-2.4011,-2.4032,-2.4252,-2.4758,-2.5194,-2.5445,-2.5603,-2.5926,-2.6208,-2.6573,-2.687,-2.7276,-2.754,-2.7691,-2.7838,-2.7852,-2.7906,-2.7944,-2.8131,-2.8254,-2.8233,-2.839,-2.8333,-2.8196,-2.8264,-2.8282,-2.8229,-2.827,-2.8274,-2.8222,-2.8168,-2.8026,-2.7997,-2.8004,-2.8044,-2.8023,-2.81,-2.7983,-2.7809,-2.7929,-2.7929,-2.7951,-2.7995,-2.7925,-2.7978,-2.7943,-2.788,-2.7827,-2.7798,-2.803,-2.8085,-2.8136,-2.8169,-2.8055,-2.806,-2.8143,-2.8215,-2.8252,-2.8269,-2.815,-2.8079,-2.8091,-2.8109,-2.8163,-2.8059,-2.8168,-2.8135,-2.8213,-2.8374,-2.8195,-2.8159,-2.8118,-2.825,-2.8184,-2.809,-2.8307,-2.8331,-2.8263,-2.8224,-2.8286,-2.8202,-2.8178,-2.8144,-2.8208,-2.8296,-2.8351,-2.841,-2.8279,-2.823,-2.8255,-2.8231,-2.8276,-2.8327,-2.8314,-2.837,-2.8275,-2.8195,-2.8201,-2.8234,-2.8415,-2.8338,-2.8397,-2.8345,-2.8363,-2.8218,-2.8169,-2.8164,-2.8245,-2.8322,-2.8243,-2.8375,-2.8304,-2.8215,-2.8361,-2.8377,-2.8368,-2.8339,-2.8291,-2.8216,-2.8136,-2.8192,-2.8059,-2.8001,-2.7761,-2.7717,-2.7567,-2.7668,-2.7756,-2.7805,-2.7883,-2.7776,-2.7909,-2.8153,-2.8334,-2.8249,-2.8273,-2.8436,-2.843,-2.8352,-2.8318,-2.833,-2.8197,-2.8325,-2.8459,-2.8453,-2.8228,-2.8273,-2.831,-2.8392,-2.8277,-2.7712,-2.6257,-2.4744,-2.3363,-2.2697,-2.3459,-2.6188,-2.9701,-3.2112,-3.1168,-3.0181,-2.9892,-2.9485,-2.8944,-2.852,-2.8457,-2.8322,-2.8026,-2.8057,-2.8213,-2.7967,-2.8066,-2.7968,-2.7954,-2.7857,-2.7929,-2.7822,-2.7822,-2.777,-2.7721,-2.7588,-2.7869,-2.785,-2.7874,-2.7848,-2.7688,-2.7543,-2.7583,-2.7601,-2.767,-2.7544,-2.7433,-2.7398,-2.7336,-2.7269,-2.7195,-2.7199,-2.7123,-2.7071,-2.6967,-2.6783,-2.669,-2.6574,-2.6398,-2.6316,-2.6297,-2.6204,-2.61,-2.5758,-2.5691,-2.5595,-2.546,-2.5264,-2.5104,-2.5048,-2.4781,-2.4664,-2.477,-2.4585,-2.4428,-2.4424,-2.4474,-2.427,-2.4267,-2.4247,-2.4532,-2.4689,-2.4776,-2.4928,-2.5095,-2.5494,-2.6089,-2.6339,-2.6658,-2.7097,-2.7323,-2.7652,-2.7922,-2.7987,-2.8131,-2.8246,-2.8429,-2.8704,-2.8722,-2.8548,-2.8632,-2.8656,-2.8751,-2.8782,-2.8755,-2.8626,-2.8546,-2.8554,-2.8569,-2.8466,-2.8434,-2.8443,-2.8309,-2.8372,-2.8282,-2.837,-2.8182,-2.8254,-2.8163,-2.8093,-2.8036,-2.8024,-2.8021,-2.8055,-2.8209,-2.8239,-2.8127,-2.8098,-2.8125,-2.8213,-2.8301,-2.8385,-2.8344,-2.8269,-2.8099,-2.8221,-2.8351,-2.8424,-2.822,-2.8187,-2.8301,-2.8307,-2.8291,-2.808,-2.8204,-2.8374,-2.8368,-2.8262,-2.8232,-2.8171,-2.8193,-2.8235,-2.8237,-2.817,-2.8076,-2.8209,-2.8212,-2.8195,-2.811,-2.8124,-2.8054,-2.814,-2.8215,-2.8237,-2.8125,-2.8137,-2.8271,-2.8241,-2.8086,-2.8064,-2.7925,-2.8009,-2.8082,-2.8096,-2.8086,-2.8091,-2.8176,-2.8204,-2.8182,-2.8171,-2.8125,-2.8002,-2.8125,-2.8285,-2.8264,-2.8135,-2.801,-2.8065,-2.8073,-2.8022,-2.7969,-2.7911,-2.787,-2.7847,-2.7848,-2.795,-2.7825,-2.7738,-2.7835,-2.7739,-2.757,-2.7443,-2.7311,-2.7284,-2.7302,-2.7476,-2.7536,-2.7421,-2.7637,-2.7848,-2.7843,-2.7898,-2.7975,-2.7821,-2.8001,-2.8067,-2.8133,-2.7959,-2.7985,-2.7904,-2.7935,-2.7937,-2.7969,-2.7901,-2.8126,-2.8262,-2.7666,-2.6114,-2.4586,-2.3215,-2.1967,-2.2167,-2.3941,-2.8013,-3.1855,-3.1953,-3.0748,-3.0098,-2.9473,-2.8579,-2.8164,-2.8177,-2.796,-2.77,-2.77,-2.795,-2.7633,-2.7642,-2.7675,-2.7591,-2.7258,-2.744,-2.762,-2.7719,-2.7558,-2.7439,-2.7616,-2.7447,-2.732,-2.7293,-2.7329,-2.7344,-2.7376,-2.734,-2.7216,-2.7114,-2.7166,-2.7057,-2.696,-2.6795,-2.6783,-2.6906,-2.6767,-2.6673,-2.6509,-2.6468,-2.6416,-2.6266,-2.6183,-2.6063,-2.6012,-2.5944,-2.579,-2.5709,-2.5451,-2.5306,-2.518,-2.4967,-2.4734,-2.4546,-2.4478,-2.4372,-2.4063,-2.4102,-2.3929,-2.3881,-2.3798,-2.3761,-2.3808,-2.3719,-2.3674,-2.3873,-2.3936,-2.4058,-2.4172,-2.4477,-2.4861,-2.5223,-2.5765,-2.6043,-2.6493,-2.6707,-2.6879,-2.718,-2.7556,-2.7604,-2.7807,-2.7867,-2.8013,-2.8057,-2.8093,-2.8148,-2.8201,-2.8068,-2.8175,-2.8195,-2.807,-2.8076,-2.7993,-2.8099,-2.8197,-2.8179,-2.8128,-2.806,-2.7864,-2.788,-2.8047,-2.778,-2.7818,-2.7853,-2.7808,-2.77,-2.7753,-2.769,-2.7685,-2.7621,-2.7632,-2.7679,-2.7791,-2.7713,-2.7755,-2.7839,-2.7851,-2.7828,-2.7733,-2.7812,-2.7928,-2.7954,-2.7953,-2.7914,-2.7846,-2.7822,-2.7859,-2.8044,-2.7904,-2.7929,-2.7861,-2.7909,-2.7864,-2.7882,-2.7924,-2.7813,-2.7668,-2.7763,-2.7939,-2.7924,-2.7822,-2.7745,-2.7794,-2.8017,-2.7897,-2.7886,-2.8006,-2.7781,-2.7795,-2.7688,-2.7712,-2.7783,-2.7931,-2.7596,-2.764,-2.7941,-2.7892,-2.7859,-2.7824,-2.7887,-2.7909,-2.787,-2.7831,-2.7903,-2.7856,-2.782,-2.7813,-2.7794,-2.7832,-2.777,-2.7736,-2.7851,-2.7805,-2.7752,-2.7808,-2.7918,-2.7896,-2.7933,-2.7851,-2.7792,-2.7845,-2.7955,-2.789,-2.7859,-2.7574,-2.7453,-2.7588,-2.7632,-2.764,-2.7654,-2.7358,-2.7205,-2.7175,-2.7073,-2.7014,-2.7343,-2.7476,-2.7341,-2.7313,-2.7545,-2.7738,-2.7782,-2.7752,-2.7888,-2.7864,-2.7622,-2.7727,-2.7854,-2.7758,-2.772,-2.7735,-2.781,-2.7863,-2.7787,-2.7777,-2.7898,-2.7695,-2.6431,-2.4723,-2.308,-2.1764,-2.1924,-2.3491,-2.7021,-3.1151,-3.2162,-3.1436,-3.0162,-2.9693,-2.8913,-2.8183,-2.7954,-2.7728,-2.7452,-2.74,-2.7551,-2.7377,-2.7526,-2.7349,-2.7431,-2.746,-2.7285,-2.7278,-2.7317,-2.7232,-2.7263,-2.729,-2.7183,-2.7043,-2.7168,-2.7136,-2.7099,-2.7127,-2.7037,-2.7021,-2.7013,-2.6871,-2.6774,-2.6601,-2.6789,-2.6708,-2.6469,-2.6425,-2.6486,-2.631,-2.612,-2.6062,-2.6129,-2.6096,-2.5819,-2.5603,-2.5528,-2.542,-2.5215,-2.5162,-2.4992,-2.4829,-2.4603,-2.4245,-2.4014,-2.3972,-2.4019,-2.3816,-2.358,-2.3558,-2.3468,-2.3476,-2.3343,-2.326,-2.321,-2.3167,-2.3358,-2.342,-2.3352,-2.3618,-2.3775,-2.4249,-2.473,-2.5051,-2.5515,-2.5883,-2.6195,-2.6542,-2.6812,-2.6997,-2.7257,-2.738,-2.748,-2.7627,-2.7502,-2.7579,-2.7674,-2.7746,-2.7657,-2.7703,-2.7853,-2.7799,-2.7738,-2.7809,-2.7785,-2.772,-2.7673,-2.7703,-2.7668,-2.7566,-2.7533,-2.7521,-2.7507,-2.7581,-2.7417,-2.7404,-2.7436,-2.7347,-2.7302,-2.7378,-2.738,-2.7351,-2.7372,-2.7282,-2.7427,-2.7418,-2.7402,-2.7397,-2.7525,-2.7571,-2.7534,-2.7411,-2.7413,-2.7483,-2.7523,-2.7538,-2.7514,-2.7376,-2.7449,-2.7572,-2.7614,-2.7592,-2.7586,-2.7562,-2.7486,-2.7569,-2.7613,-2.7479,-2.7494,-2.7568,-2.755,-2.7505,-2.7411,-2.7522,-2.7585,-2.752,-2.7468,-2.7473,-2.7442,-2.7536,-2.7522,-2.754,-2.7447,-2.7558,-2.7525,-2.7629,-2.7539,-2.7481,-2.7601,-2.7487,-2.749,-2.7538,-2.7552,-2.7434,-2.7515,-2.759,-2.7555,-2.765,-2.7593,-2.7588,-2.7597,-2.7455,-2.7511,-2.7471,-2.7582,-2.7547,-2.7519,-2.7512,-2.7584,-2.7564,-2.7594,-2.7652,-2.7617,-2.7567,-2.7606,-2.7523,-2.7514,-2.7596,-2.7579,-2.7659,-2.7491,-2.7499,-2.7619,-2.765,-2.7516,-2.7563,-2.74,-2.7373,-2.7402,-2.7364,-2.7386,-2.7082,-2.7034,-2.6893,-2.665,-2.6608,-2.6993,-2.7166,-2.7173,-2.7252,-2.7279,-2.7408,-2.7442,-2.7494,-2.7509,-2.7444,-2.7576,-2.7759,-2.7678,-2.7488,-2.751,-2.7505,-2.7457,-2.7424,-2.7439,-2.7466,-2.7495,-2.7379,-2.6291,-2.4983,-2.3203,-2.1651,-2.1666,-2.2884,-2.6273,-3.0317,-3.2,-3.0936,-2.9902,-2.9176,-2.833,-2.7888,-2.7628,-2.7415,-2.7234,-2.7204,-2.7374,-2.7265,-2.7228,-2.7235,-2.7212,-2.7052,-2.7092,-2.7241,-2.7055,-2.6936,-2.7057,-2.7115,-2.7062,-2.6994,-2.6878,-2.7023,-2.6964,-2.6919,-2.6835,-2.6825,-2.6773,-2.6684,-2.6581,-2.6568,-2.6466,-2.647,-2.6371,-2.6289,-2.6197,-2.6084,-2.5981,-2.5868,-2.5746,-2.5687,-2.5604,-2.5309,-2.5199,-2.5246,-2.5177,-2.4956,-2.47,-2.4491,-2.4282,-2.4062,-2.3894,-2.3843,-2.3655,-2.3552,-2.3462,-2.3312,-2.3154,-2.3145,-2.3018,-2.3057,-2.3094,-2.3014,-2.3064,-2.3039,-2.326,-2.3439,-2.3614,-2.3921,-2.4315,-2.4642,-2.5071,-2.5493,-2.5855,-2.6188,-2.6397,-2.6749,-2.6982,-2.7093,-2.7289,-2.7525,-2.755,-2.7572,-2.7441,-2.745,-2.757,-2.7591,-2.7484,-2.7581,-2.754,-2.7449,-2.7577,-2.7532,-2.7472,-2.7447,-2.7402,-2.7398,-2.7426,-2.7284,-2.734,-2.7304,-2.7345,-2.7291,-2.7233,-2.7181,-2.7113,-2.7076,-2.7108,-2.722,-2.7225,-2.7154,-2.7066,-2.727,-2.737,-2.7278,-2.736,-2.7375,-2.7268,-2.7331,-2.7401,-2.7378,-2.7375,-2.737,-2.7357,-2.7341,-2.7487,-2.7379,-2.7417,-2.7438,-2.7435,-2.7412,-2.7435,-2.7295,-2.7348,-2.7327,-2.7322,-2.7429,-2.7515,-2.7489,-2.7326,-2.7359,-2.7477,-2.7404,-2.7319,-2.7274,-2.7372,-2.7337,-2.7311,-2.7301,-2.7425,-2.7527,-2.7409,-2.7371,-2.7452,-2.7575,-2.7506,-2.7522,-2.7522,-2.7582,-2.7588,-2.739,-2.7575,-2.7704,-2.7571,-2.7527,-2.7485,-2.7468,-2.751,-2.7608,-2.7607,-2.762,-2.7615,-2.7536,-2.751,-2.7624,-2.7663,-2.7792,-2.7659,-2.7656,-2.7644,-2.7586,-2.7543,-2.7572,-2.7706,-2.7694,-2.7666,-2.7665,-2.7633,-2.7722,-2.7608,-2.7555,-2.745,-2.736,-2.7388,-2.7333,-2.7226,-2.714,-2.7037,-2.7021,-2.7253,-2.7309,-2.7386,-2.7462,-2.7556,-2.7516,-2.7568,-2.7915,-2.7938,-2.7895,-2.7925,-2.8079,-2.779,-2.7769,-2.7814,-2.7858,-2.7938,-2.8003,-2.7957,-2.8218,-2.8184,-2.792,-2.6631,-2.4928,-2.3537,-2.2838,-2.2232,-2.3099,-2.5762,-2.9702,-3.2857,-3.1693,-3.0562,-3.0079,-2.939,-2.8772,-2.8329,-2.8059,-2.8081,-2.7993,-2.7917,-2.7811,-2.7927,-2.7921,-2.7784,-2.774,-2.7665,-2.7751,-2.7746,-2.7827,-2.7794,-2.7912,-2.7949,-2.7804,-2.771,-2.7681,-2.7771,-2.7788,-2.7855,-2.7657,-2.762,-2.7503,-2.7565,-2.7369,-2.7282,-2.7178,-2.7099,-2.7082,-2.7033,-2.675,-2.6647,-2.6688,-2.6619,-2.651,-2.6327,-2.6216,-2.6144,-2.5978,-2.5948,-2.5678,-2.5343,-2.5262,-2.5299,-2.5072,-2.477,-2.4693,-2.4583,-2.4512,-2.4387,-2.417,-2.4062,-2.4144,-2.4056,-2.3992,-2.3924,-2.3863,-2.3747,-2.3852,-2.4152,-2.4432,-2.462,-2.4703,-2.5146,-2.5761,-2.5993,-2.6132,-2.642,-2.6823,-2.7174,-2.7295,-2.7553,-2.7746,-2.8058,-2.8173,-2.823,-2.8325,-2.8286,-2.8348,-2.8312,-2.8319,-2.8203,-2.8287,-2.8236,-2.8376,-2.8258,-2.8134,-2.8146,-2.8226,-2.8178,-2.8171,-2.8092,-2.8158,-2.8195,-2.8151,-2.8011,-2.793,-2.7763,-2.7798,-2.7837,-2.7834,-2.7923,-2.7885,-2.7933,-2.794,-2.7846,-2.7873,-2.7962,-2.8022,-2.8144,-2.8079,-2.8113,-2.8161,-2.8145,-2.8164,-2.8334,-2.8342,-2.822,-2.814,-2.8168,-2.8198,-2.8258,-2.823,-2.8219,-2.8319,-2.8415,-2.8294,-2.8266,-2.8342,-2.8185,-2.8211,-2.8073,-2.8282,-2.8509,-2.8488,-2.8336,-2.834,-2.8266,-2.8249,-2.8364,-2.8389,-2.8463,-2.8393,-2.8329,-2.8302,-2.827,-2.8362,-2.8424,-2.8411,-2.8376,-2.8289,-2.8312,-2.8312,-2.8417,-2.8455,-2.8485,-2.8421,-2.8373,-2.839,-2.8317,-2.8246,-2.8385,-2.8408,-2.8423,-2.848,-2.8332,-2.8245,-2.8172,-2.8272,-2.8284,-2.8242,-2.8242,-2.801,-2.7965,-2.7951,-2.7658,-2.7587,-2.7899,-2.8129,-2.8068,-2.816,-2.819,-2.8371,-2.8424,-2.844,-2.8521,-2.8407,-2.8424,-2.85,-2.8539,-2.8404,-2.8415,-2.8577,-2.8549,-2.8602,-2.854,-2.8438,-2.8581,-2.8528,-2.7689,-2.6213,-2.4607,-2.315,-2.2622,-2.3715,-2.7243,-3.0493,-3.1959,-3.169,-3.059,-3.0071,-2.95,-2.8957,-2.8771,-2.867,-2.8353,-2.833,-2.8264,-2.8254,-2.8219,-2.8202,-2.8095,-2.7966,-2.7985,-2.7843,-2.7809,-2.7835,-2.7887,-2.7927,-2.7913,-2.7886,-2.7806,-2.7794,-2.7794,-2.7772,-2.7751,-2.7761,-2.7672,-2.7775,-2.7722,-2.7638,-2.7552,-2.743,-2.7392,-2.7248,-2.7193,-2.7065,-2.7006,-2.6912,-2.6864,-2.6851,-2.6759,-2.6711,-2.648,-2.6334,-2.6319,-2.6139,-2.5879,-2.5766,-2.5691,-2.5427,-2.5204,-2.5032,-2.493,-2.4839,-2.4689,-2.4621,-2.4542,-2.4379,-2.4447,-2.4418,-2.4419,-2.4482,-2.4596,-2.4537,-2.4735,-2.497,-2.5203,-2.546,-2.5777,-2.6205,-2.651,-2.6939,-2.7326,-2.7483,-2.7864,-2.8029,-2.8115,-2.8404,-2.874,-2.8755,-2.8928,-2.8864,-2.8872,-2.8856,-2.9069,-2.8998,-2.8881,-2.9125,-2.9201,-2.9184,-2.9047,-2.883,-2.8818,-2.8812,-2.8745,-2.8892,-2.8768,-2.8706,-2.8651,-2.8673,-2.8728,-2.8503,-2.859,-2.8605,-2.8567,-2.8538,-2.8529,-2.8672,-2.8487,-2.8582,-2.8586,-2.8641,-2.8633,-2.8554,-2.8636,-2.8798,-2.8841,-2.8902,-2.8789,-2.8747,-2.8792,-2.8773,-2.8716,-2.8778,-2.8841,-2.8868,-2.878,-2.8848,-2.8916,-2.887,-2.8708,-2.8641,-2.872,-2.8719,-2.8674,-2.8735,-2.8854,-2.8823,-2.8794,-2.8721,-2.8792,-2.8747,-2.8639,-2.8588,-2.8462,-2.8614,-2.8876,-2.8849,-2.8601,-2.8505,-2.8496,-2.8412,-2.8362,-2.8169,-2.8132,-2.8117,-2.7895,-2.7883,-2.7984,-2.8208,-2.8417,-2.8403,-2.8345,-2.8353,-2.8368,-2.8418,-2.8621,-2.8655,-2.8736,-2.8724,-2.8669,-2.8567,-2.8577,-2.8643,-2.8507,-2.8538,-2.8569,-2.8609,-2.8664,-2.8591,-2.8523,-2.8018,-2.6471,-2.4753,-2.3162,-2.213,-2.2925,-2.6037,-3.0017,-3.2937,-3.1987,-3.0849,-3.0358,-2.9609,-2.8921,-2.8436,-2.8372,-2.8205,-2.8277,-2.8218,-2.8001,-2.7963,-2.8109,-2.784,-2.7832,-2.7916,-2.7856,-2.7791,-2.785,-2.7835,-2.7843,-2.773,-2.7693,-2.7672,-2.7528,-2.7391,-2.7577,-2.7549,-2.7538,-2.7523,-2.7555,-2.7327,-2.7048,-2.7066,-2.7184,-2.7122,-2.6877,-2.6897,-2.6898,-2.6617,-2.6564,-2.6451,-2.6356,-2.6335,-2.6142,-2.5995,-2.5736,-2.5692,-2.5571,-2.5295,-2.4953,-2.4808,-2.482,-2.4599,-2.431,-2.4182,-2.3976,-2.3754,-2.3678,-2.3669,-2.3683,-2.3478,-2.3358,-2.3325,-2.3484,-2.3625,-2.3728,-2.3794,-2.4108,-2.4397,-2.4837,-2.5244,-2.5613,-2.6088,-2.646,-2.6703,-2.6987,-2.7328,-2.7502,-2.7531,-2.7721,-2.7884,-2.7911,-2.7971,-2.8025,-2.8082,-2.8095,-2.8124,-2.796,-2.8205,-2.8203,-2.8158,-2.8171,-2.8097,-2.8128,-2.8209,-2.8101,-2.8036,-2.793,-2.8048,-2.7954,-2.7872,-2.7824,-2.7721,-2.7721,-2.7616,-2.7669,-2.7687,-2.7703,-2.7721,-2.7837,-2.7857,-2.775,-2.7576,-2.7752,-2.7764,-2.7742,-2.7754,-2.7783,-2.7772,-2.7852,-2.7747,-2.7748,-2.7963,-2.7729,-2.7865,-2.8015,-2.8003,-2.7948,-2.782,-2.7888,-2.7907,-2.7918,-2.7904,-2.793,-2.789,-2.7934,-2.7815,-2.7844,-2.7898,-2.7848,-2.7838,-2.7783,-2.7878,-2.7953,-2.7963,-2.7974,-2.7947,-2.7902,-2.7958,-2.7883,-2.7719,-2.7632,-2.7833,-2.794,-2.7833,-2.7895,-2.8002,-2.7907,-2.7786,-2.7753,-2.7752,-2.7897,-2.7898,-2.7988,-2.7899,-2.794,-2.7967,-2.7855,-2.7697,-2.7735,-2.7647,-2.7601,-2.7656,-2.76,-2.7576,-2.7321,-2.7248,-2.7019,-2.6825,-2.7157,-2.7436,-2.7438,-2.7499,-2.7658,-2.7743,-2.7778,-2.7773,-2.7824,-2.8026,-2.7916,-2.7997,-2.8013,-2.7988,-2.7824,-2.7758,-2.7825,-2.7975,-2.7953,-2.795,-2.7954,-2.802,-2.7732,-2.6394,-2.4866,-2.3152,-2.1368,-2.1389,-2.2454,-2.5601,-3.0012,-3.3126,-3.1931,-3.0329,-2.9761,-2.8787,-2.8148,-2.7688,-2.7584,-2.7483,-2.7694,-2.7625,-2.7614,-2.7524,-2.7484,-2.736,-2.7389,-2.7473,-2.7526,-2.7525,-2.745,-2.7295,-2.7313,-2.7278,-2.7355,-2.7218,-2.7174,-2.7205,-2.7229,-2.7194,-2.7136,-2.7008,-2.6895,-2.6846,-2.6769,-2.6637,-2.6675,-2.6576,-2.6537,-2.6532,-2.6449,-2.6281,-2.6174,-2.6116,-2.598,-2.586,-2.5817,-2.5654,-2.5369,-2.5121,-2.5098,-2.4861,-2.4592,-2.4387,-2.4362,-2.4096,-2.3928,-2.3778,-2.3717,-2.3545,-2.3406,-2.3279,-2.3148,-2.2945,-2.2986,-2.3165,-2.3067,-2.3138,-2.3288,-2.3444,-2.3693,-2.3937,-2.4511,-2.488,-2.5229,-2.5747,-2.6048,-2.6474,-2.6662,-2.6865,-2.701,-2.7165,-2.7376,-2.7497,-2.7826,-2.789,-2.7858,-2.781,-2.7833,-2.7852,-2.7761,-2.7978,-2.7965,-2.7831,-2.7818,-2.79,-2.8018,-2.7973,-2.7936,-2.783,-2.7808,-2.7852,-2.7828,-2.7743,-2.7645,-2.7636,-2.7723,-2.7694,-2.7637,-2.7589,-2.7556,-2.7642,-2.7696,-2.7527,-2.7405,-2.741,-2.7649,-2.7694,-2.7671,-2.7719,-2.7585,-2.7749,-2.7684,-2.7551,-2.7611,-2.7621,-2.7699,-2.7754,-2.7772,-2.7694,-2.7783,-2.7935,-2.773,-2.771,-2.7704,-2.7841,-2.7797,-2.7843,-2.7799,-2.7815,-2.7815,-2.7736,-2.7616,-2.7623,-2.7775,-2.7833,-2.7782,-2.7791,-2.7665,-2.7673,-2.7643,-2.7692,-2.783,-2.7877,-2.7739,-2.7706,-2.7776,-2.7959,-2.7952,-2.7991,-2.7845,-2.7595,-2.7681,-2.7811,-2.7863,-2.7888,-2.7799,-2.778,-2.7761,-2.786,-2.7938,-2.7821,-2.785,-2.7876,-2.7867,-2.7836,-2.7809,-2.7942,-2.7906,-2.773,-2.7552,-2.7819,-2.7825,-2.7865,-2.792,-2.7981,-2.7981,-2.7909,-2.7807,-2.7773,-2.7825,-2.7836,-2.7847,-2.7885,-2.8007,-2.7923,-2.7926,-2.7931,-2.7887,-2.788,-2.8134,-2.8074,-2.7848,-2.7722,-2.7705,-2.7606,-2.7715,-2.7637,-2.7482,-2.727,-2.7051,-2.7177,-2.7538,-2.768,-2.7717,-2.7625,-2.7817,-2.7811,-2.7782,-2.7961,-2.8004,-2.8008,-2.7909,-2.8054,-2.8009,-2.805,-2.7986,-2.8011,-2.8064,-2.7834,-2.7806,-2.8179,-2.8439,-2.8172,-2.7388,-2.5835,-2.4159,-2.2536,-2.1827,-2.2273,-2.41,-2.8506,-3.2777,-3.2822,-3.0954,-3.0237,-2.9559,-2.8651,-2.8295,-2.8179,-2.7982,-2.7958,-2.81,-2.7925,-2.8012,-2.8135,-2.7933,-2.7914,-2.7905,-2.7855,-2.7935,-2.8075,-2.8117,-2.809,-2.8007,-2.7932,-2.8039,-2.8112,-2.8124,-2.8018,-2.7951,-2.7904,-2.7988,-2.7961,-2.7786,-2.7728,-2.7735,-2.7738,-2.7691,-2.7517,-2.738,-2.7194,-2.7299,-2.7145,-2.7004,-2.6971,-2.6996,-2.6798,-2.6701,-2.6481,-2.6314,-2.6301,-2.6013,-2.5924,-2.5547,-2.5161,-2.5199,-2.5225,-2.5009,-2.4896,-2.4734,-2.4594,-2.4498,-2.4479,-2.4386,-2.4246,-2.4374,-2.4303,-2.4257,-2.419,-2.4191,-2.45,-2.4816,-2.4989,-2.5346,-2.5926,-2.6284,-2.6719,-2.6977,-2.7122,-2.7289,-2.7642,-2.8014,-2.8381,-2.8428,-2.8577,-2.8587,-2.8711,-2.8692,-2.8916,-2.8958,-2.8859,-2.8997,-2.9026,-2.9009,-2.8975,-2.8993,-2.8963,-2.8937,-2.888,-2.8687,-2.8772,-2.889,-2.8798,-2.8875,-2.8839,-2.8835,-2.8747,-2.8639,-2.8541,-2.8664,-2.8718,-2.8544,-2.8519,-2.8605,-2.8555,-2.8495,-2.8627,-2.8552,-2.854,-2.8687,-2.8662,-2.8704,-2.8772,-2.8884,-2.8958,-2.891,-2.8862,-2.8919,-2.8959,-2.8885,-2.8876,-2.8846,-2.8739,-2.8984,-2.9026,-2.8899,-2.882,-2.894,-2.895,-2.8851,-2.8833,-2.8908,-2.9,-2.9129,-2.9064,-2.9048,-2.8863,-2.8973,-2.9072,-2.9064,-2.9144,-2.9096,-2.9092,-2.9003,-2.8862,-2.8809,-2.8945,-2.903,-2.9168,-2.9191,-2.9243,-2.9083,-2.9072,-2.9063,-2.9126,-2.9153,-2.9166,-2.9163,-2.9233,-2.9146,-2.9118,-2.9062,-2.8998,-2.9089,-2.9314,-2.9203,-2.9015,-2.9124,-2.9243,-2.9241,-2.9286,-2.9154,-2.8895,-2.9044,-2.9036,-2.8862,-2.8996,-2.8885,-2.8672,-2.8708,-2.8578,-2.8478,-2.8728,-2.8773,-2.8748,-2.8889,-2.9048,-2.9138,-2.9168,-2.9225,-2.9351,-2.9238,-2.9292,-2.9298,-2.9305,-2.9366,-2.9179,-2.9271,-2.9418,-2.938,-2.9432,-2.9348,-2.9442,-2.9388,-2.8738,-2.7133,-2.5569,-2.4192,-2.3338,-2.3327,-2.5039,-2.9097,-3.2813,-3.3612,-3.2078,-3.1304,-3.091,-3.0239,-2.9628,-2.9287,-2.9277,-2.9336,-2.9121,-2.8878,-2.9018,-2.9133,-2.8898,-2.8817,-2.8832,-2.8888,-2.8882,-2.8853,-2.8748,-2.8866,-2.882,-2.8747,-2.8834,-2.8765,-2.8661,-2.8626,-2.8633,-2.8504,-2.8536,-2.8599,-2.847,-2.8422,-2.842,-2.8403,-2.8291,-2.8247,-2.7913,-2.7906,-2.797,-2.7926,-2.768,-2.752,-2.7456,-2.7374,-2.7126,-2.7085,-2.6868,-2.6771,-2.6717,-2.6638,-2.6318,-2.6163,-2.5987,-2.5813,-2.5699,-2.5558,-2.5445,-2.5185,-2.5123,-2.5161,-2.5146,-2.5062,-2.4899,-2.4845,-2.4921,-2.4891,-2.5127,-2.5306,-2.5625,-2.5839,-2.6405,-2.6914,-2.7088,-2.7342,-2.7586,-2.7952,-2.8251,-2.852,-2.8781,-2.9121,-2.9353,-2.9368,-2.9434,-2.9406,-2.9507,-2.9525,-2.9641,-2.9648,-2.9663,-2.9529,-2.9719,-2.98,-2.9822,-2.9797,-2.967,-2.9585,-2.9491,-2.9518,-2.969,-2.9583,-2.9623,-2.9571,-2.9427,-2.9457,-2.9404,-2.9448,-2.9393,-2.934,-2.9394,-2.9353,-2.9503,-2.9566,-2.9504,-2.9511,-2.9364,-2.9457,-2.9666,-2.9731,-2.9699,-2.965,-2.9594,-2.9637,-2.9551,-2.9684,-2.98,-2.9705,-2.9785,-2.9818,-2.9764,-2.9507,-2.9621,-2.9774,-2.9899,-2.9917,-2.9835,-2.9817,-2.9799,-2.9743,-2.9787,-2.9761,-2.9876,-2.9847,-2.9795,-3.0059,-3.0029,-2.9799,-2.9836,-2.982,-2.9658,-2.9929,-3.0012,-2.9978,-3.0019,-3.0001,-2.9929,-2.9887,-2.9863,-3.0005,-3.0103,-3.0006,-2.9896,-2.9921,-3.002,-3.0114,-3.0145,-2.9963,-2.9872,-2.9931,-3.0189,-3.0225,-3.013,-3.0142,-3.013,-2.9894,-2.9793,-2.9826,-2.9788,-2.984,-2.9744,-2.9624,-2.9475,-2.9415,-2.9435,-2.9365,-2.9538,-2.9861,-2.9846,-2.9769,-2.9904,-3.011,-3.0172,-3.0219,-3.0129,-3.0104,-3.0182,-3.025,-3.015,-3.0212,-3.0262,-3.0117,-3.0102,-3.0103,-3.0205,-3.0371,-3.0342,-3.019,-2.9511,-2.8023,-2.6314,-2.4941,-2.3999,-2.4962,-2.7889,-3.1744,-3.4433,-3.4202,-3.305,-3.2224,-3.1566,-3.0736,-3.0231,-3.011,-3.0005,-3.0002,-2.9896,-2.9783,-2.9678,-2.9717,-2.9703,-2.9745,-2.9876,-2.9819,-2.9581,-2.9623,-2.9525,-2.9475,-2.939,-2.9414,-2.9492,-2.9538,-2.944,-2.942,-2.9273,-2.9274,-2.9181,-2.9122,-2.8987,-2.9002,-2.9075,-2.8983,-2.8912,-2.8816,-2.8587,-2.8657,-2.8629,-2.8503,-2.8302,-2.8121,-2.7974,-2.7992,-2.7999,-2.7821,-2.7583,-2.743,-2.7385,-2.6986,-2.6807,-2.6539,-2.6452,-2.633,-2.6144,-2.6041,-2.5785,-2.5549,-2.5642,-2.5572,-2.5495,-2.5362,-2.5368,-2.5456,-2.5474,-2.5524,-2.5658,-2.5951,-2.6301,-2.6602,-2.7088,-2.7481,-2.7854,-2.824,-2.8627,-2.8927,-2.9072,-2.936,-2.9687,-2.9706,-2.9798,-2.9779,-2.9866,-3.0026,-3.0167,-3.0212,-3.0206,-3.0125,-3.0127,-3.013,-3.0133,-3.0116,-3.0157,-3.0106,-3.0223,-3.0233,-3.0037,-2.9895,-2.9858,-2.9838,-2.9868,-2.9951,-2.9912,-2.9911,-2.982,-2.9802,-2.9862,-2.9826,-2.9691,-2.9648,-2.9659,-2.9605,-2.9669,-2.9574,-2.9746,-2.971,-2.9746,-2.9827,-2.9878,-2.9845,-2.9774,-2.9894,-2.9994,-2.9867,-2.9779,-2.9887,-2.993,-2.9954,-2.9888,-2.9949,-2.9814,-2.9967,-2.993,-2.9895,-2.9944,-2.9868,-2.982,-2.987,-2.9855,-2.9932,-2.9927,-2.9923,-2.9861,-2.9837,-2.9929,-2.9872,-2.9857,-2.9844,-2.9721,-2.9712,-2.979,-2.9862,-2.9826,-2.9709,-2.9805,-2.986,-2.9902,-2.9971,-2.9974,-2.9909,-2.9929,-2.9783,-2.9591,-2.9542,-2.9511,-2.9568,-2.9551,-2.9293,-2.9266,-2.904,-2.8919,-2.9011,-2.9486,-2.9575,-2.9515,-2.9423,-2.952,-2.9691,-2.9803,-2.9772,-2.9816,-2.9854,-2.9921,-2.9859,-2.9928,-2.9972,-2.9844,-2.9857,-2.9766,-2.9889,-2.9861,-2.9981,-3.0141,-2.9996,-2.9104,-2.7526,-2.5866,-2.4414,-2.3344,-2.4312,-2.5651,-3.0078,-3.4345,-3.4681,-3.3016,-3.1882,-3.1144,-3.0225,-2.9994,-2.9702,-2.9544,-2.9525,-2.9571,-2.9517,-2.9554,-2.9301,-2.9222,-2.9419,-2.945,-2.9407,-2.9312,-2.9239,-2.9194,-2.9073,-2.9053,-2.9187,-2.9305,-2.9205,-2.9148,-2.9014,-2.8964,-2.8821,-2.8803,-2.8908,-2.8791,-2.8589,-2.8687,-2.8661,-2.8605,-2.8414,-2.8396,-2.8262,-2.8155,-2.8032,-2.7908,-2.7768,-2.7719,-2.7634,-2.7466,-2.7251,-2.7137,-2.6929,-2.6685,-2.6352,-2.6147,-2.61,-2.5808,-2.5621,-2.5338,-2.5222,-2.5097,-2.4919,-2.4714,-2.4596,-2.4534,-2.4477,-2.4509,-2.4502,-2.4412,-2.472,-2.4982,-2.5196,-2.5577,-2.6091,-2.6584,-2.7069,-2.7449,-2.788,-2.8154,-2.847,-2.8572,-2.886,-2.8999,-2.9158,-2.9276,-2.9396,-2.9423,-2.9431,-2.947,-2.9453,-2.9712,-2.9705,-2.9614,-2.9587,-2.9571,-2.9602,-2.957,-2.955,-2.9657,-2.9707,-2.9629,-2.9664,-2.9561,-2.9577,-2.9527,-2.9575,-2.9656,-2.9712,-2.9591,-2.9467,-2.9482,-2.9389,-2.9439,-2.9302,-2.922,-2.9305,-2.9399,-2.9416,-2.9501,-2.93,-2.9197,-2.9191,-2.9314,-2.9437,-2.9579,-2.9463,-2.9407,-2.9392,-2.9388,-2.9442,-2.9375,-2.9388,-2.9232,-2.9287,-2.9349,-2.9449,-2.9652,-2.9528,-2.9353,-2.9502,-2.9443,-2.9276,-2.928,-2.9386,-2.943,-2.939,-2.9452,-2.93,-2.9276,-2.9325,-2.9262,-2.9321,-2.9347,-2.9271,-2.9247,-2.9314,-2.9375,-2.9303,-2.933,-2.9275,-2.9242,-2.9355,-2.9293,-2.9346,-2.9319,-2.9227,-2.9204,-2.9334,-2.9428,-2.9339,-2.9337,-2.9241,-2.9385,-2.9301,-2.9261,-2.9166,-2.923,-2.9315,-2.9312,-2.9263,-2.923,-2.9092,-2.9054,-2.9096,-2.9074,-2.8972,-2.8887,-2.8827,-2.8536,-2.8499,-2.8613,-2.883,-2.8872,-2.8771,-2.8974,-2.9052,-2.9075,-2.9054,-2.9346,-2.9427,-2.9462,-2.9375,-2.9348,-2.9309,-2.9306,-2.929,-2.917,-2.9206,-2.9259,-2.9276,-2.9343,-2.9435,-2.9153,-2.8333,-2.6689,-2.4944,-2.3247,-2.2842,-2.4198,-2.789,-3.034,-3.4306,-3.3858,-3.1941,-3.1402,-3.0341,-2.9805,-2.9219,-2.9301,-2.8933,-2.8965,-2.8697,-2.9035,-2.8973,-2.907,-2.8893,-2.8949,-2.8702,-2.8853,-2.8739,-2.8732,-2.8558,-2.8707,-2.8651,-2.88,-2.8647,-2.871,-2.8643,-2.8528,-2.8534,-2.8741,-2.8686,-2.8702,-2.8402,-2.8356,-2.8405,-2.832,-2.8268,-2.822,-2.8026,-2.8064,-2.8045,-2.7846,-2.7701,-2.7741,-2.7597,-2.7534,-2.724,-2.696,-2.7001,-2.6858,-2.677,-2.6506,-2.6274,-2.6086,-2.598,-2.5614,-2.5336,-2.5249,-2.5275,-2.5138,-2.506,-2.4909,-2.4766,-2.4725,-2.4832,-2.486,-2.4786,-2.4754,-2.4994,-2.5403,-2.5846,-2.608,-2.6524,-2.7001,-2.753,-2.7861,-2.8299,-2.8524,-2.8782,-2.897,-2.9152,-2.9375,-2.9483,-2.9652,-2.9841,-2.9936,-3.0023,-2.997,-3.0007,-2.9998,-3.0078,-3.0142,-3.0146,-3.0159,-3.0228,-3.0083,-3.0197,-3.0161,-3.007,-3.0089,-3.0115,-3.0175,-3.0209,-3.0149,-3.004,-3.0004,-3.0069,-3.0018,-2.9992,-2.9974,-3.006,-3.0076,-3.0022,-2.9986,-2.9998,-2.9913,-2.9905,-2.9862,-2.9882,-2.9849,-2.986,-2.9927,-3.0028,-2.9939,-2.9899,-2.9799,-3.0112,-3.0198,-3.0048,-3.0002,-3.0124,-3.0146,-3.0154,-3.0001,-2.9975,-2.9956,-3.0007,-3.0051,-3.0099,-3.0037,-2.9985,-2.9936,-2.9944,-2.9984,-3.0088,-3.0056,-2.9911,-2.997,-2.9934,-2.9978,-2.9926,-2.984,-2.9953,-2.9948,-2.9897,-2.995,-2.9848,-3.004,-2.996,-2.9848,-2.9823,-2.9759,-2.9874,-2.9894,-2.9884,-2.9868,-2.9838,-2.9725,-2.9727,-2.9818,-2.9815,-2.9816,-2.9811,-2.9837,-2.9628,-2.9755,-2.9688,-2.9777,-2.9715,-2.9729,-2.9682,-2.9702,-2.9687,-2.9469,-2.9379,-2.9492,-2.9531,-2.9412,-2.9163,-2.9081,-2.9104,-2.8926,-2.893,-2.9186,-2.9204,-2.9294,-2.9177,-2.9281,-2.9515,-2.9607,-2.9596,-2.9616,-2.9565,-2.9573,-2.9772,-2.9666,-2.9631,-2.966,-2.9613,-2.9641,-2.9589,-2.9591,-2.9551,-2.9631,-2.9766,-2.9241,-2.7519,-2.5779,-2.4294,-2.3358,-2.3617,-2.5315,-2.9002,-3.2622,-3.3342,-3.2073,-3.1275,-3.0905,-3.0341,-3.0009,-2.9605,-2.9387,-2.9196,-2.9107,-2.92,-2.932,-2.9357,-2.9245,-2.9066,-2.9007,-2.91,-2.9112,-2.8934,-2.8949,-2.9019,-2.903,-2.8847,-2.8939,-2.9056,-2.9007,-2.9017,-2.8871,-2.8936,-2.8801,-2.8829,-2.8681,-2.8591,-2.8589,-2.8495,-2.851,-2.8555,-2.8561,-2.8451,-2.831,-2.8127,-2.8165,-2.7998,-2.7866,-2.7787,-2.761,-2.755,-2.7399,-2.7227,-2.7145,-2.6895,-2.6809,-2.6584,-2.6334,-2.6043,-2.5917,-2.5948,-2.5911,-2.5774,-2.5541,-2.5372,-2.5391,-2.5369,-2.5262,-2.5154,-2.5106,-2.5248,-2.5388,-2.5638,-2.5828,-2.625,-2.6567,-2.6871,-2.7266,-2.7605,-2.7944,-2.8371,-2.8549,-2.8819,-2.8984,-2.9178,-2.9263,-2.9446,-2.9726,-2.9774,-2.9877,-2.9908,-2.9943,-3.0004,-2.9995,-2.9963,-3.0083,-3.0047,-3.0205,-3.0238,-3.0185,-2.9999,-2.9931,-3.0121,-2.9928,-2.9865,-2.9978,-3.0112,-2.9917,-2.9902,-2.9783,-2.9593,-2.9632,-2.9894,-2.9883,-2.9879,-2.9847,-2.9789,-2.9854,-2.9847,-2.9917,-2.9889,-2.9926,-3.0037,-2.9899,-2.9967,-2.9988,-3.0036,-2.9976,-2.995,-3.0004,-3.0118,-2.9977,-3.0032,-3.022,-3.0155,-3.0259,-3.0092,-3.0213,-3.0199,-3.0218,-3.0179,-3.0117,-3.0204,-3.0294,-3.028,-3.0138,-3.0159,-3.0122,-2.9946,-3.0031,-3.0308,-3.0459,-3.0312,-3.0377,-3.0327,-3.0228,-3.0324,-3.0329,-3.0357,-3.01,-3.0145,-3.0149,-3.0125,-3.0065,-3.0059,-2.9767,-2.9726,-2.9604,-2.9641,-2.9836,-3.0152,-3.0008,-3.0064,-3.0179,-3.0353,-3.0555,-3.0533,-3.0614,-3.0576,-3.0555,-3.0519,-3.0612,-3.0701,-3.0644,-3.0577,-3.0504,-3.0527,-3.0522,-3.0602,-3.0916,-3.0876,-3.0761,-2.9712,-2.8056,-2.6456,-2.4777,-2.3973,-2.5301,-2.8875,-3.2715,-3.4632,-3.4169,-3.2961,-3.2381,-3.1792,-3.1205,-3.0687,-3.062,-3.0311,-3.0369,-3.0262,-3.022,-3.0122,-3.0099,-3.011,-3.0186,-3.0067,-3.0107,-3.0032,-2.9916,-2.9935,-3.0013,-2.9937,-2.9963,-2.987,-2.9854,-2.9744,-2.97,-2.975,-2.9686,-2.9617,-2.9684,-2.9608,-2.9453,-2.9516,-2.9469,-2.937,-2.9093,-2.9068,-2.9095,-2.9121,-2.8974,-2.8888,-2.882,-2.8547,-2.8415,-2.8282,-2.8201,-2.8095,-2.7821,-2.7654,-2.7352,-2.7131,-2.6976,-2.6822,-2.6585,-2.6314,-2.6013,-2.6044,-2.5733,-2.5678,-2.5668,-2.5621,-2.544,-2.5296,-2.5301,-2.5336,-2.5599,-2.5783,-2.5971,-2.6259,-2.6662,-2.7094,-2.7424,-2.79,-2.8318,-2.8558,-2.887,-2.9129,-2.9285,-2.9484,-2.951,-2.9796,-2.9889,-2.9789,-2.9823,-2.9861,-3.0033,-3.0013,-3.0063,-3.0049,-3.0067,-3.0073,-3.0014,-2.9915,-2.9923,-3.0056,-3.0008,-2.996,-2.9953,-2.985,-2.9736,-2.9656,-2.9839,-2.9878,-2.9697,-2.9571,-2.958,-2.961,-2.9594,-2.9504,-2.9318,-2.9471,-2.9491,-2.9545,-2.9506,-2.942,-2.9472,-2.9573,-2.9495,-2.9507,-2.9509,-2.9428,-2.9523,-2.9583,-2.9593,-2.9583,-2.9517,-2.9642,-2.9644,-2.9628,-2.9635,-2.9481,-2.9579,-2.9564,-2.9682,-2.9585,-2.9559,-2.9696,-2.9645,-2.9476,-2.9512,-2.9611,-2.9687,-2.9475,-2.9512,-2.9563,-2.9609,-2.9709,-2.9589,-2.9594,-2.9568,-2.9577,-2.9463,-2.9541,-2.9486,-2.9635,-2.9575,-2.963,-2.9533,-2.9539,-2.9588,-2.9524,-2.9494,-2.9517,-2.9531,-2.9597,-2.951,-2.9489,-2.9615,-2.9726,-2.9578,-2.9356,-2.9452,-2.96,-2.9579,-2.9531,-2.9624,-2.9556,-2.9393,-2.9221,-2.9304,-2.9292,-2.9336,-2.9254,-2.9002,-2.8895,-2.8919,-2.8746,-2.8615,-2.8721,-2.912,-2.9046,-2.9016,-2.9027,-2.9242,-2.9438,-2.9427,-2.9474,-2.9438,-2.9309,-2.9348,-2.939,-2.9461,-2.9448,-2.9399,-2.9465,-2.946,-2.9384,-2.9356,-2.9554,-2.9554,-2.8872,-2.7221,-2.5302,-2.3761,-2.2853,-2.3574,-2.6393,-3.1089,-3.4423,-3.3396,-3.2541,-3.136,-3.054,-2.9927,-2.9313,-2.9179,-2.9078,-2.9125,-2.9063,-2.8972,-2.8969,-2.8955,-2.8732,-2.8944,-2.8769,-2.8792,-2.8626,-2.8739,-2.8635,-2.8683,-2.8548,-2.8723,-2.8658,-2.8567,-2.8357,-2.8401,-2.8466,-2.8506,-2.8383,-2.834,-2.8306,-2.8251,-2.8108,-2.8032,-2.7901,-2.7869,-2.7824,-2.7705,-2.75,-2.7469
