0.91125,0.90885,0.92077,0.92253,0.91984,0.91995,0.91719,0.92042,0.93096,0.9297,0.92747,0.89895,0.84681,0.7796,0.78078,0.82662,0.97078,1.3035,1.7492,2.1199,2.2428,2.3647,2.5566,2.1394,1.4791,0.92306,0.59258,0.48481,0.39323,0.43596,0.51812,0.63499,0.78898,0.88067,0.91174,0.93519,0.92745,0.92762,0.94615,0.947,0.9408,0.94651,0.94627,0.97044,0.96674,0.97494,0.95599,0.96226,0.95866,0.97942,0.98528,0.99415,0.9678,0.97136,0.97705,0.98482,0.98667,0.99021,0.97501,0.97952,0.98904,1.0018,0.97373,0.98779,0.99,0.99047,1.002,0.99861,0.99062,0.99602,0.99617,0.99837,0.97451,0.98552,0.98859,1.0053,1.0098,1.0121,1.0158,0.99866,1.0108,1.0198,1.0353,1.0333,1.0358,1.0356,1.0547,1.0792,1.0506,1.0614,1.0726,1.0797,1.0827,1.0642,1.0807,1.1102,1.1079,1.0875,1.088,1.0954,1.101,1.0833,1.0846,1.0789,1.0714,1.0519,1.0415,1.0465,1.0404,1.0238,1.0298,1.0067,1.0148,0.9987,0.99001,0.98625,1.0089,0.99441,0.9935,0.98932,0.98177,1.0008,1.0035,0.99866,0.9958,0.98698,0.9904,1.0025,0.99802,0.99782,1.0044,1.0054,1.0067,1.0031,1.0038,0.99889,0.98636,0.98657,1.0023,1.0023,0.98897,0.99017,1.0054,1.0013,1.0023,1.0009,0.99218,1.0087,0.99446,0.9856,0.99402,0.98509,0.97791,0.97915,0.97773,0.98436,0.99705,0.99358,0.98532,0.97487,0.97944,0.98014,0.97954,0.97817,0.97943,0.97877,0.98795,0.98798,0.97329,0.97295,0.98261,0.98966,0.97855,0.97682,0.96521,0.96913,0.97162,0.97354,0.97416,0.97869,0.98173,0.9753,0.97554,0.9764,0.97651,0.98158,0.9846,0.9789,0.98949,0.97566,0.9701,0.96072,0.97953,0.97992,0.98399,0.98932,0.98277,0.99803,1.0203,1.0515,1.0421,1.0162,1.0383,1.0492,1.0663,1.0729,1.0634,1.0702,1.0613,1.0447,1.0369,1.005,0.97,0.95375,0.96606,0.96208,0.95707,0.95249,0.94772,0.96476,0.96538,0.95803,0.95044,0.95398,0.9626,0.97232,0.96257,0.95532,0.9275,0.85788,0.7993,0.8187,0.84896,1.027,1.4234,1.8574,2.0765,2.3424,2.5358,2.6717,2.1998,1.5106,0.91704,0.59344,0.49745,0.41502,0.51269,0.62167,0.77408,0.88224,0.95766,0.95747,0.952,0.94295,0.96776,0.95739,0.98311,0.96713,0.98083,0.97489,0.99116,0.98312,0.98175,0.98196,0.99232,1.0028,1.0128,0.99006,0.99659,1.0044,1.0085,0.99058,1.0032,0.99083,1.0149,1.0052,1.0144,0.99505,1.0006,1.004,1.011,1.0192,1.0068,0.99901,1.0185,1.0143,1.0211,1.0324,1.0089,1.0112,1.0266,1.0202,1.0285,1.0139,1.0112,1.0133,1.0201,1.0386,1.042,1.0391,1.0375,1.0449,1.0493,1.0569,1.0656,1.0675,1.0697,1.0849,1.0865,1.0925,1.0867,1.1028,1.1078,1.1165,1.0976,1.1006,1.1067,1.1207,1.0941,1.0832,1.0828,1.0775,1.0531,1.0698,1.0593,1.0462,1.0409,1.0371,1.0498,1.023,1.0231,1.0361,1.0131,1.0244,1.0148,1.0174,1.0171,1.0091,1.0155,1.0165,1.0039,1.0049,1.0129,1.0213,1.0347,1.0241,1.0266,1.0337,1.0075,1.019,0.99544,0.99825,1.0054,1.0188,1.0103,1.0233,1.0153,1.0162,0.99715,0.99366,0.99374,1.0029,1.0011,1.0006,1.0051,1.013,1.0047,0.98759,1.0137,1.0159,1.0038,0.99714,0.989,0.99399,0.99654,1.008,0.99405,0.99559,1.0064,1.0072,0.99514,0.99777,0.98021,0.99449,1.0138,0.99199,0.99682,0.98535,0.98798,0.99604,1.002,0.99658,0.99518,1.0002,0.99196,0.99715,0.98981,0.99294,0.98258,0.99664,0.99643,0.98315,0.99241,0.98208,0.98994,0.99333,0.98334,0.97286,0.97134,0.98308,1.0023,0.98406,0.96927,0.97534,0.97706,0.97675,1.0088,0.98433,0.96032,0.99084,0.97797,0.96832,0.9828,0.97909,0.97531,0.9595,0.99282,0.96802,0.96722,0.9663,0.97467,0.98142,0.98083,0.97821,0.99146,1.0114,1.0308,1.034,1.0231,1.0195,1.0397,1.0571,1.0391,1.0562,1.0713,1.0569,1.0282,1.0126,0.98864,0.9767,0.95532,0.97001,0.96576,0.93536,0.95247,0.94652,0.95018,0.93419,0.95978,0.94435,0.96183,0.95268,0.95649,0.94892,0.94855,0.91196,0.85351,0.80621,0.81749,0.87926,1.0733,1.4959,1.7295,2.1167,2.3326,2.5328,2.5859,2.004,1.3491,0.82364,0.58541,0.47907,0.43167,0.47148,0.59749,0.72436,0.84952,0.91682,0.93579,0.93015,0.9488,0.94906,0.97302,0.96409,0.96342,0.96881,0.97998,0.96978,0.96646,0.97819,0.99187,0.98171,0.9981,0.99394,0.97045,0.97809,0.97826,0.98335,0.99491,1.0052,0.97283,0.97334,0.98368,0.9937,1.0035,0.98453,0.98541,0.99377,1.0019,1.0055,0.99585,0.99742,0.99792,1.0079,0.99638,0.98525,0.99552,1.0231,1.0113,1.015,1.0038,1.0076,1.0054,1.0297,1.029,1.0177,1.0209,1.0328,1.0463,1.0552,1.0313,1.0335,1.0747,1.0602,1.0653,1.0725,1.0716,1.0807,1.0943,1.0984,1.0856,1.0911,1.1018,1.101,1.0897,1.0836,1.0666,1.0705,1.0715,1.0746,1.0369,1.0284,1.0193,1.0259,1.0228,1.0069,1.0118,1.0081,1.0091,1.004,1.0015,0.98811,0.97162,1.0009,1.0187,1.0231,1.0138,1.007,1.0075,0.9913,0.9809,1.0087,0.99647,0.98742,1.0298,1.0375,1.0195,1.0076,1.0027,0.99452,1.0012,1.0104,1.0012,1.0127,1.004,0.99504,1.0205,0.98229,0.9764,1.0035,1.0162,1.0055,0.9954,0.99465,1.0018,1.0041,1.0098,0.99753,0.99708,0.99883,0.98366,1.0013,0.99716,0.98075,0.96771,0.9756,0.99034,1.0054,0.97965,0.9772,0.98704,0.99494,0.96704,0.97712,0.98584,0.98233,0.9955,0.97539,0.9651,0.96921,0.97699,0.97052,0.97576,0.99018,0.98163,0.97216,0.99403,1.0032,1.0126,1.0315,1.0412,1.015,1.0224,1.04,1.0535,1.0553,1.067,1.0663,1.0733,1.0643,1.0267,1.0194,0.99344,0.95916,0.93328,0.94652,0.94324,0.94399,0.96139,0.94554,0.94251,0.94574,0.95354,0.94977,0.95625,0.95641,0.95157,0.95686,0.95753,0.92627,0.85209,0.81635,0.81243,0.86862,1.0558,1.4859,1.906,2.2111,2.3694,2.5704,2.3124,1.6561,1.0658,0.69121,0.53062,0.42873,0.45597,0.51146,0.57338,0.70903,0.82322,0.90538,0.95281,0.92618,0.94334,0.93649,0.96473,0.96365,0.98472,0.97668,0.98012,0.9753,0.98936,0.98391,0.99111,0.99009,0.99642,0.98273,0.98383,0.9845,0.98737,0.98261,1.0033,1.0129,1.0072,0.98898,1.0042,1.0173,1.0049,1.0048,1.0191,1.0303,1.019,1.0227,1.0365,1.0146,1.034,1.0169,1.0283,1.0259,1.0213,1.0373,1.0379,1.0402,1.0356,1.0446,1.0413,1.0374,1.0676,1.068,1.0729,1.0687,1.0867,1.0925,1.0889,1.088,1.0885,1.086,1.0955,1.123,1.1323,1.1235,1.1103,1.1227,1.1315,1.1367,1.1188,1.1073,1.1133,1.1122,1.1078,1.0753,1.0513,1.0753,1.0567,1.0601,1.0514,1.0432,1.0397,1.0384,1.0249,1.0285,1.0077,1.01,1.0117,1.0192,1.0057,1.0042,1.0012,0.9937,0.99367,1.0045,1.0218,1.025,1.015,1.0303,1.0274,1.0281,1.0231,1.0122,1.0115,1.0093,1.0052,1.0079,1.0054,1.0111,1.0201,1.027,1.0067,1.01,1.0095,1,1.0104,1.0061,1.0074,1.0057,0.99691,1.019,0.99922,0.99256,0.99338,0.99785,1.0022,0.98999,1.0007,1.0022,0.99721,0.97998,0.98621,0.9918,0.9866,1.0075,0.9909,0.99454,0.98133,0.97712,0.99385,0.99086,0.9823,0.98249,0.99049,0.99548,0.99291,0.98045,0.98551,0.98411,0.98012,0.97973,0.9819,0.98666,0.97682,0.97505,0.98359,0.96699,0.96457,0.98232,0.97672,0.98352,1.0067,1.0056,1.0191,1.0467,1.0494,1.031,1.0341,1.0592,1.0671,1.0757,1.0637,1.0468,1.0504,1.0324,1.0385,1.0127,0.95828,0.96172,0.95645,0.96486,0.9554,0.94171,0.94985,0.95075,0.95748,0.9549,0.9652,0.95473,0.94355,0.95825,0.95642,0.95298,0.91081,0.83348,0.8064,0.83468,0.87107,1.0173,1.3909,1.8311,2.2166,2.3958,2.6781,2.4941,1.8359,1.2074,0.72656,0.55725,0.44866,0.45442,0.56579,0.70408,0.82878,0.92799,0.95955,0.96447,0.95918,0.9688,0.96735,0.97371,0.97755,0.99377,0.97859,0.98716,1.0089,0.99903,0.98725,0.98144,0.97339,0.98643,1.0063,1.007,1.0034,1.0034,1.0092,1.004,1.0042,1.0035,1.0185,1.0089,1.0166,1.0115,1.0116,0.99332,0.98508,1.0098,1.0282,1.0126,1.0216,1.0016,1.0055,1.0248,1.0118,1.0081,1.0031,1.007,1.013,1.0347,1.0252,1.0224,1.02,1.0317,1.0223,1.0405,1.0434,1.0438,1.0642,1.066,1.0629,1.061,1.0723,1.0815,1.0818,1.0858,1.0915,1.0939,1.1067,1.1138,1.103,1.0935,1.1019,1.0919,1.0953,1.085,1.0888,1.0555,1.0506,1.067,1.0613,1.0424,1.0414,1.019,1.0343,1.0628,1.0444,1.0223,1.0122,1.0194,1.0286,1.0115,1.0212,1.015,1.014,1.0271,1.018,1.027,1.0344,1.0152,1.0215,1.0308,1.0267,1.0188,1.0174,1.0254,1.0218,1.0065,0.99329,1.0223,1.0334,1.0195,1.0087,1.0073,1.0048,1.0224,1.0074,0.99324,0.9995,0.99811,0.99326,0.99146,0.99576,1.0045,0.99907,0.99865,1.0014,0.99419,0.99036,0.99022,0.99694,0.99745,0.98882,0.98268,0.97569,0.98035,0.9729,0.96845,0.98142,0.9742,1.0066,0.99831,0.98889,0.98866,0.98078,0.98548,0.98048,0.97741,0.98103,0.97145,0.97308,0.99152,0.99355,0.96729,0.96078,0.98529,0.99011,0.98897,0.98094,0.9756,0.97802,0.95715,0.96063,0.9706,0.96862,0.97412,0.97488,0.97919,0.96909,0.96062,0.96029,0.9613,0.97114,0.98001,0.97385,0.98193,0.95465,0.97054,0.97079,0.95796,0.9619,0.95887,0.95464,0.97394,0.96801,0.96029,0.97188,0.97231,0.95287,0.9576,0.97252,0.99512,1.0157,1.0234,0.99246,1.004,1.0303,1.0506,1.0619,1.0708,1.0426,1.0579,1.028,1.0166,1.0175,1.0001,0.96064,0.93397,0.95,0.94029,0.93519,0.94704,0.94266,0.93586,0.93749,0.94008,0.94422,0.94892,0.939,0.92595,0.92591,0.92808,0.87809,0.79228,0.78047,0.78024,0.84895,1.0506,1.4865,1.9206,2.2407,2.4294,2.7138,2.38,1.6786,1.0543,0.63208,0.5089,0.40575,0.44444,0.55994,0.72065,0.84209,0.93496,0.94262,0.94175,0.90252,0.936,0.92977,0.96076,0.95774,0.95715,0.93573,0.95159,0.96497,0.97538,0.96175,0.95704,0.96333,0.98407,0.98081,0.97756,0.99237,0.98409,0.97601,0.96964,0.97602,0.97594,0.97806,0.97982,0.9817,1.0037,0.98347,0.9671,0.9815,0.98866,0.97899,0.98038,0.98278,0.9923,1.0107,0.98811,0.98914,0.98537,0.99593,0.99625,0.99979,0.996,1.0052,0.99466,1.0128,1.0196,1.0207,1.0157,1.0274,1.0321,1.0433,1.0503,1.0462,1.046,1.0516,1.0565,1.0669,1.0648,1.0563,1.0682,1.088,1.0757,1.0884,1.0955,1.1027,1.0992,1.0855,1.0841,1.0856,1.0617,1.0571,1.0438,1.0485,1.0283,1.0401,1.0373,1.0246,1.0103,1.0225,1.0115,1.0146,1.0045,1.006,1.0215,0.99255,1.012,1.0094,0.99918,0.99551,0.99527,1.0078,1.0086,1.0029,0.98781,1.0019,1.0051,0.99898,0.9971,0.99466,0.98877,0.98229,0.97431,0.99844,0.9797,0.97587,0.98424,0.98906,0.98489,0.9805,0.979,0.98542,0.98529,0.9759,0.96606,0.97022,0.97877,0.97069,0.96921,0.96103,0.96412,0.96289,0.96139,0.96991,0.95777,0.94085,0.96968,0.96668,0.96547,0.96378,0.96608,0.96888,0.95073,0.96151,0.94889,0.94495,0.9492,0.94808,0.94852,0.94687,0.95187,0.9545,0.96364,0.94384,0.959,0.95094,0.94953,0.95523,0.9617,0.96789,0.94847,0.93648,0.94334,0.95706,0.94715,0.93181,0.92932,0.9438,0.93835,0.93859,0.9437,0.935,0.93286,0.92303,0.94082,0.93625,0.93244,0.94136,0.94364,0.93403,0.93437,0.91984,0.91387,0.92474,0.94393,0.94708,0.9476,0.92365,0.94356,0.95199,0.95816,0.96499,0.98083,0.97993,0.99945,1.0072,1.0162,1.0137,1.002,1.0278,1.0086,0.96707,0.95866,0.94578,0.91126,0.90013,0.899,0.89094,0.90806,0.90816,0.92049,0.89912,0.89962,0.89983,0.90456,0.91717,0.90348,0.89281,0.9074,0.89202,0.83417,0.76507,0.74289,0.77623,0.8808,1.0292,1.4331,1.8692,2.1733,2.3295,2.488,2.1734,1.5026,0.91203,0.59145,0.49089,0.38499,0.40733,0.44643,0.57918,0.69566,0.82646,0.87199,0.91186,0.90038,0.90298,0.89291,0.90705,0.90443,0.9162,0.92927,0.93061,0.90967,0.92568,0.94008,0.94503,0.93995,0.94006,0.94416,0.94583,0.93963,0.94509,0.94865,0.95202,0.9358,0.95119,0.95136,0.95515,0.94316,0.96098,0.96402,0.96109,0.96009,0.96022,0.94785,0.96375,0.97032,0.96845,0.96076,0.96292,0.9688,0.95524,0.97405,0.97646,0.97963,0.98233,0.96676,0.97436,0.9686,0.96975,0.97364,0.9938,0.9942,1.0046,1.0121,1.0093,1.0153,1.0077,1.0275,1.0307,1.0527,1.0168,1.0502,1.0878,1.0555,1.0529,1.0598,1.0901,1.0867,1.0596,1.0345,1.0788,1.064,1.0512,1.0542,1.0287,1.0281,1.0246,1.0471,1.0306,1.0249,1.0089,1.0224,1.0204,1.0236,1.03,1.0211,1.0166,1.0383,1.0289,1.0367,1.0121,1.0253,1.0265,1.0211,1.0354,1.0204,1.0173,1.0251,1.0101,1.0259,1.0177,1.021,1.0227,1.0173,1.0171,1.0119,1.0372,1.0427,1.0344,1.0059,1.0204,0.99719,1.0198,1.0501,1.0356,1.0372,1.008,1.0259,1.0498,1.0395,1.0621,1.0616,1.0079,1.0192,0.97538,1.044,1.0533,1.0507,1.0263,1.0102,1.027,1.0218,1.0455,1.0269,1.0237,1.0132,1.0223,1.0368,1.0096,0.99721,1.0138,1.0052,0.9985,1.0168,1.0089,0.96723,0.99874,1.0663,1.093,1.0561,1.0647,1.0137,1.0227,1.1039,1.1011,1.0609,1.0745,1.0559,1.0449,1.0207,1.0515,1.0367,0.96421,0.9602,0.96925,0.9891,0.99232,0.97352,0.96141,0.9516,0.97879,0.99878,0.96119,0.96392,0.98808,0.96731,0.96799,0.97105,0.86161,0.80945,0.83697,0.82526,0.92044,1.2164,1.6565,2.0855,2.3423,2.5141,2.6189,2.1226,1.494,0.90969,0.58997,0.50364,0.41974,0.50126,0.56181,0.74168,0.85132,0.96498,0.97556,0.97043,0.93693,0.94207,0.9917,1.0116,0.97828,0.99992,0.98205,0.9932,1.0062,1.0345,1.0068,0.97166,1.0168,1.0184,1.0076,0.99884,0.98585,1.0166,1.0057,0.99413,0.99235,0.96851,0.95273,1.028,1.02,0.99459,0.95101,1.0009,1.0351,1.0062,1.008,0.97362,0.98814,0.96783,0.993,0.97933,0.98874,0.97986,1.0078,1.0177,0.97776,1.0013,1.02,1.0026,1.0043,1.0063,1.0166,0.9944,1.0143,1.0358,1.0238,1.0428,1.0522,1.0054,1.0272,1.0592,1.0749,1.0558,1.0473,1.0307,1.097,1.0648,1.0615,1.0702,1.057,1.0551,1.0361,1.0193,1.0185,1.0495,1.0227,0.98781,0.94383,0.95597,1.0187,0.97374,0.99299,0.98571,0.9459,0.94181,0.9768,0.94921,0.96938,0.98278,0.93454,0.93594,0.93368,0.97532,0.96177,0.95725,0.96182,0.94222,0.9792,0.93202,0.96171,0.98634,0.96625,0.95733,0.9594,0.94447,0.95793,0.95152,0.95382,0.98977,0.95435,0.94209,0.948,0.91657,0.95876,0.97179,0.98476,0.92496,0.96275,0.94079,0.9264,0.93765,0.93497,0.96204,0.93459,0.88559,0.94813,0.97148,0.94803,0.93667,0.89905,0.94705,0.93959,0.94803,0.93187,0.94722,0.91911,0.92557,0.9414,0.94621,0.91599,0.94892,0.92481,0.95367,0.91103,0.91038,0.95769,0.94327,0.93921,0.98301,0.97722,0.94052,0.9512,1.0392,1.0329,1.0095,1.0052,0.99448,1.0238,0.9993,0.94703,0.97228,0.94284,0.94023,0.87535,0.91062,0.88342,0.88905,0.90898,0.86948,0.87871,0.87952,0.87149,0.87469,0.89502,0.9005,0.88139,0.86924,0.86367,0.86446,0.81051,0.78079,0.7603,0.75611,0.77988,1.0638,1.4534,1.9223,2.2444,2.3729,2.6797,2.2245,1.5359,0.89342,0.51548,0.47945,0.37845,0.42169,0.53787,0.69264,0.80597,0.83599,0.85756,0.91949,0.90681,0.91126,0.8871,0.86886,0.88183,0.91113,0.94244,0.92169,0.88947,0.90568,0.93037,0.91453,0.92526,0.92741,0.91884,0.91482,0.94983,0.95717,0.92988,0.92337,0.92452,0.94451,0.94902,0.96652,0.97878,0.93338,0.91495,0.95207,0.95541,0.96041,0.9508,0.94303,0.97406,0.98466,0.9344,0.91944,0.97459,0.95231,0.94492,1.0004,0.98074,0.96469,0.94301,0.97126,0.98717,0.97356,0.97015,0.98521,1.0193,0.98488,1.0243,1.0095,1.022,1.0181,1.0134,1.0428,1.0462,1.0336,1.0556,1.0639,1.0484,1.009,1.0408,1.0571,1.0679,1.0674,1.0568,1.0284,1.01,1.0029,0.97481,1.0081,1.0078,0.95954,0.98442,0.96227,0.96262,0.95758,0.98203,1.022,1.016,0.95199,0.95262,0.99819,0.99041,0.96505,0.98922,0.94403,0.9913,0.95245,0.95284,0.99323,0.9888,1.0086,0.99203,0.97958,0.91202,0.98082,0.98911,0.98084,0.9571,0.95282,0.95244,0.95653,0.96908,0.95994,0.94316,0.9428,0.99943,1.0149,0.98995,0.95367,0.94534,0.95211,0.9763,0.95168,0.93235,0.97766,0.9821,0.96479,0.94915,0.95508,0.96763,0.95747,0.96718,0.97392,0.92026,0.92847,0.99834,0.99754,0.96136,0.92879,0.9316,0.98545,0.96298,0.96527,0.94767,0.94889,0.96068,0.96172,0.97341,0.95979,0.93721,0.95241,0.93323,0.96425,0.95729,0.9641,0.95177,0.93264,0.96024,0.95499,0.95195,0.98751,1.0061,1.0066,1.0194,0.97632,1.0323,1.0498,1.0426,1.0164,1.048,1.0569,1.055,1.049,1.0193,0.98231,0.93724,0.95929,0.93103,0.91369,0.93036,0.91906,0.92087,0.96766,0.93291,0.92854,0.93914,0.94215,0.91247,0.92609,0.92073,0.95123,0.96282,0.90863,0.79154,0.77462,0.81186,0.85164,1.0564,1.4391,1.8976,2.106,2.3034,2.4899,2.5395,2.0119,1.3366,0.80437,0.58585,0.42408,0.38401,0.4815,0.57731,0.72792,0.83114,0.917,0.91224,0.91683,0.92899,0.9151,0.88658,0.92292,0.91368,0.97467,0.91764,0.95303,0.90665,0.9701,0.95502,0.98668,0.95776,0.97114,0.91869,0.94944,0.96313,0.94254,0.92735,0.9745,0.94324,0.97642,0.98289,0.96846,0.93177,0.95675,0.95761,0.96148,0.96427,0.95651,0.95035,0.9768,0.98173,0.96779,0.98082,0.96916,0.99422,0.99117,0.97852,0.98642,0.9873,0.94545,0.9944,0.9705,1.0169,1.0015,1.0067,0.99688,1.0135,1.0032,1.0542,1.0095,1.0664,0.99595,0.97801,1.0633,1.0747,1.0775,1.0878,1.0725,1.0404,1.0569,1.1012,1.0859,1.0532,1.0552,1.0582,1.0162,1.042,1.0342,1.0323,1.0297,1.0407,0.99425,1.0114,0.92961,0.97518,1.0059,0.99957,0.93753,0.99396,1.002,1.0047,0.99859,1.0053,0.96878,0.93939,0.95874,1.0259,1.0131,0.95533,0.94419,0.99616,0.99209,0.9854,1.0138,0.97611,0.92511,0.98225,1.0349,0.92844,0.93341,0.96967,0.95334,0.96738,0.97748,0.98118,0.94222,0.96953,0.94532,0.94551,0.97413,0.93754,1.0258,0.92205,0.92227,0.96438,0.91718,0.94055,0.9594,0.93309,0.9077,0.8974,0.96791,0.98987,0.9207,0.91447,0.9294,0.90678,0.95864,0.9319,0.96755,0.89676,0.88145,0.93463,0.96132,0.96051,0.95961,0.92904,0.8998,0.93336,0.92635,0.92299,0.97952,1.0256,1.0116,0.95547,1.0102,1.0434,1.0105,1.0402,0.99626,1.0278,0.99185,0.91235,0.99257,1.0013,0.91475,0.90862,0.9269,0.93107,0.91076,0.86952,0.90084,0.9354,0.90575,0.92709,0.92179,0.88451,0.94043,0.93155,0.92965,0.92119,0.87797,0.76165,0.80791,0.79035,0.86332,1.0173,1.3817,1.6055,1.9645,2.2306,2.3926,2.5533,2.0587,1.3964,0.83767,0.53792,0.42604,0.45782,0.50123,0.55317,0.66933,0.79013,0.86214,0.94501,0.94989,0.94343,0.93117,0.95313,0.9407,0.93814,0.96471,0.91568,1.0208,0.99379,1.032,0.97732,0.96984,0.99881,0.96431,0.98412,0.988,1.0157,0.9904,1.011,0.99617,1.0239,1.0173,1.0234,0.96852,1.0206,0.98646,0.98744,1.0467,1.0418,1.0331,1.02,1.0118,1.0167,1.0319,1.0292,0.99243,1.0059,1.0192,1.0275,1.0168,0.99144,0.96304,0.97167,1.0945,1.0371,1.097,1.0659,1.0429,1.0461,1.0345,1.059,1.0532,1.098,1.0754,1.1005,1.0726,1.0653,1.0889,1.0886,1.1611,1.1185,1.1333,1.1439,1.1263,1.1277,1.1218,1.1343,1.0972,1.1026,1.0512,1.0174,1.0669,1.0935,1.0559,1.0491,1.0767,1.0626,1.0118,1.0074,1.01,1.0344,1.0613,1.0309,1.0258,0.98102,1.0345,1.0586,1.0416,0.98001,1.0081,1.0611,1.0523,1.0515,1.0414,1.0254,1.0034,1.0872,1.0023,1.0016,1.0061,1.0428,0.96158,1.0696,1.0842,1.0308,1.0278,1.0135,0.97534,1.0228,1.0212,0.99416,1.0394,0.98847,0.99855,0.98414,0.9992,1.0501,0.99355,0.96969,0.9754,1.0009,0.98217,1.0306,1.0162,1.013,1.0039,0.97912,0.96136,0.96533,0.97586,1.0061,0.93388,1.0543,1.033,0.92729,0.98663,0.99235,1.0387,1.0058,0.99715,0.96934,1.0022,0.98967,0.98062,0.9794,0.99075,0.96142,1.0475,1.0365,1.0515,1.0471,1.0832,1.0255,1.0727,1.0677,1.1195,1.1428,1.0575,1.0289,1.105,1.0662,1.0655,1.0437,1.039,0.96731,0.98273,1.0078,0.96514,0.98031,0.93979,0.98648,0.97131,0.99413,1.0163,0.95109,0.974,0.99689,0.94781,0.96284,0.95985,0.8911,0.82028,0.8494,0.83534,0.92663,1.212,1.6686,2.0847,2.3674,2.529,2.656,2.1288,1.4666,0.9526,0.63248,0.50081,0.39499,0.48093,0.53116,0.71808,0.85571,0.96422,0.94197,0.9008,0.94965,0.98671,0.97642,0.92336,0.95557,0.93783,1.0029,1.011,0.9908,0.97782,1.0118,1.0074,0.97001,0.96955,1.0079,0.99784,0.98908,0.98742,0.97988,0.99959,0.96289,1.0544,0.94826,1.0206,0.98627,1.0032,0.94322,1.0375,1.0128,0.97246,0.98405,0.96638,1.0461,1.0478,0.99516,1.0138,0.96358,0.98693,1.0224,0.99144,1.008,0.97626,0.95792,1.0592,1.0102,0.98557,1.0567,1.0032,1.0501,1.003,1.0314,0.96408,1.0293,1.0506,1.034,1.027,1.0879,1.0771,1.0617,1.0383,1.06,1.0642,1.068,1.0789,1.077,1.0551,1.0679,1.0569,1.043,1.0277,1.0291,1.0243,1.0223,0.98483,1.0188,1.0056,0.99866,1.048,1.0263,1.0177,0.99088,0.98218,1.0167,1.0109,1.0063,0.99977,1.0385,0.99436,0.98612,0.98743,1.061,0.98915,0.97191,0.98763,1.0213,1.0015,0.97635,1.018,1.028,1.025,0.93777,0.96533,1.012,0.99329,1.0193,0.98795,0.93878,0.98393,0.99094,1.0212,0.96868,0.98362,0.98385,0.98029,0.98666,0.96441,0.97827,0.97417,0.96326,1.0367,0.98136,0.95472,0.96909,1.0087,0.99785,0.96124,0.94135,0.96476,0.99234,0.92805,0.98559,1.0148,0.98356,0.9817,0.96671,0.96302,0.99863,0.99206,0.98309,0.98178,0.95174,0.94649,0.96609,1.0011,0.9828,0.96832,0.94637,0.96429,0.97733,0.9822,0.97653,1.0214,0.99578,0.99006,0.96607,0.97086,0.94903,0.95877,0.96341,0.9648,0.99239,0.92218,0.91585,1.0392,0.99973,1.0156,1.0617,1.0372,1.0253,1.0549,1.0501,1.0792,1.0405,1.0431,1.0604,1.0759,1.0262,1.0273,1.0128,0.97983,1.0132,0.96608,0.95358,0.95156,0.94407,0.97787,0.96104,0.92455,0.94769,0.96969,0.98959,0.96016,0.98333,0.9293,0.92781,0.94124,0.93918,0.8596,0.76354,0.79367,0.94151,1.1771,1.5909,2.0413,2.3359,2.4558,2.6698,2.1947,1.478,0.9212,0.78678,0.59837,0.45898,0.43786,0.51629,0.69062,0.82359,0.91152,0.90927,0.98562,0.94502,0.97959,0.93846,0.96507,0.95319,1.0251,0.95546,0.95896,0.99981,0.99571,1.0153,1.0094,0.99307,1.0124,0.96892,0.99069,0.99378,1.0065,0.97126,1.0152,1.0208,0.95552,1.0209,0.99674,0.9974,1.0381,1.0329,1.0025,1.0165,0.98948,0.99919,1.0337,1.0315,1.017,1.0188,1.0197,0.99798,0.99604,1.0286,1.0532,1.0505,1.0292,1.0281,1.0115,0.99727,1.0682,1.0499,1.0559,1.0451,1.0392,1.0776,1.019,1.0702,1.0771,1.0701,1.0621,1.1062,1.0959,1.1181,1.1003,1.139,1.1273,1.1104,1.1197,1.1328,1.1457,1.1195,1.0939,1.0929,1.0929,1.0897,1.0854,1.0493,1.0898,1.0778,1.0681,1.047,1.049,1.0314,1.0348,1.1019,1.0491,1.036,1.0444,1.0794,1.103,1.0499,1.0454,1.0523,1.0524,1.0286,1.0195,1.0744,1.0859,1.0518,1.0814,1.0688,1.0584,1.0374,1.0428,1.068,1.0641,1.062,1.0161,1.007,1.0607,1.0528,1.04,0.99825,1.0439,1.0633,1.0622,1.0248,0.97664,1.0363,1.0801,1.0585,1.0227,1.0156,1.0462,1.0363,1.019,1.02,1.0247,1.0223,0.98155,1.0347,1.0575,1.0125,1.0008,0.9983,1.032,1.0007,1.0054,1.02,1.0485,1.0394,1.0157,1.0144,0.99757,0.99148,1.0073,1.0162,0.9782,1.0065,1.0435,1.0256,1.0414,1.0197,0.98848,1.0391,1.0425,1.016,1.0226,1.0092,1.0451,1.0302,1.0907,1.0955,1.0675,1.1066,1.0968,1.0573,1.1145,1.1566,1.1447,1.0937,1.0749,1.0166,1.0491,1.0061,1.0171,0.99381,0.93658,1.0013,1.0343,1.0306,0.99425,1.0184,0.96189,0.99664,1.0206,1.0266,0.98662,1.0035,1.0088,0.98275,0.88324,0.83774,0.84343,0.93615,1.2422,1.672,2.0696,2.3484,2.485,2.586,2.1552,1.4824,0.93481,0.64411,0.57138,0.49889,0.53691,0.58368,0.71642,0.76201,0.90127,0.94872,0.99666,1.0289,1.0467,1.0265,1.0391,1.0084,1.0449,1.046,1.0447,1.0268,1.0285,1.0494,1.0608,1.083,1.0548,1.0546,1.0301,1.0507,1.0796,1.0489,1.0357,1.0693,1.0636,1.0854,1.0927,1.068,1.0228,1.066,1.0939,1.0902,1.0628,1.0821,1.0708,1.1127,1.0813,1.0929,1.0858,1.0941,1.0977,1.0807,1.0899,1.0921,1.0854,1.0683,1.1114,1.0908,1.0926,1.1269,1.0962,1.1287,1.1072,1.0996,1.1315,1.1484,1.1389,1.1294,1.1141,1.1392,1.1451,1.1937,1.1689,1.1792,1.1792,1.1668,1.1681,1.1861,1.1671,1.1651,1.1184,1.1309,1.1566,1.0997,1.09,1.098,1.1118,1.0898,1.0757,1.1117,1.1103,1.0653,1.0784,1.0927,1.0774,1.0657,1.0795,1.0762,1.0919,1.0642,1.0652,1.1003,1.0962,1.0584,1.0513,1.0553,1.0538,1.0778,1.1102,1.0897,1.0846,1.067,1.0943,1.0909,1.0808,1.0769,1.0672,1.0578,1.0332,1.0814,1.066,1.0685,1.0821,1.0187,1.1019,1.0679,1.0719,1.0976,1.0615,1.0693,1.0413,1.062,1.0642,1.0469,1.0389,1.0546,1.0413,1.0574,1.0555,1.0532,1.0604,1.0219,1.0377,1.0396,1.0485,1.0389,1.0512,1.0573,1.0532,1.0472,1.0304,1.0462,1.0282,1.0175,1.0402,1.0887,1.0262,1.0333,1.0549,1.0332,1.0346,1.0483,1.0393,1.0417,1.0753,1.0365,1.0557,1.0453,1.0522,1.0431,1.0444,1.0627,1.0416,1.0613,1.1009,1.0768,1.0721,1.0519,1.0863,1.1837,1.1579,1.1343,1.1669,1.172,1.1781,1.2244,1.242,1.1572,1.1367,1.2123,1.2025,1.1913,1.1688,1.0965,1.1007,1.1478,1.1528,1.1377,1.1403,1.1756,1.1764,1.1548,1.1408,1.1609,1.1403,1.1613,1.1614,1.1711,1.1422,1.0325,1.003,0.97367,1.0468,1.2135,1.5355,1.9677,2.358,2.5309,2.7871,2.645,2.0009,1.3746,0.88237,0.67474,0.56898,0.525,0.58844,0.70487,0.89849,0.98652,1.0569,1.1113,1.0655,1.0506,1.0342,1.1039,1.0886,1.0583,1.0561,1.0753,1.1221,1.0894,1.0828,1.0711,1.0778,1.0839,1.0782,1.0961,1.0998,1.0668,1.0822,1.0847,1.08,1.0499,1.0807,1.0482,1.0594,1.1037,1.0597,1.0934,1.1245,1.113,1.068,1.0677,1.0947,1.0639,1.0803,1.0862,1.0858,1.0629,1.0973,1.0942,1.1171,1.1182,1.0716,1.0858,1.0828,1.1375,1.1056,1.0907,1.124,1.1101,1.1246,1.1469,1.1283,1.1501,1.0995,1.1136,1.1574,1.1657,1.1645,1.1687,1.1413,1.1543,1.1806,1.1602,1.1544,1.1624,1.1768,1.1801,1.123,1.1177,1.1484,1.1276,1.1092,1.0838,1.1324,1.0969,1.0946,1.0964,1.0824,1.093,1.0988,1.0963,1.0875,1.0735,1.0471,1.0871,1.0786,1.0824,1.0887,1.0968,1.074,1.0754,1.0784,1.0818,1.0641,1.0337,1.0774,1.097,1.0916,1.0872,1.0753,1.0674,1.0606,1.0792,1.0659,1.0474,1.0745,1.0697,1.0401,1.0704,1.0341,1.0511,1.0709,1.0766,1.0555,1.0398,1.0391,1.0584,1.058,1.0745,1.0377,1.0572,1.0086,1.0232,1.069,1.0682,1.0403,1.0337,1.0404,1.0365,1.0377,1.0486,1.0525,1.054,1.0474,1.0281,1.0291,1.0451,1.0441,1.0613,1.0377,1.0389,1.0471,1.0476,1.0426,1.0323,1.0597,1.0381,1.0379,1.0551,1.0517,1.0428,1.0312,1.0364,1.0261,1.0206,1.0657,1.0469,1.0551,1.0453,1.0141,1.0353,1.0604,1.0979,1.1029,1.1092,1.0961,1.0941,1.1515,1.1198,1.1343,1.1137,1.1025,1.1462,1.1441,1.0931,1.0768,1.0854,1.0295,1.0513,1.0312,0.98895,1.0365,1.0111,1.0655,1.0156,1.0157,1.0147,1.0314,1.0225,1.0235,1.0107,1.0191,0.9992,0.94857,0.91867,0.87811,0.85876,0.99811,1.295,1.7202,2.1449,2.4168,2.6121,2.7485,2.1895,1.5016,0.92742,0.6526,0.601,0.49375,0.51157,0.63961,0.79491,0.89982,1.0059,1.0054,1.0233,1.0601,1.032,1.0413,1.063,1.0359,1.0376,1.0296,1.0565,1.067,1.0767,1.0272,1.0348,1.0712,1.0651,1.0357,1.0516,1.0659,1.0911,1.0639,1.0627,1.048,1.0629,1.0783,1.063,1.0847,1.0819,1.0457,1.0512,1.0999,1.0693,1.0676,1.082,1.0862,1.0817,1.0756,1.0717,1.0812,1.0912,1.0888,1.115,1.078,1.0703,1.0473,1.0852,1.116,1.0934,1.1225,1.1112,1.137,1.1024,1.0964,1.1195,1.134,1.1401,1.1131,1.1585,1.1582,1.154,1.1936,1.188,1.1729,1.1593,1.1497,1.191,1.2064,1.1719,1.1454,1.17,1.1739,1.1367,1.1376,1.1166,1.125,1.1456,1.1209,1.1088,1.1052,1.1088,1.0924,1.1141,1.0731,1.0991,1.0855,1.085,1.1089,1.0908,1.0845,1.0731,1.1028,1.095,1.0527,1.1119,1.1068,1.0964,1.0616,1.0955,1.097,1.1017,1.0887,1.1084,1.096,1.0603,1.0936,1.0929,1.0629,1.0729,1.0566,1.0467,1.0999,1.0914,1.0621,1.0696,1.0865,1.0541,1.0644,1.0809,1.0996,1.0828,1.0781,1.0714,1.0913,1.0795,1.0621,1.0909,1.0793,1.089,1.0814,1.0655,1.0423,1.0471,1.0559,1.0473,1.0449,1.0634,1.0728,1.0574,1.079,1.0707,1.0337,1.0713,1.0613,1.0576,1.0713,1.0651,1.0819,1.0602,1.0725,1.0502,1.0678,1.0796,1.1395,1.1248,1.1262,1.1256,1.1226,1.1281,1.1794,1.1469,1.1306,1.1538,1.1414,1.142,1.0905,1.0793,1.0152,1.0224,1.0269,1.035,1.0513,1.0363,1.0368,1.0354,1.0433,1.011,1.0124,1.0377,1.0473,1.059,1.0243,1.0064,0.91838,0.85123,0.893,0.99392,1.1901,1.578,2.0297,2.3167,2.3941,2.5571,2.5358,1.9431,1.2787,0.80845,0.63967,0.54487,0.51066,0.55249,0.64464,0.78173,0.89464,0.97104,1.0122,1.0225,0.98823,0.99726,1.0469,1.0682,1.0612,1.0661,1.047,1.0462,1.036,1.0546,1.0312,1.0289,1.0709,1.0688,1.0532,1.0756,1.0709,1.0604,1.076,1.0915,1.0456,1.0666,1.0718,1.066,1.0699,1.0798,1.0941,1.0959,1.0788,1.0716,1.128,1.1281,1.105,1.114,1.1287,1.1456,1.155,1.1065,1.1397,1.1176,1.141,1.1428,1.1525,1.1246,1.1173,1.1258,1.1572,1.1896,1.1537,1.1591,1.1527,1.1497,1.1468,1.1533,1.1945,1.1642,1.1967,1.2128,1.175,1.1857,1.1924,1.1734,1.1443,1.2208,1.2192,1.205,1.1696,1.1578,1.1606,1.1362,1.1487,1.1362,1.0983,1.0705,1.1122,1.1045,1.1107,1.0925,1.0759,1.0813,1.1003,1.086,1.1014,1.0688,1.079,1.0834,1.0624,1.0918,1.0822,1.0658,1.0634,1.0982,1.0855,1.0935,1.09,1.0773,1.0524,1.0825,1.0905,1.0688,1.068,1.0888,1.0727,1.0846,1.0725,1.0653,1.0807,1.0723,1.0592,1.0604,1.0632,1.0423,1.0778,1.0508,1.0661,1.0922,1.0694,1.0784,1.0918,1.0924,1.1075,1.1301,1.1492,1.1051,1.0939,1.1327,1.148,1.1622,1.1849,1.1376,1.1318,1.1149,1.0989,1.0856,1.0243,1.0456,1.0135,0.98687,0.99666,0.97512,1.0014,1.0108,1.0106,0.99333,0.97431,0.98159,0.98612,0.99239,0.96901,0.96487,0.96479,0.92949,0.86877,0.84213,0.8645,0.96118,1.2844,1.7224,2.1038,2.3237,2.4781,2.5701,2.3741,1.7152,1.0263,0.70848,0.56249,0.47993,0.48402,0.54679,0.64518,0.79,0.91186,1.0139,0.96476,0.99109,0.97584,0.98047,1.0345,1.012,1.0053,1.027,1.027,1.0407,1.027,1.0412,1.0257,1.0296,1.0222,1.0092,0.99546,1.064,1.0859,1.0787,1.0503,1.044,1.0706,1.0737,1.0699,1.0635,1.058,1.0694,1.0486,1.0459,1.0805,1.0755,1.0776,1.0719,1.0634,1.0725,1.0835,1.0846,1.0862,1.0906,1.0749,1.0975,1.1092,1.1075,1.0963,1.0813,1.0916,1.1232,1.114,1.1234,1.1474,1.1235,1.1394,1.1253,1.1375,1.1728,1.1981,1.1669,1.1701,1.1723,1.1755,1.1711,1.1769,1.1796,1.1549,1.1518,1.167,1.151,1.1327,1.124,1.1497,1.1243,1.1054,1.0896,1.0993,1.0903,1.1147,1.0583,1.0962,1.0972,1.0841,1.0798,1.0556,1.0559,1.0699,1.0825,1.1007,1.0986,1.0764,1.0646,1.0494,1.0548,1.0593,1.0591,1.0686,1.0774,1.0615,1.0573,1.0271,1.0118,1.0116,1.0416,1.0422,1.0204,1.0213,1.02,1.0084,0.97987,0.9483,0.95753,0.94324,0.9285,0.93487,0.95582,0.89999,0.89244,0.90839,0.92373,0.92056,0.94795,0.9309,0.92916,0.94338,0.96441,0.96608,0.96672,0.94588,0.92455,0.90642,0.88243,0.90208,0.82876,0.82114,0.80976,0.78804,0.84174,0.84612,0.85974,0.86218,0.86024,0.85256,0.86965,0.87565,0.86487,0.86254,0.86896,0.88171,0.88301,0.89906,0.8071,0.73534,0.77418,0.86064,1.1505,1.6499,2.0455,2.2895,2.4766,2.6321,2.0852,1.402,0.8287,0.5382,0.50775,0.42743,0.4358,0.53794,0.71816,0.81955,0.91428,0.94057,0.93301,0.93227,0.96979,0.97373,0.96955,1.0008,0.99834,0.97979,0.99874,0.9949,0.98989,0.99878,1.0097,1.0191,0.98879,1.014,1.0046,1.0045,1.0236,0.99526,0.96002,0.97939,1.0593,1.0427,1.0384,1.0323,1.027,1.0325,1.0327,1.0438,1.0396,1.0376,1.0379,0.98467,0.98025,1.0598,1.0765,1.0514,1.0643,1.0458,1.0515,1.0447,1.0606,1.0711,1.0766,1.0517,1.0759,1.0624,1.0751,1.0598,1.0635,1.1043,1.0973,1.1322,1.1479,1.1312,1.1415,1.1278,1.1582,1.1505,1.1698,1.1338,1.1373,1.1249,1.1092,1.1398,1.1662,1.1281,1.1282,1.0897,1.1069,1.1117,1.1073,1.0778,1.0708,1.0677,1.0552,1.0561,1.0251,1.0655,1.0599,1.0603,1.0976,1.0701,1.0478,1.0702,1.0504,1.0169,1.0303,1.0669,1.0692,1.0946,1.0514,1.0538,1.0461,1.0468,1.0486,1.0454,1.0415,1.0637,1.0391,1.068,1.0336,1.0199,1.0498,1.0629,1.0669,1.0304,1.0199,1.0441,1.0529,1.0535,1.0467,1.0228,1.0455,1.0668,1.0792,1.0961,1.0895,1.0868,1.0652,1.076,1.1252,1.1583,1.1549,1.1467,1.1316,1.1421,1.0747,1.1044,1.0631,1.0684,1.0048,1.0082,1.0129,0.9965,0.98298,0.99179,0.98931,0.96988,0.97703,1.0237,1.0095,1.0071,0.99342,0.9484,0.992,0.992,0.98079,0.95473,0.91832,0.8548,0.84381,0.8932,1.1349,1.5299,1.9671,2.2798,2.4321,2.6382,2.3433,1.6582,1.0462,0.68115,0.53619,0.43777,0.47627,0.60677,0.76713,0.82938,0.9289,0.96503,0.99123,0.99447,0.99449,0.99563,1.0135,1.0122,1.011,1.0049,0.99503,0.99465,1.0384,1.0182,1.0323,1.011,1.0335,1.0477,1.0185,1.0245,1.0271,1.0253,1.0503,1.0472,1.0296,1.0474,1.0515,1.031,1.039,1.0476,0.99753,1.0339,1.0654,1.0605,1.0523,1.0454,1.0324,1.0342,1.0613,1.0418,1.0626,1.074,1.0272,1.0762,1.0802,1.0619,1.0541,1.0545,1.0951,1.0842,1.0804,1.0685,1.076,1.0967,1.1125,1.1062,1.1077,1.1126,1.1448,1.1477,1.1541,1.1466,1.137,1.1565,1.1589,1.1734,1.1272,1.1186,1.1769,1.1489,1.1254,1.1416,1.1158,1.0964,1.0967,1.0939,1.1079,1.0797,1.0784,1.0762,1.0787,1.0831,1.0671,1.0756,1.0825,1.0588,1.0619,1.0712,1.0788,1.0801,1.0917,1.066,1.0596,1.0644,1.0621,1.0596,1.0623,1.0562,1.079,1.052,1.0616,1.0608,1.0515,1.0575,1.0349,1.0601,1.0614,1.0544,1.0438,1.018,1.0533,1.0611,1.046,1.0825,1.0783,1.0864,1.0971,1.1062,1.0998,1.0996,1.1089,1.0931,1.1116,1.1545,1.1519,1.1892,1.1632,1.1374,1.1164,1.0918,1.0497,1.0289,1.0188,1.0273,1.008,1.0105,0.98121,0.99491,1.0278,1.0082,1.0116,0.99083,0.99963,1.0111,0.99487,1.0183,0.99555,0.99728,0.99765,0.93364,0.88357,0.85841,0.89389,0.97744,1.2989,1.7833,2.014,2.3105,2.4885,2.6729,2.3078,1.628,1.0215,0.65234,0.54013,0.44352,0.49196,0.60408,0.78357,0.8858,0.98623,1.0227,1.0087,0.99515,1.0069,1.0164,1.0219,1.0177,1.0297,1.0138,1.0156,0.98958,1.036,1.0498,1.0412,1.0378,1.0568,1.0363,1.0471,1.0278,1.0194,1.0351,1.0343,1.0449,1.051,1.05,1.0604,1.0535,1.0546,1.0441,1.0594,1.0321,1.0406,1.0386,1.058,1.0616,1.0593,1.0464,1.0616,1.0592,1.0554,1.0624,1.0506,1.043,1.0677,1.0672,1.0765,1.0634,1.0754,1.0716,1.0407,1.0805,1.089,1.0878,1.084,1.0938,1.1124,1.1055,1.1193,1.13,1.1374,1.1405,1.1532,1.1506,1.1413,1.1374,1.1292,1.155,1.1584,1.1657,1.1036,1.0949,1.0761,1.0902,1.0892,1.0939,1.0908,1.092,1.0999,1.0676,1.0682,1.0762,1.0986,1.0899,1.0584,1.0803,1.0811,1.0746,1.0755,1.0756,1.0797,1.0941,1.0603,1.0729,1.0721,1.0743,1.0588,1.0609,1.055,1.0719,1.0575,1.0495,1.0785,1.0636,1.0687,1.0321,1.08,1.0436,1.0222,1.0641,1.066,1.0727,1.0298,1.0153,1.0376,1.0473,1.0451,1.0043,1.0421,1.0621,1.0603,1.0342,1.0358,1.062,1.0492,1.0316,1.0278,1.0336,1.0206,1.0265,1.0453,1.036,1.0384,1.0303,1.0474,1.0484,1.0306,1.0244,1.0248,1.0354,1.0377,1.0659,1.0228,1.0323,1.0359,1.0439,1.0385,1.0434,1.034,1.0338,1.0116,1.0383,1.0458,1.0808,1.1091,1.0755,1.0804,1.0964,1.114,1.104,1.1038,1.1255,1.1681,1.1499,1.0753,1.0677,1.0694,1.0212,0.9842,0.98298,0.9959,0.98433,1.0137,1.018,1.0154,1.012,1.0077,0.99798,1.0023,0.97209,1.0064,1.0089,1.0021,1.0162,0.98464,0.91201,0.84846,0.83644,0.85837,1.0515,1.4305,1.8944,2.2577,2.4311,2.7033,2.5154,1.8462,1.2068,0.74705,0.58547,0.4559,0.49788,0.53517,0.64482,0.79142,0.91068,0.98986,1.0059,0.99943,0.99632,1.0135,1.0196,1.0114,1.0416,1.0168,1.021,1.0117,1.0415,1.0217,1.0353,1.0472,1.0143,1.0266,1.0439,1.0537,1.0232,1.029,1.0486,1.0461,1.017,1.0873,1.0412,1.0326,1.051,1.0581,1.0519,1.0269,1.033,1.0586,1.0471,1.0486,1.0197,1.0293,1.0587,1.0637,1.0668,1.0504,1.0649,1.0625,1.0425,1.0495,1.0201,1.0542,1.0694,1.0664,1.0763,1.0689,1.0698,1.0822,1.0834,1.0893,1.094,1.0952,1.1032,1.0969,1.1301,1.1394,1.1205,1.1451,1.1802,1.1414,1.1421,1.1487,1.1597,1.1579,1.1575,1.1646,1.1283,1.1084,1.1024,1.1344,1.1439,1.14,1.126,1.0824,1.0939,1.1105,1.1148,1.089,1.1088,1.1079,1.0862,1.1053,1.1081,1.1063,1.1055,1.0828,1.0969,1.0944,1.0642,1.0777,1.0836,1.109,1.1018,1.0752,1.1163,1.0913,1.0747,1.0786,1.0883,1.0673,1.0799,1.1069,1.0751,1.0663,1.0768,1.0965,1.0769,1.0779,1.0724,1.0746,1.0677,1.0922,1.0712,1.0781,1.0621,1.0434,1.0514,1.0857,1.0834,1.0689,1.0738,1.0502,1.0674,1.0563,1.0565,1.0793,1.0378,1.0273,1.088,1.0961,1.0632,1.0572,1.0705,1.0488,1.0709,1.0657,1.0535,1.0513,1.0612,1.0623,1.0514,1.0523,1.0481,1.0696,1.0699,1.0573,1.0522,1.0364,1.064,1.062,1.0592,1.0791,1.0472,1.0517,1.0716,1.0558,1.0514,1.0643,1.0528,1.0219,1.0668,1.0732,1.0518,1.099,1.0432,1.0635,1.0478,1.0236,1.0385,1.0856,1.0645,1.0674,1.0673,1.0629,1.0516,1.0521,1.0837,1.024,1.061,1.0785,1.0615,1.0673,1.0698,1.0706,1.0581,1.0641,1.086,1.1014,1.1046,1.0928,1.1057,1.1128,1.0995,1.1126,1.1556,1.1492,1.1661,1.1409,1.1777,1.1179,1.1085,1.1211,1.0836,1.0209,1.0264,1.0677,1.0478,1.0444,1.0588,1.0454,1.0521,1.0311,1.0509,1.0577,1.039,1.0518,1.0495,1.0578,1.0355,0.96759,0.89595,0.90511,0.93005,1.0467,1.3252,1.7854,2.157,2.3158,2.4354,2.6192,2.2768,1.6647,1.082,0.75803,0.61618,0.54709,0.54958,0.60139,0.74292,0.83238,0.95526,1.0239,1.0329,1.0374,1.0384,1.0647,1.0497,1.0503,1.0421,1.0431,1.0828,1.0589,1.1014,1.0948,1.0897,1.0497,1.0751,1.0679,1.098,1.0892,1.0853,1.0658,1.0678,1.0773,1.0761,1.1054,1.0976,1.0804,1.0846,1.0871,1.0852,1.0773,1.0935,1.0956,1.0897,1.114,1.0743,1.0986,1.0824,1.116,1.0891,1.0899,1.0899,1.1126,1.0813,1.0542,1.0698,1.096,1.1132,1.1018,1.1056,1.0844,1.117,1.1384,1.1023,1.1304,1.1209,1.1115,1.1273,1.1357,1.1578,1.1544,1.1593,1.1796,1.1931,1.1832,1.1845,1.2017,1.2059,1.1793,1.2029,1.1791,1.1754,1.172,1.156,1.1252,1.1687,1.156,1.1146,1.1659,1.1316,1.1253,1.1149,1.1201,1.1185,1.114,1.1359,1.131,1.1302,1.1066,1.1079,1.1203,1.117,1.1051,1.1051,1.1055,1.1079,1.1069,1.1369,1.1295,1.0995,1.114,1.1328,1.1203,1.1206,1.1258,1.1094,1.1043,1.1103,1.1002,1.0999,1.1081,1.1067,1.0625,1.054,1.1096,1.1382,1.0997,1.071,1.1013,1.1,1.0886,1.0976,1.0888,1.0751,1.0887,1.0739,1.0825,1.0816,1.0818,1.0686,1.0808,1.0921,1.0853,1.0713,1.076,1.0833,1.0878,1.0954,1.0735,1.0915,1.0685,1.0662,1.0716,1.0904,1.0774,1.0585,1.0847,1.0972,1.0396,1.0665,1.0648,1.0752,1.101,1.0804,1.07,1.0621,1.0711,1.0928,1.0699,1.0831,1.0673,1.0569,1.0704,1.0765,1.0585,1.0771,1.1325,1.1574,1.1407,1.1311,1.1188,1.123,1.1748,1.1525,1.1394,1.1524,1.1668,1.1371,1.1016,1.1022,1.0806,1.0249,1.0563,1.0599,1.042,1.0211,1.049,1.059,1.0474,1.0531,1.0417,1.0378,1.0591,1.0509,1.0572,1.0309,1.0024,0.97415,0.915,0.90605,0.94712,1.1324,1.3,1.7217,2.1234,2.345,2.5531,2.6942,2.196,1.514,0.94557,0.69009,0.60281,0.53157,0.57055,0.6497,0.82879,0.94602,1.0328,1.0062,1.0465,0.99587,1.0363,1.056,1.0771,1.0553,1.0594,1.0599,1.079,1.0623,1.0709,1.0436,1.0746,1.0842,1.1033,1.0848,1.0819,1.0499,1.0649,1.0672,1.079,1.0681,1.0908,1.0747,1.0958,1.0832,1.0915,1.0738,1.0766,1.0973,1.0893,1.0761,1.0906,1.0944,1.0701,1.1074,1.0936,1.0925,1.0877,1.081,1.0868,1.1066,1.0899,1.0943,1.1129,1.1063,1.0657,1.0928,1.0908,1.1341,1.1286,1.1328,1.119,1.1055,1.1091,1.1266,1.1303,1.1558,1.1619,1.1527,1.1583,1.1857,1.1695,1.1628,1.1501,1.1638,1.1523,1.1644,1.1479,1.164,1.1318,1.1078,1.116,1.0775,1.109,1.1006,1.1183,1.0739,1.0737,1.0582,1.0838,1.0989,1.0772,1.089,1.0659,1.0567,1.083,1.0931,1.0825,1.0698,1.0752,1.0667,1.0695,1.058,1.0342,1.1096,1.0841,1.0683,1.067,1.0822,1.0887,1.0817,1.0539,1.0373,1.0776,1.0791,1.0909,1.0767,1.0726,1.032,1.0439,1.0608,1.0756,1.0597,1.0436,1.0433,1.0691,1.0866,1.0446,1.0523,1.048,1.0463,1.0491,1.05,1.0379,1.0607,1.0437,1.0573,1.0457,1.0217,1.0418,1.0492,1.055,1.0504,1.0214,1.0421,1.0456,1.0514,1.0389,1.0282,1.0149,1.0363,1.0547,1.0376,1.0462,1.0241,1.034,1.0468,1.0308,1.0122,1.0454,1.0596,1.0425,1.0383,1.0092,1.0516,1.0542,1.0512,1.0003,1.0075,1.0395,1.0304,1.052,1.0383,1.0292,1.0445,1.0306,1.0332,1.0415,1.0295,0.99821,1.0228,1.046,1.0432,1.0348,1.0179,1.0472,1.0231,1.0348,1.0291,1.0461,1.031,1.0498,1.0442,1.0483,1.0495,1.0414,1.0617
