-11.649,-11.645,-11.654,-11.655,-11.659,-11.668,-11.671,-11.667,-11.669,-11.659,-11.652,-11.667,-11.671,-11.672,-11.666,-11.659,-11.66,-11.67,-11.672,-11.663,-11.664,-11.657,-11.676,-11.68,-11.676,-11.671,-11.671,-11.678,-11.673,-11.675,-11.672,-11.676,-11.685,-11.684,-11.674,-11.671,-11.675,-11.686,-11.674,-11.674,-11.68,-11.677,-11.677,-11.687,-11.697,-11.698,-11.691,-11.681,-11.685,-11.689,-11.686,-11.689,-11.683,-11.693,-11.703,-11.696,-11.694,-11.694,-11.696,-11.697,-11.7,-11.693,-11.705,-11.715,-11.722,-11.717,-11.712,-11.716,-11.71,-11.704,-11.702,-11.702,-11.692,-11.691,-11.688,-11.675,-11.671,-11.676,-11.657,-11.627,-11.617,-11.616,-11.633,-11.629,-11.628,-11.644,-11.666,-11.667,-11.664,-11.672,-11.703,-11.718,-11.731,-11.748,-11.745,-11.751,-11.758,-11.757,-11.759,-11.753,-11.752,-11.755,-11.76,-11.754,-11.758,-11.768,-11.768,-11.796,-11.841,-11.848,-11.768,-11.549,-11.287,-11.043,-10.822,-11.01,-11.271,-11.416,-11.581,-11.868,-11.926,-11.935,-11.952,-11.889,-11.834,-11.762,-11.744,-11.712,-11.714,-11.698,-11.703,-11.686,-11.688,-11.664,-11.673,-11.657,-11.66,-11.632,-11.632,-11.624,-11.618,-11.61,-11.613,-11.601,-11.592,-11.585,-11.569,-11.556,-11.546,-11.522,-11.517,-11.496,-11.486,-11.463,-11.449,-11.417,-11.412,-11.396,-11.38,-11.347,-11.325,-11.304,-11.282,-11.271,-11.252,-11.233,-11.199,-11.186,-11.171,-11.164,-11.158,-11.14,-11.133,-11.131,-11.148,-11.155,-11.168,-11.197,-11.241,-11.287,-11.331,-11.369,-11.385,-11.424,-11.471,-11.509,-11.551,-11.583,-11.615,-11.636,-11.647,-11.656,-11.668,-11.675,-11.674,-11.687,-11.693,-11.703,-11.695,-11.7,-11.7,-11.7,-11.704,-11.719,-11.714,-11.719,-11.712,-11.713,-11.71,-11.713,-11.704,-11.711,-11.697,-11.698,-11.708,-11.71,-11.707,-11.704,-11.694,-11.697,-11.698,-11.703,-11.699,-11.698,-11.698,-11.698,-11.69,-11.691,-11.681,-11.671,-11.672,-11.678,-11.684,-11.686,-11.675,-11.679,-11.665,-11.678,-11.684,-11.694,-11.698,-11.702,-11.697,-11.7,-11.7,-11.707,-11.695,-11.698,-11.701,-11.713,-11.711,-11.707,-11.718,-11.724,-11.719,-11.715,-11.712,-11.718,-11.726,-11.719,-11.725,-11.733,-11.726,-11.716,-11.715,-11.714,-11.72,-11.727,-11.719,-11.717,-11.716,-11.717,-11.719,-11.726,-11.735,-11.731,-11.734,-11.733,-11.734,-11.735,-11.736,-11.732,-11.725,-11.724,-11.728,-11.738,-11.745,-11.743,-11.743,-11.733,-11.731,-11.74,-11.743,-11.734,-11.745,-11.744,-11.746,-11.745,-11.756,-11.748,-11.751,-11.753,-11.749,-11.734,-11.744,-11.747,-11.745,-11.754,-11.765,-11.759,-11.762,-11.76,-11.768,-11.761,-11.761,-11.763,-11.762,-11.758,-11.76,-11.768,-11.768,-11.761,-11.753,-11.745,-11.745,-11.727,-11.718,-11.726,-11.713,-11.701,-11.687,-11.666,-11.673,-11.68,-11.685,-11.694,-11.702,-11.71,-11.704,-11.714,-11.732,-11.766,-11.78,-11.788,-11.791,-11.796,-11.802,-11.791,-11.788,-11.794,-11.794,-11.788,-11.786,-11.785,-11.793,-11.785,-11.796,-11.813,-11.865,-11.886,-11.863,-11.719,-11.453,-11.22,-10.965,-10.85,-11.201,-11.361,-11.501,-11.764,-11.929,-11.94,-11.965,-11.931,-11.837,-11.8,-11.744,-11.73,-11.712,-11.719,-11.705,-11.715,-11.692,-11.68,-11.659,-11.667,-11.648,-11.65,-11.64,-11.645,-11.626,-11.614,-11.612,-11.596,-11.579,-11.574,-11.55,-11.544,-11.532,-11.525,-11.509,-11.491,-11.47,-11.46,-11.435,-11.415,-11.389,-11.371,-11.349,-11.333,-11.3,-11.286,-11.259,-11.24,-11.21,-11.187,-11.17,-11.155,-11.134,-11.127,-11.114,-11.115,-11.102,-11.105,-11.103,-11.1,-11.117,-11.131,-11.169,-11.194,-11.232,-11.289,-11.343,-11.378,-11.419,-11.466,-11.49,-11.5,-11.515,-11.554,-11.582,-11.602,-11.614,-11.615,-11.62,-11.629,-11.634,-11.631,-11.636,-11.638,-11.647,-11.646,-11.648,-11.63,-11.642,-11.653,-11.652,-11.647,-11.65,-11.64,-11.634,-11.626,-11.64,-11.638,-11.632,-11.628,-11.625,-11.621,-11.622,-11.62,-11.601,-11.598,-11.6,-11.603,-11.602,-11.598,-11.594,-11.591,-11.594,-11.583,-11.582,-11.574,-11.581,-11.574,-11.567,-11.577,-11.592,-11.587,-11.58,-11.575,-11.578,-11.587,-11.586,-11.59,-11.581,-11.591,-11.606,-11.599,-11.605,-11.6,-11.593,-11.596,-11.593,-11.597,-11.602,-11.598,-11.589,-11.594,-11.599,-11.6,-11.602,-11.606,-11.6,-11.583,-11.586,-11.588,-11.587,-11.593,-11.598,-11.595,-11.6,-11.599,-11.589,-11.587,-11.599,-11.597,-11.6,-11.589,-11.588,-11.587,-11.591,-11.586,-11.591,-11.59,-11.58,-11.59,-11.588,-11.59,-11.583,-11.581,-11.577,-11.573,-11.581,-11.583,-11.571,-11.583,-11.577,-11.569,-11.565,-11.569,-11.576,-11.567,-11.57,-11.569,-11.567,-11.583,-11.578,-11.558,-11.56,-11.563,-11.573,-11.578,-11.56,-11.557,-11.546,-11.535,-11.523,-11.533,-11.527,-11.507,-11.496,-11.472,-11.454,-11.464,-11.477,-11.474,-11.482,-11.495,-11.511,-11.509,-11.506,-11.527,-11.554,-11.561,-11.558,-11.566,-11.575,-11.571,-11.584,-11.569,-11.575,-11.569,-11.564,-11.571,-11.582,-11.571,-11.575,-11.583,-11.587,-11.627,-11.659,-11.642,-11.489,-11.214,-10.974,-10.718,-10.676,-11.028,-11.2,-11.363,-11.574,-11.656,-11.642,-11.704,-11.714,-11.679,-11.635,-11.567,-11.53,-11.507,-11.496,-11.492,-11.494,-11.489,-11.49,-11.481,-11.476,-11.454,-11.449,-11.435,-11.439,-11.419,-11.418,-11.406,-11.4,-11.395,-11.391,-11.374,-11.369,-11.361,-11.35,-11.329,-11.319,-11.3,-11.292,-11.27,-11.247,-11.237,-11.214,-11.205,-11.175,-11.158,-11.139,-11.116,-11.081,-11.069,-11.045,-11.02,-11.014,-10.996,-10.968,-10.947,-10.952,-10.941,-10.927,-10.913,-10.916,-10.913,-10.94,-10.976,-11.008,-11.058,-11.112,-11.16,-11.178,-11.22,-11.249,-11.278,-11.314,-11.351,-11.375,-11.375,-11.396,-11.406,-11.42,-11.417,-11.421,-11.418,-11.425,-11.423,-11.426,-11.436,-11.443,-11.445,-11.45,-11.439,-11.436,-11.44,-11.434,-11.43,-11.43,-11.427,-11.42,-11.419,-11.423,-11.426,-11.415,-11.415,-11.407,-11.401,-11.404,-11.402,-11.395,-11.391,-11.393,-11.38,-11.378,-11.39,-11.39,-11.38,-11.371,-11.374,-11.37,-11.372,-11.364,-11.372,-11.367,-11.371,-11.375,-11.382,-11.389,-11.39,-11.382,-11.372,-11.375,-11.394,-11.401,-11.4,-11.389,-11.391,-11.396,-11.398,-11.392,-11.401,-11.408,-11.411,-11.402,-11.406,-11.402,-11.402,-11.407,-11.409,-11.398,-11.397,-11.396,-11.406,-11.413,-11.417,-11.415,-11.424,-11.428,-11.436,-11.432,-11.428,-11.425,-11.422,-11.431,-11.429,-11.418,-11.404,-11.401,-11.416,-11.412,-11.401,-11.38,-11.371,-11.374,-11.347,-11.361,-11.379,-11.377,-11.385,-11.409,-11.41,-11.414,-11.437,-11.463,-11.487,-11.5,-11.498,-11.509,-11.513,-11.507,-11.509,-11.509,-11.509,-11.516,-11.527,-11.53,-11.521,-11.52,-11.517,-11.534,-11.568,-11.617,-11.643,-11.554,-11.323,-11.065,-10.792,-10.616,-10.828,-11,-11.16,-11.326,-11.553,-11.668,-11.643,-11.726,-11.708,-11.631,-11.576,-11.533,-11.512,-11.518,-11.502,-11.505,-11.496,-11.513,-11.49,-11.482,-11.463,-11.463,-11.463,-11.466,-11.443,-11.447,-11.427,-11.434,-11.416,-11.414,-11.405,-11.4,-11.386,-11.387,-11.351,-11.344,-11.334,-11.321,-11.308,-11.284,-11.278,-11.258,-11.233,-11.219,-11.204,-11.177,-11.159,-11.135,-11.122,-11.095,-11.075,-11.059,-11.04,-11.031,-11.015,-11.006,-10.99,-10.992,-11.006,-11.018,-11.029,-11.056,-11.091,-11.128,-11.178,-11.213,-11.262,-11.298,-11.352,-11.379,-11.42,-11.454,-11.487,-11.514,-11.527,-11.546,-11.559,-11.552,-11.562,-11.571,-11.576,-11.586,-11.584,-11.585,-11.585,-11.588,-11.589,-11.597,-11.595,-11.589,-11.589,-11.589,-11.599,-11.597,-11.6,-11.606,-11.6,-11.595,-11.596,-11.588,-11.591,-11.588,-11.596,-11.59,-11.583,-11.579,-11.58,-11.562,-11.572,-11.578,-11.578,-11.57,-11.564,-11.563,-11.575,-11.568,-11.562,-11.563,-11.565,-11.569,-11.563,-11.565,-11.565,-11.563,-11.574,-11.578,-11.572,-11.578,-11.592,-11.59,-11.59,-11.596,-11.593,-11.607,-11.597,-11.598,-11.604,-11.608,-11.609,-11.603,-11.604,-11.603,-11.615,-11.61,-11.609,-11.607,-11.601,-11.605,-11.601,-11.599,-11.606,-11.618,-11.614,-11.608,-11.624,-11.626,-11.618,-11.612,-11.618,-11.62,-11.625,-11.621,-11.612,-11.621,-11.616,-11.619,-11.605,-11.614,-11.616,-11.618,-11.609,-11.616,-11.621,-11.621,-11.63,-11.623,-11.613,-11.613,-11.601,-11.602,-11.594,-11.606,-11.59,-11.59,-11.589,-11.559,-11.532,-11.528,-11.543,-11.542,-11.553,-11.551,-11.59,-11.591,-11.598,-11.61,-11.624,-11.648,-11.666,-11.654,-11.675,-11.664,-11.695,-11.691,-11.666,-11.693,-11.683,-11.673,-11.674,-11.693,-11.709,-11.72,-11.712,-11.736,-11.777,-11.784,-11.619,-11.462,-11.233,-10.966,-10.789,-10.997,-11.229,-11.397,-11.589,-11.793,-11.912,-11.954,-11.928,-11.8,-11.801,-11.747,-11.737,-11.697,-11.702,-11.734,-11.72,-11.71,-11.712,-11.705,-11.699,-11.709,-11.705,-11.657,-11.702,-11.677,-11.682,-11.645,-11.653,-11.686,-11.673,-11.651,-11.588,-11.617,-11.649,-11.585,-11.564,-11.583,-11.638,-11.598,-11.551,-11.508,-11.519,-11.526,-11.492,-11.442,-11.432,-11.404,-11.345,-11.375,-11.333,-11.349,-11.332,-11.284,-11.267,-11.221,-11.247,-11.227,-11.198,-11.21,-11.244,-11.253,-11.265,-11.31,-11.312,-11.329,-11.408,-11.459,-11.487,-11.537,-11.524,-11.58,-11.603,-11.647,-11.691,-11.65,-11.665,-11.743,-11.696,-11.685,-11.744,-11.722,-11.794,-11.743,-11.711,-11.726,-11.671,-11.715,-11.711,-11.675,-11.681,-11.747,-11.692,-11.653,-11.749,-11.719,-11.714,-11.707,-11.663,-11.693,-11.698,-11.633,-11.668,-11.712,-11.67,-11.674,-11.656,-11.657,-11.648,-11.669,-11.675,-11.675,-11.644,-11.581,-11.606,-11.675,-11.655,-11.64,-11.668,-11.636,-11.62,-11.574,-11.667,-11.591,-11.628,-11.65,-11.683,-11.658,-11.636,-11.664,-11.608,-11.669,-11.624,-11.672,-11.595,-11.615,-11.616,-11.694,-11.649,-11.624,-11.574,-11.665,-11.632,-11.679,-11.644,-11.657,-11.68,-11.651,-11.644,-11.65,-11.68,-11.685,-11.647,-11.661,-11.644,-11.638,-11.667,-11.712,-11.637,-11.639,-11.697,-11.717,-11.726,-11.642,-11.672,-11.661,-11.702,-11.67,-11.707,-11.7,-11.694,-11.652,-11.709,-11.661,-11.649,-11.679,-11.724,-11.663,-11.717,-11.667,-11.69,-11.702,-11.714,-11.703,-11.651,-11.731,-11.647,-11.73,-11.713,-11.667,-11.703,-11.683,-11.616,-11.712,-11.752,-11.704,-11.651,-11.613,-11.669,-11.586,-11.651,-11.659,-11.601,-11.608,-11.683,-11.682,-11.713,-11.7,-11.722,-11.735,-11.791,-11.759,-11.762,-11.821,-11.808,-11.818,-11.74,-11.79,-11.737,-11.791,-11.815,-11.772,-11.848,-11.822,-11.781,-11.846,-11.949,-11.909,-11.831,-11.534,-11.268,-11.035,-10.878,-11.088,-11.24,-11.394,-11.504,-11.736,-11.859,-11.882,-11.982,-11.92,-11.797,-11.722,-11.703,-11.775,-11.72,-11.761,-11.768,-11.689,-11.72,-11.743,-11.745,-11.659,-11.659,-11.708,-11.744,-11.707,-11.698,-11.622,-11.673,-11.696,-11.646,-11.598,-11.687,-11.595,-11.599,-11.632,-11.59,-11.57,-11.578,-11.547,-11.464,-11.47,-11.48,-11.454,-11.521,-11.502,-11.438,-11.391,-11.367,-11.367,-11.333,-11.325,-11.241,-11.323,-11.308,-11.253,-11.222,-11.194,-11.242,-11.278,-11.256,-11.269,-11.294,-11.311,-11.331,-11.388,-11.43,-11.46,-11.526,-11.583,-11.602,-11.639,-11.702,-11.757,-11.724,-11.715,-11.728,-11.848,-11.795,-11.838,-11.823,-11.827,-11.832,-11.799,-11.844,-11.842,-11.838,-11.845,-11.815,-11.823,-11.875,-11.905,-11.877,-11.848,-11.878,-11.869,-11.81,-11.892,-11.93,-11.877,-11.863,-11.911,-11.919,-11.882,-11.882,-11.882,-11.849,-11.876,-11.886,-11.851,-11.855,-11.866,-11.859,-11.784,-11.843,-11.873,-11.825,-11.834,-11.835,-11.806,-11.813,-11.83,-11.85,-11.819,-11.839,-11.854,-11.847,-11.831,-11.856,-11.838,-11.859,-11.852,-11.853,-11.822,-11.84,-11.871,-11.868,-11.897,-11.885,-11.862,-11.88,-11.886,-11.895,-11.882,-11.849,-11.875,-11.925,-11.905,-11.895,-11.87,-11.887,-11.882,-11.884,-11.878,-11.891,-11.883,-11.877,-11.88,-11.881,-11.875,-11.887,-11.906,-11.893,-11.89,-11.872,-11.885,-11.871,-11.864,-11.861,-11.867,-11.879,-11.886,-11.857,-11.861,-11.853,-11.844,-11.834,-11.808,-11.818,-11.832,-11.809,-11.792,-11.747,-11.724,-11.762,-11.777,-11.779,-11.76,-11.774,-11.784,-11.782,-11.789,-11.794,-11.846,-11.857,-11.853,-11.852,-11.836,-11.828,-11.854,-11.849,-11.856,-11.853,-11.832,-11.848,-11.882,-11.879,-11.879,-11.888,-11.911,-11.961,-12.011,-11.968,-11.78,-11.52,-11.283,-11.018,-11.098,-11.338,-11.538,-11.722,-11.917,-12.112,-12.109,-12.136,-12.14,-12.072,-12.002,-11.959,-11.934,-11.94,-11.933,-11.926,-11.907,-11.921,-11.914,-11.889,-11.866,-11.844,-11.822,-11.842,-11.828,-11.792,-11.798,-11.794,-11.789,-11.766,-11.753,-11.726,-11.705,-11.693,-11.706,-11.655,-11.646,-11.626,-11.612,-11.598,-11.575,-11.513,-11.531,-11.529,-11.486,-11.464,-11.442,-11.426,-11.406,-11.394,-11.364,-11.352,-11.341,-11.321,-11.328,-11.337,-11.327,-11.335,-11.34,-11.367,-11.379,-11.38,-11.405,-11.496,-11.559,-11.61,-11.662,-11.717,-11.744,-11.806,-11.85,-11.876,-11.929,-11.948,-11.978,-12.015,-12.015,-12.029,-12.026,-12.035,-12.055,-12.062,-12.071,-12.071,-12.067,-12.056,-12.064,-12.076,-12.088,-12.106,-12.094,-12.092,-12.076,-12.072,-12.093,-12.092,-12.085,-12.064,-12.09,-12.069,-12.083,-12.058,-12.084,-12.079,-12.07,-12.081,-12.076,-12.058,-12.058,-12.076,-12.07,-12.067,-12.062,-12.036,-12.038,-12.07,-12.076,-12.09,-12.067,-12.069,-12.109,-12.142,-12.126,-12.133,-12.129,-12.172,-12.164,-12.205,-12.196,-12.213,-12.238,-12.228,-12.246,-12.254,-12.263,-12.253,-12.282,-12.285,-12.274,-12.275,-12.29,-12.285,-12.277,-12.296,-12.295,-12.302,-12.314,-12.303,-12.296,-12.31,-12.307,-12.322,-12.325,-12.321,-12.332,-12.325,-12.305,-12.305,-12.304,-12.308,-12.303,-12.293,-12.311,-12.255,-12.249,-12.264,-12.229,-12.2,-12.202,-12.202,-12.175,-12.155,-12.131,-12.121,-12.103,-12.069,-12.073,-12.093,-12.092,-12.1,-12.098,-12.096,-12.099,-12.111,-12.122,-12.139,-12.179,-12.181,-12.148,-12.15,-12.131,-12.146,-12.164,-12.157,-12.142,-12.12,-12.119,-12.137,-12.149,-12.145,-12.184,-12.227,-12.234,-12.107,-11.868,-11.621,-11.32,-11.202,-11.515,-11.741,-11.912,-12.1,-12.21,-12.185,-12.214,-12.277,-12.183,-12.153,-12.105,-12.088,-12.072,-12.06,-12.067,-12.035,-12.027,-12.032,-11.991,-11.994,-11.985,-11.983,-11.98,-11.961,-11.945,-11.929,-11.936,-11.925,-11.89,-11.891,-11.904,-11.914,-11.886,-11.878,-11.869,-11.84,-11.818,-11.808,-11.794,-11.779,-11.765,-11.737,-11.71,-11.696,-11.676,-11.66,-11.615,-11.59,-11.583,-11.581,-11.546,-11.512,-11.486,-11.475,-11.472,-11.475,-11.482,-11.457,-11.439,-11.46,-11.509,-11.56,-11.596,-11.64,-11.675,-11.718,-11.758,-11.778,-11.81,-11.849,-11.878,-11.896,-11.914,-11.94,-11.954,-11.958,-11.965,-11.974,-11.993,-11.991,-11.982,-11.99,-12.007,-11.992,-12.003,-11.994,-11.996,-11.974,-11.974,-11.967,-11.964,-11.958,-11.97,-11.958,-11.956,-11.948,-11.952,-11.948,-11.945,-11.937,-11.935,-11.933,-11.926,-11.937,-11.93,-11.926,-11.918,-11.914,-11.908,-11.911,-11.912,-11.903,-11.908,-11.901,-11.907,-11.887,-11.891,-11.881,-11.9,-11.925,-11.908,-11.922,-11.913,-11.89,-11.916,-11.917,-11.929,-11.937,-11.929,-11.919,-11.887,-11.879,-11.919,-11.953,-11.954,-11.942,-11.948,-11.96,-11.944,-11.921,-11.893,-11.892,-11.869,-11.883,-11.871,-11.851,-11.829,-11.824,-11.833,-11.796,-11.79,-11.781,-11.777,-11.765,-11.784,-11.805,-11.793,-11.792,-11.802,-11.833,-11.854,-11.835,-11.823,-11.833,-11.825,-11.825,-11.81,-11.814,-11.821,-11.815,-11.818,-11.804,-11.794,-11.822,-11.814,-11.824,-11.852,-11.895,-11.901,-11.774,-11.5,-11.248,-10.957,-10.892,-11.203,-11.374,-11.469,-11.634,-11.816,-11.816,-11.827,-11.906,-11.859,-11.787,-11.741,-11.713,-11.69,-11.686,-11.684,-11.671,-11.652,-11.65,-11.613,-11.611,-11.599,-11.596,-11.59,-11.589,-11.579,-11.559,-11.563,-11.563,-11.542,-11.517,-11.505,-11.51,-11.504,-11.494,-11.475,-11.466,-11.456,-11.444,-11.405,-11.382,-11.375,-11.358,-11.336,-11.323,-11.299,-11.287,-11.264,-11.239,-11.214,-11.195,-11.166,-11.151,-11.149,-11.139,-11.124,-11.103,-11.097,-11.094,-11.097,-11.115,-11.139,-11.155,-11.197,-11.236,-11.274,-11.299,-11.354,-11.4,-11.447,-11.463,-11.491,-11.517,-11.535,-11.556,-11.573,-11.58,-11.589,-11.588,-11.602,-11.606,-11.591,-11.588,-11.609,-11.62,-11.613,-11.61,-11.609,-11.61,-11.602,-11.592,-11.609,-11.612,-11.603,-11.605,-11.593,-11.589,-11.589,-11.592,-11.581,-11.575,-11.579,-11.574,-11.578,-11.589,-11.578,-11.574,-11.566,-11.556,-11.557,-11.564,-11.56,-11.558,-11.547,-11.55,-11.558,-11.564,-11.559,-11.554,-11.556,-11.548,-11.55,-11.556,-11.571,-11.563,-11.573,-11.565,-11.568,-11.574,-11.576,-11.573,-11.573,-11.574,-11.57,-11.57,-11.584,-11.594,-11.589,-11.587,-11.581,-11.576,-11.579,-11.581,-11.585,-11.573,-11.561,-11.534,-11.525,-11.536,-11.534,-11.516,-11.502,-11.513,-11.484,-11.467,-11.468,-11.477,-11.483,-11.502,-11.515,-11.518,-11.527,-11.541,-11.557,-11.584,-11.598,-11.597,-11.603,-11.609,-11.617,-11.617,-11.628,-11.624,-11.625,-11.622,-11.64,-11.64,-11.639,-11.657,-11.664,-11.714,-11.744,-11.792,-11.688,-11.46,-11.22,-10.897,-10.703,-10.975,-11.182,-11.295,-11.506,-11.702,-11.751,-11.8,-11.801,-11.703,-11.669,-11.621,-11.622,-11.604,-11.595,-11.588,-11.591,-11.593,-11.607,-11.581,-11.583,-11.563,-11.563,-11.554,-11.559,-11.536,-11.549,-11.545,-11.538,-11.527,-11.511,-11.507,-11.5,-11.486,-11.497,-11.476,-11.459,-11.43,-11.42,-11.414,-11.388,-11.377,-11.363,-11.344,-11.326,-11.306,-11.275,-11.258,-11.238,-11.204,-11.195,-11.175,-11.166,-11.165,-11.15,-11.139,-11.123,-11.123,-11.125,-11.127,-11.133,-11.158,-11.192,-11.231,-11.28,-11.337,-11.367,-11.411,-11.445,-11.478,-11.521,-11.544,-11.558,-11.565,-11.595,-11.622,-11.645,-11.643,-11.652,-11.662,-11.669,-11.664,-11.672,-11.699,-11.682,-11.67,-11.649,-11.678,-11.69,-11.71,-11.685,-11.665,-11.661,-11.679,-11.684,-11.678,-11.678,-11.674,-11.649,-11.666,-11.669,-11.677,-11.666,-11.668,-11.655,-11.666,-11.661,-11.661,-11.663,-11.66,-11.646,-11.643,-11.653,-11.66,-11.654,-11.661,-11.665,-11.672,-11.673,-11.662,-11.678,-11.685,-11.67,-11.669,-11.676,-11.695,-11.694,-11.693,-11.698,-11.693,-11.698,-11.706,-11.71,-11.72,-11.717,-11.711,-11.704,-11.707,-11.718,-11.705,-11.696,-11.714,-11.724,-11.714,-11.726,-11.727,-11.72,-11.717,-11.707,-11.697,-11.676,-11.648,-11.661,-11.635,-11.628,-11.643,-11.68,-11.635,-11.581,-11.474,-11.43,-11.613,-11.638,-11.62,-11.626,-11.643,-11.632,-11.573,-11.67,-11.699,-11.694,-11.721,-11.718,-11.67,-11.763,-11.762,-11.74,-11.684,-11.724,-11.725,-11.674,-11.713,-11.736,-11.778,-11.735,-11.668,-11.754,-11.935,-11.911,-11.71,-11.57,-11.364,-11.104,-10.892,-11.208,-11.481,-11.51,-11.751,-11.904,-11.978,-11.961,-11.879,-11.824,-11.817,-11.832,-11.8,-11.747,-11.817,-11.755,-11.672,-11.705,-11.798,-11.754,-11.744,-11.761,-11.623,-11.648,-11.691,-11.655,-11.718,-11.681,-11.648,-11.713,-11.641,-11.623,-11.648,-11.614,-11.581,-11.519,-11.524,-11.529,-11.544,-11.544,-11.488,-11.463,-11.417,-11.37,-11.371,-11.315,-11.292,-11.217,-11.316,-11.249,-11.246,-11.204,-11.15,-11.218,-11.147,-11.164,-11.158,-11.078,-11.132,-11.15,-11.136,-11.134,-11.15,-11.229,-11.313,-11.336,-11.282,-11.316,-11.364,-11.43,-11.448,-11.409,-11.449,-11.532,-11.501,-11.523,-11.505,-11.488,-11.554,-11.496,-11.502,-11.53,-11.514,-11.526,-11.458,-11.541,-11.533,-11.537,-11.522,-11.493,-11.491,-11.531,-11.541,-11.559,-11.546,-11.525,-11.546,-11.55,-11.564,-11.526,-11.587,-11.581,-11.588,-11.557,-11.554,-11.557,-11.59,-11.59,-11.556,-11.593,-11.6,-11.608,-11.598,-11.609,-11.594,-11.608,-11.605,-11.583,-11.597,-11.607,-11.611,-11.633,-11.603,-11.614,-11.613,-11.672,-11.668,-11.688,-11.684,-11.687,-11.707,-11.731,-11.735,-11.739,-11.787,-11.767,-11.775,-11.854,-11.828,-11.833,-11.854,-11.854,-11.85,-11.883,-11.924,-11.893,-11.893,-11.887,-11.9,-11.925,-11.929,-11.892,-11.864,-11.802,-11.9,-11.922,-11.877,-11.855,-11.821,-11.789,-11.804,-11.795,-11.751,-11.749,-11.77,-11.75,-11.707,-11.687,-11.679,-11.648,-11.617,-11.663,-11.652,-11.607,-11.636,-11.613,-11.588,-11.541,-11.526,-11.512,-11.51,-11.503,-11.493,-11.462,-11.481,-11.49,-11.48,-11.507,-11.492,-11.482,-11.528,-11.488,-11.469,-11.449,-11.45,-11.439,-11.412,-11.398,-11.403,-11.427,-11.435,-11.438,-11.457,-11.468,-11.491,-11.522,-11.577,-11.616,-11.568,-11.348,-11.083,-10.812,-10.543,-10.726,-10.929,-11.092,-11.23,-11.45,-11.6,-11.613,-11.667,-11.593,-11.513,-11.434,-11.434,-11.435,-11.428,-11.438,-11.459,-11.45,-11.457,-11.451,-11.45,-11.449,-11.438,-11.445,-11.432,-11.44,-11.433,-11.412,-11.384,-11.373,-11.363,-11.344,-11.336,-11.319,-11.283,-11.258,-11.256,-11.207,-11.221,-11.211,-11.164,-11.15,-11.117,-11.096,-11.055,-11.041,-11.032,-11.008,-10.993,-10.962,-10.922,-10.901,-10.881,-10.868,-10.851,-10.842,-10.841,-10.853,-10.848,-10.858,-10.852,-10.867,-10.888,-10.935,-10.968,-11.002,-11.029,-11.099,-11.145,-11.208,-11.231,-11.243,-11.303,-11.335,-11.349,-11.364,-11.396,-11.395,-11.429,-11.458,-11.437,-11.458,-11.425,-11.447,-11.469,-11.484,-11.491,-11.486,-11.481,-11.472,-11.479,-11.479,-11.494,-11.51,-11.479,-11.495,-11.483,-11.497,-11.498,-11.499,-11.513,-11.47,-11.476,-11.542,-11.529,-11.463,-11.507,-11.532,-11.518,-11.497,-11.552,-11.521,-11.513,-11.555,-11.552,-11.537,-11.561,-11.56,-11.535,-11.55,-11.556,-11.573,-11.55,-11.591,-11.621,-11.601,-11.611,-11.607,-11.601,-11.644,-11.651,-11.644,-11.636,-11.615,-11.619,-11.65,-11.678,-11.666,-11.661,-11.647,-11.64,-11.637,-11.635,-11.632,-11.652,-11.667,-11.666,-11.64,-11.616,-11.638,-11.647,-11.656,-11.638,-11.641,-11.655,-11.657,-11.666,-11.66,-11.651,-11.656,-11.662,-11.626,-11.647,-11.661,-11.66,-11.639,-11.662,-11.653,-11.641,-11.615,-11.62,-11.605,-11.62,-11.614,-11.633,-11.608,-11.575,-11.573,-11.574,-11.599,-11.567,-11.578,-11.554,-11.57,-11.542,-11.512,-11.484,-11.501,-11.489,-11.495,-11.538,-11.516,-11.564,-11.545,-11.571,-11.604,-11.625,-11.647,-11.629,-11.642,-11.644,-11.622,-11.639,-11.658,-11.638,-11.598,-11.624,-11.644,-11.587,-11.681,-11.67,-11.639,-11.686,-11.723,-11.75,-11.67,-11.479,-11.207,-11.06,-10.778,-10.768,-11.119,-11.278,-11.451,-11.646,-11.72,-11.703,-11.77,-11.777,-11.726,-11.644,-11.592,-11.58,-11.566,-11.579,-11.566,-11.555,-11.547,-11.54,-11.509,-11.529,-11.507,-11.479,-11.484,-11.456,-11.479,-11.475,-11.459,-11.456,-11.429,-11.432,-11.415,-11.413,-11.416,-11.38,-11.36,-11.333,-11.317,-11.31,-11.313,-11.279,-11.273,-11.214,-11.21,-11.238,-11.2,-11.173,-11.134,-11.112,-11.121,-11.1,-11.075,-11.063,-11.046,-11.029,-11.011,-11.01,-11.01,-11.004,-11.016,-11.054,-11.034,-11.073,-11.111,-11.147,-11.2,-11.226,-11.249,-11.275,-11.33,-11.366,-11.381,-11.418,-11.47,-11.467,-11.473,-11.478,-11.47,-11.464,-11.485,-11.531,-11.504,-11.509,-11.524,-11.516,-11.522,-11.515,-11.523,-11.516,-11.498,-11.493,-11.491,-11.486,-11.487,-11.494,-11.487,-11.496,-11.509,-11.49,-11.495,-11.478,-11.475,-11.5,-11.474,-11.483,-11.444,-11.433,-11.472,-11.459,-11.456,-11.466,-11.457,-11.423,-11.424,-11.46,-11.454,-11.456,-11.448,-11.429,-11.462,-11.471,-11.452,-11.453,-11.444,-11.433,-11.455,-11.481,-11.464,-11.473,-11.492,-11.487,-11.476,-11.457,-11.457,-11.471,-11.461,-11.469,-11.471,-11.482,-11.497,-11.49,-11.465,-11.489,-11.502,-11.493,-11.487,-11.488,-11.485,-11.446,-11.44,-11.442,-11.462,-11.47,-11.465,-11.441,-11.436,-11.415,-11.378,-11.39,-11.431,-11.449,-11.442,-11.458,-11.444,-11.44,-11.485,-11.499,-11.52,-11.525,-11.532,-11.559,-11.564,-11.564,-11.545,-11.55,-11.554,-11.557,-11.569,-11.562,-11.539,-11.537,-11.561,-11.594,-11.626,-11.673,-11.7,-11.606,-11.405,-11.145,-10.851,-10.68,-10.87,-11.111,-11.282,-11.446,-11.563,-11.639,-11.644,-11.72,-11.73,-11.649,-11.584,-11.544,-11.515,-11.528,-11.537,-11.552,-11.59,-11.558,-11.538,-11.524,-11.522,-11.503,-11.503,-11.506,-11.47,-11.498,-11.499,-11.476,-11.456,-11.446,-11.455,-11.444,-11.44,-11.418,-11.416,-11.39,-11.398,-11.377,-11.355,-11.346,-11.329,-11.307,-11.296,-11.282,-11.251,-11.253,-11.225,-11.195,-11.157,-11.164,-11.158,-11.143,-11.119,-11.114,-11.117,-11.098,-11.114,-11.073,-11.093,-11.135,-11.163,-11.165,-11.209,-11.242,-11.294,-11.348,-11.349,-11.413,-11.463,-11.492,-11.532,-11.553,-11.554,-11.597,-11.607,-11.61,-11.628,-11.639,-11.631,-11.638,-11.642,-11.641,-11.644,-11.671,-11.659,-11.627,-11.632,-11.694,-11.712,-11.67,-11.67,-11.67,-11.68,-11.686,-11.682,-11.663,-11.643,-11.649,-11.663,-11.671,-11.677,-11.68,-11.691,-11.674,-11.668,-11.659,-11.644,-11.643,-11.649,-11.63,-11.609,-11.599,-11.633,-11.658,-11.652,-11.651,-11.655,-11.662,-11.666,-11.663,-11.664,-11.659,-11.643,-11.649,-11.659,-11.669,-11.667,-11.643,-11.685,-11.704,-11.681,-11.687,-11.669,-11.679,-11.694,-11.7,-11.671,-11.634,-11.661,-11.681,-11.698,-11.674,-11.658,-11.678,-11.653,-11.661,-11.704,-11.728,-11.731,-11.725,-11.71,-11.671,-11.679,-11.699,-11.703,-11.715,-11.723,-11.709,-11.69,-11.72,-11.716,-11.72,-11.698,-11.702,-11.7,-11.664,-11.656,-11.693,-11.678,-11.667,-11.657,-11.646,-11.643,-11.635,-11.63,-11.631,-11.63,-11.633,-11.648,-11.654,-11.673,-11.699,-11.726,-11.743,-11.74,-11.744,-11.758,-11.747,-11.745,-11.767,-11.761,-11.742,-11.748,-11.772,-11.782,-11.747,-11.748,-11.778,-11.821,-11.869,-11.884,-11.831,-11.648,-11.381,-11.089,-10.83,-10.913,-11.188,-11.34,-11.521,-11.816,-11.881,-11.9,-11.94,-11.84,-11.779,-11.734,-11.708,-11.695,-11.695,-11.687,-11.682,-11.7,-11.697,-11.689,-11.651,-11.651,-11.672,-11.665,-11.651,-11.622,-11.639,-11.622,-11.604,-11.6,-11.587,-11.607,-11.585,-11.553,-11.544,-11.536,-11.512,-11.482,-11.481,-11.487,-11.49,-11.453,-11.427,-11.416,-11.393,-11.376,-11.352,-11.315,-11.312,-11.296,-11.242,-11.237,-11.242,-11.223,-11.221,-11.224,-11.224,-11.199,-11.201,-11.218,-11.205,-11.239,-11.258,-11.277,-11.328,-11.388,-11.409,-11.464,-11.518,-11.559,-11.594,-11.606,-11.626,-11.639,-11.654,-11.68,-11.711,-11.713,-11.722,-11.726,-11.718,-11.725,-11.744,-11.717,-11.736,-11.758,-11.759,-11.781,-11.76,-11.748,-11.767,-11.78,-11.758,-11.759,-11.765,-11.745,-11.751,-11.752,-11.757,-11.76,-11.763,-11.752,-11.745,-11.743,-11.727,-11.741,-11.747,-11.734,-11.734,-11.736,-11.738,-11.73,-11.735,-11.727,-11.732,-11.724,-11.728,-11.73,-11.722,-11.737,-11.737,-11.736,-11.718,-11.73,-11.727,-11.732,-11.748,-11.746,-11.734,-11.748,-11.763,-11.763,-11.757,-11.761,-11.777,-11.769,-11.776,-11.777,-11.772,-11.747,-11.764,-11.769,-11.764,-11.761,-11.761,-11.76,-11.763,-11.762,-11.769,-11.777,-11.751,-11.767,-11.774,-11.782,-11.788,-11.794,-11.792,-11.788,-11.794,-11.77,-11.765,-11.774,-11.782,-11.778,-11.778,-11.766,-11.784,-11.779,-11.779,-11.771,-11.781,-11.797,-11.793,-11.8,-11.801,-11.806,-11.79,-11.784,-11.789,-11.801,-11.778,-11.774,-11.756,-11.783,-11.779,-11.767,-11.766,-11.748,-11.736,-11.709,-11.693,-11.709,-11.717,-11.727,-11.74,-11.773,-11.772,-11.755,-11.777,-11.796,-11.8,-11.821,-11.835,-11.846,-11.859,-11.838,-11.832,-11.859,-11.861,-11.843,-11.851,-11.848,-11.851,-11.829,-11.861,-11.9,-11.927,-11.966,-11.983,-11.884,-11.669,-11.42,-11.098,-10.915,-11.156,-11.362,-11.503,-11.739,-11.977,-12.03,-12.065,-12.032,-11.961,-11.937,-11.85,-11.834,-11.824,-11.838,-11.826,-11.836,-11.82,-11.816,-11.807,-11.808,-11.79,-11.778,-11.764,-11.775,-11.77,-11.764,-11.749,-11.744,-11.734,-11.728,-11.711,-11.705,-11.678,-11.694,-11.69,-11.66,-11.645,-11.64,-11.629,-11.612,-11.591,-11.593,-11.572,-11.55,-11.535,-11.503,-11.468,-11.459,-11.435,-11.425,-11.417,-11.39,-11.381,-11.363,-11.355,-11.35,-11.361,-11.358,-11.388,-11.366,-11.375,-11.413,-11.449,-11.508,-11.547,-11.588,-11.638,-11.651,-11.69,-11.726,-11.747,-11.784,-11.813,-11.836,-11.842,-11.844,-11.865,-11.856,-11.889,-11.89,-11.9,-11.902,-11.917,-11.915,-11.909,-11.932,-11.926,-11.924,-11.93,-11.909,-11.926,-11.914,-11.903,-11.918,-11.923,-11.931,-11.909,-11.929,-11.927,-11.907,-11.907,-11.898,-11.886,-11.892,-11.9,-11.898,-11.897,-11.891,-11.892,-11.884,-11.888,-11.867,-11.881,-11.883,-11.877,-11.867,-11.856,-11.876,-11.888,-11.9,-11.904,-11.901,-11.893,-11.897,-11.884,-11.899,-11.899,-11.901,-11.903,-11.916,-11.914,-11.92,-11.919,-11.912,-11.902,-11.916,-11.926,-11.913,-11.906,-11.906,-11.905,-11.904,-11.899,-11.918,-11.947,-11.936,-11.932,-11.925,-11.917,-11.913,-11.903,-11.913,-11.941,-11.939,-11.944,-11.927,-11.911,-11.919,-11.925,-11.906,-11.919,-11.927,-11.94,-11.936,-11.919,-11.926,-11.927,-11.931,-11.937,-11.933,-11.932,-11.953,-11.964,-11.952,-11.94,-11.949,-11.964,-11.958,-11.96,-11.946,-11.943,-11.942,-11.972,-11.983,-11.984,-11.985,-11.97,-11.976,-11.981,-11.979,-11.979,-11.988,-11.988,-11.993,-11.998,-11.993,-11.994,-12.004,-11.995,-11.983,-11.994,-11.993,-11.983,-11.984,-11.98,-11.975,-11.972,-11.974,-11.957,-11.944,-11.921,-11.906,-11.912,-11.918,-11.923,-11.94,-11.945,-11.948,-11.953,-11.979,-11.995,-12.005,-12.036,-12.046,-12.041,-12.036,-12.044,-12.057,-12.053,-12.052,-12.043,-12.039,-12.032,-12.038,-12.041,-12.036,-12.045,-12.084,-12.125,-12.186,-12.119,-11.917,-11.659,-11.376,-11.22,-11.106,-11.422,-11.603,-11.711,-11.999,-12.157,-12.177,-12.228,-12.178,-12.065,-12.047,-12.003,-11.996,-11.966,-11.985,-11.979,-11.974,-11.945,-11.943,-11.928,-11.929,-11.914,-11.906,-11.895,-11.919,-11.905,-11.903,-11.888,-11.873,-11.832,-11.843,-11.848,-11.846,-11.839,-11.809,-11.772,-11.772,-11.755,-11.749,-11.734,-11.722,-11.703,-11.682,-11.662,-11.64,-11.614,-11.583,-11.547,-11.55,-11.533,-11.527,-11.506,-11.49,-11.46,-11.458,-11.443,-11.443,-11.428,-11.43,-11.441,-11.454,-11.485,-11.479,-11.512,-11.549,-11.583,-11.637,-11.685,-11.716,-11.747,-11.761,-11.788,-11.84,-11.883,-11.897,-11.908,-11.905,-11.909,-11.908,-11.909,-11.929,-11.936,-11.942,-11.955,-11.952,-11.934,-11.941,-11.923,-11.928,-11.954,-11.934,-11.95,-11.933,-11.935,-11.94,-11.939,-11.907,-11.916,-11.931,-11.943,-11.945,-11.957,-11.936,-11.938,-11.919,-11.91,-11.925,-11.92,-11.921,-11.921,-11.892,-11.9,-11.89,-11.901,-11.899,-11.898,-11.899,-11.9,-11.893,-11.902,-11.916,-11.924,-11.926,-11.927,-11.893,-11.931,-11.939,-11.955,-11.944,-11.95,-11.945,-11.939,-11.934,-11.933,-11.953,-11.972,-11.969,-11.949,-11.943,-11.966,-11.968,-11.968,-11.98,-11.968,-11.961,-11.958,-11.957,-11.964,-11.993,-11.984,-11.969,-11.981,-11.988,-11.974,-11.988,-11.982,-11.981,-11.99,-11.992,-11.99,-12.004,-12.002,-11.985,-11.991,-11.992,-12.007,-11.997,-12.007,-12.001,-11.99,-12.003,-11.989,-11.989,-12.008,-12.038,-12.021,-12.017,-12.018,-12.024,-12.012,-11.99,-12.023,-12.013,-12.017,-12.023,-12.005,-12.014,-12.022,-12.025,-12.005,-11.993,-11.994,-11.982,-11.971,-11.984,-11.981,-11.959,-11.922,-11.913,-11.914,-11.945,-11.945,-11.928,-11.934,-11.967,-11.963,-11.972,-11.989,-12.005,-12.021,-12.053,-12.044,-12.04,-12.05,-12.036,-12.024,-12.023,-12.04,-12.046,-12.046,-12.03,-12.028,-12.04,-12.053,-12.067,-12.109,-12.154,-12.156,-12.043,-11.77,-11.518,-11.229,-11.16,-11.462,-11.64,-11.733,-11.897,-12.06,-12.054,-12.069,-12.174,-12.154,-12.099,-12.045,-12.005,-11.971,-11.975,-11.949,-11.947,-11.942,-11.927,-11.908,-11.912,-11.896,-11.899,-11.89,-11.876,-11.868,-11.858,-11.846,-11.841,-11.842,-11.85,-11.829,-11.826,-11.796,-11.788,-11.789,-11.768,-11.754,-11.737,-11.712,-11.701,-11.701,-11.695,-11.675,-11.645,-11.621,-11.608,-11.572,-11.545,-11.532,-11.527,-11.529,-11.51,-11.497,-11.472,-11.488,-11.467,-11.471,-11.484,-11.474,-11.472,-11.5,-11.519,-11.546,-11.594,-11.631,-11.682,-11.71,-11.74,-11.784,-11.811,-11.845,-11.869,-11.891,-11.953,-11.947,-11.955,-11.928,-11.967,-11.99,-12.008,-12.021,-12,-12.017,-12.017,-12.025,-11.991,-12.001,-12.027,-12.013,-12.016,-12,-11.998,-12.054,-12.033,-12.032,-12.019,-12.015,-12.026,-12.019,-12.003,-12.013,-12.02,-12.024,-12.033,-12.02,-12.036,-12.032,-12.028,-12.025,-12.027,-12.032,-12.016,-12.035,-12.035,-12.041,-12.039,-12.031,-12.038,-12.081,-12.061,-12.073,-12.059,-12.088,-12.09,-12.076,-12.112,-12.129,-12.131,-12.134,-12.135,-12.144,-12.15,-12.164,-12.174,-12.168,-12.154,-12.184,-12.168,-12.178,-12.19,-12.21,-12.2,-12.216,-12.182,-12.211,-12.206,-12.205,-12.213,-12.212,-12.222,-12.217,-12.224,-12.225,-12.219,-12.242,-12.235,-12.211,-12.236,-12.239,-12.246,-12.235,-12.25,-12.26,-12.262,-12.257,-12.256,-12.257,-12.269,-12.261,-12.258,-12.238,-12.25,-12.24,-12.265,-12.263,-12.241,-12.223,-12.21,-12.21,-12.203,-12.184,-12.207,-12.198,-12.169,-12.127,-12.139,-12.146,-12.133,-12.129,-12.125,-12.124,-12.143,-12.144,-12.18,-12.168,-12.173,-12.208,-12.238,-12.238,-12.222,-12.221,-12.209,-12.203,-12.206,-12.219,-12.219,-12.205,-12.21,-12.193,-12.187,-12.196,-12.196,-12.226,-12.268,-12.288,-12.196,-11.991,-11.738,-11.608,-11.326,-11.255,-11.569,-11.688,-11.833,-12.15,-12.286,-12.292,-12.332,-12.249,-12.171,-12.11,-12.071,-12.078,-12.075,-12.071,-12.072,-12.056,-12.042,-12.03,-12.031,-12.019,-12.01,-11.992,-11.977,-11.97,-11.963,-11.95,-11.947,-11.942,-11.939,-11.916,-11.902,-11.904,-11.897,-11.872,-11.848,-11.823,-11.809,-11.81,-11.793,-11.751,-11.753,-11.724,-11.698,-11.676,-11.642,-11.624,-11.609,-11.589,-11.575,-11.556,-11.532,-11.515,-11.512,-11.499,-11.479,-11.484,-11.474,-11.468,-11.474,-11.512,-11.532,-11.569,-11.592,-11.645,-11.689,-11.735,-11.776,-11.811,-11.846,-11.871,-11.89,-11.921,-11.955,-11.988,-12.003,-12.016,-12.012,-12.016,-12.021,-12.021,-12.031,-12.038,-12.051,-12.062,-12.073,-12.065,-12.064,-12.062,-12.053,-12.068,-12.066,-12.05,-12.069,-12.06,-12.05,-12.056,-12.063,-12.078,-12.067,-12.064,-12.065,-12.069,-12.055,-12.05,-12.051,-12.06,-12.059,-12.055,-12.044,-12.056,-12.036,-12.036,-12.061,-12.048,-12.051,-12.05,-12.043,-12.061,-12.055,-12.055,-12.052,-12.044,-12.045,-12.046,-12.045,-12.055,-12.066,-12.098,-12.094,-12.103,-12.106,-12.114,-12.116,-12.115,-12.117,-12.119,-12.144,-12.128,-12.12,-12.116,-12.117,-12.132,-12.131,-12.132,-12.135,-12.144,-12.135,-12.133,-12.152,-12.155,-12.142,-12.139,-12.132,-12.142,-12.148,-12.144,-12.133,-12.142,-12.151,-12.16,-12.166,-12.155,-12.152,-12.133,-12.13,-12.149,-12.15,-12.153,-12.159,-12.145,-12.148,-12.131,-12.142,-12.143,-12.144,-12.139,-12.153,-12.149,-12.144,-12.132,-12.136,-12.126,-12.122,-12.106,-12.095,-12.102,-12.093,-12.057,-12.043,-12.019,-12.006,-12.031,-12.038,-12.04,-12.036,-12.046,-12.07,-12.053,-12.051,-12.083,-12.107,-12.103,-12.12,-12.124,-12.124,-12.123,-12.138,-12.136,-12.137,-12.115,-12.098,-12.123,-12.095,-12.1,-12.107,-12.123,-12.157,-12.196,-12.2,-12.097,-11.855,-11.614,-11.32,-11.152,-11.449,-11.656,-11.792,-12.009,-12.215,-12.25,-12.285,-12.245,-12.144,-12.119,-12.044,-12.047,-12.031,-12.03,-12.017,-12.011,-12.008,-11.989,-11.974,-11.967,-11.944,-11.957,-11.941,-11.955,-11.928,-11.914,-11.899,-11.901,-11.872,-11.871,-11.85,-11.841,-11.841,-11.823,-11.794,-11.793,-11.779,-11.757,-11.744,-11.718,-11.694,-11.681,-11.659,-11.625,-11.607,-11.597,-11.572,-11.544,-11.519,-11.501,-11.486,-11.459,-11.436,-11.451,-11.44,-11.421,-11.417,-11.408,-11.398,-11.417,-11.439,-11.448,-11.495,-11.528,-11.563,-11.624,-11.664,-11.686,-11.705,-11.733,-11.787,-11.794,-11.808,-11.817,-11.862,-11.88,-11.884,-11.893,-11.897,-11.901,-11.891,-11.902,-11.898,-11.879,-11.904,-11.908,-11.9,-11.902,-11.896,-11.875,-11.884,-11.887,-11.882,-11.873,-11.878,-11.882,-11.875,-11.868,-11.864,-11.851,-11.847,-11.839,-11.854,-11.845,-11.836,-11.818,-11.841,-11.832,-11.83,-11.836,-11.823,-11.816,-11.814,-11.801,-11.796,-11.804,-11.796,-11.8,-11.801,-11.787,-11.799,-11.793,-11.802,-11.814,-11.811,-11.788,-11.785,-11.797,-11.812,-11.813,-11.81,-11.814,-11.817,-11.807,-11.812,-11.805,-11.804,-11.814,-11.791,-11.807,-11.808,-11.809,-11.809,-11.806,-11.789,-11.786,-11.788,-11.791,-11.801,-11.804,-11.792,-11.787,-11.789,-11.78,-11.782,-11.781,-11.783,-11.799,-11.777,-11.781,-11.784,-11.808,-11.788,-11.763,-11.777,-11.752,-11.745,-11.748,-11.736,-11.72,-11.721,-11.71,-11.684,-11.686,-11.672,-11.678,-11.696,-11.708,-11.736,-11.729,-11.73,-11.763,-11.799,-11.806,-11.813,-11.803,-11.811,-11.827,-11.802,-11.799,-11.807,-11.796,-11.8,-11.818,-11.818,-11.818,-11.816,-11.83,-11.895,-11.941,-11.881,-11.722,-11.45,-11.225,-10.957,-10.946,-11.145,-11.38,-11.53,-11.707,-11.952,-11.96,-12.001,-11.988,-11.865,-11.809,-11.791,-11.767,-11.769,-11.766,-11.746,-11.741,-11.739,-11.711,-11.757,-11.731,-11.73,-11.724,-11.703,-11.71,-11.672,-11.667,-11.653,-11.689,-11.664,-11.639,-11.652,-11.633,-11.579,-11.585,-11.579,-11.557,-11.567,-11.567,-11.546,-11.534,-11.513,-11.478,-11.453,-11.465,-11.439,-11.377,-11.365,-11.388,-11.36,-11.354,-11.334,-11.318,-11.319,-11.286,-11.275,-11.288,-11.315,-11.334,-11.341,-11.36,-11.352,-11.352,-11.444,-11.502,-11.551,-11.608,-11.619,-11.64,-11.72,-11.752,-11.819,-11.829,-11.83,-11.846,-11.87,-11.893,-11.858,-11.876,-11.94,-11.958,-11.925,-11.933,-11.918,-11.925,-11.916,-11.931,-11.936,-11.895,-11.923,-11.911,-11.914,-11.903,-11.873,-11.923,-11.939,-11.899,-11.865,-11.889,-11.905,-11.912,-11.907,-11.899,-11.862,-11.866,-11.896,-11.857,-11.883,-11.863,-11.896,-11.88,-11.861,-11.856,-11.855,-11.845,-11.858,-11.876,-11.881,-11.871,-11.853,-11.878,-11.881,-11.863,-11.839,-11.873,-11.89,-11.88,-11.864,-11.876,-11.864,-11.907,-11.878,-11.872,-11.888,-11.867,-11.901,-11.9,-11.888,-11.876,-11.886,-11.897,-11.895,-11.904,-11.878,-11.906,-11.891,-11.859,-11.851,-11.817,-11.855,-11.861,-11.838,-11.834,-11.824,-11.822,-11.8,-11.771,-11.714,-11.712,-11.75,-11.776,-11.79,-11.752,-11.804,-11.783,-11.782,-11.838,-11.842,-11.85,-11.897,-11.888,-11.863,-11.848,-11.888,-11.875,-11.845,-11.865,-11.892,-11.877,-11.891,-11.854,-11.852,-11.906,-11.985,-11.989,-11.824,-11.533,-11.369,-11.07,-10.968,-11.313,-11.496,-11.585,-11.817,-12.017,-12.001,-12.014,-11.98,-11.94,-11.885,-11.833,-11.797,-11.805,-11.819,-11.776,-11.804,-11.813,-11.808,-11.79,-11.758,-11.774,-11.771,-11.761,-11.738,-11.733,-11.748,-11.756,-11.737,-11.701,-11.706,-11.73,-11.701,-11.669,-11.66,-11.645,-11.595,-11.625,-11.599,-11.576,-11.558,-11.5,-11.499,-11.502,-11.486,-11.447,-11.406,-11.367,-11.334,-11.339,-11.343,-11.345,-11.31,-11.262,-11.232,-11.263,-11.258,-11.227,-11.244,-11.28,-11.271,-11.287,-11.303,-11.389,-11.429,-11.481,-11.52,-11.535,-11.549,-11.573,-11.616,-11.634,-11.7,-11.725,-11.741,-11.749,-11.751,-11.749,-11.771,-11.775,-11.775,-11.787,-11.754,-11.775,-11.793,-11.785,-11.785,-11.785,-11.78,-11.781,-11.784,-11.774,-11.779,-11.758,-11.756,-11.757,-11.761,-11.773,-11.747,-11.745,-11.75,-11.761,-11.757,-11.751,-11.751,-11.733,-11.726,-11.743,-11.738,-11.723,-11.728,-11.741,-11.726,-11.725,-11.732,-11.716,-11.731,-11.734,-11.731,-11.729,-11.737,-11.736,-11.739,-11.738,-11.755,-11.752,-11.751,-11.743,-11.736,-11.742,-11.762,-11.769,-11.764,-11.746,-11.763,-11.756,-11.735,-11.746,-11.754,-11.758,-11.765,-11.759,-11.737,-11.753,-11.736,-11.733,-11.734,-11.758,-11.749,-11.72,-11.695,-11.685,-11.709,-11.696,-11.701,-11.685,-11.682,-11.656,-11.624,-11.609,-11.633,-11.626,-11.651,-11.665,-11.669,-11.678,-11.683,-11.67,-11.72,-11.765,-11.757,-11.757,-11.766,-11.753,-11.74,-11.764,-11.776,-11.756,-11.735,-11.763,-11.768,-11.767,-11.747,-11.777,-11.815,-11.881,-11.88,-11.764,-11.526,-11.289,-11.005,-10.85,-11.151,-11.378,-11.536,-11.717,-11.874,-11.878,-11.919,-11.964,-11.848,-11.794,-11.737,-11.741,-11.694,-11.703,-11.721,-11.724,-11.731,-11.708,-11.682,-11.712,-11.706,-11.689,-11.67,-11.648,-11.667,-11.66,-11.654,-11.646,-11.645,-11.646,-11.628,-11.615,-11.602,-11.586,-11.582,-11.564,-11.539,-11.543,-11.519,-11.486,-11.444,-11.431,-11.442,-11.43,-11.405,-11.385,-11.365,-11.336,-11.305,-11.267,-11.266,-11.274,-11.243,-11.24,-11.23,-11.232,-11.216,-11.218,-11.233,-11.241,-11.279,-11.309,-11.341,-11.37,-11.387,-11.448,-11.509,-11.542,-11.572,-11.592,-11.62,-11.624,-11.625,-11.691,-11.7,-11.692,-11.709,-11.724,-11.719,-11.714,-11.722,-11.743,-11.782,-11.767,-11.755,-11.729,-11.756,-11.716,-11.742,-11.745,-11.732,-11.732,-11.729,-11.711,-11.732,-11.725,-11.728,-11.71,-11.707,-11.727,-11.713,-11.725,-11.728,-11.704,-11.692,-11.73,-11.732,-11.728,-11.716,-11.696,-11.693,-11.706,-11.708,-11.718,-11.706,-11.712,-11.733,-11.72,-11.722,-11.709,-11.728,-11.72,-11.721,-11.734,-11.732,-11.739,-11.755,-11.746,-11.754,-11.745,-11.74,-11.767,-11.762,-11.75,-11.751,-11.758,-11.762,-11.75,-11.741,-11.743,-11.72,-11.706,-11.717,-11.737,-11.704,-11.676,-11.686,-11.678,-11.665,-11.661,-11.66,-11.655,-11.654,-11.701,-11.708,-11.704,-11.728,-11.75,-11.782,-11.785,-11.791,-11.783,-11.782,-11.79,-11.799,-11.781,-11.774,-11.801,-11.787,-11.795,-11.782,-11.786,-11.786,-11.776,-11.803,-11.893,-11.917,-11.835,-11.616,-11.356,-11.084,-10.892,-11.07,-11.327,-11.543,-11.725,-11.846,-11.802
