0.83484,0.85098,0.85254,0.85494,0.8507,0.85445,0.86432,0.86886,0.86553,0.85743,0.85534,0.86722,0.88185,0.88246,0.87629,0.87805,0.88931,0.90183,0.89887,0.89842,0.90718,0.91781,0.93627,0.94352,0.94241,0.94472,0.95723,0.96478,0.9701,0.96552,0.95827,0.9643,0.97695,0.98006,0.98065,0.973,0.97572,0.98943,0.9955,0.98896,0.97825,0.98825,1.0042,1.0114,1.0093,1.007,1.0048,1.015,1.0308,1.0263,1.0229,1.0267,1.0262,1.0407,1.036,1.0249,1.0166,1.0147,1.022,1.0147,0.99383,0.98796,0.98928,0.99285,0.99089,0.96992,0.96045,0.9609,0.96219,0.95688,0.93753,0.93074,0.92139,0.93228,0.91932,0.91037,0.90156,0.90246,0.90409,0.89774,0.88638,0.8791,0.87355,0.88347,0.87855,0.86938,0.85803,0.86256,0.86234,0.86171,0.85976,0.84591,0.84545,0.85036,0.85214,0.84977,0.83745,0.83735,0.84216,0.84718,0.85175,0.83694,0.84252,0.84377,0.84,0.84029,0.82358,0.82555,0.83397,0.83913,0.84016,0.83079,0.81969,0.82376,0.84197,0.84419,0.83218,0.82394,0.83115,0.83772,0.83626,0.82802,0.82488,0.82559,0.83407,0.83194,0.82888,0.81728,0.82058,0.82759,0.82739,0.82772,0.81639,0.81925,0.83127,0.82779,0.82571,0.80746,0.81693,0.82937,0.82987,0.831,0.82028,0.81508,0.82687,0.82958,0.83367,0.82235,0.82565,0.82506,0.83384,0.83127,0.82558,0.81678,0.8245,0.84596,0.85446,0.86155,0.86717,0.88331,0.89945,0.90656,0.90868,0.91906,0.92999,0.94167,0.94022,0.93305,0.92846,0.92975,0.93379,0.91989,0.8977,0.86016,0.84706,0.85198,0.84414,0.8282,0.80987,0.81295,0.82015,0.81374,0.80927,0.80176,0.80405,0.82034,0.80659,0.79578,0.77293,0.7708,0.77773,0.85916,1.0109,1.2717,1.5799,1.8729,2.1493,2.255,2.224,2.1086,1.7476,1.1858,0.62294,0.50034,0.55824,0.62221,0.6866,0.70645,0.737,0.73465,0.74387,0.75785,0.76991,0.7535,0.76303,0.75439,0.77422,0.76465,0.76531,0.75023,0.7613,0.77055,0.77821,0.76864,0.76706,0.76381,0.77474,0.7688,0.7712,0.75745,0.7685,0.76149,0.7786,0.77827,0.77071,0.76719,0.77568,0.78653,0.7871,0.76846,0.77166,0.77718,0.78178,0.77939,0.76193,0.76168,0.76985,0.77872,0.7747,0.7702,0.76863,0.78121,0.79331,0.78715,0.78101,0.78582,0.7897,0.81049,0.80596,0.80119,0.79877,0.81261,0.81937,0.82358,0.81247,0.81127,0.80998,0.82211,0.82549,0.82557,0.81357,0.82286,0.83545,0.84883,0.8422,0.83825,0.84762,0.8659,0.87543,0.88054,0.87623,0.89322,0.90329,0.91509,0.91751,0.91028,0.90979,0.92825,0.92811,0.9326,0.92627,0.92156,0.92995,0.93798,0.942,0.93154,0.93495,0.94928,0.94986,0.95868,0.95474,0.95653,0.96822,0.97316,0.97924,0.97447,0.97688,0.98495,1,1.0015,0.99987,0.99139,0.98856,1.0014,0.99857,0.99276,0.9768,0.97715,0.98228,0.97282,0.97137,0.9621,0.95196,0.96111,0.94354,0.93476,0.92386,0.92696,0.928,0.92057,0.91602,0.90808,0.90098,0.90098,0.89722,0.89842,0.88149,0.87791,0.87991,0.88095,0.88039,0.86953,0.86267,0.86262,0.87213,0.86118,0.8524,0.8425,0.85467,0.8597,0.85583,0.85227,0.84719,0.84482,0.85329,0.85419,0.84951,0.83449,0.83946,0.85161,0.84992,0.84263,0.83339,0.83301,0.85372,0.84837,0.8464,0.83541,0.83374,0.84351,0.8464,0.84401,0.83648,0.8534,0.87262,0.88879,0.89552,0.89087,0.89619,0.91489,0.93118,0.93733,0.94128,0.94213,0.95194,0.96306,0.96332,0.94491,0.93501,0.92465,0.90625,0.89311,0.86955,0.85581,0.8438,0.84197,0.83692,0.82375,0.81777,0.81307,0.82558,0.81689,0.81149,0.80477,0.80947,0.81623,0.8158,0.79784,0.785,0.78136,0.86386,0.92431,1.0885,1.3842,1.6879,1.9932,2.2042,2.2294,2.1823,1.9513,1.5412,0.91703,0.53986,0.51824,0.56918,0.64754,0.69875,0.73631,0.73923,0.76411,0.77269,0.79395,0.79075,0.78855,0.77381,0.78208,0.78632,0.79324,0.77125,0.77375,0.77517,0.78729,0.79216,0.78854,0.7808,0.79308,0.79727,0.80625,0.79296,0.79266,0.80147,0.81642,0.81247,0.80982,0.79763,0.80524,0.82067,0.81402,0.80684,0.80055,0.80907,0.81359,0.81086,0.80677,0.79938,0.80091,0.81163,0.81991,0.80757,0.79997,0.80398,0.81809,0.82027,0.82507,0.8172,0.81997,0.83211,0.84408,0.84307,0.83495,0.83596,0.84825,0.8559,0.85566,0.8522,0.85346,0.86115,0.86536,0.86988,0.86329,0.86431,0.87889,0.89033,0.88607,0.89316,0.89375,0.90331,0.91793,0.92207,0.93232,0.93107,0.93989,0.9588,0.95525,0.95131,0.94596,0.95073,0.96826,0.96899,0.96174,0.95939,0.95696,0.96689,0.96607,0.97452,0.9679,0.96981,0.98099,0.98848,0.98982,0.98913,0.99053,1.0052,1.0146,1.0143,1.0091,1.0164,1.0282,1.0319,1.0362,1.0264,1.0244,1.0262,1.0323,1.031,1.0205,1.0116,1.0111,1.0198,1.0059,0.9952,0.97901,0.97825,0.97969,0.97147,0.95633,0.95253,0.94835,0.95596,0.9473,0.92984,0.92367,0.92159,0.92856,0.92586,0.91932,0.8977,0.90032,0.91073,0.90412,0.8983,0.88732,0.88174,0.89249,0.89309,0.88517,0.87571,0.87811,0.88485,0.88472,0.87801,0.86824,0.87314,0.87637,0.88872,0.88066,0.86714,0.86231,0.86351,0.87724,0.87243,0.86367,0.85982,0.86465,0.87015,0.86868,0.85871,0.8529,0.85758,0.8715,0.86971,0.85843,0.85725,0.85781,0.86927,0.86572,0.86318,0.85475,0.86109,0.86993,0.86733,0.85786,0.8448,0.855,0.86102,0.86727,0.8611,0.85587,0.85555,0.86699,0.86513,0.8566,0.85241,0.86015,0.86478,0.8642,0.87506,0.87807,0.88968,0.90165,0.91229,0.91845,0.91901,0.93571,0.95349,0.96503,0.96447,0.95927,0.96387,0.97514,0.9781,0.96298,0.94155,0.91729,0.90786,0.91014,0.89546,0.87165,0.85565,0.85394,0.85158,0.84941,0.84344,0.83022,0.83493,0.83843,0.84264,0.83575,0.82458,0.83054,0.81828,0.80778,0.81658,0.91316,1.0034,1.2568,1.5896,1.8909,2.1618,2.2695,2.2656,2.1748,1.8245,1.2919,0.70936,0.53427,0.60923,0.6622,0.70829,0.73205,0.77672,0.77492,0.79232,0.78051,0.78858,0.78822,0.81801,0.79579,0.79512,0.78356,0.79329,0.79495,0.79938,0.7904,0.79581,0.79444,0.80672,0.80331,0.80706,0.79125,0.80491,0.81161,0.81259,0.80253,0.80832,0.80548,0.82125,0.82166,0.82365,0.81015,0.81425,0.82027,0.82199,0.82289,0.8113,0.80745,0.8217,0.82656,0.8171,0.81161,0.8151,0.83123,0.82835,0.82415,0.82289,0.8284,0.83491,0.84632,0.8456,0.84483,0.83731,0.85309,0.8673,0.86724,0.86188,0.86462,0.86912,0.88441,0.87971,0.87245,0.87283,0.88467,0.89241,0.89163,0.88802,0.89373,0.90152,0.91754,0.92197,0.92186,0.9201,0.93063,0.9471,0.96316,0.9575,0.95943,0.95934,0.97695,0.97661,0.97014,0.96595,0.96787,0.98073,0.9879,0.98023,0.97864,0.97579,0.99105,0.99625,0.99693,0.98336,0.99525,1.0057,1.0145,1.0183,1.0144,1.0227,1.0327,1.035,1.0352,1.0219,1.0347,1.0367,1.0417,1.0364,1.0259,1.0235,1.0301,1.0343,1.029,1.0169,1.0013,0.99549,1.0081,1.003,0.98946,0.97047,0.97447,0.97343,0.96962,0.95335,0.9348,0.93447,0.94197,0.93714,0.92284,0.91797,0.91436,0.91739,0.92385,0.9138,0.89366,0.88939,0.8941,0.89689,0.89502,0.87502,0.8782,0.8847,0.88747,0.87995,0.87026,0.87315,0.87635,0.87627,0.87407,0.87015,0.86114,0.86717,0.87718,0.8707,0.86023,0.85452,0.85318,0.8735,0.86569,0.85767,0.85414,0.85892,0.86596,0.8629,0.85035,0.8519,0.85634,0.86227,0.85596,0.85159,0.84219,0.84889,0.85675,0.85582,0.85367,0.84185,0.84876,0.85211,0.85455,0.85327,0.84335,0.845,0.86013,0.86038,0.84942,0.84701,0.84568,0.85662,0.853,0.853,0.84719,0.84751,0.84676,0.85695,0.85233,0.84261,0.84652,0.84584,0.85242,0.84597,0.83408,0.83891,0.83941,0.85085,0.84324,0.83558,0.83301,0.84294,0.84703,0.84216,0.83943,0.83754,0.8377,0.86127,0.86664,0.88083,0.88037,0.8868,0.90822,0.92046,0.91979,0.93049,0.9284,0.94822,0.95133,0.94724,0.9451,0.93761,0.93693,0.92661,0.91051,0.87326,0.86899,0.86736,0.84922,0.83886,0.82075,0.81893,0.81596,0.82186,0.81203,0.80005,0.802,0.80752,0.81194,0.80328,0.77052,0.75734,0.77112,0.88001,0.95701,1.1897,1.5066,1.8088,2.1097,2.2405,2.2353,2.1612,1.8277,1.3459,0.74709,0.49216,0.5509,0.61009,0.68085,0.69623,0.72816,0.72763,0.75016,0.74439,0.76156,0.74641,0.75045,0.73511,0.75513,0.74551,0.74762,0.72819,0.74224,0.74621,0.75373,0.74749,0.73794,0.73701,0.75379,0.75183,0.75651,0.73696,0.74763,0.7489,0.76261,0.75914,0.75609,0.74993,0.75986,0.76329,0.76872,0.75067,0.75422,0.75176,0.76527,0.76781,0.75537,0.74662,0.7591,0.76782,0.76848,0.76177,0.75655,0.76563,0.78272,0.77674,0.77215,0.75964,0.77196,0.78393,0.78163,0.794,0.78825,0.79499,0.80414,0.80642,0.81107,0.79185,0.79688,0.81419,0.81433,0.81883,0.8105,0.81546,0.82954,0.8372,0.8365,0.8397,0.83424,0.84917,0.85457,0.87152,0.8631,0.87647,0.8844,0.90565,0.90304,0.89101,0.89399,0.90495,0.91712,0.91578,0.89639,0.90893,0.92036,0.92259,0.91297,0.91672,0.90547,0.91459,0.93213,0.9316,0.92921,0.92068,0.92769,0.94567,0.94393,0.94739,0.94599,0.9479,0.96701,0.96537,0.96219,0.95172,0.95062,0.9658,0.96427,0.9516,0.93209,0.92713,0.92879,0.93302,0.9254,0.90999,0.89938,0.90264,0.90219,0.89271,0.87102,0.86914,0.86654,0.87021,0.85832,0.84582,0.83963,0.84595,0.84651,0.8368,0.82481,0.81762,0.8177,0.83158,0.82175,0.80659,0.79227,0.80168,0.80894,0.80191,0.78697,0.78506,0.79155,0.799,0.79125,0.77949,0.77776,0.77598,0.78266,0.79118,0.77653,0.76853,0.77321,0.76986,0.77507,0.77027,0.75349,0.76077,0.76928,0.76804,0.76783,0.75937,0.76141,0.75856,0.76369,0.76748,0.7531,0.75479,0.76742,0.77934,0.77001,0.75506,0.75316,0.74603,0.76049,0.75705,0.75389,0.7562,0.75278,0.76202,0.75723,0.74885,0.74372,0.75013,0.75987,0.75742,0.74689,0.74505,0.75093,0.76521,0.779,0.78135,0.79035,0.8042,0.82145,0.82643,0.8444,0.83504,0.84391,0.85471,0.86501,0.87218,0.85973,0.85793,0.85779,0.84175,0.82435,0.7886,0.77298,0.76965,0.77238,0.76221,0.74557,0.73048,0.73735,0.73811,0.74024,0.72135,0.71603,0.72706,0.72887,0.72796,0.71512,0.6973,0.68802,0.73054,0.84801,1.0446,1.3671,1.5242,1.8041,2.0755,2.1673,2.1519,2.0125,1.6572,1.0552,0.51809,0.40266,0.46577,0.53637,0.60497,0.61992,0.65924,0.65191,0.68467,0.67929,0.69379,0.6677,0.68225,0.67799,0.69183,0.68319,0.67883,0.66738,0.68322,0.67969,0.68967,0.67353,0.67456,0.67522,0.69146,0.68705,0.68168,0.67669,0.68623,0.69558,0.69859,0.67968,0.67883,0.68575,0.7014,0.69836,0.69818,0.69246,0.69349,0.6977,0.69457,0.68835,0.682,0.68445,0.69324,0.70258,0.69288,0.69013,0.6913,0.70875,0.70734,0.70521,0.70554,0.7089,0.71478,0.73032,0.72132,0.72445,0.73725,0.74775,0.74477,0.75014,0.73946,0.75179,0.7572,0.76546,0.76515,0.75636,0.75892,0.77792,0.78558,0.78361,0.78126,0.78686,0.79508,0.81678,0.81808,0.81879,0.8177,0.82857,0.84804,0.8478,0.84535,0.84425,0.83674,0.84914,0.84603,0.84341,0.83876,0.84457,0.85402,0.85735,0.84689,0.84204,0.84708,0.86648,0.87186,0.87035,0.86704,0.87747,0.88226,0.88824,0.88857,0.87965,0.882,0.89784,0.9024,0.89587,0.88081,0.88274,0.89,0.88443,0.88254,0.87543,0.86881,0.86872,0.86942,0.86755,0.85001,0.84682,0.84151,0.84953,0.84047,0.82644,0.82909,0.82044,0.82331,0.81945,0.80223,0.79408,0.80169,0.80187,0.79064,0.77156,0.7674,0.7681,0.77403,0.76573,0.75944,0.74767,0.74415,0.75591,0.74333,0.74188,0.7281,0.72846,0.74515,0.74022,0.73855,0.72382,0.73482,0.74385,0.73367,0.73288,0.72084,0.72743,0.7354,0.73557,0.74045,0.7236,0.73061,0.74047,0.75042,0.75594,0.75326,0.76331,0.78428,0.79822,0.80157,0.7989,0.80977,0.83023,0.83776,0.8441,0.84476,0.83111,0.83912,0.84789,0.83465,0.81737,0.79459,0.77496,0.76916,0.74583,0.73516,0.71779,0.71418,0.71636,0.7102,0.70833,0.69808,0.69954,0.71211,0.70377,0.69964,0.69269,0.69483,0.70224,0.70294,0.67194,0.66593,0.75313,0.9197,1.2078,1.5059,1.8052,2.0512,2.1383,2.1068,1.9347,1.5529,0.95947,0.47258,0.40708,0.43429,0.48066,0.54718,0.58797,0.63475,0.63899,0.65101,0.64809,0.66609,0.67435,0.68153,0.66775,0.66416,0.66296,0.67547,0.67331,0.66639,0.65558,0.66078,0.67164,0.68131,0.67506,0.6724,0.66421,0.67629,0.68234,0.68451,0.67009,0.67507,0.6845,0.69198,0.68534,0.682,0.6845,0.69238,0.69486,0.69071,0.67895,0.68308,0.69347,0.69492,0.69081,0.68043,0.68659,0.68924,0.70098,0.70388,0.68949,0.68852,0.6968,0.71134,0.71411,0.70476,0.70995,0.71477,0.7298,0.73143,0.72182,0.72419,0.72763,0.73625,0.74158,0.73806,0.73168,0.73681,0.74371,0.74449,0.74802,0.73819,0.75244,0.77217,0.77597,0.76728,0.76968,0.78236,0.80233,0.80521,0.80518,0.80127,0.80985,0.82279,0.82294,0.81752,0.80995,0.80882,0.81342,0.81792,0.81996,0.80762,0.81439,0.8258,0.83625,0.84458,0.83316,0.8348,0.85585,0.85934,0.8661,0.85723,0.86321,0.87478,0.88889,0.88894,0.88486,0.8806,0.89059,0.90013,0.89579,0.88924,0.88027,0.88156,0.89261,0.87919,0.86351,0.84587,0.84792,0.84991,0.84138,0.83517,0.81592,0.82042,0.82681,0.82045,0.8173,0.79879,0.80544,0.80925,0.79554,0.79153,0.78304,0.77473,0.78983,0.78741,0.78007,0.7669,0.76284,0.76947,0.77059,0.75749,0.74833,0.74725,0.75925,0.76499,0.75841,0.75215,0.74533,0.74316,0.76225,0.75888,0.74587,0.74025,0.74472,0.7582,0.75619,0.74526,0.7332,0.73375,0.74701,0.74936,0.74473,0.73394,0.73999,0.74908,0.74672,0.73958,0.72621,0.73126,0.74587,0.74689,0.73887,0.73293,0.73264,0.74816,0.74174,0.74148,0.74541,0.75933,0.7846,0.79282,0.79102,0.79835,0.80864,0.82481,0.83593,0.84613,0.83938,0.85066,0.85025,0.86215,0.85824,0.84886,0.83688,0.81813,0.80409,0.78689,0.75989,0.7501,0.74568,0.75073,0.74101,0.7157,0.71903,0.7202,0.72243,0.72463,0.71514,0.70171,0.70597,0.71284,0.70557,0.67979,0.66481,0.6957,0.83349,1.0436,1.3406,1.6446,1.9552,2.1545,2.1464,2.1083,1.807,1.3651,1.0632,0.52839,0.40396,0.47383,0.52139,0.58711,0.61329,0.65959,0.64488,0.6747,0.6688,0.68875,0.67452,0.67929,0.66054,0.68405,0.67714,0.68393,0.65292,0.66549,0.6595,0.67942,0.66895,0.6737,0.67126,0.69513,0.71083,0.71532,0.70221,0.71037,0.71129,0.72923,0.73373,0.73242,0.70532,0.71002,0.71175,0.72135,0.70819,0.70445,0.70541,0.70669,0.71593,0.71153,0.69984,0.70326,0.71711,0.72781,0.73608,0.7259,0.73551,0.7477,0.75404,0.75861,0.75111,0.75122,0.77338,0.76736,0.76941,0.76948,0.77513,0.77843,0.79704,0.80059,0.79835,0.78826,0.7938,0.80569,0.80784,0.81109,0.81946,0.81877,0.82905,0.82047,0.81841,0.81882,0.8324,0.85404,0.86401,0.85857,0.86292,0.8647,0.87826,0.89237,0.88977,0.87517,0.88206,0.8895,0.8901,0.88918,0.88672,0.88786,0.90445,0.9063,0.90625,0.89696,0.90519,0.9194,0.9256,0.92539,0.92489,0.92455,0.94329,0.95962,0.96419,0.95155,0.94297,0.94432,0.96679,0.96248,0.95401,0.94857,0.9657,0.95649,0.94313,0.91359,0.90552,0.89862,0.9012,0.88365,0.86095,0.85732,0.84798,0.85073,0.84936,0.83827,0.82297,0.82046,0.83234,0.83131,0.82008,0.80058,0.80285,0.81543,0.8196,0.81043,0.79703,0.79098,0.79695,0.79765,0.79541,0.78729,0.78523,0.78336,0.78283,0.77753,0.76055,0.74743,0.76911,0.80927,0.80241,0.74653,0.79506,0.82685,0.80954,0.81542,0.81744,0.82188,0.81905,0.83492,0.81839,0.82788,0.82494,0.83514,0.83521,0.82735,0.8,0.78624,0.77881,0.77902,0.75554,0.7341,0.72055,0.71842,0.72425,0.7232,0.72453,0.72426,0.73275,0.74126,0.74422,0.74298,0.74033,0.74799,0.75885,0.76185,0.76231,0.75216,0.76514,0.78466,0.79972,0.80839,0.80249,0.81808,0.83898,0.84603,0.854,0.84532,0.85331,0.86752,0.8714,0.87853,0.86726,0.86113,0.85508,0.848,0.81809,0.79861,0.77957,0.76633,0.75952,0.74532,0.73305,0.72762,0.72863,0.73313,0.72564,0.71628,0.7086,0.71087,0.71841,0.71087,0.6853,0.67486,0.67819,0.75806,0.89562,1.1462,1.4434,1.7498,2.0473,2.1794,2.1623,2.0415,1.6705,1.1616,0.5808,0.4112,0.46908,0.52603,0.59141,0.6121,0.64763,0.64,0.65807,0.66665,0.68437,0.67383,0.67426,0.66133,0.67964,0.67121,0.6652,0.64992,0.65079,0.64538,0.6716,0.66709,0.66547,0.66121,0.67792,0.68448,0.68436,0.68131,0.68114,0.67887,0.69676,0.69597,0.69284,0.67613,0.67805,0.68973,0.69519,0.68419,0.67513,0.66746,0.68981,0.68809,0.68441,0.67645,0.67849,0.6844,0.69065,0.68448,0.68468,0.68747,0.70012,0.7097,0.70374,0.70917,0.70427,0.71288,0.72749,0.72896,0.71785,0.72177,0.72301,0.73224,0.73323,0.71846,0.7197,0.72903,0.73816,0.74055,0.73475,0.73223,0.73569,0.75047,0.75017,0.74904,0.74631,0.76372,0.79175,0.79703,0.79385,0.7956,0.80293,0.82175,0.82609,0.82644,0.82078,0.8287,0.83745,0.85304,0.84468,0.84164,0.84342,0.86174,0.86496,0.8696,0.85338,0.86483,0.87225,0.89007,0.88902,0.88341,0.88853,0.89191,0.9002,0.90083,0.89848,0.9074,0.90891,0.91492,0.91532,0.8965,0.89126,0.90699,0.91267,0.90095,0.88243,0.87878,0.88475,0.88112,0.86712,0.86278,0.83721,0.84014,0.84382,0.85149,0.82785,0.81655,0.81543,0.82222,0.81626,0.82046,0.79478,0.79672,0.81115,0.80949,0.80177,0.78661,0.78438,0.7881,0.79309,0.79489,0.77402,0.76972,0.78077,0.78346,0.78275,0.76506,0.76835,0.77964,0.79103,0.77241,0.76192,0.75344,0.76415,0.77213,0.77276,0.76327,0.75389,0.75183,0.77591,0.79172,0.79108,0.79039,0.79896,0.81421,0.81962,0.8215,0.84322,0.84325,0.864,0.86428,0.8598,0.84462,0.84801,0.85616,0.84177,0.83702,0.80093,0.76302,0.76294,0.74588,0.74208,0.72329,0.71773,0.72604,0.71623,0.71169,0.70092,0.70851,0.70696,0.70515,0.70379,0.69466,0.68928,0.70457,0.68484,0.66666,0.67398,0.77363,0.96536,1.2709,1.5768,1.847,2.0891,2.161,2.1495,1.9167,1.4816,0.81739,0.43476,0.42588,0.44321,0.50197,0.57567,0.61537,0.66303,0.68127,0.68287,0.68282,0.69165,0.71074,0.70989,0.70647,0.6949,0.69663,0.70549,0.70986,0.70918,0.70374,0.69454,0.69508,0.71148,0.70692,0.70873,0.72183,0.72549,0.73299,0.72674,0.72427,0.72556,0.73563,0.73334,0.73159,0.72284,0.7204,0.72988,0.74271,0.73895,0.72369,0.72402,0.72923,0.73582,0.74002,0.73643,0.72921,0.73016,0.74183,0.74066,0.73299,0.73047,0.73566,0.75273,0.75502,0.75173,0.74886,0.75345,0.75996,0.76498,0.76344,0.75335,0.74957,0.75212,0.75963,0.75614,0.74977,0.75772,0.76613,0.77399,0.77801,0.76733,0.77694,0.7968,0.80607,0.81059,0.80674,0.81503,0.83916,0.85018,0.85647,0.85061,0.86012,0.86473,0.87977,0.88778,0.8791,0.87574,0.88494,0.89361,0.89485,0.88856,0.88839,0.89265,0.90443,0.90128,0.90815,0.90795,0.91186,0.9281,0.92421,0.92428,0.92881,0.93073,0.94042,0.94757,0.95455,0.94348,0.94656,0.95628,0.95109,0.95556,0.94335,0.93629,0.94833,0.9382,0.92955,0.91463,0.9104,0.91677,0.90589,0.89804,0.88078,0.88185,0.88104,0.88592,0.87584,0.85966,0.85901,0.85668,0.85862,0.85211,0.83433,0.82798,0.83332,0.83418,0.81816,0.80164,0.80492,0.81195,0.82053,0.81031,0.80432,0.80305,0.79984,0.80533,0.81084,0.80892,0.80618,0.82382,0.84558,0.84238,0.84813,0.84685,0.85361,0.87057,0.89669,0.89938,0.89448,0.8934,0.90666,0.90885,0.90703,0.89285,0.88643,0.87596,0.86024,0.83855,0.80433,0.79107,0.78114,0.78376,0.77577,0.76216,0.75218,0.75264,0.76107,0.75695,0.74512,0.74498,0.74843,0.75753,0.7453,0.73502,0.72486,0.70953,0.70676,0.79563,0.94611,1.2202,1.5258,1.8609,2.1155,2.1887,2.1435,1.9851,1.6209,1.0207,0.51134,0.43363,0.49274,0.56802,0.63375,0.64285,0.65816,0.67179,0.69587,0.71113,0.71805,0.69867,0.70849,0.70729,0.72566,0.71647,0.70686,0.70489,0.71506,0.71133,0.71758,0.70215,0.7088,0.71901,0.7346,0.72693,0.71781,0.72222,0.72847,0.73876,0.74595,0.73632,0.74321,0.73805,0.75046,0.7465,0.7455,0.74288,0.74323,0.75171,0.75284,0.73905,0.73839,0.73911,0.7511,0.75285,0.7445,0.73862,0.74813,0.75959,0.76196,0.76628,0.75487,0.76482,0.77998,0.78609,0.78493,0.77988,0.78602,0.79767,0.80105,0.80071,0.78475,0.7941,0.80369,0.81456,0.81142,0.80684,0.80336,0.81611,0.83282,0.83685,0.83119,0.83606,0.84495,0.86387,0.86948,0.86729,0.86313,0.87775,0.88028,0.88472,0.8754,0.87988,0.88789,0.89966,0.89726,0.89448,0.89157,0.89813,0.91136,0.91833,0.91536,0.90117,0.90851,0.9227,0.91951,0.92422,0.91692,0.92932,0.94198,0.94513,0.94506,0.94564,0.95067,0.9644,0.96507,0.96296,0.95729,0.94768,0.95128,0.95565,0.9428,0.92608,0.91918,0.91945,0.92117,0.91321,0.8945,0.88838,0.88747,0.88636,0.87595,0.86397,0.85387,0.85569,0.8595,0.85359,0.85051,0.83314,0.83548,0.84526,0.84027,0.82684,0.81765,0.81979,0.82835,0.81927,0.81006,0.80274,0.80477,0.81254,0.80509,0.79976,0.79512,0.7947,0.80837,0.80825,0.79916,0.7889,0.78511,0.80026,0.81388,0.82702,0.82178,0.83123,0.84227,0.86128,0.86237,0.86487,0.8868,0.90192,0.90642,0.90983,0.89538,0.90162,0.90714,0.91093,0.90983,0.88411,0.86467,0.84642,0.83727,0.82083,0.79988,0.77875,0.77731,0.78378,0.77922,0.76178,0.76081,0.76242,0.77141,0.76322,0.75264,0.74469,0.75553,0.75591,0.74888,0.72235,0.70178,0.74335,0.88569,1.1031,1.4188,1.7252,2.0296,2.2104,2.1955,2.1408,1.8071,1.3258,0.68841,0.45072,0.48075,0.52721,0.6058,0.63255,0.68341,0.67997,0.70447,0.69646,0.72059,0.725,0.73635,0.717,0.72013,0.7145,0.73435,0.72337,0.72168,0.70997,0.72474,0.72626,0.73163,0.71675,0.72635,0.72789,0.7424,0.73901,0.7416,0.72588,0.73364,0.74209,0.7486,0.74909,0.73912,0.739,0.75449,0.75023,0.75366,0.73512,0.74155,0.75014,0.74296,0.74412,0.73945,0.74198,0.75131,0.754,0.75794,0.74909,0.74481,0.7584,0.76791,0.76681,0.76796,0.76938,0.78182,0.78828,0.79502,0.78653,0.78914,0.8013,0.80624,0.81216,0.80032,0.80269,0.8061,0.82168,0.81744,0.82566,0.82022,0.82731,0.84743,0.85402,0.85191,0.85604,0.86217,0.88868,0.88874,0.89339,0.88575,0.89636,0.91003,0.91412,0.91174,0.9086,0.91081,0.93341,0.92994,0.9305,0.9211,0.92618,0.93285,0.94943,0.94138,0.9399,0.93882,0.95481,0.96385,0.96542,0.9587,0.96136,0.96844,0.98578,0.97859,0.96874,0.96938,0.98347,0.98809,0.9829,0.97866,0.97198,0.95854,0.97057,0.95912,0.94989,0.93979,0.93737,0.93839,0.92963,0.91075,0.9088,0.90026,0.90685,0.89597,0.885,0.87126,0.86645,0.86914,0.86909,0.868,0.85087,0.84537,0.8483,0.85223,0.84631,0.83167,0.83176,0.83804,0.83711,0.83216,0.81453,0.81987,0.82152,0.82847,0.81841,0.81079,0.81251,0.8127,0.82061,0.82126,0.80805,0.80707,0.80897,0.81955,0.81617,0.80919,0.80756,0.80749,0.81467,0.81213,0.80088,0.80643,0.80682,0.81131,0.8106,0.80403,0.80049,0.80324,0.80679,0.81266,0.80813,0.7969,0.79646,0.80699,0.80793,0.80697,0.79084,0.80009,0.80589,0.80707,0.80472,0.79671,0.79973,0.80408,0.80926,0.80868,0.79917,0.79857,0.80304,0.81168,0.81226,0.79851,0.79853,0.80235,0.80877,0.81545,0.81034,0.81763,0.83532,0.848,0.85315,0.85442,0.85806,0.8789,0.9016,0.90791,0.89643,0.90268,0.90451,0.908,0.91975,0.916,0.89875,0.89602,0.88618,0.86244,0.83916,0.81363,0.8036,0.80454,0.79541,0.78748,0.77508,0.77659,0.7919,0.7808,0.77783,0.76627,0.76311,0.76821,0.77092,0.75152,0.73099,0.72772,0.82869,1.0077,1.2862,1.5839,1.8888,2.149,2.2185,2.2007,2.0022,1.5935,1.0263,0.54675,0.46822,0.53498,0.56579,0.61855,0.66171,0.68225,0.69247,0.69988,0.70269,0.72663,0.71616,0.71007,0.7009,0.70303,0.71633,0.71354,0.70584,0.70151,0.70413,0.72343,0.71087,0.71111,0.70366,0.71268,0.71265,0.71704,0.71413,0.70967,0.71239,0.72097,0.72382,0.72718,0.71715,0.72477,0.72919,0.73688,0.72879,0.71193,0.71593,0.72262,0.72482,0.72016,0.71096,0.71213,0.71656,0.73124,0.72974,0.71973,0.71782,0.72546,0.74268,0.74289,0.7349,0.73702,0.74508,0.76167,0.76268,0.753,0.75333,0.75617,0.77418,0.77333,0.77178,0.7654,0.77261,0.77971,0.78965,0.78373,0.78071,0.78383,0.80115,0.81425,0.82012,0.81164,0.82994,0.84384,0.8588,0.86276,0.86037,0.87256,0.88089,0.88869,0.89254,0.891,0.89825,0.90171,0.91551,0.91912,0.91695,0.9083,0.91398,0.92931,0.93065,0.92959,0.92695,0.93049,0.94466,0.95589,0.94846,0.94273,0.9472,0.96347,0.96558,0.9561,0.94977,0.95657,0.97005,0.96556,0.96394,0.94908,0.945,0.95525,0.94819,0.94137,0.92833,0.92372,0.9268,0.91666,0.9188,0.89186,0.89012,0.89009,0.88801,0.87445,0.86447,0.86366,0.86229,0.87153,0.85802,0.8482,0.84809,0.84022,0.84492,0.84113,0.82649,0.81639,0.82507,0.82884,0.8295,0.8171,0.81367,0.82035,0.82103,0.81322,0.80952,0.79731,0.79946,0.80957,0.80949,0.81523,0.79645,0.80387,0.81083,0.80821,0.80511,0.79474,0.79132,0.80068,0.80596,0.79744,0.78881,0.79237,0.81348,0.82516,0.83005,0.82558,0.83281,0.8525,0.86834,0.86748,0.87224,0.89598,0.9053,0.91018,0.90465,0.8979,0.9003,0.91072,0.90898,0.89213,0.87034,0.84907,0.81945,0.81993,0.80803,0.79355,0.77779,0.77048,0.77799,0.77832,0.77776,0.7657,0.76755,0.7753,0.77742,0.77107,0.76367,0.766,0.76077,0.73682,0.72862,0.80854,0.95872,1.2367,1.5547,1.7003,1.9739,2.1732,2.2047,2.1735,1.879,1.4068,0.72683,0.46372,0.48102,0.5168,0.58763,0.64314,0.68595,0.7038,0.72646,0.71753,0.72535,0.72822,0.73931,0.73797,0.73845,0.72767,0.73354,0.73413,0.74071,0.73221,0.73142,0.72934,0.74943,0.74915,0.74629,0.73923,0.75002,0.75545,0.75494,0.74902,0.74834,0.75071,0.75603,0.75272,0.75158,0.73918,0.74685,0.7512,0.7672,0.75912,0.74776,0.74521,0.75708,0.76009,0.75363,0.74461,0.75069,0.7619,0.76548,0.76165,0.74427,0.7586,0.76676,0.77766,0.77969,0.7745,0.76828,0.78281,0.79002,0.79684,0.77534,0.78951,0.78687,0.79366,0.7939,0.78777,0.78949,0.80159,0.81034,0.80983,0.80551,0.814,0.8209,0.83079,0.83504,0.8411,0.84112,0.85457,0.87297,0.8807,0.88656,0.88417,0.894,0.90928,0.91854,0.91502,0.90825,0.91842,0.9312,0.93227,0.9289,0.92122,0.92973,0.93963,0.94675,0.94798,0.94653,0.94624,0.95869,0.96953,0.96843,0.96447,0.97093,0.97673,0.98636,0.99175,0.98422,0.98451,0.99134,0.994,0.98916,0.97289,0.96692,0.97325,0.97571,0.97002,0.9618,0.94927,0.94768,0.94873,0.94279,0.93431,0.91876,0.91085,0.91765,0.91208,0.89941,0.89124,0.88856,0.89744,0.89175,0.88113,0.87267,0.86755,0.87054,0.87358,0.86783,0.85636,0.85453,0.8561,0.85422,0.85141,0.83774,0.83189,0.841,0.85142,0.84115,0.834,0.83881,0.85344,0.86862,0.8798,0.87025,0.87089,0.88905,0.90227,0.90361,0.90487,0.92005,0.93559,0.94827,0.94498,0.9332,0.93439,0.93819,0.95003,0.94029,0.90817,0.89167,0.86745,0.85879,0.8438,0.82482,0.81034,0.81147,0.81025,0.81311,0.80006,0.79362,0.79335,0.79987,0.80172,0.79504,0.78427,0.78443,0.78848,0.77628,0.75884,0.74332,0.82897,0.97976,1.25,1.5527,1.8602,2.1368,2.2269,2.2303,2.1925,1.903,1.4539,0.80648,0.50777,0.5176,0.55749,0.63992,0.67597,0.73027,0.73494,0.74536,0.74576,0.76981,0.76248,0.7789,0.75867,0.76973,0.76,0.77574,0.76544,0.77188,0.74727,0.76381,0.76978,0.77798,0.77071,0.76919,0.77568,0.78838,0.79154,0.78955,0.77757,0.78983,0.79857,0.80547,0.79141,0.78381,0.78915,0.79949,0.80656,0.79976,0.79078,0.79107,0.79661,0.79954,0.79928,0.78949,0.79122,0.79769,0.80566,0.80966,0.79228,0.79695,0.80698,0.8139,0.82094,0.80861,0.81989,0.82422,0.83574,0.83582,0.83452,0.82652,0.83339,0.84449,0.84915,0.84462,0.83713,0.84433,0.85951,0.86038,0.86549,0.85625,0.87071,0.88492,0.8952,0.89412,0.8938,0.89852,0.91788,0.92702,0.93507,0.93135,0.93385,0.94348,0.95077,0.94977,0.94296,0.94578,0.95821,0.96574,0.97061,0.95846,0.96289,0.96948,0.98125,0.98108,0.97838,0.97957,0.98884,1.0005,1.005,1.0014,1.0087,1.0065,1.0228,1.023,1.0242,1.0146,1.0193,1.0315,1.0321,1.0195,1.0132,1.0121,1.0171,1.0089,0.99881,0.98968,0.98358,0.98425,0.98829,0.97327,0.95321,0.94711,0.95608,0.94819,0.94103,0.92732,0.91777,0.92331,0.92339,0.91268,0.89902,0.90138,0.90502,0.90416,0.89867,0.88883,0.88675,0.88142,0.88706,0.88901,0.88003,0.87563,0.87632,0.8795,0.87927,0.87826,0.87238,0.87001,0.87667,0.87957,0.86813,0.86151,0.86266,0.87304,0.8747,0.86445,0.85609,0.85793,0.86581,0.87144,0.86114,0.85517,0.85474,0.86437,0.86895,0.86472,0.85327,0.85571,0.86462,0.86969,0.86629,0.85651,0.86316,0.88644,0.89867,0.90494,0.90157,0.90666,0.92284,0.94482,0.95389,0.95906,0.95154,0.97048,0.97968,0.97757,0.97495,0.97028,0.97282,0.96604,0.94599,0.9129,0.88947,0.88463,0.87697,0.86688,0.85941,0.84286,0.83876,0.84519,0.84429,0.83817,0.83161,0.83291,0.83174,0.83543,0.83308,0.8213,0.80324,0.80054,0.80301,0.91303,1.0899,1.3998,1.7183,2.0349,2.2654,2.2881,2.2685,2.1765,1.8283,1.313,0.70375,0.51846,0.58909,0.65239,0.71019,0.71571,0.7555,0.7662,0.79586,0.78994,0.79641,0.78335,0.79604,0.79207,0.80249,0.78929,0.78651,0.78248,0.80609,0.79548,0.79789,0.78475,0.7955,0.80409,0.80487,0.80212,0.80353,0.80688,0.82001,0.81294,0.81644,0.80222,0.81174,0.82269,0.82248,0.8183,0.81494,0.80969,0.81876,0.82327,0.82314,0.80852,0.80805,0.81811,0.82622,0.82169,0.81494,0.81492,0.82437,0.83292,0.83118,0.8278,0.82943,0.8454,0.85417,0.85316,0.85244,0.85342,0.85223,0.86496,0.86521,0.86794,0.86254,0.8692,0.88017,0.88674,0.87961,0.87824,0.88366,0.9051,0.9031,0.9075,0.9069,0.91165,0.93477,0.9422,0.94284,0.94405,0.94697,0.96843,0.97408,0.9771,0.96883,0.97237,0.98601,0.99889,0.9927,0.99272,0.99127,1.0062,1.0103,1.0078,0.99914,1.0079,1.0173,1.021,1.0249,1.025,1.0283,1.0324,1.0468,1.0501,1.0395,1.0404,1.0449,1.0567,1.0517,1.0492,1.0489,1.0452,1.0504,1.0523,1.0391,1.0283,1.0293,1.0356,1.0267,1.0239,0.99904,0.99621,1.0012,0.99357,0.98525,0.96523,0.96152,0.96279,0.95945,0.9527,0.93392,0.93188,0.93452,0.93356,0.93327,0.91266,0.91471,0.92294,0.92325,0.91517,0.8978,0.89755,0.906,0.90713,0.90759,0.88853,0.8886,0.89451,0.89735,0.90103,0.89032,0.88868,0.89269,0.89626,0.89202,0.88581,0.88267,0.88689,0.88661,0.88432,0.88921,0.8719,0.87571,0.8924,0.88524,0.88059,0.87141,0.87597,0.88613,0.87966,0.87667,0.86758,0.87209,0.88591,0.88332,0.88119,0.87129,0.87277,0.8809,0.87845,0.8801,0.86877,0.8712,0.8775,0.88031,0.88194,0.87237,0.87414,0.8782,0.88353,0.88635,0.87425,0.87568,0.89097,0.88932,0.88494,0.87575,0.87723,0.87931,0.88467,0.8873,0.88026,0.87775,0.87694,0.88895,0.88393,0.88024,0.87248,0.88104,0.89757,0.90351,0.90147,0.90656,0.91353,0.94154,0.94192,0.94678,0.96151,0.96338,0.96326,0.98517,0.98436,0.97119,0.97466,0.9841,0.97936,0.95879,0.924,0.90608,0.8939,0.88298,0.87435,0.85743,0.84929,0.8487,0.84823,0.83806,0.82561,0.83014,0.83258,0.8455,0.84078,0.82888,0.81528,0.79775,0.80156,0.85638,0.98537,1.2147,1.5324,1.8414,2.1273,2.27,2.263,2.1825,1.8434,1.3408,0.73529,0.52833,0.5869,0.61629,0.69423,0.71165,0.7412,0.75522,0.77659,0.78498,0.78983,0.76849,0.7789,0.77925,0.78823,0.78078,0.77653,0.78028,0.78612,0.78351,0.78429,0.77467,0.78376,0.78559,0.7949,0.79859,0.78535,0.78128,0.78871,0.79006,0.79679,0.78977,0.79976,0.79861,0.80764,0.80533,0.79143,0.78959,0.79695,0.80544,0.80786,0.79314,0.7976,0.79582,0.7983,0.8005,0.80202,0.79203,0.79484,0.80516,0.8064,0.80588,0.79317,0.80888,0.81575,0.81923,0.82522,0.81381,0.82254,0.83205,0.83788,0.83961,0.82687,0.82971,0.84069,0.84618,0.84875,0.84463,0.84495,0.85617,0.86451,0.87222,0.85991,0.87309,0.88398,0.9033,0.90751,0.90757,0.91087,0.9256,0.94168,0.9512,0.94675,0.94615,0.95172,0.96725,0.97151,0.96993,0.96563,0.96965,0.97666,0.97787,0.97819,0.97186,0.97361,0.99241,0.98671,0.9922,0.99475,0.99766,1.0143,1.0191,1.0206,1.0149,1.0149,1.0251,1.0232,1.0228,1.0122,1.0147,1.0245,1.0269,1.0178,1.0062,1.0021,0.99847,1.0051,0.99267,0.98706,0.97682,0.97385,0.96993,0.95844,0.94762,0.93726,0.93541,0.94184,0.93662,0.9281,0.91779,0.91334,0.92258,0.91744,0.90243,0.89232,0.89653,0.9012,0.88877,0.88286,0.8822,0.87829,0.88728,0.87591,0.87039,0.86361,0.8574,0.86905,0.86747,0.8659,0.85578,0.8556,0.86774,0.87679,0.86393,0.8525,0.84772,0.85613,0.86291,0.86428,0.85807,0.87092,0.88856,0.89627,0.90708,0.90967,0.91702,0.92347,0.95112,0.96642,0.95408,0.95331,0.95042,0.96199,0.96192,0.9611,0.95443,0.9476,0.93272,0.91586,0.87531,0.85442,0.85295,0.85195,0.84972,0.83306,0.82718,0.82422,0.83137,0.83017,0.82499,0.81331,0.82392,0.82021,0.82319,0.81846,0.79882,0.78227,0.77924,0.85096,0.9929,1.2282,1.5555,1.8655,2.1252,2.2651,2.2582,2.2087,1.9659,1.534,0.87412,0.52168,0.51998,0.56191,0.6526,0.69472,0.72646,0.74395,0.76915,0.78067,0.80059,0.78291,0.79025,0.78687,0.80451,0.79428,0.79651,0.78186,0.79401,0.80061,0.80559,0.79951,0.79435,0.80314,0.81305,0.81078,0.81738,0.80301,0.80937,0.82103,0.82539,0.81705,0.80845,0.81022,0.82381,0.81917,0.81888,0.81228,0.81504,0.82167,0.82712,0.82729,0.81472,0.80839,0.81795,0.82716,0.82138,0.81644,0.81425,0.82255,0.83074,0.83186,0.83081,0.82509,0.83734,0.85481,0.84652,0.85059,0.84189,0.85227,0.86425,0.86378,0.86032,0.85777,0.86003,0.8775,0.8687,0.87511,0.86631,0.87467,0.89384,0.89561,0.89846,0.90082,0.9061,0.92434,0.92824,0.93537,0.93854,0.94941,0.95562,0.97048,0.96771,0.96886,0.97587,0.99131,0.99606,0.99194,0.9829,0.98364,0.99557,1.0036,1.0015,0.99686,0.99868,1.0126,1.0261,1.0253,1.0175,1.0168,1.0221,1.0389,1.0437,1.0423,1.0419,1.0464,1.062,1.0641,1.0502,1.0408,1.0465,1.0541,1.0435,1.0362,1.0335,1.029,1.0292,1.0269,1.014,1.0013,0.99616,0.9975,0.99368,0.98345,0.96624,0.96619,0.97073,0.96564,0.95577,0.94262,0.93535,0.94512,0.94686,0.93493,0.91631,0.91963,0.92389,0.92535,0.92062,0.90959,0.90635,0.90759,0.91594,0.90891,0.89963,0.89878,0.90155,0.90656,0.90966,0.893,0.88929,0.89448,0.90178,0.901,0.89313,0.88777,0.89621,0.89929,0.89527,0.89282,0.88324,0.89825,0.92151,0.93585,0.93501,0.93348,0.94682,0.9667,0.97651,0.99203,0.9854,0.99605,1.0024,1.0007,1.0052,0.98772,0.99236,0.99034,0.97729,0.95687,0.9251,0.9003,0.90126,0.89466,0.88198,0.86422,0.85742,0.85839,0.86748,0.86565,0.85035,0.84602,0.85431,0.86129,0.85661,0.83933,0.8284,0.81431,0.81422,0.84257,0.97015,1.1674,1.4855,1.8104,2.1143,2.2993,2.2678,2.238,1.9466,1.4793,0.83382,0.55293,0.58084,0.64981,0.7149,0.73713,0.77438,0.78055,0.81961,0.81191,0.82544,0.8093,0.81653,0.81075,0.8247,0.81131,0.81048,0.79863,0.81707,0.8157,0.82042,0.80488,0.81188,0.81399,0.83232,0.82441,0.81821,0.81206,0.8299,0.82964,0.83472,0.82538,0.82526,0.82542,0.84162,0.83488,0.83255,0.82647,0.83162,0.84051,0.83889,0.83269,0.82722,0.82403,0.83823,0.83435,0.83139,0.82596,0.83215,0.83728,0.84145,0.84144,0.83361,0.83948,0.84724,0.85952,0.85776,0.8579,0.86055,0.87069,0.87479,0.87126,0.86485,0.86993,0.8797,0.88867,0.8844,0.87845,0.88548,0.89389,0.89864,0.90883,0.90131,0.9143,0.91685,0.93516,0.93678,0.94239,0.94634,0.95647,0.97177,0.9755,0.96906,0.97491,0.97229,0.99034,0.9921,0.98235,0.98118,0.98382,0.98542,1.0041,0.9979,0.98766,0.99138,1.0046,1.0086,1.0159,1.0055,1.0175,1.0217,1.0325,1.0279,1.0233,1.0302,1.041,1.0441,1.0401,1.029,1.0414,1.0432,1.0488,1.0405,1.0234,1.0206,1.0173,1.0233,1.0138,0.99981,0.99016,0.98692,0.98816,0.97966,0.96209,0.95389,0.96077,0.95681,0.94513,0.93052,0.9259,0.92469,0.92987,0.92355,0.92051,0.90278,0.90733,0.91329,0.91168,0.90422,0.88966,0.88969,0.8995,0.89666,0.89279,0.87681,0.88006,0.88958,0.88775,0.88496,0.87621,0.87937,0.88357,0.88386,0.88109,0.87771,0.86965,0.87853,0.88032,0.87978,0.87366,0.86885,0.86747,0.87694,0.87541,0.86558,0.85916,0.86441,0.87415,0.87366,0.8616,0.85865,0.85938,0.86814,0.87027,0.87168,0.85549,0.85402,0.87363,0.87065,0.86551,0.85698,0.85964,0.87494,0.86912,0.86729,0.85241,0.85605,0.87042,0.8673,0.86165,0.85328,0.85122,0.85711,0.86563,0.8624,0.85241,0.85054,0.86017,0.86915,0.86705,0.8551,0.85693,0.86264,0.86836,0.8689,0.85735,0.85587,0.85917,0.86685,0.86132,0.85215,0.8524,0.85672,0.87181,0.86354,0.85741,0.84799,0.84705,0.86828,0.86659,0.86282,0.86369,0.87544,0.9027,0.90558,0.90202,0.91487,0.91836,0.9433,0.95081,0.95378,0.94023,0.94863,0.95889,0.96622,0.97016,0.95578,0.9495,0.94726,0.92761,0.9009,0.87551,0.87189,0.86587,0.8591,0.84902,0.83527,0.83533,0.84339,0.83917,0.8366,0.82934,0.8298,0.82746,0.83015,0.82106,0.79423,0.7854,0.87183,1.0411,1.3098,1.6123,1.9209,2.1837,2.2664,2.2536,2.1029,1.7235,1.1872,0.66181,0.54956,0.61474,0.63657,0.69476,0.7285,0.76235,0.76909,0.76707,0.77659,0.79059,0.79,0.78983,0.77011,0.77476,0.77931,0.78542,0.77953,0.77309,0.77916,0.79301,0.78789,0.78967,0.78509,0.78475,0.79039,0.80412,0.79798,0.79183,0.78947,0.79992,0.8013,0.80372,0.79199,0.79016,0.79807,0.80488,0.79991,0.79498,0.78875,0.79602,0.79939,0.8006,0.80084,0.78875,0.78933,0.80189,0.80635,0.80742,0.79192,0.79761,0.8106,0.81483,0.81358,0.81247,0.81476,0.8254,0.83408,0.83513,0.82985,0.83598,0.84891,0.84872,0.85128,0.8398,0.83872,0.84648,0.85653,0.86145,0.855,0.85778,0.86726,0.88552,0.89217,0.88709,0.89133,0.91212,0.92611,0.93768,0.9359,0.93388,0.94809,0.96045,0.96406,0.9569,0.96092,0.96843,0.9867,0.97888,0.97942,0.97097,0.97379,0.98704,0.9883,0.98193,0.98069,0.98545,1.0049,1.0094,1.0108,1.0014,1.0091,1.0204,1.0214,1.0211,1.0179,1.0178,1.023,1.0289,1.0275,1.0167,1.0125,1.0148,1.0215,1.0061,0.99778,0.98446,0.98583,0.98821,0.9797,0.9628,0.95808,0.95647,0.95148,0.9442,0.93393,0.92523,0.91438,0.92344,0.91265,0.89677,0.89354,0.89379,0.89836,0.89094,0.87866,0.87119,0.86713,0.87537,0.86963,0.85954,0.84986,0.84618,0.85766,0.86087,0.85067,0.83872,0.83786,0.84352,0.84652,0.84144,0.82857,0.83136,0.83528,0.84301,0.83792,0.82732,0.8239,0.82997,0.83064,0.83452,0.82259,0.82615,0.82997,0.82608,0.82731,0.82069,0.82194,0.81758,0.83512,0.83027,0.82197,0.81779,0.82223,0.82807,0.82722,0.82558,0.8177,0.8227,0.83105,0.82954,0.82011,0.81211,0.81228,0.82518,0.82397,0.82368,0.81194,0.81266,0.82957,0.83038,0.82296,0.81565,0.81644,0.82256,0.82989,0.8246,0.81124,0.82175,0.82321,0.82379,0.82683,0.81305,0.81303,0.82524,0.82806,0.82048,0.81396,0.81887,0.83843,0.86242,0.86301,0.86206,0.86856,0.89145,0.90841,0.91754,0.91831,0.91547,0.93248,0.9392,0.94046,0.9308,0.91747,0.91512,0.91588,0.89903,0.86975,0.84211,0.83315,0.83595,0.81979,0.82065,0.80471,0.80399,0.81011,0.80572,0.80401,0.79446,0.79533,0.80199,0.80087,0.78156,0.75425,0.75901,0.79299,0.92584,1.1421,1.4576,1.7445,2.0442,2.2414,2.2335,2.1832,1.8743,1.4036,0.77776,0.51569,0.5238,0.58335,0.66287,0.6967,0.73249,0.73179,0.74513,0.75054,0.77237,0.76013,0.76843,0.75045,0.76086,0.76396,0.76476,0.75097,0.75535,0.7605,0.77206,0.76398,0.76738,0.75133,0.76892,0.77516,0.78126,0.77041,0.76975,0.76626,0.77795,0.77731,0.78338,0.76928,0.77562,0.77991,0.78768,0.787,0.77551,0.77214,0.77965,0.78383,0.78012,0.77181,0.77584,0.78353,0.78602,0.78503,0.77596,0.78154,0.77935,0.79125,0.79225,0.79584,0.79327,0.80926,0.80722,0.80727,0.80107,0.79378,0.80146,0.82128,0.8224,0.81776,0.80846,0.81826,0.83182,0.83403,0.82156,0.82573,0.82686,0.83963,0.85169,0.85363,0.84628,0.86478,0.87847,0.89108,0.89371,0.89624,0.90888,0.91994,0.9287,0.92294,0.91291,0.92673,0.93148,0.93531,0.94287,0.93627,0.93862,0.94612,0.95038,0.95878,0.95079,0.95382,0.95705,0.96372,0.96576,0.95987,0.96307,0.98145,0.98791,0.99143,0.98931,0.99064,0.98931,1.003,1.0019,0.99193,0.99831,1.0021,0.99981,0.99872,0.99444,0.98009,0.97347,0.9791,0.97218,0.96825,0.95364,0.94813,0.95367,0.95063,0.93951,0.92509,0.91791,0.92601,0.91941,0.91398,0.90759,0.90562,0.90713,0.9071,0.89834,0.88655,0.87343,0.87906,0.88818,0.88225,0.86641,0.86463,0.86889,0.87746,0.8678,0.85719,0.84806,0.85481,0.86515,0.85812,0.852,0.85149,0.84999,0.85912,0.8592,0.85205,0.83982,0.84378,0.85866,0.85982,0.85313,0.84275,0.84336,0.85118,0.85498,0.84506,0.84236,0.83558,0.85221,0.85226,0.85342,0.8447,0.84078,0.84466,0.84644,0.84823,0.84462,0.84612,0.87296,0.88518,0.88889,0.88674,0.89759,0.90981,0.93095,0.94766,0.94955,0.94485,0.95469,0.95523,0.96031,0.95415,0.95382,0.94603,0.94765,0.9317,0.90639,0.87722,0.86004,0.85881,0.84899,0.83901,0.82756,0.8279,0.83519,0.83254,0.82168,0.8138,0.81266,0.82742,0.82437,0.818,0.80846,0.7924,0.78595,0.83977,0.9684,1.1876,1.5168,1.808,2.0952,2.2563,2.2187,2.1615,1.8372,1.3552,0.71969,0.51685,0.55114,0.6052,0.6948,0.71811,0.74633,0.75217,0.77853,0.78172,0.81095,0.78469,0.79619,0.78676,0.81105,0.79463,0.79942,0.7801,0.7916,0.79176,0.80416,0.7899,0.79674,0.79714,0.81941,0.81886,0.82031,0.80306,0.81169,0.81623,0.82647,0.82493,0.81854,0.81769,0.82851,0.82736,0.82753,0.81297,0.81563,0.82187,0.83032,0.82506,0.81182,0.81167,0.81735,0.82238,0.82813,0.81967,0.8174,0.82005,0.83448,0.8361,0.83028,0.82622,0.8373,0.85128,0.85162,0.85132,0.84604,0.85494,0.86509,0.87099,0.85729,0.857,0.86359,0.87666,0.87559,0.87816,0.86306,0.87355,0.88849,0.89929,0.8951,0.89389,0.89795,0.91623,0.92194,0.93432,0.92796,0.94836,0.95647,0.9615,0.97163,0.96399,0.96191,0.98145,0.97646,0.98101,0.97392,0.97233,0.98168,0.9871,0.98416,0.98454,0.97857,0.99112,1.0013,1.0047,1.0022,1.0005,1.0136,1.0332,1.0283,1.0278,1.0292,1.0377,1.0422,1.0449,1.0411,1.0374,1.0399,1.0487,1.0474,1.0384,1.028,1.0304,1.0291,1.0248,1.0114,0.99913,0.99471,1.0027,0.99193,0.98286,0.96695,0.9575,0.96667,0.96203,0.95389,0.94288,0.93641,0.9424,0.93812,0.93466,0.92058,0.91516,0.91499,0.92262,0.9144,0.90064,0.89541,0.89725,0.90622,0.90075,0.88407,0.88204,0.88846,0.89672,0.89538,0.88735,0.87997,0.88243,0.89343,0.88882,0.87791,0.87158,0.87293,0.88843,0.88453,0.87432,0.86859,0.87132,0.88117,0.87936,0.87472,0.86471,0.86916,0.87651,0.8764,0.87506,0.86457,0.86645,0.86764,0.87257,0.87168,0.8647,0.86253,0.86789,0.87461,0.87116,0.86004,0.8594,0.8697,0.87565,0.87617,0.87617,0.88355,0.89547,0.91356,0.9164,0.91222,0.9201,0.93224,0.95245,0.97003,0.96311,0.96441,0.96719,0.98369,0.98247,0.97736,0.96967,0.96651,0.95631,0.93523,0.90361,0.88783,0.87675,0.87496,0.87,0.86174,0.84328,0.8467,0.84811,0.85557,0.84943,0.84201,0.84043,0.84586,0.84305,0.83458,0.80211,0.80024,0.85052,0.98635,1.2079,1.5164,1.8302,2.1348,2.2533,2.295,2.2652,2.0702,1.6831,1.1167,0.62963,0.54775,0.61719,0.6766,0.73033,0.75776,0.78043,0.77655,0.80326,0.80754
