2.4904,2.4596,2.4192,2.4056,2.3715,2.3473,2.3359,2.3398,2.3157,2.294,2.2788,2.2937,2.273,2.2679,2.2559,2.262,2.2608,2.2818,2.2715,2.2644,2.2695,2.2797,2.2805,2.2808,2.2629,2.258,2.2677,2.289,2.2877,2.293,2.2924,2.2898,2.3082,2.3097,2.3076,2.3197,2.3183,2.3074,2.2982,2.3047,2.3323,2.3212,2.3152,2.3157,2.3223,2.3213,2.3129,2.317,2.3176,2.3135,2.3163,2.3059,2.2951,2.3014,2.3021,2.3063,2.3107,2.3056,2.3278,2.3063,2.301,2.3001,2.3118,2.3054,2.3054,2.3013,2.3067,2.3129,2.3047,2.3021,2.2943,2.3003,2.3097,2.3112,2.311,2.3117,2.3032,2.3068,2.3127,2.3079,2.2917,2.3067,2.3126,2.3126,2.3098,2.3179,2.334,2.3091,2.2926,2.3048,2.3262,2.3162,2.3151,2.3143,2.3127,2.3277,2.3384,2.3399,2.3324,2.3323,2.3257,2.3486,2.3662,2.3826,2.3992,2.4111,2.3584,2.3425,2.3294,2.317,2.3296,2.3121,2.312,2.2996,2.314,2.3059,2.3074,2.2934,2.2962,2.289,2.3061,2.301,2.3129,2.3092,2.2985,2.2993,2.3007,2.3006,2.3229,2.4416,2.6442,2.8323,3.0463,3.0264,2.7882,2.3204,2.0813,1.7984,1.8996,2.0541,2.1063,2.2232,2.2638,2.3292,2.309,2.3494,2.3249,2.3418,2.3451,2.3929,2.3809,2.3627,2.3401,2.3537,2.3643,2.3731,2.3634,2.3832,2.3724,2.3956,2.3719,2.3916,2.3918,2.4036,2.3927,2.4174,2.4122,2.4141,2.4108,2.4025,2.4012,2.4307,2.4302,2.4545,2.4476,2.464,2.4614,2.4704,2.4716,2.4913,2.5124,2.5256,2.5325,2.5582,2.5718,2.5934,2.6111,2.6355,2.6615,2.6765,2.7028,2.6997,2.7259,2.7446,2.7625,2.7962,2.8034,2.7745,2.7845,2.7788,2.7852,2.7866,2.7947,2.7748,2.7598,2.7244,2.6866,2.6368,2.5892,2.5417,2.4952,2.4351,2.3924,2.3671,2.3592,2.3252,2.3134,2.3206,2.3059,2.2854,2.2761,2.2734,2.2729,2.2794,2.2715,2.2292,2.2366,2.2325,2.2453,2.2525,2.2432,2.2455,2.2541,2.2511,2.2512,2.2483,2.2373,2.2493,2.2543,2.2666,2.2736,2.2654,2.2753,2.2641,2.2601,2.2581,2.2534,2.2686,2.2715,2.282,2.2816,2.2741,2.2729,2.2808,2.2935,2.2898,2.288,2.2873,2.2883,2.2959,2.2855,2.2825,2.2943,2.2884,2.2954,2.2865,2.2844,2.2934,2.2911,2.2749,2.2717,2.2778,2.2707,2.2916,2.2942,2.2827,2.2901,2.2851,2.2853,2.2908,2.2918,2.2793,2.2831,2.2786,2.2895,2.2911,2.2895,2.2786,2.2761,2.281,2.2746,2.2838,2.2805,2.2885,2.2771,2.2875,2.2933,2.2997,2.2852,2.2942,2.2848,2.2955,2.2899,2.2929,2.2836,2.2906,2.2969,2.288,2.2927,2.2797,2.279,2.2766,2.2855,2.2913,2.2845,2.276,2.2857,2.2984,2.2895,2.2958,2.2853,2.28,2.2873,2.3003,2.3185,2.3174,2.3126,2.3089,2.3131,2.3333,2.3543,2.3705,2.3712,2.3575,2.3355,2.329,2.3176,2.317,2.3166,2.296,2.2925,2.2873,2.2861,2.2842,2.293,2.2779,2.2734,2.2695,2.2831,2.2932,2.2835,2.2851,2.2831,2.2895,2.2724,2.2543,2.3481,2.4402,2.6336,2.8472,3.0354,3.0043,2.7643,2.2977,1.8245,1.8049,1.951,2.0543,2.1426,2.2277,2.2522,2.2806,2.3069,2.3034,2.3027,2.305,2.3167,2.3197,2.3165,2.3262,2.312,2.3103,2.3187,2.3356,2.3381,2.3358,2.3427,2.3475,2.3506,2.3569,2.3584,2.3621,2.3602,2.3686,2.3773,2.3898,2.3869,2.3895,2.3943,2.4075,2.4202,2.4207,2.4281,2.4413,2.4613,2.4591,2.4796,2.5122,2.5165,2.5268,2.544,2.5659,2.5755,2.6042,2.623,2.6435,2.6758,2.6826,2.7066,2.7185,2.7504,2.7786,2.7749,2.795,2.8062,2.8173,2.8398,2.8377,2.8403,2.837,2.8374,2.8109,2.8017,2.7553,2.7135,2.6749,2.6193,2.5968,2.5572,2.5034,2.4641,2.4355,2.4071,2.3804,2.3622,2.3561,2.3441,2.3233,2.3008,2.3046,2.3101,2.3011,2.3064,2.2936,2.2906,2.2899,2.2802,2.2864,2.2856,2.2923,2.2936,2.3148,2.3083,2.3002,2.279,2.2896,2.2839,2.2864,2.2827,2.2905,2.2935,2.3024,2.3094,2.3238,2.3111,2.3036,2.3167,2.3136,2.3205,2.3143,2.3162,2.3193,2.3465,2.3344,2.3336,2.328,2.3254,2.3418,2.3349,2.3211,2.3248,2.3319,2.3371,2.3397,2.3391,2.3176,2.3387,2.3431,2.3314,2.3285,2.3169,2.3374,2.3483,2.3429,2.3322,2.327,2.3347,2.3199,2.312,2.3204,2.3319,2.3285,2.3327,2.3342,2.3318,2.3549,2.3541,2.3456,2.3341,2.3363,2.3262,2.3328,2.3446,2.3483,2.3243,2.3345,2.3489,2.3366,2.3417,2.3364,2.335,2.3327,2.3417,2.3247,2.3373,2.3325,2.3249,2.3237,2.3331,2.3411,2.34,2.3343,2.3345,2.3347,2.3275,2.3119,2.3069,2.3117,2.3102,2.3166,2.3277,2.3483,2.3385,2.3459,2.3437,2.3588,2.3715,2.3678,2.3878,2.3978,2.4044,2.3692,2.3674,2.3581,2.3633,2.374,2.336,2.3188,2.3182,2.3011,2.308,2.318,2.3159,2.3055,2.3124,2.3308,2.3224,2.3192,2.3099,2.332,2.3406,2.3271,2.328,2.3961,2.5699,2.756,2.9394,3.0633,2.9881,2.6873,2.2584,1.8838,1.9601,2.0811,2.1442,2.2205,2.273,2.3127,2.3492,2.3745,2.3925,2.3831,2.3536,2.3628,2.3478,2.395,2.3912,2.3955,2.4087,2.4286,2.4019,2.4033,2.3623,2.3839,2.3828,2.4175,2.4164,2.404,2.4057,2.4225,2.3958,2.4005,2.4031,2.3914,2.4146,2.4216,2.4229,2.4298,2.4385,2.4364,2.4523,2.4536,2.4637,2.4709,2.4997,2.4954,2.5003,2.5143,2.5538,2.5666,2.5697,2.5724,2.5875,2.6263,2.6447,2.6736,2.6817,2.7003,2.7386,2.734,2.7172,2.7504,2.7291,2.745,2.759,2.7554,2.7521,2.7481,2.7433,2.6986,2.6912,2.6663,2.623,2.5833,2.5631,2.523,2.4738,2.4374,2.4146,2.4004,2.3853,2.3497,2.3356,2.3225,2.3145,2.319,2.3336,2.3165,2.2897,2.2882,2.3152,2.3111,2.2863,2.2875,2.2838,2.2842,2.3019,2.3243,2.3078,2.2941,2.3019,2.307,2.3336,2.3248,2.3178,2.3243,2.3636,2.3596,2.3296,2.3419,2.3627,2.3378,2.3393,2.3421,2.3441,2.3502,2.3617,2.3636,2.3478,2.3637,2.3525,2.3651,2.3886,2.3664,2.3813,2.3772,2.3671,2.3592,2.3671,2.3576,2.3627,2.3722,2.3674,2.3647,2.358,2.3677,2.3835,2.3654,2.3551,2.3697,2.3647,2.3786,2.3845,2.39,2.3919,2.3922,2.3867,2.3861,2.3777,2.385,2.3895,2.4023,2.3949,2.3771,2.3909,2.3719,2.3943,2.4345,2.4178,2.3967,2.3985,2.4519,2.4628,2.444,2.451,2.4688,2.472,2.4614,2.428,2.4212,2.4267,2.4133,2.414,2.3998,2.3755,2.3924,2.3652,2.3687,2.372,2.3666,2.3703,2.3685,2.3848,2.3829,2.3696,2.3569,2.3653,2.3557,2.3398,2.3754,2.4921,2.6597,2.8305,3.0119,3.0514,2.8919,2.4819,2.0763,1.9389,2.0628,2.1462,2.1767,2.253,2.3128,2.3725,2.3806,2.4063,2.4096,2.4292,2.4249,2.4171,2.3982,2.3773,2.4148,2.4334,2.419,2.4179,2.4241,2.4216,2.43,2.4334,2.3988,2.4047,2.4184,2.4106,2.4204,2.4299,2.4536,2.4533,2.431,2.4103,2.4211,2.4466,2.4339,2.4398,2.4501,2.4454,2.4573,2.4772,2.4688,2.4809,2.4932,2.5345,2.5397,2.534,2.551,2.5621,2.5975,2.6329,2.635,2.6289,2.6416,2.6805,2.6938,2.7069,2.738,2.7421,2.7598,2.7656,2.7418,2.7524,2.7553,2.7501,2.7551,2.7249,2.6961,2.6467,2.5819,2.5593,2.509,2.4719,2.4466,2.4018,2.3607,2.326,2.2932,2.2958,2.2682,2.2452,2.2232,2.2276,2.2233,2.2062,2.2238,2.1962,2.1839,2.1914,2.181,2.181,2.2062,2.1961,2.1973,2.2104,2.1868,2.1882,2.2049,2.1666,2.1816,2.1806,2.1948,2.2114,2.2103,2.2158,2.203,2.1995,2.1849,2.2105,2.2307,2.2213,2.2213,2.2221,2.2226,2.2112,2.2132,2.2155,2.2073,2.2042,2.2316,2.2238,2.2253,2.219,2.2259,2.2146,2.2208,2.2147,2.2322,2.2381,2.2212,2.2103,2.2142,2.2297,2.2103,2.1993,2.1925,2.1917,2.2052,2.2078,2.1993,2.1957,2.184,2.2076,2.2141,2.1997,2.1778,2.2093,2.2017,2.1935,2.2004,2.1985,2.2089,2.2042,2.1995,2.1871,2.179,2.2072,2.2221,2.2265,2.226,2.231,2.2547,2.2576,2.2641,2.2777,2.2566,2.2197,2.2135,2.2111,2.1904,2.1829,2.1849,2.171,2.1543,2.1544,2.1513,2.1485,2.1515,2.1481,2.158,2.1568,2.1481,2.151,2.1675,2.1468,2.1368,2.1288,2.1091,2.1554,2.3286,2.4326,2.6453,2.8651,2.9036,2.7325,2.3023,1.7896,1.5696,1.7238,1.8751,1.9554,2.0757,2.1353,2.1519,2.194,2.1856,2.1741,2.1722,2.1867,2.176,2.182,2.1928,2.2135,2.213,2.2279,2.2382,2.2399,2.2343,2.2437,2.2198,2.2439,2.2593,2.2833,2.2676,2.2635,2.2779,2.2828,2.2886,2.2969,2.3088,2.3152,2.3185,2.3171,2.35,2.3612,2.3604,2.358,2.3674,2.4038,2.413,2.4174,2.4333,2.4652,2.4823,2.5065,2.5139,2.5475,2.5848,2.5951,2.6088,2.6119,2.6618,2.6761,2.6922,2.7033,2.7259,2.7395,2.737,2.759,2.7811,2.7809,2.7735,2.7861,2.7249,2.6894,2.6503,2.6334,2.5623,2.5028,2.4703,2.435,2.3938,2.3527,2.3431,2.3108,2.2847,2.2539,2.2474,2.2272,2.2286,2.2172,2.2215,2.2402,2.2417,2.2246,2.2187,2.2079,2.2203,2.2175,2.2511,2.2397,2.2509,2.2487,2.2332,2.2078,2.2201,2.2301,2.2423,2.2318,2.2174,2.2275,2.2339,2.2466,2.2595,2.2686,2.2689,2.2619,2.2542,2.2657,2.2751,2.2756,2.2859,2.2794,2.2761,2.2903,2.2926,2.3006,2.3081,2.3071,2.3063,2.3048,2.3033,2.3076,2.3094,2.3018,2.319,2.312,2.3167,2.3396,2.3202,2.3186,2.316,2.3277,2.3319,2.3221,2.3062,2.3115,2.3258,2.32,2.3123,2.3213,2.3338,2.3246,2.3237,2.3109,2.306,2.3009,2.3019,2.3151,2.3103,2.3126,2.3074,2.3124,2.314,2.3452,2.3348,2.3032,2.2996,2.3023,2.3119,2.3389,2.347,2.3575,2.3621,2.3539,2.3665,2.3797,2.3792,2.3988,2.4084,2.3966,2.3685,2.3533,2.342,2.3284,2.3385,2.3338,2.3028,2.2945,2.2948,2.3005,2.2975,2.2819,2.2815,2.2846,2.2916,2.2935,2.286,2.272,2.2758,2.284,2.2762,2.2725,2.2965,2.4035,2.5703,2.7618,2.9541,2.9775,2.7663,2.3247,1.8592,1.741,1.8991,2.0131,2.0858,2.1636,2.197,2.2331,2.2627,2.2773,2.2714,2.2739,2.2728,2.2817,2.2824,2.2955,2.2976,2.293,2.3111,2.3113,2.321,2.3252,2.3213,2.3059,2.3033,2.3182,2.3319,2.3324,2.3281,2.3321,2.3281,2.3242,2.3157,2.3329,2.3577,2.3594,2.3632,2.374,2.3738,2.4018,2.4164,2.4354,2.4236,2.4297,2.4605,2.4759,2.5117,2.5046,2.5158,2.5247,2.5412,2.5709,2.5943,2.6252,2.6508,2.6577,2.6758,2.6907,2.722,2.7237,2.7268,2.7298,2.7458,2.7547,2.7679,2.7663,2.7426,2.7397,2.7028,2.6754,2.6495,2.6031,2.5589,2.5181,2.462,2.4344,2.3842,2.3527,2.3314,2.3014,2.2895,2.2804,2.2652,2.2399,2.2311,2.2256,2.2181,2.2237,2.2303,2.2249,2.2277,2.2381,2.2294,2.2229,2.2277,2.2258,2.2077,2.2159,2.2227,2.2142,2.2361,2.2323,2.2412,2.2318,2.2404,2.2495,2.2503,2.2549,2.2737,2.2787,2.2843,2.2739,2.278,2.2956,2.2861,2.295,2.2889,2.2867,2.2896,2.3014,2.3049,2.3115,2.3043,2.2886,2.2823,2.2855,2.301,2.3158,2.3016,2.3101,2.3067,2.3162,2.3098,2.2945,2.3073,2.3103,2.3014,2.3048,2.328,2.3551,2.3705,2.3612,2.336,2.3558,2.3724,2.3836,2.4006,2.4035,2.3937,2.373,2.3623,2.3323,2.3414,2.339,2.3255,2.3166,2.3149,2.3056,2.3088,2.3004,2.3068,2.2995,2.3021,2.2999,2.3003,2.3004,2.2998,2.3095,2.3105,2.2888,2.2808,2.2971,2.3972,2.5742,2.7768,2.9792,3.0661,2.876,2.4429,2.0245,1.8422,1.9786,2.0623,2.1302,2.2065,2.2541,2.3131,2.32,2.3436,2.3403,2.3452,2.3504,2.374,2.39,2.3949,2.391,2.3831,2.3816,2.3872,2.391,2.3946,2.387,2.3826,2.3899,2.4103,2.4066,2.4205,2.4262,2.4207,2.4026,2.4031,2.4096,2.4253,2.4268,2.4307,2.4318,2.4378,2.4539,2.4649,2.4686,2.469,2.4802,2.4863,2.5011,2.5151,2.5516,2.5676,2.5896,2.5924,2.5973,2.6157,2.6549,2.679,2.6953,2.7029,2.7116,2.7309,2.7551,2.7638,2.7757,2.7804,2.7891,2.7943,2.7925,2.7771,2.7713,2.7196,2.6747,2.6141,2.5791,2.5481,2.5096,2.4652,2.4302,2.3915,2.3482,2.3104,2.302,2.2837,2.2741,2.2404,2.2347,2.2387,2.2246,2.2334,2.2255,2.219,2.2084,2.2083,2.2125,2.2164,2.2021,2.2209,2.2203,2.2229,2.211,2.2041,2.2114,2.218,2.225,2.2306,2.2342,2.2282,2.2393,2.2439,2.2326,2.2404,2.2429,2.245,2.2485,2.2469,2.248,2.2418,2.2427,2.2352,2.2357,2.2321,2.2349,2.236,2.2452,2.2477,2.239,2.2352,2.2405,2.249,2.2424,2.2292,2.2406,2.2428,2.2374,2.2526,2.234,2.2305,2.2289,2.2378,2.236,2.2374,2.227,2.2317,2.2206,2.2206,2.2288,2.261,2.2913,2.2892,2.2979,2.2746,2.2785,2.3004,2.3247,2.3492,2.3667,2.3591,2.3333,2.313,2.2873,2.2838,2.2714,2.2744,2.2616,2.2387,2.2351,2.2367,2.2337,2.22,2.2371,2.2312,2.2375,2.2525,2.2499,2.2537,2.2351,2.2286,2.2284,2.2407,2.2232,2.2319,2.2671,2.4196,2.6227,2.8225,3.0171,2.976,2.6698,2.1719,1.7167,1.7501,1.9179,2.0006,2.1053,2.1571,2.221,2.2356,2.2724,2.2759,2.3,2.2908,2.2749,2.278,2.3094,2.3081,2.3276,2.3212,2.3033,2.3116,2.3341,2.3275,2.3359,2.3455,2.3336,2.3384,2.3477,2.3457,2.3579,2.374,2.3764,2.3797,2.3894,2.389,2.3803,2.3895,2.4022,2.4242,2.4304,2.438,2.4472,2.4662,2.4747,2.4907,2.5006,2.5068,2.5173,2.5565,2.5644,2.5768,2.6028,2.6134,2.6298,2.6827,2.7092,2.7197,2.7254,2.7422,2.7595,2.7742,2.7793,2.7832,2.806,2.7955,2.7833,2.7929,2.7729,2.7454,2.7266,2.6719,2.6107,2.5619,2.5108,2.4682,2.4255,2.3809,2.3361,2.3228,2.3215,2.3148,2.2691,2.268,2.2633,2.2613,2.261,2.2612,2.2435,2.2435,2.2485,2.2495,2.2484,2.25,2.2423,2.236,2.2395,2.2474,2.2366,2.2423,2.2266,2.2305,2.2435,2.2442,2.2497,2.2361,2.2422,2.2382,2.244,2.2469,2.2568,2.2526,2.2529,2.2486,2.247,2.2644,2.2696,2.2675,2.2592,2.2533,2.2531,2.2629,2.2677,2.2625,2.2701,2.2585,2.2679,2.276,2.2745,2.2596,2.2804,2.2805,2.2702,2.2687,2.2751,2.2686,2.2672,2.2658,2.2714,2.268,2.2718,2.2701,2.2789,2.2769,2.2644,2.2613,2.2532,2.2546,2.2679,2.2688,2.2603,2.2438,2.2737,2.2714,2.285,2.288,2.259,2.2469,2.2578,2.269,2.2633,2.2771,2.2712,2.2835,2.2734,2.2677,2.2625,2.2648,2.2781,2.2871,2.2639,2.2679,2.2712,2.2667,2.2808,2.2802,2.2634,2.2728,2.2712,2.2869,2.2875,2.3027,2.3251,2.3036,2.3098,2.3355,2.3751,2.3829,2.3791,2.3575,2.3473,2.3441,2.3363,2.3204,2.3004,2.2629,2.2643,2.2649,2.2756,2.2573,2.2381,2.243,2.2435,2.2484,2.2493,2.2617,2.2573,2.2676,2.2642,2.2695,2.2699,2.2519,2.2382,2.2521,2.3833,2.5334,2.7559,2.9698,3.0051,2.8335,2.4022,1.9015,1.7097,1.8732,2.016,2.0905,2.1872,2.2419,2.2497,2.2885,2.2962,2.2832,2.2678,2.2777,2.2826,2.2852,2.3069,2.3038,2.3009,2.3105,2.3083,2.3301,2.334,2.3276,2.3269,2.3181,2.3195,2.336,2.3328,2.3341,2.3479,2.3411,2.3579,2.3594,2.3569,2.3541,2.3742,2.3851,2.3952,2.4113,2.4246,2.4355,2.4531,2.4601,2.471,2.4881,2.5072,2.5267,2.533,2.5412,2.5589,2.5835,2.6029,2.6261,2.6521,2.6844,2.7105,2.7148,2.745,2.7607,2.7773,2.7787,2.805,2.8036,2.8109,2.8178,2.8187,2.8121,2.7917,2.775,2.7338,2.7071,2.6669,2.6266,2.5636,2.5165,2.4789,2.4504,2.4296,2.3998,2.3618,2.3399,2.3222,2.3267,2.3276,2.3102,2.2878,2.2782,2.274,2.2718,2.2745,2.2731,2.2888,2.2831,2.287,2.2975,2.2821,2.2816,2.276,2.2804,2.2689,2.2805,2.2728,2.2828,2.2924,2.2906,2.2896,2.2957,2.2958,2.2845,2.2974,2.3203,2.3212,2.3083,2.2896,2.2988,2.3025,2.2979,2.3174,2.316,2.3145,2.3253,2.3208,2.3265,2.3213,2.3042,2.3314,2.3175,2.3121,2.3078,2.3119,2.3235,2.317,2.322,2.3075,2.3158,2.319,2.3246,2.3125,2.302,2.3176,2.3188,2.3314,2.3234,2.3089,2.3065,2.3137,2.3132,2.3124,2.3144,2.3247,2.3269,2.3295,2.326,2.3184,2.3304,2.3267,2.3262,2.3188,2.3297,2.3096,2.3167,2.3165,2.3177,2.3208,2.3359,2.3148,2.3058,2.3077,2.3078,2.303,2.3097,2.3159,2.3171,2.3178,2.3149,2.3162,2.3038,2.3245,2.3435,2.3139,2.2991,2.3047,2.3045,2.3034,2.2949,2.2959,2.2939,2.3069,2.3131,2.3142,2.2974,2.3094,2.3222,2.3365,2.3009,2.3089,2.3115,2.3325,2.3459,2.332,2.3403,2.3662,2.3819,2.3829,2.3972,2.4056,2.3956,2.3999,2.3795,2.3641,2.3471,2.3436,2.3527,2.3324,2.3171,2.3193,2.3103,2.2884,2.2977,2.3066,2.3262,2.3071,2.3123,2.3274,2.3281,2.3246,2.3053,2.3063,2.2989,2.3,2.421,2.5848,2.7947,2.9943,3.0046,2.8143,2.4116,1.9759,1.87,2.0167,2.0705,2.1474,2.2258,2.2698,2.2924,2.3124,2.3291,2.3294,2.3081,2.3121,2.3143,2.3424,2.3472,2.3521,2.3417,2.3402,2.3313,2.3538,2.3696,2.3505,2.3598,2.3567,2.3616,2.3667,2.3707,2.368,2.3641,2.3768,2.3561,2.3743,2.384,2.4024,2.4048,2.4206,2.4286,2.4329,2.4271,2.4272,2.4383,2.4408,2.4728,2.4796,2.4979,2.4973,2.5151,2.5465,2.5716,2.5596,2.5731,2.6168,2.6459,2.6324,2.6817,2.6756,2.6645,2.7113,2.7429,2.7193,2.7019,2.7277,2.8003,2.8024,2.7609,2.772,2.7486,2.7092,2.6857,2.6719,2.6444,2.6254,2.5912,2.5635,2.5039,2.4457,2.4335,2.4386,2.4028,2.3457,2.344,2.3455,2.3484,2.3054,2.3175,2.3016,2.3124,2.2779,2.2729,2.2723,2.2908,2.2962,2.3062,2.2833,2.2873,2.2699,2.2941,2.2924,2.2881,2.2881,2.2807,2.306,2.3212,2.3215,2.306,2.3117,2.3199,2.3527,2.3706,2.3567,2.3062,2.3084,2.3191,2.3429,2.3448,2.3411,2.3281,2.3568,2.3553,2.338,2.3313,2.3395,2.3352,2.3458,2.3431,2.3235,2.3158,2.3271,2.317,2.3194,2.3111,2.3131,2.3014,2.3132,2.3176,2.3077,2.306,2.3115,2.3133,2.3253,2.3123,2.3243,2.316,2.3043,2.3145,2.304,2.3049,2.3128,2.3198,2.3149,2.3219,2.3167,2.3061,2.3111,2.3092,2.3263,2.3434,2.3431,2.3626,2.3529,2.3529,2.3597,2.3723,2.3788,2.4162,2.412,2.4138,2.3962,2.3889,2.3829,2.3804,2.3814,2.3699,2.3445,2.3231,2.3139,2.3217,2.32,2.3164,2.3326,2.3159,2.315,2.3239,2.3271,2.318,2.3219,2.3092,2.3032,2.3003,2.3232,2.3473,2.4722,2.6508,2.844,3.0231,3.0081,2.7581,2.317,1.8934,1.8832,2.0116,2.0825,2.1663,2.2204,2.2603,2.274,2.3006,2.3233,2.3079,2.3058,2.328,2.3272,2.3433,2.3261,2.3082,2.312,2.3043,2.3214,2.3421,2.3289,2.3008,2.2853,2.31,2.3166,2.3212,2.3124,2.3123,2.3286,2.3138,2.3138,2.3092,2.3254,2.3498,2.388,2.3937,2.3704,2.3594,2.3527,2.3662,2.3741,2.4141,2.4219,2.4371,2.4605,2.4813,2.4885,2.5143,2.5249,2.5658,2.5811,2.5856,2.6065,2.6302,2.6517,2.6352,2.638,2.6566,2.704,2.7092,2.6991,2.6999,2.713,2.6922,2.6948,2.6978,2.6898,2.6647,2.6087,2.5606,2.5211,2.5055,2.4433,2.3987,2.387,2.3652,2.3449,2.3349,2.31,2.3075,2.2864,2.2855,2.2751,2.2896,2.2935,2.2499,2.2444,2.2549,2.2645,2.2735,2.2701,2.2645,2.2759,2.2753,2.3068,2.2884,2.2524,2.2182,2.2259,2.2605,2.2592,2.2382,2.2425,2.2428,2.24,2.2312,2.2405,2.2448,2.2557,2.2635,2.2614,2.2503,2.2076,2.2154,2.2284,2.2058,2.209,2.2242,2.2247,2.2277,2.2423,2.2302,2.2179,2.209,2.2144,2.2095,2.2014,2.2286,2.2221,2.2057,2.1727,2.1714,2.1804,2.1857,2.185,2.2003,2.2247,2.22,2.216,2.2085,2.1987,2.187,2.2016,2.2131,2.2189,2.2173,2.226,2.2394,2.2549,2.2632,2.2515,2.2537,2.2752,2.2984,2.3353,2.327,2.3221,2.3536,2.3783,2.4177,2.4207,2.383,2.3824,2.4468,2.5004,2.5157,2.4456,2.4428,2.4209,2.4269,2.4313,2.4206,2.4094,2.3871,2.361,2.3568,2.3917,2.3746,2.3437,2.3104,2.32,2.3258,2.3478,2.3501,2.3178,2.3008,2.292,2.2842,2.2676,2.262,2.3312,2.4195,2.6217,2.802,2.9894,3.0024,2.7635,2.2983,1.8249,1.7355,1.9186,2.0341,2.1149,2.2383,2.304,2.3225,2.3206,2.3469,2.351,2.3299,2.301,2.297,2.3144,2.3468,2.3227,2.3429,2.3228,2.3679,2.3923,2.369,2.3365,2.301,2.2815,2.2566,2.2595,2.2905,2.3065,2.333,2.3256,2.2893,2.2669,2.2717,2.3234,2.3264,2.3584,2.3756,2.3801,2.3925,2.4057,2.4237,2.4368,2.4383,2.4593,2.4845,2.5062,2.5256,2.5335,2.5584,2.5806,2.6127,2.6326,2.649,2.6447,2.6885,2.7232,2.7271,2.736,2.7339,2.7418,2.7449,2.7353,2.7273,2.7471,2.7586,2.7666,2.7457,2.7151,2.6726,2.6244,2.6019,2.5303,2.4707,2.3788,2.3017,2.2552,2.1879,2.1303,2.0525,1.9949,1.9619,1.9407,1.9095,1.9363,1.9432,1.9381,1.9233,1.9031,1.8586,1.815,1.7825,1.7625,1.7498,1.7263,1.7239,1.7046,1.7031,1.6947,1.6952,1.6697,1.6425,1.6262,1.6104,1.6016,1.5878,1.5712,1.5576,1.5473,1.5346,1.5233,1.5478,1.5445,1.5375,1.5852,1.6004,1.6165,1.5991,1.5811,1.5682,1.5816,1.5798,1.5939,1.6181,1.6377,1.6441,1.6651,1.67,1.6761,1.6965,1.7069,1.7027,1.6952,1.6792,1.7139,1.7563,1.7651,1.7397,1.7433,1.7719,1.7727,1.7773,1.8049,1.8287,1.8448,1.885,1.8665,1.8347,1.8272,1.8757,1.9111,1.9021,1.8652,1.8564,1.854,1.8541,1.8588,1.8718,1.8762,1.886,1.908,1.9175,1.9337,1.9421,1.9454,1.9615,1.9508,1.9682,2.0004,2.0178,2.0473,2.0318,1.9973,1.9703,1.9644,1.9697,1.9493,1.9463,1.9368,1.9229,1.9316,1.9257,1.924,1.9159,1.9223,1.9258,1.9415,1.9306,1.9245,1.9361,1.9411,1.9392,1.9482,1.9673,1.9622,1.9827,2.1139,2.3002,2.4656,2.6386,2.6429,2.4285,1.9924,1.5673,1.4967,1.6727,1.8162,1.8784,1.9766,2.0077,1.9791,2.0057,2.0338,2.0627,2.061,2.076,2.0728,2.0733,2.0776,2.0764,2.1024,2.1341,2.125,2.1363,2.1321,2.143,2.1666,2.1567,2.1272,2.1111,2.0966,2.0973,2.0965,2.0939,2.1094,2.1542,2.1689,2.1453,2.1458,2.1462,2.1412,2.1699,2.1993,2.1992,2.2154,2.2565,2.3004,2.3139,2.3075,2.3108,2.3432,2.3798,2.4145,2.4252,2.4203,2.4466,2.4965,2.5125,2.5234,2.5328,2.5394,2.5688,2.582,2.6,2.6283,2.6459,2.6507,2.6328,2.631,2.6043,2.585,2.5754,2.543,2.5128,2.4914,2.4643,2.4395,2.3979,2.3681,2.3527,2.3296,2.257,2.2271,2.2081,2.1821,2.1502,2.1355,2.1469,2.1215,2.0942,2.08,2.0954,2.1325,2.1268,2.1233,2.116,2.0977,2.0844,2.0957,2.0937,2.0728,2.09,2.1012,2.1049,2.0904,2.093,2.1039,2.097,2.0986,2.0961,2.1114,2.132,2.1152,2.0946,2.0868,2.0965,2.1027,2.1131,2.1097,2.109,2.1082,2.081,2.0798,2.0898,2.0954,2.0839,2.0832,2.0673,2.08,2.0986,2.1012,2.0651,2.0439,2.0393,2.04,2.0407,2.0532,2.028,2.0437,2.0734,2.0754,2.0895,2.0657,2.0515,2.015,2.0583,2.0519,2.0371,2.021,2.03,2.0484,2.0603,2.0764,2.0932,2.0974,2.1179,2.1202,2.1184,2.1423,2.1489,2.1435,2.1383,2.1545,2.1528,2.1264,2.0802,2.0849,2.0864,2.0811,2.0786,2.0906,2.0772,2.068,2.0812,2.081,2.0925,2.097,2.1025,2.1174,2.1283,2.128,2.1203,2.1089,2.1001,2.1277,2.158,2.299,2.4785,2.6354,2.7626,2.7486,2.4972,2.0848,1.7688,1.7463,1.8783,1.9618,1.9776,2.0383,2.1195,2.1443,2.1593,2.181,2.1797,2.1727,2.1849,2.2088,2.226,2.226,2.2315,2.2362,2.2461,2.227,2.2369,2.2441,2.2781,2.2683,2.2627,2.2741,2.289,2.2899,2.2636,2.2775,2.3045,2.3001,2.3151,2.3305,2.3341,2.3703,2.3937,2.3543,2.3472,2.3855,2.3625,2.3602,2.3825,2.3899,2.4168,2.4532,2.4862,2.4963,2.4901,2.5188,2.5665,2.5668,2.5731,2.5802,2.5913,2.6201,2.6438,2.6574,2.6499,2.6758,2.6817,2.672,2.686,2.7152,2.7317,2.7134,2.7103,2.675,2.6413,2.6127,2.5895,2.5696,2.5341,2.4783,2.4289,2.3645,2.3461,2.3219,2.3024,2.2799,2.2452,2.2438,2.2383,2.2526,2.2619,2.2837,2.252,2.2192,2.2154,2.2297,2.2433,2.2348,2.2377,2.2263,2.2058,2.2283,2.2348,2.2458,2.2592,2.2489,2.238,2.2506,2.2702,2.2697,2.2876,2.2614,2.2663,2.2593,2.2574,2.2437,2.2204,2.2629,2.2623,2.2587,2.2737,2.2944,2.3002,2.264,2.2488,2.2452,2.2383,2.2471,2.2538,2.2537,2.2424,2.2444,2.2374,2.2493,2.2755,2.2585,2.2399,2.243,2.2648,2.2611,2.2464,2.2423,2.2103,2.2393,2.2472,2.2621,2.2665,2.2596,2.2487,2.2583,2.2526,2.2507,2.2919,2.3239,2.328,2.3257,2.3062,2.299,2.3445,2.3861,2.386,2.354,2.3418,2.3383,2.3258,2.3102,2.2857,2.2825,2.2873,2.2986,2.2964,2.2879,2.3007,2.2749,2.2753,2.2867,2.2988,2.2754,2.2679,2.2719,2.2652,2.2697,2.2774,2.2661,2.2588,2.281,2.3184,2.3932,2.5584,2.7483,2.9261,2.9248,2.7418,2.3511,1.8945,1.7762,1.9144,2.0339,2.1265,2.1834,2.2127,2.2535,2.2762,2.289,2.2956,2.2963,2.2929,2.3033,2.3163,2.3363,2.3306,2.3373,2.2959,2.2894,2.302,2.3367,2.3374,2.3137,2.3197,2.3353,2.3226,2.3238,2.3335,2.3593,2.358,2.3354,2.3244,2.3346,2.3285,2.3599,2.3768,2.3749,2.369,2.371,2.3941,2.3977,2.4176,2.4471,2.4464,2.4525,2.4784,2.5063,2.5238,2.5111,2.5255,2.546,2.5802,2.5799,2.5929,2.6262,2.6624,2.6724,2.688,2.679,2.7038,2.7171,2.7375,2.7407,2.7289,2.7122,2.7161,2.6929,2.6633,2.6187,2.5499,2.5171,2.4903,2.4422,2.4035,2.3811,2.3439,2.3241,2.2984,2.2788,2.2647,2.2392,2.2252,2.2348,2.2436,2.2338,2.2239,2.2108,2.2139,2.2234,2.2228,2.2105,2.2259,2.2049,2.1773,2.1496,2.1749,2.2107,2.2103,2.1993,2.186,2.1819,2.1494,2.1671,2.214,2.1879,2.1228,2.1322,2.1343,2.1364,2.1499,2.1575,2.1336,2.1533,2.1628,2.1357,2.1024,2.088,2.0753,2.1151,2.1444,2.1415,2.1527,2.1613,2.1782,2.2093,2.2334,2.2049,2.2607,2.2586,2.1669,2.1287,2.1227,2.1411,2.1563,2.1731,2.1719,2.1711,2.1708,2.1641,2.1602,2.176,2.1976,2.2029,2.1526,2.1778,2.1949,2.204,2.1973,2.2133,2.2159,2.2003,2.2226,2.2272,2.2291,2.2454,2.2849,2.2842,2.2367,2.1841,2.2263,2.2446,2.2798,2.2823,2.3065,2.2828,2.2698,2.3037,2.2813,2.3284,2.3571,2.348,2.3089,2.2752,2.2656,2.3222,2.3112,2.2618,2.2435,2.2284,2.234,2.2556,2.2649,2.2559,2.2263,2.1738,2.1579,2.1732,2.2072,2.2365,2.2827,2.2642,2.2077,2.1947,2.2058,2.2163,2.2407,2.349,2.5212,2.7241,2.9287,2.885,2.6661,2.2196,1.7778,1.6928,1.8956,2.0267,2.0769,2.1369,2.1991,2.2324,2.2768,2.3054,2.2994,2.2919,2.3185,2.3357,2.313,2.2864,2.2731,2.2701,2.2743,2.2921,2.2834,2.2916,2.3271,2.3484,2.3335,2.3049,2.2956,2.3125,2.3673,2.4114,2.3818,2.3283,2.2809,2.3102,2.3193,2.3187,2.3335,2.3286,2.3494,2.3667,2.359,2.3433,2.3315,2.366,2.4007,2.4264,2.4414,2.432,2.4167,2.4218,2.4242,2.486,2.5253,2.5756,2.5871,2.5826,2.5713,2.5774,2.5746,2.5888,2.5997,2.6306,2.644,2.6497,2.6491,2.6535,2.6466,2.6448,2.6433,2.6138,2.5849,2.5331,2.4732,2.4139,2.3955,2.3618,2.3415,2.3152,2.2758,2.2519,2.2521,2.2419,2.208,2.1941,2.1954,2.1981,2.2131,2.2193,2.2678,2.267,2.2532,2.2019,2.1599,2.1733,2.1664,2.167,2.2018,2.2567,2.2678,2.2553,2.2406,2.2297,2.2411,2.2145,2.2208,2.2383,2.2495,2.2893,2.2965,2.2631,2.2336,2.2161,2.2661,2.3497,2.3648,2.3171,2.2623,2.2463,2.2386,2.2639,2.2613,2.2647,2.2692,2.2765,2.2518,2.266,2.2733,2.2752,2.2822,2.2623,2.2699,2.2474,2.2428,2.2566,2.2637,2.3082,2.3488,2.3364,2.2948,2.2858,2.2745,2.2896,2.2809,2.2657,2.2723,2.285,2.2823,2.3122,2.3555,2.3413,2.3118,2.3102,2.3094,2.3084,2.3069,2.2655,2.2766,2.3434,2.3542,2.2747,2.2366,2.2828,2.3554,2.3213,2.2781,2.3112,2.3444,2.3363,2.3079,2.327,2.3307,2.2959,2.2672,2.2551,2.3585,2.3511,2.2548,2.2238,2.2385,2.2714,2.302,2.3074,2.3522,2.4163,2.3929,2.3388,2.3198,2.319,2.3266,2.3504,2.3769,2.443,2.3507,2.2618,2.2432,2.173,2.2561,2.2604,2.2087,2.2112,2.1988,2.1686,2.1691,2.2058,2.186,2.2315,2.308,2.2195,2.1132,2.1157,2.135,2.1384,2.1326,2.2332,2.4194,2.5632,2.683,2.8144,2.7719,2.4643,2.0243,1.6732,1.7332,1.8827,1.9653,2.0117,2.0852,2.1741,2.1746,2.1407,2.1269,2.103,2.0924,2.1384,2.2059,2.2299,2.1565,2.1001,2.1129,2.1402,2.2138,2.2428,2.2488,2.269,2.2339,2.2426,2.2438,2.2955,2.2933,2.2678,2.267,2.2322,2.2183,2.205,2.1989,2.2149,2.2548,2.275,2.3078,2.3226,2.3842,2.4105,2.3443,2.3157,2.3143,2.3119,2.3142,2.3564,2.3766,2.4307,2.4402,2.442,2.4939,2.4825,2.4718,2.4665,2.4451,2.4481,2.5413,2.5788,2.5008,2.484,2.4931,2.5301,2.5363,2.575,2.5748,2.6059,2.6092,2.5428,2.6046,2.4752,2.4538,2.4688,2.4392,2.3856,2.3207,2.3524,2.3697,2.3307,2.2395,2.2215,2.1995,2.1955,2.1844,2.21,2.2116,2.216,2.1943,2.1686,2.1785,2.2097,2.2617,2.1959,2.1053,2.1252,2.1472,2.2007,2.1833,2.1831,2.1956,2.2465,2.2313,2.2208,2.1768,2.2035,2.235,2.2385,2.2778,2.2457,2.1541,2.1505,2.1907,2.2312,2.2894,2.2558,2.2061,2.2387,2.282,2.265,2.2449,2.2176,2.2302,2.2422,2.2465,2.2415,2.2541,2.222,2.1998,2.257,2.265,2.251,2.2316,2.2743,2.2424,2.2304,2.3074,2.3008,2.2445,2.1917,2.2296,2.3083,2.3223,2.2367,2.2095,2.3222,2.3878,2.365,2.3,2.2917,2.2944,2.3091,2.3102,2.377,2.3618,2.3063,2.3405,2.3469,2.3278,2.3052,2.31,2.3046,2.3075,2.3027,2.2672,2.2161,2.2266,2.2639,2.2606,2.2333,2.2315,2.2218,2.2817,2.2892,2.2737,2.2528,2.2105,2.2259,2.2684,2.2615,2.3886,2.5316,2.7041,2.8276,2.8928,2.7249,2.3439,1.9551,1.8376,1.9351,2.042,2.052,2.082,2.1695,2.2536,2.3306,2.3199,2.2691,2.2784,2.3633,2.3807,2.3047,2.2617,2.3224,2.3975,2.3724,2.3163,2.3018,2.3286,2.3322,2.3803,2.3838,2.3481,2.3301,2.3455,2.3773,2.4256,2.4313,2.4074,2.4051,2.4621,2.4539,2.4219,2.3831,2.3999,2.3902,2.4297,2.4775,2.5251,2.5395,2.4842,2.5067,2.5508,2.6003,2.583,2.5403,2.5432,2.5892,2.5938,2.6262,2.6884,2.7513,2.7792,2.7848,2.7213,2.6553,2.6841,2.7372,2.7916,2.8111,2.8201,2.8588,2.8623,2.7973,2.6998,2.6817,2.6447,2.6677,2.6433,2.6195,2.5415,2.4802,2.4305,2.4188,2.3953,2.3708,2.3606,2.3474,2.362,2.3687,2.3527,2.327,2.2844,2.2709,2.3364,2.3386,2.2551,2.2095,2.303,2.3272,2.3483,2.3403,2.228,2.2072,2.2428,2.2687,2.2949,2.3097,2.3146,2.2978,2.3366,2.4043,2.4399,2.3396,2.2376,2.2584,2.266,2.2781,2.287,2.3209,2.3266,2.3372,2.3289,2.3596,2.3528,2.3058,2.2981,2.3485,2.3865,2.3519,2.2875,2.2954,2.2852,2.3082,2.2864,2.2869,2.3007,2.3153,2.3062,2.327,2.3164,2.3103,2.3503,2.3698,2.3087,2.2726,2.3019,2.3102,2.2972,2.3153,2.3319,2.337,2.3461,2.3435,2.3442,2.3627,2.3458,2.3193,2.3127,2.3392,2.3648,2.3572,2.3264,2.3589,2.3792,2.3978,2.41,2.3973,2.3995,2.4144,2.4258,2.4253,2.4401,2.433,2.4327,2.4013,2.3681,2.3727,2.3622,2.3558,2.3783,2.3898,2.3631,2.3132,2.2934,2.3051,2.3204,2.3293,2.3838,2.3674,2.342,2.331,2.319,2.2918,2.2985,2.3019,2.3069,2.3783,2.5395,2.6996,2.8406,2.9643,2.9004,2.595,2.1519,1.7634,1.8697,2.0397,2.1059,2.168,2.2546,2.2909,2.2916,2.2882,2.3038,2.3044,2.3102,2.324,2.3345,2.3252,2.2875,2.2863,2.2991,2.3125,2.3384,2.3505,2.34,2.3197,2.3366,2.3366,2.3511,2.3655,2.3646,2.3482,2.3273,2.346,2.3411,2.3457,2.3511,2.3524,2.3636,2.3732,2.3751,2.3842,2.4068,2.4164,2.4266,2.425,2.4373,2.4546,2.4702,2.4834,2.4987,2.4964,2.5247,2.533,2.5627,2.5886,2.5885,2.6282,2.6332,2.6546,2.6553,2.684,2.6987,2.6967,2.7087,2.7315,2.7265,2.7296,2.7225,2.7293,2.7292,2.6646,2.6056,2.5831,2.5523,2.5008,2.4505,2.4007,2.3615,2.3238,2.2741,2.2359,2.1976,2.151,2.1291,2.1117,2.0724,2.0421,2.0224,2.0267,2.0025,2.0068,2.0122,2.0155,1.9955,1.9792,2.0127,2.0169,2.0066,2.0206,2.0253,2.0293,2.0422,2.038,2.0487,2.0612,2.0564,2.043,2.0276,2.0341,2.0748,2.0979,2.0964,2.1025,2.0894,2.0907,2.0868,2.0776,2.091,2.1022,2.1071,2.1167,2.131,2.141,2.1504,2.1589,2.1727,2.2063,2.2154,2.2141,2.2049,2.1784,2.1784,2.1811,2.1911,2.1927,2.2059,2.2229,2.2118,2.1881,2.2041,2.2075,2.2303,2.2464,2.2507,2.2501,2.2288,2.2372,2.2412,2.2464,2.2552,2.2635,2.2607,2.233,2.25,2.2889,2.3195,2.2901,2.2363,2.2355,2.2341,2.2369,2.2481,2.2679,2.2679,2.2631,2.2655,2.2901,2.2658,2.2591,2.2536,2.2587,2.2626,2.2614,2.2676,2.2766,2.272,2.2833,2.2871,2.268,2.2584,2.2745,2.3008,2.3195,2.3163,2.2879,2.2827,2.301,2.3166,2.3323,2.3276,2.3307,2.3751,2.4081,2.4181,2.4184,2.3891,2.3647,2.3533,2.3405,2.3279,2.3001,2.3195,2.32,2.3212,2.3012,2.3017,2.3269,2.3648,2.3891,2.3581,2.2948,2.2747,2.2948,2.3007,2.3202,2.3018,2.2969,2.3054,2.3249,2.4501,2.6221,2.8144,2.9935,3,2.8227,2.4195,1.9493,1.8352,2.0007,2.0683,2.15,2.2615,2.3349,2.3457,2.3516,2.3793,2.3627,2.3556,2.3759,2.3881,2.4013,2.386,2.3894,2.4035,2.3881,2.4066,2.4202,2.4348,2.4414,2.4466,2.4411,2.4245,2.4373,2.4187,2.4051,2.4157,2.4141,2.4328,2.4325,2.4589,2.473,2.4715,2.4807,2.4677,2.4779,2.5066,2.5116,2.5074,2.5314,2.5435,2.5363,2.5467,2.5681,2.6084,2.612,2.623,2.6247,2.6364,2.6801,2.7229,2.7079,2.7495,2.7764,2.7686,2.7774,2.784,2.7754,2.793,2.8184,2.8252,2.816,2.8566,2.8498,2.8157,2.8045,2.7867,2.7985,2.713,2.6388,2.6439,2.6044,2.5809,2.547,2.5222,2.5002,2.439,2.4252,2.4421,2.4336,2.3981,2.38,2.4097,2.4467,2.4476,2.3882,2.3608,2.4239,2.4008,2.385,2.4174,2.4211,2.415,2.3847,2.4332,2.4712,2.4324,2.4549,2.4361,2.4482,2.4422,2.4308,2.4248,2.4727,2.4412,2.4617,2.478,2.4656,2.499,2.5227,2.469,2.4527,2.466,2.498,2.5192,2.4748,2.4381,2.4612,2.503,2.4977,2.4888,2.4524,2.473,2.4639,2.4916,2.4797,2.4579,2.4821,2.4801,2.4556,2.4857,2.4988,2.5164,2.4656,2.4348,2.4695,2.4683,2.5019,2.4705,2.4558,2.4618,2.4513,2.4534,2.4649,2.4699,2.5121,2.5102,2.4595,2.4983,2.4786,2.469,2.4833,2.4609,2.4499,2.4627,2.4726,2.5078,2.5255,2.5042,2.4998,2.5033,2.4979,2.5037,2.5235,2.5102,2.481,2.4985,2.5174,2.5133,2.4969,2.4857,2.4701,2.4659,2.4696,2.4953,2.5375,2.5483,2.5491,2.5546,2.546,2.5418,2.5379,2.6013,2.6149,2.6161,2.5967,2.6068,2.5824,2.5328,2.5413,2.5384,2.5261,2.5218,2.5143,2.5073,2.5017,2.4688,2.4687,2.5052,2.5172,2.5035,2.4883,2.5108,2.5469,2.5063,2.4896,2.4641,2.4905,2.5328,2.6415,2.8002,2.9565,3.1136,3.1468,2.9345,2.5812,2.2126,2.1459,2.244,2.3082,2.3444,2.4006,2.4698,2.4528,2.4808,2.5203,2.5698,2.5595,2.5372,2.541,2.5189,2.5328,2.5386,2.5398,2.5538,2.533,2.5249,2.5545,2.5664,2.5749,2.5606,2.5328,2.5363,2.5499,2.5324,2.5284,2.5358,2.5234,2.5441,2.5592,2.5664,2.5982,2.59,2.5873,2.5868,2.5888,2.5927,2.6069,2.6381,2.6604,2.6796,2.7026,2.7032,2.6943,2.7077,2.7423,2.7718,2.7828,2.7774,2.7993,2.8121,2.8105,2.8434,2.8595,2.8617,2.8829,2.9217,2.9141,2.8906,2.9341,2.9516,2.9092,2.9173,2.8989,2.8859,2.8734,2.8225,2.7753,2.7538,2.7113,2.6667,2.6475,2.6191,2.5859,2.5705,2.5556,2.532,2.5253,2.5233,2.5101,2.4995,2.4746,2.4814,2.4563,2.4537,2.4715,2.4663,2.4756,2.4652,2.4685,2.4708,2.4798,2.478,2.4788,2.4936,2.4841,2.4756,2.4968,2.5198,2.5237,2.5222,2.5037,2.5016,2.5061,2.4976,2.5111,2.4973,2.5134,2.513,2.4844,2.4858,2.4983,2.5113,2.5172,2.4831,2.4838,2.5053,2.5119,2.487,2.4641,2.4901,2.5026,2.4961,2.4887,2.504,2.5067,2.4949,2.4623,2.4645,2.4774,2.5109,2.4799,2.4745,2.5145,2.5288,2.5169,2.5157,2.5235,2.5353,2.5793,2.5834,2.5879,2.5935,2.5745,2.5415,2.5364,2.5282,2.5246,2.4695,2.4955,2.4918,2.463,2.4444,2.4667,2.4835,2.456,2.4486,2.4472,2.4533,2.4387,2.4556,2.4419,2.4457,2.4373,2.446,2.4361,2.4627,2.4902,2.6024,2.7691,2.9364,3.0868,3.0521,2.822,2.415,2.0399,2.0116,2.1353,2.2073,2.2875,2.3153,2.3442,2.3894,2.4071,2.444,2.4453,2.4385,2.4471,2.4476,2.4548,2.4488,2.4678,2.445,2.4714,2.4753,2.4623,2.4663,2.4407,2.4349,2.4577,2.4799,2.4751,2.4827,2.4683,2.4752,2.4921,2.5183,2.528,2.5112,2.4984,2.5134,2.5156,2.5269,2.5342,2.5664,2.563,2.5618,2.5948,2.608,2.6089,2.642,2.6427,2.6061,2.64,2.685,2.7256,2.7259,2.7543,2.7806,2.8119,2.8215,2.7986,2.8084,2.8466,2.8742,2.8725,2.8674,2.8943,2.8971,2.8621,2.8567,2.8654,2.8398,2.795,2.7514,2.7119,2.6774,2.6261,2.5757,2.5413,2.5085,2.5058,2.4583,2.422,2.434,2.4197,2.3758,2.3832,2.3838,2.3753,2.377,2.3759,2.3692,2.3802,2.3788,2.3687,2.3534,2.3508,2.3776,2.3693,2.355,2.3778,2.398,2.3767,2.3655,2.3863,2.3814,2.3883,2.3891,2.3637,2.3715,2.3772,2.4013,2.39,2.3961,2.4041,2.4309,2.43,2.3623,2.3811,2.4052,2.4037,2.3992,2.3864,2.4102,2.3986,2.3872,2.3857,2.3834,2.42,2.4287,2.4097,2.368,2.3702,2.3812,2.3947,2.3839,2.3809,2.3883,2.3864,2.4009,2.3945,2.4104,2.3948,2.4029,2.4051,2.3879,2.387,2.4095,2.4166,2.4265,2.4222,2.4444,2.477,2.4639,2.4461,2.4852,2.5232,2.5216,2.4913,2.4738,2.4573,2.4455,2.4567,2.4455,2.4285,2.4144,2.4423,2.411,2.4009,2.4052,2.4086,2.3955,2.394,2.3974,2.4228,2.4172,2.4102,2.4121,2.4085,2.4089,2.3961,2.3975,2.4172,2.5314,2.681,2.8768,3.0727,3.0772,2.8643,2.4458,2.2099,1.88,1.9551,2.1249,2.174,2.293,2.348,2.4001,2.3777,2.421,2.4112,2.4527,2.4336,2.4317,2.4277,2.4381,2.4262,2.4428,2.4372,2.4592,2.4384,2.4671,2.4678,2.4779,2.4675,2.4627,2.4381,2.4534,2.4546,2.4749,2.4651,2.4653,2.4404,2.4819,2.4892,2.4823,2.4988,2.5098,2.5095,2.5281,2.531,2.5399,2.5321,2.5346,2.5507,2.579,2.5898,2.6103,2.6306,2.638,2.6563,2.6712,2.6843,2.693,2.7129,2.7397,2.7634,2.7665,2.7674,2.758,2.7719,2.785,2.8069,2.8066,2.8231,2.811,2.808,2.781,2.737,2.6763,2.639,2.5849,2.5525,2.5001,2.4698,2.4104,2.3625,2.3427,2.3462,2.3507,2.3462,2.3214,2.2887,2.2753,2.2697,2.2696,2.2743,2.2674,2.2583,2.2404,2.2438,2.2501,2.2571,2.2665,2.286,2.2792,2.2661,2.2374,2.2411,2.2528,2.2471,2.2528,2.2757,2.2817,2.255,2.2298,2.242,2.2489,2.2597,2.2615,2.2724,2.2867,2.2578,2.2469,2.2642,2.2543,2.2763,2.2765,2.2694,2.2521,2.2545,2.2645,2.2508,2.2299,2.2278,2.2346,2.2676,2.258,2.2729,2.275,2.2672,2.2447,2.2217,2.2338,2.257,2.2506,2.2201,2.229,2.2584,2.2556,2.2457,2.2386,2.249,2.2611,2.2789,2.2652,2.2429,2.2439,2.2502,2.2554,2.2497,2.2599,2.2626,2.2828,2.2819,2.2756,2.2767,2.2507,2.2695,2.2766,2.2722,2.2806,2.2864,2.2648,2.256,2.2584,2.269,2.2893,2.3052,2.3042,2.279,2.2673,2.279,2.3187,2.2878,2.2958,2.2974,2.2962,2.2719,2.2843,2.28,2.2888,2.2927,2.3058,2.3008,2.3087,2.3401,2.3436,2.3154,2.3171,2.2951,2.2957,2.3083,2.3046,2.3033,2.3114,2.3028,2.3103,2.3386,2.3563,2.3526,2.3458,2.3336,2.3482,2.3755,2.3454,2.3408,2.3641,2.3949,2.4158,2.4267,2.4352,2.4086,2.3886,2.3783,2.3822,2.3767,2.382,2.3834,2.3472,2.333,2.3436,2.3314,2.3076,2.3056,2.3247,2.3238,2.3449,2.3545,2.3688,2.3508,2.3488,2.3369,2.3216,2.3483,2.4748,2.6143,2.8053,2.9565,2.9966,2.9745,2.7408,2.295,1.8581,1.8756,2.0472,2.1452,2.2409,2.3178,2.3609,2.3707,2.3954,2.3999,2.4403,2.4621,2.4285,2.403,2.3981,2.4124,2.4236,2.4428,2.444,2.4568,2.4433,2.4457,2.4465,2.4679,2.4647,2.4474,2.4667,2.502,2.527,2.5047,2.4778,2.4717,2.4779,2.4872,2.5022,2.5027,2.5142,2.5278,2.5675,2.5813,2.569,2.5748,2.5942,2.6021,2.5888,2.6333,2.6598,2.7154,2.7229,2.7032,2.6938,2.6935,2.7227,2.7445,2.7707,2.801,2.8279,2.8406,2.8621,2.8772,2.8794,2.8966,2.8798,2.8852,2.9091,2.8839,2.8721,2.8526,2.837,2.8144,2.7825,2.7478,2.724,2.6862,2.6126,2.59,2.5662,2.5483,2.5162,2.4887,2.4769,2.4788,2.4333,2.3995,2.3959,2.3834,2.3834,2.3774,2.4079,2.3995,2.3626,2.3596,2.3814,2.3995,2.401,2.3835,2.3852,2.3766,2.3786,2.3918,2.3995,2.3814,2.3771,2.3798,2.4025,2.3912,2.3881,2.3711,2.3778,2.4176,2.4244,2.4331,2.4131,2.3965,2.3842,2.3763,2.3743,2.4106,2.4113,2.4338,2.4185,2.4124,2.4222,2.4033,2.3795,2.3889,2.404,2.4104,2.398,2.4008,2.4169,2.3907,2.3818,2.377,2.3912,2.4069,2.4186,2.4193,2.4177,2.4143,2.4047,2.3922,2.3946,2.416,2.4195,2.3962,2.3906,2.397,2.4183,2.4044,2.3952
