-3.7936,-3.7948,-3.7756,-3.7558,-3.7451,-3.7241,-3.7235,-3.7116,-3.6935,-3.6864,-3.6802,-3.6872,-3.6908,-3.6862,-3.7165,-3.7584,-3.8021,-3.8463,-3.8819,-3.9386,-3.9843,-4.0356,-4.0882,-4.1029,-4.1241,-4.1537,-4.1818,-4.208,-4.2188,-4.2255,-4.2225,-4.2431,-4.2496,-4.2382,-4.2414,-4.2505,-4.246,-4.2605,-4.2469,-4.2355,-4.2427,-4.2552,-4.248,-4.241,-4.2374,-4.2275,-4.2276,-4.2396,-4.247,-4.2298,-4.2293,-4.2296,-4.2388,-4.2425,-4.2264,-4.2208,-4.2209,-4.2397,-4.2381,-4.2269,-4.2185,-4.2295,-4.2396,-4.2462,-4.2386,-4.224,-4.2207,-4.2434,-4.2547,-4.2542,-4.2391,-4.2436,-4.2499,-4.2655,-4.263,-4.2473,-4.2519,-4.2654,-4.2696,-4.26,-4.2499,-4.2594,-4.2658,-4.2678,-4.2782,-4.2669,-4.2596,-4.2601,-4.2705,-4.2754,-4.2764,-4.2679,-4.2734,-4.2749,-4.2709,-4.2625,-4.2569,-4.273,-4.2744,-4.2857,-4.2759,-4.2685,-4.2686,-4.2744,-4.2808,-4.2816,-4.2645,-4.2627,-4.2797,-4.2809,-4.2752,-4.274,-4.272,-4.2716,-4.2913,-4.2834,-4.2731,-4.2723,-4.2723,-4.2829,-4.28,-4.2697,-4.2602,-4.2693,-4.2713,-4.2628,-4.2567,-4.2267,-4.212,-4.2228,-4.23,-4.228,-4.2123,-4.2148,-4.2244,-4.2386,-4.237,-4.242,-4.2684,-4.2967,-4.3005,-4.3041,-4.3057,-4.3023,-4.3044,-4.3046,-4.313,-4.2987,-4.3028,-4.3141,-4.3189,-4.3185,-4.3151,-4.2984,-4.2913,-4.1832,-4.0344,-3.889,-3.7145,-3.5041,-3.3439,-3.4991,-3.9185,-4.2473,-4.7419,-4.698,-4.5347,-4.4676,-4.349,-4.2618,-4.219,-4.2421,-4.2016,-4.2205,-4.2041,-4.2321,-4.2159,-4.2197,-4.1877,-4.2115,-4.1936,-4.2064,-4.1861,-4.2052,-4.1693,-4.1802,-4.1773,-4.1775,-4.1573,-4.1576,-4.1467,-4.148,-4.1385,-4.133,-4.1203,-4.1201,-4.115,-4.1064,-4.0822,-4.07,-4.0607,-4.0589,-4.0495,-4.0184,-4.0068,-3.9997,-3.9893,-3.9737,-3.9625,-3.9388,-3.9185,-3.9054,-3.8853,-3.8617,-3.8364,-3.8165,-3.815,-3.8004,-3.7768,-3.7487,-3.748,-3.7414,-3.73,-3.72,-3.7131,-3.7064,-3.704,-3.7275,-3.7588,-3.7786,-3.8174,-3.8578,-3.9241,-3.977,-4.021,-4.0673,-4.1073,-4.1572,-4.1876,-4.1945,-4.2251,-4.2395,-4.2638,-4.2743,-4.279,-4.2705,-4.2769,-4.2874,-4.2917,-4.2844,-4.2802,-4.2754,-4.2845,-4.2896,-4.2848,-4.277,-4.2817,-4.2778,-4.2796,-4.2721,-4.2674,-4.2653,-4.275,-4.2748,-4.2743,-4.2656,-4.2581,-4.2548,-4.2643,-4.2616,-4.2605,-4.2511,-4.2631,-4.2671,-4.2706,-4.2552,-4.2591,-4.2542,-4.2763,-4.2762,-4.2722,-4.2621,-4.2727,-4.2768,-4.2795,-4.2841,-4.2823,-4.278,-4.2889,-4.2987,-4.2938,-4.2829,-4.2808,-4.2994,-4.3068,-4.291,-4.2865,-4.2882,-4.2953,-4.3006,-4.2954,-4.2976,-4.2874,-4.2987,-4.3069,-4.3028,-4.2975,-4.296,-4.2885,-4.3024,-4.2995,-4.3005,-4.2891,-4.294,-4.3062,-4.3125,-4.3066,-4.3045,-4.3054,-4.3064,-4.3034,-4.2936,-4.2906,-4.2971,-4.3028,-4.308,-4.304,-4.2961,-4.2955,-4.2998,-4.3141,-4.312,-4.2924,-4.3072,-4.3146,-4.3154,-4.3089,-4.3029,-4.3099,-4.3312,-4.3102,-4.298,-4.2969,-4.3053,-4.3048,-4.3185,-4.3147,-4.3022,-4.2928,-4.2984,-4.3088,-4.2961,-4.2917,-4.2754,-4.2717,-4.2896,-4.2881,-4.2626,-4.2477,-4.2403,-4.2336,-4.2351,-4.226,-4.2173,-4.222,-4.2241,-4.2381,-4.2351,-4.2394,-4.2381,-4.2556,-4.3011,-4.2929,-4.2905,-4.2943,-4.2932,-4.3055,-4.3011,-4.2873,-4.2942,-4.2992,-4.3042,-4.3062,-4.2978,-4.2935,-4.2949,-4.2783,-4.1908,-4.0331,-3.8752,-3.7231,-3.503,-3.291,-3.3303,-3.7015,-4.3197,-4.7268,-4.625,-4.4801,-4.4125,-4.2895,-4.2295,-4.2202,-4.2011,-4.1961,-4.2087,-4.2165,-4.2239,-4.2076,-4.1997,-4.1939,-4.1945,-4.1992,-4.1931,-4.1784,-4.1761,-4.1786,-4.179,-4.174,-4.1613,-4.1478,-4.1643,-4.1529,-4.1408,-4.1322,-4.1297,-4.1208,-4.1321,-4.1277,-4.1095,-4.0967,-4.0863,-4.0953,-4.0783,-4.0522,-4.0328,-4.0233,-4.0202,-3.9996,-3.9831,-3.9711,-3.9528,-3.9434,-3.9281,-3.9119,-3.89,-3.8661,-3.8593,-3.844,-3.8271,-3.8114,-3.7935,-3.7855,-3.7836,-3.7641,-3.7455,-3.7336,-3.736,-3.746,-3.7607,-3.7644,-3.7868,-3.8316,-3.8973,-3.9156,-3.9538,-3.9983,-4.0506,-4.1024,-4.1419,-4.1657,-4.1996,-4.2245,-4.2498,-4.2709,-4.2806,-4.2865,-4.287,-4.3046,-4.3034,-4.3096,-4.3035,-4.3079,-4.3191,-4.3202,-4.2969,-4.2838,-4.2813,-4.2884,-4.3042,-4.3011,-4.282,-4.2786,-4.2755,-4.2848,-4.2833,-4.2842,-4.2697,-4.2714,-4.2795,-4.2766,-4.2622,-4.2629,-4.2611,-4.2712,-4.2665,-4.265,-4.2589,-4.2621,-4.2714,-4.2763,-4.2608,-4.2569,-4.2541,-4.2706,-4.2753,-4.2753,-4.268,-4.2648,-4.2799,-4.2854,-4.2791,-4.2728,-4.278,-4.2864,-4.2963,-4.2932,-4.2797,-4.2848,-4.3081,-4.2916,-4.2793,-4.2784,-4.2753,-4.2845,-4.2858,-4.2847,-4.2678,-4.268,-4.2846,-4.2996,-4.293,-4.2758,-4.2705,-4.2783,-4.2833,-4.2897,-4.281,-4.2804,-4.2805,-4.2895,-4.282,-4.2801,-4.2762,-4.2808,-4.2819,-4.2936,-4.2816,-4.2783,-4.2681,-4.2769,-4.2801,-4.276,-4.2694,-4.2684,-4.2695,-4.282,-4.2784,-4.2685,-4.2652,-4.2665,-4.2721,-4.2669,-4.2646,-4.2572,-4.2708,-4.2761,-4.2841,-4.2675,-4.2565,-4.2694,-4.2812,-4.2833,-4.2643,-4.2538,-4.2555,-4.2629,-4.2662,-4.2507,-4.2447,-4.2502,-4.2471,-4.2474,-4.2358,-4.2032,-4.1885,-4.1985,-4.2034,-4.1892,-4.1824,-4.1853,-4.2051,-4.2154,-4.2138,-4.2123,-4.2192,-4.243,-4.2684,-4.2738,-4.2717,-4.2634,-4.2626,-4.2705,-4.2757,-4.2593,-4.2622,-4.2685,-4.2823,-4.2786,-4.2646,-4.2505,-4.2036,-4.0742,-3.9302,-3.773,-3.6773,-3.45,-3.2427,-3.32,-3.7091,-4.3246,-4.689,-4.5837,-4.4724,-4.3797,-4.2349,-4.1881,-4.1818,-4.1727,-4.1654,-4.1676,-4.1764,-4.1779,-4.1779,-4.1674,-4.1544,-4.154,-4.151,-4.1612,-4.1568,-4.1377,-4.1294,-4.1307,-4.1369,-4.1277,-4.1141,-4.1144,-4.1079,-4.11,-4.095,-4.0956,-4.0784,-4.0762,-4.0739,-4.0632,-4.0511,-4.0449,-4.0317,-4.0235,-4.0214,-4.0027,-3.9826,-3.972,-3.9698,-3.9516,-3.9343,-3.9087,-3.8849,-3.8763,-3.861,-3.8412,-3.8104,-3.7908,-3.7722,-3.7607,-3.7513,-3.7351,-3.7147,-3.7044,-3.6977,-3.6915,-3.6726,-3.661,-3.6588,-3.6739,-3.6965,-3.7148,-3.7514,-3.7988,-3.8475,-3.8943,-3.9332,-3.9767,-4.018,-4.0636,-4.0829,-4.1064,-4.1247,-4.1375,-4.1646,-4.1743,-4.1776,-4.1802,-4.183,-4.1952,-4.2052,-4.2032,-4.1975,-4.1886,-4.1991,-4.1979,-4.1968,-4.1817,-4.1877,-4.1957,-4.203,-4.1974,-4.1862,-4.1737,-4.1778,-4.1832,-4.1832,-4.1734,-4.167,-4.1677,-4.1761,-4.1802,-4.1666,-4.1571,-4.1659,-4.1736,-4.177,-4.1601,-4.1568,-4.1613,-4.1658,-4.1705,-4.1664,-4.154,-4.1623,-4.1748,-4.18,-4.1752,-4.17,-4.1728,-4.1855,-4.1909,-4.1905,-4.1774,-4.1864,-4.1986,-4.1991,-4.2003,-4.1881,-4.192,-4.1906,-4.2066,-4.206,-4.1845,-4.1816,-4.1882,-4.1945,-4.2028,-4.1871,-4.1931,-4.186,-4.1941,-4.1981,-4.191,-4.1816,-4.1848,-4.1944,-4.1975,-4.1861,-4.1833,-4.1804,-4.1797,-4.1989,-4.1959,-4.1911,-4.1775,-4.1841,-4.201,-4.1958,-4.1912,-4.1887,-4.1995,-4.1957,-4.192,-4.1787,-4.1891,-4.1884,-4.1992,-4.1976,-4.1845,-4.1823,-4.1859,-4.2002,-4.1998,-4.2023,-4.1926,-4.1915,-4.195,-4.1997,-4.1922,-4.1822,-4.193,-4.2066,-4.2168,-4.1961,-4.1953,-4.1963,-4.1993,-4.2081,-4.1933,-4.1881,-4.1884,-4.1969,-4.1941,-4.1916,-4.1758,-4.1679,-4.1553,-4.1319,-4.1433,-4.135,-4.1325,-4.1408,-4.1403,-4.1442,-4.1453,-4.1449,-4.1596,-4.1848,-4.2135,-4.2128,-4.2033,-4.207,-4.2243,-4.2279,-4.2197,-4.224,-4.2229,-4.2263,-4.2346,-4.2274,-4.2237,-4.2253,-4.232,-4.2024,-4.0792,-3.933,-3.7834,-3.6021,-3.3692,-3.188,-3.1872,-3.5087,-4.092,-4.6339,-4.6017,-4.4349,-4.3881,-4.2571,-4.1823,-4.1642,-4.1412,-4.141,-4.1592,-4.1642,-4.1706,-4.1373,-4.1386,-4.1382,-4.1533,-4.1297,-4.1269,-4.1183,-4.1295,-4.1251,-4.1301,-4.123,-4.1131,-4.109,-4.1127,-4.1136,-4.1083,-4.0949,-4.0788,-4.0847,-4.0817,-4.0705,-4.0523,-4.0327,-4.0469,-4.0404,-4.0377,-4.0228,-4.0069,-3.9967,-3.9872,-3.9829,-3.9574,-3.9357,-3.9167,-3.9145,-3.8949,-3.8632,-3.8498,-3.8365,-3.8333,-3.8092,-3.7845,-3.7665,-3.7558,-3.7645,-3.7597,-3.7325,-3.7092,-3.7039,-3.7007,-3.7041,-3.7064,-3.7126,-3.7323,-3.7806,-3.8196,-3.8663,-3.9094,-3.9525,-4.0052,-4.052,-4.0921,-4.1213,-4.1426,-4.1757,-4.1858,-4.2125,-4.2169,-4.2315,-4.2423,-4.2556,-4.256,-4.2497,-4.2479,-4.2554,-4.2618,-4.26,-4.2437,-4.2426,-4.2493,-4.2597,-4.2616,-4.2448,-4.2461,-4.2457,-4.2424,-4.2486,-4.2407,-4.2338,-4.2308,-4.2379,-4.2472,-4.2281,-4.2175,-4.2214,-4.2326,-4.2389,-4.2318,-4.223,-4.2187,-4.2399,-4.2383,-4.2356,-4.2212,-4.2363,-4.2389,-4.2528,-4.2476,-4.2523,-4.2389,-4.2445,-4.2594,-4.2594,-4.2486,-4.2447,-4.2476,-4.2641,-4.2687,-4.265,-4.2604,-4.2613,-4.2654,-4.2617,-4.2727,-4.2586,-4.2632,-4.2707,-4.2836,-4.2643,-4.2571,-4.2576,-4.275,-4.2709,-4.2718,-4.273,-4.2678,-4.2736,-4.2844,-4.2741,-4.2651,-4.2668,-4.2809,-4.2845,-4.2833,-4.2787,-4.2778,-4.2793,-4.293,-4.2901,-4.2741,-4.2703,-4.2738,-4.2828,-4.2936,-4.2765,-4.2743,-4.2786,-4.2857,-4.291,-4.2786,-4.2829,-4.2784,-4.2868,-4.2865,-4.2839,-4.2882,-4.2759,-4.2719,-4.2793,-4.2769,-4.2735,-4.2717,-4.2693,-4.2754,-4.2592,-4.2157,-4.2189,-4.2114,-4.2304,-4.2205,-4.2125,-4.2215,-4.2262,-4.2403,-4.241,-4.2496,-4.2513,-4.2788,-4.2914,-4.3118,-4.3042,-4.3011,-4.3015,-4.3069,-4.3015,-4.3004,-4.3009,-4.3115,-4.3099,-4.3166,-4.3098,-4.2965,-4.2338,-4.1117,-3.9652,-3.8854,-3.7192,-3.4966,-3.34,-3.5042,-3.8933,-4.5139,-4.7652,-4.6065,-4.5161,-4.4125,-4.3212,-4.2343,-4.2237,-4.2267,-4.2325,-4.2131,-4.216,-4.2044,-4.2231,-4.2091,-4.2086,-4.1969,-4.209,-4.2113,-4.2106,-4.1858,-4.1815,-4.1801,-4.1891,-4.1699,-4.1639,-4.1552,-4.1595,-4.1551,-4.1432,-4.1331,-4.1213,-4.117,-4.1081,-4.1064,-4.0859,-4.0722,-4.0664,-4.052,-4.0457,-4.0442,-4.0187,-4.0003,-4.0007,-3.9856,-3.9668,-3.941,-3.9219,-3.898,-3.8976,-3.8795,-3.8528,-3.8326,-3.8194,-3.8152,-3.8011,-3.7785,-3.7542,-3.7527,-3.7518,-3.7476,-3.7267,-3.7244,-3.7312,-3.7519,-3.7708,-3.794,-3.8383,-3.8788,-3.933,-3.9862,-4.0259,-4.0814,-4.111,-4.1471,-4.1661,-4.1847,-4.2004,-4.2206,-4.2441,-4.2565,-4.274,-4.2688,-4.2687,-4.283,-4.2884,-4.2867,-4.2751,-4.2627,-4.2722,-4.2775,-4.2782,-4.2662,-4.2652,-4.2667,-4.2692,-4.262,-4.2573,-4.2481,-4.2542,-4.2552,-4.2525,-4.2418,-4.2362,-4.2376,-4.2427,-4.255,-4.2443,-4.2451,-4.2418,-4.2437,-4.2431,-4.242,-4.239,-4.2424,-4.2498,-4.2606,-4.2628,-4.2446,-4.2453,-4.2578,-4.2655,-4.2713,-4.2634,-4.2639,-4.2737,-4.2763,-4.2823,-4.2733,-4.264,-4.2654,-4.2816,-4.284,-4.2743,-4.2705,-4.2717,-4.2786,-4.2795,-4.2736,-4.2742,-4.2872,-4.2859,-4.2872,-4.2803,-4.277,-4.2733,-4.2871,-4.2869,-4.2863,-4.2855,-4.2795,-4.2887,-4.2993,-4.2904,-4.2805,-4.2783,-4.2885,-4.2993,-4.2897,-4.2749,-4.283,-4.2822,-4.2965,-4.3026,-4.2833,-4.2813,-4.2835,-4.2895,-4.2976,-4.2947,-4.2881,-4.284,-4.293,-4.2887,-4.2855,-4.2821,-4.2869,-4.3003,-4.3033,-4.2984,-4.2838,-4.2758,-4.2946,-4.3031,-4.29,-4.2931,-4.2928,-4.2895,-4.2941,-4.2874,-4.2772,-4.2832,-4.2803,-4.2855,-4.2697,-4.2668,-4.2634,-4.2464,-4.2265,-4.2351,-4.2304,-4.2207,-4.215,-4.2276,-4.2441,-4.236,-4.2407,-4.2459,-4.2625,-4.2895,-4.2927,-4.2927,-4.2891,-4.3029,-4.3097,-4.3053,-4.3031,-4.2996,-4.3039,-4.3117,-4.3055,-4.3006,-4.3086,-4.3022,-4.2881,-4.1888,-4.0255,-3.8622,-3.7166,-3.4958,-3.2828,-3.3478,-3.7321,-4.3463,-4.7313,-4.6852,-4.5336,-4.4464,-4.3543,-4.2604,-4.237,-4.2086,-4.2034,-4.2141,-4.2223,-4.2198,-4.21,-4.2022,-4.1956,-4.1962,-4.2033,-4.1865,-4.171,-4.1809,-4.1899,-4.1858,-4.171,-4.1629,-4.1612,-4.1639,-4.1635,-4.1482,-4.1353,-4.1302,-4.1435,-4.1376,-4.1138,-4.0969,-4.0895,-4.093,-4.0888,-4.0699,-4.049,-4.0404,-4.0339,-4.0328,-4.0178,-3.9971,-3.9748,-3.9636,-3.9563,-3.9413,-3.9134,-3.8856,-3.8706,-3.8659,-3.8464,-3.8294,-3.794,-3.7795,-3.7874,-3.7771,-3.7507,-3.7396,-3.7354,-3.7301,-3.7316,-3.7295,-3.7347,-3.752,-3.7893,-3.8349,-3.8832,-3.9205,-3.9648,-4.0199,-4.0764,-4.1056,-4.1318,-4.1563,-4.1825,-4.22,-4.2297,-4.2335,-4.2382,-4.2432,-4.2687,-4.2678,-4.2669,-4.263,-4.2791,-4.2717,-4.2789,-4.2679,-4.2564,-4.2571,-4.2627,-4.2656,-4.2647,-4.2528,-4.2449,-4.2481,-4.2461,-4.2427,-4.2378,-4.24,-4.2339,-4.2484,-4.2445,-4.2338,-4.2259,-4.2327,-4.2387,-4.2365,-4.2217,-4.2283,-4.2335,-4.2354,-4.2319,-4.2234,-4.2273,-4.236,-4.2435,-4.2471,-4.2376,-4.2356,-4.246,-4.2532,-4.253,-4.2492,-4.2487,-4.2516,-4.2552,-4.2612,-4.2513,-4.2454,-4.2524,-4.2649,-4.2691,-4.2565,-4.2497,-4.2477,-4.2666,-4.2642,-4.2585,-4.2581,-4.2524,-4.2544,-4.262,-4.2594,-4.2488,-4.2534,-4.2575,-4.2737,-4.265,-4.2528,-4.2469,-4.2531,-4.2662,-4.2632,-4.2537,-4.2548,-4.2582,-4.2657,-4.2634,-4.2563,-4.2532,-4.2527,-4.2523,-4.2641,-4.2571,-4.2413,-4.2459,-4.264,-4.2633,-4.2569,-4.2491,-4.2506,-4.2624,-4.2646,-4.2391,-4.2322,-4.2329,-4.2664,-4.2601,-4.2366,-4.2288,-4.2261,-4.2285,-4.2354,-4.2283,-4.2175,-4.2188,-4.2227,-4.2361,-4.2313,-4.2216,-4.2157,-4.2183,-4.2263,-4.2147,-4.204,-4.2121,-4.2088,-4.2165,-4.2117,-4.2128,-4.2015,-4.1834,-4.1835,-4.1794,-4.1478,-4.15,-4.1507,-4.1587,-4.1481,-4.14,-4.1364,-4.1602,-4.1759,-4.1885,-4.1848,-4.2037,-4.2183,-4.2247,-4.2363,-4.2336,-4.2246,-4.223,-4.2301,-4.2376,-4.2383,-4.2111,-4.2231,-4.2247,-4.2417,-4.2426,-4.2049,-4.1082,-3.9623,-3.8106,-3.6344,-3.4004,-3.1664,-3.2268,-3.628,-3.9218,-4.5087,-4.5931,-4.4379,-4.3983,-4.2537,-4.1784,-4.1288,-4.1376,-4.134,-4.1607,-4.1318,-4.1487,-4.124,-4.1411,-4.1236,-4.1348,-4.1035,-4.122,-4.1012,-4.1133,-4.0932,-4.0993,-4.0798,-4.0947,-4.0894,-4.0979,-4.0764,-4.0742,-4.0666,-4.0749,-4.067,-4.0506,-4.0346,-4.0435,-4.0323,-4.0207,-4.0031,-3.986,-3.9744,-3.9756,-3.9669,-3.953,-3.9317,-3.9165,-3.9025,-3.8958,-3.8749,-3.8469,-3.8267,-3.8243,-3.8122,-3.7779,-3.7478,-3.7364,-3.7273,-3.7174,-3.7075,-3.6878,-3.6717,-3.6649,-3.6726,-3.6601,-3.6583,-3.6415,-3.6558,-3.6866,-3.7207,-3.7477,-3.7926,-3.846,-3.8958,-3.9436,-3.9821,-4.0149,-4.06,-4.0926,-4.1196,-4.1226,-4.1427,-4.1478,-4.1719,-4.1753,-4.1855,-4.1775,-4.1971,-4.2013,-4.2007,-4.1845,-4.1865,-4.1813,-4.1855,-4.1929,-4.2004,-4.174,-4.177,-4.1829,-4.1868,-4.1882,-4.1805,-4.1655,-4.1726,-4.1726,-4.1726,-4.1718,-4.1732,-4.1662,-4.1772,-4.1748,-4.1698,-4.1677,-4.1685,-4.1713,-4.1818,-4.1763,-4.1763,-4.1666,-4.1814,-4.1881,-4.1805,-4.1762,-4.1755,-4.176,-4.1935,-4.1897,-4.1845,-4.19,-4.1979,-4.2023,-4.1914,-4.1836,-4.1911,-4.1976,-4.2017,-4.1956,-4.1899,-4.198,-4.2001,-4.1995,-4.1944,-4.1915,-4.1852,-4.1946,-4.2057,-4.2042,-4.1989,-4.196,-4.1914,-4.2029,-4.2046,-4.1924,-4.1913,-4.197,-4.2023,-4.2027,-4.1891,-4.1825,-4.1944,-4.2038,-4.2053,-4.2034,-4.1938,-4.1941,-4.1902,-4.1978,-4.1946,-4.191,-4.1946,-4.1985,-4.1925,-4.196,-4.1799,-4.1763,-4.1927,-4.1979,-4.1882,-4.1873,-4.1862,-4.1907,-4.1985,-4.2004,-4.1936,-4.1827,-4.1801,-4.1917,-4.1956,-4.1847,-4.1788,-4.1792,-4.1881,-4.187,-4.186,-4.1718,-4.1766,-4.187,-4.1844,-4.1784,-4.1683,-4.1696,-4.1791,-4.1835,-4.1737,-4.1579,-4.1555,-4.1662,-4.1644,-4.1538,-4.1346,-4.1278,-4.113,-4.1111,-4.1146,-4.095,-4.0805,-4.0938,-4.1011,-4.1124,-4.1125,-4.1145,-4.1241,-4.1573,-4.1623,-4.1588,-4.1686,-4.1675,-4.1703,-4.1916,-4.1872,-4.1749,-4.1772,-4.1866,-4.1934,-4.1809,-4.1676,-4.1655,-4.178,-4.1069,-3.9503,-3.7824,-3.6351,-3.4324,-3.3148,-3.1493,-3.3055,-3.7738,-4.3765,-4.6,-4.4432,-4.3581,-4.2512,-4.1545,-4.1093,-4.1058,-4.0711,-4.0892,-4.082,-4.1148,-4.0954,-4.0901,-4.0755,-4.0825,-4.0711,-4.0876,-4.0652,-4.071,-4.0516,-4.0747,-4.0573,-4.0552,-4.0397,-4.0434,-4.048,-4.045,-4.0318,-4.0257,-4.0178,-4.0224,-4.0118,-3.9962,-3.9762,-3.9781,-3.9761,-3.9697,-3.9488,-3.9419,-3.9198,-3.914,-3.9225,-3.9073,-3.8688,-3.8677,-3.8568,-3.8569,-3.8247,-3.7922,-3.7818,-3.7558,-3.7511,-3.7254,-3.7125,-3.6962,-3.7003,-3.6998,-3.6783,-3.6631,-3.6543,-3.6461,-3.6529,-3.6624,-3.6572,-3.6567,-3.695,-3.7282,-3.7822,-3.8171,-3.8533,-3.8924,-3.9612,-3.999,-4.0338,-4.0631,-4.0836,-4.1002,-4.1337,-4.1503,-4.1537,-4.1437,-4.1632,-4.1651,-4.1707,-4.1645,-4.1722,-4.1691,-4.1829,-4.1722,-4.16,-4.1498,-4.1571,-4.169,-4.1664,-4.1683,-4.1673,-4.1464,-4.1591,-4.1514,-4.1392,-4.1389,-4.1482,-4.1545,-4.1582,-4.1463,-4.1384,-4.13,-4.1465,-4.1432,-4.1434,-4.1415,-4.141,-4.1402,-4.1602,-4.1581,-4.1474,-4.1463,-4.1524,-4.1575,-4.1594,-4.1552,-4.1533,-4.1606,-4.1787,-4.1643,-4.1694,-4.1619,-4.1638,-4.1806,-4.1849,-4.1751,-4.1705,-4.1789,-4.1816,-4.1734,-4.1764,-4.1727,-4.1786,-4.1866,-4.1832,-4.159,-4.1635,-4.1683,-4.1786,-4.1876,-4.1652,-4.1668,-4.1455,-4.162,-4.1919,-4.1894,-4.1715,-4.1513,-4.1429,-4.177,-4.1994,-4.2003,-4.178,-4.1633,-4.1555,-4.1567,-4.178,-4.1752,-4.1788,-4.1881,-4.1779,-4.1685,-4.1689,-4.1656,-4.1808,-4.1767,-4.1728,-4.1651,-4.1718,-4.1844,-4.1831,-4.19,-4.1795,-4.1904,-4.1883,-4.1959,-4.2024,-4.1958,-4.1855,-4.2043,-4.1978,-4.2138,-4.1935,-4.1988,-4.2154,-4.1971,-4.1966,-4.1831,-4.1705,-4.1959,-4.2078,-4.1564,-4.1236,-4.1649,-4.1711,-4.1692,-4.1501,-4.1477,-4.1594,-4.15,-4.1742,-4.1926,-4.2083,-4.2156,-4.2226,-4.2336,-4.2497,-4.2335,-4.228,-4.2285,-4.2228,-4.2281,-4.2555,-4.231,-4.2184,-4.2522,-4.2552,-4.242,-4.1756,-4.0735,-3.9211,-3.7904,-3.5887,-3.3534,-3.2622,-3.5163,-4.017,-4.6099,-4.6535,-4.4839,-4.4507,-4.3615,-4.2928,-4.1816,-4.1595,-4.1558,-4.1642,-4.1642,-4.1526,-4.153,-4.1487,-4.1502,-4.1626,-4.1367,-4.134,-4.134,-4.1382,-4.1383,-4.1145,-4.1027,-4.1134,-4.1102,-4.1164,-4.1028,-4.0876,-4.0701,-4.0673,-4.0826,-4.0679,-4.0498,-4.0453,-4.0423,-4.0329,-4.0152,-3.9896,-3.9847,-3.9764,-3.9807,-3.9619,-3.9355,-3.9417,-3.9243,-3.9101,-3.9032,-3.866,-3.8482,-3.8353,-3.8188,-3.8072,-3.7849,-3.7531,-3.7491,-3.742,-3.7302,-3.6974,-3.6772,-3.6868,-3.6736,-3.6749,-3.6721,-3.6668,-3.6645,-3.686,-3.725,-3.7522,-3.7858,-3.827,-3.8807,-3.9501,-3.9803,-4.0113,-4.0473,-4.0933,-4.1337,-4.1395,-4.1487,-4.1618,-4.1842,-4.2031,-4.2027,-4.2004,-4.1991,-4.1968,-4.2113,-4.2182,-4.1988,-4.1949,-4.2076,-4.2119,-4.2104,-4.1995,-4.1921,-4.1932,-4.1964,-4.2012,-4.1912,-4.1778,-4.1726,-4.1894,-4.1898,-4.1797,-4.1822,-4.1713,-4.1709,-4.1886,-4.187,-4.1794,-4.1697,-4.1806,-4.1828,-4.1807,-4.1796,-4.176,-4.1858,-4.1894,-4.1939,-4.1817,-4.178,-4.1845,-4.2066,-4.2116,-4.1963,-4.1902,-4.19,-4.2035,-4.2084,-4.2081,-4.198,-4.2083,-4.2094,-4.2104,-4.2036,-4.2074,-4.2029,-4.2054,-4.2142,-4.2108,-4.2041,-4.2049,-4.206,-4.2066,-4.204,-4.1955,-4.1945,-4.2043,-4.2134,-4.211,-4.1928,-4.1999,-4.2059,-4.2103,-4.219,-4.1966,-4.1921,-4.2026,-4.21,-4.2019,-4.1964,-4.1967,-4.1998,-4.201,-4.1994,-4.1964,-4.1976,-4.1895,-4.1967,-4.2129,-4.1973,-4.1841,-4.1877,-4.2,-4.1971,-4.1883,-4.1872,-4.1821,-4.1935,-4.1955,-4.1908,-4.1821,-4.1815,-4.175,-4.1823,-4.1869,-4.1669,-4.1554,-4.159,-4.1496,-4.1242,-4.1171,-4.109,-4.115,-4.1202,-4.1141,-4.1202,-4.1237,-4.1298,-4.1406,-4.1569,-4.1709,-4.1846,-4.1886,-4.19,-4.1977,-4.1882,-4.1808,-4.1935,-4.2024,-4.201,-4.199,-4.1947,-4.185,-4.1925,-4.1942,-4.153,-4.0201,-3.8783,-3.74,-3.5578,-3.3331,-3.169,-3.3736,-3.5603,-4.1287,-4.6285,-4.5245,-4.4062,-4.3214,-4.2277,-4.134,-4.1081,-4.0862,-4.1034,-4.1051,-4.1101,-4.0992,-4.0959,-4.0985,-4.0974,-4.0833,-4.0781,-4.0727,-4.0829,-4.0757,-4.0925,-4.079,-4.0636,-4.0671,-4.0683,-4.0572,-4.0515,-4.0375,-4.0337,-4.0369,-4.0416,-4.0259,-4.0176,-4.0026,-4.0055,-3.9969,-3.9754,-3.9583,-3.9529,-3.9482,-3.945,-3.9337,-3.9236,-3.8972,-3.8766,-3.8751,-3.8591,-3.8319,-3.8098,-3.7858,-3.7728,-3.7592,-3.7306,-3.7172,-3.6949,-3.6896,-3.6721,-3.6585,-3.6494,-3.6377,-3.6358,-3.6455,-3.6314,-3.6211,-3.637,-3.671,-3.716,-3.7544,-3.7895,-3.8359,-3.8889,-3.946,-3.9812,-4.0144,-4.0385,-4.0702,-4.1099,-4.1125,-4.1145,-4.1317,-4.1395,-4.1545,-4.1658,-4.1732,-4.1659,-4.1695,-4.1805,-4.1712,-4.1486,-4.1545,-4.1547,-4.1599,-4.1603,-4.1517,-4.1407,-4.1508,-4.1398,-4.1476,-4.143,-4.1381,-4.1409,-4.1354,-4.1384,-4.1461,-4.1298,-4.1271,-4.133,-4.1369,-4.1336,-4.1279,-4.1285,-4.1345,-4.1386,-4.1441,-4.1441,-4.134,-4.1333,-4.1414,-4.143,-4.1402,-4.1388,-4.1362,-4.1405,-4.1498,-4.1412,-4.1402,-4.1391,-4.1498,-4.1597,-4.1456,-4.1446,-4.1487,-4.1578,-4.1587,-4.1534,-4.1516,-4.1432,-4.1562,-4.1554,-4.1507,-4.1446,-4.1336,-4.1457,-4.1497,-4.1501,-4.1407,-4.142,-4.1401,-4.1466,-4.1465,-4.1383,-4.143,-4.1449,-4.1533,-4.147,-4.145,-4.141,-4.1412,-4.1466,-4.1516,-4.1468,-4.1386,-4.1514,-4.1496,-4.1518,-4.1385,-4.1373,-4.1371,-4.1505,-4.1554,-4.1478,-4.1352,-4.1476,-4.1572,-4.1576,-4.1472,-4.1428,-4.1452,-4.1536,-4.1588,-4.1526,-4.142,-4.1376,-4.1447,-4.1509,-4.1535,-4.1413,-4.1385,-4.1414,-4.1547,-4.1568,-4.1383,-4.1438,-4.1506,-4.1494,-4.1472,-4.1303,-4.1294,-4.1323,-4.1361,-4.1343,-4.1168,-4.1077,-4.0795,-4.085,-4.0896,-4.0807,-4.0703,-4.0759,-4.0866,-4.0984,-4.0967,-4.0973,-4.1053,-4.1331,-4.1562,-4.1528,-4.1547,-4.148,-4.1461,-4.1548,-4.1585,-4.1521,-4.1516,-4.156,-4.1669,-4.1599,-4.1494,-4.1494,-4.1266,-4.0288,-3.8848,-3.7285,-3.5252,-3.2944,-3.0995,-3.2144,-3.6358,-4.2605,-4.5191,-4.4922,-4.3826,-4.2999,-4.1804,-4.0736,-4.0863,-4.0567,-4.0757,-4.0549,-4.0595,-4.0644,-4.0689,-4.043,-4.0446,-4.034,-4.0519,-4.0437,-4.0352,-4.0113,-4.0203,-4.0116,-4.0267,-4.02,-4.0095,-3.9891,-3.9927,-3.9934,-3.9939,-3.9752,-3.9721,-3.9611,-3.9642,-3.9612,-3.9378,-3.9126,-3.9159,-3.912,-3.9027,-3.8711,-3.8655,-3.8586,-3.8571,-3.8431,-3.8197,-3.7986,-3.7874,-3.7734,-3.7465,-3.7306,-3.7,-3.6828,-3.6705,-3.6704,-3.6475,-3.6165,-3.6049,-3.6052,-3.6011,-3.5918,-3.5902,-3.566,-3.5627,-3.57,-3.5893,-3.6142,-3.6224,-3.6649,-3.7168,-3.7771,-3.8142,-3.8518,-3.8917,-3.9495,-3.9773,-3.9958,-4.01,-4.0461,-4.0719,-4.0967,-4.0999,-4.0849,-4.0821,-4.1076,-4.1053,-4.1146,-4.0994,-4.0982,-4.0993,-4.1057,-4.1007,-4.0899,-4.0828,-4.0923,-4.1055,-4.0933,-4.0763,-4.0772,-4.0866,-4.093,-4.0925,-4.0845,-4.0734,-4.0667,-4.0744,-4.0838,-4.0661,-4.0675,-4.069,-4.0758,-4.0778,-4.0716,-4.0675,-4.0691,-4.0801,-4.0868,-4.0736,-4.0707,-4.0703,-4.0846,-4.088,-4.0833,-4.0851,-4.0808,-4.0844,-4.0957,-4.0958,-4.0918,-4.0952,-4.1026,-4.1022,-4.0943,-4.0908,-4.0903,-4.0956,-4.1044,-4.1002,-4.0917,-4.0884,-4.0953,-4.101,-4.1002,-4.0942,-4.0859,-4.0942,-4.0971,-4.1,-4.0913,-4.0916,-4.1001,-4.105,-4.1028,-4.0928,-4.0891,-4.0853,-4.104,-4.1086,-4.0921,-4.0804,-4.0943,-4.0933,-4.0957,-4.0938,-4.0854,-4.0809,-4.0845,-4.1017,-4.093,-4.0835,-4.0882,-4.0921,-4.09,-4.0913,-4.0835,-4.0873,-4.0945,-4.1009,-4.0854,-4.0847,-4.0907,-4.0883,-4.0862,-4.0926,-4.0785,-4.0802,-4.0873,-4.0906,-4.0899,-4.0787,-4.0796,-4.0877,-4.0911,-4.0853,-4.0784,-4.0793,-4.0744,-4.0853,-4.0915,-4.0808,-4.0661,-4.0614,-4.0746,-4.0769,-4.0715,-4.0612,-4.0436,-4.0489,-4.0492,-4.0252,-4.0039,-3.9968,-4.0033,-4.0122,-4.0082,-3.9993,-4.0023,-4.0148,-4.0266,-4.0368,-4.0412,-4.0523,-4.0626,-4.0776,-4.0867,-4.0783,-4.0743,-4.0765,-4.0793,-4.0831,-4.0789,-4.0788,-4.0675,-4.0817,-4.0839,-4.0744,-4.0053,-3.8673,-3.7231,-3.5672,-3.3348,-3.2014,-2.976,-3.0758,-3.5323,-4.1557,-4.4008,-4.2918,-4.2375,-4.1242,-4.0247,-3.9808,-3.9766,-3.9658,-3.9954,-3.9851,-3.9855,-3.9628,-3.9839,-3.9748,-3.9777,-3.9502,-3.9609,-3.9434,-3.9582,-3.9506,-3.9466,-3.9173,-3.9298,-3.9321,-3.9394,-3.9065,-3.9009,-3.8986,-3.9026,-3.8946,-3.8945,-3.861,-3.8577,-3.8619,-3.8566,-3.8382,-3.8239,-3.8142,-3.8026,-3.8021,-3.7875,-3.7599,-3.7432,-3.7362,-3.7207,-3.7039,-3.6698,-3.6546,-3.6453,-3.6314,-3.612,-3.5791,-3.5618,-3.5535,-3.5389,-3.5309,-3.5169,-3.5074,-3.4824,-3.4811,-3.4685,-3.4758,-3.4623,-3.4772,-3.495,-3.5246,-3.5491,-3.5928,-3.6345,-3.6919,-3.7445,-3.7931,-3.8209,-3.8658,-3.8947,-3.9427,-3.9461,-3.9518,-3.9667,-3.9869,-4.0068,-4.0078,-4.008,-4.0151,-4.0225,-4.0342,-4.0347,-4.0235,-4.0172,-4.0156,-4.0207,-4.0311,-4.0236,-4.0162,-4.0131,-4.0268,-4.0255,-4.0195,-4.0032,-4.0088,-4.0198,-4.0225,-4.0129,-3.9936,-3.9973,-4.0088,-4.0194,-4.0113,-4.0058,-4.0023,-4.0142,-4.0138,-4.0127,-4.0134,-4.0178,-4.0169,-4.0268,-4.0192,-4.0186,-4.0221,-4.0256,-4.0472,-4.0404,-4.0304,-4.0296,-4.0382,-4.0523,-4.053,-4.0363,-4.049,-4.05,-4.0608,-4.0679,-4.0547,-4.0598,-4.0607,-4.0598,-4.0571,-4.0598,-4.054,-4.0644,-4.0643,-4.0633,-4.0664,-4.0591,-4.0625,-4.0628,-4.0746,-4.0705,-4.0632,-4.0682,-4.0696,-4.0827,-4.0878,-4.0726,-4.0796,-4.0803,-4.0814,-4.0854,-4.0649,-4.073,-4.0741,-4.0834,-4.0834,-4.0765,-4.0656,-4.0711,-4.0818,-4.0827,-4.0761,-4.0664,-4.0724,-4.0884,-4.082,-4.0785,-4.084,-4.08,-4.0765,-4.0866,-4.0725,-4.0904,-4.1013,-4.0965,-4.0879,-4.0842,-4.083,-4.0893,-4.1029,-4.0843,-4.0931,-4.0861,-4.0941,-4.0989,-4.1091,-4.1179,-4.1025,-4.1063,-4.0797,-4.1012,-4.1115,-4.1202,-4.0861,-4.0754,-4.0821,-4.08,-4.0501,-4.031,-4.0415,-4.0415,-4.0518,-4.0425,-4.0293,-4.0482,-4.0794,-4.0771,-4.0665,-4.0767,-4.1049,-4.1211,-4.1321,-4.1304,-4.1319,-4.1199,-4.1306,-4.1453,-4.1335,-4.1292,-4.1346,-4.1365,-4.1553,-4.1528,-4.1248,-4.0471,-3.9145,-3.7788,-3.6275,-3.5096,-3.2889,-3.142,-3.3383,-3.786,-4.4246,-4.5872,-4.4275,-4.3419,-4.2486,-4.123,-4.0427,-4.054,-4.0547,-4.0768,-4.061,-4.0509,-4.0458,-4.0567,-4.0486,-4.0532,-4.0412,-4.0417,-4.0193,-4.0288,-4.0353,-4.0159,-4.0113,-4.0087,-4.0177,-4.0089,-4.0007,-3.9809,-3.9834,-3.9955,-3.9936,-3.9594,-3.9479,-3.9433,-3.9411,-3.9422,-3.9228,-3.9092,-3.8988,-3.9015,-3.8849,-3.8698,-3.8456,-3.8302,-3.8331,-3.826,-3.7979,-3.7693,-3.7511,-3.7453,-3.74,-3.6996,-3.6787,-3.6651,-3.6591,-3.6538,-3.6283,-3.6164,-3.6096,-3.6134,-3.6059,-3.58,-3.5802,-3.5762,-3.5875,-3.6162,-3.6506,-3.6659,-3.6938,-3.7485,-3.8152,-3.8508,-3.8844,-3.9336,-3.9807,-4.0024,-4.0309,-4.054,-4.0525,-4.0841,-4.1061,-4.1192,-4.1278,-4.1364,-4.1151,-4.1309,-4.1364,-4.1337,-4.1222,-4.1153,-4.1162,-4.1373,-4.1267,-4.1194,-4.1152,-4.12,-4.1286,-4.1233,-4.1153,-4.1108,-4.1179,-4.1136,-4.1116,-4.086,-4.0964,-4.0993,-4.1151,-4.1207,-4.112,-4.0955,-4.0966,-4.1044,-4.113,-4.1195,-4.1103,-4.1012,-4.1167,-4.1294,-4.1259,-4.1123,-4.12,-4.1329,-4.1361,-4.1296,-4.1291,-4.1308,-4.1453,-4.1448,-4.1343,-4.1306,-4.1401,-4.1495,-4.1609,-4.155,-4.1442,-4.1441,-4.1516,-4.1582,-4.1582,-4.1334,-4.1477,-4.1506,-4.1619,-4.1503,-4.1452,-4.1481,-4.1507,-4.1566,-4.161,-4.1498,-4.153,-4.1661,-4.1683,-4.1591,-4.1579,-4.1589,-4.1576,-4.1609,-4.1632,-4.1729,-4.1535,-4.1494,-4.1516,-4.1694,-4.1747,-4.1679,-4.1635,-4.1661,-4.1618,-4.1678,-4.1577,-4.1582,-4.1589,-4.168,-4.1625,-4.1596,-4.1578,-4.1583,-4.155,-4.1544,-4.1334,-4.1267,-4.1263,-4.1055,-4.12,-4.1008,-4.0994,-4.105,-4.0984,-4.1103,-4.1033,-4.1053,-4.1159,-4.1471,-4.1708,-4.1607,-4.1608,-4.1733,-4.1794,-4.1881,-4.1847,-4.1821,-4.177,-4.1889,-4.194,-4.1935,-4.1799,-4.1756,-4.1812,-4.1712,-4.0842,-3.9433,-3.7844,-3.6379,-3.4263,-3.2321,-3.2105,-3.4611,-3.9271,-4.5664,-4.6157,-4.4348,-4.3707,-4.246,-4.1731,-4.1083,-4.107,-4.0837,-4.0928,-4.0943,-4.1001,-4.0913,-4.0906,-4.0776,-4.0785,-4.0738,-4.0734,-4.0504,-4.0538,-4.0468,-4.0597,-4.0511,-4.043,-4.0248,-4.0207,-4.028,-4.0142,-3.9994,-4.0002,-4.0061,-3.9928,-3.9775,-3.9641,-3.9534,-3.9533,-3.9467,-3.939,-3.9212,-3.9108,-3.9025,-3.8946,-3.8762,-3.8493,-3.8295,-3.8193,-3.8092,-3.8013,-3.7598,-3.7386,-3.7211,-3.7083,-3.6875,-3.6623,-3.6479,-3.6422,-3.6316,-3.6283,-3.6115,-3.5895,-3.584,-3.5814,-3.5787,-3.5891,-3.5925,-3.6139,-3.6509,-3.6829,-3.7387,-3.7975,-3.8369,-3.8955,-3.952,-3.9858,-4.0055,-4.0306,-4.0611,-4.0722,-4.0941,-4.0966,-4.104,-4.116,-4.1424,-4.1426,-4.1283,-4.1318,-4.1254,-4.1366,-4.1298,-4.1246,-4.1205,-4.1236,-4.1296,-4.1378,-4.1148,-4.1089,-4.1119,-4.1126,-4.1145,-4.1061,-4.0982,-4.0834,-4.0945,-4.1052,-4.0971,-4.0942,-4.1006,-4.0992,-4.1046,-4.1081,-4.0999,-4.0944,-4.1023,-4.1095,-4.1068,-4.0983,-4.1029,-4.106,-4.1201,-4.1242,-4.1171,-4.1054,-4.1105,-4.1145,-4.1362,-4.1175,-4.1241,-4.1196,-4.1219,-4.132,-4.126,-4.116,-4.1225,-4.13,-4.1288,-4.1208,-4.1182,-4.1219,-4.1279,-4.1341,-4.1254,-4.1191,-4.1172,-4.1209,-4.1278,-4.1225,-4.1133,-4.1232,-4.1312,-4.1408,-4.1335,-4.1171,-4.1213,-4.1506,-4.1387,-4.1266,-4.1272,-4.1267,-4.1236,-4.1353,-4.1374,-4.113,-4.1142,-4.1067,-4.1316,-4.1405,-4.1287,-4.1179,-4.117,-4.1269,-4.1389,-4.1316,-4.1248,-4.1254,-4.1327,-4.1306,-4.1264,-4.1268,-4.129,-4.1444,-4.145,-4.1352,-4.1218,-4.1259,-4.1267,-4.1312,-4.1312,-4.1176,-4.1123,-4.1192,-4.1107,-4.1177,-4.1011,-4.0688,-4.0738,-4.0846,-4.073,-4.0672,-4.0597,-4.0607,-4.0747,-4.0933,-4.0885,-4.0748,-4.1052,-4.1319,-4.1459,-4.1428,-4.1334,-4.1345,-4.1428,-4.1476,-4.1443,-4.1351,-4.137,-4.1382,-4.1448,-4.1448,-4.1398,-4.1285,-4.0503,-3.9141,-3.7559,-3.5986,-3.3661,-3.1177,-3.0963,-3.4481,-4.0107,-4.5007,-4.4747,-4.3375,-4.2789,-4.1247,-4.0516,-4.0407,-4.0411,-4.0367,-4.043,-4.0331,-4.0345,-4.036,-4.04,-4.018,-4.0202,-4.0084,-4.014,-4.0136,-4.01,-3.9935,-3.9851,-3.9941,-3.9998,-3.9801,-3.9765,-3.9652,-3.9688,-3.9684,-3.9651,-3.9488,-3.9359,-3.9304,-3.933,-3.9173,-3.8972,-3.8836,-3.8723,-3.8712,-3.8562,-3.8363,-3.8191,-3.8167,-3.808,-3.7883,-3.7575,-3.739,-3.7156,-3.705,-3.7029,-3.6726,-3.649,-3.6335,-3.625,-3.6117,-3.5903,-3.5772,-3.5531,-3.5515,-3.5481,-3.5391,-3.5222,-3.5183,-3.524,-3.5416,-3.5661,-3.5954,-3.638,-3.696,-3.7217,-3.7598,-3.7989,-3.8516,-3.8907,-3.9319,-3.9643,-3.9791,-4.0025,-4.0185,-4.045,-4.0609,-4.0528,-4.0557,-4.0605,-4.0735,-4.0789,-4.0719,-4.0584,-4.061,-4.0679,-4.0761,-4.0591,-4.0394,-4.0452,-4.0668,-4.0684,-4.0566,-4.0444,-4.0445,-4.0515,-4.0533,-4.0561,-4.0434,-4.0419,-4.0501,-4.0526,-4.0476,-4.0397,-4.037,-4.0366,-4.0473,-4.0443,-4.0334,-4.046,-4.0404,-4.0446,-4.0532,-4.0455,-4.0352,-4.0411,-4.0554,-4.0539,-4.0412,-4.043,-4.0446,-4.0515,-4.0603,-4.0491,-4.0569,-4.0591,-4.0542,-4.0678,-4.0638,-4.0576,-4.0548,-4.0583,-4.0623,-4.0628,-4.0554,-4.0528,-4.0674,-4.0703,-4.0571,-4.0475,-4.0523,-4.054,-4.0633,-4.0665,-4.0532,-4.0532,-4.0602,-4.071,-4.0662,-4.0619,-4.0561,-4.0612,-4.0652,-4.0606,-4.0532,-4.0479,-4.0648,-4.0691,-4.0757,-4.0584,-4.0564,-4.059,-4.062,-4.0673,-4.065,-4.0612,-4.0587,-4.0621,-4.0667,-4.0679,-4.0594,-4.0594,-4.0639,-4.0657,-4.0619,-4.0675,-4.0535,-4.0526,-4.0598,-4.0649,-4.0556,-4.0569,-4.0624,-4.0631,-4.0668,-4.0587,-4.0475,-4.0566,-4.0587,-4.0583,-4.0487,-4.0357,-4.0385,-4.0332,-4.0339,-4.0231,-3.9874,-3.9893,-3.9952,-3.9891,-3.9816,-3.9735,-3.9876,-3.9931,-4.0103,-4.0161,-4.0033,-4.0181,-4.0521,-4.0665,-4.0703,-4.0667,-4.0575,-4.0653,-4.0793,-4.0732,-4.0573,-4.0541,-4.0636,-4.0763,-4.0767,-4.0714,-4.0514,-3.9799,-3.8426,-3.7637,-3.6136,-3.3962,-3.1465,-2.946,-3.1582,-3.6212,-4.2353,-4.3792,-4.2703,-4.2255,-4.0889,-3.9919,-3.9754,-3.974,-3.9752,-3.9761,-3.967,-3.9923,-3.9776,-3.9828,-3.9663,-3.9634,-3.9446,-3.9556,-3.9564,-3.9617,-3.9403,-3.9385,-3.9281,-3.9377,-3.9319,-3.9281,-3.9144,-3.9122,-3.9051,-3.9033,-3.8864,-3.8823,-3.875,-3.8727,-3.8655,-3.8552,-3.837,-3.8276,-3.8166,-3.8116,-3.796,-3.7708,-3.7537,-3.7453,-3.7331,-3.7188,-3.6947,-3.6749,-3.6699,-3.6486,-3.6149,-3.5977,-3.5809,-3.5677,-3.5606,-3.5497,-3.5204,-3.5047,-3.5046,-3.4958,-3.4866,-3.4766,-3.4648,-3.467,-3.4875,-3.4921,-3.5141,-3.5496,-3.6015,-3.66,-3.706,-3.7489,-3.7904,-3.8289,-3.8339,-3.8928,-3.9277,-3.9409,-3.9634,-3.9799,-4.0052,-4.0038,-4.0155,-4.0073,-4.027,-4.0276,-4.0326,-4.0211,-4.0287,-4.0159,-4.0273,-4.0257,-4.0149,-4.0111,-4.0171,-4.0136,-4.0194,-4.0121,-4.0088,-4.0089,-4.0219,-4.021,-4.003,-3.9984,-4.011,-4.0201,-4.0197,-3.9996,-3.9997,-4.0125,-4.0241,-4.0187,-4.0087,-4.0006,-4.0093,-4.0123,-4.0194,-4.0179,-4.0231,-4.0247,-4.0371,-4.0444,-4.0467,-4.0269,-4.0273,-4.0362,-4.05,-4.054,-4.0431,-4.0515,-4.0539,-4.0599,-4.0618,-4.0548,-4.0496,-4.0623,-4.0678,-4.0638,-4.0582,-4.0633,-4.0583,-4.0731,-4.0671,-4.0642,-4.0549,-4.0562,-4.0714,-4.0667,-4.066,-4.066,-4.0669,-4.0739,-4.0793,-4.0722,-4.073,-4.069,-4.0634,-4.08,-4.0924,-4.0661,-4.0749,-4.0755,-4.0805,-4.0784,-4.0672,-4.0777,-4.0909,-4.0929,-4.0943,-4.0893,-4.0794,-4.093,-4.0972,-4.1012,-4.0907,-4.0832,-4.0903,-4.0975,-4.1048,-4.0883,-4.0908,-4.0977,-4.1105,-4.1014,-4.0972,-4.0987,-4.0932,-4.1036,-4.1099,-4.1087,-4.0992,-4.1032,-4.1123,-4.1149,-4.1068,-4.1039,-4.0968,-4.108,-4.1105,-4.1131,-4.0886,-4.0886,-4.0702,-4.0664,-4.0685,-4.0632,-4.0634,-4.0619,-4.0599,-4.0759,-4.0656,-4.0741,-4.0954,-4.1293,-4.1396,-4.1506,-4.1451,-4.1395,-4.1456,-4.1615,-4.1568,-4.155,-4.1551,-4.17,-4.174,-4.1746,-4.1632,-4.1632,-4.1586,-4.0855,-3.9449,-3.7848,-3.6314,-3.4381,-3.3218,-3.2014,-3.3999,-3.8789,-4.5126,-4.6489,-4.4631,-4.3776,-4.2589,-4.1643,-4.1008,-4.1168,-4.0915,-4.0987,-4.0868,-4.1157,-4.0992,-4.1012,-4.0854,-4.0949,-4.0904,-4.0859,-4.0766,-4.0722,-4.0613,-4.078,-4.0723,-4.0641,-4.0456,-4.0458,-4.0475,-4.0492,-4.0292,-4.0298,-4.0158,-4.0164,-4.0162,-3.995,-3.982,-3.973,-3.9684,-3.9683,-3.9602,-3.9354,-3.9108,-3.9145,-3.9036,-3.896,-3.8745,-3.8571,-3.8322,-3.8396,-3.8188,-3.7849,-3.7719,-3.7446,-3.7483,-3.7316,-3.6967,-3.6833,-3.6758,-3.6702,-3.6708,-3.6445,-3.6302,-3.6263,-3.6309,-3.6296,-3.64,-3.6347,-3.6693,-3.7064,-3.7547,-3.7936,-3.8428,-3.8744,-3.9416,-3.9586,-3.9996,-4.0336,-4.0548,-4.0533,-4.1147,-4.1281,-4.1352,-4.1521,-4.1526,-4.1667,-4.1676,-4.1486,-4.1505,-4.1644,-4.1666,-4.1682,-4.1676,-4.1494,-4.1546,-4.1654,-4.1587,-4.1503,-4.1484,-4.1425,-4.1414,-4.1514,-4.1365,-4.1367,-4.1327,-4.1327,-4.1563,-4.1456,-4.1403,-4.1415,-4.1375,-4.1462,-4.1444,-4.1408,-4.1387,-4.1459,-4.1586,-4.1546,-4.1483,-4.1459,-4.1569,-4.1743,-4.1741,-4.1577,-4.1617,-4.1678,-4.1706,-4.1743,-4.1801,-4.1727,-4.1776,-4.1804,-4.169,-4.1654,-4.1629,-4.1795,-4.188,-4.1781,-4.1767,-4.169,-4.1805,-4.1832,-4.1891,-4.191,-4.1748,-4.1769,-4.1798,-4.197,-4.1785,-4.1831,-4.1827,-4.18,-4.1993,-4.1924,-4.1771,-4.1807,-4.1911,-4.1943,-4.2006,-4.1942,-4.1819,-4.1829,-4.1969,-4.2065,-4.1894,-4.1816,-4.1757,-4.1902,-4.1998,-4.1848,-4.1877,-4.1872,-4.1922,-4.1979,-4.1769,-4.1839,-4.1714,-4.1844,-4.1846,-4.1747,-4.1594,-4.1556,-4.1359,-4.1382,-4.128,-4.1155,-4.1295,-4.1223,-4.1378,-4.1258,-4.13,-4.139,-4.1574,-4.1915,-4.1921,-4.1857,-4.1954,-4.1992,-4.2149,-4.2128,-4.2066,-4.2017,-4.2042,-4.2144,-4.2151,-4.2026,-4.2001,-4.2161,-4.206,-4.1356,-3.9909,-3.8386,-3.7,-3.4972,-3.2872,-3.2782,-3.591,-4.1535,-4.6772,-4.6616,-4.5004,-4.3964,-4.2992,-4.2197,-4.1418,-4.131,-4.1103,-4.1227,-4.1316,-4.1283,-4.1215,-4.1141,-4.0954,-4.1067,-4.1044,-4.1039,-4.0833,-4.0893,-4.0774,-4.0795,-4.0805,-4.0682,-4.0506,-4.0533,-4.0586,-4.0487,-4.0317,-4.0188,-4.0162,-4.0191,-4.0155,-4.0004,-3.9873,-3.9716,-3.9601,-3.9571,-3.941,-3.919,-3.9042,-3.914,-3.9092,-3.8951,-3.8576,-3.8455,-3.8356,-3.8254,-3.7955,-3.7726,-3.7542,-3.7317,-3.7175,-3.7054,-3.6773,-3.6616,-3.6541,-3.659,-3.6436,-3.6271,-3.6093,-3.6081,-3.6174,-3.6253,-3.6162,-3.636,-3.6748,-3.7275,-3.7671,-3.8127,-3.8619,-3.9066,-3.9616,-4.0006,-4.0295,-4.0506,-4.0848,-4.1118,-4.1326,-4.13,-4.1321,-4.1339,-4.1558,-4.1681,-4.1671,-4.1594,-4.1538,-4.1579,-4.1626,-4.1587,-4.1608,-4.1507,-4.1509,-4.1542,-4.1513,-4.141,-4.141,-4.1447,-4.1467,-4.1404,-4.1285,-4.1246,-4.129,-4.1318,-4.1398,-4.1344,-4.1312,-4.1248,-4.1372,-4.1351,-4.1354,-4.1275,-4.1289,-4.1371,-4.1417,-4.1406,-4.1261,-4.1287,-4.1473,-4.1471,-4.1476,-4.1398,-4.1396,-4.1416,-4.1537,-4.1501,-4.1518,-4.1462,-4.1453,-4.1609,-4.1609,-4.1491,-4.1485,-4.1615,-4.1657,-4.1526,-4.1442,-4.1464,-4.1582,-4.1677,-4.1675,-4.1622,-4.1512,-4.1555,-4.1548,-4.1576,-4.1578,-4.1498,-4.1528,-4.1588,-4.1682,-4.1603,-4.1541,-4.1542,-4.1602,-4.1625,-4.1583,-4.1527,-4.1599,-4.1667,-4.172,-4.1671,-4.1551,-4.1509,-4.1586,-4.1693,-4.1722,-4.1554,-4.1501,-4.1565,-4.1657,-4.1569,-4.1549,-4.1445,-4.1578,-4.1659,-4.167,-4.1595,-4.1532,-4.1552,-4.1596,-4.1601,-4.1562,-4.1559,-4.1461,-4.1549,-4.1585,-4.1498,-4.1384,-4.1316,-4.1252,-4.1323,-4.1052,-4.0833,-4.0883,-4.1004,-4.1001,-4.0909,-4.0859,-4.0921,-4.0992,-4.108,-4.1129,-4.1224,-4.1426,-4.1552,-4.1688,-4.168,-4.1662,-4.1596,-4.1579,-4.1721,-4.1751,-4.1646,-4.165,-4.1731,-4.1789,-4.1795,-4.149,-4.0889,-3.9421,-3.8686,-3.7253,-3.5348,-3.3073,-3.1027,-3.2616,-3.6953,-4.3241,-4.5312,-4.4159,-4.3464,-4.2472,-4.1329,-4.0846,-4.0737,-4.0674,-4.0838,-4.0781,-4.0773,-4.0628,-4.0674,-4.0605,-4.0679,-4.0496,-4.0491,-4.0398,-4.0467,-4.0375,-4.0366,-4.0289,-4.0252,-4.023,-4.0282,-4.01,-4.0008,-3.9897,-4.003,-3.9914,-3.98,-3.9681,-3.9713,-3.965,-3.9632,-3.9401,-3.9177,-3.9073,-3.9123,-3.9033,-3.8892,-3.8623,-3.8478,-3.8323,-3.834,-3.81,-3.7771,-3.7516,-3.7447,-3.7363,-3.7066,-3.6815,-3.6653,-3.6617,-3.6525,-3.6422,-3.6169,-3.6031,-3.5966,-3.5969,-3.5818,-3.5649,-3.5604,-3.5768,-3.6011,-3.6269,-3.6486,-3.6931,-3.7416,-3.8036,-3.8464,-3.8875,-3.9191,-3.9363,-3.9784,-4.0089,-4.0309,-4.047,-4.0676,-4.0835,-4.0935,-4.1023,-4.1009,-4.1052,-4.1105,-4.1227,-4.11,-4.1035,-4.0947,-4.0963,-4.1024,-4.1022,-4.0865,-4.0892,-4.0895,-4.0982,-4.1017,-4.0918,-4.0791,-4.0865,-4.0789,-4.0869,-4.0782,-4.0697,-4.0796,-4.085,-4.0855,-4.0814,-4.076,-4.0752,-4.0778,-4.0834,-4.0685,-4.0673,-4.0805,-4.0839,-4.0903,-4.0847,-4.0841,-4.0844,-4.0872,-4.0955,-4.0898,-4.0868,-4.0842,-4.0969,-4.1041,-4.1035,-4.0897,-4.0919,-4.0982,-4.1094,-4.1057,-4.1095,-4.0955,-4.0952,-4.1017,-4.1029,-4.0936,-4.0949,-4.1033,-4.1127,-4.1126,-4.1002,-4.0942,-4.0948,-4.1033,-4.1042,-4.1008,-4.0982,-4.0951,-4.101,-4.1103,-4.1078,-4.1021,-4.093,-4.1009,-4.1104,-4.1088,-4.0978,-4.0924,-4.1133,-4.1099,-4.1067,-4.0963,-4.0963,-4.1093,-4.1117,-4.1091,-4.0966,-4.097,-4.1041,-4.1151,-4.1069,-4.1007,-4.1069,-4.1122,-4.1129,-4.1157,-4.1068,-4.0971,-4.1017,-4.1163,-4.1163,-4.108,-4.101,-4.1033,-4.1047,-4.119,-4.1134,-4.1011,-4.1016,-4.1081,-4.1086,-4.1062,-4.0923,-4.0907,-4.0977,-4.1022,-4.0815,-4.0685,-4.0529,-4.0366,-4.0519,-4.0505,-4.0299,-4.0239,-4.029,-4.0469,-4.0522,-4.0539,-4.0552,-4.0764,-4.0962,-4.1148,-4.1165,-4.109,-4.1133,-4.1293,-4.1321,-4.1226,-4.1219,-4.1145,-4.1264,-4.1306,-4.1239,-4.1256,-4.1228,-4.1015,-3.9987,-3.8514,-3.6892,-3.5023,-3.3865,-3.1369,-3.032,-3.3364,-3.8696,-4.4101,-4.4177,-4.3136,-4.2532,-4.1012,-4.0524,-4.0403,-4.0385,-4.0347,-4.0226,-4.0357,-4.0575,-4.0416,-4.0253,-4.0279,-4.0266,-4.0278,-4.0233,-4.0079,-4.0057,-4.0054,-4.0111,-4.0066,-3.9998,-3.9888,-3.9869,-3.9936,-3.992,-3.9774,-3.9664,-3.95,-3.9548,-3.9588,-3.9477,-3.9283,-3.9262,-3.9174,-3.91,-3.9021,-3.8787,-3.8573,-3.8521,-3.8423,-3.8334,-3.8111,-3.7851,-3.7804,-3.776,-3.7584,-3.7261,-3.6979,-3.694,-3.6793,-3.6673,-3.6375,-3.622,-3.6168,-3.6083,-3.6052,-3.5961,-3.5751,-3.5606,-3.5656,-3.5793,-3.5853,-3.588,-3.6121,-3.6606,-3.7152,-3.7686,-3.8033,-3.843,-3.9046,-3.9448,-3.9836,-3.9854,-4.0121,-4.0345,-4.0656,-4.0794,-4.085,-4.0935,-4.0976,-4.1243,-4.1348,-4.1186,-4.112,-4.1141,-4.1221,-4.1245,-4.1127,-4.1028,-4.1036,-4.1143,-4.1168,-4.1121,-4.112,-4.1,-4.1135,-4.1135,-4.1055,-4.093,-4.0891,-4.0989,-4.095,-4.0917,-4.0883,-4.0912,-4.0956,-4.0943,-4.0956,-4.0906,-4.0924,-4.1042,-4.0947,-4.0944,-4.1012,-4.1024,-4.0979,-4.1055,-4.1117,-4.1137,-4.1029,-4.1054,-4.1168,-4.1217,-4.119,-4.1202,-4.1163,-4.1396,-4.1325,-4.1221,-4.1209,-4.121,-4.1274,-4.1369,-4.1368,-4.1258,-4.1241,-4.1352,-4.1503,-4.1326,-4.1257,-4.1274,-4.135,-4.1368,-4.1347,-4.132,-4.127,-4.1387,-4.1486,-4.1459,-4.1358,-4.1311,-4.1417,-4.1528,-4.1489,-4.1448,-4.1351,-4.1422,-4.1556,-4.1556,-4.1483,-4.1371,-4.1398,-4.1511,-4.1585,-4.1512,-4.1492,-4.1565,-4.1526,-4.1633,-4.1643,-4.1478,-4.1599,-4.1609,-4.1666,-4.1685,-4.1486,-4.1525,-4.1609,-4.1706,-4.1719,-4.1605,-4.1576,-4.1708,-4.1726,-4.1615,-4.1643,-4.1645,-4.1858,-4.1804,-4.1726,-4.1616,-4.1538,-4.1569,-4.1632,-4.1674,-4.1576,-4.149,-4.1448,-4.1243,-4.1274,-4.1171,-4.1011,-4.1092,-4.1091,-4.1247,-4.1352,-4.1308,-4.1329,-4.1545,-4.1802,-4.1899,-4.1879,-4.1986,-4.2022,-4.2075,-4.207,-4.207,-4.2025,-4.2112,-4.2222,-4.2161,-4.2062,-4.2065,-4.2134,-4.1861,-4.067,-3.9218,-3.7782,-3.6076,-3.3716,-3.2129,-3.3823,-3.8277,-4.1606,-4.6578,-4.606,-4.4215,-4.3633,-4.2389,-4.1714,-4.126,-4.1477,-4.1148,-4.1438,-4.1278,-4.151,-4.1303,-4.1277,-4.1056,-4.1315,-4.1195,-4.118,-4.1014,-4.1071,-4.0993,-4.1216,-4.1031,-4.0986,-4.0731,-4.0902,-4.0857,-4.0822,-4.0686,-4.0708,-4.0498,-4.0636,-4.0467,-4.0352,-4.0161,-4.0191,-4.0135,-4.012,-3.9863,-3.9742,-3.9547,-3.9573,-3.9561,-3.9277,-3.9103,-3.8954,-3.8859,-3.8842,-3.8643,-3.8386,-3.8256,-3.8109,-3.7937,-3.7769,-3.7606,-3.7402,-3.7415,-3.7376,-3.7214,-3.6978,-3.7042,-3.7061,-3.7082,-3.7078,-3.7005,-3.7108,-3.757,-3.7836,-3.844,-3.878,-3.9243,-3.966,-4.0223,-4.0632,-4.0988,-4.1309,-4.1574,-4.1809,-4.2039,-4.205,-4.2135,-4.2209,-4.2404,-4.2401,-4.2415,-4.2311,-4.23,-4.245,-4.2501,-4.2306,-4.2245,-4.2261,-4.2401,-4.2285,-4.231,-4.2272,-4.2206,-4.2245,-4.2332,-4.2248,-4.2163,-4.2167,-4.2101,-4.2323,-4.238,-4.2124,-4.2094,-4.213,-4.2281,-4.2308,-4.2251,-4.2132,-4.2292,-4.2401,-4.2414,-4.2212,-4.233,-4.2344,-4.2468,-4.2499,-4.2547,-4.2455,-4.2517,-4.259,-4.2655,-4.2576,-4.2539,-4.2496,-4.2632,-4.2643,-4.2621,-4.253,-4.2591,-4.273,-4.276,-4.2727,-4.2602,-4.2659,-4.2686,-4.2779,-4.2756,-4.2645,-4.2641,-4.2724,-4.2895,-4.2769,-4.2717,-4.2793,-4.278,-4.2854,-4.2805,-4.2742,-4.2645,-4.2859,-4.3005,-4.2955,-4.2778,-4.2791,-4.2862,-4.2964,-4.2936
