2.5864,2.5891,2.5802,2.5861,2.5899,2.5887,2.5837,2.5871,2.5795,2.5932,2.5953,2.5909,2.591,2.5957,2.6007,2.6151,2.6171,2.6132,2.6115,2.6195,2.6269,2.6377,2.6291,2.6382,2.6378,2.6429,2.6458,2.6401,2.6372,2.646,2.6512,2.6458,2.6355,2.6396,2.6362,2.642,2.6389,2.6302,2.6188,2.6172,2.618,2.6172,2.606,2.5995,2.594,2.5936,2.5884,2.5857,2.5735,2.5707,2.573,2.5708,2.5599,2.5525,2.5568,2.5564,2.5547,2.5475,2.5405,2.541,2.5425,2.5452,2.5456,2.5434,2.561,2.5701,2.5754,2.581,2.5875,2.5939,2.6069,2.6297,2.6367,2.6163,2.6233,2.6292,2.6352,2.6392,2.6338,2.6231,2.6061,2.6033,2.5805,2.5462,2.5199,2.5088,2.5093,2.5042,2.4945,2.4869,2.4876,2.4904,2.4845,2.4796,2.4762,2.4807,2.4847,2.4764,2.4784,2.4726,2.4718,2.4653,2.4581,2.4581,2.5192,2.6517,2.892,3.173,3.4414,3.638,3.7285,3.6697,3.5795,3.3036,2.864,2.351,2.2206,2.2263,2.2395,2.3235,2.3591,2.4104,2.4238,2.4404,2.4257,2.4386,2.428,2.4477,2.4375,2.4445,2.4388,2.4521,2.4554,2.4599,2.4512,2.4556,2.4483,2.4594,2.4542,2.4605,2.4481,2.4489,2.4528,2.458,2.4517,2.4484,2.4459,2.4546,2.4533,2.4514,2.447,2.4502,2.4527,2.4543,2.4544,2.4492,2.4478,2.4534,2.4561,2.4516,2.449,2.4473,2.4496,2.4551,2.4501,2.4424,2.4483,2.4457,2.4568,2.4562,2.4569,2.459,2.4654,2.4716,2.4746,2.4682,2.473,2.4714,2.4817,2.4779,2.4776,2.4718,2.4759,2.4861,2.4932,2.4894,2.484,2.4899,2.5058,2.5094,2.5133,2.5114,2.5195,2.5303,2.538,2.5392,2.538,2.5373,2.5487,2.5503,2.5474,2.5438,2.5429,2.5408,2.5472,2.5425,2.5413,2.5385,2.5414,2.5442,2.5448,2.532,2.5391,2.5366,2.5463,2.546,2.5453,2.5499,2.5577,2.5637,2.5675,2.5699,2.5759,2.5795,2.5918,2.5953,2.5986,2.5923,2.6022,2.6031,2.6094,2.6074,2.6024,2.6054,2.6131,2.6107,2.6074,2.6016,2.6001,2.6048,2.5998,2.6021,2.59,2.5874,2.5848,2.5806,2.5748,2.5619,2.5584,2.5566,2.5535,2.5394,2.5328,2.5302,2.5282,2.5374,2.5308,2.5166,2.5178,2.516,2.5139,2.5174,2.5128,2.5094,2.5054,2.5156,2.5052,2.5072,2.4962,2.4988,2.5199,2.5287,2.5267,2.5167,2.5175,2.5254,2.5195,2.5275,2.5285,2.5027,2.518,2.5227,2.5222,2.5077,2.5107,2.535,2.5232,2.5194,2.5283,2.536,2.5414,2.569,2.5478,2.5311,2.509,2.4861,2.5021,2.5391,2.5399,2.5377,2.5563,2.5238,2.4878,2.4638,2.4942,2.51,2.515,2.5162,2.4844,2.5014,2.5281,2.4997,2.4573,2.4793,2.4784,2.5178,2.5003,2.4995,2.4673,2.4389,2.4555,2.5337,2.5283,2.5283,2.5092,2.4693,2.5001,2.4738,2.4656,2.4905,2.4829,2.4864,2.4998,2.5424,2.5823,2.5764,2.5453,2.6019,2.5812,2.5063,2.5517,2.5038,2.452,2.4533,2.5014,2.512,2.5184,2.5127,2.5339,2.4798,2.492,2.5035,2.4826,2.5428,2.5178,2.4462,2.457,2.4711,2.5189,2.5337,2.4479,2.4277,2.4776,2.4623,2.4862,2.587,2.5287,2.4857,2.508,2.5195,2.5358,2.5292,2.5192,2.5322,2.5605,2.5961,2.5939,2.5898,2.5994,2.5977,2.56,2.5999,2.5333,2.5801,2.6228,2.6094,2.5332,2.4142,2.4721,2.5874,2.4933,2.3811,2.4382,2.4358,2.4097,2.4742,2.5374,2.4673,2.4493,2.4067,2.3962,2.41,2.4829,2.5471,2.6083,2.7261,2.9831,3.2757,3.5708,3.7414,3.6412,3.5661,3.383,3.0436,2.6782,2.3051,2.1142,2.2525,2.3576,2.4069,2.423,2.3221,2.2954,2.3997,2.4925,2.4468,2.3956,2.3795,2.4146,2.3973,2.4327,2.3679,2.359,2.3942,2.4174,2.4373,2.525,2.4917,2.3244,2.36,2.4212,2.4027,2.372,2.3621,2.3831,2.389,2.3763,2.3896,2.3955,2.3821,2.4182,2.4212,2.3724,2.4473,2.4351,2.3586,2.3743,2.3888,2.415,2.4052,2.368,2.3827,2.4051,2.4239,2.3865,2.3927,2.3968,2.4079,2.4354,2.4831,2.4352,2.3629,2.3511,2.3689,2.4005,2.4637,2.4789,2.4188,2.3957,2.4536,2.4921,2.5203,2.4472,2.3555,2.4352,2.5403,2.4939,2.4233,2.4117,2.4591,2.4908,2.4683,2.4747,2.4788,2.4765,2.4781,2.521,2.4984,2.4835,2.4894,2.5419,2.5006,2.529,2.4875,2.4759,2.5187,2.5271,2.4883,2.4634,2.4932,2.513,2.5347,2.5429,2.529,2.4937,2.4955,2.5138,2.5229,2.5631,2.5584,2.5228,2.5438,2.5769,2.5507,2.5128,2.5031,2.5676,2.5777,2.5355,2.5289,2.5417,2.5778,2.5686,2.5466,2.5365,2.5593,2.5653,2.5528,2.5529,2.5465,2.5353,2.5137,2.5185,2.5217,2.5316,2.5317,2.5259,2.5184,2.4806,2.485,2.4874,2.4771,2.4969,2.5269,2.5344,2.5221,2.4553,2.4254,2.4858,2.4658,2.4195,2.4312,2.4426,2.4386,2.4433,2.4277,2.41,2.4244,2.4206,2.4389,2.436,2.4277,2.4408,2.4201,2.4002,2.4081,2.4161,2.4198,2.414,2.4445,2.3978,2.3823,2.3955,2.4227,2.4598,2.4456,2.4295,2.4079,2.3734,2.4172,2.4148,2.3724,2.3703,2.41,2.3999,2.4106,2.3967,2.3876,2.3963,2.3867,2.3875,2.4023,2.4059,2.401,2.4033,2.4045,2.3952,2.4141,2.4306,2.4214,2.3948,2.3915,2.3837,2.3856,2.391,2.4022,2.4256,2.4254,2.4431,2.4467,2.4587,2.4595,2.4816,2.4797,2.5098,2.5315,2.5217,2.4936,2.4903,2.5202,2.5491,2.5246,2.4696,2.4966,2.4814,2.4285,2.4055,2.3822,2.3916,2.396,2.3909,2.3847,2.4006,2.3913,2.3685,2.3572,2.3436,2.3741,2.3726,2.3596,2.3526,2.3472,2.3606,2.3863,2.4805,2.6196,2.8775,3.1578,3.3777,3.5328,3.58,3.5449,3.4434,3.1425,2.6643,2.212,2.1119,2.1537,2.2147,2.2927,2.2852,2.3124,2.3208,2.3375,2.3454,2.3424,2.3272,2.3636,2.3665,2.3322,2.3175,2.3501,2.3494,2.3517,2.3563,2.3667,2.3588,2.3374,2.3254,2.3455,2.3466,2.3465,2.3467,2.3502,2.3487,2.3602,2.3545,2.3519,2.3422,2.3597,2.3775,2.358,2.3539,2.3482,2.3502,2.3654,2.3754,2.3571,2.3445,2.3551,2.3603,2.3605,2.3542,2.3591,2.3561,2.3602,2.3627,2.3523,2.3455,2.3512,2.3731,2.3737,2.3698,2.3691,2.3699,2.3627,2.384,2.3894,2.4,2.3853,2.3736,2.3851,2.3912,2.3945,2.4002,2.4002,2.4124,2.4125,2.4334,2.4186,2.4277,2.4441,2.4386,2.4506,2.451,2.4389,2.47,2.4569,2.4429,2.4539,2.4583,2.4642,2.4792,2.4636,2.4666,2.4672,2.4742,2.4826,2.4844,2.4769,2.4757,2.4564,2.4596,2.4788,2.4644,2.4566,2.4709,2.4788,2.4825,2.4821,2.4913,2.508,2.5117,2.5189,2.5111,2.5125,2.5244,2.5178,2.5222,2.5239,2.5236,2.5333,2.5417,2.5369,2.529,2.5491,2.5575,2.5789,2.5513,2.5004,2.4997,2.4975,2.4973,2.4988,2.4912,2.483,2.4846,2.479,2.4709,2.4732,2.467,2.4688,2.4738,2.4658,2.4704,2.461,2.4455,2.458,2.4641,2.4475,2.4408,2.4305,2.4136,2.4276,2.438,2.4035,2.4068,2.4197,2.4247,2.4228,2.4183,2.411,2.4156,2.4279,2.4202,2.4118,2.3948,2.4051,2.4268,2.4209,2.408,2.4141,2.4228,2.4238,2.4274,2.4376,2.4442,2.4565,2.4739,2.4807,2.4843,2.4958,2.5043,2.5132,2.5095,2.5085,2.508,2.5108,2.5046,2.4922,2.471,2.4488,2.4256,2.4264,2.4113,2.4082,2.3834,2.3758,2.3793,2.3826,2.3536,2.3543,2.3587,2.3631,2.364,2.3629,2.3585,2.3508,2.3554,2.3472,2.3374,2.3383,2.4054,2.5415,2.7833,3.0604,3.3171,3.5104,3.5718,3.57,3.5258,3.3316,3.0128,2.5,2.1676,2.092,2.1242,2.2059,2.2521,2.2968,2.3035,2.3132,2.3132,2.3225,2.3334,2.3433,2.3259,2.3307,2.3309,2.3413,2.344,2.3489,2.3366,2.3407,2.3358,2.3508,2.3434,2.3417,2.3368,2.3383,2.3407,2.3407,2.3349,2.3368,2.3318,2.3418,2.3404,2.3321,2.3386,2.3366,2.3399,2.3455,2.3395,2.3376,2.3385,2.3432,2.3397,2.3425,2.3378,2.3382,2.3428,2.3458,2.3399,2.3287,2.336,2.3436,2.3508,2.3454,2.3456,2.3489,2.3527,2.3561,2.3556,2.3566,2.3695,2.3744,2.3767,2.378,2.3751,2.3749,2.3801,2.3835,2.3896,2.3829,2.3894,2.3924,2.4072,2.4067,2.4071,2.4133,2.4238,2.4243,2.4299,2.4323,2.4316,2.4391,2.4529,2.4545,2.4574,2.4451,2.4483,2.4505,2.4478,2.4403,2.4383,2.4339,2.4464,2.4394,2.4425,2.4359,2.443,2.4469,2.4556,2.452,2.4476,2.4514,2.4579,2.4603,2.4645,2.4617,2.4682,2.4801,2.4858,2.4913,2.4921,2.4925,2.5027,2.5052,2.5117,2.5035,2.5079,2.5142,2.5189,2.5159,2.5175,2.5113,2.5057,2.5087,2.5094,2.5007,2.4933,2.4875,2.4872,2.485,2.4706,2.4664,2.46,2.4664,2.457,2.4532,2.4453,2.4404,2.4411,2.4369,2.4361,2.428,2.4263,2.4282,2.4321,2.424,2.4121,2.4152,2.4151,2.4186,2.4123,2.4068,2.4024,2.4094,2.4081,2.4069,2.3954,2.3927,2.4023,2.4074,2.398,2.3963,2.3969,2.3986,2.3991,2.3937,2.3938,2.3977,2.3902,2.3977,2.3975,2.3961,2.4037,2.4115,2.4352,2.4479,2.4478,2.4578,2.4666,2.4734,2.484,2.5011,2.5032,2.5017,2.51,2.5033,2.5025,2.5056,2.5032,2.4924,2.4785,2.4536,2.4308,2.4142,2.402,2.3932,2.3811,2.3787,2.3693,2.373,2.3782,2.3698,2.3604,2.3604,2.3645,2.368,2.3641,2.3598,2.3563,2.3457,2.3417,2.3546,2.4329,2.5767,2.8181,3.1141,3.3746,3.5502,3.6039,3.5415,3.5992,3.3234,2.9566,2.4545,2.1154,2.1083,2.1376,2.222,2.2363,2.2983,2.301,2.3234,2.3063,2.3201,2.3116,2.3349,2.3213,2.3415,2.3206,2.3375,2.3319,2.3471,2.3342,2.3356,2.3307,2.3441,2.3378,2.3503,2.3331,2.3395,2.3353,2.3506,2.3388,2.3316,2.3361,2.3449,2.3401,2.3491,2.3416,2.3375,2.3374,2.3479,2.3464,2.3508,2.3466,2.347,2.3522,2.3445,2.3448,2.3404,2.3505,2.3489,2.353,2.3509,2.3529,2.3473,2.3548,2.3553,2.3683,2.3636,2.3676,2.3722,2.3802,2.3796,2.375,2.3787,2.39,2.3952,2.3988,2.3954,2.397,2.3968,2.4106,2.4044,2.4134,2.4138,2.4197,2.4268,2.4292,2.4305,2.4409,2.4406,2.4579,2.4521,2.466,2.4601,2.4693,2.4771,2.4804,2.4715,2.4612,2.4611,2.4721,2.4622,2.4641,2.4543,2.4627,2.4635,2.4703,2.4709,2.493,2.5019,2.493,2.4769,2.4919,2.487,2.4911,2.504,2.5133,2.4973,2.5099,2.54,2.5413,2.534,2.5482,2.5393,2.513,2.5335,2.5468,2.5767,2.5397,2.4988,2.4946,2.5224,2.5262,2.5382,2.535,2.5029,2.5211,2.5068,2.4806,2.4621,2.4747,2.4908,2.5061,2.4916,2.483,2.4781,2.4784,2.4609,2.4819,2.4862,2.4575,2.4501,2.4781,2.5077,2.4842,2.4125,2.4265,2.4628,2.4852,2.5184,2.4853,2.3947,2.3887,2.4392,2.4751,2.4241,2.4011,2.4269,2.4054,2.3665,2.3778,2.417,2.3966,2.3759,2.388,2.3837,2.3706,2.401,2.4416,2.4394,2.4113,2.3978,2.4109,2.41,2.3968,2.3833,2.3873,2.4121,2.394,2.4166,2.4015,2.3969,2.3928,2.4367,2.419,2.3404,2.3459,2.3726,2.3865,2.3852,2.3938,2.384,2.365,2.3738,2.3978,2.4215,2.3609,2.3313,2.3434,2.3831,2.4538,2.4151,2.3617,2.3646,2.344,2.3642,2.3677,2.3793,2.4367,2.46,2.3439,2.3114,2.3778,2.4541,2.429,2.3746,2.3768,2.408,2.4341,2.4991,2.5313,2.4655,2.4362,2.4549,2.4869,2.508,2.5009,2.4649,2.4798,2.5222,2.4463,2.3765,2.3876,2.396,2.3878,2.3817,2.3585,2.313,2.3294,2.3681,2.3842,2.3444,2.321,2.3569,2.344,2.3317,2.3397,2.3514,2.3326,2.3147,2.3912,2.5563,2.7933,3.0734,3.3419,3.5203,3.5812,3.5504,3.4653,3.1804,2.704,2.2157,2.0916,2.1224,2.1647,2.2235,2.2367,2.2898,2.2979,2.3231,2.3095,2.3008,2.2727,2.306,2.345,2.3145,2.3027,2.3283,2.3271,2.2974,2.2971,2.3279,2.3076,2.2876,2.2945,2.3007,2.3135,2.3272,2.3054,2.317,2.3157,2.3034,2.324,2.3116,2.3078,2.3253,2.3035,2.2995,2.296,2.3135,2.3345,2.3484,2.3217,2.3116,2.3191,2.3225,2.3275,2.3325,2.325,2.3035,2.2905,2.3126,2.3264,2.3239,2.315,2.3276,2.3298,2.3244,2.3232,2.321,2.3215,2.3373,2.3411,2.3382,2.3581,2.3542,2.3548,2.3587,2.3618,2.3502,2.3647,2.3727,2.3824,2.3965,2.402,2.3543,2.3781,2.4102,2.4084,2.3972,2.4055,2.4268,2.4361,2.4303,2.4065,2.4039,2.4323,2.4475,2.4482,2.4441,2.4599,2.4657,2.4465,2.4014,2.4079,2.4236,2.4746,2.475,2.4279,2.4144,2.439,2.4509,2.4703,2.4827,2.4787,2.4752,2.4741,2.477,2.4768,2.47,2.4944,2.5233,2.5179,2.4964,2.4905,2.493,2.5064,2.5303,2.5373,2.5405,2.5133,2.4692,2.5001,2.5077,2.513,2.5181,2.5022,2.4943,2.5064,2.5193,2.5001,2.454,2.4694,2.4667,2.4656,2.4563,2.4747,2.4677,2.4477,2.4593,2.448,2.4331,2.4322,2.4297,2.4392,2.4139,2.4092,2.4328,2.4386,2.447,2.4339,2.4125,2.4114,2.4351,2.4358,2.4351,2.4658,2.4795,2.4739,2.4818,2.4914,2.5135,2.5131,2.52,2.5136,2.5047,2.4953,2.5016,2.4969,2.4961,2.4923,2.4768,2.4373,2.4175,2.3934,2.377,2.3702,2.3665,2.3736,2.3628,2.3821,2.3803,2.3577,2.3678,2.3639,2.3642,2.3387,2.3327,2.347,2.3451,2.3349,2.3283,2.3328,2.4072,2.5573,2.7997,3.0727,3.3139,3.5077,3.604,3.5458,3.4437,3.158,2.7005,2.2015,2.0956,2.0977,2.1526,2.2438,2.2829,2.3088,2.294,2.3111,2.3004,2.3276,2.3131,2.3422,2.3346,2.3272,2.3214,2.3223,2.3287,2.3429,2.3347,2.3408,2.3439,2.3486,2.3413,2.3429,2.3351,2.3384,2.338,2.3414,2.3341,2.346,2.3455,2.3446,2.3343,2.3394,2.3321,2.3458,2.3489,2.3446,2.3377,2.3272,2.3477,2.3438,2.3196,2.3185,2.3246,2.3354,2.3323,2.3225,2.3291,2.3317,2.3472,2.3411,2.3446,2.3362,2.345,2.3533,2.3505,2.3548,2.3587,2.3644,2.3769,2.3736,2.3745,2.3675,2.3624,2.3688,2.3703,2.3698,2.3726,2.3884,2.3941,2.3751,2.3881,2.3825,2.3931,2.3925,2.4095,2.4238,2.4169,2.4187,2.4294,2.4308,2.4302,2.4268,2.4346,2.4374,2.4345,2.4279,2.4191,2.4186,2.4335,2.4354,2.4278,2.4214,2.4182,2.4238,2.4371,2.4329,2.4257,2.4227,2.4259,2.4458,2.4489,2.4522,2.4586,2.4633,2.4733,2.4758,2.4747,2.4747,2.4735,2.4831,2.4815,2.4829,2.4838,2.4883,2.4967,2.5058,2.4997,2.4811,2.4882,2.4972,2.4881,2.4789,2.4933,2.4819,2.4658,2.4491,2.4376,2.4382,2.4342,2.4362,2.4497,2.4567,2.441,2.4137,2.4071,2.4252,2.4224,2.4137,2.3943,2.3983,2.4041,2.4081,2.4121,2.3989,2.3887,2.3921,2.3951,2.39,2.3817,2.3759,2.3855,2.3882,2.3833,2.389,2.3907,2.3868,2.372,2.368,2.3697,2.3773,2.3858,2.3732,2.3693,2.3768,2.3876,2.4015,2.4109,2.4172,2.4243,2.4348,2.4474,2.4571,2.4642,2.4741,2.4718,2.4745,2.4774,2.4786,2.4763,2.4747,2.4588,2.4518,2.4265,2.4029,2.3798,2.3711,2.3634,2.3505,2.3422,2.3399,2.335,2.333,2.3365,2.3266,2.3216,2.3305,2.3445,2.3339,2.3278,2.3288,2.3193,2.3079,2.3061,2.338,2.4331,2.6111,2.9005,3.1801,3.4269,3.5589,3.5703,3.5227,3.4399,3.169,2.7205,2.2311,2.057,2.1002,2.1522,2.213,2.2357,2.2671,2.2669,2.2874,2.2766,2.2865,2.2782,2.2988,2.2972,2.295,2.2932,2.3023,2.2974,2.3056,2.2968,2.3021,2.3041,2.3149,2.3089,2.3076,2.2976,2.3032,2.3015,2.3035,2.2976,2.2965,2.2946,2.3065,2.3083,2.3082,2.3007,2.3075,2.305,2.3102,2.3135,2.3051,2.3057,2.3066,2.3147,2.308,2.3039,2.3048,2.3094,2.311,2.3151,2.3121,2.3146,2.3153,2.3218,2.3221,2.3226,2.3252,2.3318,2.3356,2.3414,2.3404,2.3422,2.3447,2.3534,2.3544,2.3597,2.3524,2.3595,2.3706,2.3699,2.3741,2.3738,2.3803,2.3968,2.3936,2.404,2.3999,2.4119,2.4194,2.4332,2.4369,2.4365,2.437,2.4487,2.4605,2.4698,2.4611,2.4574,2.4585,2.4621,2.4585,2.4589,2.4595,2.4657,2.4628,2.4607,2.458,2.4642,2.4675,2.4821,2.483,2.4788,2.4842,2.4867,2.4984,2.4959,2.5006,2.506,2.5135,2.5175,2.5222,2.5285,2.5172,2.519,2.5228,2.5241,2.5164,2.5129,2.5102,2.5147,2.5299,2.5216,2.5068,2.5055,2.5017,2.4988,2.5009,2.498,2.4806,2.483,2.4856,2.4717,2.4667,2.4606,2.4513,2.4587,2.444,2.4409,2.4303,2.4389,2.4437,2.4477,2.4328,2.4275,2.4312,2.4353,2.4276,2.4185,2.4256,2.4156,2.4262,2.4053,2.4124,2.4087,2.4014,2.4275,2.4232,2.4177,2.4171,2.4074,2.3986,2.4205,2.4064,2.3984,2.3979,2.402,2.4001,2.4073,2.3853,2.3863,2.3986,2.3866,2.4034,2.3945,2.3978,2.3984,2.4023,2.3977,2.3887,2.3945,2.4046,2.4065,2.4021,2.3917,2.3998,2.3985,2.41,2.4088,2.407,2.3999,2.4129,2.4119,2.4082,2.3987,2.4019,2.3985,2.4084,2.4031,2.4026,2.3885,2.3967,2.3978,2.4038,2.3953,2.3878,2.3931,2.3951,2.4024,2.3963,2.3875,2.3947,2.3931,2.4007,2.3979,2.3901,2.3863,2.3918,2.3935,2.3944,2.3925,2.3848,2.3885,2.3972,2.4004,2.3889,2.3947,2.3859,2.3985,2.4071,2.3917,2.3862,2.39,2.3972,2.3929,2.3901,2.3708,2.3876,2.3911,2.3859,2.392,2.3834,2.3942,2.3973,2.4194,2.4252,2.4328,2.4385,2.4577,2.4718,2.4783,2.4796,2.4916,2.4896,2.5006,2.5037,2.4912,2.486,2.4847,2.4749,2.4554,2.4231,2.4151,2.4039,2.4079,2.4027,2.3767,2.3681,2.3753,2.3777,2.3669,2.3669,2.3581,2.363,2.3669,2.3572,2.353,2.3392,2.3451,2.387,2.4954,2.6729,2.9474,3.2306,3.3574,3.5177,3.5603,3.498,3.4204,3.1494,2.7537,2.2868,2.101,2.1453,2.2215,2.2697,2.2933,2.3071,2.3134,2.32,2.3164,2.3126,2.3072,2.32,2.3216,2.3312,2.3359,2.3304,2.3228,2.3333,2.3533,2.3669,2.3445,2.3314,2.3196,2.3342,2.3269,2.328,2.3351,2.3267,2.3416,2.3499,2.3536,2.368,2.3637,2.3507,2.3334,2.3166,2.3173,2.3216,2.3431,2.346,2.3269,2.3142,2.3214,2.3323,2.3312,2.3246,2.3185,2.3215,2.3307,2.3437,2.3338,2.3373,2.341,2.3484,2.35,2.3542,2.3582,2.3574,2.3698,2.3812,2.3912,2.4025,2.4003,2.4051,2.4107,2.4061,2.3941,2.3731,2.3982,2.4451,2.4392,2.3755,2.3576,2.4101,2.4357,2.437,2.4123,2.4217,2.4417,2.4577,2.4507,2.4189,2.4455,2.4914,2.5203,2.5069,2.5073,2.509,2.4815,2.4902,2.5416,2.5041,2.4739,2.4906,2.4783,2.4506,2.4687,2.456,2.4635,2.4699,2.495,2.509,2.4898,2.4781,2.5062,2.5283,2.4994,2.4988,2.5512,2.5451,2.4998,2.5353,2.5343,2.5188,2.5253,2.5409,2.5275,2.5316,2.5533,2.5437,2.5286,2.5162,2.5142,2.5203,2.4918,2.5069,2.5344,2.5056,2.4854,2.4947,2.4922,2.4717,2.4412,2.4535,2.4457,2.4211,2.4161,2.4105,2.4128,2.4461,2.4342,2.4132,2.4262,2.4203,2.4422,2.4395,2.3943,2.3778,2.3781,2.3933,2.398,2.3949,2.413,2.4135,2.3923,2.3753,2.3998,2.412,2.3977,2.3652,2.3823,2.3977,2.3861,2.3852,2.344,2.3308,2.3424,2.3576,2.3612,2.3613,2.3695,2.3778,2.3717,2.3823,2.3613,2.3551,2.3593,2.3798,2.3918,2.3814,2.4105,2.384,2.3245,2.3338,2.3286,2.3465,2.3666,2.3684,2.3705,2.3377,2.3534,2.3681,2.3758,2.3618,2.355,2.3552,2.3461,2.3727,2.3905,2.3746,2.3334,2.3312,2.3514,2.36,2.3627,2.3358,2.3532,2.3774,2.3938,2.3529,2.3599,2.3584,2.3573,2.3723,2.3652,2.3454,2.3454,2.3635,2.3565,2.3455,2.3585,2.3481,2.3436,2.3741,2.3923,2.3271,2.3455,2.4026,2.3946,2.392,2.4031,2.4415,2.4006,2.4074,2.4432,2.459,2.4486,2.4818,2.5118,2.4955,2.4604,2.4303,2.4306,2.4361,2.4043,2.4154,2.4047,2.3349,2.3242,2.3306,2.3519,2.3865,2.3434,2.2951,2.3201,2.3618,2.3409,2.3136,2.301,2.3094,2.3278,2.291,2.2891,2.3394,2.4103,2.5542,2.8448,3.0833,3.3203,3.5093,3.5287,3.4915,3.3997,3.0617,2.5977,2.1736,2.0237,2.0908,2.1675,2.1896,2.1762,2.2405,2.2915,2.2506,2.2337,2.2628,2.2759,2.2614,2.2203,2.2734,2.2752,2.2628,2.2993,2.288,2.2641,2.2792,2.2784,2.2649,2.263,2.2978,2.2717,2.2572,2.2332,2.2493,2.2668,2.2751,2.2711,2.2734,2.2944,2.2728,2.2748,2.2825,2.2531,2.2672,2.2743,2.2649,2.243,2.2485,2.2817,2.2864,2.2595,2.2594,2.2546,2.2709,2.3179,2.2817,2.2389,2.2443,2.2522,2.2621,2.2775,2.2879,2.2977,2.28,2.2802,2.2915,2.2977,2.2868,2.2843,2.2936,2.299,2.3074,2.3135,2.3102,2.3125,2.3226,2.3422,2.3644,2.3639,2.3089,2.3028,2.3092,2.3254,2.3511,2.3873,2.3978,2.3663,2.3557,2.3619,2.3784,2.3934,2.3893,2.3695,2.3613,2.3667,2.3715,2.3823,2.3795,2.3837,2.3791,2.3834,2.3932,2.3862,2.3843,2.3842,2.3906,2.4059,2.3987,2.4011,2.4021,2.4035,2.4159,2.4191,2.4211,2.4204,2.432,2.4329,2.4388,2.4398,2.4362,2.4359,2.4466,2.4437,2.445,2.4409,2.4348,2.4437,2.4441,2.4409,2.4281,2.4299,2.4264,2.4362,2.4197,2.4083,2.4018,2.4045,2.4021,2.399,2.3849,2.3775,2.3764,2.3849,2.3746,2.3679,2.3746,2.3667,2.3647,2.3572,2.3495,2.3499,2.3494,2.3567,2.3579,2.3501,2.3489,2.3418,2.3494,2.3504,2.3544,2.3349,2.3425,2.3462,2.3464,2.3362,2.3383,2.3408,2.3461,2.3468,2.3403,2.3367,2.3391,2.3401,2.3343,2.3434,2.3404,2.337,2.3426,2.3445,2.3386,2.3334,2.3232,2.3337,2.343,2.3349,2.3335,2.3363,2.338,2.3442,2.35,2.3579,2.3747,2.3841,2.3912,2.4043,2.4058,2.42,2.4324,2.4437,2.4519,2.4438,2.4476,2.4466,2.4588,2.4611,2.4426,2.4262,2.4174,2.3956,2.3824,2.3698,2.3479,2.3358,2.3433,2.334,2.3367,2.3279,2.3219,2.3215,2.3306,2.3296,2.3167,2.3131,2.3157,2.3211,2.3057,2.2972,2.3045,2.3939,2.5195,2.7543,3.035,3.2819,3.4809,3.5679,3.5141,3.4255,3.2917,2.9484,2.4078,2.0984,2.0768,2.0953,2.167,2.2292,2.2631,2.2807,2.2813,2.2741,2.2878,2.2956,2.3037,2.29,2.2933,2.302,2.3018,2.2992,2.2951,2.2998,2.3042,2.3056,2.3083,2.3024,2.3108,2.3106,2.3117,2.3102,2.3043,2.3037,2.3141,2.3172,2.3204,2.3143,2.3089,2.3167,2.3182,2.3206,2.3149,2.3134,2.3159,2.3254,2.3285,2.3258,2.3202,2.3185,2.3303,2.3283,2.3237,2.316,2.3149,2.3259,2.3236,2.3152,2.3168,2.321,2.3412,2.3455,2.329,2.3264,2.3389,2.3359,2.3425,2.3466,2.3403,2.347,2.3479,2.3584,2.3563,2.3562,2.361,2.3631,2.3746,2.3758,2.3694,2.3841,2.3886,2.394,2.3995,2.4018,2.4072,2.4136,2.432,2.438,2.4307,2.4265,2.4341,2.4403,2.4345,2.4364,2.4254,2.4306,2.4397,2.435,2.4284,2.4188,2.4248,2.4411,2.4417,2.4409,2.4447,2.4467,2.4549,2.4536,2.4573,2.456,2.4568,2.4706,2.478,2.4822,2.4831,2.4897,2.4835,2.4887,2.4945,2.4933,2.4918,2.4985,2.5011,2.5001,2.49,2.492,2.4941,2.4941,2.4962,2.4881,2.4807,2.4784,2.4797,2.4759,2.4655,2.4531,2.4545,2.4561,2.4464,2.441,2.4377,2.4335,2.4371,2.4298,2.4299,2.4194,2.4141,2.422,2.4177,2.4156,2.4053,2.4071,2.4057,2.4049,2.4051,2.3985,2.3974,2.4029,2.401,2.4022,2.3881,2.388,2.3991,2.3956,2.3968,2.3878,2.3913,2.3868,2.3907,2.3931,2.3866,2.3879,2.389,2.3926,2.3954,2.4089,2.4168,2.4315,2.4459,2.4564,2.4597,2.4592,2.476,2.4987,2.4921,2.4914,2.4875,2.4853,2.498,2.4957,2.4962,2.484,2.4677,2.4528,2.4352,2.4089,2.3928,2.3846,2.3836,2.3791,2.3753,2.3669,2.3632,2.369,2.3704,2.3664,2.3589,2.3585,2.3657,2.3713,2.3611,2.3454,2.3388,2.3409,2.4169,2.5394,2.7609,3.0486,3.3125,3.527,3.6149,3.5514,3.4761,3.2075,2.7962,2.2812,2.1165,2.1266,2.1354,2.223,2.2543,2.2998,2.3052,2.3251,2.3215,2.3411,2.3289,2.3324,2.324,2.3468,2.3391,2.3458,2.3355,2.3427,2.3418,2.3504,2.3431,2.348,2.3405,2.3464,2.3517,2.3515,2.3384,2.3438,2.3401,2.3502,2.3536,2.3485,2.3447,2.3487,2.3531,2.3554,2.3483,2.3501,2.3512,2.3628,2.3592,2.3521,2.3517,2.3489,2.3553,2.3572,2.3554,2.3508,2.3498,2.3536,2.3582,2.3543,2.3537,2.358,2.3705,2.3732,2.3707,2.3735,2.3783,2.3869,2.3892,2.3851,2.3847,2.3868,2.3912,2.398,2.4026,2.3913,2.4042,2.4031,2.4144,2.4167,2.4172,2.4225,2.4264,2.4342,2.4401,2.4362,2.448,2.456,2.4651,2.4672,2.4612,2.4671,2.471,2.4724,2.4718,2.4642,2.46,2.4567,2.4639,2.4636,2.4621,2.4552,2.4622,2.4642,2.4664,2.4642,2.4664,2.47,2.4835,2.485,2.482,2.4796,2.4863,2.4904,2.4998,2.5081,2.5029,2.5099,2.5178,2.5227,2.5275,2.5186,2.5259,2.532,2.5308,2.5296,2.5284,2.5219,2.5294,2.5294,2.528,2.5178,2.5142,2.5118,2.5136,2.505,2.501,2.4883,2.4864,2.4876,2.4823,2.4733,2.4639,2.4625,2.4651,2.4595,2.4523,2.4477,2.448,2.4516,2.4432,2.4387,2.4342,2.43,2.4321,2.4348,2.4348,2.4237,2.4194,2.4267,2.4263,2.4218,2.4191,2.4159,2.4204,2.419,2.4169,2.4113,2.4093,2.4191,2.4152,2.4114,2.4065,2.4068,2.4108,2.4171,2.4107,2.4102,2.4105,2.4041,2.4128,2.4116,2.4075,2.4054,2.404,2.4129,2.4115,2.4082,2.4004,2.3996,2.414,2.4108,2.409,2.4043,2.3982,2.4011,2.4049,2.4024,2.3977,2.4007,2.4031,2.4137,2.4027,2.403,2.3963,2.4065,2.4091,2.4072,2.4002,2.4074,2.4105,2.4075,2.407,2.4019,2.406,2.4092,2.4086,2.4124,2.4092,2.4099,2.4016,2.4148,2.4105,2.4062,2.4097,2.4044,2.4125,2.4148,2.4075,2.4055,2.4099,2.4134,2.4118,2.4074,2.4031,2.4103,2.4113,2.4145,2.4143,2.4129,2.4074,2.4121,2.413,2.4123,2.4103,2.4118,2.4154,2.4186,2.4181,2.4112,2.4123,2.4139,2.4292,2.4423,2.4456,2.4589,2.4686,2.4796,2.4905,2.503,2.5044,2.5105,2.5182,2.5215,2.5197,2.5228,2.5238,2.5259,2.5091,2.4932,2.4679,2.4527,2.4531,2.44,2.4241,2.4132,2.4083,2.409,2.4093,2.4088,2.4015,2.4011,2.4085,2.3996,2.4057,2.3935,2.3899,2.381,2.3868,2.4436,2.449,2.7665,3.085,3.3329,3.5608,3.6209,3.578,3.509,3.4188,3.1009,2.6442,2.2221,2.1496,2.2069,2.2745,2.3019,2.3379,2.3486,2.3655,2.3632,2.3664,2.3595,2.3673,2.3716,2.3723,2.3681,2.3658,2.3637,2.377,2.37,2.3746,2.3645,2.3707,2.3726,2.3749,2.3734,2.3657,2.3705,2.3767,2.3756,2.3788,2.3763,2.3731,2.3837,2.3785,2.384,2.377,2.3787,2.3836,2.3895,2.3883,2.3806,2.3806,2.3801,2.3943,2.3892,2.3835,2.3826,2.3814,2.3934,2.3841,2.3885,2.3835,2.3878,2.3945,2.3965,2.3965,2.3957,2.401,2.4158,2.4092,2.4117,2.4119,2.4104,2.4181,2.4213,2.4226,2.4239,2.4225,2.4393,2.4385,2.4452,2.443,2.4416,2.4511,2.4573,2.4571,2.4617,2.4634,2.4815,2.4839,2.4938,2.4925,2.5022,2.5048,2.5168,2.5119,2.5086,2.5078,2.5072,2.5135,2.5112,2.5058,2.5096,2.5113,2.5154,2.5178,2.5112,2.5166,2.5225,2.527,2.5297,2.5308,2.5308,2.5284,2.5422,2.5503,2.5446,2.55,2.5562,2.56,2.5658,2.5656,2.5616,2.5681,2.5754,2.5748,2.5688,2.5663,2.569,2.5788,2.5783,2.576,2.567,2.5622,2.5565,2.5574,2.5524,2.5377,2.537,2.5342,2.5354,2.5331,2.5211,2.5187,2.5124,2.5121,2.5083,2.4949,2.4893,2.4892,2.4897,2.4845,2.4805,2.474,2.4751,2.4724,2.4698,2.4644,2.4597,2.4618,2.4631,2.4651,2.4592,2.4539,2.4548,2.4618,2.4559,2.4534,2.4479,2.4445,2.4535,2.4466,2.4485,2.442,2.442,2.4436,2.4407,2.4477,2.4406,2.4423,2.4382,2.4354,2.4371,2.4252,2.4288,2.4326,2.4347,2.4365,2.4329,2.4342,2.4364,2.4355,2.436,2.4302,2.4264,2.4342,2.4352,2.4337,2.4322,2.4348,2.4381,2.4391,2.4306,2.4336,2.4231,2.4286,2.4381,2.4373,2.4332,2.4292,2.4234,2.4339,2.4298,2.4287,2.4186,2.4185,2.4247,2.4307,2.4305,2.423,2.4293,2.4264,2.4311,2.4313,2.4196,2.4211,2.4325,2.4331,2.4415,2.4479,2.4601,2.4781,2.4872,2.4907,2.4971,2.4996,2.5073,2.5303,2.5292,2.5277,2.5212,2.5327,2.5324,2.5226,2.5111,2.4938,2.4669,2.4617,2.4461,2.4257,2.4185,2.4078,2.4122,2.4051,2.4062,2.3966,2.4026,2.4056,2.4048,2.3946,2.392,2.3876,2.389,2.3794,2.3836,2.4286,2.5447,2.7472,3.0411,3.3037,3.5159,3.6299,3.5847,3.5393,3.461,3.1594,2.6982,2.2499,2.1423,2.1848,2.2395,2.2915,2.3215,2.3641,2.3568,2.3622,2.3534,2.3602,2.3631,2.3648,2.3655,2.3754,2.3622,2.3871,2.3841,2.3841,2.3762,2.3791,2.3781,2.3822,2.3745,2.3683,2.3731,2.3739,2.3786,2.3748,2.3689,2.3685,2.372,2.3814,2.3693,2.3675,2.3829,2.3893,2.3872,2.3801,2.3717,2.376,2.373,2.3859,2.3877,2.3837,2.3803,2.3808,2.3838,2.3878,2.3829,2.377,2.3759,2.381,2.3823,2.3827,2.3849,2.3889,2.4045,2.4072,2.4022,2.398,2.4062,2.4102,2.4137,2.4121,2.4073,2.4142,2.4239,2.4231,2.4273,2.4195,2.4317,2.4443,2.4473,2.4452,2.4408,2.4521,2.4657,2.4729,2.4817,2.4803,2.4825,2.4871,2.4999,2.502,2.5022,2.4967,2.499,2.5069,2.5047,2.4932,2.493,2.4983,2.504,2.4928,2.4906,2.4918,2.4986,2.5089,2.5137,2.5126,2.5106,2.5155,2.5239,2.5258,2.5288,2.5294,2.5354,2.5501,2.5474,2.5474,2.5503,2.5504,2.5581,2.5597,2.5516,2.5507,2.5585,2.564,2.5604,2.5606,2.5547,2.5515,2.5577,2.559,2.5507,2.5369,2.5312,2.5272,2.5322,2.5263,2.5177,2.5118,2.5112,2.516,2.5089,2.4994,2.4906,2.4922,2.4933,2.4846,2.4839,2.4744,2.4743,2.4789,2.4787,2.4706,2.459,2.4617,2.4644,2.4622,2.4585,2.4528,2.4509,2.4583,2.4615,2.4561,2.4488,2.4474,2.4571,2.4522,2.447,2.4428,2.4402,2.4416,2.4502,2.4514,2.4464,2.4391,2.4422,2.4516,2.4449,2.4371,2.4403,2.4391,2.4437,2.4443,2.4383,2.4388,2.438,2.4437,2.4457,2.4439,2.4406,2.4404,2.4503,2.4454,2.4344,2.4343,2.4351,2.4418,2.4389,2.4362,2.4324,2.4354,2.4442,2.4424,2.4382,2.434,2.4358,2.4419,2.4483,2.4555,2.4576,2.4706,2.4868,2.5008,2.5081,2.5119,2.5264,2.5374,2.5493,2.547,2.5435,2.5415,2.5485,2.5512,2.545,2.5293,2.5088,2.4867,2.4755,2.463,2.4386,2.4384,2.4321,2.4325,2.4291,2.421,2.4164,2.4152,2.42,2.4242,2.4129,2.4117,2.4073,2.414,2.3991,2.392,2.4044,2.5051,2.6779,2.9571,3.2238,3.3453,3.554,3.6487,3.5855,3.5297,3.2683,2.8953,2.3802,2.1735,2.182,2.2228,2.294,2.325,2.3686,2.367,2.369,2.3684,2.3853,2.3741,2.3925,2.3782,2.3843,2.38,2.3976,2.3927,2.3927,2.3822,2.3877,2.3899,2.393,2.388,2.385,2.3829,2.3941,2.384,2.3909,2.3873,2.3933,2.3985,2.3968,2.3941,2.3929,2.3891,2.4001,2.4004,2.4018,2.3955,2.396,2.4018,2.4017,2.4026,2.395,2.3953,2.4035,2.3985,2.4023,2.3949,2.3989,2.4077,2.4052,2.4047,2.4002,2.4058,2.412,2.4239,2.4212,2.4212,2.4184,2.4266,2.4364,2.4373,2.4355,2.436,2.4318,2.4519,2.4424,2.4488,2.4427,2.4515,2.4618,2.4605,2.4626,2.4588,2.4664,2.4786,2.486,2.4891,2.4892,2.499,2.5061,2.5169,2.5132,2.5138,2.5141,2.5219,2.5243,2.5182,2.5126,2.5122,2.5181,2.5201,2.5167,2.5149,2.5139,2.519,2.5229,2.5277,2.5192,2.5207,2.5254,2.5431,2.5398,2.5383,2.5436,2.5479,2.5558,2.5633,2.5618,2.5644,2.5659,2.5781,2.5805,2.5763,2.5727,2.5701,2.5806,2.5855,2.5767,2.5684,2.5721,2.5727,2.5735,2.5668,2.5599,2.5567,2.5548,2.5552,2.5477,2.5377,2.5308,2.5306,2.5308,2.5249,2.5144,2.5134,2.5128,2.5118,2.5045,2.4981,2.4999,2.4902,2.498,2.493,2.4833,2.4847,2.4849,2.491,2.4922,2.4836,2.4804,2.4763,2.4832,2.479,2.4739,2.47,2.4714,2.4737,2.4788,2.4732,2.4672,2.4666,2.4719,2.4723,2.4689,2.4623,2.4603,2.4677,2.4752,2.4661,2.4611,2.4626,2.4654,2.4683,2.4668,2.4587,2.4602,2.4629,2.4697,2.4654,2.4567,2.4563,2.4567,2.4669,2.468,2.4587,2.4608,2.4604,2.4686,2.4669,2.4587,2.4607,2.4652,2.4717,2.4676,2.4611,2.4596,2.4653,2.4673,2.4661,2.468,2.4577,2.4625,2.4663,2.4672,2.468,2.459,2.4627,2.465,2.4676,2.4695,2.4614,2.46,2.4633,2.4687,2.4659,2.4669,2.4684,2.4845,2.4998,2.5104,2.5172,2.5219,2.5385,2.5583,2.565,2.5642,2.5679,2.573,2.5737,2.5822,2.587,2.5669,2.5649,2.5589,2.5315,2.5082,2.4955,2.4853,2.479,2.472,2.462,2.4517,2.4505,2.4548,2.4515,2.4478,2.4436,2.4436,2.4469,2.444,2.4406,2.4207,2.4195,2.4455,2.5485,2.7242,2.9974,3.2787,3.4122,3.6125,3.689,3.617,3.5552,3.2867,2.905,2.3991,2.1822,2.2086,2.2723,2.3364,2.3695,2.396,2.3947,2.4081,2.4069,2.4145,2.4031,2.4104,2.4078,2.4208,2.415,2.4206,2.4189,2.4195,2.4257,2.4239,2.4158,2.4182,2.4149,2.4243,2.4233,2.4234,2.4138,2.4199,2.425,2.4308,2.4234,2.4171,2.4161,2.4197,2.4266,2.4238,2.4127,2.4186,2.4249,2.4234,2.4239,2.4188,2.4196,2.4217,2.4221,2.4302,2.4245,2.4251,2.4223,2.4273,2.4262,2.4231,2.4334,2.4304,2.444,2.4444,2.4365,2.4382,2.4443,2.4533,2.4542,2.4529,2.4546,2.4549,2.4659,2.4688,2.4672,2.4675,2.4674,2.4732,2.4801,2.4804,2.4865,2.4852,2.4928,2.5008,2.503,2.4987,2.5105,2.5179,2.5267,2.5281,2.5293,2.536,2.5408,2.5474,2.551,2.5433,2.54,2.5397,2.5475,2.5462,2.541,2.5419,2.5431,2.5451,2.5483,2.5489,2.5502,2.5529,2.5639,2.5587,2.5629,2.5605,2.5716,2.5771,2.5793,2.5863,2.5868,2.5977,2.6015,2.5999,2.5986,2.5989,2.6029,2.6061,2.6078,2.5989,2.5917,2.594,2.5964,2.6,2.6072,2.5963,2.5907,2.5885,2.5849,2.5871,2.571,2.5658,2.5645,2.5644,2.5642,2.5522,2.5527,2.5503,2.5512,2.5367,2.5344,2.5325,2.526,2.534,2.5266,2.5175,2.5089,2.5138,2.513,2.511,2.5048,2.5004,2.5008,2.5079,2.5011,2.4949,2.4947,2.4983,2.4996,2.4976,2.4991,2.4903,2.4876,2.4951,2.4882,2.4891,2.4832,2.4849,2.493,2.492,2.4928,2.4871,2.4806,2.4868,2.4864,2.4899,2.4865,2.4796,2.4856,2.4863,2.4887,2.4868,2.4831,2.4873,2.4939,2.4918,2.4931,2.4815,2.4834,2.4939,2.4877,2.4852,2.4797,2.4875,2.5113,2.5246,2.527,2.533,2.5433,2.5556,2.5632,2.5764,2.5715,2.5838,2.5915,2.5913,2.5993,2.595,2.5884,2.5869,2.5749,2.555,2.5273,2.5073,2.5004,2.4864,2.4765,2.4716,2.4653,2.4689,2.4706,2.4624,2.4621,2.4685,2.4628,2.464,2.4609,2.4536,2.4575,2.4421,2.4467,2.4758,2.5703,2.7557,3.0407,3.3239,3.547,3.689,3.6785,3.6102,3.5591,3.2958,2.8635,2.3499,2.1999,2.2223,2.2667,2.3413,2.3594,2.4078,2.4147,2.4267,2.4208,2.4272,2.4094,2.4234,2.4246,2.4344,2.4204,2.4274,2.4245,2.4395,2.431,2.439,2.4338,2.4407,2.4377,2.4431,2.427,2.4316,2.4345,2.4385,2.4338,2.4361,2.4341,2.4372,2.4376,2.4438,2.4401,2.4457,2.4337,2.4416,2.4399,2.437,2.4271,2.4434,2.4412,2.442,2.4441,2.433,2.4328,2.4377,2.4427,2.44,2.4375,2.4348,2.4484,2.4492,2.4451,2.4458,2.4533,2.4585,2.4651,2.4636,2.4612,2.4616,2.4727,2.4736,2.478,2.4688,2.475,2.4811,2.4883,2.4876,2.4876,2.4907,2.5096,2.5121,2.5144,2.5123,2.5155,2.5288,2.5453,2.5413,2.5469,2.5357,2.5531,2.561,2.5671,2.5632,2.563,2.5596,2.566,2.561,2.5624,2.5574,2.5635,2.5611,2.5602,2.556,2.5604,2.5654,2.5762,2.576,2.5805,2.5748,2.5777,2.5838,2.5932,2.594,2.5905,2.5982,2.6085,2.6116,2.6128,2.6087,2.6103,2.6163,2.6202,2.6202,2.6193,2.614,2.6154,2.6193,2.6179,2.6135,2.6109,2.6056,2.6111,2.6029,2.5976,2.5853,2.5786,2.5854,2.5818,2.572,2.5609,2.5591,2.5654,2.559,2.5514,2.5452,2.5399,2.5422,2.5403,2.5387,2.5316,2.5277,2.5285,2.5265,2.5221,2.516,2.5139,2.5157,2.5208,2.5152,2.505,2.5057,2.5064,2.5164,2.5119,2.5041,2.5057,2.5061,2.5081,2.508,2.5022,2.5027,2.4999,2.5078,2.5107,2.5015,2.511,2.524,2.5389,2.5504,2.5515,2.5606,2.5679,2.5891,2.5951,2.5997,2.5973,2.6057,2.6067,2.6112,2.6093,2.5991,2.5915,2.5785,2.5601,2.5384,2.5154,2.5025,2.4962,2.4842,2.4804,2.4743,2.4707,2.4708,2.475,2.4698,2.467,2.4647,2.4636,2.466,2.4667,2.4597,2.4535,2.4406,2.4405,2.491,2.5962,2.7953,3.0884,3.3714,3.5948,3.7138,3.6658,3.6077,3.3749,3.0204,2.4684,2.2296,2.2128,2.2566,2.333,2.3433,2.3809,2.3988,2.4195,2.4074,2.4262,2.4116,2.4212,2.4188,2.4302,2.4258,2.4269,2.4233,2.436,2.4321,2.4345,2.4239,2.4287,2.4307,2.434,2.4319,2.4343,2.4263,2.4324,2.4357,2.436,2.4306,2.4336,2.4337,2.4397,2.4381,2.4354,2.4319,2.4407,2.4415,2.4408,2.4382,2.4344,2.4343,2.4414,2.4413,2.4398,2.432,2.4317,2.4373,2.4348,2.4345,2.4295,2.4306,2.4405,2.4429,2.4441,2.4427,2.4434,2.4556,2.4554,2.4606,2.4544,2.4563,2.4637,2.4657,2.4648,2.4664,2.4669,2.471,2.4786,2.4778,2.4741,2.4771,2.4806,2.4971,2.4966,2.5025,2.5022,2.5118,2.5222,2.5291,2.5248,2.5313,2.5317,2.54,2.5379,2.5373,2.5262,2.524,2.5326,2.5346,2.5299,2.5247,2.5242,2.5347,2.535,2.5356,2.5312,2.5312,2.5412,2.5452,2.5433,2.5424,2.5501,2.5608,2.5645,2.5692,2.5688,2.5709,2.577,2.5881,2.5875,2.5838,2.5899,2.59,2.5969,2.5961,2.5892,2.5935,2.5912,2.5927,2.5898,2.5818,2.5838,2.5778,2.5843,2.576,2.5734,2.5652,2.5606,2.5591,2.5526,2.5456,2.5348,2.5307,2.5324,2.5276,2.5233,2.5171,2.5144,2.5142,2.5167,2.5083,2.5045,2.5004,2.5008,2.5027,2.4974,2.494,2.489,2.4887,2.4962,2.4922,2.4857,2.4863,2.4831,2.4884,2.4883,2.4811,2.4805,2.4759,2.4867,2.4833,2.4775,2.4714,2.4711,2.4782,2.4768,2.47,2.4686,2.4699,2.4751,2.4727,2.471,2.4686,2.4665,2.4727,2.4762,2.4758,2.4833,2.4985,2.5123,2.5189,2.5262,2.5353,2.5401,2.5608,2.5742,2.5657,2.5553,2.5682,2.5672,2.5734,2.5819,2.5711,2.5636,2.5577,2.5431,2.5215,2.4982,2.4811,2.4741,2.4638,2.4598,2.4467,2.4469,2.4486,2.4438,2.4417,2.4376,2.4357,2.4337,2.4437,2.437,2.4327,2.4169,2.409,2.4187,2.5022,2.6513,2.8911,3.1882,3.4549,3.6418,3.6987,3.6155,3.5043,3.2213,2.7732,2.3048,2.1861,2.1697,2.2132,2.3016,2.3232,2.3702,2.3659,2.3923,2.3827,2.3939,2.3768,2.3912,2.3832,2.3992,2.387,2.3933,2.3839,2.399,2.4027,2.4061,2.3872,2.3967,2.3897,2.4022,2.3968,2.4012,2.391,2.3921,2.3995,2.402,2.402,2.3992,2.391,2.4054,2.403,2.3995,2.3973,2.3976,2.4036,2.406,2.3986,2.4003,2.4004,2.4049,2.4056,2.406,2.3972,2.398,2.4019,2.4066,2.4075,2.3983,2.4077,2.4113,2.4097,2.4056,2.4094,2.4128,2.4211,2.4242,2.4301,2.4313,2.4314,2.4349,2.4386,2.4315,2.4336,2.4338,2.4369,2.4529,2.4535,2.45,2.4632,2.4609,2.4708,2.4621,2.4708,2.4766,2.4871,2.4998,2.5142,2.5041,2.5107,2.5133,2.5178,2.5181,2.5171,2.5041,2.5134,2.5101,2.5144,2.5122,2.5046,2.5051,2.5108,2.5098,2.5089,2.5097,2.5169,2.5263,2.534,2.5311,2.5285,2.5286,2.5377,2.5464,2.5524,2.5458,2.5532,2.5613,2.5714,2.5647,2.5643,2.5623,2.5672,2.5738,2.5775,2.5631,2.558,2.5634,2.5717,2.5667,2.5635,2.5567,2.5572,2.5524,2.5498,2.5373,2.5295,2.5313,2.5262,2.5251,2.5279,2.5085,2.5176,2.5074,2.5052,2.5049,2.4908,2.4941,2.4929,2.4853,2.4786,2.4783,2.4822,2.4769,2.4735,2.4718,2.4716,2.4694,2.464,2.4699,2.4684,2.4623,2.4535,2.4499,2.4626,2.4643,2.4529,2.4514,2.4502,2.4628,2.4537,2.4583,2.4708,2.4813,2.4917,2.5047,2.5071,2.5106,2.5212,2.5485,2.5562,2.5479,2.5465,2.5413,2.5467,2.5568,2.5513,2.5332,2.5204,2.5113,2.4894,2.4692,2.443,2.4411,2.4376,2.4361,2.4303,2.4185,2.4153,2.4173,2.4158,2.4174,2.4143,2.4032,2.4034,2.4209,2.4104,2.4009,2.3846,2.3846,2.3971,2.4855,2.6357,2.8937,3.0447,3.309,3.5372,3.6614,3.6432,3.5607,3.3447,2.9415,2.3826,2.1483,2.1638,2.1863,2.273,2.3002,2.3471,2.3491,2.3817,2.3616,2.3775,2.3613,2.3796,2.3637,2.386,2.3744,2.3827,2.3712,2.3835,2.3862,2.3958,2.3825,2.3919,2.3852,2.3961,2.3901,2.3927,2.3876,2.3909,2.3853,2.394,2.3906,2.396,2.3933,2.4002,2.3923,2.3962,2.3918,2.3907,2.3977,2.4051,2.3954,2.3921,2.3865,2.3966,2.3992,2.394,2.3915,2.3895,2.3983,2.4009,2.399,2.3905,2.3974,2.3968,2.4112,2.4099,2.4054,2.4129,2.4126,2.4206,2.4279,2.4181,2.43,2.4277,2.4414,2.4317,2.4317,2.4297,2.4398,2.445,2.4477,2.4411,2.4517,2.451,2.4598,2.4662,2.4736,2.4722,2.4808,2.4891,2.5006,2.4969,2.5016,2.5016,2.5112,2.5082,2.5072,2.4961,2.4992,2.5027,2.5043,2.4979,2.496,2.4947,2.4999,2.4952,2.5054,2.4998,2.5066,2.5128,2.5218,2.5159,2.5175,2.5221,2.5319,2.5416,2.544,2.5366,2.5468,2.5495,2.5577,2.5648,2.5563,2.5595,2.5625,2.5696,2.5679,2.5672,2.5635,2.5649,2.5663,2.5607,2.5595,2.5519,2.5512,2.5462,2.5387,2.5333,2.527,2.525,2.5237,2.5182,2.5123,2.5019,2.4995,2.4987,2.4977,2.4951,2.4837,2.4787,2.4795,2.4782,2.4778,2.4675,2.4664,2.4715,2.4766,2.4868,2.4866,2.4944,2.503,2.5109,2.5233,2.521,2.5342,2.5494,2.5678,2.5533,2.5521,2.5545,2.5563,2.5668,2.5603,2.5496,2.5237,2.5144,2.4938,2.4663,2.4475,2.4378,2.4301,2.4367,2.4271,2.4209,2.4136,2.4141,2.4131,2.4182,2.411,2.4055,2.3984,2.4048,2.403,2.399,2.3884,2.3687,2.3648,2.3935,2.4828,2.6456,2.9244,3.2099,3.4654,3.6288,3.6308,3.5727,3.3918,3.2467,2.8316,2.2883,2.1476,2.1502,2.2125,2.2777
