8.3916,8.3948,8.3922,8.3961,8.4008,8.4064,8.3925,8.3022,8.1616,8.2222,8.4719,8.7083,9.0839,9.4925,9.5961,9.6348,9.6238,8.9968,8.6796,8.439,8.326,8.3658,8.3427,8.3618,8.3368,8.3682,8.357,8.3973,8.3782,8.3908,8.3743,8.3936,8.3783,8.3757,8.3768,8.3744,8.3537,8.3711,8.3803,8.3771,8.3629,8.3654,8.3529,8.3691,8.35,8.3699,8.3785,8.391,8.3848,8.4025,8.4061,8.4413,8.468,8.4888,8.4819,8.5225,8.5398,8.5663,8.5945,8.6199,8.6244,8.6553,8.6824,8.7005,8.7191,8.7482,8.7528,8.7577,8.7787,8.7662,8.7706,8.7356,8.7153,8.6478,8.6144,8.5826,8.5631,8.526,8.4951,8.4475,8.4212,8.401,8.4039,8.3748,8.3458,8.3435,8.3473,8.3343,8.3222,8.3409,8.3239,8.3211,8.3289,8.3286,8.3329,8.3328,8.3335,8.3347,8.3194,8.3066,8.3137,8.3076,8.3262,8.3088,8.3031,8.3029,8.3032,8.3111,8.3098,8.3234,8.3108,8.3094,8.3163,8.3052,8.3091,8.2832,8.2924,8.2889,8.3153,8.2954,8.2973,8.2688,8.2835,8.2837,8.2856,8.2831,8.2912,8.2887,8.2917,8.3035,8.3135,8.3061,8.3335,8.3648,8.3739,8.3736,8.3746,8.3717,8.3794,8.3475,8.3213,8.3148,8.3144,8.3077,8.297,8.2923,8.2799,8.2812,8.2715,8.284,8.2692,8.2752,8.2741,8.2728,8.2828,8.2717,8.2668,8.2783,8.268,8.2249,8.0919,8.0812,8.2634,8.512,8.842,9.2987,9.4963,9.5202,9.5106,8.8096,8.3948,8.3427,8.2605,8.2986,8.305,8.3161,8.3064,8.3126,8.3077,8.3416,8.3374,8.3476,8.3371,8.3443,8.3512,8.3471,8.3434,8.3429,8.3451,8.3394,8.3397,8.3406,8.3525,8.3533,8.3468,8.3581,8.3498,8.3607,8.3553,8.3753,8.3791,8.4011,8.4,8.4214,8.435,8.4586,8.4714,8.4979,8.5239,8.5401,8.5548,8.5899,8.6021,8.6159,8.6376,8.6674,8.6673,8.6933,8.7042,8.7202,8.7247,8.7349,8.7167,8.6822,8.6414,8.6075,8.5668,8.5278,8.4774,8.4358,8.436,8.407,8.3732,8.343,8.3342,8.3295,8.3304,8.3167,8.2947,8.3125,8.3071,8.3086,8.3033,8.3017,8.3026,8.3041,8.2934,8.3044,8.3035,8.2988,8.3092,8.3058,8.3017,8.2981,8.3127,8.3092,8.3207,8.3296,8.3263,8.3219,8.3149,8.318,8.3215,8.3083,8.3198,8.3053,8.3184,8.3075,8.3085,8.2988,8.3019,8.2978,8.3017,8.3018,8.3157,8.312,8.3069,8.3141,8.3172,8.3298,8.339,8.357,8.3622,8.3845,8.4023,8.3944,8.3866,8.3896,8.3858,8.3736,8.3431,8.3098,8.3088,8.3074,8.3066,8.2957,8.2871,8.3078,8.3021,8.3025,8.2956,8.2961,8.3054,8.3084,8.3109,8.3115,8.3106,8.3157,8.3197,8.2622,8.1281,8.1143,8.3009,8.5156,8.8592,9.3472,9.5002,9.6728,9.792,9.3853,8.6485,8.4075,8.3635,8.3556,8.3787,8.3573,8.38,8.3588,8.3911,8.3801,8.3919,8.3721,8.3974,8.3751,8.4077,8.4031,8.4073,8.4045,8.4338,8.4118,8.417,8.4048,8.4078,8.4011,8.4159,8.3992,8.4222,8.4081,8.425,8.4343,8.4469,8.4527,8.4702,8.4869,8.5134,8.5217,8.5231,8.5433,8.5681,8.5874,8.6083,8.638,8.6575,8.685,8.7044,8.7289,8.7417,8.7629,8.7808,8.8002,8.7933,8.8047,8.7935,8.7592,8.7363,8.7187,8.6856,8.6471,8.5941,8.5649,8.5459,8.5054,8.4857,8.4737,8.4485,8.4439,8.4353,8.4163,8.4097,8.409,8.4076,8.4056,8.3989,8.3902,8.394,8.395,8.3843,8.3978,8.3738,8.3785,8.3847,8.3845,8.3825,8.376,8.3849,8.3995,8.4023,8.4011,8.3925,8.3985,8.3913,8.3835,8.375,8.3708,8.3657,8.3614,8.3524,8.343,8.3399,8.33,8.3333,8.3316,8.3133,8.3083,8.2957,8.2904,8.2946,8.2836,8.2616,8.2727,8.2564,8.2581,8.262,8.2478,8.2386,8.2364,8.2354,8.2344,8.2185,8.2166,8.2225,8.2138,8.2085,8.2078,8.2161,8.2377,8.2693,8.2689,8.254,8.2538,8.2359,8.2217,8.1875,8.1678,8.1542,8.1491,8.1433,8.1377,8.1402,8.1294,8.1267,8.1343,8.134,8.1409,8.1339,8.1328,8.1393,8.1367,8.1325,8.132,8.1291,8.0724,7.9465,7.9183,8.1057,8.227,8.4475,8.9006,9.271,9.422,9.5117,9.1525,8.4122,8.1739,8.102,8.0847,8.089,8.0882,8.0888,8.0909,8.1065,8.1188,8.1134,8.1143,8.1331,8.1342,8.1361,8.1408,8.163,8.1668,8.1613,8.1537,8.1727,8.1689,8.1644,8.1626,8.164,8.1603,8.1781,8.2016,8.2014,8.2215,8.2456,8.2596,8.2788,8.2871,8.316,8.3274,8.3538,8.3811,8.4012,8.4181,8.4484,8.4727,8.4989,8.5097,8.5536,8.5714,8.5959,8.6217,8.639,8.6599,8.6687,8.6705,8.6537,8.6514,8.6207,8.583,8.5486,8.5201,8.49,8.4489,8.4206,8.388,8.3681,8.3419,8.3137,8.3021,8.2939,8.2765,8.2777,8.2657,8.2611,8.2493,8.2494,8.252,8.2512,8.2365,8.2464,8.2555,8.2585,8.2789,8.2661,8.2608,8.2679,8.2802,8.2967,8.2923,8.2901,8.2914,8.2948,8.2908,8.2792,8.2808,8.2722,8.2591,8.2686,8.2472,8.2461,8.24,8.2452,8.2405,8.2363,8.2261,8.2279,8.2294,8.2302,8.2207,8.2289,8.2301,8.2245,8.2293,8.2319,8.2251,8.2129,8.2117,8.2154,8.2075,8.2002,8.194,8.1806,8.1919,8.1879,8.1752,8.1736,8.1871,8.1805,8.1849,8.1867,8.1817,8.1935,8.2019,8.1926,8.1888,8.1951,8.1983,8.2097,8.2132,8.2095,8.2155,8.2223,8.2338,8.239,8.2485,8.2473,8.243,8.2434,8.2689,8.2658,8.2565,8.2606,8.273,8.2699,8.2653,8.267,8.2611,8.2694,8.2682,8.2618,8.2508,8.2528,8.243,8.242,8.2448,8.2311,8.2363,8.2273,8.2236,8.2216,8.2198,8.2164,8.213,8.2196,8.2186,8.2182,8.2181,8.2195,8.2336,8.226,8.2463,8.2798,8.3007,8.2985,8.2885,8.2876,8.2795,8.2649,8.2451,8.2284,8.2281,8.2113,8.1958,8.1864,8.1815,8.1849,8.1842,8.1647,8.1619,8.1624,8.1523,8.1366,8.1302,8.1264,8.1231,8.1074,8.0438,7.9083,7.8924,8.07,8.2579,8.6102,9.0877,9.3147,9.4133,9.4447,9.1664,8.3865,8.0944,8.047,8.0214,8.0341,7.9945,8.0024,7.9922,8.0124,7.9889,8.0063,7.9843,7.9925,7.978,7.9993,7.9853,7.9976,7.9665,7.9545,7.9327,7.913,7.8822,7.875,7.8496,7.8467,7.8231,7.8334,7.8305,7.852,7.8614,7.8778,7.8817,7.9084,7.9252,7.9414,7.9401,7.9666,7.9771,7.9989,8.0066,8.0383,8.0542,8.081,8.108,8.1291,8.1523,8.1825,8.2018,8.2214,8.2637,8.283,8.2921,8.3087,8.3109,8.2989,8.2785,8.2514,8.2279,8.201,8.19,8.163,8.1464,8.1254,8.1156,8.0936,8.0941,8.0928,8.0857,8.0882,8.0818,8.0929,8.106,8.1122,8.1164,8.1277,8.1485,8.149,8.1715,8.1771,8.1931,8.2054,8.2299,8.2339,8.2578,8.2871,8.3165,8.3237,8.3317,8.3533,8.3723,8.3777,8.3876,8.3803,8.3815,8.3827,8.4004,8.3988,8.3992,8.4059,8.407,8.4181,8.4256,8.4312,8.4529,8.4516,8.4661,8.4719,8.4767,8.4942,8.5031,8.5125,8.5541,8.5519,8.5425,8.5529,8.5587,8.5657,8.567,8.5577,8.5655,8.5693,8.5782,8.5757,8.5931,8.5752,8.5806,8.5935,8.5874,8.5798,8.576,8.577,8.5787,8.593,8.5843,8.5864,8.5867,8.5874,8.605,8.6,8.6024,8.6039,8.6127,8.6247,8.6334,8.6392,8.6412,8.6635,8.6681,8.6771,8.6611,8.6881,8.7205,8.7546,8.7437,8.7296,8.7209,8.705,8.6897,8.6822,8.6668,8.6515,8.6522,8.643,8.627,8.6321,8.6335,8.6236,8.6208,8.6185,8.6042,8.6007,8.5973,8.5863,8.596,8.5849,8.5775,8.5491,8.4541,8.3561,8.3821,8.5812,8.806,9.1456,9.615,9.7909,9.8468,9.8168,9.1283,8.6911,8.6251,8.5544,8.5836,8.5753,8.5884,8.5861,8.602,8.6041,8.6049,8.5956,8.5949,8.5961,8.6038,8.5948,8.6027,8.5927,8.5866,8.5745,8.5729,8.5621,8.5668,8.5611,8.5554,8.5441,8.5585,8.5559,8.5659,8.571,8.5768,8.6015,8.6046,8.6242,8.6247,8.6291,8.6548,8.6681,8.6828,8.6943,8.7347,8.7545,8.7668,8.7854,8.8041,8.8383,8.8579,8.8656,8.8769,8.8918,8.8984,8.9026,8.9019,8.8769,8.8698,8.828,8.7905,8.741,8.7103,8.6581,8.6103,8.5671,8.5315,8.5104,8.4691,8.4471,8.4249,8.4102,8.398,8.3903,8.3733,8.376,8.3709,8.356,8.3578,8.3534,8.3444,8.3399,8.3367,8.3345,8.3304,8.3184,8.3143,8.3312,8.31,8.3212,8.3018,8.3202,8.2897,8.2876,8.2926,8.2996,8.2926,8.2931,8.2765,8.2708,8.2496,8.2764,8.2728,8.2693,8.2634,8.2452,8.2492,8.2578,8.2569,8.2465,8.249,8.2494,8.2484,8.2586,8.2645,8.2509,8.2439,8.249,8.2628,8.2665,8.2453,8.2391,8.2446,8.2492,8.2524,8.2554,8.2712,8.2887,8.2905,8.2801,8.2907,8.3255,8.3582,8.3593,8.3612,8.3455,8.3353,8.313,8.2965,8.2675,8.2488,8.2499,8.2451,8.2411,8.2341,8.229,8.2348,8.2317,8.2266,8.2121,8.2072,8.2168,8.2338,8.2388,8.2342,8.222,8.2153,8.1693,8.0419,8.0201,8.2043,8.4594,8.7816,9.2264,9.4145,9.4301,9.4242,8.7297,8.3159,8.2735,8.1786,8.1986,8.2029,8.232,8.2205,8.2369,8.241,8.2574,8.2471,8.2682,8.2557,8.2631,8.2566,8.2639,8.2694,8.2647,8.2533,8.2528,8.2555,8.2591,8.2628,8.2565,8.2551,8.2612,8.2633,8.2705,8.2726,8.292,8.3061,8.3155,8.3198,8.3453,8.3691,8.3887,8.3983,8.4237,8.4467,8.4705,8.4962,8.5125,8.5408,8.5509,8.5624,8.6069,8.6278,8.6397,8.6563,8.6626,8.6738,8.6681,8.6724,8.6475,8.6121,8.5743,8.5332,8.5,8.4739,8.4274,8.3986,8.3689,8.3454,8.3238,8.3132,8.2795,8.2889,8.2754,8.2682,8.2709,8.2622,8.2555,8.2511,8.2476,8.257,8.2539,8.2605,8.2677,8.2646,8.2476,8.2531,8.2401,8.2526,8.2652,8.2678,8.2756,8.2686,8.2733,8.2694,8.2863,8.2858,8.2806,8.2747,8.2692,8.2603,8.2664,8.2535,8.2533,8.2521,8.2477,8.2572,8.2351,8.2271,8.2399,8.2419,8.2392,8.232,8.23,8.2351,8.227,8.2357,8.2277,8.2285,8.2381,8.2245,8.2292,8.2241,8.2237,8.2377,8.2446,8.2622,8.2699,8.2897,8.2968,8.305,8.3184,8.2932,8.2499,8.2367,7.9973,7.9814,7.9975,7.9836,8.0014,7.9874,7.9932,7.9864,7.9933,7.98,7.9963,7.9807,7.9911,7.9888,7.9996,7.9989,8.0035,7.998,8.0137,8.009,8.0158,8.0068,8.0172,8.0102,8.0222,8.0198,8.0215,8.0147,8.0238,8.025,8.0285,8.0152,8.0262,8.023,8.0264,8.0351,8.0286,8.0268,8.0348,8.0358,8.0393,8.0328,8.0411,8.0396,8.0364,8.0311,8.0439,8.033,8.0256,8.0334,8.0369,8.0387,8.0337,8.0247,8.0336,8.0335,8.0246,8.0229,8.0185,8.0274,8.0272,8.0162,8.0237,8.0197,8.0188,8.0195,8.0177,8.0111,8.0102,8.0092,8.0114,8.0191,8.007,8.0047,8.0102,8.026,8.0184,8.0227,8.0351,8.0233,8.0541,8.0894,8.0885,8.0802,8.0638,8.0617,8.0673,8.0624,8.0521,8.0482,8.0304,8.025,8.0165,8.0129,8.0126,8.0132,8.0143,8.0223,8.0197,8.0111,8.0139,8.0046,8.0065,8.0139,8.0151,8.0259,7.981,7.8519,7.8138,7.9716,8.1702,8.4973,8.9986,9.2764,9.3899,9.5132,8.9248,8.2551,8.1113,8.0622,8.0848,8.0809,8.0887,8.0773,8.089,8.1025,8.1106,8.1107,8.1142,8.1145,8.1099,8.1118,8.1198,8.1181,8.1038,8.0811,8.0715,8.0641,8.0505,8.0382,8.0209,8.0243,8.0282,8.0371,8.0409,8.06,8.0794,8.0913,8.1078,8.1146,8.1202,8.136,8.1564,8.1758,8.2001,8.2133,8.2232,8.2539,8.267,8.3146,8.3223,8.3353,8.3453,8.3726,8.4035,8.4141,8.4218,8.4398,8.462,8.466,8.469,8.4511,8.4502,8.415,8.3921,8.3553,8.3055,8.2547,8.2212,8.1989,8.1637,8.1414,8.1334,8.1242,8.1053,8.0895,8.0704,8.0651,8.0634,8.0628,8.0611,8.0557,8.0566,8.0613,8.0578,8.0672,8.0623,8.0565,8.0706,8.0772,8.0817,8.0863,8.0927,8.0988,8.1065,8.0996,8.1028,8.1041,8.1001,8.0911,8.0976,8.0936,8.0832,8.0852,8.0916,8.0918,8.0888,8.0946,8.0924,8.0979,8.0888,8.089,8.0864,8.0814,8.0925,8.1003,8.0906,8.0939,8.0908,8.0961,8.099,8.1015,8.0995,8.0974,8.1142,8.113,8.1144,8.1185,8.1137,8.1222,8.1279,8.1258,8.1285,8.1292,8.1278,8.1267,8.1406,8.1279,8.1314,8.138,8.1344,8.145,8.14,8.1382,8.149,8.1571,8.1689,8.1824,8.1825,8.1973,8.1946,8.1959,8.1855,8.2022,8.2044,8.2088,8.2128,8.2087,8.2061,8.2184,8.208,8.2246,8.2306,8.2171,8.2311,8.2351,8.2378,8.2393,8.2432,8.2405,8.2448,8.2524,8.2631,8.2664,8.2746,8.2878,8.2981,8.315,8.3184,8.3385,8.3444,8.3505,8.3658,8.3674,8.3566,8.3493,8.3693,8.3563,8.3567,8.341,8.338,8.3304,8.3352,8.3194,8.3126,8.3297,8.3214,8.3235,8.3339,8.3191,8.327,8.3185,8.319,8.3126,8.2431,8.1145,8.129,8.3238,8.5355,8.8725,9.3391,9.5584,9.5927,9.7164,9.3595,8.6297,8.4115,8.3502,8.3405,8.3527,8.3555,8.3458,8.3594,8.3851,8.3884,8.3917,8.3854,8.4012,8.4,8.4077,8.4017,8.4146,8.4086,8.4018,8.3987,8.3959,8.3686,8.3839,8.3724,8.3754,8.3632,8.3665,8.3719,8.3899,8.3924,8.403,8.413,8.4242,8.4414,8.4569,8.4693,8.4871,8.5003,8.5197,8.546,8.5722,8.5836,8.6162,8.6324,8.6695,8.688,8.6968,8.7349,8.7451,8.7619,8.7766,8.7819,8.7733,8.7636,8.7539,8.7138,8.6772,8.6605,8.6235,8.5846,8.5468,8.5083,8.4698,8.4443,8.4146,8.391,8.3694,8.3574,8.3523,8.3419,8.3301,8.3252,8.3093,8.2958,8.3014,8.3103,8.2926,8.2916,8.2919,8.2839,8.2813,8.2859,8.2798,8.2689,8.2767,8.2638,8.2759,8.2707,8.2679,8.2673,8.2674,8.2603,8.251,8.255,8.2475,8.2309,8.2335,8.239,8.2328,8.2343,8.2352,8.2257,8.2254,8.2167,8.219,8.2192,8.2097,8.1994,8.1972,8.1944,8.2094,8.2063,8.1898,8.1896,8.1871,8.1938,8.1822,8.1773,8.1745,8.165,8.1692,8.1739,8.1638,8.1645,8.1682,8.1663,8.168,8.1695,8.16,8.147,8.1498,8.155,8.1611,8.1628,8.1524,8.155,8.1615,8.1668,8.1588,8.1533,8.1568,8.1651,8.171,8.1844,8.1795,8.1765,8.2075,8.2002,8.2251,8.2604,8.2486,8.251,8.2404,8.242,8.2264,8.2231,8.1945,8.1923,8.1906,8.184,8.1649,8.1557,8.1599,8.1573,8.15,8.1527,8.15,8.1463,8.1402,8.142,8.1417,8.1462,8.1475,8.1506,8.0982,7.9514,7.9461,8.0292,8.2682,8.5329,8.9449,9.2895,9.3507,9.4622,9.0706,8.4173,8.234,8.1809,8.1258,8.1651,8.1622,8.1708,8.1846,8.2016,8.2173,8.2072,8.2118,8.2119,8.2066,8.2058,8.2023,8.2037,8.1978,8.1979,8.2023,8.1954,8.1937,8.1835,8.1852,8.1934,8.1974,8.1977,8.2083,8.2123,8.2215,8.2334,8.2378,8.2478,8.2686,8.2838,8.3092,8.3245,8.344,8.3599,8.3946,8.4141,8.427,8.4554,8.482,8.5069,8.5375,8.5487,8.5682,8.6023,8.6115,8.6266,8.6218,8.6271,8.6204,8.5976,8.57,8.1237,8.0881,8.096,8.039,8.0533,8.025,8.0459,8.0026,8.0192,7.9858,8.005,7.9832,7.9948,7.9729,7.9888,7.9646,7.9882,7.9735,7.9797,7.9671,7.9855,7.9386,7.856,7.7366,7.8383,8.0477,8.291,8.7026,9.098,9.2446,9.371,9.0682,8.2991,8.0154,7.9605,7.945,7.9697,7.9469,7.9635,7.9538,7.9737,7.9703,7.9855,7.9758,7.9877,7.9721,7.9867,7.9799,7.9912,7.99,7.9685,7.9415,7.9302,7.9215,7.9219,7.8954,7.8829,7.8695,7.8657,7.8645,7.862,7.8735,7.8781,7.8981,7.9169,7.935,7.9525,7.9663,7.9817,8.0074,8.0321,8.0529,8.0723,8.1006,8.1258,8.1573,8.1778,8.194,8.1996,8.225,8.2411,8.2576,8.2688,8.2838,8.2807,8.2743,8.2403,8.2084,8.1648,8.1188,8.0862,8.0518,8.0019,7.9664,7.9263,7.9157,7.8862,7.8771,7.8671,7.8537,7.85,7.8359,7.8164,7.8242,7.8117,7.8097,7.8109,7.8162,7.8045,7.807,7.7977,7.8039,7.7901,7.7907,7.785,7.7957,7.8023,7.8114,7.8089,7.8183,7.8242,7.8301,7.8331,7.826,7.8131,7.8007,7.7935,8.2162,8.2791,8.2753,8.3178,8.3116,8.3392,8.32,8.3326,8.2891,8.2739,8.2199,8.2017,8.1472,8.1265,8.0723,8.0572,8.0251,8.0235,7.9907,7.9964,7.969,7.9786,7.9677,7.9757,7.9654,7.9667,7.9653,7.9753,7.9722,7.9751,7.9718,7.9755,7.9769,7.9749,7.9716,7.9764,7.9827,7.9995,8.0139,8.0244,8.0269,8.0376,8.0352,8.0454,8.041,8.0404,8.0316,8.0309,8.0243,8.0155,8.0029,7.9918,7.9822,7.9728,7.9631,7.9512,7.9432,7.9288,7.9188,7.9104,7.8904,7.872,7.857,7.8404,7.8317,7.8119,7.8011,7.7818,7.7627,7.7398,7.727,7.7042,7.6997,7.6866,7.6846,7.6755,7.6743,7.6829,7.6879,7.6926,7.7086,7.7083,7.7222,7.7565,7.7989,7.8096,7.82,7.823,7.826,7.8267,7.8225,7.8196,7.8398,7.8485,7.8669,7.8822,7.8906,7.9083,7.9258,7.9336,7.9447,7.954,7.9576,7.9678,7.9703,7.9726,7.9699,7.9632,7.9304,7.8299,7.718,7.8297,8.0648,8.3064,8.7486,9.0895,9.1783,9.2737,8.862,8.4525,8.0445,7.9306,7.9241,7.9121,7.9452,7.9198,7.9605,7.9399,7.9733,7.9578,7.9893,7.964,7.9776,7.9619,7.9848,7.9744,7.9848,7.9599,7.9563,7.9303,7.9315,7.9057,7.8912,7.8591,7.8477,7.8241,7.8327,7.8263,7.8377,7.8433,7.8681,7.8829,7.9015,7.9134,7.939,7.96,7.9885,8.0126,8.047,8.0566,8.0897,8.1244,8.1559,8.1827,8.2063,8.2339,8.2644,8.2845,8.3002,8.3192,8.3204,8.3297,8.3125,8.2856,8.2465,8.2079,8.1648,8.1241,8.0784,8.0613,8.0202,7.9947,7.966,7.9482,7.9248,7.9141,7.9016,7.8981,7.8901,7.8891,7.8799,7.8893,7.8883,7.8912,7.893,7.8886,7.8915,7.8969,7.8917,7.901,7.9021,7.9127,7.9127,7.9275,7.9178,7.9246,7.9193,7.925,7.9168,7.9199,7.902,7.9027,7.901,7.8956,7.8875,7.8884,7.8822,7.8849,7.8895,7.8836,7.8836,7.8856,7.8939,7.896,7.8873,7.8867,7.8786,7.8732,7.8704,7.8683,7.8622,7.8565,7.8555,7.8592,7.8506,7.8505,7.849,7.8501,7.8542,7.858,7.8574,7.8656,7.875,7.8869,7.8981,7.9099,7.9152,7.9435,7.9776,8.0003,8.0059,8.0033,8.0075,7.9902,7.9721,7.9543,7.9456,7.947,7.9522,7.9533,7.9493,7.9543,7.9572,7.96,7.9646,7.9693,7.9683,7.9691,7.9806,7.9843,7.9834,7.9879,7.9838,7.9308,7.8043,7.7686,7.9596,8.1789,8.4962,8.7555,9.1178,9.2468,9.316,9.0161,8.3199,8.0833,8.0029,8.0089,8.0167,8.032,8.031,8.0391,8.0469,8.0564,8.0549,8.0619,8.0503,8.0565,8.0573,8.0674,8.0785,8.0764,8.0599,8.0584,8.0454,8.04,8.0269,8.0204,8.0097,8.0037,8.0079,8.0145,8.014,8.0266,8.0384,8.0514,8.0645,8.0823,8.0946,8.1029,8.121,8.139,8.1579,8.1725,8.2002,8.2291,8.2588,8.2798,8.3004,8.3176,8.3506,8.3663,8.3843,8.3931,8.4016,8.4084,8.4049,8.3838,8.3511,8.3292,8.3012,8.2646,8.2249,8.1747,8.1424,8.1129,8.0927,8.0706,8.0537,8.0352,8.0246,8.015,8.0159,8.0046,8.0001,8.0007,7.9994,7.991,7.9932,7.9873,7.9913,7.9915,7.9999,7.9965,8.0018,8.0049,8.0196,8.0293,8.0384,8.0378,8.0451,8.0437,8.0507,8.0453,8.0428,8.0352,8.0329,8.0287,8.0271,8.0217,8.0234,8.0229,8.0287,8.0269,8.0261,8.0239,8.0267,8.0252,8.025,8.0174,8.0192,8.0233,8.0292,8.0324,8.0287,8.0269,8.0312,8.0277,8.0314,8.029,8.0279,8.0219,8.0302,8.0376,8.0279,8.0271,8.0405,8.0412,8.0587,8.064,8.0665,8.0825,8.1091,8.146,8.1494,8.1501,8.149,8.1444,8.1322,8.1223,8.0965,8.0941,8.0898,8.0896,8.0892,8.0877,8.0959,8.0966,8.1003,8.104,8.1029,8.0982,8.1039,8.1077,8.107,8.1067,8.1043,8.0743,7.9589,7.8908,7.927,8.1542,8.37,8.7506,9.1961,9.3514,9.4091,9.2399,8.5373,8.1897,8.1704,8.0893,8.1194,8.1196,8.1313,8.129,8.1469,8.1447,8.1585,8.1547,8.1648,8.1525,8.1544,8.1515,8.1621,8.1561,8.1553,8.1343,8.127,8.1097,8.1072,8.0821,8.0712,8.0724,8.0791,8.0864,8.088,8.0995,8.1244,8.1339,8.1612,8.1785,8.194,8.2176,8.2457,8.2725,8.2962,8.3267,8.3554,8.3828,8.4121,8.4445,8.4649,8.4948,8.5191,8.5433,8.5639,8.5787,8.5884,8.5994,8.593,8.5899,8.5627,8.5311,8.4991,8.4608,8.436,8.4057,8.3688,8.3487,8.335,8.3367,8.3166,8.3096,8.3154,8.3557,8.3462,8.351,8.352,8.3589,8.3809,8.3902,8.3912,8.4039,8.4044,8.4209,8.4315,8.4384,8.4404,8.4425,8.4509,8.4601,8.4538,8.4739,8.481,8.4752,8.4893,8.486,8.4836,8.4904,8.48,8.4812,8.4793,8.4781,8.4658,8.4668,8.4744,8.4662,8.4559,8.4569,8.4465,8.4468,8.4568,8.4529,8.4388,8.4208,8.4277,8.4227,8.4179,8.4297,8.4232,8.4163,8.4039,8.4247,8.398,8.3817,8.3837,8.3919,8.3909,8.3973,8.4022,8.399,8.4109,8.4257,8.4578,8.472,8.4717,8.4881,8.4783,8.4692,8.4393,8.416,8.4149,8.4047,8.4165,8.3981,8.4247,8.4226,8.453,8.4626,8.4805,8.4819,8.4891,8.5064,8.5024,8.5207,8.5337,8.538,8.5147,8.4803,8.3437,8.3417,8.5772,8.8012,9.1501,9.6272,9.8104,9.8658,9.7765,9.0848,8.6868,8.6246,8.5654,8.5956,8.6055,8.5848,8.5619,8.5711,8.5886,8.5961,8.5773,8.5924,8.5604,8.5642,8.587,8.5871,8.5744,8.5772,8.5522,8.5555,8.5461,8.551,8.5211,8.5031,8.51,8.4936,8.4713,8.4831,8.4964,8.4994,8.504,8.5054,8.5156,8.5295,8.5499,8.5713,8.5705,8.5661,8.6084,8.6322,8.6504,8.6645,8.6843,8.7044,8.7249,8.7468,8.7708,8.7586,8.7682,8.7822,8.7819,8.7913,8.7446,8.7127,8.685,8.6395,8.5868,8.5438,8.4897,8.4489,8.4209,8.3894,8.3529,8.3219,8.308,8.3006,8.278,8.2662,8.2485,8.2294,8.2402,8.2244,8.2133,8.2013,8.2014,8.1981,8.1983,8.172,8.1694,8.1588,8.1609,8.158,8.1477,8.1307,8.1144,8.1267,8.1136,8.1334,8.0975,8.074,8.0732,8.0716,8.0849,8.068,8.0565,8.0657,8.0603,8.0439,8.0635,8.0519,8.0496,8.0368,8.0342,8.0301,8.0361,8.0184,8.0291,8.0163,8.0154,8.0128,8.0058,8.0024,8.0166,8.0188,8.0178,8.0128,8.0347,8.0425,8.0702,8.0828,8.0964,8.0909,8.0842,8.0718,8.0512,8.0138,8.0146,7.9987,8.0132,7.9921,7.9761,7.9791,7.9553,7.9728,7.9865,7.9868,7.9867,7.9797,7.9701,7.9707,7.9789,7.9824,7.9763,7.9383,7.7937,7.753,7.9477,8.2043,8.3437,8.7512,9.1355,9.2213,9.2609,8.8455,8.2657,8.0943,8.0416,7.997,8.0347,8.0251,8.0201,8.0431,8.0601,8.086,8.0649,8.0738,8.079,8.0758,8.0725,8.0914,8.0835,8.0863,8.0897,8.0991,8.1047,8.0855,8.0768,8.0899,8.083,8.0962,8.0928,8.0842,8.0934,8.1087,8.1116,8.1188,8.1428,8.1695,8.1646,8.1991,8.1949,8.2316,8.232,8.2552,8.2865,8.323,8.32,8.3381,8.3664,8.3968,8.4161,8.4137,8.4306,8.4448,8.4425,8.4402,8.4302,8.39,8.3729,8.3432,8.2977,8.2633,8.2307,8.1963,8.1438,8.1397,8.0994,8.0813,8.0765,8.0539,8.0584,8.0427,8.0346,8.0301,8.0218,8.0287,8.0288,8.024,8.0227,8.0149,8.0151,8.0129,8.0046,8.0046,8.0303,8.0144,8.0175,8.0106,8.0137,8.0142,8.0096,8.0191,8.0146,8.0254,8.0143,8.0194,8.0148,7.9986,8.0006,7.9996,8.0111,8.0124,8.0045,8.007,8.0057,8.0078,8.0301,8.0206,8.028,8.0286,8.0566,8.068,8.0829,8.081,8.0825,8.0782,8.0753,8.0694,8.054,8.0248,8.0082,8.0006,7.9912,7.9847,7.9945,7.991,7.993,7.9872,7.9912,7.9958,7.9901,7.991,8.0001,7.9927,8,7.9975,8.006,7.9664,7.9247,7.7913,7.8367,8.0887,8.3456,8.7428,9.1434,9.2172,9.316,8.9855,8.335,8.1431,8.0829,8.043,8.0724,8.0863,8.0753,8.1036,8.12,8.1563,8.1483,8.15,8.1486,8.1584,8.1589,8.1716,8.1612,8.1722,8.1613,8.1709,8.1767,8.1663,8.1765,8.1705,8.1713,8.1777,8.171,8.1768,8.1839,8.1786,8.182,8.208,8.2135,8.2312,8.256,8.2789,8.2945,8.3062,8.326,8.3608,8.3663,8.4098,8.4298,8.4425,8.4695,8.4805,8.4924,8.5176,8.5249,8.5435,8.5553,8.5403,8.5327,8.4958,8.4584,8.4242,8.369,8.3341,8.2939,8.2488,8.2301,8.2034,8.1774,8.1504,8.1496,8.1305,8.1168,8.1042,8.0954,8.1031,8.0976,8.0893,8.0841,8.0667,8.0585,8.0578,8.0599,8.064,8.0573,8.0538,8.0566,8.0657,8.0639,8.0618,8.0679,8.06,8.0683,8.0588,8.0654,8.0638,8.0757,8.0664,8.0668,8.0613,8.0417,8.0522,8.0611,8.0524,8.0357,8.0291,8.0262,8.0379,8.0362,8.0191,8.0328,8.0277,8.0363,8.0393,8.0341,8.0387,8.0453,8.0566,8.0627,8.079,8.1038,8.1114,8.1122,8.1128,8.1136,8.0943,8.0524,8.0317,8.0128,8.0073,8.0011,7.992,7.9869,7.9835,7.9799,7.9683,7.9611,7.9592,7.9569,7.9581,7.9585,7.9608,7.9627,7.9826,7.9753,7.934,7.8206,7.7304,7.8636,8.0883,8.3592,8.843,9.1809,9.2907,9.384,8.7996,8.4014,8.0822,7.9784,7.9969,7.9722,8.0053,7.9669,8.0096,7.9918,8.0276,7.9886,8.0087,7.9975,8.0123,7.9959,8.0243,8.0113,8.0429,8.0211,8.0276,8.0038,8.0017,7.9908,7.9967,7.9875,7.984,7.9691,7.9955,7.9898,8.0039,8.014,8.0325,8.0379,8.0709,8.0856,8.1032,8.1158,8.1518,8.1679,8.2044,8.2084,8.2328,8.2519,8.2872,8.3188,8.3609,8.3727,8.3941,8.4216,8.4354,8.4441,8.4293,8.4168,8.3979,8.3627,8.3284,8.2854,8.2387,8.205,8.1657,8.1581,8.136,8.1117,8.091,8.0794,8.0549,8.0534,8.036,8.0432,8.0488,8.0407,8.0296,8.0382,8.032,8.0526,8.0521,8.0422,8.0354,8.0477,8.0497,8.065,8.0576,8.0733,8.0767,8.0877,8.0908,8.0863,8.0936,8.0927,8.0844,8.0779,8.0697,8.0594,8.0407,8.0527,8.033,8.0299,8.0211,8.0294,8.0128,8.0149,8.0169,8.0108,8.0008,8.0001,7.9987,8.009,8.0061,8.0102,8.02,8.0192,8.0334,8.0207,8.0153,8.015,8.015,8.025,8.0094,8.0155,8.0113,8.0107,8.0152,8.0197,8.0033,8.021,8.0117,8.0095,8.0011,8.0044,7.9927,7.9918,7.9984,7.9952,7.9907,7.9948,8.0082,8.0144,8.0191,8.0218,8.0233,8.022,8.0141,8.0254,8.036,8.0402,8.0318,8.0299,8.0452,8.041,8.0374,8.0343,8.0413,8.038,8.036,8.0393,8.0435,8.0516,8.0496,8.0626,8.0476,8.0495,8.0847,8.1198,8.1241,8.1167,8.1272,8.1153,8.1039,8.0871,8.059,8.0403,8.0402,8.0283,8.0219,8.0024,7.9993,8.0063,8.0108,7.9932,7.9808,7.9781,7.9802,7.9869,7.9939,7.9855,7.9831,7.9712,7.9219,7.7826,7.7476,7.9228,8.1295,8.4524,8.9576,9.2094,9.2961,9.3537,8.6862,8.1102,8.0238,7.9709,7.9842,7.9692,7.9843,7.9655,7.981,7.9749,8.0037,7.98,7.9883,7.9783,7.9933,7.9914,7.9949,8.004,7.9916,7.9706,7.9555,7.932,7.9154,7.9037,7.894,7.8833,7.8993,7.898,7.9181,7.9221,7.9438,7.9561,7.9814,7.9876,8.012,8.0202,8.0483,8.067,8.0918,8.1089,8.137,8.1686,8.2073,8.2241,8.2375,8.2653,8.2865,8.3129,8.331,8.3567,8.3681,8.3855,8.3903,8.3887,8.3625,8.333,8.3007,8.2678,8.232,8.2056,8.1587,8.1302,8.0915,8.0804,8.0557,8.0391,8.0211,8.0136,8.0038,8.0023,7.9831,7.9859,7.9821,7.9788,7.9764,7.9737,7.9715,7.9728,7.9725,7.9712,7.9709,7.9795,7.9909,7.9974,8.0023,8.0047,8.0174,8.0238,8.0247,8.0221,8.0165,8.0211,7.9969,7.9991,8.0038,7.9993,7.9863,7.9835,7.9764,7.9798,7.9804,7.979,7.9798,7.9841,7.9907,7.9779,7.9812,7.9776,7.9805,7.9901,7.9998,7.9961,7.9854,8.0053,8.0031,8.0133,8.0048,8.0008,7.9993,8.0069,7.9959,8.0127,8.0024,8.0045,8.0081,8.0148,8.0125,8.0178,8.0133,8.0235,8.0285,8.0217,8.0127,8.0207,8.0314,8.0296,8.0271,8.0388,8.0433,8.0527,8.0616,8.0632,8.0748,8.0781,8.0854,8.0899,8.0895,8.0866,8.0894,8.0792,8.0896,8.0834,8.0944,8.1076,8.0967,8.0991,8.095,8.0859,8.0955,8.0948,8.1032,8.1053,8.0981,8.09,8.1058,8.107,8.1159,8.1223,8.1175,8.1163,8.1409,8.1397,8.1488,8.1927,8.2256,8.2279,8.2319,8.2257,8.2226,8.207,8.1886,8.1758,8.1762,8.1797,8.172,8.1688,8.1662,8.1618,8.1502,8.1581,8.1695,8.1706,8.1719,8.1718,8.18,8.1906,8.1987,8.197,8.1675,8.0753,7.9787,8.083,8.3287,8.4282,8.767,9.258,9.48,9.5448,9.5573,8.8787,8.3673,8.3157,8.263,8.2846,8.2877,8.3024,8.2957,8.3319,8.3412,8.3564,8.3402,8.3393,8.3307,8.3527,8.3538,8.3658,8.3581,8.3711,8.3444,8.3377,8.3143,8.3154,8.2855,8.3028,8.2943,8.2918,8.2989,8.3118,8.3291,8.3341,8.3416,8.3611,8.3755,8.3933,8.4059,8.421,8.442,8.4727,8.4956,8.5416,8.5483,8.583,8.6135,8.6525,8.6753,8.7055,8.74,8.752,8.766,8.7975,8.8086,8.8124,8.8255,8.8156,8.7905,8.7592,8.7249,8.6989,8.6605,8.6216,8.6015,8.5602,8.5459,8.4949,8.5172,8.4926,8.478,8.4711,8.4755,8.4553,8.4652,8.4748,8.4703,8.4664,8.4709,8.4843,8.4777,8.4742,8.4735,8.4848,8.4961,8.4942,8.4914,8.4919,8.4964,8.4946,8.4946,8.4801,8.4816,8.4841,8.4893,8.4647,8.4654,8.4492,8.4497,8.4461,8.4406,8.4412,8.4257,8.4203,8.4154,8.4103,8.3957,8.3988,8.3958,8.3972,8.3824,8.3892,8.3803,8.3711,8.3716,8.3687,8.3694,8.3653,8.3585,8.3593,8.361,8.3416,8.3433,8.3367,8.3383,8.3372,8.3358,8.3341,8.3292,8.3229,8.3303,8.3168,8.3344,8.3241,8.3083,8.3032,8.2996,8.2957,8.2914,8.2852,8.2867,8.2942,8.2973,8.2975,8.2945,8.2875,8.2965,8.2771,8.2832,8.2999,8.3001,8.31,8.3049,8.2932,8.3233,8.3569,8.3738,8.3681,8.3497,8.3534,8.3504,8.3222,8.2984,8.2878,8.2586,8.2588,8.2536,8.239,8.226,8.2344,8.2355,8.228,8.2132,8.2157,8.219,8.2188,8.214,8.2253,8.2192,8.2088,8.2045,8.1479,7.9946,8.0359,8.2583,8.5165,8.8609,9.2851,9.4076,9.4244,9.2655,8.603,8.2927,8.2445,8.1735,8.213,8.2075,8.2135,8.2119,8.2196,8.2372,8.2602,8.2617,8.2636,8.2555,8.2565,8.2611,8.2857,8.2744,8.2578,8.2646,8.2693,8.2662,8.2701,8.2673,8.2614,8.2619,8.2714,8.2806,8.274,8.2882,8.2897,8.3033,8.3248,8.3327,8.3546,8.3808,8.3895,8.4049,8.4267,8.4433,8.4763,8.5028,8.5246,8.5473,8.5614,8.5739,8.6037,8.6102,8.6299,8.6468,8.6645,8.6748,8.6931,8.6811,8.639,8.6175,8.5757,8.5388,8.483,8.4444,8.3984,8.3784,8.3452,8.3278,8.2922,8.2842,8.273,8.2395,8.2318,8.2282,8.2259,8.2177,8.216,8.2047,8.2038,8.1961,8.1917,8.1786,8.198,8.2072,8.1882,8.1943,8.1943,8.1869,8.1924,8.1866,8.189,8.194,8.2057,8.2029,8.2101,8.2036,8.2011,8.2139,8.2234,8.211,8.2014,8.2125,8.2126,8.2178,8.2153,8.2137,8.2229,8.2226,8.2187,8.2198,8.2323,8.2437,8.2331,8.2411,8.2422,8.2281,8.2461,8.2468,8.2528,8.2482,8.2363,8.2317,8.2471,8.2483,8.2508,8.2561,8.2588,8.2809,8.2695,8.2767,8.2842,8.32,8.3492,8.3615,8.3533,8.3459,8.3333,8.3152,8.2956,8.277,8.2643,8.2556,8.2535,8.2413,8.2421,8.2514,8.2382,8.232,8.2236,8.225,8.2294,8.2296,8.2246,8.2296,8.2346,8.2412,8.2251,8.137,8.0087,8.0741,8.3035,8.554,8.9467,9.3374,9.4592,9.5483,9.3088,8.5786,8.3063,8.2925,8.207,8.2417,8.2365,8.2439,8.238,8.2609,8.2737,8.2609,8.2725,8.2791,8.2683,8.2795,8.2695,8.2633,8.2694,8.2722,8.2516,8.2416,8.2376,8.2397,8.2299,8.2105,8.2052,8.1975,8.2055,8.2076,8.2163,8.2098,8.2193,8.2423,8.2521,8.2713,8.2881,8.304,8.3214,8.3463,8.3623,8.3841,8.4074,8.4142,8.4508,8.4682,8.4884,8.5079,8.5318,8.5539,8.5595,8.5742,8.584,8.5858,8.5704,8.5316,8.4957,8.4465,8.4145,8.3773,8.3349,8.2928,8.2596,8.2511,8.2364,8.2138,8.1918,8.1745,8.1628,8.1572,8.1581,8.1426,8.1418,8.1331,8.1377,8.1401,8.1201,8.1157,8.1276,8.1195,8.115,8.1277,8.1267,8.1303,8.1392,8.1491,8.1568,8.166,8.1668,8.1731,8.1724,8.1673,8.1728,8.162,8.1618,8.163,8.1587,8.1447,8.1501,8.1421,8.1436,8.1376,8.1363,8.1359,8.1293,8.1395,8.1336,8.127,8.127,8.1314,8.119,8.1181,8.1283,8.1139,8.1089,8.1127,8.108,8.11,8.105,8.0949,8.0889,8.0939,8.0865,8.0817,8.0699,8.0728,8.0804,8.0807,8.0698,8.0564,8.0596,8.0687,8.0606,8.0626,8.0526,8.0518,8.0571,8.0628,8.0698,8.0748,8.079,8.0731,8.0941,8.092,8.084,8.0912,8.0975,8.1092,8.1099,8.1109,8.1249,8.137,8.1388,8.1531,8.1836,8.2004,8.2291,8.2221,8.218,8.2097,8.1882,8.1733,8.1614,8.1488,8.1435,8.1419,8.1218,8.1098,8.112,8.1043,8.1023,8.0988,8.0923,8.0859,8.0853,8.0898,8.082,8.08,8.0713,8.0376,7.9434,7.8362,7.9358,8.057,8.2431,8.6033,9.0607,9.2955,9.3846,9.4238,8.6987,8.1696,8.0882,8.0426,8.0496,8.0397,8.0361,8.0253,8.0418,8.044,8.0396,8.0307,8.0316,8.0188,8.0147,8.0017,8.0021,7.9824,7.9598,7.9248,7.8829,7.8395,7.8086,7.7688,7.735,7.6947,7.6704,7.6503,7.6451,7.6397,7.6287,7.6226,7.6169,7.6176,7.6242,7.6244,7.6337,7.6446,7.6621,7.6762,7.7046,7.7237,7.7444,7.7681,7.7983,7.8251,7.8488,7.885,7.9196,7.9417,7.97,7.9866,7.9996,8.0038,7.9961,7.9845,7.957,7.9232,7.8894,7.8655,7.84,7.8116,7.7765,7.7559,7.7404,7.7261,7.7115,7.7005,7.6954,7.6895,7.6897,7.6943,7.6914,7.6952,7.7024,7.7076,7.7177,7.7135,7.7168,7.733,7.7403,7.763,7.7705,7.7753,7.7817,7.7989,7.812,7.8154,7.8182,7.8207,7.8157,7.8104,7.7989,7.7976,7.7962,7.7966,7.7981,7.7975,7.7955,7.7902,7.7919,7.8036,7.8058,7.812,7.8179,7.8238,7.8192,7.8212,7.8247,7.8385,7.8557,7.8608,7.8636,7.8634,7.8721,7.8943,7.8928,7.8987,7.9112,7.9145,7.9235,7.936,7.9435,7.9402,7.9514,7.9595,7.9631,7.9718,7.98,7.9831,7.989,8.0036,8.0057,8.0053,8.0099,8.0267,8.0329,8.0431,8.0516,8.0617,8.0752,8.0867,8.0925,8.0965,8.1026,8.1029,8.1143,8.1176,8.1232,8.1288,8.1312,8.1352,8.1463,8.1451,8.1421,8.1473,8.1541,8.161,8.1637,8.158,8.1608,8.1646,8.1709,8.1663,8.1681,8.1701,8.1737,8.1767,8.1894,8.1905,8.1849,8.1869,8.1994,8.2029,8.2016,8.2203,8.2551,8.2784,8.2834,8.2675,8.2685,8.2568,8.2384,8.2243,8.2175,8.2192,8.215,8.2034,8.1989,8.1995,8.1943,8.2009,8.2081,8.209,8.2098,8.2043,8.215,8.2175,8.2194,8.2235,8.1981,8.1078,8.002,8.1118,8.3443,8.5761,9.0319,9.3796,9.5161,9.6336,9.3314,8.6221,8.3607,8.3566,8.2945,8.3215,8.3222,8.3346,8.3452,8.3719,8.3816,8.4004,8.3966,8.4126,8.4157,8.4192,8.4211,8.4353,8.4284,8.4357,8.4167,8.4103,8.3986,8.3984,8.3959,8.3934,8.4009,8.4057,8.415,8.4418,8.459,8.476,8.4816,8.5033,8.5271,8.5369,8.553,8.568,8.5925,8.6268,8.6485,8.6713,8.6983,8.7048,8.7441,8.7609,8.7835,8.835,8.8633,8.9001,8.9235,8.965,8.9861,9.0019,9.0219,9.0164,9.0096,8.9901,8.96,8.9235,8.8982,8.8651,8.8282,8.8196,8.7963,8.7577,8.7343,8.7135,8.706,8.7009,8.7023,8.7055,8.7065,8.6891,8.7018,8.6962,8.719,8.7339,8.7353,8.7491,8.7553,8.7661,8.7792,8.7855,8.7906,8.8035,8.8271,8.8344,8.8377,8.8379,8.844,8.8558,8.8461,8.8327,8.8275,8.8201,8.8179,8.8085,8.8138,8.813,8.825,8.834,8.8247,8.8308,8.8425,8.8658,8.8565,8.8687,8.868,8.8732,8.8833,8.8825,8.8874,8.8929,8.8872,8.8982,8.891,8.8815,8.8839,8.8781,8.8722,8.8797,8.8848,8.8749,8.8705,8.8608,8.8639,8.8537,8.8591,8.8318,8.8375,8.8238,8.8075,8.8242,8.8268,8.8128,8.8234,8.8143,8.8068,8.7963,8.7926,8.8144,8.8245,8.8284,8.808,8.8108,8.8007,8.8118,8.816,8.8051,8.797,8.7954,8.7962,8.7941,8.7936,8.7997,8.8072,8.7863,8.7898,8.7937,8.7888,8.8034,8.8398,8.8473,8.8545,8.8402,8.8378,8.8293,8.8073,8.784,8.7631,8.7594,8.7515,8.7288,8.7303,8.7181,8.6949,8.6938,8.704,8.6969,8.6972,8.6929,8.6904,8.6899,8.6862,8.6766,8.6629,8.6414,8.5091,8.4533,8.6183,8.8477,9.1474,9.6049,9.8291,9.8509,9.9171,9.3326,8.7934,8.7169,8.6276,8.6384,8.6269,8.637,8.6356,8.6319,8.6426,8.6595,8.6662,8.6579,8.6522,8.6592,8.6505,8.6445,8.648,8.6494,8.6403,8.6377,8.6208,8.6162,8.609,8.5962,8.5892,8.5922,8.6026,8.6076,8.6099,8.6122,8.623,8.6268,8.6447,8.6682,8.66,8.6903,8.7058,8.7124,8.737,8.7573,8.7746,8.7921,8.8096,8.8388,8.8549,8.8771,8.8868,8.9149,8.9272,8.9442,8.9554,8.9618,8.9587,8.9477,8.9259,8.901,8.8629,8.8188,8.7689,8.7229,8.6831,8.6435,8.6115,8.5938,8.5742,8.5606,8.5258,8.5229,8.5072,8.499,8.4857,8.4753,8.482,8.4829,8.4658,8.4667,8.475,8.4542,8.4554,8.4529,8.4457,8.437,8.4411,8.4484,8.4421,8.4477,8.4423,8.4346,8.427,8.4353,8.4504,8.4211,8.4108,8.421,8.4198,8.406,8.4139,8.4177,8.409,8.3977,8.3978,8.4019,8.3977,8.4077,8.4101,8.4037,8.4074,8.414,8.4186,8.4109,8.4155,8.4037,8.4107,8.402,8.4078,8.4124,8.4132,8.3958,8.4009,8.4037,8.4083,8.4044,8.4128,8.4228,8.4258,8.4315,8.4475,8.4705,8.4944,8.4993,8.506,8.5049,8.4804,8.4657,8.4357,8.4247,8.4185,8.4192,8.4074,8.3962,8.3986,8.3964,8.3861,8.3959,8.3955,8.3837,8.3789,8.3767,8.3758,8.3707,8.3844,8.3801,8.3434,8.2552,8.1576,8.2783,8.5173,8.794,9.2206,9.5161,9.5409,9.6342,9.1638,8.6002,8.504,8.4399,8.3724,8.39,8.424,8.4093,8.4318,8.4472,8.4644,8.474,8.495,8.4869,8.5051,8.4806,8.4992,8.5056,8.5165,8.5023,8.5038,8.4901,8.4952,8.4923,8.4931,8.4763,8.4874,8.4781,8.4809,8.5024,8.5104,8.5102,8.5218,8.5404,8.564,8.5689,8.5929,8.6009,8.6202,8.6485,8.6647,8.6828,8.7002,8.7174,8.7435,8.7596,8.787,8.7964,8.8197,8.848,8.8637,8.8679,8.8696,8.864,8.8344,8.8078,8.7625,8.7106,8.6622,8.6208,8.5768,8.5382,8.5083,8.4825,8.4342,8.4282,8.3889,8.3742,8.3539,8.3454,8.3311,8.3273,8.3105,8.2973,8.2971,8.2952,8.2864,8.2773,8.2663,8.2545,8.2555,8.2596,8.2548,8.2557,8.2542,8.2668,8.2624,8.2588,8.2455,8.2526,8.2595,8.2477,8.2406,8.2302,8.2115,8.2092,8.2039,8.1994,8.1896,8.1784,8.18,8.1689,8.164,8.1518,8.1458,8.1307,8.1379,8.1332,8.1082,8.1011,8.0926,8.0821,8.0704,8.0626,8.0546,8.034,8.0299,8.0322,8.0239,8.0293,8.033,8.0354,8.0377,8.056,8.0662,8.0717,8.0744,8.0758,8.0448,8.0206,7.9943,7.995,7.9809,7.9761,7.965,7.9613,7.9588,7.9623,7.9736,7.9665,7.9698,7.9645,7.9669,7.971,7.9661,7.9646,7.9651,7.9605,7.9182,7.7985,7.7504,7.9304,8.1444,8.4531,8.9474,9.2034,9.2794,9.3509,8.6817,8.0994,8.016,7.9708,7.9914,7.9929,8.0122,7.9905,8.0104,8.0224,8.0349,8.0304,8.0421,8.0391,8.0359,8.0345,8.0581,8.0601,8.0686,8.0544,8.0445,8.02,8.0108,7.9954,7.9904,7.9979,8.009,7.9972,8.0075,8.0165,8.0449,8.0611,8.0885,8.1074,8.1335,8.1653,8.1941,8.2156,8.2358,8.2602,8.2794,8.3131,8.3462,8.3696,8.3896,8.4237,8.4504,8.4873,8.5139,8.5514,8.5839,8.6048,8.6259,8.6253,8.6184,8.5912,8.5822,8.5498,8.5188,8.4942,8.4726,8.4567,8.4386,8.4253,8.4232,8.4055,8.4045,8.4013,8.3912,8.3922,8.3865,8.3916,8.3931,8.3843,8.3817,8.3807,8.3914,8.3943,8.377,8.3788,8.3834,8.3877,8.386,8.3966,8.3986,8.4053,8.4189,8.4281,8.4279,8.4314,8.4254,8.428,8.4302,8.4277,8.4061,8.4167,8.4286,8.4172,8.4125,8.4136,8.4172,8.4139,8.4183,8.4292,8.4265,8.4288,8.4361,8.4435,8.4451,8.4512,8.4574,8.458,8.4673,8.4753,8.4888,8.4955,8.495,8.5008,8.5181,8.526,8.5381,8.5757,8.6012,8.5987,8.6021,8.6031,8.6075,8.5874,8.5696,8.5499,8.5432,8.5468,8.5297,8.5275,8.5277,8.538,8.5368,8.5529,8.5598,8.5823,8.5798,8.5801,8.5909,8.6011,8.6099,8.6078,8.6037,8.5419,8.4109,8.3775,8.5892,8.7946,9.1396,9.6562,9.8819,9.9441,9.9303,9.2092,8.7009,8.6413,8.5761,8.5797,8.5654,8.5708,8.5603,8.5866,8.5637,8.5649,8.556,8.5581,8.532,8.5272,8.5168,8.5298,8.5308,8.5402,8.5256,8.5233,8.5084,8.4965,8.4802,8.4742,8.4503,8.4535,8.4477,8.4477,8.4423,8.4516,8.4675,8.4743,8.481,8.5064,8.5229,8.5311,8.5446,8.5822,8.6052,8.6336,8.6657,8.6923,8.724,8.7566,8.7867,8.8227,8.8359,8.8662,8.8825,8.8983,8.9118,8.9073,8.9031,8.883,8.8464,8.806,8.7649,8.7291,8.6948,8.6552,8.6406,8.6045,8.5905,8.5799,8.5696,8.5702,8.5733,8.5651,8.5634,8.561,8.5666,8.565,8.5735,8.5746,8.5806,8.5747,8.5841,8.5869,8.5931,8.6011,8.609,8.6114,8.6319,8.6412,8.6536,8.6475,8.6504,8.651,8.6532,8.6372,8.6286,8.6191,8.6153,8.6049,8.5959,8.5859,8.5791,8.5729,8.5688,8.5621,8.5524,8.5404,8.5314,8.5309,8.5204,8.5086,8.5064,8.5015,8.4971,8.4903,8.4955,8.4926,8.4852,8.4826,8.4945,8.4851,8.4924,8.4933,8.5284,8.5532,8.5471,8.5521,8.544,8.5249,8.5009,8.4761,8.4686,8.4642,8.451,8.461,8.4597,8.4551,8.4557,8.4593,8.4673,8.4713,8.4758,8.4808,8.4849,8.4989,8.5101,8.5068,8.4986,8.4373,8.292,8.2731,8.3604,8.5934,8.8478,8.8506,9.6366,9.7903,9.7951,9.4375,8.7359,8.5611,8.438,8.4662,8.4231,8.4513,8.4075,8.4384,8.4033,8.4327,8.3936,8.4108,8.3756,8.3816,8.3501,8.3701,8.3485,8.3595,8.3233,8.3176,8.2763,8.2689,8.2239,8.2099,8.1718,8.16,8.1372,8.1424,8.1266,8.1377,8.1312,8.1507,8.1474,8.1634,8.1697,8.1869,8.2024,8.229,8.2496,8.2781,8.3033,8.3362,8.3751,8.413,8.447,8.4761,8.5094,8.5458,8.5751,8.6018,8.6245,8.6307,8.6313,8.6242,8.6083,8.5762,8.5555,8.5261,8.5071,8.4834,8.4688,8.4529,8.4497,8.4437,8.4495,8.4466,8.4533,8.451,8.4634,8.4631,8.4697,8.4693,8.4817,8.4842,8.4917,8.4865,8.4944,8.4927,8.5002,8.4911,8.5059,8.5075,8.523,8.5241,8.5295,8.5198,8.5239
