3.3894,3.4181,3.4264,3.4681,3.5106,3.4663,3.4476,3.4172,3.4283,3.5055,3.5227,3.4442,3.4614,3.478,3.4297,3.4393,3.4321,3.4366,3.4177,3.3261,3.3697,3.3476,3.3584,3.4067,3.3383,3.3594,3.3717,3.3116,3.2709,3.3614,3.3917,3.35,3.361,3.3587,3.3653,3.3221,3.242,3.1963,3.2354,3.3769,3.5243,3.8669,4.2567,4.6148,4.8955,4.876,4.5969,4.0624,3.7504,3.5811,3.4269,3.3701,3.4012,3.4269,3.4185,3.4026,3.3759,3.365,3.3318,3.3628,3.3595,3.3768,3.3601,3.3537,3.3347,3.3737,3.3571,3.3656,3.3763,3.3281,3.3463,3.3619,3.3799,3.392,3.355,3.4313,3.386,3.3772,3.4147,3.3878,3.419,3.3906,3.4063,3.418,3.4024,3.4328,3.4423,3.419,3.4434,3.4916,3.5584,3.5217,3.5393,3.5007,3.5342,3.5784,3.5984,3.6066,3.5921,3.5917,3.6218,3.6627,3.6407,3.621,3.6516,3.7154,3.661,3.6419,3.608,3.6276,3.5696,3.5263,3.5551,3.5477,3.451,3.4366,3.427,3.4265,3.4051,3.3682,3.4018,3.3995,3.4246,3.429,3.4152,3.3515,3.3777,3.3909,3.3655,3.3844,3.4157,3.3774,3.3832,3.3916,3.3825,3.3628,3.3476,3.409,3.4026,3.4249,3.376,3.3443,3.3747,3.4209,3.4383,3.3896,3.3581,3.3791,3.4223,3.377,3.3545,3.3713,3.3712,3.385,3.4691,3.4624,3.3908,3.3969,3.3958,3.3939,3.3777,3.4128,3.418,3.3893,3.3621,3.3323,3.3414,3.3657,3.4287,3.3664,3.3628,3.4011,3.4539,3.4749,3.4662,3.4479,3.4511,3.4238,3.4561,3.4637,3.5305,3.5136,3.4841,3.4506,3.4328,3.4445,3.4321,3.4406,3.3531,3.4051,3.4034,3.4031,3.3286,3.3256,3.3614,3.3763,3.3888,3.2964,3.3234,3.3537,3.3508,3.3531,3.3582,3.3668,3.3219,3.2373,3.2155,3.3042,3.4925,3.7981,4.1585,4.5399,4.8846,4.9238,4.7149,4.1769,3.7784,3.5981,3.4765,3.4325,3.4431,3.4132,3.367,3.3787,3.3633,3.4023,3.3599,3.3256,3.283,3.3298,3.4248,3.4153,3.3555,3.3351,3.3423,3.3868,3.3628,3.3748,3.3667,3.4109,3.4026,3.4008,3.3688,3.3852,3.323,3.3292,3.3978,3.424,3.424,3.4038,3.4226,3.4107,3.4435,3.4233,3.4191,3.3845,3.4732,3.5141,3.4783,3.4718,3.4999,3.525,3.5615,3.5718,3.6103,3.6307,3.6157,3.609,3.6279,3.669,3.638,3.6928,3.6233,3.6748,3.6021,3.6698,3.6376,3.6083,3.5671,3.5486,3.571,3.5063,3.4879,3.4844,3.4655,3.4371,3.4339,3.3571,3.3684,3.3911,3.4229,3.4056,3.3882,3.4209,3.4062,3.39,3.3964,3.4039,3.4103,3.3737,3.413,3.3979,3.3716,3.3597,3.3417,3.3872,3.4154,3.425,3.3772,3.3734,3.3827,3.3655,3.3852,3.4326,3.407,3.3948,3.405,3.3686,3.4076,3.4107,3.3921,3.3751,3.344,3.3619,3.3654,3.3705,3.347,3.3734,3.3705,3.3524,3.4199,3.3945,3.3805,3.3678,3.3405,3.3484,3.341,3.3991,3.344,3.3593,3.422,3.409,3.4418,3.4387,3.4644,3.445,3.4786,3.4943,3.4945,3.4604,3.5108,3.4524,3.4135,3.3729,3.3345,3.2796,3.3339,3.3506,3.3234,3.3021,3.3494,3.3594,3.3175,3.2455,3.3637,3.3964,3.3211,3.3033,3.36,3.3283,3.3588,3.3026,3.2159,3.2212,3.2243,3.4241,3.6748,4.0152,4.4938,4.8267,4.9094,4.7541,4.2772,3.7807,3.5655,3.5154,3.4454,3.4147,3.4739,3.4048,3.3456,3.2753,3.2372,3.323,3.3083,3.3047,3.36,3.363,3.257,3.3042,3.2976,3.3724,3.4134,3.3791,3.3714,3.3542,3.3573,3.3132,3.3385,3.3748,3.3816,3.3709,3.3659,3.3729,3.4074,3.4075,3.4293,3.4234,3.433,3.4324,3.4393,3.4913,3.4391,3.4802,3.4627,3.4188,3.4601,3.5168,3.5581,3.5246,3.5711,3.5382,3.5402,3.5874,3.6082,3.6272,3.7003,3.7327,3.6023,3.5831,3.5873,3.6804,3.6579,3.6256,3.6126,3.6099,3.589,3.5531,3.536,3.5197,3.4901,3.4825,3.4463,3.403,3.3393,3.358,3.4442,3.4629,3.4565,3.4484,3.4255,3.3325,3.3608,3.391,3.4448,3.4597,3.4156,3.3675,3.4342,3.4046,3.3693,3.3984,3.3808,3.3298,3.3866,3.4339,3.4812,3.3738,3.3853,3.4548,3.4136,3.3326,3.3026,3.442,3.389,3.468,3.3956,3.3917,3.4355,3.4757,3.3934,3.3457,3.4261,3.4427,3.4294,3.4262,3.407,3.4014,3.3335,3.4204,3.4211,3.4082,3.3983,3.3502,3.2714,3.3885,3.4758,3.4898,3.4239,3.3735,3.3971,3.4355,3.4199,3.4923,3.5145,3.507,3.5352,3.5422,3.5494,3.5112,3.4575,3.4514,3.4392,3.42,3.4199,3.3446,3.3359,3.3588,3.3775,3.3516,3.3688,3.2808,3.3285,3.4006,3.4152,3.3335,3.3524,3.3581,3.3851,3.3451,3.308,3.2825,3.218,3.2619,3.5468,3.8795,4.1895,4.5497,4.7096,4.8532,4.8277,4.4428,3.9412,3.7081,3.6389,3.5742,3.5166,3.4425,3.4917,3.5476,3.5187,3.4917,3.4084,3.4155,3.4374,3.387,3.3996,3.3964,3.4135,3.4317,3.3968,3.4124,3.4113,3.3785,3.384,3.3363,3.3956,3.4747,3.4466,3.4048,3.4079,3.3457,3.4232,3.4428,3.429,3.407,3.365,3.4745,3.4412,3.4367,3.446,3.4763,3.5126,3.421,3.491,3.5329,3.506,3.4623,3.4857,3.5949,3.6219,3.5453,3.5798,3.6204,3.6837,3.6644,3.6462,3.638,3.6172,3.6095,3.6478,3.6727,3.676,3.6509,3.5286,3.5702,3.5448,3.5237,3.4743,3.3757,3.4142,3.4613,3.373,3.4194,3.4272,3.397,3.3916,3.3938,3.3966,3.4135,3.4284,3.4121,3.3715,3.3445,3.4045,3.3789,3.3822,3.3718,3.3694,3.4368,3.3976,3.3426,3.3575,3.3609,3.4381,3.4115,3.4254,3.4198,3.3386,3.3567,3.3817,3.3815,3.4552,3.4187,3.3929,3.3974,3.3603,3.3604,3.3615,3.3657,3.3878,3.3374,3.4193,3.4523,3.4349,3.4495,3.4434,3.4476,3.4644,3.4653,3.449,3.4599,3.509,3.4663,3.4264,3.4423,3.528,3.5219,3.5474,3.4519,3.4067,3.457,3.3336,3.4033,3.424,3.4269,3.3832,3.399,3.3455,3.3988,3.3624,3.3498,3.3746,3.3126,3.3444,3.3359,3.3376,3.2101,3.2454,3.2902,3.4368,3.7662,4.1859,4.5312,4.7232,4.7955,4.5797,4.1605,3.7261,3.5972,3.4385,3.4346,3.3562,3.3435,3.389,3.408,3.3748,3.3089,3.306,3.3032,3.385,3.3947,3.3602,3.3511,3.3604,3.288,3.3495,3.3323,3.2703,3.3513,3.3827,3.4102,3.3653,3.3543,3.2948,3.3285,3.4055,3.3757,3.3546,3.3709,3.3777,3.3613,3.405,3.4387,3.4221,3.4309,3.4228,3.4157,3.4049,3.408,3.4236,3.4562,3.4959,3.5197,3.5389,3.5515,3.5084,3.5851,3.603,3.5782,3.6368,3.6039,3.6093,3.6369,3.6521,3.6146,3.604,3.6089,3.6232,3.5219,3.4876,3.4259,3.4132,3.4577,3.445,3.4627,3.392,3.4175,3.3768,3.4072,3.4097,3.3797,3.4064,3.3265,3.3221,3.3697,3.3198,3.3877,3.4142,3.3283,3.3275,3.3471,3.3607,3.3376,3.3793,3.3875,3.3762,3.3785,3.3666,3.309,3.3217,3.366,3.3873,3.3089,3.3194,3.3812,3.4281,3.3583,3.2936,3.3763,3.3867,3.43,3.432,3.4271,3.385,3.389,3.4488,3.4917,3.4987,3.44,3.4464,3.4612,3.4861,3.3878,3.413,3.4336,3.4336,3.441,3.3578,3.3092,3.3125,3.3257,3.2777,3.2681,3.312,3.3382,3.3292,3.3308,3.2832,3.3637,3.3135,3.3006,3.3162,3.3178,3.2717,3.2208,3.2052,3.2398,3.5188,3.8835,4.2668,4.6236,4.7975,4.7977,4.6744,4.1862,3.7843,3.4995,3.4638,3.4089,3.4267,3.4159,3.3521,3.3281,3.3569,3.3779,3.2828,3.3043,3.306,3.315,3.3038,3.347,3.3099,3.3052,3.3119,3.3279,3.3343,3.325,3.3572,3.3271,3.3426,3.3943,3.3994,3.3679,3.3148,3.3421,3.2781,3.3349,3.3729,3.4205,3.3458,3.3668,3.4081,3.4456,3.4027,3.4008,3.4586,3.4473,3.4167,3.4438,3.4707,3.5333,3.512,3.4951,3.5753,3.6097,3.5443,3.5488,3.5868,3.6362,3.6241,3.6041,3.5968,3.5605,3.5728,3.5047,3.5191,3.4937,3.5601,3.487,3.4682,3.4251,3.4259,3.3583,3.4186,3.3894,3.3483,3.3758,3.3771,3.3785,3.3899,3.3619,3.3216,3.3642,3.3728,3.314,3.318,3.3516,3.4041,3.3705,3.3537,3.367,3.3851,3.3033,3.334,3.3485,3.283,3.3355,3.3576,3.3984,3.4092,3.386,3.3844,3.3593,3.3489,3.331,3.3369,3.3618,3.4259,3.4847,3.4154,3.3839,3.3657,3.3892,3.4272,3.4664,3.409,3.4537,3.4718,3.5082,3.4511,3.4558,3.3891,3.4181,3.4264,3.3496,3.35,3.3452,3.321,3.2694,3.3407,3.3066,3.2683,3.333,3.3506,3.3624,3.3499,3.3182,3.3299,3.2903,3.2925,3.2731,3.1912,3.1885,3.2501,3.3284,3.5749,3.9436,4.3671,4.646,4.8236,4.7385,4.3579,3.8793,3.6048,3.4982,3.4744,3.4274,3.3551,3.3679,3.3522,3.2725,3.2984,3.2542,3.3283,3.3296,3.3225,3.3465,3.328,3.2812,3.3567,3.3466,3.3257,3.3152,3.3317,3.3323,3.3181,3.3526,3.2939,3.3386,3.3183,3.336,3.3154,3.3739,3.3723,3.367,3.3256,3.3643,3.3697,3.3182,3.41,3.4576,3.3938,3.4222,3.3831,3.41,3.4548,3.4755,3.4701,3.4581,3.4793,3.5698,3.6187,3.5815,3.556,3.5486,3.5554,3.5541,3.5463,3.6078,3.6116,3.5883,3.5587,3.5631,3.493,3.4909,3.4349,3.4343,3.4282,3.4135,3.3821,3.362,3.4002,3.3683,3.3433,3.3231,3.3293,3.3573,3.3312,3.3475,3.3447,3.3413,3.3585,3.341,3.2975,3.3376,3.3536,3.3784,3.3035,3.3625,3.3667,3.3034,3.3153,3.3315,3.347,3.378,3.355,3.3177,3.3708,3.3544,3.325,3.3102,3.3204,3.3472,3.3235,3.3211,3.3519,3.3614,3.3611,3.3548,3.4204,3.4034,3.3825,3.3571,3.3778,3.4152,3.4454,3.4223,3.4276,3.4087,3.4093,3.4334,3.3952,3.4318,3.4287,3.3224,3.3317,3.2963,3.3169,3.3322,3.2914,3.2469,3.285,3.3026,3.302,3.28,3.295,3.2857,3.3082,3.3089,3.2489,3.2477,3.2392,3.1418,3.1718,3.207,3.3752,3.6398,4.0002,4.4044,4.6752,4.8093,4.698,4.2617,3.7675,3.5394,3.4551,3.3955,3.3756,3.2642,3.2781,3.2828,3.3161,3.3339,3.3004,3.2776,3.2895,3.2928,3.2581,3.2646,3.2835,3.2708,3.2998,3.3204,3.2885,3.2474,3.2706,3.2817,3.2886,3.3142,3.3172,3.3162,3.2854,3.3255,3.3577,3.2549,3.292,3.3473,3.2942,3.3292,3.3318,3.3835,3.3495,3.3385,3.4291,3.3987,3.3451,3.3829,3.4031,3.4658,3.482,3.4724,3.4693,3.4939,3.4621,3.5129,3.505,3.5153,3.5958,3.5954,3.5968,3.5673,3.5219,3.4815,3.492,3.4826,3.4627,3.4481,3.475,3.4597,3.3607,3.3069,3.3466,3.3045,3.2713,3.2905,3.3517,3.3379,3.3335,3.3351,3.3011,3.2844,3.2899,3.2939,3.2864,3.3465,3.3601,3.3368,3.275,3.3031,3.2856,3.2985,3.24,3.3177,3.3231,3.3449,3.2922,3.3109,3.2854,3.2425,3.3296,3.2582,3.3084,3.3225,3.3177,3.3489,3.3469,3.3277,3.2605,3.2379,3.2792,3.3063,3.2928,3.3147,3.3287,3.3319,3.3076,3.2626,3.2848,3.2948,3.3288,3.3277,3.3303,3.3675,3.3397,3.3219,3.3202,3.3685,3.4078,3.3776,3.3623,3.4035,3.423,3.3911,3.3992,3.343,3.302,3.2783,3.2891,3.3236,3.3178,3.2849,3.3136,3.3079,3.2608,3.2555,3.2924,3.2512,3.2601,3.2437,3.2459,3.2504,3.2767,3.2637,3.2508,3.2119,3.1316,3.127,3.1723,3.3883,3.753,4.1872,4.5247,4.7761,4.7461,4.5006,4.012,3.6444,3.5126,3.4046,3.3717,3.3292,3.2778,3.2669,3.3134,3.3229,3.2388,3.2501,3.2574,3.2829,3.2973,3.2617,3.3076,3.2801,3.2741,3.2798,3.2256,3.2975,3.245,3.2727,3.2655,3.2737,3.279,3.2829,3.2932,3.2667,3.2959,3.2735,3.2968,3.3239,3.3244,3.3002,3.3398,3.3521,3.3829,3.418,3.3476,3.3591,3.3335,3.3789,3.4349,3.4386,3.4418,3.4546,3.4583,3.4828,3.4773,3.5376,3.5486,3.5449,3.5335,3.5614,3.5538,3.5149,3.5448,3.4995,3.4791,3.4884,3.5259,3.4768,3.469,3.4296,3.3959,3.3577,3.3692,3.3618,3.3084,3.3168,3.3304,3.3076,3.3354,3.2933,3.2787,3.2975,3.3318,3.2658,3.3055,3.3233,3.323,3.274,3.2419,3.2781,3.3135,3.3046,3.2874,3.2954,3.3335,3.2872,3.2717,3.3071,3.3108,3.3008,3.307,3.2743,3.3386,3.2975,3.3011,3.2912,3.2851,3.2515,3.2654,3.3347,3.2936,3.292,3.2901,3.2843,3.274,3.2756,3.2794,3.3356,3.3114,3.323,3.3196,3.3328,3.3187,3.3117,3.2564,3.2342,3.3425,3.4046,3.3883,3.4058,3.3447,3.3429,3.3654,3.3695,3.3801,3.354,3.3039,3.2835,3.2836,3.2676,3.2536,3.2442,3.2743,3.2589,3.2572,3.2702,3.2773,3.246,3.2213,3.2566,3.2694,3.2502,3.224,3.1924,3.1423,3.1811,3.1362,3.1364,3.2136,3.4197,3.748,4.1643,4.4908,4.6194,4.6388,4.4186,3.8903,3.5396,3.3993,3.3566,3.318,3.2936,3.3132,3.2942,3.2809,3.247,3.2419,3.1969,3.2168,3.2237,3.3108,3.2523,3.2553,3.2493,3.2583,3.2551,3.2373,3.2548,3.3148,3.2891,3.1996,3.2277,3.3369,3.3278,3.3291,3.3125,3.2971,3.2647,3.2863,3.3053,3.2798,3.3118,3.2738,3.3575,3.3382,3.3435,3.3775,3.4071,3.3678,3.347,3.405,3.4433,3.4507,3.4821,3.5065,3.4555,3.4723,3.474,3.4918,3.534,3.5329,3.5302,3.5389,3.5487,3.5464,3.5217,3.5174,3.5437,3.4402,3.4263,3.407,3.3918,3.3931,3.4019,3.3454,3.3321,3.3259,3.3031,3.3089,3.2412,3.3413,3.3335,3.285,3.3222,3.2997,3.2885,3.2754,3.2672,3.2652,3.2852,3.276,3.32,3.2926,3.2915,3.2463,3.2557,3.2531,3.3138,3.3101,3.3341,3.2933,3.2807,3.2887,3.3054,3.2887,3.3039,3.2834,3.287,3.2595,3.2868,3.3016,3.3452,3.358,3.3219,3.3385,3.3556,3.347,3.3277,3.3647,3.3719,3.3847,3.446,3.432,3.402,3.4111,3.38,3.3767,3.341,3.3633,3.3337,3.2699,3.2383,3.2754,3.2774,3.2998,3.2847,3.3123,3.2239,3.2838,3.2755,3.2909,3.2781,3.2352,3.2619,3.2842,3.2328,3.2662,3.1971,3.1593,3.1321,3.1821,3.4191,3.7554,3.9433,4.2494,4.5642,4.7132,4.6499,4.2588,3.8147,3.5065,3.4597,3.3997,3.342,3.3113,3.2943,3.2699,3.287,3.3087,3.2729,3.2503,3.2539,3.3033,3.3039,3.2924,3.2946,3.272,3.2879,3.2431,3.2885,3.2935,3.2958,3.2809,3.289,3.2953,3.3174,3.335,3.2928,3.2973,3.299,3.3028,3.3735,3.3735,3.3143,3.3266,3.3631,3.3313,3.351,3.3807,3.3784,3.402,3.3559,3.4334,3.4486,3.4629,3.496,3.5006,3.4971,3.4751,3.5281,3.5601,3.5323,3.5115,3.5479,3.5439,3.5422,3.592,3.5537,3.5535,3.5399,3.5171,3.4843,3.4477,3.4094,3.4232,3.3643,3.3722,3.3286,3.302,3.303,3.2791,3.3281,3.3349,3.3685,3.3284,3.3261,3.3274,3.2946,3.3245,3.3172,3.3261,3.301,3.3257,3.3754,3.3008,3.2694,3.293,3.2845,3.2455,3.349,3.366,3.359,3.3556,3.3292,3.3037,3.2985,3.2992,3.3038,3.271,3.3462,3.3643,3.3425,3.3365,3.3234,3.3417,3.2832,3.2929,3.3332,3.327,3.3167,3.3284,3.306,3.301,3.3431,3.3293,3.3522,3.3897,3.3943,3.3577,3.3693,3.3565,3.3947,3.4455,3.427,3.422,3.417,3.4489,3.429,3.3488,3.3333,3.3026,3.2805,3.2844,3.3376,3.3306,3.2904,3.2733,3.2682,3.2563,3.2611,3.2926,3.3459,3.3515,3.2775,3.2803,3.2929,3.3012,3.2595,3.204,3.1813,3.1747,3.3917,3.6406,4.0361,4.3697,4.6547,4.7817,4.7647,4.4421,3.9585,3.6477,3.5292,3.3968,3.3045,3.3835,3.3474,3.3521,3.3112,3.2945,3.3097,3.3105,3.3163,3.3669,3.3501,3.3185,3.2802,3.2946,3.2701,3.3121,3.333,3.3941,3.3489,3.3522,3.3606,3.3072,3.2623,3.3469,3.3883,3.3642,3.3911,3.4192,3.3577,3.3842,3.4266,3.4346,3.4189,3.398,3.4323,3.3808,3.4017,3.4636,3.5169,3.4873,3.4922,3.5059,3.5471,3.5262,3.4808,3.5567,3.5753,3.601,3.6041,3.6243,3.6144,3.6473,3.6423,3.622,3.5974,3.5995,3.5407,3.557,3.5645,3.547,3.5166,3.4735,3.4298,3.4466,3.4207,3.405,3.4528,3.3538,3.3363,3.3512,3.3684,3.327,3.356,3.3683,3.3552,3.3789,3.3758,3.3847,3.3639,3.3221,3.3618,3.4173,3.4062,3.3976,3.3435,3.3104,3.3418,3.3564,3.3506,3.3923,3.3688,3.3815,3.3646,3.3732,3.3736,3.3659,3.3903,3.3912,3.4182,3.3419,3.3517,3.3446,3.3694,3.3754,3.3522,3.349,3.3378,3.3643,3.4073,3.3377,3.3801,3.3475,3.3826,3.3523,3.3508,3.3638,3.3763,3.3592,3.3423,3.3446,3.3025,3.3112,3.3435,3.4159,3.4158,3.4078,3.3751,3.4151,3.4138,3.4392,3.4726,3.4471,3.4549,3.4619,3.4722,3.4122,3.3998,3.418,3.396,3.3515,3.3418,3.3475,3.3545,3.3338,3.3292,3.3444,3.3251,3.294,3.3092,3.3226,3.3395,3.3646,3.3615,3.3207,3.3381,3.2274,3.2318,3.2189,3.1946,3.2112,3.3397,3.5563,3.9259,4.39,4.6978,4.838,4.7456,4.363,3.9142,3.6518,3.4912,3.4156,3.4183,3.3837,3.3754,3.3306,3.3239,3.3328,3.328,3.3392,3.3342,3.371,3.36,3.2797,3.3136,3.353,3.3847,3.3195,3.2712,3.3357,3.3438,3.341,3.3557,3.3742,3.3439,3.3627,3.3613,3.3888,3.3506,3.4141,3.415,3.3993,3.3375,3.3877,3.402,3.428,3.4668,3.4551,3.4439,3.4652,3.3757,3.5235,3.6229,3.6163,3.5836,3.5629,3.6079,3.6269,3.6474,3.6385,3.6112,3.6513,3.6455,3.6548,3.6975,3.6704,3.6486,3.6221,3.6047,3.6114,3.5711,3.5431,3.4889,3.502,3.4274,3.4605,3.4002,3.3724,3.4174,3.4235,3.404,3.407,3.4082,3.4011,3.403,3.3927,3.3858,3.3837,3.3706,3.3552,3.3597,3.3682,3.3837,3.4006,3.3769,3.324,3.3937,3.3869,3.3652,3.3826,3.3763,3.395,3.3985,3.394,3.3384,3.3633,3.3905,3.3797,3.439,3.4024,3.3902,3.3544,3.3774,3.3811,3.3737,3.3619,3.4078,3.3646,3.3472,3.3849,3.407,3.3582,3.3424,3.3429,3.3671,3.3674,3.3446,3.3563,3.3937,3.3607,3.3554,3.3653,3.3863,3.4049,3.3681,3.367,3.3871,3.3583,3.3778,3.3758,3.3514,3.3424,3.4035,3.3876,3.3685,3.361,3.4556,3.4258,3.3934,3.4673,3.4982,3.47,3.453,3.4683,3.4538,3.4143,3.3942,3.4018,3.4108,3.3515,3.3824,3.3828,3.3462,3.2873,3.3161,3.3275,3.3452,3.3121,3.3555,3.36,3.3814,3.3282,3.3171,3.3335,3.3255,3.284,3.1977,3.2097,3.266,3.3298,3.5204,3.9241,4.2975,4.6707,4.8401,4.812,4.4955,4.0233,3.6848,3.5203,3.434,3.4135,3.3851,3.3635,3.3228,3.3564,3.3317,3.3731,3.3474,3.3429,3.3467,3.3139,3.2901,3.3387,3.354,3.3537,3.3411,3.334,3.3303,3.3099,3.3408,3.3657,3.3751,3.3723,3.3541,3.3469,3.3417,3.3496,3.3509,3.3696,3.4006,3.376,3.4438,3.415,3.4365,3.4298,3.4093,3.4612,3.4123,3.4607,3.4819,3.4926,3.4812,3.4972,3.526,3.5465,3.5576,3.6218,3.5845,3.5793,3.5722,3.5894,3.6319,3.6555,3.6762,3.6601,3.6321,3.6005,3.5774,3.5082,3.5391,3.5467,3.484,3.4634,3.4124,3.3787,3.3885,3.4455,3.4314,3.4338,3.4313,3.3688,3.3691,3.3482,3.3199,3.3515,3.3799,3.361,3.3422,3.3592,3.3478,3.3824,3.3618,3.3932,3.3632,3.3437,3.3282,3.3397,3.3623,3.3687,3.3738,3.3811,3.3952,3.3983,3.3702,3.3607,3.3525,3.3381,3.3402,3.3718,3.401,3.3732,3.3547,3.3541,3.3722,3.3556,3.3448,3.3225,3.3233,3.3817,3.3411,3.3147,3.3326,3.3509,3.3148,3.3443,3.3922,3.3852,3.3368,3.3057,3.3233,3.34,3.3811,3.3856,3.3866,3.3774,3.3573,3.3775,3.4422,3.4389,3.4409,3.4487,3.4059,3.4732,3.4905,3.4234,3.388,3.3773,3.3291,3.3188,3.3458,3.3423,3.3531,3.3344,3.3317,3.2914,3.3432,3.2969,3.2971,3.3231,3.2907,3.2706,3.3146,3.292,3.3334,3.3159,3.2887,3.2024,3.1909,3.1642,3.3039,3.5703,3.9113,4.3139,4.6402,4.7244,4.6381,4.3118,3.8659,3.5568,3.4963,3.476,3.4422,3.4012,3.3573,3.3366,3.2935,3.3008,3.3107,3.3073,3.2703,3.3304,3.3293,3.3169,3.3102,3.3256,3.3249,3.3095,3.3086,3.3311,3.3653,3.3315,3.3117,3.3171,3.3541,3.3582,3.3517,3.3356,3.3145,3.3573,3.3345,3.3589,3.3609,3.3881,3.388,3.3599,3.4219,3.4212,3.4638,3.4399,3.4563,3.4665,3.4541,3.4642,3.4773,3.5126,3.5033,3.508,3.5119,3.5506,3.5666,3.5872,3.587,3.6131,3.6407,3.6233,3.5771,3.5471,3.5593,3.5538,3.5175,3.4722,3.461,3.455,3.4533,3.4545,3.3743,3.349,3.4131,3.3227,3.3289,3.3326,3.3184,3.3886,3.3621,3.3638,3.3583,3.319,3.3256,3.3316,3.3139,3.3357,3.2944,3.3026,3.338,3.3367,3.3265,3.3394,3.3146,3.3312,3.3342,3.3581,3.337,3.3225,3.3375,3.3551,3.3632,3.3405,3.3373,3.3275,3.3212,3.3647,3.3278,3.3539,3.3641,3.334,3.334,3.3178,3.288,3.3015,3.3411,3.3997,3.3774,3.3672,3.3659,3.3859,3.407,3.4405,3.448,3.4244,3.4141,3.4255,3.46,3.4559,3.4238,3.3408,3.3288,3.2878,3.2873,3.31,3.2794,3.3197,3.2685,3.2502,3.2407,3.283,3.3638,3.3224,3.2787,3.2445,3.2835,3.2935,3.2474,3.2369,3.2137,3.1754,3.1847,3.2509,3.425,3.736,4.1591,4.4877,4.7151,4.736,4.483,3.9634,3.6812,3.4521,3.37,3.3525,3.3373,3.3455,3.3447,3.2824,3.2655,3.2853,3.2626,3.2385,3.2397,3.2884,3.2478,3.2529,3.2683,3.2844,3.2477,3.2554,3.2581,3.276,3.2785,3.2828,3.3092,3.2805,3.3081,3.3137,3.3142,3.3096,3.3287,3.3207,3.2547,3.306,3.3349,3.3467,3.3251,3.3531,3.3711,3.3611,3.3355,3.4041,3.4114,3.4163,3.4437,3.4858,3.4612,3.4778,3.5337,3.5182,3.5026,3.5307,3.5493,3.5844,3.5387,3.5671,3.5739,3.5396,3.5142,3.4951,3.4975,3.5241,3.4556,3.4365,3.4417,3.3775,3.3375,3.3406,3.3628,3.3366,3.3213,3.3245,3.3268,3.3289,3.3563,3.3101,3.3141,3.3109,3.3407,3.3015,3.3012,3.2837,3.2967,3.2826,3.3171,3.3014,3.3174,3.3318,3.2939,3.3043,3.3286,3.3262,3.3025,3.3088,3.326,3.3085,3.2917,3.3286,3.3444,3.3199,3.3029,3.2893,3.279,3.3359,3.3685,3.2854,3.2682,3.3418,3.347,3.2985,3.3496,3.3267,3.3422,3.3113,3.3147,3.3283,3.3388,3.3767,3.3753,3.3497,3.3742,3.3657,3.372,3.4161,3.4444,3.426,3.3795,3.4351,3.4452,3.3938,3.3531,3.3606,3.2968,3.2972,3.304,3.2661,3.2774,3.2717,3.3048,3.2608,3.2466,3.2437,3.2422,3.2735,3.2931,3.2716,3.2951,3.3057,3.2467,3.2109,3.1575,3.1267,3.1432,3.398,3.6706,4.0575,4.4758,4.7514,4.7748,4.6154,4.1831,3.7392,3.5073,3.4161,3.3644,3.3462,3.3596,3.3028,3.2612,3.2902,3.2591,3.2904,3.2884,3.2552,3.2731,3.2737,3.3076,3.2836,3.2625,3.2795,3.2781,3.2791,3.2745,3.3269,3.3321,3.3109,3.314,3.288,3.3167,3.2635,3.2372,3.25,3.2614,3.2746,3.3822,3.4087,3.3678,3.366,3.3736,3.3649,3.3751,3.3774,3.4001,3.4076,3.4592,3.4953,3.4553,3.4822,3.4862,3.4969,3.5336,3.5313,3.5691,3.568,3.5555,3.5581,3.542,3.5692,3.6231,3.5999,3.5671,3.5547,3.5093,3.4545,3.478,3.4137,3.3989,3.4147,3.414,3.4085,3.4243,3.3345,3.3245,3.3681,3.3164,3.308,3.2993,3.3047,3.3189,3.35,3.3539,3.385,3.3251,3.3267,3.3201,3.3298,3.308,3.3354,3.3577,3.3431,3.3365,3.3468,3.3654,3.3268,3.3651,3.4032,3.3444,3.3588,3.3317,3.3553,3.3782,3.3642,3.318,3.3134,3.3561,3.4078,3.4804,3.452,3.4091,3.4261,3.4072,3.379,3.3457,3.3405,3.3745,3.439,3.381,3.36,3.3295,3.4156,3.3709,3.3142,3.3867,3.4007,3.4,3.3724,3.4002,3.4147,3.3948,3.4861,3.4433,3.4637,3.4431,3.4603,3.4473,3.4262,3.3856,3.3573,3.3329,3.3507,3.3214,3.3449,3.3197,3.286,3.3194,3.2969,3.3018,3.3099,3.3337,3.3108,3.3249,3.2983,3.3325,3.3045,3.3345,3.2553,3.2256,3.176,3.2286,3.4692,3.7719,4.1719,4.5609,4.8302,4.8696,4.5736,4.0698,3.6675,3.5083,3.4499,3.4402,3.4212,3.3696,3.3412,3.3498,3.3247,3.3352,3.2836,3.3005,3.3359,3.3208,3.3327,3.3479,3.3474,3.3424,3.3348,3.322,3.2999,3.3492,3.2861,3.347,3.3232,3.3567,3.3302,3.348,3.3148,3.3204,3.3495,3.4294,3.3931,3.3675,3.3851,3.412,3.369,3.4176,3.4077,3.437,3.4641,3.4377,3.4823,3.4618,3.4606,3.4914,3.5223,3.5402,3.5716,3.5502,3.5861,3.6023,3.595,3.5506,3.614,3.6385,3.6132,3.5937,3.6062,3.5999,3.5556,3.5352,3.556,3.5054,3.4481,3.4434,3.4585,3.4331,3.4442,3.3974,3.3716,3.3941,3.3697,3.3426,3.384,3.3792,3.3737,3.3851,3.3892,3.3689,3.3436,3.327,3.3469,3.3675,3.3396,3.3818,3.3961,3.3705,3.3697,3.3693,3.3523,3.3481,3.3678,3.3629,3.4014,3.3516,3.4102,3.3662,3.376,3.3363,3.3884,3.3619,3.3739,3.3584,3.3321,3.3687,3.3697,3.386,3.3569,3.3862,3.3445,3.373,3.4488,3.4255,3.3891,3.4324,3.4175,3.4074,3.4382,3.5013,3.4476,3.5126,3.495,3.4697,3.4447,3.3958,3.4108,3.3537,3.326,3.3238,3.3672,3.3744,3.3635,3.353,3.3837,3.3396,3.3778,3.3231,3.3131,3.3186,3.3408,3.3341,3.3509,3.3539,3.3198,3.1935,3.1819,3.2734,3.3977,3.5476,3.8514,4.2659,4.5805,4.79,4.7126,4.458,3.9415,3.6827,3.5342,3.4909,3.4097,3.3935,3.3625,3.3525,3.3815,3.3751,3.3557,3.3661,3.3126,3.3277,3.3426,3.317,3.3397,3.3496,3.3329,3.3443,3.3465,3.3301,3.3424,3.4183,3.4231,3.3771,3.3452,3.3534,3.3782,3.3735,3.4394,3.4128,3.3907,3.4097,3.4258,3.4279,3.3568,3.336,3.4326,3.4706,3.437,3.4598,3.4839,3.4789,3.5028,3.5205,3.4989,3.5456,3.5912,3.5741,3.5998,3.6054,3.6053,3.6102,3.6025,3.6129,3.6608,3.6363,3.5728,3.5602,3.5622,3.5628,3.5954,3.5328,3.51,3.4681,3.4317,3.4133,3.4021,3.375,3.4383,3.4459,3.4081,3.377,3.3894,3.3594,3.3009,3.3066,3.3998,3.4039,3.438,3.4282,3.3759,3.3487,3.3474,3.3583,3.3742,3.3912,3.3691,3.3434,3.3739,3.3918,3.4017,3.3921,3.3756,3.3649,3.3891,3.4287,3.3876,3.3789,3.3753,3.3561,3.3908,3.4278,3.4395,3.4404,3.4176,3.4267,3.4136,3.4543,3.496,3.4754,3.5107,3.4701,3.4899,3.5014,3.4784,3.3969,3.4275,3.4451,3.3867,3.3583,3.3328,3.3522,3.2941,3.3242,3.3702,3.367,3.3591,3.3795,3.3171,3.3442,3.3344,3.3431,3.3051,3.2892,3.338,3.2853,3.2669,3.2812,3.3567,3.6192,3.9911,4.3735,4.6496,4.8007,4.6958,4.313,3.8573,3.609,3.5091,3.4581,3.3829,3.4091,3.3789,3.3753,3.4001,3.3888,3.3022,3.3551,3.3708,3.3387,3.3699,3.3511,3.3636,3.3319,3.3267,3.3406,3.3452,3.3762,3.3521,3.3622,3.4105,3.3855,3.4283,3.3528,3.3592,3.407,3.3797,3.376,3.4156,3.3662,3.3764,3.4093,3.3949,3.4362,3.4514,3.4671,3.4988,3.5085,3.491,3.4685,3.4643,3.5442,3.5451,3.5991,3.6152,3.6055,3.5737,3.5976,3.6181,3.6091,3.5974,3.5947,3.6157,3.6016,3.6211,3.6543,3.598,3.5607,3.5076,3.4745,3.4887,3.4637,3.5129,3.4655,3.448,3.4223,3.3888,3.4276,3.384,3.3913,3.392,3.3954,3.3895,3.4032,3.3933,3.4083,3.3895,3.4125,3.4293,3.4084,3.4035,3.374,3.3941,3.3898,3.3999,3.4311,3.4302,3.3969,3.3933,3.4139,3.4363,3.397,3.3522,3.3975,3.4311,3.4235,3.495,3.4937,3.4881,3.4908,3.5362,3.499,3.4703,3.4996,3.5205,3.5009,3.5017,3.4913,3.4608,3.4155,3.4308,3.4193,3.4219,3.3912,3.3861,3.3485,3.3373,3.4225,3.4104,3.4048,3.4045,3.3773,3.3998,3.3823,3.3471,3.3389,3.3852,3.3465,3.3267,3.2771,3.2625,3.3393,3.5166,3.8768,4.2722,4.6262,4.8983,4.8677,4.5749,4.0725,3.7237,3.6052,3.4987,3.4555,3.4162,3.4253,3.4169,3.4174,3.4135,3.3824,3.3919,3.383,3.3802,3.3852,3.3739,3.389,3.3874,3.3843,3.398,3.4032,3.3866,3.3774,3.3446,3.3824,3.4328,3.4091,3.4107,3.4803,3.4472,3.4243,3.4269,3.4488,3.4823,3.5033,3.4526,3.4758,3.4516,3.3997,3.4561,3.4571,3.4914,3.5163,3.5591,3.5781,3.5652,3.5651,3.5714,3.6303,3.5961,3.6371,3.6184,3.6392,3.6542,3.6746,3.6834,3.6604,3.6244,3.6257,3.5764,3.599,3.6065,3.5928,3.5771,3.5448,3.539,3.4985,3.5022,3.4346,3.4331,3.4209,3.435,3.4367,3.4467,3.4465,3.4253,3.4538,3.4555,3.4061,3.416,3.4187,3.4229,3.4287,3.4536,3.462,3.4307,3.3694,3.3915,3.4176,3.4878,3.4344,3.4191,3.4354,3.4206,3.4571,3.4304,3.4556,3.4809,3.445,3.4395,3.4277,3.4539,3.4781,3.4394,3.4897,3.5131,3.5033,3.5176,3.5155,3.4805,3.4969,3.5262,3.5169,3.5375,3.5364,3.4944,3.4975,3.484,3.4594,3.4498,3.433,3.4074,3.4167,3.3754,3.4114,3.4197,3.4162,3.4098,3.3895,3.3699,3.3985,3.4198,3.3501,3.3674,3.3995,3.3656,3.3448,3.2593,3.2535,3.3277,3.5337,3.8648,4.295,4.6649,4.9006,4.8905,4.5912,4.0893,3.7852,3.6885,3.5624,3.5041,3.4549,3.3883,3.4202,3.4316,3.3693,3.4214,3.4123,3.3756,3.3709,3.3821,3.3948,3.416,3.39,3.3924,3.4013,3.3947,3.3959,3.3903,3.3706,3.41,3.4375,3.4352,3.4165,3.4151,3.3873,3.4113,3.4085,3.422,3.4462,3.4422,3.4213,3.4502,3.4679,3.4483,3.4995,3.4901,3.5088,3.5149,3.4871,3.5003,3.5383,3.5748,3.593,3.6079,3.633,3.6229,3.6174,3.6078,3.6452,3.64,3.6416,3.6121,3.6396,3.6533,3.6216,3.6027,3.5727,3.5713,3.5754,3.5337,3.5185,3.4242,3.4755,3.4912,3.4564,3.4611,3.4306,3.4422,3.4201,3.4176,3.3894,3.3977,3.3608,3.4065,3.4302,3.4662,3.4775,3.4244,3.412,3.4244,3.4404,3.4311,3.4324,3.4267,3.4021,3.4288,3.4193,3.4147,3.4168,3.4161,3.3812,3.4542,3.4293,3.4282,3.4185,3.4256,3.4073,3.4584,3.4516,3.4384,3.4123,3.4223,3.4003,3.4206,3.3922,3.4057,3.4148,3.3876,3.4103,3.4132,3.4515,3.4695,3.4467,3.4045,3.4475,3.4953,3.4983,3.5106,3.5794,3.5603,3.5146,3.5126,3.493,3.4999,3.4845,3.4656,3.4218,3.3916,3.4013,3.4255,3.435,3.3797,3.4047,3.422,3.4155,3.4026,3.384,3.3468,3.3795,3.3689,3.3572,3.347,3.3557,3.3886,3.362,3.3347,3.2257,3.2458,3.4253,3.6815,4.0499,4.4746,4.8051,4.9302,4.8006,4.3933,3.9328,3.6802,3.5685,3.4755,3.4584,3.4512,3.446,3.4014,3.3914,3.3632,3.3978,3.403,3.4246,3.3664,3.3812,3.3734,3.3842,3.3682,3.4168,3.4141,3.3868,3.3604,3.3744,3.3753,3.3965,3.3689,3.4178,3.443,3.4266,3.3925,3.3898,3.4279,3.4506,3.4435,3.4537,3.473,3.4729,3.4709,3.4781,3.5003,3.4745,3.4779,3.4981,3.5347,3.5289,3.5773,3.565,3.5871,3.6142,3.614,3.6546,3.6318,3.6454,3.6661,3.689,3.7082,3.7183,3.7031,3.7133,3.7026,3.6149,3.6097,3.5827,3.537,3.5187,3.5152,3.5339,3.5211,3.4906,3.447,3.3978,3.4355,3.4718,3.4169,3.4101,3.4386,3.442,3.4647,3.4253,3.4354,3.4322,3.4588,3.4165,3.3992,3.4215,3.4345,3.4275,3.4188,3.4201,3.4829,3.441,3.4055,3.4338,3.42,3.4329,3.453,3.4253,3.4426,3.4398,3.4151,3.3982,3.4167,3.4055,3.4078,3.443,3.4442,3.4134,3.4035,3.4229,3.4249,3.4024,3.4282,3.424,3.4291,3.3941,3.3753,3.4079,3.429,3.4252,3.425,3.4296,3.411,3.4047,3.3975,3.3927,3.3996,3.4201,3.4075,3.3933,3.3643,3.3957,3.4166,3.4076,3.3949,3.4421,3.4361,3.453,3.4603,3.4324,3.4264,3.4546,3.4876,3.5054,3.5166,3.4744,3.5143,3.5035,3.4766,3.4582,3.4906,3.4442,3.383,3.3994,3.4228,3.399,3.3758,3.3522,3.4075,3.3824,3.3934,3.384,3.3475,3.3421,3.3653,3.3653,3.3712,3.3827,3.3799,3.3297,3.2557,3.2432,3.3011,3.4706,3.8049,4.1834,4.5548,4.8519,4.8333,4.6226,4.1431,3.7839,3.5713,3.4948,3.4766,3.426,3.4193,3.4201,3.4189,3.3745,3.4049,3.388,3.3466,3.3989,3.3735,3.3833,3.3667,3.36,3.3191,3.3303,3.3707,3.4174,3.3556,3.3445,3.4318,3.4314,3.3846,3.4077,3.4035,3.4308,3.4132,3.3971,3.3642,3.3796,3.412,3.4322,3.4621,3.4149,3.4118,3.4778,3.4283,3.4478,3.4854,3.504,3.5143,3.5002,3.5127,3.5336,3.556,3.583,3.6156,3.5726,3.5908,3.6196,3.6419,3.611,3.6144,3.687,3.6933,3.6383,3.581,3.5632,3.5717,3.5444,3.5449,3.4964,3.5023,3.4785,3.4586,3.4106,3.4161,3.3576,3.4128,3.3935,3.427,3.414,3.3813,3.3937,3.3584,3.3754,3.3815,3.36,3.3626,3.3638,3.3386,3.4238,3.3786,3.3977,3.4207,3.4049,3.3919,3.3655,3.3779,3.3881,3.3507,3.3753,3.3556,3.3623,3.3291,3.3838,3.413,3.4127,3.4186,3.4062,3.3693,3.3833,3.4123,3.3648,3.3974,3.3709,3.3451,3.354,3.3901,3.3563,3.3577,3.3704,3.3705,3.3545,3.3865,3.3417,3.3524,3.3825,3.3523,3.4106,3.3478,3.3722,3.3635,3.3759,3.3951,3.3839,3.4345,3.4355,3.4562,3.4466,3.4912,3.5199,3.437,3.413,3.4319,3.418,3.3705,3.3861,3.3317,3.3292,3.3664,3.3685,3.333,3.3108,3.2848,3.2826,3.286,3.2852,3.3428,3.3036,3.3379,3.3368,3.3198,3.3156,3.2985,3.2371,3.1766,3.2434,3.4016,3.723,4.0991,4.4496,4.7498,4.807,4.5798,4.1391,3.9089,3.6243,3.5181,3.4466,3.3751,3.3799,3.3176,3.3439,3.3272,3.3292,3.309,3.354,3.3339,3.3204,3.312,3.3252,3.2878,3.3263,3.274,3.3192,3.3562,3.3511,3.3609,3.3782,3.3655,3.349,3.3388,3.3187,3.331,3.3618,3.3466,3.3876,3.4225,3.4179,3.4284,3.4359,3.5304,3.5938,3.6033,3.5628,3.5618,3.552,3.5624,3.5351,3.5764,3.5999,3.5739,3.6023,3.5947,3.6111,3.6186,3.5975,3.628,3.6458,3.6261,3.6278,3.6346,3.6092,3.6066,3.5665,3.59,3.5805,3.5022,3.4971,3.5158,3.4724,3.4607,3.4578,3.4311,3.4556,3.4621,3.4418,3.3944,3.3772,3.451,3.434,3.3832,3.4063,3.4265,3.4249,3.4662,3.4968,3.5474,3.5788,3.5478,3.5239,3.5416,3.5107,3.4773,3.4874,3.4659,3.4943,3.4676,3.4081,3.4393,3.4358,3.4497,3.4366,3.4116,3.3881,3.4033,3.4047,3.4166,3.3672,3.3905,3.407,3.3646,3.3536,3.4075,3.3971,3.3832,3.3602,3.3818,3.3818,3.3375,3.3396,3.3959,3.3537,3.3503,3.3845,3.3674,3.4028,3.4174,3.4071,3.4157,3.4404,3.4616,3.501,3.4454,3.4607,3.448,3.4116,3.3561,3.3692,3.3532,3.382,3.3201,3.311,3.3334,3.3234,3.3457,3.3473,3.3267,3.2897,3.2556,3.2651,3.337,3.3283,3.3161,3.2884,3.3131,3.2782,3.1794,3.1794,3.2045,3.3742,3.6678,4.0703,4.431,4.756,4.8206,4.6484,4.2545,3.9935,3.6484,3.4877,3.4704,3.4002,3.3861,3.3478,3.2837,3.2858,3.3549,3.3383,3.3395,3.2748,3.2963,3.2815,3.3787,3.3489,3.364,3.3318,3.3261,3.2932,3.277,3.31,3.3517,3.3578,3.344,3.303,3.3297,3.3358,3.3443,3.3545,3.3431,3.3857,3.325,3.3983,3.4213,3.3943,3.3853,3.3327,3.4057,3.4402,3.4596,3.4595,3.4437,3.4311,3.496,3.5538,3.5885,3.5621,3.6317,3.6222,3.6136,3.627,3.65,3.671,3.721,3.7541,3.7529,3.7485,3.7077,3.6895,3.6088,3.5878,3.5749,3.5249,3.4665,3.5105,3.4929,3.4587,3.4107,3.4202,3.4015,3.4074,3.3718,3.3479,3.348,3.3688,3.421,3.4302,3.3948,3.3868,3.3555,3.3563,3.3581,3.3801,3.3398,3.3468,3.3359,3.3707,3.3765,3.375,3.3711,3.3417,3.3512,3.3702,3.3796,3.3404,3.3547,3.3625,3.3662,3.3923,3.3779,3.4103,3.3743,3.3433,3.3365,3.3316,3.3665,3.3823,3.3966,3.3603,3.3523,3.3456,3.3249,3.3406,3.3542,3.3546,3.3552,3.3056,3.357,3.3869,3.3863,3.3832,3.385,3.3987,3.3853,3.3981,3.394,3.4371,3.4216,3.4739,3.4724,3.4419,3.4187,3.4532,3.4438,3.4165,3.3916,3.3232,3.3293,3.3708,3.3559,3.3098,3.2903,3.3097,3.3447,3.2961,3.3495,3.3418,3.2925,3.2946,3.3364,3.3178,3.3505,3.3356,3.3042,3.1964,3.1506,3.1524,3.4126,3.7265,4.0477,4.2553,4.6281,4.8536,4.7983,4.5002,4.0257,3.7159,3.5286,3.4557,3.3601,3.378,3.3625,3.3607,3.3539,3.3281,3.3389,3.3426,3.3457,3.318,3.2984,3.3674,3.3361,3.2971,3.3056,3.3313,3.3024,3.3474,3.3242,3.3747,3.34,3.3627,3.3609,3.3671,3.3586,3.4045,3.3713,3.3643,3.3741,3.3763,3.3657,3.4059,3.3977,3.3969,3.3812,3.4097,3.3985,3.439,3.4629,3.4745,3.4778,3.5117,3.5444,3.5456,3.5432,3.5049,3.5672,3.5823,3.5854,3.6575,3.6628,3.5978,3.616,3.6277,3.6037,3.5902,3.5941,3.5406,3.5199,3.5199,3.4936,3.4485,3.4487,3.4261,3.4309,3.3938,3.3948,3.3654,3.3901,3.3551,3.3496,3.3501,3.364,3.3991,3.4107,3.366,3.3898,3.3917,3.3621,3.3436,3.3626,3.3861,3.3859,3.36,3.3736,3.3331,3.3259,3.3547,3.3807,3.3539,3.3593,3.4001,3.4327,3.3956,3.404,3.3394,3.3737,3.3337,3.3657,3.3942,3.396,3.3952,3.3658,3.3433,3.3452,3.4157,3.3905,3.3738,3.3464,3.3278,3.3327,3.3554,3.375,3.3858,3.4032,3.3309,3.3554,3.3796,3.3738,3.426,3.3934,3.4046,3.4837,3.4301,3.4405,3.5039,3.4869,3.4681,3.4652,3.4765,3.4634,3.4674,3.4241,3.4149,3.4019,3.3762,3.3373,3.3,3.3244,3.4104,3.3724,3.3543,3.3553,3.3473,3.3414,3.3412,3.303,3.3136,3.3042,3.3421,3.337,3.2948,3.1835,3.2229,3.2388,3.386,3.6885,4.0227,4.4642,4.7995,4.9097,4.7374,4.3165,3.8228,3.5516,3.5161,3.4579,3.4247,3.4015,3.363,3.3738,3.3874,3.3291,3.3403,3.3779,3.3572,3.3795,3.3726,3.3388,3.2726,3.3792,3.3814,3.3847,3.3625,3.3417,3.3179,3.3481,3.3997,3.3802,3.349,3.3534,3.3686,3.4012,3.3953,3.4075,3.451,3.3846,3.3993,3.4559,3.4177,3.4215,3.4473,3.4401,3.4077,3.4826,3.4759,3.4859,3.4875,3.4888,3.544,3.6057,3.5871,3.6256,3.6482,3.6172,3.5768,3.5561,3.6496,3.6292,3.6593,3.6599,3.6312,3.5957,3.5417,3.5379,3.5297,3.539,3.5358,3.5035,3.4653,3.4522,3.4268,3.4025,3.4175,3.4066,3.4381,3.3625,3.3841,3.378,3.385,3.3796,3.4088,3.399,3.3768,3.3859,3.3568,3.3586,3.4106,3.4047,3.392,3.3501,3.3827,3.4071,3.4132,3.3528,3.3476,3.3935,3.4081,3.4002,3.3919,3.3882,3.3826,3.3919,3.418,3.4058,3.3779,3.4022,3.4026,3.3571,3.3691,3.3757,3.4167,3.3776,3.3786,3.3412,3.355,3.3888,3.3784,3.3782,3.4078,3.4016,3.3895,3.4231,3.3382,3.3132,3.3946,3.4108,3.377,3.3668,3.3769,3.3659,3.4029,3.3865,3.3705,3.3821,3.3819,3.3972,3.3947,3.3937,3.3926,3.4245,3.4027,3.4237,3.4426,3.4616,3.434,3.4555,3.4874,3.4987,3.471,3.4408,3.4681,3.4768,3.4091,3.4218,3.3733,3.4131,3.3998,3.3782,3.3346,3.3522,3.3813,3.3448,3.3538,3.3291,3.3454,3.3572,3.3552,3.3547,3.3448,3.3481,3.3229,3.2627,3.2143,3.2775,3.3832,3.6793,3.8583,4.2172,4.5954,4.8536,4.8758,4.6182,4.1564,3.7763,3.5519,3.4846,3.4723,3.4117,3.4105,3.3841,3.4096,3.3578,3.33,3.3445,3.3642,3.3459,3.3704,3.4065,3.4077,3.3721,3.3573,3.3308,3.35,3.3591,3.4092,3.3782,3.383,3.3717,3.3974,3.3528,3.3826,3.4427,3.4285,3.4191,3.406,3.3962,3.4041,3.4151,3.4175,3.4649,3.4448,3.4296,3.466,3.5061,3.4874,3.5048,3.5183,3.4654,3.5103,3.5863,3.5954,3.5691,3.6236,3.6311,3.6647,3.6491,3.6304,3.5994,3.6317,3.6617,3.6522,3.6945,3.6739,3.6522,3.5915,3.5512,3.4883,3.4925,3.46,3.4291,3.4892,3.5084,3.4505,3.412,3.4498,3.3805,3.4092,3.4207,3.3844,3.4252,3.3944,3.3933,3.4074,3.4225,3.3949,3.3982,3.386,3.4054,3.374,3.39,3.4224,3.4299,3.3802,3.3908,3.3957,3.4243,3.4389,3.4358,3.4143,3.4111,3.4277,3.3833,3.3885,3.4132,3.4006,3.3954,3.3901,3.4022,3.409,3.4094,3.4234,3.421,3.4226,3.3857,3.3676,3.3758,3.4029,3.4145,3.4124,3.3787,3.3714,3.407,3.4388,3.4135,3.4043,3.4193,3.4139,3.385,3.3981,3.3757,3.3652,3.3693,3.3808,3.3795,3.3795,3.3551,3.358,3.3753,3.3749,3.4164,3.4028,3.4174,3.4324,3.4186,3.4435,3.4431,3.4222,3.4485,3.4856,3.4996,3.4914,3.518,3.4557,3.4355,3.4613,3.4201,3.4271,3.3975,3.3865,3.4006,3.3717,3.3712,3.3087,3.3635,3.373,3.3562,3.391,3.3594,3.3231,3.3184,3.3472,3.3723,3.3822,3.351,3.2393,3.2,3.2569,3.3754,3.6285,3.8008,4.2154,4.5579,4.8658,4.8708,4.6144,4.1613,3.7361,3.5649,3.4807,3.4469,3.4073,3.4252,3.3625,3.3893,3.3857,3.3892,3.3693,3.3569,3.3679,3.3881,3.3508,3.356,3.3639,3.3676,3.3664,3.3609,3.3433,3.3262,3.3813,3.3491,3.382,3.3962,3.3892,3.4047,3.3859,3.3957,3.3822,3.3976,3.3628,3.4245,3.4606,3.4368,3.442,3.4532,3.4436,3.4406,3.4315,3.4985,3.4871,3.519,3.516,3.5252,3.5241,3.5317,3.5604,3.5478,3.6251,3.6535,3.6224,3.6337,3.6598,3.6409,3.6736,3.6507,3.6163,3.6297,3.6012,3.6046,3.5609,3.5333,3.4915,3.4645,3.4309,3.4296,3.4073,3.4059,3.452,3.407,3.4116,3.4184,3.4484,3.4191,3.4118,3.4046,3.3731,3.3462,3.3953,3.3609,3.4047,3.4006,3.3734,3.3582,3.3658,3.4218,3.3851,3.3246,3.3525,3.3829,3.4426,3.4249,3.4093,3.3662,3.4053,3.3923,3.3839,3.3862,3.3545,3.3923,3.3872,3.3798,3.395,3.4061,3.3777,3.3532,3.3348,3.3602,3.3605,3.4143,3.3551,3.3643,3.3839,3.3767,3.4201,3.3766,3.439,3.4163,3.4241,3.4041,3.4017,3.4004,3.43,3.4601,3.4755,3.456,3.4696,3.4902,3.4685,3.4428,3.3988,3.3552,3.3523,3.3672,3.3456,3.3675,3.3501,3.3352,3.3612,3.3584,3.3316,3.3168,3.3175,3.3423,3.3265,3.3164,3.3049,3.3441,3.2812,3.2189,3.1783,3.2184,3.3404,3.4692,3.7252,4.1804,4.5239,4.7243,4.7632,4.5916,4.1177,3.7184,3.5285,3.4325,3.3946,3.3854,3.3514,3.3285,3.3333,3.3201,3.3326,3.359,3.3729,3.3704,3.3684,3.357,3.339,3.3018,3.3129,3.3165,3.3131,3.3371,3.3678,3.3643,3.3596,3.3456,3.3022,3.3091,3.3811,3.3792,3.3869,3.3532,3.3697,3.3836,3.3882,3.396,3.4255,3.4096,3.4122,3.405,3.4062,3.419,3.417,3.4253,3.4569,3.5011,3.509,3.5777,3.5391,3.5443,3.5731,3.5737,3.5849,3.6126,3.584,3.6301,3.6255,3.5974,3.5953,3.6283,3.6018,3.5661,3.487,3.4432,3.4458,3.4419,3.4308,3.4262,3.3938,3.4067,3.3922,3.3948,3.4014,3.341,3.3642
