-1.1345,-1.1261,-1.1378,-1.1239,-1.1219,-1.1053,-1.1128,-1.119,-1.1507,-1.1307,-1.1235,-1.1102,-1.1193,-1.1317,-1.1342,-1.1126,-1.1112,-1.124,-1.1625,-1.1609,-1.1351,-1.1312,-1.1258,-1.1316,-1.1205,-1.1163,-1.1171,-1.1125,-1.1299,-1.1463,-1.1474,-1.1223,-1.1118,-1.1418,-1.1447,-1.1406,-1.11,-1.1157,-1.1412,-1.1469,-1.1469,-1.1334,-1.1078,-1.086,-1.0636,-1.0523,-1.0376,-1.0191,-0.99937,-0.99101,-0.96794,-0.94711,-0.93578,-0.94863,-0.94702,-0.97631,-0.98816,-1.0209,-1.0607,-1.1019,-1.1346,-1.1476,-1.1256,-1.1319,-1.1519,-1.176,-1.1716,-1.1725,-1.1531,-1.1778,-1.1879,-1.1766,-1.1588,-1.1635,-1.1867,-1.22,-1.2729,-1.2625,-1.2243,-1.0892,-0.80159,-0.61831,-0.27884,-0.11871,-0.50525,-1.0988,-1.3624,-1.3099,-1.2231,-1.1518,-1.1433,-1.1423,-1.1478,-1.1308,-1.136,-1.1607,-1.1623,-1.1474,-1.1107,-1.1011,-1.1168,-1.11,-1.1271,-1.0902,-1.0905,-1.1303,-1.1673,-1.1567,-1.1322,-1.1062,-1.11,-1.1226,-1.0936,-1.0608,-1.0397,-1.0409,-1.0438,-1.0321,-1.0109,-0.98208,-0.99309,-0.99299,-0.98711,-0.98588,-0.96642,-0.9671,-0.97304,-0.95897,-0.92067,-0.88509,-0.86901,-0.88836,-0.88748,-0.88268,-0.86482,-0.84743,-0.85389,-0.84691,-0.82861,-0.80505,-0.82173,-0.8466,-0.85274,-0.86083,-0.85882,-0.87136,-0.90673,-0.94261,-0.95744,-0.95035,-0.94702,-0.96978,-0.98573,-0.97456,-0.95913,-0.95255,-0.97974,-1.0154,-0.99908,-0.99642,-0.98133,-0.98002,-0.99872,-0.99999,-0.99374,-0.99066,-0.98116,-0.99834,-0.98913,-0.97868,-0.96572,-0.95534,-0.96199,-0.96787,-0.95901,-0.94393,-0.92974,-0.95778,-0.96097,-0.9499,-0.93259,-0.90756,-0.96356,-0.99374,-0.99572,-0.97786,-0.98385,-0.98291,-1.0185,-1.0136,-0.99283,-0.97545,-1.0043,-0.99493,-0.95216,-0.92782,-0.90115,-0.91836,-0.91762,-0.91484,-0.90749,-0.86921,-0.84272,-0.86187,-0.85778,-0.84102,-0.84236,-0.87009,-0.94754,-0.97925,-1.0077,-1.0001,-1.0007,-1.028,-1.0297,-1.0338,-1.0095,-1.0071,-1.0277,-1.0217,-1.0256,-1.0282,-1.0196,-1.0279,-1.0537,-1.0687,-1.0914,-1.1217,-1.1305,-1.0789,-0.89932,-0.57691,-0.17466,0.07845,-0.16605,-0.82461,-1.233,-1.1842,-1.1354,-1.0799,-1.0409,-1.0158,-0.99993,-0.98785,-1.0226,-1.0468,-1.0613,-1.0506,-1.0181,-1.0191,-1.0274,-1.0466,-1.0269,-1.0365,-1.0717,-1.0804,-1.0717,-1.0732,-1.0571,-1.0697,-1.0731,-1.0658,-1.0423,-1.0289,-1.0253,-1.0261,-1.0084,-0.9837,-0.9401,-0.93366,-0.95507,-0.95576,-0.93096,-0.89903,-0.91086,-0.9251,-0.92104,-0.89214,-0.87082,-0.86431,-0.85758,-0.86163,-0.85458,-0.83531,-0.80837,-0.80819,-0.80734,-0.81708,-0.7871,-0.77771,-0.80173,-0.82051,-0.82835,-0.81652,-0.81872,-0.84021,-0.87409,-0.89253,-0.89178,-0.88848,-0.92769,-0.96927,-0.97043,-0.97382,-0.94822,-0.95897,-0.99617,-1.003,-0.99374,-0.9731,-0.97067,-0.98211,-1.0022,-0.98652,-0.95462,-0.95566,-0.9639,-0.96364,-0.9493,-0.93505,-0.93134,-0.94128,-0.94136,-0.93512,-0.93612,-0.91739,-0.9379,-0.96101,-0.95991,-0.9541,-0.96455,-0.95651,-0.97951,-0.97842,-0.97786,-0.97101,-0.99594,-1.0164,-1.0192,-1.0111,-0.99239,-0.99377,-1.0067,-0.96155,-0.90522,-0.87121,-0.871,-0.87778,-0.84569,-0.82977,-0.80924,-0.81226,-0.8579,-0.87156,-0.8507,-0.85428,-0.90538,-0.97267,-1.0197,-1.0482,-1.0582,-1.0768,-1.0914,-1.0952,-1.0935,-1.07,-1.0502,-1.073,-1.0801,-1.0807,-1.0545,-1.0555,-1.0597,-1.0711,-1.0723,-1.1079,-1.134,-1.1474,-1.0847,-0.99262,-0.75127,-0.33895,0.065935,0.061199,-0.57473,-1.1418,-1.2239,-1.1785,-1.1284,-1.0711,-1.0607,-1.0496,-1.0666,-1.0784,-1.0791,-1.0845,-1.0675,-1.0539,-1.0397,-1.0397,-1.0567,-1.0558,-1.0342,-1.0332,-1.0506,-1.0344,-1.0384,-1.0497,-1.0696,-1.0676,-1.0483,-1.0351,-0.99984,-1.0179,-1.0081,-1.0169,-1.0028,-0.98276,-0.99697,-0.99524,-0.99374,-0.96788,-0.94295,-0.93187,-0.95842,-0.96182,-0.93765,-0.91364,-0.90277,-0.90624,-0.89523,-0.89009,-0.86721,-0.86602,-0.87007,-0.87084,-0.84912,-0.82929,-0.83988,-0.84609,-0.84921,-0.85895,-0.85542,-0.87132,-0.90028,-0.91862,-0.9406,-0.94168,-0.94057,-0.97834,-0.99721,-1.0059,-1.0159,-1.013,-1.0159,-1.0333,-1.052,-1.0377,-1.0402,-1.0209,-1.0293,-1.0334,-1.0177,-1.0117,-1.0086,-1.0034,-0.99033,-0.9734,-0.96356,-0.95658,-0.95282,-0.94422,-0.94354,-0.93971,-0.9431,-0.94739,-0.96188,-0.9487,-0.96435,-0.94787,-0.97678,-1.0146,-1.0183,-1.0171,-1.0232,-1.0371,-1.0459,-1.0367,-1.032,-0.99881,-1.0246,-1.0389,-1.0283,-0.98866,-0.92177,-0.90668,-0.90034,-0.8921,-0.89086,-0.87295,-0.85307,-0.86056,-0.84142,-0.80814,-0.8099,-0.82768,-0.85876,-0.9004,-0.94234,-0.98027,-1.024,-1.0738,-1.0761,-1.0963,-1.07,-1.0743,-1.0843,-1.0994,-1.0925,-1.0589,-1.0255,-1.0561,-1.0592,-1.0464,-1.0358,-1.0477,-1.0884,-1.1682,-1.2049,-1.1611,-1.0269,-0.80997,-0.45435,-0.049893,0.033999,-0.5345,-1.1715,-1.3246,-1.2895,-1.206,-1.1075,-1.0825,-1.117,-1.1094,-1.1086,-1.079,-1.0887,-1.106,-1.1013,-1.0774,-1.0509,-1.0565,-1.0971,-1.0776,-1.083,-1.0842,-1.0828,-1.1166,-1.1244,-1.1163,-1.1103,-1.1038,-1.1058,-1.0946,-1.0801,-1.0505,-1.0184,-1.0145,-1.0426,-1.0424,-1.0249,-0.99518,-0.98947,-0.99171,-0.97781,-0.9729,-0.93589,-0.94575,-0.95213,-0.93657,-0.94123,-0.92616,-0.9197,-0.92076,-0.93451,-0.92455,-0.89245,-0.88106,-0.88418,-0.88508,-0.87182,-0.8555,-0.85484,-0.88181,-0.90376,-0.8977,-0.87771,-0.91449,-0.93774,-0.94541,-0.98507,-1.0026,-1.0181,-1.0312,-1.0674,-1.0681,-1.0378,-1.0243,-1.0394,-1.0641,-1.0671,-1.0483,-1.0243,-1.0367,-1.0505,-1.0534,-1.0294,-1.0223,-1.0051,-1.0259,-1.0259,-1.0395,-1.0077,-0.99565,-0.99938,-1.0032,-1.0142,-0.99047,-0.99928,-1.018,-1.021,-0.99093,-0.99215,-0.97339,-0.97979,-0.99389,-1.0031,-0.99603,-0.98073,-0.99868,-1.0125,-1.0151,-1.0113,-0.99937,-0.99798,-0.99377,-0.9623,-0.94138,-0.95531,-0.96744,-0.95203,-0.93901,-0.88272,-0.86081,-0.87881,-0.90972,-0.92017,-0.89881,-0.9077,-0.94182,-1.0152,-1.0678,-1.0692,-1.0662,-1.0514,-1.0701,-1.0815,-1.0906,-1.074,-1.084,-1.1017,-1.1072,-1.1062,-1.0763,-1.0735,-1.075,-1.1248,-1.1605,-1.2194,-1.2109,-1.149,-1.0066,-0.69784,-0.34388,-0.09903,-0.29375,-0.9258,-1.3265,-1.2975,-1.2196,-1.165,-1.1277,-1.1066,-1.0822,-1.0638,-1.066,-1.0922,-1.1031,-1.1095,-1.0735,-1.045,-1.0796,-1.1085,-1.0967,-1.0858,-1.0695,-1.1049,-1.1208,-1.11,-1.1228,-1.1227,-1.0973,-1.0985,-1.0877,-1.069,-1.0438,-1.048,-1.0573,-1.043,-1.0147,-0.99691,-0.99386,-1.0059,-1.0084,-0.97864,-0.95053,-0.95218,-0.96101,-0.94562,-0.93441,-0.89199,-0.89196,-0.89911,-0.90163,-0.87095,-0.83377,-0.83824,-0.85758,-0.85704,-0.83813,-0.81254,-0.83569,-0.85094,-0.85638,-0.84388,-0.83878,-0.85893,-0.91987,-0.94267,-0.9381,-0.92683,-0.94353,-0.95857,-0.95174,-0.94837,-0.94007,-0.93489,-0.94407,-0.97252,-0.99185,-0.98523,-0.96455,-0.97221,-0.98257,-1.0018,-0.99926,-0.97656,-0.9511,-0.95842,-0.95537,-0.9401,-0.94452,-0.96928,-0.99737,-0.992,-0.98316,-0.96766,-0.97415,-0.97339,-0.9906,-1.0013,-0.97845,-0.96364,-0.9847,-1.0151,-1.005,-1.0056,-1.0098,-1.0325,-1.0454,-1.0148,-0.99841,-0.96513,-0.94689,-0.92743,-0.94293,-0.94549,-0.93213,-0.91181,-0.92081,-0.91072,-0.86915,-0.83064,-0.84768,-0.88248,-0.89786,-0.91086,-0.91242,-0.96742,-1.0309,-1.0386,-1.017,-0.99154,-0.98241,-1.0053,-1.0245,-1.025,-1.0249,-1.028,-1.0486,-1.0452,-1.0485,-1.0672,-1.0666,-1.1027,-1.1347,-1.1692,-1.1707,-1.1356,-1.0081,-0.76395,-0.40533,-0.14463,-0.14863,-0.69433,-1.178,-1.2603,-1.2413,-1.2027,-1.1031,-1.0728,-1.0393,-1.0302,-1.0348,-1.0124,-1.0535,-1.0539,-1.0305,-0.99041,-0.97739,-0.99043,-0.9977,-0.98518,-0.96536,-0.98249,-1.0216,-1.0329,-1.0252,-1.0205,-1.0077,-1.016,-1.002,-0.9818,-0.95591,-0.91656,-0.91688,-0.94252,-0.96455,-0.92047,-0.89962,-0.9112,-0.91643,-0.89602,-0.86284,-0.84047,-0.85973,-0.87156,-0.86937,-0.8552,-0.84083,-0.82533,-0.8258,-0.82537,-0.76707,-0.75993,-0.76009,-0.76246,-0.7772,-0.77979,-0.77913,-0.75621,-0.78203,-0.79147,-0.79916,-0.79982,-0.80496,-0.82043,-0.84885,-0.86609,-0.87117,-0.84951,-0.87045,-0.90472,-0.89106,-0.89747,-0.8917,-0.90037,-0.92997,-0.93652,-0.93106,-0.91365,-0.93519,-0.96858,-0.96161,-0.94431,-0.93987,-0.94461,-0.97976,-0.976,-0.96476,-0.9389,-0.9239,-0.92554,-0.93216,-0.94129,-0.92195,-0.89567,-0.91243,-0.90635,-0.89614,-0.89467,-0.86192,-0.89248,-0.91472,-0.90918,-0.89461,-0.91176,-0.92582,-0.93865,-0.90761,-0.85887,-0.80741,-0.77596,-0.76225,-0.75172,-0.74662,-0.71957,-0.69866,-0.71994,-0.74231,-0.75518,-0.74054,-0.75041,-0.7864,-0.81605,-0.83728,-0.85471,-0.89067,-0.94301,-0.94517,-0.92968,-0.9184,-0.92336,-0.93895,-0.94122,-0.94644,-0.93722,-0.91331,-0.93028,-0.96121,-0.95569,-0.95911,-0.98141,-1.0651,-1.063,-1.0431,-0.88735,-0.63089,-0.2515,0.15739,0.21875,-0.31774,-0.91508,-1.0958,-1.0672,-0.98367,-0.90125,-0.89567,-0.92362,-0.91465,-0.92921,-0.92538,-0.93581,-0.92476,-0.91288,-0.90791,-0.90541,-0.90236,-0.90549,-0.93559,-0.95661,-0.9471,-0.96288,-0.96339,-0.96557,-0.95676,-0.9553,-0.93386,-0.91679,-0.91936,-0.93753,-0.92299,-0.90384,-0.87334,-0.86147,-0.84957,-0.84602,-0.84294,-0.82647,-0.80323,-0.80426,-0.82183,-0.81524,-0.76338,-0.76768,-0.80157,-0.76756,-0.74135,-0.71382,-0.72391,-0.72311,-0.69825,-0.67318,-0.66513,-0.68624,-0.69973,-0.70184,-0.70205,-0.6782,-0.68454,-0.72628,-0.76281,-0.75312,-0.77099,-0.79763,-0.81685,-0.83376,-0.85121,-0.86402,-0.85327,-0.8468,-0.86254,-0.86052,-0.86048,-0.84775,-0.8604,-0.86463,-0.87118,-0.85778,-0.82905,-0.85121,-0.90036,-0.87834,-0.86541,-0.84456,-0.84735,-0.84632,-0.85344,-0.8604,-0.8298,-0.82336,-0.84735,-0.8535,-0.84697,-0.83606,-0.81443,-0.82354,-0.85202,-0.85139,-0.84599,-0.83309,-0.85916,-0.89282,-0.89371,-0.88988,-0.88708,-0.90389,-0.89415,-0.87261,-0.80526,-0.76644,-0.78281,-0.79852,-0.77727,-0.74125,-0.70573,-0.71994,-0.72706,-0.74394,-0.74292,-0.72076,-0.71689,-0.77118,-0.81607,-0.84945,-0.89026,-0.89384,-0.93066,-0.94331,-0.93645,-0.94037,-0.9337,-0.94408,-0.9667,-0.98759,-0.97996,-0.97254,-0.9904,-0.99858,-0.99416,-0.99541,-1.019,-1.0982,-1.0993,-1.0346,-0.86531,-0.57535,-0.14438,0.22024,0.069684,-0.59932,-1.1046,-1.1535,-1.1101,-1.0748,-0.99509,-0.9632,-0.96484,-0.99396,-1.0161,-1.0126,-1.0243,-1.0358,-1.0365,-1.0353,-1.0002,-0.96907,-0.97864,-0.99015,-0.98489,-0.9696,-0.95601,-0.9795,-0.98947,-0.99249,-0.96957,-0.95129,-0.95391,-0.97408,-0.98873,-0.97586,-0.94923,-0.93477,-0.94367,-0.95378,-0.95548,-0.93593,-0.9289,-0.934,-0.93183,-0.92761,-0.90048,-0.8473,-0.85023,-0.85588,-0.85851,-0.83329,-0.80861,-0.78946,-0.79829,-0.78041,-0.77278,-0.73963,-0.74842,-0.77562,-0.80804,-0.80788,-0.80432,-0.81426,-0.86162,-0.87749,-0.87464,-0.87442,-0.87645,-0.89576,-0.92078,-0.93588,-0.92526,-0.92817,-0.94831,-0.96682,-0.94689,-0.93741,-0.91311,-0.92025,-0.94127,-0.96291,-0.95617,-0.9499,-0.94537,-0.95983,-0.94998,-0.95023,-0.94162,-0.95391,-0.97298,-0.96676,-0.93735,-0.91236,-0.89515,-0.9135,-0.92137,-0.91871,-0.90208,-0.89738,-0.92227,-0.92906,-0.92085,-0.91839,-0.93074,-0.95584,-0.96411,-0.94643,-0.94136,-0.94177,-0.94606,-0.95721,-0.97235,-0.95904,-0.9374,-0.9394,-0.97558,-0.97148,-0.93569,-0.87763,-0.85556,-0.86292,-0.85584,-0.84838,-0.80816,-0.79643,-0.81085,-0.79799,-0.79722,-0.78167,-0.7818,-0.80312,-0.83759,-0.88796,-0.93085,-0.98888,-1.0394,-1.0382,-1.0331,-1.0212,-1.0055,-1.0071,-1.0241,-1.0079,-0.99191,-0.9872,-1.0026,-1.0058,-1.0239,-1.0103,-1.0053,-1.0482,-1.1163,-1.1206,-1.0551,-0.87986,-0.61128,-0.26233,0.031261,-0.12062,-0.74271,-1.2281,-1.2276,-1.1655,-1.092,-1.0194,-1.0183,-1.0406,-1.0409,-1.0295,-1.0106,-1.0342,-1.058,-1.0562,-1.0084,-1.0028,-1.0021,-1.0053,-1.0382,-1.0371,-1.0237,-1.0248,-1.0502,-1.0756,-1.0571,-1.0076,-0.96547,-0.98714,-1.0144,-1.0148,-0.98527,-0.96532,-0.98151,-0.96281,-0.94741,-0.93007,-0.92927,-0.90903,-0.94216,-0.94402,-0.92021,-0.88973,-0.87718,-0.88268,-0.88032,-0.86093,-0.84129,-0.8301,-0.83218,-0.82721,-0.79819,-0.80106,-0.79784,-0.81261,-0.81575,-0.79212,-0.7776,-0.77631,-0.79931,-0.81458,-0.81459,-0.82637,-0.82601,-0.85784,-0.87589,-0.87328,-0.87295,-0.86763,-0.8693,-0.8901,-0.8938,-0.88407,-0.87535,-0.90278,-0.92978,-0.93819,-0.94458,-0.92036,-0.92159,-0.92965,-0.92716,-0.9046,-0.88411,-0.87378,-0.88536,-0.8883,-0.88945,-0.86707,-0.83474,-0.83253,-0.87579,-0.88646,-0.87544,-0.85632,-0.86368,-0.87379,-0.88515,-0.87209,-0.86331,-0.8789,-0.89845,-0.91083,-0.8888,-0.8636,-0.89095,-0.91869,-0.90952,-0.89439,-0.86976,-0.87405,-0.88474,-0.83407,-0.79368,-0.78935,-0.80677,-0.8199,-0.80073,-0.76292,-0.72679,-0.72245,-0.74482,-0.74456,-0.74463,-0.75768,-0.81746,-0.86576,-0.90119,-0.90385,-0.90481,-0.91638,-0.93391,-0.96342,-0.94687,-0.93939,-0.92064,-0.91244,-0.93983,-0.93829,-0.94762,-0.93882,-0.95096,-0.98825,-0.99908,-1.0495,-1.0373,-1.0164,-0.89804,-0.77444,-0.45312,-0.095725,0.035131,-0.2619,-0.82968,-1.128,-1.1023,-1.045,-1.017,-0.9772,-0.94936,-0.94256,-0.94934,-0.96135,-0.94861,-0.95841,-0.9456,-0.93915,-0.94435,-0.92795,-0.91041,-0.88347,-0.89539,-0.91999,-0.94356,-0.93704,-0.91449,-0.89466,-0.89454,-0.89514,-0.86215,-0.84564,-0.85517,-0.86499,-0.86053,-0.84089,-0.81093,-0.81006,-0.80971,-0.81554,-0.82797,-0.81687,-0.80256,-0.8068,-0.81956,-0.80419,-0.77955,-0.76125,-0.75473,-0.75817,-0.7623,-0.73896,-0.71518,-0.6796,-0.67509,-0.69913,-0.71803,-0.68356,-0.67833,-0.68268,-0.68671,-0.68967,-0.67398,-0.67831,-0.68669,-0.71535,-0.73294,-0.72046,-0.71719,-0.73678,-0.78214,-0.78397,-0.75989,-0.73998,-0.74665,-0.78269,-0.78318,-0.77631,-0.77108,-0.7773,-0.77338,-0.76864,-0.77061,-0.77178,-0.76067,-0.78362,-0.77894,-0.7595,-0.73531,-0.73516,-0.74217,-0.73741,-0.72344,-0.69493,-0.71013,-0.73223,-0.74373,-0.7268,-0.72453,-0.71791,-0.74682,-0.74633,-0.75407,-0.74436,-0.74249,-0.75134,-0.76578,-0.772,-0.73965,-0.6924,-0.6714,-0.67227,-0.66322,-0.64076,-0.62415,-0.61442,-0.60819,-0.59782,-0.58618,-0.58383,-0.59422,-0.61937,-0.6472,-0.65954,-0.66922,-0.71585,-0.76048,-0.78198,-0.78512,-0.76256,-0.76229,-0.78701,-0.7962,-0.79301,-0.78615,-0.79111,-0.80411,-0.81631,-0.83475,-0.82994,-0.82601,-0.88009,-0.95183,-0.9598,-0.88513,-0.69616,-0.41712,-0.056336,0.27823,0.15903,-0.47382,-0.98857,-1.038,-0.96005,-0.84546,-0.7695,-0.77499,-0.80139,-0.81106,-0.81241,-0.80847,-0.81422,-0.84071,-0.83799,-0.82697,-0.80305,-0.8157,-0.83727,-0.85811,-0.83741,-0.83076,-0.84716,-0.86601,-0.88105,-0.88073,-0.85173,-0.84836,-0.88137,-0.88939,-0.88871,-0.87215,-0.84153,-0.83774,-0.83274,-0.81954,-0.791,-0.76793,-0.78101,-0.77997,-0.78035,-0.75839,-0.73167,-0.71458,-0.71469,-0.71618,-0.69223,-0.66877,-0.64987,-0.6491,-0.65827,-0.66254,-0.64122,-0.627,-0.63578,-0.64046,-0.65486,-0.65583,-0.65673,-0.68488,-0.70989,-0.71033,-0.71922,-0.72675,-0.74709,-0.75475,-0.75984,-0.75896,-0.77571,-0.784,-0.7972,-0.78052,-0.77326,-0.77475,-0.76715,-0.79747,-0.81956,-0.82375,-0.7987,-0.81367,-0.84687,-0.85228,-0.84063,-0.81878,-0.82381,-0.84686,-0.82483,-0.8157,-0.7977,-0.80061,-0.81669,-0.80688,-0.79765,-0.77911,-0.77436,-0.79405,-0.81717,-0.79778,-0.77858,-0.77382,-0.80029,-0.80214,-0.7846,-0.76691,-0.74363,-0.72383,-0.71299,-0.69453,-0.68249,-0.67961,-0.67094,-0.68171,-0.66738,-0.66297,-0.6494,-0.66305,-0.70865,-0.72442,-0.71575,-0.72982,-0.7898,-0.86304,-0.89751,-0.89785,-0.88595,-0.88618,-0.90538,-0.90857,-0.89276,-0.87804,-0.88937,-0.8982,-0.91029,-0.91132,-0.89346,-0.88572,-0.91417,-0.9672,-1.0242,-1.026,-0.97084,-0.86658,-0.61603,-0.20294,0.23927,0.21388,-0.41794,-1.0099,-1.1339,-1.0527,-0.99548,-0.91125,-0.90694,-0.90974,-0.90421,-0.91238,-0.92095,-0.95405,-0.97398,-0.94795,-0.91061,-0.90077,-0.91101,-0.90682,-0.89544,-0.89345,-0.89706,-0.91209,-0.92737,-0.932,-0.92176,-0.90471,-0.91905,-0.9319,-0.92344,-0.90567,-0.87301,-0.89863,-0.90036,-0.86295,-0.82987,-0.80877,-0.81099,-0.81933,-0.79878,-0.76885,-0.75815,-0.76353,-0.76472,-0.77371,-0.74751,-0.71367,-0.70304,-0.73016,-0.72415,-0.71902,-0.70428,-0.69249,-0.71103,-0.70623,-0.70446,-0.70322,-0.70729,-0.72588,-0.73951,-0.73824,-0.73229,-0.75332,-0.77202,-0.78413,-0.79198,-0.78619,-0.79533,-0.8278,-0.85087,-0.84999,-0.85046,-0.83426,-0.8325,-0.84962,-0.8608,-0.8414,-0.85748,-0.86683,-0.88535,-0.88021,-0.8788,-0.8695,-0.87416,-0.88715,-0.89029,-0.88029,-0.86437,-0.84865,-0.84997,-0.85273,-0.83122,-0.81547,-0.79899,-0.80918,-0.82248,-0.80892,-0.79899,-0.78856,-0.80688,-0.79664,-0.74273,-0.71003,-0.69064,-0.69992,-0.72085,-0.69945,-0.67656,-0.64776,-0.63922,-0.65665,-0.66202,-0.66307,-0.65841,-0.69755,-0.7281,-0.76462,-0.79859,-0.8345,-0.84845,-0.87388,-0.87959,-0.86693,-0.8351,-0.84025,-0.87209,-0.89124,-0.87759,-0.86438,-0.85685,-0.87047,-0.87369,-0.89687,-0.91347,-0.96637,-1.0026,-0.95024,-0.8073,-0.55305,-0.16279,0.21428,0.17151,-0.093997,-0.75393,-1.1129,-1.0638,-1.0301,-0.94352,-0.91741,-0.91522,-0.92159,-0.94411,-0.9632,-0.9471,-0.95655,-0.96855,-0.96508,-0.92897,-0.91527,-0.90296,-0.91513,-0.93148,-0.94023,-0.92692,-0.92823,-0.92425,-0.94828,-0.93605,-0.92946,-0.89805,-0.88919,-0.87996,-0.89953,-0.88096,-0.84651,-0.83164,-0.8332,-0.83474,-0.81608,-0.78004,-0.77224,-0.78194,-0.78434,-0.78157,-0.75176,-0.73375,-0.74981,-0.7705,-0.75323,-0.72314,-0.69586,-0.71555,-0.73104,-0.7272,-0.70708,-0.67876,-0.68459,-0.71686,-0.73173,-0.72249,-0.7113,-0.73707,-0.74859,-0.75482,-0.76123,-0.74766,-0.75374,-0.79476,-0.80929,-0.82047,-0.80247,-0.80054,-0.82874,-0.82396,-0.83657,-0.82443,-0.83081,-0.85085,-0.83907,-0.82522,-0.81818,-0.82036,-0.82797,-0.83375,-0.84178,-0.80826,-0.8052,-0.82153,-0.82712,-0.80695,-0.79165,-0.7794,-0.78769,-0.80302,-0.78324,-0.78307,-0.76834,-0.77885,-0.79055,-0.77243,-0.72279,-0.6846,-0.68393,-0.70741,-0.70816,-0.69374,-0.6655,-0.65569,-0.66328,-0.68248,-0.67917,-0.68824,-0.69014,-0.73495,-0.79442,-0.81076,-0.84848,-0.85886,-0.87742,-0.86537,-0.86103,-0.85474,-0.83191,-0.84144,-0.87573,-0.8707,-0.85922,-0.84405,-0.86082,-0.89323,-0.88557,-0.92124,-0.96472,-0.99454,-0.96472,-0.85064,-0.57791,-0.17147,0.21829,0.18751,-0.43617,-0.77638,-1.0645,-1.0608,-0.97298,-0.92147,-0.87789,-0.90076,-0.86628,-0.90645,-0.88811,-0.92607,-0.89591,-0.9217,-0.90446,-0.93758,-0.90051,-0.91215,-0.89038,-0.91961,-0.89952,-0.90378,-0.88803,-0.87693,-0.89153,-0.91835,-0.89138,-0.86731,-0.8369,-0.87108,-0.86514,-0.85392,-0.81433,-0.79945,-0.80756,-0.83183,-0.81903,-0.79213,-0.75472,-0.76672,-0.76324,-0.75556,-0.73921,-0.70785,-0.70517,-0.70647,-0.71583,-0.69256,-0.67518,-0.67964,-0.68288,-0.69276,-0.67734,-0.66345,-0.63196,-0.63456,-0.65679,-0.6625,-0.66978,-0.66224,-0.68796,-0.69178,-0.70297,-0.69654,-0.71119,-0.73084,-0.76481,-0.75959,-0.75732,-0.72721,-0.74725,-0.7943,-0.80707,-0.79549,-0.77996,-0.78609,-0.82304,-0.80749,-0.78462,-0.76253,-0.78108,-0.78027,-0.79989,-0.77227,-0.75425,-0.72466,-0.73936,-0.73842,-0.73452,-0.72273,-0.7119,-0.7235,-0.75067,-0.74823,-0.73764,-0.7534,-0.78362,-0.80513,-0.7921,-0.76331,-0.74896,-0.73322,-0.74273,-0.72315,-0.70648,-0.67111,-0.64778,-0.66276,-0.65034,-0.62475,-0.60633,-0.60593,-0.62779,-0.65389,-0.67478,-0.68955,-0.73448,-0.80541,-0.83038,-0.81908,-0.82289,-0.81841,-0.8473,-0.86297,-0.87596,-0.8491,-0.83818,-0.85679,-0.87251,-0.87261,-0.87344,-0.8866,-0.93316,-0.98365,-0.9924,-0.91496,-0.76818,-0.5121,-0.15934,0.20549,0.23758,-0.1937,-0.84601,-1.1083,-1.0459,-0.97798,-0.8732,-0.85174,-0.87604,-0.87258,-0.87211,-0.85624,-0.84556,-0.90056,-0.90022,-0.87445,-0.83288,-0.84532,-0.85487,-0.87268,-0.87081,-0.8607,-0.8451,-0.87659,-0.89735,-0.8851,-0.86737,-0.85886,-0.86648,-0.88337,-0.87098,-0.84666,-0.81756,-0.81612,-0.81557,-0.79915,-0.76884,-0.7399,-0.75649,-0.77691,-0.7765,-0.76072,-0.73688,-0.71941,-0.73176,-0.72539,-0.70332,-0.66776,-0.66098,-0.67991,-0.66927,-0.6497,-0.62042,-0.60586,-0.62771,-0.61997,-0.61869,-0.58356,-0.59568,-0.63751,-0.65811,-0.67823,-0.68343,-0.68011,-0.69896,-0.73411,-0.73422,-0.71625,-0.69881,-0.70773,-0.74339,-0.75686,-0.75092,-0.75325,-0.77397,-0.78832,-0.78238,-0.77037,-0.7549,-0.76119,-0.77111,-0.78231,-0.77196,-0.74163,-0.75234,-0.75986,-0.74099,-0.73963,-0.73208,-0.72815,-0.7425,-0.75506,-0.73877,-0.71953,-0.7131,-0.74961,-0.75905,-0.75735,-0.72045,-0.70527,-0.69816,-0.69484,-0.66746,-0.64812,-0.63915,-0.65518,-0.66289,-0.6353,-0.58666,-0.58608,-0.60777,-0.62591,-0.63465,-0.63608,-0.65635,-0.7106,-0.77085,-0.78805,-0.77068,-0.78778,-0.77244,-0.79654,-0.80059,-0.78997,-0.7657,-0.7736,-0.78691,-0.80758,-0.79949,-0.78423,-0.78699,-0.82544,-0.86225,-0.89467,-0.88675,-0.84779,-0.75335,-0.49701,-0.15921,0.0041719,0.13799,-0.16829,-0.76978,-1.0326,-0.99942,-0.89481,-0.85276,-0.81252,-0.81355,-0.79147,-0.78154,-0.78878,-0.82693,-0.82033,-0.82583,-0.7942,-0.77918,-0.78731,-0.78047,-0.77376,-0.76057,-0.75391,-0.79671,-0.84325,-0.86303,-0.84134,-0.81327,-0.80172,-0.79978,-0.78605,-0.7712,-0.75576,-0.7694,-0.7646,-0.74286,-0.71959,-0.70702,-0.70453,-0.7051,-0.69629,-0.6868,-0.66824,-0.68162,-0.70486,-0.7017,-0.67708,-0.66352,-0.64189,-0.65907,-0.6539,-0.61917,-0.59426,-0.59046,-0.60076,-0.58476,-0.55457,-0.54522,-0.55151,-0.58111,-0.60227,-0.59932,-0.59669,-0.59648,-0.64299,-0.68319,-0.66772,-0.65075,-0.64986,-0.65749,-0.68146,-0.6805,-0.66271,-0.68229,-0.69533,-0.69966,-0.68223,-0.66509,-0.67268,-0.68307,-0.67733,-0.6826,-0.67584,-0.65638,-0.64832,-0.67352,-0.66506,-0.65462,-0.63799,-0.65089,-0.66122,-0.64181,-0.63027,-0.61222,-0.61057,-0.61796,-0.59609,-0.56966,-0.57376,-0.563,-0.55924,-0.54628,-0.52237,-0.50038,-0.49292,-0.51104,-0.51487,-0.52621,-0.53179,-0.5659,-0.60831,-0.67252,-0.68886,-0.6936,-0.69082,-0.70865,-0.70122,-0.69031,-0.68845,-0.6809,-0.68571,-0.68356,-0.71938,-0.71002,-0.69466,-0.69239,-0.72188,-0.758,-0.79767,-0.79961,-0.78378,-0.66822,-0.41702,-0.048479,0.22604,0.23041,-0.32407,-0.85014,-0.96196,-0.93811,-0.84328,-0.78275,-0.7458,-0.73291,-0.71628,-0.71028,-0.72758,-0.75881,-0.74288,-0.73858,-0.7265,-0.72827,-0.71805,-0.71777,-0.68474,-0.67385,-0.69467,-0.7388,-0.73666,-0.72949,-0.71532,-0.70611,-0.7198,-0.72102,-0.69239,-0.64251,-0.63923,-0.6536,-0.66207,-0.64183,-0.61213,-0.58982,-0.60382,-0.60549,-0.59633,-0.57749,-0.57169,-0.59426,-0.60314,-0.60289,-0.56899,-0.56171,-0.54813,-0.57225,-0.58284,-0.54497,-0.51825,-0.52775,-0.53507,-0.51253,-0.49234,-0.47118,-0.50583,-0.52227,-0.51228,-0.51412,-0.53403,-0.55612,-0.5802,-0.57739,-0.57894,-0.57738,-0.58169,-0.60315,-0.62039,-0.59546,-0.59409,-0.62838,-0.65472,-0.65656,-0.64502,-0.63688,-0.64238,-0.65867,-0.65446,-0.63568,-0.62652,-0.63557,-0.64418,-0.64079,-0.61433,-0.60129,-0.60866,-0.63288,-0.63926,-0.63193,-0.61578,-0.58799,-0.58798,-0.5677,-0.55038,-0.52162,-0.49432,-0.52113,-0.5253,-0.52191,-0.48223,-0.43699,-0.46753,-0.48046,-0.50703,-0.48357,-0.49238,-0.52467,-0.58245,-0.62057,-0.66131,-0.65988,-0.67171,-0.71296,-0.71764,-0.69079,-0.67631,-0.66674,-0.69449,-0.69372,-0.68071,-0.66892,-0.66522,-0.6659,-0.68567,-0.69782,-0.72086,-0.7848,-0.77271,-0.72906,-0.54111,-0.21148,0.17721,0.41241,0.15238,-0.49645,-0.9288,-0.89504,-0.83978,-0.76304,-0.70256,-0.69015,-0.65747,-0.66988,-0.69623,-0.71312,-0.70316,-0.6871,-0.66328,-0.67692,-0.66687,-0.65804,-0.6488,-0.65881,-0.67448,-0.69663,-0.69892,-0.68791,-0.68039,-0.69641,-0.68493,-0.67584,-0.66683,-0.64692,-0.6499,-0.65695,-0.65018,-0.61848,-0.58205,-0.56243,-0.57749,-0.56738,-0.5388,-0.53726,-0.55134,-0.56007,-0.55118,-0.5298,-0.51448,-0.52196,-0.51911,-0.51232,-0.4884,-0.47868,-0.44917,-0.46823,-0.4683,-0.43595,-0.40597,-0.40758,-0.4258,-0.42302,-0.40209,-0.40572,-0.41017,-0.43791,-0.44482,-0.4634,-0.48178,-0.48522,-0.5273,-0.5521,-0.53747,-0.52318,-0.50744,-0.5338,-0.55304,-0.56248,-0.57192,-0.55165,-0.54385,-0.55869,-0.58399,-0.56679,-0.53285,-0.53724,-0.5493,-0.54305,-0.51654,-0.50097,-0.49103,-0.5051,-0.49863,-0.49668,-0.48204,-0.47959,-0.50271,-0.50191,-0.47762,-0.44302,-0.43031,-0.43546,-0.43983,-0.43051,-0.40849,-0.39032,-0.405,-0.38685,-0.41128,-0.4128,-0.41504,-0.45558,-0.46126,-0.48601,-0.51875,-0.55264,-0.57918,-0.59822,-0.59445,-0.58256,-0.59164,-0.59655,-0.61102,-0.60512,-0.59128,-0.58742,-0.58937,-0.62475,-0.62844,-0.61341,-0.60803,-0.68554,-0.73737,-0.76278,-0.7089,-0.57956,-0.33375,0.072473,0.50524,0.52635,-0.072843,-0.63948,-0.81189,-0.77723,-0.67409,-0.61104,-0.62215,-0.62525,-0.63016,-0.63478,-0.63063,-0.64545,-0.66429,-0.67466,-0.67182,-0.62815,-0.6129,-0.62395,-0.66496,-0.65308,-0.63393,-0.62158,-0.6334,-0.62861,-0.66202,-0.64915,-0.60787,-0.59891,-0.62469,-0.602,-0.58279,-0.56455,-0.56768,-0.57428,-0.58971,-0.58192,-0.56677,-0.54976,-0.56153,-0.57597,-0.55891,-0.52862,-0.49318,-0.49863,-0.50479,-0.48917,-0.4557,-0.43781,-0.44775,-0.45665,-0.44231,-0.42723,-0.38765,-0.40944,-0.41693,-0.42649,-0.42815,-0.41849,-0.44779,-0.51652,-0.53572,-0.50608,-0.48222,-0.49942,-0.5594,-0.59145,-0.6137,-0.60703,-0.6147,-0.64793,-0.65336,-0.64405,-0.62839,-0.61242,-0.66033,-0.66304,-0.66275,-0.6477,-0.62574,-0.62936,-0.63771,-0.62162,-0.60243,-0.58181,-0.57513,-0.57491,-0.57908,-0.56597,-0.56054,-0.56338,-0.58431,-0.60244,-0.58321,-0.58147,-0.60386,-0.62253,-0.62852,-0.61219,-0.56705,-0.54819,-0.53323,-0.52863,-0.53107,-0.51041,-0.49241,-0.5037,-0.48056,-0.4556,-0.45321,-0.4757,-0.50195,-0.51425,-0.52026,-0.55194,-0.58451,-0.64558,-0.67702,-0.69813,-0.69353,-0.67822,-0.69007,-0.70364,-0.70467,-0.69767,-0.67813,-0.69964,-0.71365,-0.70398,-0.68906,-0.68697,-0.70673,-0.73413,-0.7847,-0.81041,-0.76434,-0.63811,-0.40064,-0.027071,0.3523,0.36255,-0.2349,-0.8154,-0.91139,-0.84948,-0.78129,-0.71369,-0.71613,-0.73069,-0.71308,-0.70283,-0.70182,-0.71759,-0.72677,-0.74557,-0.69664,-0.6879,-0.70145,-0.70465,-0.69735,-0.69129,-0.69572,-0.70702,-0.7207,-0.71535,-0.69161,-0.6907,-0.71959,-0.73316,-0.72384,-0.69439,-0.67141,-0.66861,-0.68313,-0.67489,-0.66202,-0.62945,-0.61256,-0.61699,-0.61655,-0.58914,-0.55944,-0.55288,-0.55497,-0.54556,-0.52119,-0.49178,-0.48086,-0.50483,-0.50646,-0.47603,-0.45494,-0.43177,-0.43798,-0.45456,-0.44311,-0.44514,-0.44375,-0.45254,-0.48897,-0.49811,-0.50474,-0.50449,-0.53717,-0.56202,-0.56937,-0.55855,-0.54861,-0.55962,-0.58069,-0.57768,-0.5647,-0.55917,-0.57419,-0.60319,-0.59654,-0.57405,-0.5622,-0.56817,-0.57312,-0.57375,-0.5602,-0.55881,-0.53242,-0.56177,-0.56241,-0.55327,-0.53972,-0.52968,-0.53744,-0.56139,-0.5536,-0.53774,-0.54229,-0.56257,-0.57708,-0.54991,-0.52319,-0.4892,-0.47382,-0.4864,-0.48314,-0.4686,-0.43754,-0.44605,-0.43236,-0.41857,-0.43581,-0.4097,-0.45229,-0.48676,-0.49521,-0.51289,-0.52528,-0.55539,-0.60576,-0.61325,-0.60724,-0.60209,-0.59396,-0.60812,-0.63288,-0.62466,-0.58212,-0.56928,-0.60891,-0.62449,-0.60779,-0.58478,-0.59926,-0.65952,-0.68631,-0.72204,-0.70273,-0.60483,-0.39326,-0.060126,0.22075,0.31036,-0.096148,-0.6038,-0.80534,-0.75251,-0.68753,-0.62151,-0.59318,-0.58951,-0.59164,-0.57119,-0.56776,-0.5812,-0.59635,-0.59401,-0.56956,-0.56893,-0.56358,-0.58211,-0.5731,-0.57329,-0.57223,-0.59769,-0.62535,-0.61498,-0.58874,-0.56876,-0.56648,-0.56575,-0.5756,-0.55739,-0.5425,-0.52256,-0.52327,-0.55118,-0.54777,-0.52259,-0.50372,-0.51591,-0.53881,-0.54452,-0.51717,-0.4955,-0.47914,-0.49805,-0.48627,-0.46703,-0.44277,-0.44557,-0.44855,-0.43379,-0.405,-0.40517,-0.39918,-0.41895,-0.42805,-0.42045,-0.41365,-0.40962,-0.42366,-0.44766,-0.45209,-0.44852,-0.45316,-0.48938,-0.51523,-0.49641,-0.5003,-0.49004,-0.50188,-0.52926,-0.52894,-0.51313,-0.51389,-0.52184,-0.5606,-0.56353,-0.55106,-0.5394,-0.5213,-0.52684,-0.52824,-0.51937,-0.49412,-0.4906,-0.52016,-0.50405,-0.48783,-0.48525,-0.4824,-0.49723,-0.49936,-0.50319,-0.49768,-0.4975,-0.49526,-0.50556,-0.50037,-0.47011,-0.43088,-0.42997,-0.41044,-0.41342,-0.40614,-0.3807,-0.39927,-0.38099,-0.3667,-0.3398,-0.33087,-0.36193,-0.38396,-0.39651,-0.41766,-0.43308,-0.47698,-0.51846,-0.53019,-0.52591,-0.50049,-0.50621,-0.52191,-0.53068,-0.52087,-0.51234,-0.52963,-0.54421,-0.54673,-0.52795,-0.543,-0.58483,-0.63983,-0.6603,-0.64522,-0.59774,-0.43316,-0.17346,0.19708,0.47908,0.37407,-0.21304,-0.70852,-0.75965,-0.69601,-0.58956,-0.52341,-0.50944,-0.5244,-0.53347,-0.5333,-0.53013,-0.54263,-0.55052,-0.55613,-0.54469,-0.52384,-0.53148,-0.55665,-0.55696,-0.54316,-0.53489,-0.52945,-0.56758,-0.56038,-0.53776,-0.52083,-0.51253,-0.52481,-0.50883,-0.47693,-0.45976,-0.42985,-0.4372,-0.44551,-0.44995,-0.42788,-0.40796,-0.43605,-0.44857,-0.43342,-0.42277,-0.40189,-0.40496,-0.40098,-0.39167,-0.37941,-0.36071,-0.37276,-0.38008,-0.3544,-0.32898,-0.29405,-0.29374,-0.30696,-0.32016,-0.31058,-0.29902,-0.30233,-0.31405,-0.34526,-0.32262,-0.33903,-0.3435,-0.38147,-0.38863,-0.37256,-0.36727,-0.3846,-0.40107,-0.40162,-0.39292,-0.3898,-0.38704,-0.41429,-0.42425,-0.41749,-0.43044,-0.41037,-0.44099,-0.45355,-0.44376,-0.43084,-0.42667,-0.441,-0.44289,-0.44285,-0.40829,-0.38684,-0.38762,-0.39195,-0.38705,-0.37609,-0.36244,-0.37554,-0.39283,-0.40647,-0.39236,-0.36898,-0.35414,-0.34771,-0.34547,-0.32488,-0.30401,-0.29686,-0.31721,-0.30157,-0.27329,-0.25314,-0.24888,-0.25633,-0.27864,-0.26522,-0.27888,-0.27818,-0.30749,-0.3433,-0.37927,-0.40952,-0.40517,-0.41493,-0.43505,-0.43178,-0.39922,-0.37772,-0.40428,-0.43198,-0.42534,-0.40561,-0.40293,-0.41359,-0.45137,-0.45656,-0.48364,-0.51444,-0.54702,-0.55949,-0.47001,-0.27817,0.11879,0.56764,0.72486,0.26139,-0.37226,-0.65697,-0.58961,-0.55973,-0.47697,-0.43248,-0.42637,-0.43669,-0.45887,-0.46191,-0.47887,-0.46773,-0.44107,-0.44637,-0.46887,-0.46477,-0.45313,-0.45503,-0.47752,-0.49507,-0.49975,-0.47491,-0.48065,-0.4799,-0.49389,-0.47898,-0.46572,-0.42932,-0.4572,-0.46574,-0.45182,-0.43116,-0.40595,-0.38553,-0.39567,-0.40761,-0.39049,-0.37527,-0.36016,-0.37041,-0.36349,-0.33399,-0.31994,-0.29611,-0.31792,-0.2961,-0.28788,-0.26358,-0.26092,-0.27144,-0.28014,-0.28131,-0.25116,-0.22697,-0.23008,-0.26348,-0.25786,-0.2604,-0.24856,-0.27974,-0.30944,-0.31447,-0.30464,-0.31759,-0.35729,-0.39476,-0.41682,-0.40307,-0.38585,-0.37546,-0.40306,-0.41636,-0.42129,-0.41274,-0.38898,-0.40285,-0.41815,-0.41198,-0.38444,-0.38755,-0.39338,-0.37595,-0.37718,-0.35085,-0.35868,-0.35639,-0.35797,-0.34816,-0.34908,-0.32054,-0.33529,-0.37029,-0.36501,-0.36944,-0.3504,-0.37458,-0.3915,-0.39847,-0.40125,-0.40255,-0.39685,-0.42319,-0.42245,-0.39926,-0.38962,-0.39086,-0.38207,-0.33445,-0.29804,-0.26768,-0.23651,-0.27227,-0.2661,-0.21103,-0.15899,-0.17321,-0.19045,-0.22761,-0.21112,-0.19447,-0.22251,-0.26494,-0.31373,-0.36175,-0.38064,-0.38921,-0.41265,-0.4008,-0.38544,-0.41408,-0.4377,-0.42621,-0.44732,-0.43098,-0.42399,-0.3974,-0.40612,-0.42289,-0.40967,-0.40953,-0.48553,-0.5249,-0.49813,-0.36851,-0.1532,0.25361,0.68727,0.74064,0.50551,-0.16628,-0.57222,-0.53975,-0.53001,-0.47883,-0.44113,-0.43315,-0.43935,-0.45024,-0.46455,-0.47461,-0.46319,-0.46294,-0.46723,-0.46695,-0.4635,-0.44028,-0.44565,-0.45405,-0.46225,-0.43229,-0.43185,-0.43373,-0.4462,-0.45937,-0.44696,-0.43865,-0.42295,-0.40691,-0.43579,-0.43424,-0.41884,-0.39275,-0.38933,-0.39359,-0.38752,-0.36886,-0.33847,-0.34875,-0.353,-0.3669,-0.34408,-0.30285,-0.28902,-0.2809,-0.28685,-0.27142,-0.24867,-0.2329,-0.24621,-0.24661,-0.2337,-0.21585,-0.20401,-0.22303,-0.23696,-0.2266,-0.23173,-0.26015,-0.27763,-0.30612,-0.32012,-0.3388,-0.33136,-0.35344,-0.40128,-0.40926,-0.4153,-0.41394,-0.41018,-0.42288,-0.41038,-0.40996,-0.39888,-0.39412,-0.42123,-0.43813,-0.42982,-0.41989,-0.39973,-0.40616,-0.41135,-0.40125,-0.3794,-0.35981,-0.36925,-0.3713,-0.35671,-0.33847,-0.33796,-0.35043,-0.3634,-0.36182,-0.36075,-0.3538,-0.37818,-0.38207,-0.36579,-0.37499,-0.36459,-0.38328,-0.3941,-0.39007,-0.3909,-0.36553,-0.38453,-0.41201,-0.40305,-0.40675,-0.39481,-0.38614,-0.40753,-0.39756,-0.36445,-0.31097,-0.28182,-0.295,-0.31666,-0.29912,-0.23905,-0.19962,-0.2265,-0.23607,-0.21249,-0.22383,-0.21769,-0.26364,-0.31298,-0.34331,-0.39393,-0.40566,-0.43233,-0.46378,-0.42375,-0.41927,-0.41945,-0.45934,-0.47403,-0.47613,-0.45368,-0.43264,-0.44298,-0.45606,-0.45621,-0.43277,-0.44022,-0.50208,-0.55667,-0.53226,-0.43066,-0.22102,0.11357,0.50035,0.70121,0.32384,-0.32487,-0.62495,-0.6069,-0.57071,-0.50804,-0.40977,-0.4102,-0.42948,-0.45318,-0.44597,-0.44505,-0.45384,-0.47654,-0.48123,-0.45659,-0.42722,-0.43237,-0.45169,-0.48257,-0.48837,-0.45672,-0.44116,-0.47683,-0.47124,-0.45397,-0.43438,-0.42989,-0.41893,-0.43819,-0.43036,-0.40537,-0.36854,-0.35736,-0.36196,-0.35912,-0.3481,-0.33952,-0.35502,-0.3812,-0.36096,-0.34232,-0.32725,-0.32109,-0.32616,-0.31979,-0.31348,-0.28714,-0.2811,-0.28393,-0.28905,-0.26639,-0.24151,-0.22704,-0.2325,-0.22142,-0.2235,-0.23279,-0.22999,-0.23787,-0.24285,-0.2543,-0.27783,-0.29667,-0.30565,-0.32392,-0.35542,-0.34273,-0.32824,-0.31891,-0.34667,-0.3356,-0.33347,-0.34222,-0.34459,-0.36465,-0.36454,-0.36775,-0.36537,-0.36999,-0.37576,-0.37133,-0.36364,-0.34571,-0.34048,-0.35683,-0.33059,-0.31885,-0.30026,-0.28914,-0.29307,-0.30462,-0.30924,-0.29343,-0.28478,-0.30104,-0.31,-0.31843,-0.30719,-0.29909,-0.31933,-0.34622,-0.34738,-0.34047,-0.32544,-0.32668,-0.34851,-0.35018,-0.35629,-0.32475,-0.32675,-0.3424,-0.35556,-0.32572,-0.26661,-0.23267,-0.24981,-0.27033,-0.24086,-0.19269,-0.16097,-0.15839,-0.17095,-0.16677,-0.16313,-0.16089,-0.19386,-0.23931,-0.30353,-0.34179,-0.33946,-0.35147,-0.38319,-0.37244,-0.36928,-0.36491,-0.37523,-0.40411,-0.39044,-0.35948,-0.34681,-0.36238,-0.39634,-0.3984,-0.40049,-0.3861,-0.40853,-0.47647,-0.47234,-0.41724,-0.24041,0.045641,0.3753,0.57094,0.42599,-0.13272,-0.5077,-0.55684,-0.50302,-0.43167,-0.37502,-0.3399,-0.36263,-0.3573,-0.39161,-0.37348,-0.36815,-0.37812,-0.38349,-0.38592,-0.36113,-0.3225,-0.33817,-0.36076,-0.38631,-0.34576,-0.33807,-0.3561,-0.36196,-0.34021,-0.32113,-0.30592,-0.3068,-0.31822,-0.30199,-0.29065,-0.25821,-0.25297,-0.25959,-0.27516,-0.27797,-0.26265,-0.24703,-0.26793,-0.28906,-0.28115,-0.24329,-0.23595,-0.25355,-0.26302,-0.22849,-0.20788,-0.20878,-0.21464,-0.22432,-0.20525,-0.17561,-0.15975,-0.16942,-0.18446,-0.16809,-0.15605,-0.15732,-0.17822,-0.19096,-0.22087,-0.21759,-0.21622,-0.22647,-0.26197,-0.25793,-0.24262,-0.23002,-0.22592,-0.2185,-0.22532,-0.23553,-0.21199,-0.22112,-0.23297,-0.25503,-0.24892,-0.23349,-0.23376,-0.25379,-0.26414,-0.25751,-0.24145,-0.24811,-0.26163,-0.27215,-0.26082,-0.25678,-0.25146,-0.247,-0.29256,-0.29614,-0.27963,-0.25783,-0.25832,-0.29319,-0.30906,-0.29679,-0.27304,-0.28743,-0.29901,-0.28483,-0.27434,-0.237,-0.22684,-0.25134,-0.23655,-0.23461,-0.18887,-0.15043,-0.14192,-0.14032,-0.16928,-0.14979,-0.11881,-0.11434,-0.09717,-0.077798,-0.048786,-0.049526,-0.094065,-0.10473,-0.12526,-0.16129,-0.22408,-0.27989,-0.28882,-0.27357,-0.26332,-0.24333,-0.27027,-0.30143,-0.2896,-0.28376,-0.24884,-0.2576,-0.29596,-0.31152,-0.29003,-0.27959,-0.30536,-0.3693,-0.38556,-0.34775,-0.20163,0.038553,0.39159,0.57619,0.76238,0.55655,-0.068519,-0.47206,-0.51803,-0.41548,-0.37395,-0.29314,-0.2867,-0.2926,-0.29397,-0.2905,-0.30535,-0.31442,-0.33172,-0.29611,-0.29937,-0.27543,-0.29789,-0.28695,-0.29201,-0.29992,-0.28483,-0.29541,-0.30732,-0.30094,-0.27895,-0.25942,-0.26192,-0.27013,-0.2513,-0.22246,-0.19767,-0.17494,-0.19606,-0.19719,-0.176,-0.1535,-0.16627,-0.18121,-0.20373,-0.19772,-0.1723,-0.16412,-0.15488,-0.17443,-0.16172,-0.13158,-0.12088,-0.12451,-0.12673,-0.10551,-0.085081,-0.068592,-0.09125,-0.1065,-0.075026,-0.074529,-0.070829,-0.080133,-0.083341,-0.11696,-0.12217,-0.12616,-0.13108,-0.14965,-0.16444,-0.16678,-0.16474,-0.16893,-0.18397,-0.19905,-0.17856,-0.16302,-0.17706,-0.21678,-0.22154,-0.21543,-0.21175,-0.2143,-0.23859,-0.25813,-0.23848,-0.23153,-0.2263,-0.22918,-0.21149,-0.1829,-0.20269,-0.18342,-0.19628,-0.19892,-0.1756,-0.16802,-0.14993,-0.16323,-0.18382,-0.16538,-0.15898,-0.13424,-0.14476,-0.17823,-0.18684,-0.16692,-0.17205,-0.18835,-0.19918,-0.21813,-0.2143,-0.20697,-0.21148,-0.24343,-0.23114,-0.17539,-0.12135,-0.1102,-0.14867,-0.15188,-0.14171,-0.11749,-0.079203,-0.070615,-0.084055,-0.10969,-0.098714,-0.079634,-0.11638,-0.16686,-0.21021,-0.23177,-0.25143,-0.2724,-0.28192,-0.27403,-0.26942,-0.28395,-0.28847,-0.30819,-0.29738,-0.29326,-0.28158,-0.27718,-0.32437,-0.33875,-0.32499,-0.34047,-0.37317,-0.42137,-0.39896,-0.25276,-0.0078953,0.37709,0.79586,0.81588,0.25382,-0.33321,-0.47933,-0.44703,-0.43258,-0.37374,-0.32415,-0.30967,-0.30109,-0.32594,-0.33514,-0.33977,-0.36417,-0.36577,-0.35521,-0.34917,-0.31755,-0.32406,-0.34314,-0.36646,-0.37174,-0.34569,-0.34032,-0.34935,-0.36108,-0.36336,-0.34315,-0.32516,-0.31471,-0.31626,-0.33719,-0.33508,-0.28405,-0.26522,-0.29479,-0.30923,-0.30142,-0.28396,-0.26499,-0.27984,-0.27673,-0.2363,-0.1989,-0.20027,-0.20399,-0.21113,-0.19752,-0.17099,-0.1356,-0.14903,-0.15792,-0.14886,-0.14692,-0.11529,-0.12201,-0.1346,-0.1196,-0.14258,-0.1586,-0.17456,-0.20291,-0.21,-0.22541,-0.22402,-0.23984,-0.25209,-0.27351,-0.28482,-0.29151,-0.29521,-0.32763,-0.32774,-0.30933,-0.29178,-0.30877,-0.33207,-0.33871,-0.32784,-0.30624,-0.29925,-0.30695,-0.31384,-0.31182,-0.29211,-0.2923,-0.28885,-0.2987,-0.27255,-0.24239,-0.24522,-0.24111,-0.30182,-0.29602,-0.28499,-0.2554,-0.2823,-0.30099,-0.2955,-0.281,-0.27141,-0.30643,-0.32523,-0.32336,-0.30953,-0.31001,-0.29914,-0.3278,-0.33128,-0.33174,-0.29811,-0.29946,-0.33052,-0.3466,-0.32763,-0.30274,-0.28306,-0.2843,-0.25614,-0.22648,-0.19333,-0.20909,-0.2064,-0.18029,-0.16102,-0.14284,-0.10966,-0.1199,-0.13392,-0.1384,-0.1498,-0.17792,-0.24443,-0.32871,-0.34135,-0.33864,-0.34195,-0.34707,-0.36463,-0.35247,-0.32896,-0.31652,-0.32208,-0.34176,-0.34091,-0.32523,-0.31419,-0.30905,-0.34229,-0.34337,-0.39357,-0.42839,-0.40157,-0.34809,-0.1926,0.16665,0.62898,0.8687,0.50083,-0.20764,-0.56482,-0.50165,-0.43812,-0.38045,-0.3537,-0.35831,-0.32468,-0.31246,-0.33281,-0.35727,-0.3572,-0.36087,-0.33117,-0.325,-0.33609,-0.35635,-0.34519,-0.33772,-0.34178,-0.35774,-0.35443,-0.34293,-0.33845,-0.33208,-0.33559,-0.33976,-0.34457,-0.32375,-0.31492,-0.32694,-0.32215,-0.30402,-0.27445,-0.24818,-0.24645,-0.2536,-0.24949,-0.25945,-0.26882,-0.26462,-0.24813,-0.22135,-0.19629,-0.17229,-0.16978,-0.17929,-0.16458,-0.14202,-0.12282,-0.11912,-0.13243,-0.11424,-0.090982,-0.06467,-0.086541,-0.12897,-0.15385,-0.15068,-0.14311,-0.16264,-0.20867,-0.22234,-0.23472,-0.24211,-0.24971,-0.27138,-0.29572,-0.30908,-0.29729,-0.28824,-0.29461,-0.29795,-0.2971,-0.28084,-0.28439,-0.29195,-0.32316,-0.30117,-0.27827,-0.26768,-0.30368,-0.32271,-0.29032,-0.27586,-0.25617,-0.24545,-0.27049,-0.28061,-0.26809,-0.22221,-0.21312,-0.21783,-0.2369,-0.22393,-0.18955,-0.19145,-0.22208,-0.23299,-0.24021,-0.22209,-0.20349,-0.20623,-0.20325,-0.2132,-0.21874,-0.21932,-0.22803,-0.24295,-0.22622,-0.21416,-0.20164,-0.24901,-0.27281,-0.25557,-0.23017,-0.22023,-0.23367,-0.23349,-0.20744,-0.15639,-0.12283,-0.1436,-0.13287,-0.11913,-0.10242,-0.060528,-0.044144,-0.058131,-0.092923,-0.10574,-0.096752,-0.11507,-0.17356,-0.20504,-0.27783,-0.29417,-0.30616,-0.32955,-0.3247,-0.32179,-0.30603,-0.30764,-0.31123,-0.32383,-0.30882,-0.29549,-0.29289,-0.30204,-0.32227,-0.34962,-0.36113,-0.42042,-0.42792,-0.4026,-0.2571,0.0078768,0.37522,0.65808,0.60273,0.017659,-0.47245,-0.51041,-0.46554,-0.45225,-0.40101,-0.32932,-0.32227,-0.34683,-0.3607,-0.38676,-0.40459,-0.38481,-0.38009,-0.38429,-0.39359,-0.37289,-0.3702,-0.35924,-0.39746,-0.40198,-0.3877,-0.36503,-0.36794,-0.38013,-0.38049,-0.35596,-0.33523,-0.32561,-0.33569,-0.32928,-0.31225,-0.3051,-0.29619,-0.30594,-0.31571,-0.30547,-0.29949,-0.28705,-0.29597,-0.31164,-0.2848,-0.25135,-0.24444,-0.23843,-0.23449,-0.22312,-0.20568,-0.20926,-0.20539,-0.21494,-0.20437,-0.19121,-0.16238,-0.16916,-0.21155,-0.21389,-0.17823,-0.17123,-0.20143,-0.2314,-0.27029,-0.29001,-0.28784,-0.27507,-0.30408,-0.34332,-0.32355,-0.33269,-0.31294,-0.3198,-0.31247,-0.32572,-0.32463,-0.33345,-0.33374,-0.36119,-0.35527,-0.32165,-0.33738,-0.32081,-0.31422,-0.32377,-0.3236,-0.30679,-0.29736,-0.28206,-0.29478,-0.31807,-0.30018,-0.27713,-0.28371,-0.31988,-0.3161,-0.29857,-0.30003,-0.3298,-0.32266,-0.33519,-0.32606,-0.30503,-0.32003,-0.34829,-0.35568,-0.31327,-0.26971,-0.26738,-0.26258,-0.27244,-0.26486,-0.26375,-0.26001,-0.23398,-0.22222,-0.20914,-0.20081,-0.21143,-0.25931,-0.28641,-0.30274,-0.30461,-0.38666,-0.40507,-0.40857,-0.39809,-0.3805,-0.37334,-0.40108,-0.40529,-0.43377,-0.4172,-0.42322,-0.45915,-0.44436,-0.4488,-0.42749,-0.42614,-0.48695,-0.54482,-0.54689,-0.46966,-0.30375,-0.024833,0.14647,0.42781,0.52897,0.13911,-0.34434,-0.5765,-0.57687,-0.51711,-0.42883,-0.41703,-0.41399,-0.41108,-0.3943,-0.38076,-0.39458,-0.43519,-0.43211,-0.41306,-0.40416,-0.41543,-0.42773,-0.40841,-0.40913,-0.36902,-0.37871,-0.39802,-0.38819,-0.37885,-0.32895,-0.32598,-0.32983,-0.31077,-0.31732,-0.31287,-0.29858,-0.30884,-0.30573,-0.29805,-0.27101,-0.2852,-0.30009,-0.30271,-0.30025,-0.29361,-0.27033,-0.27559,-0.27828,-0.28604,-0.2517,-0.23787,-0.23527,-0.22995,-0.22896,-0.18921,-0.15517,-0.16828,-0.18144,-0.16168,-0.15587,-0.13989,-0.14234,-0.18099,-0.20542,-0.20537,-0.20506,-0.20397,-0.22963,-0.2887,-0.30365,-0.27046,-0.26492,-0.30671,-0.32835,-0.32234,-0.29889,-0.29974,-0.3313,-0.32869,-0.34377,-0.32919,-0.32952,-0.31529,-0.3163,-0.32844,-0.31362,-0.29704,-0.29914,-0.28976,-0.28861,-0.2766,-0.24602,-0.24182,-0.26715,-0.26264,-0.25015,-0.24876,-0.2495,-0.27184,-0.27684,-0.27887,-0.26742,-0.26322,-0.28423,-0.29668,-0.28193,-0.24487,-0.2253,-0.24166,-0.22889,-0.20976,-0.20023,-0.17028,-0.17103,-0.17032,-0.14842,-0.1352,-0.13177,-0.1676,-0.19052,-0.20405,-0.23967,-0.29192,-0.2859,-0.31477,-0.3137,-0.28625,-0.28861,-0.30824,-0.33426,-0.33217,-0.3355,-0.32183,-0.33375,-0.36441,-0.38384,-0.39308,-0.39768,-0.43129,-0.42736,-0.40337,-0.24594,0.044089,0.42452,0.69495,0.56202,-0.0098495,-0.47408,-0.51299,-0.46279,-0.38446,-0.32371,-0.2926,-0.28389,-0.3136,-0.34523,-0.36541,-0.34525,-0.34161,-0.34099,-0.34272,-0.34998,-0.32497,-0.32066,-0.33121,-0.35169,-0.35584,-0.36752,-0.35227,-0.3721,-0.40268,-0.38611,-0.3523,-0.31333,-0.29289,-0.30468,-0.30588,-0.25961,-0.21934,-0.20191,-0.21448,-0.21888,-0.18693,-0.15761,-0.14463,-0.1289,-0.14216,-0.14487,-0.13109,-0.11527,-0.11309,-0.09974,-0.084546,-0.077009,-0.061221,-0.04361,-0.058097,-0.044261,-0.022313,-0.023314,-0.039793,-0.071556,-0.07488,-0.08344,-0.065194,-0.080303,-0.10659,-0.13114,-0.1357,-0.13078,-0.13845,-0.1727,-0.17867,-0.17734,-0.16561,-0.1862,-0.22015,-0.22583,-0.21431,-0.21044,-0.19192,-0.21463,-0.26138,-0.27089,-0.2311,-0.20626,-0.24434,-0.25495,-0.24629,-0.22152,-0.21746,-0.23039,-0.20875,-0.19461,-0.17398,-0.16357,-0.15943,-0.14349,-0.14363,-0.15012,-0.15195,-0.15947,-0.17719,-0.16642,-0.15841,-0.14502,-0.16466,-0.1904,-0.17575,-0.14219,-0.093835,-0.07292,-0.10913,-0.12028,-0.10011,-0.05933,-0.048645,-0.04528,-0.056877,-0.056852,-0.0707,-0.099549,-0.12242,-0.16328,-0.1714,-0.20563,-0.22816,-0.25107,-0.26741,-0.26092,-0.23484,-0.21393,-0.24311,-0.26389,-0.25218,-0.24108,-0.22959,-0.25547,-0.26712,-0.27007,-0.2638,-0.29366,-0.32778,-0.33328,-0.29169,-0.11054,0.22908,0.70591,0.9858,0.65834,-0.026637,-0.41099,-0.38033,-0.3295,-0.26951,-0.24943,-0.24755,-0.22766,-0.26228,-0.2721,-0.28328,-0.29582,-0.29543,-0.30253,-0.30908,-0.27673,-0.26566,-0.25908,-0.30204,-0.31143,-0.3281,-0.31724,-0.29984,-0.32246,-0.33505,-0.31129,-0.26116,-0.24422,-0.2692,-0.28422,-0.27299,-0.27099,-0.25538,-0.22656,-0.22795,-0.20687,-0.18955,-0.18308,-0.18582,-0.19418,-0.19232,-0.16325,-0.13308,-0.097489,-0.11049,-0.11375,-0.097382,-0.075678,-0.076608,-0.08194,-0.074512,-0.094626,-0.072668,-0.054158,-0.057475,-0.094229,-0.084631,-0.083366,-0.093834,-0.1284,-0.15453,-0.16657,-0.16162,-0.15516,-0.16888,-0.19922,-0.21795,-0.21772,-0.21635,-0.22466,-0.23694,-0.2558,-0.26106,-0.24484,-0.24659,-0.28424,-0.28555,-0.26718,-0.23858,-0.25196,-0.27453,-0.26625,-0.24267,-0.21993,-0.22554,-0.2242,-0.22247,-0.1933,-0.19121,-0.19794,-0.18677,-0.19668,-0.18418,-0.18674,-0.18397,-0.19343,-0.19959,-0.19502,-0.21285,-0.21232,-0.23509,-0.26046,-0.25112,-0.24669,-0.24928,-0.26744,-0.26763,-0.26504,-0.25027,-0.19168,-0.14738,-0.1704,-0.17205,-0.15792,-0.12109,-0.09615,-0.10476,-0.084432,-0.072796,-0.071711,-0.069087,-0.095436,-0.11833,-0.14105,-0.17313,-0.22983,-0.30339,-0.31285,-0.31322,-0.29204,-0.29312,-0.31858,-0.34882,-0.35807,-0.36399,-0.34771,-0.35349,-0.35576,-0.35181,-0.33616,-0.33324,-0.35973,-0.42367,-0.40413,-0.33188,-0.14385,0.14857,0.59362,0.81334,0.861,0.3275,-0.29078,-0.45003,-0.41853,-0.35016,-0.29553,-0.25994,-0.30704,-0.30343,-0.30451,-0.28209,-0.30457,-0.30758,-0.32552,-0.32301,-0.30184,-0.28348,-0.31111,-0.31322,-0.32366,-0.32032,-0.3334,-0.32731,-0.34595,-0.33234,-0.3189,-0.29834,-0.3114,-0.3138,-0.33242,-0.32256,-0.30727,-0.30645,-0.30581,-0.28814,-0.27459,-0.2463,-0.25707,-0.26539,-0.27348,-0.24975,-0.22867,-0.21692,-0.22641,-0.21393,-0.19594,-0.16276,-0.14082,-0.15991,-0.15517,-0.13239,-0.11059,-0.082467,-0.10685,-0.10929,-0.10304,-0.098597,-0.089668,-0.1144,-0.13684,-0.16282,-0.17669,-0.18174,-0.2008,-0.23102,-0.25353,-0.25287,-0.27211,-0.28958,-0.32816,-0.3213,-0.29548,-0.27692,-0.2802,-0.30671,-0.31206,-0.29903,-0.28107,-0.28226,-0.2973,-0.29586,-0.27586,-0.26314,-0.26489,-0.27218,-0.27036,-0.24939,-0.21908,-0.20958
