-2.1408,-2.1435,-2.1495,-2.1295,-2.1226,-2.1005,-2.1114,-2.1072,-2.1051,-2.0956,-2.082,-2.0781,-2.065,-2.0644,-2.0561,-2.0478,-2.0283,-2.0235,-2.0234,-2.0086,-1.9793,-1.985,-1.9663,-1.9541,-1.9393,-1.9263,-1.9139,-1.9042,-1.889,-1.875,-1.859,-1.8275,-1.8189,-1.807,-1.7808,-1.7549,-1.7514,-1.7379,-1.7259,-1.7002,-1.6895,-1.6925,-1.6889,-1.6791,-1.6864,-1.6661,-1.6865,-1.7109,-1.7519,-1.774,-1.8071,-1.8571,-1.8989,-1.9466,-1.992,-2.0363,-2.0666,-2.0862,-2.1241,-2.1399,-2.1588,-2.1701,-2.1842,-2.1952,-2.2023,-2.2069,-2.1998,-2.2027,-2.2053,-2.2118,-2.1976,-2.1924,-2.1989,-2.1977,-2.1959,-2.194,-2.1918,-2.1983,-2.1945,-2.1928,-2.1907,-2.1897,-2.1779,-2.1844,-2.184,-2.1858,-2.1802,-2.1723,-2.1691,-2.1754,-2.1836,-2.1795,-2.1878,-2.1866,-2.1881,-2.1854,-2.1813,-2.1841,-2.1877,-2.1982,-2.2015,-2.2023,-2.1929,-2.2051,-2.2068,-2.2144,-2.2099,-2.2085,-2.2015,-2.2165,-2.2278,-2.217,-2.2126,-2.2129,-2.2201,-2.2217,-2.2223,-2.2165,-2.223,-2.2234,-2.2246,-2.2292,-2.2258,-2.2293,-2.224,-2.2275,-2.2306,-2.2256,-2.2215,-2.2253,-2.2308,-2.23,-2.2394,-2.2256,-2.2268,-2.2344,-2.2331,-2.2334,-2.2365,-2.2385,-2.2412,-2.2398,-2.2362,-2.2293,-2.2324,-2.2435,-2.2442,-2.2302,-2.2333,-2.239,-2.2339,-2.2324,-2.232,-2.2311,-2.2365,-2.2407,-2.237,-2.2312,-2.2355,-2.242,-2.241,-2.247,-2.2314,-2.2197,-2.2178,-2.2166,-2.2178,-2.2102,-2.1976,-2.1733,-2.1708,-2.1743,-2.1664,-2.1699,-2.1633,-2.1673,-2.1812,-2.1844,-2.1949,-2.1964,-2.2262,-2.2493,-2.2499,-2.2526,-2.2573,-2.2578,-2.2597,-2.261,-2.2547,-2.2516,-2.2553,-2.26,-2.2603,-2.26,-2.2495,-2.2566,-2.2277,-2.1124,-1.9596,-1.7907,-1.6257,-1.4216,-1.2746,-1.4422,-1.8616,-2.4558,-2.66,-2.5904,-2.4638,-2.3741,-2.2806,-2.1756,-2.1768,-2.1537,-2.168,-2.1624,-2.1733,-2.1658,-2.169,-2.1484,-2.1514,-2.1405,-2.1494,-2.137,-2.139,-2.1175,-2.1249,-2.1181,-2.1215,-2.1164,-2.1033,-2.0989,-2.1024,-2.0954,-2.0913,-2.0745,-2.072,-2.0639,-2.0628,-2.0453,-2.0339,-2.0238,-2.0305,-2.021,-1.9945,-1.9875,-1.9771,-1.9672,-1.9508,-1.9412,-1.9222,-1.9061,-1.8952,-1.8861,-1.869,-1.8388,-1.8185,-1.8037,-1.7916,-1.7653,-1.7603,-1.7449,-1.74,-1.7279,-1.7059,-1.6949,-1.6956,-1.6884,-1.6878,-1.6914,-1.6966,-1.7061,-1.7229,-1.762,-1.8099,-1.8536,-1.9064,-1.9531,-1.9978,-2.036,-2.0584,-2.0898,-2.1233,-2.1507,-2.1628,-2.1811,-2.1866,-2.1927,-2.1985,-2.2114,-2.2152,-2.2111,-2.2028,-2.2123,-2.2135,-2.2196,-2.1926,-2.194,-2.197,-2.2087,-2.2009,-2.1966,-2.1954,-2.1901,-2.1833,-2.1865,-2.1894,-2.1833,-2.1831,-2.1965,-2.1963,-2.1935,-2.1804,-2.1868,-2.1896,-2.1843,-2.2036,-2.1872,-2.1941,-2.2066,-2.1996,-2.1998,-2.2026,-2.211,-2.2092,-2.2152,-2.2109,-2.2138,-2.2057,-2.2128,-2.2195,-2.2312,-2.2261,-2.2316,-2.2314,-2.2273,-2.2222,-2.2346,-2.2266,-2.2372,-2.2367,-2.2444,-2.2344,-2.248,-2.2524,-2.2492,-2.2573,-2.2602,-2.2473,-2.2573,-2.2681,-2.2437,-2.2568,-2.2494,-2.2529,-2.2554,-2.2574,-2.2548,-2.2478,-2.2537,-2.2583,-2.2568,-2.2457,-2.2526,-2.263,-2.2613,-2.2572,-2.2578,-2.2437,-2.2402,-2.232,-2.2498,-2.2387,-2.2436,-2.2433,-2.2299,-2.2599,-2.27,-2.2384,-2.2479,-2.2515,-2.2638,-2.2578,-2.2413,-2.2452,-2.2461,-2.246,-2.2414,-2.2356,-2.2429,-2.2507,-2.2383,-2.2348,-2.2271,-2.2248,-2.2209,-2.2231,-2.2116,-2.2096,-2.1905,-2.169,-2.1609,-2.1667,-2.1546,-2.1614,-2.1597,-2.1765,-2.1893,-2.1974,-2.202,-2.1885,-2.22,-2.2531,-2.2526,-2.2453,-2.2409,-2.255,-2.2506,-2.2699,-2.2586,-2.2582,-2.2496,-2.2579,-2.2518,-2.2437,-2.2325,-2.2295,-2.1646,-2.044,-1.8651,-1.7069,-1.4985,-1.2985,-1.286,-1.6169,-2.176,-2.6459,-2.5863,-2.4324,-2.3766,-2.2531,-2.1778,-2.1563,-2.1573,-2.1448,-2.1486,-2.1417,-2.1614,-2.146,-2.144,-2.1278,-2.1333,-2.1226,-2.1233,-2.1206,-2.122,-2.0906,-2.0908,-2.0893,-2.0864,-2.0794,-2.0809,-2.0758,-2.0851,-2.0529,-2.0392,-2.0536,-2.0099,-2.0094,-2.0238,-2.0048,-2.0103,-2.0148,-1.9962,-2.0047,-1.9739,-1.9498,-1.9389,-1.9114,-1.9228,-1.9172,-1.8963,-1.882,-1.8773,-1.8505,-1.8334,-1.8173,-1.7994,-1.7822,-1.7751,-1.7705,-1.7422,-1.7413,-1.715,-1.7073,-1.6979,-1.6979,-1.6785,-1.6686,-1.6775,-1.6841,-1.7015,-1.7224,-1.7649,-1.7947,-1.8204,-1.8652,-1.8986,-1.9506,-2.0028,-2.0336,-2.0728,-2.1074,-2.1212,-2.1493,-2.1605,-2.1682,-2.1819,-2.1934,-2.2043,-2.2018,-2.2114,-2.2055,-2.194,-2.1917,-2.1965,-2.181,-2.1946,-2.1919,-2.1866,-2.2062,-2.1925,-2.187,-2.1897,-2.1945,-2.2025,-2.1899,-2.1852,-2.1756,-2.1779,-2.1879,-2.1847,-2.1865,-2.1847,-2.1943,-2.1941,-2.1961,-2.191,-2.1969,-2.2041,-2.2243,-2.2317,-2.2495,-2.3287,-2.3397,-2.3419,-2.3352,-2.3169,-2.3095,-2.2976,-2.3048,-2.3103,-2.3106,-2.3029,-2.2917,-2.2897,-2.2987,-2.2948,-2.2762,-2.278,-2.2841,-2.2907,-2.2875,-2.2789,-2.2724,-2.2715,-2.2883,-2.2854,-2.2712,-2.2561,-2.2618,-2.2759,-2.2769,-2.2777,-2.2722,-2.2717,-2.2769,-2.2839,-2.2686,-2.2657,-2.2805,-2.2837,-2.2699,-2.2692,-2.2773,-2.2801,-2.2786,-2.2847,-2.2834,-2.2812,-2.275,-2.2677,-2.2825,-2.2838,-2.2806,-2.2881,-2.2887,-2.287,-2.2754,-2.2732,-2.291,-2.2937,-2.2982,-2.293,-2.2807,-2.294,-2.2914,-2.298,-2.3057,-2.2928,-2.2831,-2.2907,-2.2852,-2.2852,-2.2871,-2.2966,-2.2855,-2.2677,-2.2681,-2.2542,-2.2249,-2.236,-2.239,-2.2406,-2.2407,-2.2498,-2.2517,-2.2622,-2.2641,-2.2799,-2.2943,-2.3065,-2.3433,-2.3439,-2.3416,-2.3322,-2.3271,-2.3298,-2.3315,-2.3452,-2.3335,-2.3392,-2.3557,-2.3483,-2.3583,-2.3349,-2.3,-2.181,-2.0343,-1.8843,-1.6857,-1.4867,-1.4016,-1.6404,-1.8351,-2.3768,-2.7888,-2.6578,-2.5404,-2.4701,-2.3855,-2.2845,-2.2609,-2.2548,-2.2725,-2.2489,-2.259,-2.2603,-2.2577,-2.2493,-2.239,-2.2437,-2.2507,-2.2286,-2.2436,-2.2313,-2.2413,-2.2329,-2.2329,-2.2296,-2.2357,-2.2236,-2.2089,-2.2077,-2.2063,-2.2051,-2.1986,-2.1778,-2.1671,-2.1584,-2.1631,-2.1389,-2.131,-2.1203,-2.1264,-2.1116,-2.0949,-2.0788,-2.0684,-2.0581,-2.0462,-2.0294,-2.0106,-1.995,-1.9817,-1.9701,-1.9534,-1.9248,-1.9063,-1.8985,-1.8922,-1.866,-1.8629,-1.8533,-1.8399,-1.8307,-1.828,-1.8217,-1.7917,-1.8347,-1.8385,-1.8338,-1.8849,-1.9087,-1.9359,-1.9899,-2.0476,-2.0808,-2.1321,-2.1805,-2.2132,-2.2439,-2.2556,-2.2621,-2.3101,-2.3327,-2.3511,-2.3541,-2.3673,-2.3723,-2.3736,-2.3927,-2.3789,-2.3865,-2.3776,-2.3802,-2.3735,-2.3758,-2.3761,-2.3822,-2.3733,-2.3803,-2.3659,-2.3639,-2.3491,-2.348,-2.355,-2.3609,-2.3559,-2.3567,-2.359,-2.3668,-2.3568,-2.3575,-2.3466,-2.3552,-2.3503,-2.3572,-2.3595,-2.3551,-2.3728,-2.3697,-2.3647,-2.3744,-2.379,-2.3783,-2.3877,-2.3947,-2.3805,-2.3876,-2.3943,-2.398,-2.3972,-2.4086,-2.3941,-2.4015,-2.3997,-2.4087,-2.4119,-2.4035,-2.4072,-2.4054,-2.4188,-2.4212,-2.4024,-2.415,-2.4218,-2.414,-2.4147,-2.4153,-2.4087,-2.4211,-2.4247,-2.4176,-2.4242,-2.421,-2.4211,-2.4215,-2.4179,-2.426,-2.4256,-2.4226,-2.4246,-2.4276,-2.425,-2.4233,-2.4236,-2.43,-2.4368,-2.4297,-2.4222,-2.4283,-2.4374,-2.4378,-2.4319,-2.4292,-2.4391,-2.4324,-2.4206,-2.4247,-2.4253,-2.4365,-2.4405,-2.4402,-2.4385,-2.4082,-2.4127,-2.4192,-2.4152,-2.4295,-2.3977,-2.3949,-2.3953,-2.4066,-2.4001,-2.3762,-2.3898,-2.3759,-2.3791,-2.3707,-2.3746,-2.3749,-2.3901,-2.4028,-2.4126,-2.4123,-2.4306,-2.4391,-2.4532,-2.4502,-2.4487,-2.4526,-2.4565,-2.4556,-2.4543,-2.45,-2.4509,-2.4618,-2.4709,-2.4767,-2.4609,-2.3948,-2.3269,-2.1887,-2.0398,-1.8818,-1.6782,-1.4827,-1.5896,-1.9642,-2.569,-2.8722,-2.7543,-2.6499,-2.5651,-2.459,-2.3806,-2.3798,-2.3727,-2.383,-2.3736,-2.3741,-2.3657,-2.3745,-2.3718,-2.3682,-2.3631,-2.3586,-2.3479,-2.3508,-2.3503,-2.3459,-2.3326,-2.3275,-2.3206,-2.3192,-2.3239,-2.3078,-2.2963,-2.3064,-2.3088,-2.2971,-2.2879,-2.2756,-2.2639,-2.2547,-2.2427,-2.2413,-2.2278,-2.2197,-2.2021,-2.1873,-2.1831,-2.1676,-2.1582,-2.1423,-2.1318,-2.1206,-2.0939,-2.0833,-2.0676,-2.0538,-2.0278,-2.0075,-1.9966,-1.9912,-1.9772,-1.9593,-1.945,-1.9377,-1.9394,-1.9261,-1.9152,-1.9013,-1.9003,-1.9246,-1.9401,-1.9655,-2.0138,-2.0612,-2.1212,-2.1624,-2.177,-2.223,-2.2606,-2.3045,-2.3386,-2.3598,-2.3843,-2.3979,-2.4082,-2.425,-2.4369,-2.436,-2.4419,-2.4408,-2.4441,-2.4395,-2.4394,-2.4439,-2.4439,-2.445,-2.4445,-2.4453,-2.4375,-2.4322,-2.4342,-2.4365,-2.4379,-2.4298,-2.4359,-2.4377,-2.4393,-2.4195,-2.4272,-2.4298,-2.435,-2.4429,-2.4358,-2.4188,-2.4267,-2.4344,-2.4362,-2.4375,-2.435,-2.437,-2.4379,-2.4438,-2.4474,-2.4457,-2.4397,-2.446,-2.4558,-2.453,-2.4548,-2.452,-2.4534,-2.4626,-2.4626,-2.4522,-2.4424,-2.4501,-2.4688,-2.4652,-2.4657,-2.465,-2.4667,-2.4761,-2.4656,-2.4619,-2.4528,-2.4687,-2.4673,-2.4787,-2.4727,-2.4737,-2.4647,-2.4717,-2.4768,-2.4639,-2.4676,-2.4645,-2.4723,-2.4728,-2.4739,-2.47,-2.4743,-2.4725,-2.4794,-2.4746,-2.4766,-2.4813,-2.4814,-2.481,-2.4744,-2.4744,-2.4786,-2.4797,-2.4846,-2.4834,-2.473,-2.4669,-2.4646,-2.479,-2.4735,-2.4806,-2.4796,-2.4796,-2.4726,-2.4843,-2.4805,-2.4727,-2.4807,-2.4822,-2.4826,-2.4792,-2.4771,-2.4805,-2.4843,-2.4862,-2.4739,-2.474,-2.4751,-2.4704,-2.4718,-2.4674,-2.4595,-2.4609,-2.4549,-2.4396,-2.4302,-2.3958,-2.4067,-2.4048,-2.4075,-2.4129,-2.4122,-2.4115,-2.421,-2.4349,-2.4387,-2.4428,-2.4638,-2.4838,-2.4854,-2.4941,-2.4894,-2.5025,-2.4964,-2.4989,-2.5074,-2.4988,-2.4953,-2.501,-2.5029,-2.512,-2.4938,-2.4704,-2.3671,-2.2257,-2.0738,-2.0002,-1.7972,-1.5525,-1.4719,-1.7501,-2.2568,-2.8002,-2.8557,-2.7184,-2.6615,-2.5241,-2.4518,-2.4074,-2.4013,-2.3945,-2.4187,-2.3945,-2.4072,-2.3931,-2.4057,-2.3986,-2.4038,-2.3747,-2.3902,-2.3782,-2.375,-2.3592,-2.3664,-2.344,-2.3571,-2.3499,-2.3443,-2.3271,-2.3325,-2.3257,-2.3246,-2.3078,-2.2998,-2.2854,-2.2833,-2.2699,-2.2626,-2.2539,-2.2398,-2.2315,-2.2237,-2.2087,-2.1943,-2.1736,-2.1653,-2.152,-2.1433,-2.1235,-2.104,-2.0833,-2.0701,-2.0561,-2.0351,-2.0165,-2.011,-2.0053,-1.9828,-1.9603,-1.9497,-1.9361,-1.9305,-1.932,-1.9087,-1.9072,-1.9008,-1.9166,-1.9151,-1.9232,-1.9579,-1.9993,-2.0515,-2.1002,-2.1447,-2.1861,-2.2158,-2.2445,-2.2803,-2.3148,-2.3294,-2.3576,-2.3725,-2.3863,-2.388,-2.4063,-2.406,-2.4163,-2.4231,-2.426,-2.4132,-2.4167,-2.4112,-2.4197,-2.4162,-2.409,-2.4024,-2.4089,-2.4105,-2.4123,-2.3978,-2.4004,-2.3909,-2.3984,-2.3974,-2.3998,-2.3924,-2.3933,-2.3934,-2.3981,-2.3935,-2.3932,-2.3951,-2.403,-2.3973,-2.3961,-2.3884,-2.3921,-2.3976,-2.4001,-2.4057,-2.4046,-2.4023,-2.4017,-2.4069,-2.4147,-2.4145,-2.4137,-2.4169,-2.4186,-2.4243,-2.4199,-2.4194,-2.4174,-2.427,-2.4248,-2.419,-2.4198,-2.4187,-2.4362,-2.4307,-2.4277,-2.4236,-2.4294,-2.4317,-2.4335,-2.4239,-2.4257,-2.4235,-2.4235,-2.4383,-2.4365,-2.4235,-2.4179,-2.4352,-2.431,-2.4364,-2.4258,-2.4233,-2.4264,-2.4281,-2.4303,-2.4286,-2.4261,-2.4248,-2.4302,-2.4313,-2.4258,-2.414,-2.4272,-2.4413,-2.4336,-2.4222,-2.4278,-2.4279,-2.4298,-2.4367,-2.4331,-2.4273,-2.4279,-2.4359,-2.4307,-2.4324,-2.4255,-2.4183,-2.4279,-2.4276,-2.4316,-2.4327,-2.4253,-2.4273,-2.433,-2.4269,-2.4245,-2.4242,-2.4236,-2.4253,-2.4112,-2.4096,-2.3905,-2.3911,-2.3849,-2.3779,-2.3525,-2.3557,-2.3407,-2.3512,-2.3555,-2.3424,-2.3512,-2.3572,-2.3734,-2.3742,-2.3805,-2.4159,-2.4253,-2.4312,-2.4418,-2.4392,-2.4363,-2.4331,-2.434,-2.4384,-2.4382,-2.4367,-2.427,-2.4398,-2.4436,-2.4411,-2.426,-2.3451,-2.1972,-2.0422,-1.879,-1.6624,-1.5504,-1.4244,-1.6383,-2.1196,-2.6856,-2.8224,-2.6754,-2.6074,-2.4936,-2.3884,-2.3354,-2.3436,-2.3335,-2.3461,-2.3242,-2.3504,-2.3271,-2.3388,-2.3234,-2.3283,-2.3102,-2.3206,-2.3051,-2.3109,-2.2933,-2.2963,-2.2763,-2.2841,-2.2835,-2.282,-2.256,-2.2569,-2.2546,-2.2543,-2.2419,-2.2378,-2.2249,-2.2261,-2.2108,-2.2062,-2.1951,-2.1755,-2.1727,-2.1686,-2.1494,-2.1404,-2.1197,-2.1152,-2.1001,-2.0853,-2.0724,-2.0573,-2.0353,-2.0212,-2.0088,-1.9884,-1.9667,-1.9514,-1.9425,-1.9277,-1.9159,-1.9001,-1.8926,-1.8824,-1.8798,-1.865,-1.8607,-1.8624,-1.8661,-1.8636,-1.8948,-1.9111,-1.9581,-1.9953,-2.0406,-2.0959,-2.1383,-2.1635,-2.2191,-2.233,-2.2646,-2.288,-2.3083,-2.3217,-2.3466,-2.3585,-2.3651,-2.3744,-2.3818,-2.375,-2.3833,-2.375,-2.3748,-2.3773,-2.3752,-2.3712,-2.3657,-2.3637,-2.364,-2.3616,-2.3797,-2.3657,-2.3537,-2.3545,-2.3652,-2.3658,-2.3638,-2.3497,-2.359,-2.3558,-2.3607,-2.3627,-2.3533,-2.3429,-2.3666,-2.3627,-2.3574,-2.364,-2.3539,-2.3561,-2.3678,-2.3815,-2.3824,-2.3796,-2.3836,-2.3914,-2.3893,-2.3851,-2.4072,-2.4128,-2.4143,-2.4109,-2.4012,-2.4018,-2.4042,-2.4162,-2.4251,-2.4132,-2.4117,-2.4129,-2.4185,-2.4184,-2.4112,-2.4094,-2.4065,-2.4117,-2.4191,-2.4187,-2.4098,-2.4121,-2.4076,-2.4095,-2.4088,-2.409,-2.4186,-2.4173,-2.4097,-2.398,-2.4124,-2.4133,-2.4112,-2.4151,-2.4153,-2.407,-2.4093,-2.4079,-2.4073,-2.4108,-2.4051,-2.4036,-2.4099,-2.4112,-2.4095,-2.399,-2.4026,-2.4105,-2.4133,-2.4125,-2.4066,-2.402,-2.4096,-2.4188,-2.417,-2.4106,-2.4126,-2.4192,-2.4164,-2.4149,-2.4048,-2.4056,-2.399,-2.4136,-2.4154,-2.4142,-2.398,-2.3925,-2.3978,-2.4002,-2.3905,-2.3765,-2.3662,-2.3504,-2.3468,-2.3379,-2.3363,-2.3351,-2.3399,-2.3438,-2.3559,-2.3613,-2.363,-2.3859,-2.4039,-2.4224,-2.4134,-2.42,-2.4267,-2.4368,-2.4295,-2.4393,-2.4287,-2.4292,-2.4299,-2.4287,-2.4264,-2.4305,-2.4327,-2.4227,-2.3372,-2.2061,-2.0423,-1.8933,-1.6886,-1.4893,-1.5047,-1.8598,-2.4358,-2.8914,-2.8724,-2.715,-2.6079,-2.5046,-2.4116,-2.3436,-2.3431,-2.3322,-2.3297,-2.3444,-2.3476,-2.3405,-2.3322,-2.3396,-2.3304,-2.3307,-2.3235,-2.3094,-2.3067,-2.3023,-2.3041,-2.2995,-2.3005,-2.2932,-2.2905,-2.2844,-2.2812,-2.2686,-2.2626,-2.2541,-2.2508,-2.2381,-2.2367,-2.2179,-2.2129,-2.2054,-2.1994,-2.181,-2.1831,-2.159,-2.1469,-2.1475,-2.1314,-2.1142,-2.105,-2.0885,-2.0834,-2.0595,-2.0334,-2.0199,-1.9974,-1.9806,-1.9722,-1.9523,-1.9363,-1.938,-1.9265,-1.9116,-1.9033,-1.8901,-1.8918,-1.883,-1.8794,-1.8871,-1.8942,-1.9151,-1.9456,-1.992,-2.038,-2.077,-2.1107,-2.1654,-2.2006,-2.2496,-2.2811,-2.3078,-2.331,-2.3554,-2.3785,-2.3689,-2.3845,-2.399,-2.4156,-2.4169,-2.4177,-2.4095,-2.4128,-2.4017,-2.4124,-2.4055,-2.4006,-2.4017,-2.408,-2.4139,-2.4092,-2.3927,-2.391,-2.3968,-2.3955,-2.3924,-2.3991,-2.3929,-2.3935,-2.4021,-2.4012,-2.3955,-2.3871,-2.3966,-2.3972,-2.4051,-2.3942,-2.3912,-2.4003,-2.4043,-2.4174,-2.4111,-2.4089,-2.4132,-2.421,-2.426,-2.4161,-2.4242,-2.4149,-2.4278,-2.426,-2.4255,-2.4281,-2.4271,-2.4279,-2.4315,-2.4316,-2.4402,-2.4405,-2.4423,-2.454,-2.4346,-2.4408,-2.4367,-2.4449,-2.4417,-2.4389,-2.4386,-2.4458,-2.4464,-2.4487,-2.4498,-2.4434,-2.44,-2.4576,-2.4546,-2.4447,-2.447,-2.4461,-2.4546,-2.4632,-2.4691,-2.4525,-2.4588,-2.4558,-2.4516,-2.447,-2.4555,-2.4557,-2.463,-2.462,-2.4651,-2.4699,-2.4543,-2.4505,-2.4635,-2.4789,-2.4643,-2.4654,-2.4584,-2.4629,-2.4616,-2.448,-2.4463,-2.4435,-2.4537,-2.441,-2.4397,-2.4178,-2.4024,-2.4092,-2.408,-2.4046,-2.4098,-2.3986,-2.4174,-2.4175,-2.4192,-2.4199,-2.4532,-2.4737,-2.4827,-2.4885,-2.4922,-2.4813,-2.4773,-2.5002,-2.4948,-2.4938,-2.4968,-2.501,-2.5069,-2.5061,-2.5083,-2.4879,-2.4712,-2.3838,-2.2364,-2.0859,-1.9267,-1.7426,-1.5959,-1.7047,-2.0497,-2.6489,-2.9137,-2.893,-2.7611,-2.6583,-2.5708,-2.4663,-2.4313,-2.4131,-2.4166,-2.3956,-2.4112,-2.4129,-2.4228,-2.3967,-2.3978,-2.3982,-2.4169,-2.4046,-2.3866,-2.3839,-2.3723,-2.3507,-2.3639,-2.3655,-2.3608,-2.3559,-2.3684,-2.3824,-2.3536,-2.2928,-2.3204,-2.3198,-2.3084,-2.2942,-2.3041,-2.3092,-2.2627,-2.2652,-2.2761,-2.2708,-2.2571,-2.2047,-2.2067,-2.2029,-2.1971,-2.1739,-2.147,-2.141,-2.1345,-2.1198,-2.0967,-2.0663,-2.0486,-2.0505,-2.0203,-2.0094,-1.9995,-1.9955,-1.9796,-1.9764,-1.973,-1.9585,-1.9666,-1.9687,-1.9712,-1.9842,-2.0152,-2.0575,-2.1052,-2.1308,-2.1746,-2.2294,-2.2703,-2.3212,-2.3562,-2.3936,-2.4155,-2.4561,-2.4564,-2.4697,-2.4829,-2.487,-2.4841,-2.4954,-2.5048,-2.4957,-2.4926,-2.5025,-2.5148,-2.5212,-2.4992,-2.5089,-2.5022,-2.5031,-2.5047,-2.5024,-2.4954,-2.4966,-2.4959,-2.4974,-2.4955,-2.4919,-2.4861,-2.4865,-2.4928,-2.4961,-2.4865,-2.4861,-2.4907,-2.5009,-2.4949,-2.4948,-2.5052,-2.5091,-2.5033,-2.5114,-2.5092,-2.5101,-2.5291,-2.5304,-2.5234,-2.503,-2.5213,-2.5475,-2.5495,-2.5359,-2.5159,-2.5213,-2.5263,-2.5306,-2.5422,-2.5412,-2.5354,-2.5375,-2.5442,-2.5393,-2.5449,-2.5522,-2.5562,-2.5671,-2.5622,-2.5582,-2.5638,-2.5597,-2.566,-2.5633,-2.5631,-2.5619,-2.5577,-2.5636,-2.5649,-2.5681,-2.5621,-2.5573,-2.5615,-2.5655,-2.5697,-2.5713,-2.5655,-2.5725,-2.5854,-2.582,-2.5778,-2.5723,-2.5708,-2.5871,-2.578,-2.5919,-2.5769,-2.5768,-2.5863,-2.5839,-2.5953,-2.5801,-2.5814,-2.5824,-2.588,-2.5874,-2.5717,-2.5775,-2.5913,-2.5922,-2.5798,-2.5831,-2.5714,-2.5656,-2.5599,-2.5547,-2.5481,-2.5136,-2.5135,-2.512,-2.5192,-2.5178,-2.5166,-2.5288,-2.5332,-2.5438,-2.5419,-2.5356,-2.56,-2.5913,-2.5893,-2.5804,-2.5862,-2.5911,-2.5949,-2.6092,-2.6096,-2.6053,-2.6142,-2.5991,-2.6062,-2.602,-2.6034,-2.5879,-2.5256,-2.3854,-2.3088,-2.1439,-1.9714,-1.7719,-1.6215,-1.8035,-2.2032,-2.7968,-3.0292,-2.889,-2.7949,-2.709,-2.5941,-2.5282,-2.5257,-2.5111,-2.5102,-2.5126,-2.5128,-2.5051,-2.5073,-2.512,-2.5026,-2.4886,-2.4889,-2.481,-2.4869,-2.4759,-2.4628,-2.4656,-2.4735,-2.473,-2.4518,-2.4408,-2.4541,-2.4382,-2.4388,-2.4223,-2.4139,-2.4062,-2.4072,-2.4023,-2.3965,-2.3731,-2.3672,-2.3586,-2.3403,-2.3327,-2.3124,-2.3085,-2.3076,-2.2908,-2.2591,-2.2446,-2.2264,-2.2198,-2.2084,-2.1821,-2.1578,-2.1444,-2.1427,-2.1289,-2.0998,-2.0865,-2.0724,-2.0663,-2.0633,-2.0499,-2.0306,-2.0279,-2.0264,-2.0253,-2.0512,-2.063,-2.0917,-2.1339,-2.1753,-2.2196,-2.2632,-2.2854,-2.33,-2.3803,-2.4124,-2.4364,-2.4672,-2.4884,-2.5067,-2.5226,-2.5325,-2.538,-2.5486,-2.5513,-2.5571,-2.561,-2.5602,-2.5599,-2.5603,-2.5745,-2.5599,-2.5527,-2.5398,-2.5477,-2.5499,-2.5506,-2.5371,-2.535,-2.5371,-2.5475,-2.5363,-2.5412,-2.5465,-2.5406,-2.5373,-2.5344,-2.5402,-2.5352,-2.5443,-2.5448,-2.5457,-2.5435,-2.533,-2.5375,-2.5466,-2.5543,-2.5416,-2.5482,-2.5531,-2.5576,-2.5601,-2.5614,-2.5619,-2.5661,-2.565,-2.5752,-2.5609,-2.56,-2.5673,-2.5726,-2.5755,-2.5836,-2.575,-2.5739,-2.5775,-2.5882,-2.5731,-2.5711,-2.5705,-2.5839,-2.5771,-2.5894,-2.5797,-2.5729,-2.5789,-2.5821,-2.5847,-2.5739,-2.5812,-2.5845,-2.5865,-2.5852,-2.5741,-2.5726,-2.5792,-2.5891,-2.5875,-2.578,-2.5764,-2.5799,-2.5864,-2.5911,-2.5863,-2.578,-2.5685,-2.5814,-2.5823,-2.5831,-2.5851,-2.5793,-2.5937,-2.5938,-2.5924,-2.5872,-2.5885,-2.5828,-2.5942,-2.5865,-2.5882,-2.5882,-2.5918,-2.5882,-2.5928,-2.5819,-2.5916,-2.6087,-2.5972,-2.5909,-2.5919,-2.5928,-2.5975,-2.5949,-2.5973,-2.5883,-2.5809,-2.576,-2.5743,-2.5737,-2.5627,-2.5539,-2.5313,-2.5146,-2.5348,-2.5295,-2.53,-2.5213,-2.5287,-2.54,-2.5482,-2.5521,-2.5542,-2.5716,-2.5956,-2.592,-2.6112,-2.611,-2.614,-2.617,-2.622,-2.6191,-2.6167,-2.6309,-2.6242,-2.6203,-2.6159,-2.6214,-2.6198,-2.5889,-2.4797,-2.3249,-2.2404,-2.1045,-1.9089,-1.6933,-1.6575,-1.9815,-2.4942,-3.0181,-3.0047,-2.8433,-2.7825,-2.6634,-2.5834,-2.5486,-2.5385,-2.5177,-2.5342,-2.5391,-2.5369,-2.5198,-2.5257,-2.5287,-2.5359,-2.5239,-2.5139,-2.501,-2.5052,-2.501,-2.4984,-2.5006,-2.4986,-2.4851,-2.4829,-2.4858,-2.4773,-2.4531,-2.4531,-2.4531,-2.4466,-2.4425,-2.4348,-2.4246,-2.4121,-2.4035,-2.4009,-2.3764,-2.3639,-2.357,-2.3582,-2.336,-2.3113,-2.3093,-2.2989,-2.2908,-2.2593,-2.2392,-2.2204,-2.2041,-2.1911,-2.1753,-2.164,-2.1462,-2.1328,-2.1276,-2.1173,-2.1049,-2.0905,-2.0789,-2.0746,-2.0772,-2.0728,-2.0766,-2.0933,-2.1223,-2.1317,-2.1698,-2.2102,-2.2614,-2.306,-2.3629,-2.3896,-2.4174,-2.4544,-2.4762,-2.5167,-2.5347,-2.5441,-2.5484,-2.5553,-2.5763,-2.591,-2.5874,-2.58,-2.5842,-2.5907,-2.5953,-2.5909,-2.5819,-2.5804,-2.5874,-2.5845,-2.5725,-2.5844,-2.5753,-2.5666,-2.5732,-2.5636,-2.5555,-2.5761,-2.5702,-2.5669,-2.5587,-2.5584,-2.5561,-2.5563,-2.5691,-2.5604,-2.5614,-2.5627,-2.5668,-2.5672,-2.5699,-2.5681,-2.5717,-2.5741,-2.5743,-2.5788,-2.5771,-2.5868,-2.585,-2.5861,-2.595,-2.592,-2.5877,-2.5735,-2.5952,-2.5923,-2.5917,-2.5881,-2.5821,-2.5845,-2.5923,-2.5928,-2.5902,-2.5905,-2.5984,-2.5967,-2.594,-2.5909,-2.5949,-2.6029,-2.6031,-2.603,-2.5935,-2.5833,-2.5984,-2.6058,-2.5942,-2.595,-2.5938,-2.5993,-2.6098,-2.6031,-2.5991,-2.5949,-2.5946,-2.606,-2.6103,-2.6072,-2.6079,-2.6112,-2.6141,-2.6169,-2.6058,-2.6071,-2.6026,-2.6067,-2.6004,-2.597,-2.6051,-2.6123,-2.6109,-2.6137,-2.6126,-2.5928,-2.5892,-2.6044,-2.6116,-2.6043,-2.6015,-2.5944,-2.6007,-2.6048,-2.6042,-2.6032,-2.603,-2.6032,-2.6042,-2.5995,-2.5978,-2.6005,-2.5944,-2.6003,-2.5963,-2.5825,-2.5753,-2.5665,-2.5588,-2.5574,-2.5352,-2.5278,-2.5246,-2.5266,-2.5294,-2.5185,-2.5295,-2.5363,-2.5338,-2.5551,-2.5559,-2.5631,-2.5893,-2.606,-2.606,-2.6032,-2.6165,-2.6103,-2.6129,-2.622,-2.617,-2.6145,-2.6192,-2.619,-2.6273,-2.6212,-2.6036,-2.5471,-2.4221,-2.3384,-2.1988,-2.0367,-1.8339,-1.6416,-1.7417,-2.1115,-2.687,-3.0568,-2.9581,-2.8233,-2.7517,-2.6233,-2.5428,-2.5193,-2.5196,-2.5149,-2.5137,-2.5174,-2.5176,-2.5058,-2.5142,-2.5073,-2.5099,-2.5135,-2.51,-2.4968,-2.5026,-2.4816,-2.4791,-2.4734,-2.479,-2.4779,-2.4585,-2.462,-2.4618,-2.456,-2.4393,-2.4328,-2.4179,-2.4095,-2.4176,-2.4198,-2.3976,-2.3822,-2.3744,-2.3658,-2.3593,-2.3464,-2.3382,-2.3174,-2.296,-2.2885,-2.2704,-2.2602,-2.2425,-2.2284,-2.2136,-2.188,-2.1692,-2.1642,-2.1471,-2.1251,-2.1194,-2.108,-2.0899,-2.0839,-2.0755,-2.0644,-2.0701,-2.0506,-2.0454,-2.0709,-2.0794,-2.0839,-2.1366,-2.1898,-2.24,-2.2787,-2.3147,-2.3372,-2.3702,-2.4072,-2.4439,-2.4705,-2.4867,-2.529,-2.5414,-2.5617,-2.5562,-2.5741,-2.5776,-2.578,-2.5756,-2.5812,-2.5664,-2.5844,-2.5735,-2.5788,-2.5733,-2.5693,-2.5677,-2.5777,-2.5742,-2.5734,-2.5601,-2.5702,-2.5695,-2.5649,-2.5767,-2.569,-2.5541,-2.5603,-2.5613,-2.5687,-2.5568,-2.5528,-2.5555,-2.5661,-2.5549,-2.558,-2.565,-2.5664,-2.5659,-2.5645,-2.5662,-2.5659,-2.5814,-2.5837,-2.5724,-2.5704,-2.5851,-2.5766,-2.5918,-2.5793,-2.5782,-2.5791,-2.5867,-2.597,-2.5979,-2.5883,-2.5789,-2.5945,-2.5991,-2.5939,-2.601,-2.5924,-2.5946,-2.59,-2.6042,-2.6018,-2.5976,-2.5814,-2.5927,-2.6079,-2.6056,-2.6016,-2.5943,-2.5921,-2.5989,-2.5985,-2.6013,-2.595,-2.5853,-2.6107,-2.6096,-2.5992,-2.5903,-2.586,-2.61,-2.6035,-2.5889,-2.5967,-2.6067,-2.5981,-2.6003,-2.5912,-2.5964,-2.6036,-2.6066,-2.6091,-2.6025,-2.594,-2.5964,-2.596,-2.6028,-2.6009,-2.6096,-2.5951,-2.5899,-2.5976,-2.6082,-2.5962,-2.5967,-2.5999,-2.59,-2.5858,-2.5893,-2.5708,-2.57,-2.577,-2.5603,-2.526,-2.5371,-2.5244,-2.5329,-2.5368,-2.535,-2.5393,-2.5465,-2.5621,-2.5687,-2.5912,-2.6012,-2.606,-2.6215,-2.629,-2.6152,-2.6255,-2.6265,-2.6346,-2.6394,-2.6282,-2.6274,-2.6369,-2.6296,-2.6275,-2.6285,-2.6247,-2.5403,-2.4133,-2.2539,-2.0964,-1.9054,-1.7512,-1.8026,-2.1227,-2.6748,-3.1157,-3.0907,-2.9299,-2.8394,-2.746,-2.6533,-2.5643,-2.5462,-2.5558,-2.5629,-2.5599,-2.5505,-2.5455,-2.5465,-2.5497,-2.5455,-2.5499,-2.5311,-2.525,-2.5202,-2.5163,-2.5128,-2.5072,-2.5064,-2.5084,-2.4951,-2.4949,-2.4904,-2.4891,-2.4723,-2.466,-2.4595,-2.446,-2.443,-2.4261,-2.4322,-2.4119,-2.4005,-2.4051,-2.3958,-2.3795,-2.3759,-2.3594,-2.3379,-2.3279,-2.3126,-2.2861,-2.2667,-2.2587,-2.2431,-2.2212,-2.2024,-2.1835,-2.1779,-2.1559,-2.1568,-2.1285,-2.12,-2.0995,-2.1049,-2.103,-2.0839,-2.083,-2.0849,-2.0918,-2.1052,-2.1263,-2.1545,-2.193,-2.2472,-2.2967,-2.3326,-2.3646,-2.4119,-2.4606,-2.4915,-2.516,-2.522,-2.5567,-2.5786,-2.5945,-2.5979,-2.6023,-2.5983,-2.6095,-2.615,-2.6101,-2.6175,-2.6195,-2.6121,-2.6278,-2.6146,-2.6088,-2.5998,-2.5999,-2.6052,-2.6051,-2.5951,-2.5924,-2.5953,-2.5951,-2.5846,-2.5868,-2.5891,-2.588,-2.5878,-2.5849,-2.5837,-2.5843,-2.5806,-2.5806,-2.5868,-2.595,-2.5883,-2.5866,-2.5867,-2.5968,-2.5954,-2.597,-2.5842,-2.5844,-2.5951,-2.5982,-2.601,-2.6003,-2.6001,-2.6079,-2.6112,-2.6076,-2.5984,-2.601,-2.6154,-2.6217,-2.6084,-2.6042,-2.6023,-2.6061,-2.6056,-2.606,-2.6009,-2.5967,-2.6083,-2.6194,-2.6181,-2.6028,-2.6049,-2.6022,-2.6275,-2.615,-2.6073,-2.6072,-2.6177,-2.6142,-2.6124,-2.6084,-2.6111,-2.6209,-2.6245,-2.6217,-2.6155,-2.6072,-2.6159,-2.6182,-2.6146,-2.6146,-2.6214,-2.6211,-2.6162,-2.6145,-2.6226,-2.6222,-2.6216,-2.6199,-2.6295,-2.6164,-2.6205,-2.6158,-2.622,-2.6238,-2.6162,-2.6262,-2.6081,-2.6128,-2.6142,-2.6182,-2.601,-2.5923,-2.604,-2.5814,-2.5697,-2.5533,-2.5576,-2.5537,-2.5546,-2.5695,-2.564,-2.5577,-2.5739,-2.5808,-2.5773,-2.598,-2.6218,-2.6225,-2.6294,-2.6325,-2.6294,-2.6297,-2.6356,-2.6473,-2.6362,-2.6339,-2.6335,-2.6485,-2.6422,-2.6493,-2.6314,-2.6083,-2.4903,-2.3391,-2.2656,-2.1236,-1.9334,-1.726,-1.6934,-1.9788,-2.4806,-3.0248,-3.0131,-2.8734,-2.8015,-2.6864,-2.5884,-2.5371,-2.5469,-2.5335,-2.5402,-2.529,-2.5339,-2.5197,-2.5247,-2.5167,-2.5257,-2.5121,-2.5104,-2.5008,-2.5032,-2.4905,-2.4969,-2.4833,-2.4872,-2.4769,-2.4813,-2.4702,-2.4569,-2.4476,-2.4615,-2.442,-2.436,-2.4269,-2.4222,-2.4136,-2.4095,-2.4007,-2.3885,-2.372,-2.3562,-2.3536,-2.3332,-2.3289,-2.3081,-2.2862,-2.2735,-2.2479,-2.2318,-2.2243,-2.2185,-2.2042,-2.169,-2.146,-2.1406,-2.1393,-2.1142,-2.1026,-2.0952,-2.0876,-2.0727,-2.0667,-2.0513,-2.0481,-2.0618,-2.0658,-2.0783,-2.1009,-2.1391,-2.1931,-2.2393,-2.2757,-2.3252,-2.3648,-2.383,-2.4345,-2.469,-2.4961,-2.5074,-2.533,-2.5481,-2.5706,-2.5711,-2.5699,-2.5818,-2.5939,-2.5892,-2.5917,-2.5965,-2.5957,-2.5937,-2.6016,-2.5923,-2.589,-2.5854,-2.5881,-2.5846,-2.5948,-2.5835,-2.5736,-2.5774,-2.5744,-2.5873,-2.5759,-2.5702,-2.5688,-2.5709,-2.5615,-2.5619,-2.5597,-2.5657,-2.5726,-2.5749,-2.5757,-2.5675,-2.5703,-2.58,-2.578,-2.5824,-2.5849,-2.5819,-2.5893,-2.5907,-2.5873,-2.5921,-2.6023,-2.5956,-2.6022,-2.6058,-2.6007,-2.599,-2.5982,-2.6024,-2.6012,-2.6034,-2.5999,-2.6032,-2.6044,-2.6101,-2.6105,-2.6068,-2.6096,-2.6082,-2.6197,-2.609,-2.6103,-2.6113,-2.6114,-2.6163,-2.6085,-2.613,-2.6035,-2.6137,-2.6123,-2.6177,-2.6102,-2.6139,-2.6177,-2.6178,-2.6235,-2.6159,-2.6144,-2.624,-2.6272,-2.6217,-2.6138,-2.6161,-2.6182,-2.6224,-2.6268,-2.6159,-2.6185,-2.6259,-2.6249,-2.6176,-2.6273,-2.6269,-2.6241,-2.6258,-2.6208,-2.6223,-2.6189,-2.6172,-2.6267,-2.6337,-2.6313,-2.6235,-2.6338,-2.6277,-2.6277,-2.6252,-2.6246,-2.6276,-2.6344,-2.6332,-2.6314,-2.6233,-2.6084,-2.6198,-2.6215,-2.6044,-2.5954,-2.5885,-2.5719,-2.5617,-2.5573,-2.5541,-2.5612,-2.5595,-2.5685,-2.5729,-2.57,-2.5761,-2.5872,-2.6077,-2.6261,-2.6324,-2.6324,-2.6349,-2.6371,-2.6369,-2.6457,-2.646,-2.6388,-2.6337,-2.6292,-2.6408,-2.6445,-2.6485,-2.6401,-2.5744,-2.4412,-2.3671,-2.222,-2.0596,-1.8576,-1.6348,-1.7318,-2.1011,-2.6627,-3.0256,-2.9519,-2.8597,-2.7664,-2.6261,-2.574,-2.5541,-2.5442,-2.5433,-2.5502,-2.5466,-2.55,-2.5393,-2.5344,-2.5328,-2.5421,-2.5325,-2.5146,-2.5118,-2.5132,-2.5135,-2.5068,-2.498,-2.4923,-2.4851,-2.4843,-2.4853,-2.4823,-2.4676,-2.457,-2.4569,-2.4492,-2.4511,-2.4317,-2.4185,-2.4097,-2.4103,-2.4031,-2.3831,-2.3729,-2.3702,-2.358,-2.3373,-2.32,-2.3113,-2.2996,-2.2865,-2.2601,-2.2462,-2.2196,-2.2114,-2.2,-2.1867,-2.1682,-2.1436,-2.1265,-2.1264,-2.1156,-2.0975,-2.091,-2.0736,-2.0698,-2.0702,-2.0724,-2.0779,-2.093,-2.1233,-2.1533,-2.1958,-2.2434,-2.2889,-2.342,-2.3612,-2.389,-2.4276,-2.4581,-2.4988,-2.5182,-2.5399,-2.5489,-2.5608,-2.5666,-2.5768,-2.587,-2.5751,-2.5859,-2.585,-2.5856,-2.583,-2.5867,-2.5892,-2.5894,-2.5855,-2.5786,-2.5803,-2.5795,-2.5809,-2.5809,-2.5702,-2.5712,-2.5734,-2.5719,-2.5767,-2.5781,-2.5726,-2.564,-2.5569,-2.5666,-2.5703,-2.572,-2.5714,-2.5658,-2.57,-2.5713,-2.5753,-2.5738,-2.5807,-2.5757,-2.5777,-2.5799,-2.5853,-2.588,-2.5864,-2.6011,-2.6035,-2.6003,-2.5979,-2.6027,-2.6081,-2.6062,-2.6017,-2.6043,-2.5956,-2.6113,-2.6203,-2.6124,-2.5985,-2.6098,-2.6202,-2.6166,-2.612,-2.6101,-2.6102,-2.6155,-2.6207,-2.6154,-2.6266,-2.6144,-2.6124,-2.6238,-2.6227,-2.6158,-2.6218,-2.6307,-2.6245,-2.6252,-2.6266,-2.6196,-2.6264,-2.6209,-2.6233,-2.6212,-2.6198,-2.6285,-2.6317,-2.638,-2.6319,-2.6259,-2.6366,-2.6363,-2.6331,-2.6302,-2.6392,-2.6304,-2.6302,-2.6367,-2.639,-2.6381,-2.6315,-2.627,-2.6346,-2.6355,-2.6327,-2.6342,-2.6347,-2.6311,-2.6216,-2.6311,-2.6306,-2.6324,-2.6389,-2.6386,-2.6248,-2.6212,-2.6247,-2.6387,-2.636,-2.6294,-2.6249,-2.6156,-2.6211,-2.6255,-2.6054,-2.5958,-2.599,-2.5976,-2.5739,-2.5537,-2.5562,-2.5583,-2.5568,-2.5542,-2.5495,-2.5555,-2.5635,-2.5824,-2.5913,-2.5839,-2.6132,-2.6188,-2.64,-2.6375,-2.6364,-2.6295,-2.6278,-2.6376,-2.6394,-2.6398,-2.6327,-2.6308,-2.6388,-2.6363,-2.6351,-2.6276,-2.5394,-2.4056,-2.259,-2.121,-1.918,-1.6948,-1.6861,-2.0263,-2.5343,-3.0243,-2.9909,-2.8596,-2.805,-2.6616,-2.5756,-2.5554,-2.5548,-2.5524,-2.5627,-2.5517,-2.5527,-2.541,-2.5427,-2.5423,-2.5286,-2.5166,-2.5233,-2.5214,-2.5221,-2.5073,-2.5047,-2.5004,-2.5063,-2.4923,-2.4834,-2.4784,-2.4737,-2.4647,-2.4682,-2.4469,-2.4464,-2.4294,-2.4388,-2.424,-2.418,-2.3992,-2.3852,-2.3835,-2.3596,-2.3439,-2.3477,-2.3229,-2.3048,-2.2977,-2.2864,-2.2594,-2.2489,-2.2367,-2.2118,-2.2002,-2.1865,-2.1609,-2.1365,-2.1201,-2.112,-2.1023,-2.0799,-2.0694,-2.0581,-2.053,-2.0426,-2.0375,-2.0362,-2.0421,-2.0543,-2.0807,-2.0972,-2.1317,-2.1662,-2.2201,-2.2665,-2.2968,-2.3418,-2.3824,-2.4206,-2.4561,-2.463,-2.4844,-2.5041,-2.5265,-2.5326,-2.5356,-2.542,-2.5508,-2.5564,-2.5617,-2.5553,-2.5509,-2.5432,-2.5509,-2.5447,-2.5495,-2.5421,-2.5345,-2.5365,-2.5393,-2.5446,-2.5354,-2.5267,-2.5312,-2.5375,-2.5276,-2.5205,-2.5267,-2.5277,-2.5303,-2.5338,-2.5241,-2.5221,-2.5195,-2.5217,-2.528,-2.5262,-2.5269,-2.5314,-2.5293,-2.5271,-2.5232,-2.532,-2.5302,-2.5426,-2.5394,-2.5363,-2.5387,-2.5434,-2.549,-2.5472,-2.5437,-2.541,-2.5428,-2.5404,-2.5415,-2.5511,-2.5397,-2.5395,-2.5481,-2.5533,-2.5421,-2.5318,-2.5514,-2.5454,-2.5472,-2.5491,-2.5597,-2.5472,-2.5493,-2.5578,-2.5525,-2.5429,-2.5472,-2.5535,-2.5432,-2.5586,-2.5515,-2.5525,-2.5523,-2.5588,-2.5586,-2.5511,-2.5526,-2.5521,-2.5538,-2.5574,-2.5508,-2.5497,-2.5527,-2.5608,-2.5609,-2.5507,-2.5525,-2.5485,-2.5439,-2.5572,-2.5558,-2.5512,-2.5501,-2.5538,-2.5617,-2.5538,-2.5532,-2.5452,-2.5623,-2.5692,-2.5589,-2.5471,-2.553,-2.5569,-2.5558,-2.5556,-2.5609,-2.5533,-2.5553,-2.5603,-2.5554,-2.5474,-2.5565,-2.5576,-2.5499,-2.5586,-2.5543,-2.5376,-2.5309,-2.5365,-2.5419,-2.5226,-2.512,-2.5146,-2.4783,-2.4885,-2.4733,-2.4721,-2.4853,-2.4856,-2.4942,-2.5003,-2.4945,-2.5056,-2.5237,-2.5548,-2.5653,-2.5622,-2.5666,-2.5718,-2.5652,-2.5676,-2.5711,-2.5694,-2.5784,-2.5848,-2.5759,-2.5747,-2.5842,-2.5846,-2.5704,-2.5107,-2.3737,-2.2143,-2.069,-1.8671,-1.6801,-1.6369,-1.9493,-2.4848,-3.004,-2.9797,-2.8807,-2.7715,-2.6854,-2.5982,-2.5049,-2.5067,-2.4806,-2.5006,-2.4867,-2.4927,-2.4778,-2.4818,-2.4719,-2.4878,-2.4692,-2.4716,-2.4439,-2.4612,-2.448,-2.4483,-2.4378,-2.4412,-2.4258,-2.4417,-2.4225,-2.4161,-2.4085,-2.4167,-2.393,-2.3874,-2.3789,-2.3899,-2.3628,-2.3558,-2.3438,-2.3427,-2.3229,-2.3194,-2.3016,-2.3005,-2.2969,-2.2738,-2.2617,-2.2465,-2.2394,-2.2215,-2.1985,-2.1742,-2.1765,-2.1568,-2.1505,-2.118,-2.0965,-2.0837,-2.0732,-2.0704,-2.0527,-2.0468,-2.0418,-2.0277,-2.0333,-2.0175,-2.0137,-2.0238,-2.0507,-2.066,-2.1051,-2.1514,-2.1915,-2.2362,-2.2874,-2.3294,-2.3736,-2.4044,-2.4379,-2.4624,-2.4852,-2.4967,-2.5237,-2.5215,-2.5236,-2.5478,-2.542,-2.5394,-2.554,-2.5498,-2.5534,-2.5466,-2.5483,-2.5481,-2.5431,-2.5428,-2.5559,-2.5409,-2.5423,-2.5336,-2.5384,-2.5319,-2.5311,-2.5284,-2.5328,-2.5357,-2.5307,-2.5286,-2.525,-2.5187,-2.5258,-2.5272,-2.5262,-2.5251,-2.5261,-2.5259,-2.5353,-2.5349,-2.5329,-2.5378,-2.5462,-2.5476,-2.536,-2.5224,-2.546,-2.554,-2.5605,-2.56,-2.5508,-2.5547,-2.5526,-2.5638,-2.5611,-2.5557,-2.5583,-2.5536,-2.559,-2.5643,-2.5489,-2.5526,-2.5622,-2.564,-2.5641,-2.55,-2.5513,-2.5557,-2.5718,-2.5751,-2.5729,-2.555,-2.5562,-2.5562,-2.5533,-2.563,-2.5525,-2.5494,-2.5655,-2.5735,-2.5692,-2.5619,-2.5623,-2.5671,-2.5671,-2.561,-2.5616,-2.5702,-2.5733,-2.5709,-2.5538,-2.5618,-2.5664,-2.573,-2.5587,-2.5507,-2.5629,-2.5747,-2.5763,-2.5751,-2.567,-2.5553,-2.5548,-2.5683,-2.5666,-2.5765,-2.5596,-2.5503,-2.5337,-2.5341,-2.5236,-2.5035,-2.5094,-2.4923,-2.4989,-2.5022,-2.5011,-2.507,-2.5071,-2.5268,-2.5291,-2.5445,-2.5625,-2.567,-2.5784,-2.5829,-2.5829,-2.5821,-2.5818,-2.5919,-2.5917,-2.5787,-2.5745,-2.585,-2.5885,-2.5989,-2.5957,-2.5634,-2.4771,-2.3499,-2.1943,-2.0519,-1.8626,-1.6876,-1.6922,-1.9492,-2.3941,-2.9677,-3.0166,-2.8538,-2.777,-2.6718,-2.5954,-2.5044,-2.5063,-2.4943,-2.4939,-2.4893,-2.488,-2.4812,-2.4881,-2.4773,-2.4792,-2.4654,-2.4728,-2.4568,-2.4604,-2.4443,-2.4361,-2.4316,-2.4339,-2.4307,-2.4205,-2.4053,-2.4149,-2.3991,-2.3968,-2.3855,-2.3865,-2.3763,-2.3663,-2.3554,-2.3454,-2.3251,-2.3255,-2.3073,-2.3097,-2.3013,-2.2776,-2.2624,-2.2465,-2.2372,-2.2212,-2.1974,-2.1801,-2.1725,-2.1443,-2.1277,-2.0939,-2.0737,-2.0669,-2.0527,-2.0428,-2.0252,-2.0152,-1.9999,-1.9855,-1.9848,-1.973,-1.9619,-1.9637,-1.9766,-1.9958,-2.0184,-2.0488,-2.0915,-2.1336,-2.1968,-2.2343,-2.2778,-2.32,-2.3666,-2.3887,-2.4118,-2.4169,-2.4369,-2.4462,-2.463,-2.4831,-2.4887,-2.4899,-2.4918,-2.493,-2.4992,-2.4934,-2.4867,-2.4962,-2.5006,-2.491,-2.4926,-2.4861,-2.4821,-2.4828,-2.4909,-2.4815,-2.4715,-2.4677,-2.4743,-2.4658,-2.4663,-2.4699,-2.4728,-2.4705,-2.4719,-2.4589,-2.4638,-2.4581,-2.4702,-2.4791,-2.4682,-2.4637,-2.4748,-2.4769,-2.4786,-2.4752,-2.4819,-2.4722,-2.4809,-2.4911,-2.4939,-2.4858,-2.4807,-2.4919,-2.4928,-2.49,-2.4869,-2.5,-2.5024,-2.5048,-2.4972,-2.4897,-2.4856,-2.4956,-2.494,-2.5073,-2.5005,-2.497,-2.4889,-2.4965,-2.4999,-2.5075,-2.4923,-2.5069,-2.5116,-2.5064,-2.5062,-2.4976,-2.5017,-2.5053,-2.5112,-2.5103,-2.4993,-2.4979,-2.5039,-2.5013,-2.504,-2.5029,-2.49,-2.4973,-2.5037,-2.5026,-2.5016,-2.5028,-2.4965,-2.4995,-2.4976,-2.4982,-2.4967,-2.4971,-2.5008,-2.4938,-2.4877,-2.5022,-2.5069,-2.5037,-2.5008,-2.4958,-2.4981,-2.4891,-2.483,-2.4792,-2.4788,-2.4689,-2.4714,-2.463,-2.459,-2.4385,-2.418,-2.4208,-2.4175,-2.4309,-2.4188,-2.4216,-2.4243,-2.4335,-2.4402,-2.4389,-2.4558,-2.4767,-2.4934,-2.4944,-2.5013,-2.4974,-2.4978,-2.4948,-2.4967,-2.4918,-2.4996,-2.5084,-2.501,-2.5104,-2.5018,-2.5049,-2.4789,-2.4056,-2.2518,-2.1018,-1.9552,-1.7579,-1.5634,-1.5784,-1.9142,-2.4471,-2.9135,-2.8548,-2.7093,-2.6402,-2.5303,-2.4415,-2.4073,-2.4038,-2.3893,-2.402,-2.3812,-2.3818,-2.3721,-2.3809,-2.3677,-2.3792,-2.3657,-2.3619,-2.3556,-2.3542,-2.338,-2.3404,-2.3324,-2.3314,-2.3247,-2.3161,-2.3035,-2.303,-2.2985,-2.2906,-2.2807,-2.2733,-2.272,-2.2607,-2.2552,-2.24,-2.225,-2.2199,-2.209,-2.1988,-2.1843,-2.1605,-2.1504,-2.1395,-2.1325,-2.1124,-2.0881,-2.0717,-2.0617,-2.0595,-2.0372,-2.0222,-1.9912,-1.9624,-1.9522,-1.9309,-1.9228,-1.901,-1.8953,-1.8943,-1.8949,-1.8682,-1.8562,-1.858,-1.8663,-1.8872,-1.9167,-1.9519,-1.9955,-2.0181,-2.0722,-2.1143,-2.1588,-2.1934,-2.2311,-2.2733,-2.2945,-2.3191,-2.3317,-2.3363,-2.3579,-2.3774,-2.3837,-2.3862,-2.3899,-2.3902,-2.3937,-2.3882,-2.3939,-2.3897,-2.4,-2.3954,-2.3846,-2.3824,-2.3836,-2.3884,-2.383,-2.3797,-2.3742,-2.3706,-2.3777,-2.3759,-2.3629,-2.3611,-2.3669,-2.3632,-2.374,-2.3774,-2.3645,-2.37,-2.3757,-2.3786,-2.3702,-2.3684,-2.3768,-2.3744,-2.3731,-2.3844,-2.3762,-2.38,-2.3787,-2.395,-2.3942,-2.3811,-2.3867,-2.3865,-2.397,-2.4018,-2.3841,-2.3884,-2.3888,-2.3971,-2.398,-2.3948,-2.3858,-2.3915,-2.3956,-2.3931,-2.3954,-2.3892,-2.4037,-2.3969,-2.4002,-2.392,-2.3914,-2.3865,-2.3955,-2.3951,-2.4009,-2.4002,-2.3911,-2.393,-2.3928,-2.3906,-2.39,-2.3969,-2.3978,-2.3976,-2.3936,-2.3908,-2.3991,-2.3924,-2.3982,-2.3975,-2.3934,-2.3884,-2.3825,-2.3924,-2.3863,-2.3856,-2.3889,-2.3972,-2.3855,-2.3949,-2.4009,-2.3887,-2.3854,-2.389,-2.3931,-2.3953,-2.3885,-2.3919,-2.395,-2.4017,-2.3906,-2.3878,-2.3855,-2.3908,-2.3917,-2.3872,-2.3818,-2.3784,-2.3877,-2.388,-2.3752,-2.3647,-2.3695,-2.3706,-2.3591,-2.3503,-2.3324,-2.3086,-2.3194,-2.2994,-2.2934,-2.3077,-2.3122,-2.314,-2.3126,-2.3264,-2.3291,-2.3271,-2.3506,-2.3718,-2.3941,-2.3948,-2.3785,-2.3921,-2.3998,-2.3954,-2.3875,-2.3896,-2.3951,-2.3945,-2.3972,-2.3929,-2.3863,-2.3867,-2.3714,-2.2787,-2.1257,-1.9623,-1.8088,-1.5935,-1.3883,-1.4609,-1.8493,-2.3983,-2.7853,-2.7073,-2.5713,-2.507,-2.375,-2.3174,-2.3003,-2.2911,-2.2813,-2.2903,-2.289,-2.2859,-2.2854,-2.2771,-2.268,-2.2667,-2.2679,-2.2694,-2.2527,-2.2446,-2.2418,-2.2429,-2.2402,-2.2355,-2.221,-2.2145,-2.2075,-2.2114,-2.2062,-2.199,-2.1792,-2.1885,-2.1824,-2.1775,-2.156,-2.143,-2.1304,-2.1286,-2.1158,-2.0957,-2.0947,-2.0834,-2.0676,-2.0467,-2.0325,-2.0218,-2.0129,-1.9982,-1.9865,-1.9651,-1.9516,-1.9368,-1.9145,-1.8845,-1.8719,-1.8515,-1.8472,-1.8226,-1.8196,-1.8092,-1.7862,-1.7844,-1.7848,-1.7848,-1.7934,-1.8098,-1.8494,-1.874,-1.9331,-1.9582,-1.9812,-2.0296,-2.0821,-2.1323,-2.1676,-2.1932,-2.2199,-2.2507,-2.2725,-2.2938,-2.3027,-2.317,-2.3276,-2.3385,-2.3449,-2.3299,-2.3275,-2.3387,-2.3414,-2.3396,-2.337,-2.3304,-2.3259,-2.3301,-2.3395,-2.3236,-2.3189,-2.3205,-2.3255,-2.3306,-2.3213,-2.3153,-2.3168,-2.3125,-2.3142,-2.3202,-2.3145,-2.3092,-2.3131,-2.3218,-2.3196,-2.3173,-2.3128,-2.3155,-2.3147,-2.3152,-2.3191,-2.3217,-2.3266,-2.3413,-2.3403,-2.3308,-2.3265,-2.337,-2.3397,-2.3386,-2.3481,-2.3505,-2.3492,-2.3533,-2.36,-2.3479,-2.3511,-2.3499,-2.3564,-2.3558,-2.3475,-2.3473,-2.349,-2.3627,-2.3582,-2.3655,-2.3621,-2.3682,-2.3651,-2.3655,-2.3628,-2.3679,-2.3693,-2.3694,-2.3706,-2.366,-2.3603,-2.3674,-2.3697,-2.3651,-2.3681,-2.3689,-2.3666,-2.3646,-2.3667,-2.3764,-2.3786,-2.3683,-2.3686,-2.3765,-2.3655,-2.3659,-2.372,-2.3865,-2.3726,-2.3808,-2.3802,-2.363,-2.3701,-2.3747,-2.3744,-2.3807,-2.3693,-2.3811,-2.3839,-2.3705,-2.3748,-2.3688,-2.3693,-2.3765,-2.3841,-2.3705,-2.3678,-2.3646,-2.3721,-2.3841,-2.3787,-2.3592,-2.3628,-2.3643,-2.3566,-2.3505,-2.3392,-2.3362,-2.3359,-2.3055,-2.2969,-2.2902,-2.2903,-2.2971,-2.3106,-2.307,-2.311,-2.3133,-2.3136,-2.3307,-2.3394,-2.3658,-2.3736,-2.3753,-2.3858,-2.3914,-2.393,-2.3827,-2.3782,-2.391,-2.3966,-2.3936,-2.3983,-2.3934,-2.3956,-2.3991,-2.3913,-2.3147,-2.1735,-2.022,-1.8802,-1.6688,-1.4805,-1.442,-1.7485,-2.2644,-2.794,-2.8019,-2.6275,-2.5701,-2.458,-2.3631,-2.3017,-2.2986,-2.2962,-2.3087,-2.2988,-2.3011,-2.2858,-2.2973,-2.2917,-2.2902,-2.2782,-2.2861,-2.2839,-2.2752,-2.2677,-2.266,-2.2497,-2.2577,-2.2521,-2.2499,-2.2449,-2.2375,-2.2182,-2.2375,-2.2302,-2.2261,-2.1988,-2.1888,-2.1788,-2.1837,-2.1683,-2.1495,-2.1443,-2.1462,-2.1269,-2.1227,-2.0988,-2.0855,-2.0722,-2.0675,-2.0525,-2.0168,-1.9978,-1.9839,-1.9802,-1.9566,-1.9425,-1.9264,-1.9089,-1.9006,-1.8848,-1.8608,-1.8476,-1.8448,-1.8342,-1.8259,-1.8174,-1.8175,-1.8244,-1.8459,-1.8576,-1.8828,-1.9385,-1.9545,-2.0065,-2.0598,-2.1036,-2.1477,-2.192,-2.2176,-2.2583,-2.2792,-2.2972,-2.3041,-2.3289,-2.3475,-2.3565,-2.3633,-2.3702,-2.3733,-2.3687,-2.3645,-2.364,-2.3593,-2.3703,-2.3791,-2.3702,-2.3606,-2.3567,-2.3563,-2.3668,-2.3542,-2.3597,-2.3501,-2.3517,-2.3488,-2.3405,-2.3473,-2.3314,-2.3375,-2.3525,-2.3514,-2.3411,-2.335,-2.3274,-2.3493,-2.3492,-2.344,-2.3395,-2.3401,-2.3514,-2.3506,-2.3631,-2.356,-2.3574,-2.3579,-2.3647,-2.3792,-2.3657,-2.3592,-2.3705,-2.3689,-2.3834,-2.3837,-2.3665,-2.3695,-2.3841,-2.3853,-2.3855,-2.378,-2.3884,-2.3847,-2.3888,-2.3897,-2.3754,-2.3767,-2.3802,-2.3918,-2.3983,-2.3816,-2.3864,-2.4018,-2.3953,-2.3927,-2.3912,-2.3897,-2.3941,-2.4084,-2.4031,-2.3946,-2.3983,-2.4051,-2.4033,-2.4009,-2.4124,-2.4077,-2.4043,-2.4095,-2.4048,-2.4038,-2.3942,-2.401,-2.4063,-2.4164,-2.4068,-2.3984,-2.4076,-2.4156,-2.4274,-2.4133,-2.3974,-2.3974,-2.3956,-2.4004,-2.3885,-2.3861,-2.3817,-2.3671,-2.3509,-2.3597,-2.3432,-2.3383,-2.3518,-2.3555,-2.3582,-2.3662,-2.368,-2.3664,-2.3937,-2.4053,-2.4119,-2.4286,-2.4388,-2.4362,-2.4405,-2.4344,-2.4278,-2.4328,-2.4386,-2.4454,-2.4423,-2.4466,-2.4422,-2.4454,-2.4394,-2.4084,-2.3008,-2.1612,-2.0171,-1.8552,-1.6624,-1.5109,-1.6423,-2.0069,-2.6095,-2.8973,-2.7586,-2.6367,-2.5557,-2.4707,-2.3874,-2.3512,-2.3538,-2.3489,-2.3625,-2.366,-2.3498,-2.3401,-2.3432,-2.3502,-2.3248,-2.3322,-2.3146,-2.3205,-2.3216,-2.3142,-2.3032,-2.2944,-2.2922,-2.2967,-2.2848,-2.2752,-2.2681,-2.2686,-2.2608,-2.262,-2.2484,-2.2314,-2.224,-2.2173,-2.2082,-2.2113,-2.1856,-2.179,-2.1745,-2.1618,-2.1534,-2.1233,-2.1118,-2.0959,-2.0845,-2.0642,-2.054,-2.0298,-2.0191,-2.0023,-1.9848,-1.9567,-1.9376,-1.9313,-1.9218,-1.9093,-1.8829,-1.8776,-1.8691,-1.8569,-1.8566,-1.8518,-1.8566,-1.876,-1.9067,-1.9354,-1.9616,-2.0029,-2.0466,-2.0974,-2.1383,-2.193,-2.2288,-2.2669,-2.3016,-2.3314,-2.3512,-2.3657,-2.373,-2.3799,-2.4014,-2.4202,-2.4078,-2.4068,-2.4222,-2.4133,-2.4189,-2.4204,-2.4184,-2.4197,-2.425,-2.4221,-2.4134,-2.4103,-2.4056,-2.4131,-2.4126,-2.4028,-2.4032,-2.4053,-2.4068,-2.4028,-2.3931,-2.3923,-2.4014,-2.3941,-2.4023,-2.3971,-2.3947,-2.3885,-2.4004,-2.403,-2.3954,-2.3954,-2.4031,-2.4028,-2.4154,-2.4102,-2.4154,-2.4144,-2.4162,-2.4253,-2.4218,-2.4263,-2.4245,-2.4225,-2.433,-2.4335,-2.4247,-2.4288,-2.4343,-2.4385,-2.4449,-2.436,-2.4341,-2.4372,-2.4411,-2.4404,-2.4302,-2.4257,-2.4324,-2.4512,-2.4424,-2.4374,-2.4313,-2.4314,-2.4442,-2.4459,-2.4532,-2.4369,-2.4379,-2.4425,-2.4453
