-0.36651,-0.36591,-0.32141,-0.3454,-0.34981,-0.36671,-0.37344,-0.34877,-0.34116,-0.32435,-0.32265,-0.33754,-0.32787,-0.32538,-0.31973,-0.31729,-0.28562,-0.27535,-0.28177,-0.24127,-0.25341,-0.27132,-0.25053,-0.2441,-0.20474,-0.18528,-0.16499,-0.15671,-0.14879,-0.15566,-0.16997,-0.15424,-0.15066,-0.14852,-0.13103,-0.11717,-0.11255,-0.10409,-0.12516,-0.12278,-0.097661,-0.1099,-0.11942,-0.14784,-0.16726,-0.18964,-0.19118,-0.20885,-0.2161,-0.21743,-0.25008,-0.26131,-0.27446,-0.30023,-0.32997,-0.36848,-0.37314,-0.36411,-0.3447,-0.33977,-0.36254,-0.38403,-0.38069,-0.37642,-0.38421,-0.38137,-0.36211,-0.34348,-0.33624,-0.34339,-0.38908,-0.37969,-0.37479,-0.36946,-0.34251,-0.3229,-0.36055,-0.37568,-0.35954,-0.33925,-0.32656,-0.32412,-0.33003,-0.34377,-0.33087,-0.32768,-0.32375,-0.32337,-0.32825,-0.33951,-0.34228,-0.33843,-0.35942,-0.35113,-0.36668,-0.38859,-0.35513,-0.35343,-0.36539,-0.3324,-0.31485,-0.33041,-0.30574,-0.30187,-0.31219,-0.29753,-0.33961,-0.3219,-0.31646,-0.33773,-0.31817,-0.28446,-0.31204,-0.33126,-0.33831,-0.34568,-0.35775,-0.37873,-0.3731,-0.33771,-0.31917,-0.35377,-0.35931,-0.35747,-0.35822,-0.38301,-0.41391,-0.42982,-0.43108,-0.39554,-0.27671,-0.085752,0.23084,0.50934,0.65245,0.35989,-0.092689,-0.2902,-0.4601,-0.56419,-0.54589,-0.44702,-0.32799,-0.35271,-0.36446,-0.36555,-0.37516,-0.38437,-0.39044,-0.35938,-0.38545,-0.36934,-0.35916,-0.32914,-0.34422,-0.37235,-0.34637,-0.34658,-0.37106,-0.35661,-0.35563,-0.32609,-0.31387,-0.30081,-0.34,-0.3422,-0.32966,-0.32804,-0.31862,-0.28729,-0.29774,-0.29381,-0.26577,-0.24648,-0.24308,-0.23757,-0.22551,-0.20335,-0.17955,-0.17963,-0.16534,-0.16492,-0.1722,-0.13994,-0.10234,-0.12399,-0.14489,-0.14132,-0.12889,-0.11698,-0.10524,-0.10195,-0.097371,-0.10846,-0.10424,-0.11435,-0.11214,-0.13134,-0.1367,-0.12958,-0.19404,-0.25095,-0.26596,-0.27239,-0.27771,-0.31657,-0.33384,-0.34915,-0.3452,-0.36247,-0.37967,-0.37224,-0.36645,-0.3429,-0.3634,-0.38775,-0.37261,-0.3846,-0.39544,-0.38854,-0.37951,-0.37377,-0.37852,-0.36921,-0.38834,-0.38444,-0.38034,-0.38669,-0.39068,-0.3791,-0.34524,-0.3622,-0.36836,-0.36245,-0.34351,-0.35936,-0.36977,-0.36894,-0.34436,-0.3336,-0.33899,-0.36045,-0.3765,-0.36897,-0.34073,-0.37781,-0.38965,-0.3746,-0.3775,-0.38428,-0.3826,-0.36701,-0.38455,-0.38472,-0.33853,-0.36398,-0.4033,-0.38957,-0.38971,-0.37909,-0.36847,-0.391,-0.38758,-0.36051,-0.37157,-0.3697,-0.35011,-0.34968,-0.34703,-0.33963,-0.3372,-0.31788,-0.31544,-0.34554,-0.34269,-0.32047,-0.31486,-0.29449,-0.3178,-0.35394,-0.39601,-0.40145,-0.37692,-0.39435,-0.40021,-0.3873,-0.39554,-0.39205,-0.38944,-0.39348,-0.37462,-0.37647,-0.40233,-0.43793,-0.40738,-0.31663,-0.14534,0.15668,0.46986,0.71978,0.47263,-0.019975,-0.24092,-0.38379,-0.52939,-0.53738,-0.46664,-0.32053,-0.30535,-0.33824,-0.35672,-0.4095,-0.37513,-0.38222,-0.36916,-0.36315,-0.34379,-0.34312,-0.33717,-0.36596,-0.35349,-0.33484,-0.34175,-0.35149,-0.34893,-0.34027,-0.32734,-0.32279,-0.32064,-0.31483,-0.29068,-0.30393,-0.31805,-0.29859,-0.28811,-0.27692,-0.2646,-0.26106,-0.26415,-0.24634,-0.24253,-0.22238,-0.19058,-0.19692,-0.16997,-0.17488,-0.19559,-0.15884,-0.15083,-0.13023,-0.12627,-0.12313,-0.12985,-0.11668,-0.10312,-0.09076,-0.089259,-0.089881,-0.092341,-0.076337,-0.07412,-0.10564,-0.13603,-0.12929,-0.14475,-0.1725,-0.1881,-0.23985,-0.26035,-0.26916,-0.27679,-0.31782,-0.31751,-0.31707,-0.33428,-0.34954,-0.35249,-0.36303,-0.38446,-0.3804,-0.39331,-0.38587,-0.3691,-0.36389,-0.39981,-0.36291,-0.35679,-0.42566,-0.43216,-0.38043,-0.35435,-0.37485,-0.40099,-0.37837,-0.3842,-0.37348,-0.38611,-0.37442,-0.36688,-0.33462,-0.34445,-0.38656,-0.37991,-0.3869,-0.37975,-0.37513,-0.37587,-0.38688,-0.38695,-0.37386,-0.39131,-0.36995,-0.36905,-0.39395,-0.41917,-0.39245,-0.38087,-0.3817,-0.39362,-0.39234,-0.42563,-0.39851,-0.37493,-0.40268,-0.42754,-0.41939,-0.42344,-0.42587,-0.40832,-0.42449,-0.40313,-0.39852,-0.43811,-0.44988,-0.39823,-0.34971,-0.38029,-0.436,-0.44612,-0.41574,-0.39506,-0.42512,-0.41444,-0.41775,-0.42468,-0.37734,-0.38013,-0.41302,-0.3964,-0.38786,-0.38458,-0.37287,-0.35703,-0.35826,-0.35997,-0.37338,-0.38082,-0.35396,-0.34573,-0.40043,-0.39324,-0.38124,-0.39983,-0.42181,-0.42031,-0.46067,-0.42189,-0.43299,-0.41018,-0.42016,-0.42907,-0.43156,-0.44609,-0.45036,-0.46068,-0.45862,-0.41353,-0.34292,-0.16017,0.18074,0.45525,0.55876,0.29751,-0.11106,-0.27765,-0.40907,-0.5317,-0.63193,-0.61474,-0.53114,-0.39103,-0.38456,-0.41177,-0.43563,-0.45253,-0.42754,-0.43841,-0.42074,-0.43975,-0.44298,-0.4175,-0.43032,-0.44713,-0.43089,-0.41838,-0.40731,-0.41165,-0.41,-0.41151,-0.4017,-0.40383,-0.40621,-0.38215,-0.38426,-0.38996,-0.3738,-0.39643,-0.36431,-0.36096,-0.35794,-0.35562,-0.37515,-0.34025,-0.29852,-0.29909,-0.30225,-0.28308,-0.24686,-0.25314,-0.27449,-0.28324,-0.27227,-0.23307,-0.20796,-0.25439,-0.2448,-0.2214,-0.22204,-0.21907,-0.22465,-0.23509,-0.20844,-0.20722,-0.1935,-0.23487,-0.27127,-0.26809,-0.28149,-0.29486,-0.27738,-0.31041,-0.35411,-0.37415,-0.39625,-0.41222,-0.41144,-0.43422,-0.47427,-0.45885,-0.47806,-0.48104,-0.47077,-0.49403,-0.48605,-0.48296,-0.47224,-0.47647,-0.51826,-0.50273,-0.48929,-0.50513,-0.50801,-0.4905,-0.47899,-0.48206,-0.4553,-0.43934,-0.44045,-0.45125,-0.49685,-0.43979,-0.42815,-0.48815,-0.48132,-0.46769,-0.44126,-0.45026,-0.48746,-0.48472,-0.499,-0.47868,-0.48008,-0.48284,-0.47385,-0.48674,-0.46952,-0.47701,-0.49675,-0.46484,-0.45661,-0.51884,-0.53537,-0.50793,-0.49205,-0.49981,-0.54134,-0.53907,-0.52083,-0.52413,-0.51703,-0.50795,-0.49334,-0.49671,-0.48858,-0.52547,-0.53158,-0.51173,-0.49204,-0.4805,-0.44941,-0.4611,-0.48319,-0.48211,-0.47599,-0.47829,-0.4888,-0.4781,-0.45673,-0.46131,-0.47874,-0.48356,-0.50505,-0.52651,-0.53008,-0.52531,-0.52826,-0.53915,-0.51308,-0.51968,-0.56177,-0.54115,-0.52768,-0.52473,-0.54344,-0.56303,-0.56717,-0.48181,-0.34478,-0.24461,0.028625,0.31697,0.48587,0.18936,-0.21403,-0.39252,-0.49897,-0.62374,-0.74188,-0.69668,-0.61112,-0.49917,-0.52106,-0.53178,-0.52358,-0.5324,-0.53235,-0.51021,-0.52574,-0.52457,-0.54597,-0.54121,-0.51872,-0.52088,-0.52805,-0.51019,-0.50038,-0.51352,-0.52574,-0.49777,-0.49777,-0.48623,-0.47989,-0.46807,-0.45393,-0.49014,-0.50149,-0.46445,-0.43528,-0.44947,-0.46916,-0.4399,-0.44031,-0.40612,-0.40142,-0.41709,-0.41146,-0.40206,-0.36572,-0.3455,-0.32017,-0.32007,-0.33222,-0.36141,-0.3199,-0.32396,-0.30366,-0.31506,-0.28148,-0.26085,-0.28978,-0.32343,-0.31867,-0.29959,-0.30888,-0.32842,-0.35415,-0.36194,-0.37766,-0.39603,-0.41444,-0.4213,-0.44462,-0.49147,-0.51243,-0.51622,-0.53926,-0.52379,-0.53767,-0.53919,-0.55511,-0.5261,-0.55108,-0.57688,-0.5811,-0.55678,-0.56483,-0.5571,-0.55504,-0.56217,-0.57357,-0.58938,-0.5615,-0.57456,-0.57109,-0.55735,-0.54375,-0.55382,-0.56094,-0.55018,-0.54168,-0.53849,-0.5519,-0.52894,-0.52603,-0.50789,-0.51733,-0.55405,-0.54205,-0.54316,-0.56562,-0.55767,-0.55181,-0.55775,-0.55943,-0.55668,-0.53248,-0.54712,-0.54551,-0.5487,-0.55571,-0.56581,-0.58513,-0.59226,-0.58297,-0.57543,-0.54524,-0.54235,-0.56054,-0.52496,-0.54073,-0.51753,-0.45062,-0.4548,-0.49427,-0.51539,-0.53109,-0.55651,-0.52196,-0.49649,-0.47777,-0.515,-0.50058,-0.51972,-0.55461,-0.57205,-0.57417,-0.56323,-0.5493,-0.57685,-0.54942,-0.55878,-0.59442,-0.58034,-0.57547,-0.56537,-0.55497,-0.57579,-0.57772,-0.57243,-0.48227,-0.29494,0.021958,0.29471,0.45669,0.24417,-0.20441,-0.42263,-0.53573,-0.69478,-0.72612,-0.69424,-0.61209,-0.52816,-0.5338,-0.55592,-0.553,-0.52696,-0.56825,-0.56255,-0.55498,-0.54854,-0.55861,-0.54734,-0.55558,-0.55268,-0.55905,-0.53736,-0.55117,-0.53863,-0.53058,-0.51523,-0.51211,-0.50068,-0.51316,-0.4871,-0.48121,-0.49032,-0.49243,-0.49272,-0.5022,-0.49079,-0.47189,-0.46001,-0.45625,-0.4143,-0.41307,-0.40137,-0.37491,-0.37685,-0.36089,-0.35821,-0.37284,-0.33466,-0.28622,-0.27653,-0.31438,-0.3151,-0.32374,-0.3316,-0.30815,-0.282,-0.28522,-0.30775,-0.31172,-0.30226,-0.30591,-0.31625,-0.31476,-0.32206,-0.36255,-0.40773,-0.42897,-0.47567,-0.48087,-0.49644,-0.50822,-0.51088,-0.53006,-0.53131,-0.52962,-0.54056,-0.56985,-0.58714,-0.57321,-0.58025,-0.57432,-0.56589,-0.56473,-0.56755,-0.56292,-0.55983,-0.56716,-0.59769,-0.5814,-0.59636,-0.57245,-0.56108,-0.55676,-0.5502,-0.5366,-0.53129,-0.55151,-0.53879,-0.55434,-0.57072,-0.55347,-0.55109,-0.54912,-0.5462,-0.55244,-0.56149,-0.56032,-0.55732,-0.53845,-0.53498,-0.55315,-0.54197,-0.54619,-0.54321,-0.55474,-0.58187,-0.58548,-0.57936,-0.57016,-0.57704,-0.58002,-0.57486,-0.56794,-0.5825,-0.59075,-0.58418,-0.56972,-0.55056,-0.53347,-0.52808,-0.52993,-0.53454,-0.52048,-0.50733,-0.48847,-0.50646,-0.538,-0.54206,-0.52635,-0.51842,-0.52185,-0.53549,-0.53234,-0.55637,-0.56299,-0.59993,-0.58822,-0.59343,-0.58139,-0.5723,-0.59287,-0.59256,-0.58939,-0.57213,-0.58986,-0.60399,-0.61744,-0.57605,-0.46185,-0.28174,0.0014177,0.28038,0.46336,0.18988,-0.26921,-0.44186,-0.59491,-0.73808,-0.77403,-0.70872,-0.56076,-0.52962,-0.56412,-0.55162,-0.56324,-0.56578,-0.59102,-0.56956,-0.57336,-0.57014,-0.57233,-0.5417,-0.57075,-0.57619,-0.5403,-0.52843,-0.54437,-0.51984,-0.54523,-0.54318,-0.53133,-0.54443,-0.50835,-0.50732,-0.50654,-0.51944,-0.50719,-0.49157,-0.49194,-0.48582,-0.47692,-0.47372,-0.45321,-0.42379,-0.42715,-0.4093,-0.40263,-0.40501,-0.3731,-0.35305,-0.36045,-0.35288,-0.351,-0.35016,-0.33603,-0.30665,-0.30377,-0.3303,-0.32361,-0.3049,-0.29658,-0.28278,-0.29539,-0.31068,-0.31055,-0.31233,-0.32384,-0.34606,-0.3776,-0.40391,-0.43626,-0.44447,-0.45846,-0.48358,-0.48802,-0.49122,-0.48982,-0.53323,-0.56153,-0.57093,-0.56511,-0.56466,-0.58466,-0.59056,-0.57139,-0.54953,-0.57984,-0.59597,-0.59934,-0.59523,-0.57463,-0.56342,-0.56949,-0.56061,-0.55817,-0.56996,-0.58045,-0.56723,-0.54417,-0.53592,-0.53474,-0.55642,-0.5767,-0.57242,-0.53121,-0.53864,-0.57906,-0.56055,-0.55691,-0.55952,-0.53947,-0.53789,-0.56249,-0.56805,-0.55808,-0.53696,-0.56202,-0.57253,-0.55492,-0.55367,-0.56662,-0.57545,-0.58833,-0.59094,-0.57806,-0.56728,-0.58915,-0.58968,-0.57946,-0.5793,-0.56651,-0.57853,-0.57515,-0.57538,-0.56729,-0.57726,-0.5742,-0.58286,-0.56869,-0.56273,-0.58393,-0.5946,-0.57566,-0.57243,-0.55289,-0.54584,-0.5405,-0.53409,-0.53285,-0.53867,-0.51531,-0.49298,-0.49213,-0.52171,-0.51775,-0.51247,-0.52516,-0.5431,-0.53541,-0.56899,-0.59333,-0.59728,-0.59673,-0.60135,-0.59181,-0.58033,-0.58494,-0.58559,-0.57974,-0.57075,-0.59085,-0.59737,-0.63062,-0.63579,-0.57498,-0.44191,-0.224,0.10129,0.3685,0.4507,0.11396,-0.30678,-0.46987,-0.62203,-0.73666,-0.73525,-0.64843,-0.5276,-0.51768,-0.55208,-0.56926,-0.5698,-0.56244,-0.54718,-0.54434,-0.55153,-0.52424,-0.52895,-0.56938,-0.57477,-0.55297,-0.55993,-0.55654,-0.55104,-0.52893,-0.52901,-0.52647,-0.52639,-0.51302,-0.50155,-0.50452,-0.49506,-0.50508,-0.49624,-0.47759,-0.47206,-0.45412,-0.45406,-0.44899,-0.42333,-0.40886,-0.40262,-0.38435,-0.38465,-0.35652,-0.33846,-0.31033,-0.31948,-0.32987,-0.32936,-0.32342,-0.30556,-0.30341,-0.28251,-0.28526,-0.27703,-0.27795,-0.26561,-0.25526,-0.26293,-0.23377,-0.24839,-0.29706,-0.30068,-0.31527,-0.33031,-0.338,-0.36703,-0.40378,-0.45184,-0.47238,-0.46924,-0.47333,-0.4718,-0.47776,-0.47629,-0.51909,-0.54236,-0.53178,-0.53827,-0.53136,-0.52289,-0.52918,-0.52271,-0.5382,-0.52927,-0.5098,-0.50068,-0.5143,-0.51257,-0.52035,-0.54168,-0.53196,-0.51509,-0.51384,-0.51274,-0.51491,-0.52069,-0.5427,-0.53277,-0.53004,-0.52339,-0.51732,-0.52217,-0.50121,-0.48896,-0.50641,-0.53374,-0.52715,-0.51453,-0.51922,-0.52463,-0.5234,-0.55595,-0.56506,-0.55382,-0.55087,-0.53756,-0.55498,-0.54929,-0.54064,-0.51893,-0.52327,-0.55278,-0.57383,-0.55482,-0.5629,-0.56836,-0.55682,-0.55514,-0.55075,-0.54578,-0.54758,-0.54293,-0.5506,-0.52268,-0.54367,-0.56638,-0.54649,-0.53525,-0.51348,-0.51993,-0.50604,-0.50418,-0.5073,-0.51564,-0.50305,-0.49174,-0.48773,-0.47482,-0.4768,-0.49711,-0.50546,-0.51732,-0.52186,-0.54921,-0.57382,-0.56454,-0.55194,-0.53391,-0.53574,-0.57958,-0.55446,-0.56341,-0.56219,-0.54278,-0.54792,-0.59024,-0.57415,-0.49982,-0.42073,-0.24102,0.083037,0.38318,0.49814,0.37063,-0.070384,-0.36875,-0.52094,-0.67214,-0.73396,-0.69182,-0.53581,-0.50468,-0.51804,-0.52438,-0.52453,-0.53215,-0.54435,-0.53036,-0.5026,-0.51182,-0.51884,-0.51997,-0.53391,-0.53182,-0.50464,-0.48749,-0.48699,-0.48169,-0.50049,-0.51005,-0.49165,-0.47746,-0.48295,-0.48077,-0.4591,-0.45511,-0.45023,-0.43966,-0.43519,-0.42251,-0.40607,-0.41335,-0.40414,-0.38809,-0.38295,-0.37267,-0.34948,-0.33372,-0.31228,-0.30149,-0.29626,-0.30884,-0.30491,-0.25339,-0.25272,-0.26206,-0.26328,-0.24541,-0.23897,-0.23984,-0.2554,-0.23593,-0.23129,-0.22082,-0.22136,-0.24854,-0.26229,-0.25758,-0.28635,-0.31166,-0.33864,-0.36486,-0.38052,-0.39313,-0.40906,-0.42944,-0.46336,-0.46613,-0.48287,-0.49582,-0.48549,-0.48988,-0.49806,-0.50287,-0.48501,-0.51424,-0.53207,-0.50886,-0.4983,-0.50565,-0.51119,-0.51235,-0.51222,-0.51087,-0.49749,-0.48711,-0.48544,-0.48959,-0.47956,-0.46592,-0.4961,-0.50512,-0.50061,-0.50293,-0.49472,-0.4887,-0.48485,-0.48101,-0.47985,-0.47661,-0.4465,-0.47161,-0.51594,-0.51759,-0.52042,-0.52035,-0.5127,-0.50653,-0.515,-0.52028,-0.50173,-0.50236,-0.51399,-0.49689,-0.50547,-0.53525,-0.53838,-0.51726,-0.51196,-0.51442,-0.52427,-0.5383,-0.53305,-0.53652,-0.53022,-0.5223,-0.53192,-0.52628,-0.49205,-0.47702,-0.48289,-0.48198,-0.48043,-0.48476,-0.45239,-0.49766,-0.49299,-0.46292,-0.47217,-0.4627,-0.45833,-0.48583,-0.47893,-0.46768,-0.4713,-0.51327,-0.53975,-0.53176,-0.5291,-0.52072,-0.52492,-0.5336,-0.51793,-0.51348,-0.50447,-0.51471,-0.54673,-0.54117,-0.55504,-0.56826,-0.49545,-0.38839,-0.18752,0.13454,0.40999,0.49633,0.14614,-0.25929,-0.43289,-0.56864,-0.66147,-0.67431,-0.67448,-0.56548,-0.48214,-0.49158,-0.51432,-0.51589,-0.52614,-0.52273,-0.50758,-0.51968,-0.51375,-0.51514,-0.4905,-0.49038,-0.51981,-0.49654,-0.48772,-0.4638,-0.45241,-0.49925,-0.49047,-0.47963,-0.4577,-0.44189,-0.45651,-0.48255,-0.46131,-0.43774,-0.41869,-0.44027,-0.41706,-0.41194,-0.41214,-0.38726,-0.38635,-0.38054,-0.34726,-0.32155,-0.33473,-0.31435,-0.31312,-0.30833,-0.30981,-0.31326,-0.27459,-0.27309,-0.30522,-0.26657,-0.25445,-0.2779,-0.28224,-0.25402,-0.23972,-0.21894,-0.2597,-0.28669,-0.25765,-0.29646,-0.31598,-0.32463,-0.33821,-0.35953,-0.36778,-0.4047,-0.41997,-0.44657,-0.47233,-0.47496,-0.47698,-0.48747,-0.50889,-0.51331,-0.51157,-0.51443,-0.53236,-0.50134,-0.51106,-0.52099,-0.53681,-0.5182,-0.52311,-0.51257,-0.51392,-0.52273,-0.51726,-0.51505,-0.49789,-0.50092,-0.53265,-0.5239,-0.5119,-0.51173,-0.49696,-0.50674,-0.49909,-0.50471,-0.51286,-0.49348,-0.47894,-0.48479,-0.51069,-0.50408,-0.48984,-0.50387,-0.51303,-0.50948,-0.51577,-0.52959,-0.52748,-0.51743,-0.53718,-0.53504,-0.53633,-0.52696,-0.56122,-0.54525,-0.53622,-0.52825,-0.52436,-0.50297,-0.49676,-0.5027,-0.50659,-0.50244,-0.50741,-0.49522,-0.48113,-0.49129,-0.48791,-0.49678,-0.47568,-0.46936,-0.46501,-0.498,-0.49906,-0.505,-0.51969,-0.53653,-0.52636,-0.51461,-0.50088,-0.50225,-0.5447,-0.54323,-0.51876,-0.53371,-0.54748,-0.53467,-0.53695,-0.5751,-0.50599,-0.3822,-0.15606,0.092172,0.31373,0.40199,0.10688,-0.22405,-0.35821,-0.48058,-0.54662,-0.71899,-0.72305,-0.62513,-0.51497,-0.51087,-0.518,-0.52024,-0.52988,-0.50502,-0.51525,-0.50752,-0.53465,-0.50296,-0.50987,-0.51794,-0.52525,-0.5043,-0.49994,-0.47876,-0.47262,-0.50077,-0.50028,-0.48253,-0.48539,-0.48548,-0.47569,-0.48272,-0.46724,-0.44573,-0.4463,-0.43916,-0.44206,-0.43445,-0.43867,-0.42997,-0.40598,-0.36348,-0.35264,-0.38551,-0.38197,-0.37487,-0.3731,-0.36328,-0.34403,-0.32444,-0.32715,-0.32043,-0.31107,-0.30939,-0.29946,-0.29153,-0.29247,-0.2963,-0.29173,-0.29232,-0.30811,-0.31879,-0.32023,-0.32606,-0.33551,-0.35642,-0.38077,-0.39089,-0.41742,-0.4267,-0.44928,-0.48725,-0.49801,-0.49678,-0.50667,-0.53356,-0.54334,-0.52815,-0.5322,-0.57412,-0.57081,-0.57251,-0.56276,-0.56133,-0.56592,-0.57649,-0.56587,-0.56332,-0.55589,-0.54079,-0.54485,-0.54697,-0.5483,-0.54571,-0.55211,-0.54603,-0.53043,-0.53079,-0.53158,-0.53838,-0.53977,-0.53298,-0.53542,-0.52538,-0.53221,-0.53892,-0.54857,-0.53913,-0.5391,-0.53743,-0.53393,-0.53695,-0.55958,-0.54476,-0.5355,-0.57163,-0.57755,-0.56117,-0.56008,-0.55673,-0.54277,-0.5363,-0.52395,-0.50922,-0.50964,-0.50821,-0.52059,-0.52101,-0.52292,-0.49248,-0.49745,-0.51143,-0.51025,-0.53896,-0.57331,-0.55951,-0.55074,-0.57117,-0.57254,-0.57475,-0.57192,-0.54011,-0.51092,-0.55514,-0.58068,-0.59078,-0.60072,-0.61365,-0.58343,-0.49409,-0.32719,-0.078087,0.18636,0.39706,0.27744,-0.12154,-0.40644,-0.49094,-0.60979,-0.7232,-0.72627,-0.634,-0.52959,-0.55921,-0.57573,-0.57005,-0.57912,-0.56414,-0.57419,-0.5715,-0.56913,-0.55881,-0.56489,-0.55373,-0.56026,-0.55145,-0.55348,-0.54103,-0.53069,-0.51379,-0.51839,-0.53389,-0.53479,-0.52469,-0.52161,-0.50661,-0.4946,-0.49836,-0.49257,-0.47888,-0.46307,-0.45902,-0.45601,-0.45821,-0.42896,-0.43677,-0.42218,-0.40787,-0.3914,-0.386,-0.3822,-0.36871,-0.33098,-0.34348,-0.34754,-0.34119,-0.33225,-0.31705,-0.3161,-0.30812,-0.29816,-0.29358,-0.30695,-0.2751,-0.29623,-0.32368,-0.33844,-0.34922,-0.36966,-0.37869,-0.39878,-0.4206,-0.45244,-0.48051,-0.47961,-0.49421,-0.4933,-0.50339,-0.50119,-0.54315,-0.54751,-0.56635,-0.56197,-0.55786,-0.56892,-0.55942,-0.56794,-0.57393,-0.57901,-0.56948,-0.57244,-0.57366,-0.56671,-0.56165,-0.55648,-0.54848,-0.56047,-0.55864,-0.54613,-0.55045,-0.55234,-0.56146,-0.5474,-0.54611,-0.53169,-0.53071,-0.54599,-0.53842,-0.52568,-0.5504,-0.54837,-0.54514,-0.55166,-0.55629,-0.55632,-0.55195,-0.56081,-0.55698,-0.54676,-0.56322,-0.57551,-0.57542,-0.57866,-0.58056,-0.56696,-0.55298,-0.5442,-0.53423,-0.5314,-0.51983,-0.52104,-0.52287,-0.5186,-0.52321,-0.53099,-0.53174,-0.51784,-0.51308,-0.52399,-0.5308,-0.5483,-0.56496,-0.56629,-0.5653,-0.57846,-0.58611,-0.58238,-0.57487,-0.57927,-0.56995,-0.55254,-0.56702,-0.59424,-0.6108,-0.57726,-0.54535,-0.45284,-0.24442,0.058078,0.35077,0.50052,0.17601,-0.30878,-0.46854,-0.61285,-0.74969,-0.73148,-0.66517,-0.53692,-0.53178,-0.56011,-0.57219,-0.57281,-0.55121,-0.55635,-0.54869,-0.56571,-0.5387,-0.53515,-0.55746,-0.5541,-0.54802,-0.55268,-0.54767,-0.54225,-0.53496,-0.53549,-0.5145,-0.52084,-0.51653,-0.50962,-0.50579,-0.51596,-0.50215,-0.49729,-0.48827,-0.48907,-0.46913,-0.45531,-0.44301,-0.44425,-0.43341,-0.42053,-0.41406,-0.41657,-0.38619,-0.37288,-0.37308,-0.36328,-0.33367,-0.31287,-0.32546,-0.32172,-0.32493,-0.32295,-0.30792,-0.30935,-0.29891,-0.29051,-0.29037,-0.29556,-0.28154,-0.2725,-0.29425,-0.34485,-0.34916,-0.36733,-0.40941,-0.43517,-0.47478,-0.48192,-0.50198,-0.51893,-0.53753,-0.5459,-0.54012,-0.54754,-0.55078,-0.56622,-0.57205,-0.56717,-0.57976,-0.57621,-0.57968,-0.57983,-0.57659,-0.56875,-0.56372,-0.56015,-0.57091,-0.57899,-0.57351,-0.57283,-0.572,-0.57374,-0.57607,-0.57299,-0.57012,-0.56523,-0.56133,-0.56707,-0.56231,-0.5668,-0.56062,-0.55597,-0.5508,-0.55424,-0.55948,-0.55699,-0.56721,-0.57466,-0.57779,-0.57084,-0.58881,-0.59548,-0.5901,-0.58296,-0.5848,-0.59346,-0.58806,-0.58129,-0.58855,-0.57943,-0.56128,-0.56496,-0.59574,-0.59813,-0.58411,-0.56668,-0.5542,-0.53514,-0.54069,-0.54362,-0.55659,-0.56163,-0.54378,-0.52306,-0.5185,-0.52637,-0.5457,-0.54375,-0.52076,-0.51253,-0.54916,-0.57372,-0.56871,-0.57298,-0.58715,-0.57304,-0.56949,-0.58756,-0.59004,-0.57643,-0.58119,-0.59474,-0.58586,-0.59173,-0.62517,-0.63191,-0.58031,-0.48814,-0.2785,0.033906,0.33377,0.48158,0.17848,-0.2746,-0.45938,-0.58527,-0.68779,-0.7162,-0.68487,-0.56632,-0.54561,-0.57354,-0.56098,-0.56675,-0.56526,-0.56152,-0.52416,-0.52432,-0.54264,-0.56986,-0.55366,-0.5628,-0.55225,-0.55389,-0.55961,-0.53922,-0.53891,-0.53619,-0.533,-0.52989,-0.51721,-0.46485,-0.45408,-0.4642,-0.49322,-0.50973,-0.48452,-0.47567,-0.46798,-0.44996,-0.43178,-0.42245,-0.38629,-0.39247,-0.40284,-0.39282,-0.38119,-0.35557,-0.32563,-0.33624,-0.32292,-0.30519,-0.30846,-0.30136,-0.27576,-0.26776,-0.28246,-0.29335,-0.26611,-0.26546,-0.26518,-0.26222,-0.27658,-0.26319,-0.27157,-0.29434,-0.3357,-0.34779,-0.37842,-0.4068,-0.43162,-0.45163,-0.46162,-0.47389,-0.47631,-0.48611,-0.51019,-0.52056,-0.52247,-0.54207,-0.55128,-0.54458,-0.54138,-0.54665,-0.54931,-0.55336,-0.54579,-0.56681,-0.57355,-0.55883,-0.5569,-0.55714,-0.55879,-0.53635,-0.54146,-0.54801,-0.5428,-0.52848,-0.52567,-0.54734,-0.54734,-0.52744,-0.53221,-0.51687,-0.51184,-0.52597,-0.54349,-0.53687,-0.53979,-0.54039,-0.55572,-0.53802,-0.53697,-0.54622,-0.53612,-0.54539,-0.54912,-0.55139,-0.54427,-0.54204,-0.55857,-0.5622,-0.55585,-0.55004,-0.55209,-0.55532,-0.55182,-0.55011,-0.56331,-0.55642,-0.56158,-0.56107,-0.55899,-0.53881,-0.52267,-0.50339,-0.51325,-0.51695,-0.50721,-0.49482,-0.49628,-0.50479,-0.5024,-0.4959,-0.49504,-0.49534,-0.50568,-0.53226,-0.53674,-0.54497,-0.5528,-0.56247,-0.57372,-0.5867,-0.58369,-0.5645,-0.55514,-0.57185,-0.56393,-0.5654,-0.57658,-0.60587,-0.62459,-0.58878,-0.47926,-0.30491,0.014204,0.32875,0.496,0.21541,-0.26386,-0.46597,-0.53845,-0.69032,-0.74186,-0.69632,-0.53653,-0.50044,-0.54259,-0.55551,-0.56739,-0.54793,-0.55499,-0.54776,-0.544,-0.52062,-0.54433,-0.5538,-0.55477,-0.55282,-0.5506,-0.5323,-0.53545,-0.52668,-0.53165,-0.51277,-0.50395,-0.50033,-0.50985,-0.50228,-0.5022,-0.49468,-0.49197,-0.47915,-0.47598,-0.46871,-0.45426,-0.4479,-0.43465,-0.41571,-0.41272,-0.4006,-0.38938,-0.38375,-0.35398,-0.34631,-0.34142,-0.33399,-0.32928,-0.31908,-0.30176,-0.31122,-0.3122,-0.29334,-0.28757,-0.27725,-0.28696,-0.27363,-0.26535,-0.2698,-0.27738,-0.29581,-0.30077,-0.31901,-0.3314,-0.35078,-0.38384,-0.42087,-0.44119,-0.44666,-0.4626,-0.49858,-0.51561,-0.52816,-0.52265,-0.53707,-0.54684,-0.55674,-0.55163,-0.56042,-0.5652,-0.56303,-0.56085,-0.56186,-0.54403,-0.51892,-0.53147,-0.57267,-0.56556,-0.54763,-0.54787,-0.55182,-0.53964,-0.53736,-0.53981,-0.5338,-0.53806,-0.53032,-0.52799,-0.53179,-0.53905,-0.52815,-0.52167,-0.51777,-0.53797,-0.5483,-0.54305,-0.53876,-0.54044,-0.5503,-0.54686,-0.55239,-0.55987,-0.55074,-0.53869,-0.55191,-0.54741,-0.55276,-0.56609,-0.56616,-0.57219,-0.5741,-0.56456,-0.56406,-0.54977,-0.56457,-0.5678,-0.56167,-0.54342,-0.54699,-0.56374,-0.53152,-0.51388,-0.52831,-0.51554,-0.51845,-0.53323,-0.50428,-0.49951,-0.5073,-0.51262,-0.51959,-0.50917,-0.49335,-0.48631,-0.49011,-0.51153,-0.52865,-0.55795,-0.56533,-0.56495,-0.57428,-0.57532,-0.56415,-0.5544,-0.56279,-0.5602,-0.55564,-0.55846,-0.58339,-0.58614,-0.54341,-0.49661,-0.36931,-0.12859,0.16895,0.42617,0.39799,0.011082,-0.34193,-0.46205,-0.61072,-0.735,-0.71298,-0.62182,-0.5062,-0.52001,-0.53869,-0.54437,-0.53304,-0.53169,-0.53841,-0.53613,-0.53694,-0.52407,-0.53422,-0.52739,-0.5158,-0.52618,-0.52148,-0.52777,-0.51682,-0.50463,-0.49049,-0.48426,-0.48341,-0.47414,-0.49093,-0.4777,-0.46862,-0.47231,-0.45302,-0.44511,-0.44861,-0.4415,-0.4175,-0.40213,-0.41309,-0.39308,-0.37377,-0.37129,-0.3717,-0.35053,-0.33694,-0.33755,-0.32265,-0.30368,-0.30995,-0.2919,-0.27877,-0.27837,-0.26944,-0.2694,-0.26937,-0.26794,-0.25956,-0.24946,-0.26274,-0.26309,-0.26974,-0.2894,-0.29317,-0.31725,-0.33032,-0.3509,-0.3784,-0.40624,-0.4242,-0.45838,-0.46109,-0.47888,-0.48527,-0.47988,-0.47904,-0.50349,-0.52573,-0.52194,-0.52897,-0.52266,-0.53469,-0.53435,-0.51277,-0.50835,-0.51247,-0.51668,-0.52498,-0.52743,-0.52162,-0.50636,-0.50004,-0.5081,-0.50293,-0.50922,-0.50221,-0.50392,-0.49992,-0.49032,-0.49206,-0.49524,-0.49602,-0.49799,-0.49381,-0.48601,-0.4839,-0.48751,-0.49337,-0.49186,-0.4986,-0.50624,-0.50938,-0.50916,-0.51467,-0.50769,-0.51084,-0.5169,-0.51734,-0.52045,-0.51686,-0.5077,-0.51389,-0.52015,-0.50792,-0.5142,-0.50641,-0.50618,-0.48747,-0.46521,-0.46929,-0.45699,-0.46005,-0.4713,-0.47312,-0.47618,-0.47047,-0.46072,-0.46303,-0.45384,-0.4517,-0.47457,-0.4946,-0.50166,-0.51735,-0.52711,-0.53397,-0.53277,-0.52355,-0.52101,-0.52903,-0.53075,-0.51287,-0.52083,-0.53921,-0.54351,-0.51735,-0.4249,-0.2799,-0.042362,0.23708,0.41872,0.32643,-0.051728,-0.32666,-0.39298,-0.50962,-0.67991,-0.71991,-0.65043,-0.52888,-0.49742,-0.51052,-0.50622,-0.49982,-0.50075,-0.50746,-0.49956,-0.50615,-0.48894,-0.49182,-0.50054,-0.49705,-0.49016,-0.49007,-0.48632,-0.47892,-0.46308,-0.45612,-0.44868,-0.45674,-0.4405,-0.44201,-0.44058,-0.44451,-0.4368,-0.43326,-0.42194,-0.41137,-0.39949,-0.39149,-0.38513,-0.37538,-0.3593,-0.35895,-0.35201,-0.34231,-0.32332,-0.31789,-0.31477,-0.29359,-0.2824,-0.28556,-0.27301,-0.26421,-0.26715,-0.26469,-0.25939,-0.26415,-0.25487,-0.24547,-0.25678,-0.26922,-0.27406,-0.26748,-0.27952,-0.30135,-0.32097,-0.34006,-0.35197,-0.37768,-0.39605,-0.41845,-0.43363,-0.44056,-0.44493,-0.46213,-0.46752,-0.47552,-0.49329,-0.49924,-0.50542,-0.50529,-0.51047,-0.51218,-0.50383,-0.50818,-0.52182,-0.51025,-0.507,-0.49836,-0.49964,-0.4971,-0.49545,-0.50312,-0.4985,-0.4994,-0.5043,-0.49864,-0.49324,-0.47775,-0.48262,-0.48298,-0.48736,-0.48814,-0.48541,-0.48992,-0.48154,-0.48907,-0.49491,-0.49185,-0.48954,-0.49447,-0.49831,-0.49929,-0.50069,-0.50417,-0.50228,-0.49865,-0.50062,-0.50124,-0.49655,-0.48817,-0.48313,-0.47376,-0.46514,-0.45395,-0.45071,-0.45686,-0.46705,-0.46836,-0.46018,-0.45313,-0.44776,-0.45055,-0.45786,-0.48085,-0.50399,-0.50111,-0.50378,-0.50675,-0.50731,-0.50154,-0.50345,-0.49634,-0.50786,-0.50138,-0.50329,-0.51078,-0.52569,-0.49292,-0.39225,-0.20544,0.066706,0.32909,0.43217,0.43784,0.058809,-0.29202,-0.39521,-0.51786,-0.65633,-0.68065,-0.61136,-0.48615,-0.4543,-0.48421,-0.47489,-0.48983,-0.47842,-0.48652,-0.47439,-0.48597,-0.47127,-0.48174,-0.47551,-0.47809,-0.46391,-0.46791,-0.46442,-0.4611,-0.45029,-0.4499,-0.43966,-0.44137,-0.43575,-0.43362,-0.42461,-0.42024,-0.41525,-0.41057,-0.39536,-0.3898,-0.38215,-0.36861,-0.36607,-0.36294,-0.34978,-0.33612,-0.32405,-0.31421,-0.30104,-0.28863,-0.28463,-0.27071,-0.26287,-0.25862,-0.24812,-0.2423,-0.23745,-0.24007,-0.23246,-0.2288,-0.22264,-0.21946,-0.21619,-0.22266,-0.23145,-0.24331,-0.26282,-0.28214,-0.29404,-0.31704,-0.33891,-0.36196,-0.38661,-0.40502,-0.41999,-0.42749,-0.4359,-0.44739,-0.45582,-0.46766,-0.46996,-0.47398,-0.4778,-0.48287,-0.48707,-0.48486,-0.48543,-0.48795,-0.49056,-0.48757,-0.48242,-0.48504,-0.48458,-0.48184,-0.48243,-0.47413,-0.47275,-0.46536,-0.46556,-0.46144,-0.46147,-0.45311,-0.45446,-0.44666,-0.45429,-0.45258,-0.4565,-0.45453,-0.45965,-0.46383,-0.46245,-0.46545,-0.46707,-0.46791,-0.47177,-0.47419,-0.47836,-0.47677,-0.48145,-0.48347,-0.4828,-0.48642,-0.48451,-0.48677,-0.48677,-0.48662,-0.4803,-0.47381,-0.46187,-0.45238,-0.44335,-0.43321,-0.42878,-0.41454,-0.42336,-0.42559,-0.43134,-0.4371,-0.4308,-0.42573,-0.4348,-0.45053,-0.45914,-0.4815,-0.49772,-0.49932,-0.50163,-0.50098,-0.5012,-0.49912,-0.4984,-0.49988,-0.49407,-0.49408,-0.50118,-0.53247,-0.53134,-0.49065,-0.37746,-0.14816,0.17221,0.47003,0.60289,0.45629,-0.04623,-0.3657,-0.5549,-0.66764,-0.64145,-0.5748,-0.45792,-0.46789,-0.47971,-0.48942,-0.48313,-0.49096,-0.48767,-0.48536,-0.4872,-0.48685,-0.48484,-0.48585,-0.48191,-0.47893,-0.47276,-0.47383,-0.47145,-0.47305,-0.4695,-0.46666,-0.4583,-0.45654,-0.45351,-0.4496,-0.44166,-0.43647,-0.42756,-0.4225,-0.41453,-0.40577,-0.39867,-0.39328,-0.38527,-0.37699,-0.36398,-0.3535,-0.34276,-0.33189,-0.32342,-0.31059,-0.29719,-0.29131,-0.28204,-0.27505,-0.26814,-0.26,-0.25082,-0.2459,-0.24274,-0.23946,-0.23263,-0.23073,-0.23727,-0.23905,-0.25148,-0.26263,-0.28039,-0.30388,-0.32649,-0.34821,-0.37125,-0.39477,-0.41617,-0.43539,-0.44746,-0.46057,-0.47375,-0.48508,-0.49507,-0.49595,-0.49429,-0.50161,-0.50657,-0.50626,-0.50809,-0.50645,-0.5047,-0.50285,-0.50757,-0.50548,-0.50219,-0.5015,-0.50109,-0.50053,-0.50189,-0.50001,-0.49914,-0.50044,-0.50285,-0.49912,-0.49989,-0.4994,-0.50061,-0.5042,-0.50679,-0.50203,-0.5023,-0.5042,-0.5039,-0.50274,-0.5048,-0.50632,-0.5116,-0.5165,-0.51612,-0.51667,-0.51631,-0.51948,-0.52174,-0.52244,-0.52118,-0.52407,-0.52771,-0.5269,-0.53206,-0.53598,-0.53124,-0.53235,-0.52457,-0.51763,-0.50566,-0.49439,-0.48666,-0.47532,-0.48226,-0.47609,-0.46371,-0.4704,-0.47613,-0.48494,-0.4847,-0.47348,-0.47687,-0.48207,-0.4978,-0.51662,-0.53625,-0.54229,-0.55178,-0.54744,-0.54917,-0.54991,-0.54176,-0.54144,-0.53993,-0.53845,-0.54178,-0.56109,-0.58915,-0.57266,-0.49832,-0.33239,-0.047513,0.12415,0.42225,0.56531,0.14334,-0.29605,-0.51974,-0.67758,-0.7139,-0.6774,-0.53554,-0.49265,-0.52553,-0.53138,-0.54422,-0.53585,-0.54363,-0.53993,-0.54935,-0.54113,-0.5429,-0.53253,-0.53808,-0.52979,-0.5379,-0.52288,-0.52359,-0.51609,-0.52078,-0.51228,-0.51341,-0.50571,-0.50114,-0.49556,-0.49721,-0.48307,-0.47895,-0.47109,-0.46642,-0.4548,-0.45184,-0.44714,-0.43572,-0.42139,-0.41449,-0.40282,-0.39416,-0.38207,-0.37191,-0.3655,-0.35875,-0.34802,-0.33407,-0.32837,-0.32347,-0.31893,-0.30907,-0.30225,-0.29661,-0.29088,-0.28817,-0.28825,-0.28411,-0.28618,-0.29053,-0.30771,-0.32198,-0.33661,-0.35601,-0.37899,-0.40609,-0.43208,-0.4522,-0.47738,-0.49293,-0.51016,-0.52216,-0.52979,-0.53835,-0.54525,-0.55503,-0.56064,-0.55989,-0.56389,-0.563,-0.56833,-0.56576,-0.56659,-0.56627,-0.56866,-0.56584,-0.56349,-0.56107,-0.56003,-0.55674,-0.56391,-0.56038,-0.56205,-0.55794,-0.56334,-0.56302,-0.56662,-0.56209,-0.56388,-0.55963,-0.56425,-0.56369,-0.56796,-0.5672,-0.56938,-0.56787,-0.57279,-0.57386,-0.57554,-0.57614,-0.57703,-0.57715,-0.58047,-0.58061,-0.58188,-0.58243,-0.58628,-0.59031,-0.59018,-0.58786,-0.59041,-0.5957,-0.59221,-0.59408,-0.59225,-0.59442,-0.59354,-0.59454,-0.59312,-0.59249,-0.59593,-0.59319,-0.5991,-0.5976,-0.59896,-0.60368,-0.60482,-0.607,-0.60744,-0.60403,-0.60536,-0.60814,-0.61073,-0.61059,-0.6131,-0.61044,-0.60934,-0.60786,-0.60436,-0.59168,-0.57743,-0.57531,-0.56542,-0.56444,-0.55452,-0.54695,-0.55791,-0.56539,-0.57232,-0.5656,-0.55568,-0.56071,-0.56571,-0.57992,-0.60196,-0.61832,-0.62443,-0.62171,-0.62081,-0.62305,-0.61754,-0.61432,-0.61331,-0.61071,-0.61346,-0.62144,-0.65115,-0.66568,-0.62796,-0.53712,-0.3402,-0.032754,0.267,0.46657,0.15037,-0.32394,-0.52695,-0.6991,-0.76267,-0.74346,-0.61928,-0.55808,-0.57529,-0.5911,-0.59656,-0.59713,-0.59749,-0.59988,-0.59998,-0.60425,-0.6016,-0.60086,-0.59553,-0.59031,-0.58724,-0.58706,-0.58487,-0.58596,-0.58388,-0.57783,-0.57394,-0.57076,-0.56833,-0.56689,-0.56149,-0.5602,-0.55638,-0.5519,-0.54345,-0.54064,-0.53066,-0.51825,-0.50794,-0.50148,-0.49407,-0.48477,-0.4769,-0.46518,-0.45082,-0.43893,-0.432,-0.42466,-0.41712,-0.40569,-0.40059,-0.39848,-0.3947,-0.38482,-0.38102,-0.37347,-0.36481,-0.36634,-0.35629,-0.3579,-0.35183,-0.35305,-0.3648,-0.37524,-0.38798,-0.40937,-0.43368,-0.45393,-0.47783,-0.49705,-0.52263,-0.5394,-0.54529,-0.56543,-0.57128,-0.58206,-0.59379,-0.60024,-0.60677,-0.60435,-0.60777,-0.61017,-0.61443,-0.61331,-0.60731,-0.61196,-0.61146,-0.6124,-0.60751,-0.60382,-0.60616,-0.60595,-0.61048,-0.60667,-0.60385,-0.6009,-0.60073,-0.60067,-0.60783,-0.6043,-0.60476,-0.60731,-0.61383,-0.61196,-0.61653,-0.61106,-0.61373,-0.61332,-0.61396,-0.61868,-0.61841,-0.6225,-0.62642,-0.62424,-0.62844,-0.62744,-0.62914,-0.62982,-0.62815,-0.63272,-0.62821,-0.63151,-0.63676,-0.63686,-0.63951,-0.63629,-0.63759,-0.63873,-0.63327,-0.63725,-0.63668,-0.63852,-0.642,-0.63713,-0.64075,-0.63865,-0.64302,-0.63599,-0.64084,-0.64047,-0.64182,-0.63548,-0.64025,-0.64371,-0.64801,-0.64422,-0.6429,-0.64067,-0.64189,-0.64381,-0.64147,-0.64381,-0.64488,-0.6477,-0.64478,-0.64539,-0.64119,-0.64075,-0.63601,-0.63141,-0.62097,-0.61188,-0.60189,-0.59371,-0.58691,-0.58992,-0.5758,-0.57981,-0.58786,-0.59366,-0.58526,-0.58127,-0.58498,-0.58721,-0.5941,-0.61263,-0.63913,-0.64241,-0.6444,-0.6476,-0.64354,-0.6392,-0.63402,-0.6331,-0.62861,-0.62898,-0.64423,-0.67399,-0.67804,-0.62865,-0.51252,-0.28945,-0.1306,0.15146,0.39883,0.21639,-0.24558,-0.48603,-0.63322,-0.76591,-0.75821,-0.70522,-0.57154,-0.57589,-0.59289,-0.60908,-0.60448,-0.60239,-0.60305,-0.60622,-0.6029,-0.60577,-0.60155,-0.59698,-0.59427,-0.59429,-0.59125,-0.58788,-0.58625,-0.5911,-0.58243,-0.57644,-0.57223,-0.57242,-0.5654,-0.56105,-0.55702,-0.55454,-0.54511,-0.53926,-0.53505,-0.52364,-0.52145,-0.51291,-0.50386,-0.49575,-0.4861,-0.47986,-0.46313,-0.451,-0.44568,-0.43567,-0.42576,-0.41692,-0.41129,-0.40491,-0.39574,-0.39055,-0.3918,-0.3835,-0.37953,-0.37115,-0.36922,-0.36672,-0.36113,-0.35843,-0.35736,-0.36187,-0.36809,-0.37754,-0.3958,-0.40919,-0.43342,-0.45408,-0.47734,-0.49295,-0.51356,-0.53051,-0.54789,-0.55354,-0.56564,-0.57771,-0.58318,-0.58286,-0.59164,-0.58972,-0.59283,-0.5984,-0.59615,-0.59673,-0.58957,-0.59035,-0.59025,-0.58299,-0.58411,-0.58423,-0.58818,-0.58612,-0.58687,-0.57927,-0.58136,-0.5755,-0.57706,-0.57748,-0.57469,-0.57776,-0.57691,-0.57852,-0.5791,-0.58271,-0.57928,-0.58247,-0.58431,-0.58401,-0.58469,-0.58798,-0.58994,-0.58973,-0.59513,-0.59167,-0.59203,-0.59024,-0.59443,-0.59717,-0.59815,-0.59653,-0.5993,-0.59386,-0.5931,-0.59956,-0.59748,-0.59875,-0.59668,-0.59406,-0.60117,-0.59808,-0.59537,-0.6003,-0.60048,-0.6023,-0.59845,-0.59593,-0.60086,-0.599,-0.5965,-0.5949,-0.59631,-0.59578,-0.59584,-0.59598,-0.59735,-0.59882,-0.59312,-0.59443,-0.59442,-0.59256,-0.58199,-0.58166,-0.57064,-0.5636,-0.5548,-0.54681,-0.54703,-0.54186,-0.5391,-0.53097,-0.53717,-0.54054,-0.54591,-0.53346,-0.53573,-0.54239,-0.55423,-0.57562,-0.59749,-0.59966,-0.59623,-0.59788,-0.59521,-0.59537,-0.59128,-0.59147,-0.58862,-0.58327,-0.58875,-0.61749,-0.63431,-0.59702,-0.49709,-0.30986,-0.025868,0.23347,0.41101,0.12049,-0.31168,-0.47436,-0.61828,-0.7305,-0.72871,-0.65161,-0.54526,-0.54123,-0.55918,-0.56046,-0.5696,-0.56553,-0.56895,-0.56713,-0.56923,-0.56015,-0.56186,-0.55501,-0.55577,-0.55212,-0.55574,-0.5468,-0.54755,-0.53881,-0.54102,-0.53244,-0.52789,-0.52568,-0.52377,-0.51668,-0.51258,-0.50454,-0.49902,-0.49318,-0.48672,-0.47776,-0.46821,-0.46884,-0.45487,-0.44184,-0.42862,-0.42714,-0.42142,-0.4119,-0.39603,-0.38349,-0.38302,-0.36696,-0.36395,-0.3647,-0.364,-0.35449,-0.34683,-0.34625,-0.33777,-0.32829,-0.32252,-0.32727,-0.32053,-0.32354,-0.32157,-0.32827,-0.33948,-0.35066,-0.36782,-0.38538,-0.40377,-0.42618,-0.43958,-0.45578,-0.47479,-0.49605,-0.51391,-0.5293,-0.54475,-0.54955,-0.55089,-0.55452,-0.5621,-0.56643,-0.56327,-0.56117,-0.56141,-0.56081,-0.55646,-0.56019,-0.55461,-0.55153,-0.55386,-0.55397,-0.55155,-0.54415,-0.54227,-0.54447,-0.54511,-0.54788,-0.54511,-0.55055,-0.54657,-0.54769,-0.54868,-0.54788,-0.55097,-0.55021,-0.55394,-0.55493,-0.55523,-0.55836,-0.55823,-0.56297,-0.56686,-0.56421,-0.56418,-0.56844,-0.5656,-0.56815,-0.56744,-0.56633,-0.57088,-0.56961,-0.57485,-0.57188,-0.57099,-0.56702,-0.56716,-0.56971,-0.5714,-0.56796,-0.56948,-0.57239,-0.572,-0.56911,-0.56535,-0.57125,-0.56504,-0.57076,-0.57167,-0.56783,-0.56886,-0.56401,-0.55786,-0.54956,-0.53988,-0.52815,-0.52248,-0.51788,-0.51946,-0.5081,-0.50826,-0.49929,-0.50335,-0.50863,-0.51666,-0.50657,-0.50338,-0.5074,-0.52154,-0.54071,-0.56223,-0.57195,-0.57255,-0.57415,-0.57249,-0.57287,-0.56728,-0.56672,-0.56117,-0.56473,-0.56414,-0.58712,-0.61176,-0.58646,-0.49343,-0.3289,-0.054684,0.20142,0.4019,0.21074,-0.2353,-0.43515,-0.56239,-0.69577,-0.71728,-0.65807,-0.53015,-0.51359,-0.53348,-0.53907,-0.54728,-0.54451,-0.55074,-0.54572,-0.5464,-0.54244,-0.54489,-0.53527,-0.53373,-0.52863,-0.52824,-0.52302,-0.52253,-0.51483,-0.5167,-0.50631,-0.50224,-0.49624,-0.49793,-0.49135,-0.49049,-0.48286,-0.47782,-0.46799,-0.46621,-0.45911,-0.44572,-0.43546,-0.43066,-0.42048,-0.41392,-0.40404,-0.39027,-0.37749,-0.37487,-0.36123,-0.354,-0.34787,-0.3413,-0.33529,-0.33274,-0.32627,-0.32105,-0.31915,-0.31173,-0.31027,-0.306,-0.2975,-0.29219,-0.29097,-0.29354,-0.29682,-0.30199,-0.31524,-0.33208,-0.35166,-0.37734,-0.3971,-0.41556,-0.43815,-0.44936,-0.46753,-0.48012,-0.49637,-0.50996,-0.52245,-0.52582,-0.52822,-0.53125,-0.53195,-0.53926,-0.53703,-0.53427,-0.53008,-0.53412,-0.53229,-0.53102,-0.53093,-0.52268,-0.52479,-0.52468,-0.52359,-0.52193,-0.52173,-0.51736,-0.51647,-0.51999,-0.52117,-0.51653,-0.51307,-0.51702,-0.52087,-0.523,-0.5198,-0.5228,-0.52733,-0.52937,-0.53024,-0.53463,-0.53628,-0.53454,-0.53726,-0.53948,-0.54387,-0.5421,-0.54386,-0.54705,-0.54796,-0.55034,-0.54832,-0.5484,-0.55107,-0.54884,-0.55382,-0.54858,-0.54956,-0.55683,-0.55654,-0.55419,-0.55329,-0.55279,-0.54781,-0.54578,-0.54052,-0.52179,-0.51145,-0.50781,-0.50334,-0.49843,-0.50106,-0.49127,-0.47806,-0.48311,-0.4871,-0.49733,-0.48701,-0.48802,-0.50135,-0.5151,-0.53345,-0.54058,-0.55434,-0.55505,-0.56325,-0.55955,-0.55616,-0.5549,-0.55399,-0.5508,-0.55191,-0.556,-0.57766,-0.59917,-0.56231,-0.47177,-0.302,-0.030973,0.21882,0.40473,0.16502,-0.088472,-0.38065,-0.51376,-0.63361,-0.73393,-0.67982,-0.58538,-0.50027,-0.52697,-0.52297,-0.54519,-0.5264,-0.54421,-0.52655,-0.54574,-0.53313,-0.54311,-0.52889,-0.53425,-0.51686,-0.52722,-0.51257,-0.51614,-0.50323,-0.51712,-0.50719,-0.50875,-0.49697,-0.507,-0.48447,-0.48893,-0.47812,-0.47943,-0.47055,-0.46586,-0.4526,-0.44486,-0.43278,-0.42861,-0.41422,-0.40894,-0.40518,-0.39587,-0.38556,-0.37395,-0.3621,-0.35919,-0.34411,-0.33957,-0.33196,-0.32542,-0.32651,-0.32161,-0.31484,-0.30907,-0.30772,-0.29997,-0.29851,-0.29479,-0.29926,-0.29758,-0.30825,-0.31052,-0.3308,-0.34371,-0.36204,-0.38588,-0.40597,-0.4229,-0.45098,-0.46502,-0.48412,-0.49642,-0.51281,-0.52315,-0.5397,-0.53967,-0.55098,-0.55066,-0.55192,-0.55159,-0.55617,-0.55193,-0.5427,-0.54345,-0.55112,-0.54093,-0.53856,-0.53323,-0.53287,-0.52888,-0.52961,-0.52447,-0.5184,-0.51641,-0.52694,-0.51819,-0.52964,-0.52061,-0.52003,-0.52079,-0.51879,-0.52061,-0.52672,-0.513,-0.51568,-0.51992,-0.53284,-0.51834,-0.52849,-0.51855,-0.53286,-0.54364,-0.543,-0.54555,-0.54547,-0.55334,-0.55045,-0.5534,-0.56139,-0.56522,-0.56511,-0.56904,-0.57187,-0.56909,-0.56395,-0.55899,-0.54442,-0.53162,-0.51618,-0.51501,-0.51619,-0.51939,-0.50948,-0.51222,-0.51633,-0.5219,-0.51269,-0.51391,-0.51219,-0.52384,-0.53846,-0.56681,-0.5821,-0.58395,-0.58039,-0.58136,-0.58551,-0.58283,-0.57947,-0.57606,-0.5746,-0.5745,-0.58429,-0.60513,-0.59188,-0.53148,-0.40241,-0.17296,0.10036,0.31846,0.36126,0.10642,-0.30624,-0.48354,-0.57871,-0.70548,-0.74168,-0.69196,-0.54842,-0.5137,-0.53532,-0.54045,-0.54791,-0.54573,-0.54535,-0.53969,-0.54191,-0.5438,-0.543,-0.53845,-0.53541,-0.52936,-0.529,-0.52054,-0.52316,-0.51673,-0.50738,-0.5036,-0.49775,-0.48771,-0.48398,-0.48038,-0.47019,-0.4593,-0.45632,-0.4481,-0.43854,-0.43488,-0.42634,-0.42197,-0.41532,-0.40351,-0.39617,-0.39418,-0.38419,-0.37159,-0.36392,-0.35497,-0.34423,-0.34011,-0.33244,-0.32716,-0.32019,-0.31618,-0.31196,-0.3048,-0.3019,-0.30052,-0.29489,-0.2902,-0.28709,-0.28757,-0.2952,-0.30082,-0.30658,-0.31971,-0.33119,-0.35423,-0.37488,-0.39708,-0.41462,-0.4332,-0.44906,-0.47129,-0.48078,-0.49109,-0.50269,-0.50711,-0.51663,-0.51786,-0.51661,-0.51944,-0.52221,-0.5174,-0.51543,-0.51988,-0.51278,-0.51541,-0.51034,-0.50894,-0.50683,-0.50876,-0.50255,-0.50152,-0.50228,-0.49878,-0.49001,-0.49,-0.48158,-0.4915,-0.49052,-0.49372,-0.4942,-0.49537,-0.49917,-0.50386,-0.50749,-0.50663,-0.50484,-0.51132,-0.51378,-0.51462,-0.51423,-0.51539,-0.51432,-0.51502,-0.50545,-0.49614,-0.49391,-0.48903,-0.4864,-0.47514,-0.47895,-0.48567,-0.49199,-0.50103,-0.49111,-0.48153,-0.47768,-0.48647,-0.51051,-0.52204,-0.52909,-0.52953,-0.52996,-0.5337,-0.53353,-0.52237,-0.52384,-0.52061,-0.52078,-0.51932,-0.52288,-0.53671,-0.51967,-0.44165,-0.30528,-0.066748,0.20809,0.40822,0.32085,-0.082021,-0.39268,-0.46191,-0.5577,-0.69365,-0.70987,-0.64584,-0.49109,-0.46803,-0.48875,-0.49742,-0.50943,-0.50426,-0.50584,-0.49848,-0.50519,-0.49677,-0.50346,-0.48962,-0.49672,-0.49543,-0.49295,-0.48445,-0.48346,-0.47648,-0.47465,-0.47048,-0.46847,-0.45548,-0.46058,-0.45369,-0.44974,-0.43934,-0.42978,-0.41943,-0.41476,-0.40351,-0.39813,-0.3837,-0.37203,-0.36429,-0.35483,-0.33787,-0.33513,-0.31828,-0.30712,-0.29785,-0.30093,-0.29019,-0.28666,-0.27886,-0.27875,-0.27142,-0.26332,-0.25893,-0.25583,-0.25672,-0.25476,-0.24852,-0.2513,-0.25648,-0.26812,-0.28025,-0.29487,-0.31321,-0.33062,-0.35339,-0.37687,-0.40653,-0.41588,-0.43307,-0.45012,-0.46861,-0.48152,-0.4956,-0.50433,-0.50873,-0.51751,-0.52306,-0.52071,-0.51768,-0.51816,-0.52218,-0.51982,-0.51538,-0.51139,-0.50917,-0.5021,-0.50528,-0.49978,-0.5006,-0.49668,-0.49749,-0.49989,-0.49779,-0.49383,-0.4998,-0.49601,-0.50093,-0.49601,-0.4878,-0.49176,-0.49581,-0.50066,-0.5065,-0.50398,-0.50844,-0.51571,-0.51831,-0.51537,-0.51136,-0.5099,-0.50994,-0.5053,-0.49831,-0.49314,-0.48575,-0.47086,-0.47726,-0.48191,-0.4927,-0.49407,-0.49429,-0.48338,-0.47955,-0.48752,-0.49256,-0.51902,-0.53163,-0.53455,-0.54164,-0.53986,-0.53704,-0.53624,-0.53766,-0.53181,-0.52928,-0.52397,-0.53141,-0.53572,-0.53785,-0.51189,-0.4327,-0.29126,-0.045434,0.22878,0.41824,0.33608,-0.057487,-0.24784,-0.42519,-0.50238,-0.595,-0.74392,-0.70356,-0.63164,-0.48924,-0.49359,-0.50795,-0.51163,-0.51385,-0.51473,-0.50849,-0.51181,-0.51011,-0.50887,-0.50602,-0.50359,-0.49464,-0.49196,-0.4937,-0.4958,-0.48537,-0.48669,-0.47608,-0.47357,-0.47239,-0.46924,-0.45925,-0.4542,-0.44496,-0.43863,-0.43404,-0.42089,-0.42126,-0.4111,-0.40196,-0.38653,-0.38332,-0.37629,-0.37339,-0.36451,-0.35758,-0.34765,-0.34141,-0.33204,-0.32468,-0.31966,-0.31076,-0.30772,-0.30753,-0.30115,-0.29337,-0.28561,-0.28431,-0.28218,-0.28297,-0.28214,-0.27667,-0.2833,-0.28653,-0.29708,-0.31433,-0.32775,-0.33793,-0.36395,-0.39121,-0.41688,-0.4364,-0.44838,-0.46541,-0.4801,-0.48752,-0.50182,-0.50961,-0.51154,-0.51145,-0.51011,-0.5186,-0.5153,-0.51831,-0.51951,-0.51972,-0.50881,-0.5029,-0.50928,-0.51295,-0.51389,-0.50768,-0.50106,-0.5003,-0.49994,-0.49362,-0.49058,-0.48576,-0.48881,-0.48861,-0.49068,-0.49424,-0.49032,-0.48873,-0.49117,-0.49396,-0.49298,-0.49401,-0.48748,-0.48412,-0.4774,-0.47605,-0.46862,-0.46291,-0.45746,-0.46632,-0.48148,-0.48019,-0.46802,-0.45818,-0.46051,-0.47091,-0.4753,-0.4933,-0.5053,-0.51686,-0.52324,-0.52756,-0.5199,-0.5192,-0.52344,-0.52057,-0.52101,-0.5203,-0.5205,-0.52463,-0.53311,-0.50533,-0.42757,-0.27108,-0.027367,0.23183,0.32605,0.42391,0.17702,-0.21967,-0.38495,-0.44222,-0.55868,-0.73263,-0.72755,-0.65949,-0.50916,-0.48626,-0.50256,-0.50483,-0.50375,-0.50153,-0.50697,-0.5022,-0.50376,-0.49527,-0.49679,-0.49143,-0.49009,-0.48614,-0.48628,-0.4811,-0.48469,-0.47266,-0.47105,-0.46779,-0.46611,-0.46445,-0.45544,-0.4467,-0.43743,-0.4337,-0.43627,-0.42184,-0.40907,-0.40559,-0.40352,-0.39307,-0.38133,-0.36875,-0.36355,-0.3632,-0.34697,-0.3391,-0.32579,-0.31188,-0.30881,-0.30725,-0.30797,-0.3,-0.29317,-0.29104,-0.28977,-0.28345,-0.27776,-0.28268,-0.28085,-0.27938,-0.28312,-0.28869,-0.30039,-0.30984,-0.33027,-0.3471,-0.37085,-0.38224,-0.4043,-0.42092,-0.44401,-0.45693,-0.47474,-0.48672,-0.49662,-0.50768,-0.51419,-0.51963,-0.51821,-0.52135,-0.51596,-0.51863,-0.51449,-0.52291,-0.52319,-0.52236,-0.51747,-0.50975,-0.50821,-0.51166,-0.50717,-0.50044,-0.49798,-0.50176,-0.49874,-0.49352,-0.4842,-0.48355,-0.48575,-0.48399,-0.48541,-0.48435,-0.48528,-0.48186,-0.47931,-0.48171,-0.47214,-0.46553,-0.45316,-0.45683,-0.45626,-0.44215,-0.44188,-0.44969,-0.45628,-0.46233,-0.44927,-0.44207,-0.44219,-0.44456,-0.46361,-0.4772,-0.49842,-0.50605,-0.51278,-0.50888,-0.51611,-0.51254,-0.50716,-0.50934,-0.5091,-0.51036,-0.50993,-0.51442,-0.5231,-0.49979,-0.41768,-0.27127,-0.15728,0.11032,0.36904,0.47712,0.20422,-0.22817,-0.40258,-0.5042,-0.63157,-0.7168,-0.65763,-0.54144,-0.45488,-0.47601,-0.48476,-0.49735,-0.48399,-0.48554,-0.47637,-0.47977,-0.47472,-0.47886,-0.46629,-0.46886,-0.46475,-0.46691,-0.46021,-0.4596,-0.44979,-0.44593,-0.44577,-0.4401,-0.43087,-0.42852,-0.42777,-0.42162,-0.40822,-0.39988,-0.39111,-0.38262,-0.37497,-0.37188,-0.36072,-0.34765,-0.33544,-0.32521,-0.31994,-0.3041,-0.29137,-0.28095,-0.27112,-0.26112,-0.24784,-0.24198,-0.23565,-0.2247,-0.21859,-0.20894,-0.20263,-0.19845,-0.19864,-0.19809,-0.2019,-0.19778,-0.20782,-0.2212,-0.23605,-0.25306,-0.27588,-0.30131,-0.32914,-0.34813,-0.36605,-0.38333,-0.39901,-0.41611,-0.43016,-0.43446,-0.44465,-0.4479,-0.45721,-0.46243,-0.46134,-0.46077,-0.46705,-0.46927,-0.46336,-0.46097,-0.46746,-0.46534,-0.466,-0.45866,-0.45909,-0.4539,-0.45673,-0.45325,-0.45304,-0.4469,-0.44777,-0.44199,-0.44439,-0.4521,-0.45104,-0.44898,-0.44566,-0.44193,-0.44783,-0.44358,-0.44204,-0.44323,-0.44178,-0.44608,-0.44731,-0.44649,-0.44247,-0.43491,-0.42529,-0.41807,-0.41135,-0.40682,-0.40476,-0.39663,-0.40153,-0.4127,-0.41492,-0.41318,-0.40183,-0.39472,-0.40112,-0.4122,-0.42858,-0.45028,-0.46513,-0.46417,-0.47064,-0.46427,-0.46346,-0.457,-0.45602,-0.44803,-0.44661,-0.44729,-0.44862,-0.46599,-0.49298,-0.47153,-0.39466,-0.22819,0.047727,0.39515,0.64835,0.46792,-0.017126,-0.33033,-0.47165,-0.625,-0.65272,-0.60964,-0.44633,-0.40646,-0.423,-0.43106,-0.44869,-0.43896,-0.45461,-0.44368,-0.4495,-0.44062,-0.44547,-0.43673,-0.43463,-0.42625,-0.42839,-0.42656,-0.42987,-0.41556,-0.41729,-0.40876,-0.4087,-0.40184,-0.40222,-0.38877,-0.39247,-0.38527,-0.38429,-0.37774,-0.36532,-0.35192,-0.34639,-0.33377,-0.31677,-0.30939,-0.2962,-0.28391,-0.26595,-0.25799,-0.24392,-0.22962,-0.22277,-0.2137,-0.21077,-0.19766,-0.19146,-0.18758,-0.17686,-0.17638,-0.17413,-0.16928,-0.16055,-0.1698,-0.16408,-0.17012,-0.17866,-0.19429,-0.21029,-0.23586,-0.26459,-0.28917,-0.31887,-0.33962,-0.34947,-0.37243,-0.38652,-0.41149,-0.42259,-0.43417,-0.44356,-0.44888
