-20.464,-20.466,-20.469,-20.47,-20.463,-20.47,-20.475,-20.489,-20.486,-20.476,-20.47,-20.477,-20.48,-20.487,-20.48,-20.46,-20.461,-20.454,-20.453,-20.451,-20.43,-20.422,-20.424,-20.422,-20.384,-20.348,-20.359,-20.382,-20.4,-20.419,-20.403,-20.419,-20.428,-20.438,-20.459,-20.467,-20.482,-20.491,-20.499,-20.503,-20.49,-20.497,-20.503,-20.512,-20.509,-20.501,-20.502,-20.505,-20.514,-20.514,-20.498,-20.504,-20.512,-20.517,-20.511,-20.511,-20.526,-20.581,-20.622,-20.53,-20.342,-20.082,-19.799,-19.458,-19.23,-19.222,-19.563,-19.996,-20.411,-20.613,-20.582,-20.526,-20.486,-20.468,-20.433,-20.441,-20.428,-20.442,-20.441,-20.451,-20.439,-20.433,-20.431,-20.446,-20.444,-20.439,-20.422,-20.43,-20.433,-20.437,-20.427,-20.411,-20.403,-20.409,-20.415,-20.411,-20.402,-20.401,-20.399,-20.408,-20.391,-20.38,-20.37,-20.367,-20.37,-20.36,-20.34,-20.336,-20.332,-20.33,-20.315,-20.304,-20.288,-20.278,-20.277,-20.262,-20.243,-20.216,-20.204,-20.202,-20.189,-20.156,-20.136,-20.115,-20.115,-20.098,-20.082,-20.064,-20.052,-20.047,-20.044,-20.042,-20.02,-20.008,-20.013,-20.022,-20.027,-20.033,-20.062,-20.094,-20.136,-20.16,-20.186,-20.224,-20.273,-20.311,-20.339,-20.354,-20.381,-20.404,-20.428,-20.436,-20.444,-20.446,-20.457,-20.47,-20.471,-20.462,-20.464,-20.468,-20.482,-20.481,-20.465,-20.463,-20.466,-20.468,-20.465,-20.458,-20.461,-20.467,-20.477,-20.469,-20.461,-20.447,-20.455,-20.459,-20.459,-20.456,-20.45,-20.453,-20.46,-20.461,-20.451,-20.444,-20.449,-20.456,-20.464,-20.459,-20.453,-20.458,-20.474,-20.475,-20.474,-20.461,-20.469,-20.473,-20.477,-20.481,-20.47,-20.472,-20.479,-20.48,-20.481,-20.472,-20.476,-20.487,-20.5,-20.494,-20.478,-20.487,-20.497,-20.507,-20.497,-20.49,-20.484,-20.489,-20.501,-20.498,-20.491,-20.486,-20.491,-20.505,-20.504,-20.496,-20.484,-20.494,-20.504,-20.503,-20.492,-20.493,-20.495,-20.502,-20.506,-20.504,-20.492,-20.497,-20.506,-20.506,-20.506,-20.49,-20.497,-20.512,-20.504,-20.5,-20.49,-20.501,-20.508,-20.507,-20.502,-20.495,-20.498,-20.503,-20.506,-20.507,-20.499,-20.5,-20.507,-20.511,-20.507,-20.496,-20.496,-20.503,-20.515,-20.509,-20.489,-20.486,-20.472,-20.474,-20.47,-20.456,-20.444,-20.444,-20.456,-20.428,-20.385,-20.373,-20.39,-20.428,-20.44,-20.444,-20.438,-20.45,-20.471,-20.487,-20.498,-20.515,-20.521,-20.539,-20.531,-20.525,-20.521,-20.521,-20.53,-20.531,-20.531,-20.526,-20.528,-20.538,-20.543,-20.531,-20.525,-20.524,-20.537,-20.538,-20.554,-20.601,-20.63,-20.554,-20.385,-20.154,-20.02,-19.768,-19.371,-19.219,-19.359,-19.773,-20.182,-20.515,-20.63,-20.583,-20.514,-20.462,-20.451,-20.468,-20.475,-20.464,-20.471,-20.472,-20.49,-20.481,-20.476,-20.458,-20.464,-20.472,-20.472,-20.453,-20.449,-20.44,-20.455,-20.449,-20.437,-20.427,-20.427,-20.429,-20.429,-20.414,-20.408,-20.402,-20.408,-20.405,-20.396,-20.38,-20.373,-20.372,-20.368,-20.359,-20.334,-20.331,-20.327,-20.32,-20.305,-20.28,-20.276,-20.27,-20.253,-20.233,-20.209,-20.198,-20.189,-20.174,-20.173,-20.137,-20.114,-20.103,-20.096,-20.079,-20.054,-20.046,-20.033,-20.032,-20.023,-20.004,-20.005,-20.013,-20.027,-20.044,-20.051,-20.089,-20.121,-20.166,-20.182,-20.219,-20.249,-20.286,-20.329,-20.358,-20.378,-20.386,-20.411,-20.44,-20.445,-20.448,-20.448,-20.462,-20.472,-20.476,-20.476,-20.46,-20.461,-20.472,-20.471,-20.473,-20.456,-20.461,-20.47,-20.471,-20.465,-20.449,-20.453,-20.456,-20.462,-20.455,-20.444,-20.444,-20.45,-20.449,-20.451,-20.443,-20.44,-20.455,-20.459,-20.448,-20.443,-20.438,-20.451,-20.464,-20.455,-20.445,-20.441,-20.455,-20.467,-20.46,-20.452,-20.453,-20.463,-20.472,-20.469,-20.463,-20.462,-20.466,-20.48,-20.474,-20.476,-20.467,-20.469,-20.482,-20.483,-20.474,-20.469,-20.477,-20.484,-20.485,-20.48,-20.481,-20.477,-20.484,-20.49,-20.481,-20.474,-20.471,-20.476,-20.486,-20.479,-20.475,-20.472,-20.47,-20.481,-20.48,-20.47,-20.469,-20.477,-20.486,-20.477,-20.473,-20.472,-20.482,-20.482,-20.477,-20.47,-20.471,-20.474,-20.485,-20.487,-20.473,-20.475,-20.475,-20.489,-20.484,-20.471,-20.472,-20.482,-20.497,-20.484,-20.476,-20.479,-20.476,-20.486,-20.486,-20.476,-20.473,-20.473,-20.484,-20.485,-20.479,-20.475,-20.476,-20.482,-20.486,-20.48,-20.466,-20.468,-20.47,-20.46,-20.446,-20.439,-20.435,-20.436,-20.434,-20.407,-20.379,-20.361,-20.352,-20.388,-20.408,-20.408,-20.416,-20.424,-20.437,-20.444,-20.454,-20.483,-20.499,-20.509,-20.5,-20.499,-20.495,-20.5,-20.51,-20.51,-20.5,-20.5,-20.506,-20.508,-20.509,-20.5,-20.495,-20.507,-20.514,-20.516,-20.499,-20.51,-20.555,-20.611,-20.556,-20.398,-20.172,-19.933,-19.67,-19.278,-19.179,-19.229,-19.611,-20.065,-20.413,-20.594,-20.548,-20.492,-20.433,-20.426,-20.414,-20.431,-20.431,-20.451,-20.438,-20.444,-20.42,-20.432,-20.426,-20.431,-20.427,-20.421,-20.406,-20.417,-20.412,-20.413,-20.391,-20.394,-20.392,-20.397,-20.386,-20.372,-20.361,-20.367,-20.367,-20.363,-20.341,-20.341,-20.339,-20.337,-20.331,-20.322,-20.304,-20.298,-20.295,-20.29,-20.266,-20.247,-20.237,-20.237,-20.227,-20.205,-20.185,-20.168,-20.168,-20.143,-20.12,-20.091,-20.083,-20.075,-20.062,-20.039,-20.016,-20,-19.997,-19.983,-19.971,-19.949,-19.939,-19.942,-19.951,-19.952,-19.966,-19.987,-20.021,-20.051,-20.081,-20.104,-20.15,-20.171,-20.222,-20.251,-20.272,-20.294,-20.324,-20.354,-20.368,-20.37,-20.38,-20.391,-20.407,-20.405,-20.4,-20.401,-20.405,-20.415,-20.413,-20.398,-20.401,-20.399,-20.412,-20.41,-20.4,-20.389,-20.394,-20.402,-20.401,-20.387,-20.383,-20.386,-20.394,-20.396,-20.386,-20.382,-20.383,-20.398,-20.394,-20.384,-20.382,-20.379,-20.387,-20.389,-20.385,-20.382,-20.388,-20.4,-20.412,-20.407,-20.394,-20.394,-20.403,-20.413,-20.413,-20.398,-20.407,-20.41,-20.424,-20.416,-20.41,-20.416,-20.421,-20.427,-20.429,-20.412,-20.415,-20.419,-20.428,-20.431,-20.421,-20.417,-20.421,-20.432,-20.426,-20.419,-20.416,-20.417,-20.43,-20.431,-20.421,-20.42,-20.427,-20.433,-20.431,-20.423,-20.414,-20.425,-20.428,-20.437,-20.431,-20.424,-20.423,-20.436,-20.433,-20.432,-20.424,-20.427,-20.437,-20.438,-20.427,-20.418,-20.425,-20.433,-20.44,-20.437,-20.418,-20.428,-20.435,-20.435,-20.426,-20.401,-20.39,-20.401,-20.405,-20.394,-20.372,-20.369,-20.345,-20.32,-20.307,-20.312,-20.336,-20.358,-20.379,-20.383,-20.38,-20.385,-20.403,-20.439,-20.463,-20.456,-20.449,-20.457,-20.465,-20.467,-20.462,-20.458,-20.466,-20.477,-20.472,-20.469,-20.449,-20.45,-20.463,-20.471,-20.469,-20.456,-20.452,-20.463,-20.466,-20.505,-20.545,-20.528,-20.409,-20.196,-19.921,-19.614,-19.256,-19.158,-19.18,-19.505,-19.936,-20.342,-20.582,-20.556,-20.511,-20.43,-20.386,-20.365,-20.395,-20.388,-20.393,-20.386,-20.4,-20.399,-20.394,-20.375,-20.382,-20.381,-20.396,-20.383,-20.376,-20.359,-20.364,-20.369,-20.371,-20.352,-20.343,-20.336,-20.349,-20.347,-20.336,-20.328,-20.326,-20.327,-20.32,-20.305,-20.302,-20.293,-20.292,-20.288,-20.277,-20.276,-20.263,-20.251,-20.243,-20.227,-20.203,-20.196,-20.191,-20.181,-20.157,-20.13,-20.117,-20.108,-20.098,-20.069,-20.045,-20.033,-20.022,-20.018,-20.006,-19.982,-19.967,-19.955,-19.957,-19.946,-19.924,-19.931,-19.94,-19.968,-19.984,-20,-20.029,-20.062,-20.11,-20.149,-20.177,-20.212,-20.231,-20.273,-20.297,-20.317,-20.33,-20.346,-20.367,-20.375,-20.37,-20.373,-20.381,-20.394,-20.391,-20.386,-20.389,-20.388,-20.397,-20.397,-20.383,-20.374,-20.375,-20.382,-20.387,-20.382,-20.37,-20.369,-20.381,-20.38,-20.374,-20.362,-20.374,-20.379,-20.381,-20.379,-20.364,-20.367,-20.378,-20.384,-20.389,-20.376,-20.374,-20.376,-20.381,-20.385,-20.385,-20.387,-20.391,-20.397,-20.398,-20.388,-20.388,-20.394,-20.403,-20.405,-20.392,-20.391,-20.397,-20.412,-20.407,-20.4,-20.398,-20.406,-20.414,-20.413,-20.405,-20.402,-20.405,-20.414,-20.418,-20.417,-20.41,-20.415,-20.419,-20.414,-20.408,-20.406,-20.413,-20.426,-20.417,-20.409,-20.382,-20.379,-20.384,-20.378,-20.368,-20.359,-20.339,-20.313,-20.298,-20.309,-20.323,-20.338,-20.363,-20.365,-20.375,-20.374,-20.395,-20.424,-20.446,-20.446,-20.444,-20.437,-20.443,-20.464,-20.461,-20.451,-20.447,-20.451,-20.467,-20.463,-20.457,-20.454,-20.457,-20.466,-20.462,-20.45,-20.457,-20.462,-20.473,-20.474,-20.502,-20.553,-20.534,-20.412,-20.194,-19.91,-19.599,-19.231,-19.124,-19.261,-19.677,-20.104,-20.477,-20.569,-20.528,-20.474,-20.403,-20.383,-20.379,-20.404,-20.39,-20.407,-20.389,-20.408,-20.397,-20.401,-20.376,-20.395,-20.381,-20.399,-20.382,-20.382,-20.367,-20.378,-20.375,-20.375,-20.349,-20.353,-20.355,-20.37,-20.354,-20.342,-20.331,-20.335,-20.337,-20.336,-20.314,-20.309,-20.301,-20.305,-20.294,-20.279,-20.261,-20.257,-20.256,-20.251,-20.224,-20.218,-20.202,-20.198,-20.19,-20.169,-20.142,-20.129,-20.116,-20.102,-20.08,-20.059,-20.052,-20.046,-20.039,-20.014,-19.998,-19.982,-19.986,-19.975,-19.972,-19.964,-19.985,-19.995,-20.025,-20.045,-20.063,-20.089,-20.131,-20.171,-20.21,-20.23,-20.264,-20.295,-20.331,-20.354,-20.363,-20.373,-20.396,-20.401,-20.41,-20.402,-20.412,-20.415,-20.426,-20.425,-20.421,-20.411,-20.422,-20.426,-20.427,-20.413,-20.411,-20.412,-20.418,-20.418,-20.408,-20.398,-20.403,-20.41,-20.407,-20.396,-20.394,-20.39,-20.4,-20.403,-20.401,-20.392,-20.398,-20.399,-20.413,-20.409,-20.399,-20.401,-20.413,-20.416,-20.416,-20.405,-20.411,-20.424,-20.424,-20.422,-20.42,-20.416,-20.427,-20.434,-20.437,-20.424,-20.424,-20.429,-20.438,-20.438,-20.425,-20.425,-20.427,-20.441,-20.436,-20.427,-20.43,-20.436,-20.444,-20.445,-20.438,-20.427,-20.435,-20.447,-20.45,-20.443,-20.436,-20.441,-20.452,-20.444,-20.444,-20.442,-20.439,-20.45,-20.446,-20.444,-20.448,-20.45,-20.457,-20.459,-20.455,-20.441,-20.436,-20.442,-20.441,-20.42,-20.397,-20.403,-20.409,-20.406,-20.399,-20.38,-20.352,-20.333,-20.338,-20.359,-20.366,-20.385,-20.397,-20.414,-20.412,-20.414,-20.424,-20.451,-20.483,-20.485,-20.47,-20.471,-20.481,-20.493,-20.486,-20.475,-20.475,-20.486,-20.498,-20.493,-20.473,-20.479,-20.477,-20.492,-20.492,-20.484,-20.482,-20.483,-20.493,-20.53,-20.571,-20.566,-20.456,-20.272,-20.033,-19.764,-19.381,-19.141,-19.209,-19.607,-20.033,-20.388,-20.559,-20.549,-20.519,-20.453,-20.397,-20.391,-20.413,-20.425,-20.43,-20.41,-20.422,-20.418,-20.429,-20.421,-20.41,-20.404,-20.406,-20.409,-20.405,-20.383,-20.388,-20.389,-20.394,-20.389,-20.379,-20.368,-20.372,-20.373,-20.367,-20.354,-20.342,-20.341,-20.348,-20.343,-20.319,-20.313,-20.31,-20.313,-20.305,-20.287,-20.276,-20.272,-20.273,-20.26,-20.245,-20.22,-20.21,-20.204,-20.187,-20.17,-20.141,-20.122,-20.112,-20.101,-20.079,-20.049,-20.04,-20.034,-20.017,-20.002,-19.981,-19.977,-19.975,-19.975,-19.965,-19.959,-19.968,-19.992,-20.021,-20.047,-20.062,-20.099,-20.144,-20.187,-20.219,-20.236,-20.277,-20.316,-20.341,-20.357,-20.367,-20.372,-20.386,-20.409,-20.408,-20.407,-20.407,-20.413,-20.434,-20.423,-20.419,-20.408,-20.414,-20.427,-20.415,-20.4,-20.4,-20.406,-20.415,-20.407,-20.398,-20.391,-20.392,-20.4,-20.407,-20.396,-20.385,-20.383,-20.395,-20.397,-20.389,-20.386,-20.387,-20.393,-20.397,-20.395,-20.381,-20.384,-20.399,-20.399,-20.398,-20.393,-20.392,-20.398,-20.406,-20.408,-20.395,-20.404,-20.409,-20.42,-20.414,-20.407,-20.411,-20.415,-20.418,-20.418,-20.412,-20.413,-20.418,-20.429,-20.422,-20.418,-20.414,-20.414,-20.433,-20.433,-20.418,-20.415,-20.421,-20.434,-20.433,-20.426,-20.422,-20.418,-20.432,-20.432,-20.424,-20.419,-20.423,-20.431,-20.427,-20.422,-20.419,-20.425,-20.436,-20.435,-20.426,-20.423,-20.422,-20.431,-20.443,-20.434,-20.425,-20.42,-20.429,-20.436,-20.432,-20.419,-20.423,-20.433,-20.44,-20.437,-20.427,-20.425,-20.431,-20.442,-20.44,-20.425,-20.43,-20.43,-20.438,-20.425,-20.392,-20.395,-20.401,-20.395,-20.391,-20.367,-20.343,-20.314,-20.318,-20.323,-20.346,-20.357,-20.367,-20.378,-20.386,-20.385,-20.385,-20.411,-20.437,-20.448,-20.435,-20.439,-20.442,-20.45,-20.449,-20.446,-20.438,-20.444,-20.456,-20.454,-20.452,-20.444,-20.443,-20.455,-20.456,-20.458,-20.449,-20.456,-20.457,-20.465,-20.474,-20.497,-20.55,-20.54,-20.413,-20.202,-19.942,-19.683,-19.497,-19.167,-19.133,-19.469,-19.901,-20.299,-20.524,-20.548,-20.459,-20.406,-20.366,-20.386,-20.392,-20.397,-20.393,-20.407,-20.407,-20.409,-20.392,-20.391,-20.387,-20.403,-20.396,-20.391,-20.376,-20.376,-20.379,-20.376,-20.368,-20.356,-20.35,-20.36,-20.35,-20.344,-20.331,-20.328,-20.336,-20.329,-20.313,-20.305,-20.302,-20.302,-20.299,-20.287,-20.269,-20.262,-20.263,-20.257,-20.241,-20.222,-20.207,-20.201,-20.191,-20.168,-20.146,-20.13,-20.123,-20.113,-20.086,-20.061,-20.055,-20.038,-20.032,-20.017,-19.991,-19.979,-19.964,-19.961,-19.948,-19.928,-19.927,-19.928,-19.949,-19.965,-19.971,-19.992,-20.026,-20.074,-20.107,-20.136,-20.153,-20.188,-20.233,-20.261,-20.284,-20.293,-20.318,-20.34,-20.356,-20.355,-20.356,-20.361,-20.378,-20.384,-20.381,-20.372,-20.38,-20.386,-20.386,-20.377,-20.374,-20.367,-20.372,-20.377,-20.374,-20.356,-20.363,-20.364,-20.369,-20.363,-20.353,-20.355,-20.357,-20.361,-20.366,-20.355,-20.36,-20.363,-20.371,-20.363,-20.36,-20.359,-20.366,-20.377,-20.376,-20.367,-20.369,-20.372,-20.389,-20.398,-20.388,-20.389,-20.392,-20.403,-20.402,-20.399,-20.395,-20.404,-20.413,-20.416,-20.413,-20.401,-20.404,-20.412,-20.421,-20.415,-20.405,-20.421,-20.425,-20.428,-20.421,-20.415,-20.415,-20.422,-20.43,-20.422,-20.413,-20.425,-20.433,-20.433,-20.428,-20.417,-20.419,-20.424,-20.434,-20.432,-20.417,-20.42,-20.423,-20.428,-20.427,-20.418,-20.419,-20.43,-20.431,-20.424,-20.419,-20.423,-20.429,-20.436,-20.439,-20.43,-20.418,-20.421,-20.415,-20.404,-20.393,-20.391,-20.392,-20.401,-20.378,-20.338,-20.308,-20.319,-20.36,-20.382,-20.388,-20.398,-20.405,-20.41,-20.422,-20.441,-20.462,-20.477,-20.486,-20.484,-20.482,-20.474,-20.485,-20.501,-20.5,-20.502,-20.496,-20.498,-20.516,-20.521,-20.521,-20.516,-20.524,-20.531,-20.533,-20.543,-20.537,-20.541,-20.537,-20.568,-20.606,-20.646,-20.619,-20.494,-20.282,-20.018,-19.711,-19.35,-19.241,-19.4,-19.821,-20.236,-20.591,-20.662,-20.657,-20.622,-20.54,-20.503,-20.476,-20.517,-20.52,-20.521,-20.508,-20.519,-20.524,-20.533,-20.504,-20.51,-20.482,-20.492,-20.473,-20.464,-20.45,-20.454,-20.447,-20.45,-20.429,-20.422,-20.411,-20.418,-20.411,-20.412,-20.387,-20.385,-20.382,-20.385,-20.358,-20.343,-20.337,-20.339,-20.342,-20.325,-20.308,-20.31,-20.299,-20.302,-20.29,-20.262,-20.253,-20.246,-20.236,-20.232,-20.205,-20.179,-20.163,-20.149,-20.137,-20.116,-20.107,-20.086,-20.089,-20.076,-20.041,-20.029,-20.025,-20.026,-20.03,-20.016,-20.008,-20.021,-20.045,-20.066,-20.09,-20.098,-20.139,-20.18,-20.222,-20.252,-20.284,-20.31,-20.352,-20.372,-20.381,-20.373,-20.393,-20.403,-20.423,-20.423,-20.413,-20.417,-20.429,-20.436,-20.429,-20.418,-20.417,-20.421,-20.44,-20.427,-20.409,-20.4,-20.409,-20.419,-20.416,-20.406,-20.403,-20.409,-20.411,-20.409,-20.4,-20.39,-20.397,-20.402,-20.407,-20.398,-20.395,-20.398,-20.41,-20.398,-20.396,-20.393,-20.402,-20.411,-20.412,-20.413,-20.402,-20.403,-20.416,-20.419,-20.419,-20.408,-20.419,-20.421,-20.427,-20.423,-20.416,-20.427,-20.429,-20.426,-20.429,-20.416,-20.416,-20.415,-20.403,-20.396,-20.381,-20.386,-20.388,-20.394,-20.362,-20.32,-20.3,-20.317,-20.345,-20.351,-20.353,-20.363,-20.374,-20.392,-20.405,-20.428,-20.443,-20.45,-20.458,-20.456,-20.452,-20.454,-20.465,-20.484,-20.489,-20.478,-20.488,-20.485,-20.513,-20.519,-20.503,-20.508,-20.511,-20.514,-20.507,-20.498,-20.484,-20.482,-20.503,-20.557,-20.591,-20.507,-20.332,-20.097,-19.791,-19.432,-19.165,-19.152,-19.502,-19.945,-20.359,-20.609,-20.6,-20.588,-20.537,-20.501,-20.463,-20.478,-20.488,-20.51,-20.511,-20.506,-20.502,-20.506,-20.521,-20.511,-20.498,-20.495,-20.486,-20.497,-20.485,-20.469,-20.469,-20.463,-20.466,-20.459,-20.441,-20.432,-20.428,-20.436,-20.436,-20.424,-20.41,-20.405,-20.406,-20.395,-20.382,-20.376,-20.367,-20.367,-20.365,-20.345,-20.349,-20.338,-20.334,-20.322,-20.287,-20.267,-20.265,-20.254,-20.243,-20.218,-20.194,-20.178,-20.17,-20.164,-20.157,-20.135,-20.126,-20.132,-20.125,-20.115,-20.114,-20.136,-20.143,-20.14,-20.154,-20.163,-20.174,-20.212,-20.256,-20.286,-20.311,-20.337,-20.382,-20.427,-20.454,-20.473,-20.487,-20.516,-20.534,-20.543,-20.545,-20.548,-20.557,-20.566,-20.561,-20.559,-20.547,-20.555,-20.546,-20.543,-20.537,-20.518,-20.512,-20.509,-20.493,-20.479,-20.485,-20.487,-20.487,-20.46,-20.452,-20.445,-20.437,-20.442,-20.427,-20.419,-20.405,-20.399,-20.41,-20.404,-20.401,-20.387,-20.398,-20.402,-20.395,-20.393,-20.388,-20.381,-20.403,-20.402,-20.405,-20.386,-20.393,-20.403,-20.42,-20.416,-20.4,-20.408,-20.406,-20.394,-20.38,-20.38,-20.369,-20.373,-20.383,-20.379,-20.343,-20.304,-20.308,-20.339,-20.353,-20.359,-20.364,-20.371,-20.393,-20.403,-20.41,-20.425,-20.441,-20.454,-20.452,-20.465,-20.455,-20.452,-20.465,-20.465,-20.463,-20.458,-20.455,-20.471,-20.469,-20.453,-20.448,-20.442,-20.458,-20.463,-20.457,-20.445,-20.444,-20.45,-20.485,-20.546,-20.526,-20.415,-20.213,-19.969,-19.656,-19.238,-19.046,-19.157,-19.58,-19.996,-20.381,-20.514,-20.499,-20.49,-20.42,-20.384,-20.351,-20.379,-20.385,-20.397,-20.379,-20.382,-20.378,-20.395,-20.384,-20.378,-20.368,-20.376,-20.377,-20.379,-20.366,-20.367,-20.363,-20.37,-20.368,-20.368,-20.348,-20.352,-20.35,-20.358,-20.343,-20.338,-20.333,-20.337,-20.336,-20.327,-20.305,-20.304,-20.299,-20.29,-20.275,-20.26,-20.249,-20.246,-20.243,-20.225,-20.203,-20.19,-20.182,-20.177,-20.153,-20.131,-20.113,-20.1,-20.092,-20.075,-20.048,-20.035,-20.028,-20.025,-20.024,-20.006,-20.004,-20.002,-20.015,-20.017,-20.028,-20.039,-20.068,-20.104,-20.144,-20.172,-20.203,-20.249,-20.305,-20.35,-20.385,-20.405,-20.439,-20.472,-20.491,-20.492,-20.486,-20.489,-20.5,-20.499,-20.499,-20.482,-20.482,-20.484,-20.484,-20.472,-20.463,-20.458,-20.463,-20.459,-20.453,-20.438,-20.435,-20.439,-20.435,-20.426,-20.421,-20.413,-20.418,-20.426,-20.421,-20.407,-20.4,-20.406,-20.413,-20.411,-20.398,-20.394,-20.403,-20.409,-20.403,-20.394,-20.395,-20.4,-20.41,-20.407,-20.407,-20.398,-20.405,-20.413,-20.412,-20.41,-20.404,-20.408,-20.418,-20.42,-20.419,-20.413,-20.414,-20.424,-20.424,-20.417,-20.415,-20.421,-20.43,-20.427,-20.424,-20.416,-20.415,-20.422,-20.43,-20.429,-20.421,-20.416,-20.404,-20.4,-20.39,-20.37,-20.376,-20.38,-20.364,-20.331,-20.312,-20.322,-20.345,-20.367,-20.373,-20.374,-20.376,-20.381,-20.403,-20.418,-20.428,-20.442,-20.449,-20.462,-20.458,-20.45,-20.451,-20.453,-20.46,-20.466,-20.453,-20.456,-20.458,-20.469,-20.465,-20.46,-20.453,-20.457,-20.466,-20.468,-20.461,-20.452,-20.455,-20.47,-20.516,-20.566,-20.548,-20.439,-20.241,-19.992,-19.693,-19.269,-19.045,-19.177,-19.373,-19.796,-20.206,-20.49,-20.531,-20.467,-20.429,-20.376,-20.386,-20.39,-20.408,-20.408,-20.399,-20.401,-20.409,-20.41,-20.409,-20.394,-20.399,-20.394,-20.402,-20.392,-20.383,-20.374,-20.375,-20.381,-20.382,-20.368,-20.363,-20.362,-20.368,-20.366,-20.358,-20.347,-20.346,-20.346,-20.343,-20.324,-20.319,-20.314,-20.311,-20.304,-20.296,-20.275,-20.265,-20.263,-20.255,-20.24,-20.217,-20.205,-20.198,-20.181,-20.162,-20.141,-20.126,-20.12,-20.099,-20.084,-20.057,-20.054,-20.047,-20.04,-20.026,-20.004,-19.993,-19.987,-19.99,-19.99,-19.988,-20.005,-20.035,-20.064,-20.087,-20.116,-20.152,-20.196,-20.236,-20.267,-20.289,-20.3,-20.332,-20.361,-20.373,-20.386,-20.387,-20.401,-20.418,-20.419,-20.417,-20.413,-20.415,-20.427,-20.425,-20.42,-20.415,-20.42,-20.431,-20.424,-20.412,-20.407,-20.406,-20.414,-20.421,-20.414,-20.405,-20.4,-20.408,-20.418,-20.41,-20.396,-20.396,-20.405,-20.408,-20.406,-20.398,-20.399,-20.41,-20.411,-20.407,-20.405,-20.406,-20.406,-20.42,-20.416,-20.41,-20.41,-20.415,-20.427,-20.426,-20.42,-20.419,-20.424,-20.439,-20.434,-20.424,-20.423,-20.422,-20.441,-20.442,-20.437,-20.429,-20.432,-20.442,-20.446,-20.439,-20.43,-20.435,-20.446,-20.447,-20.439,-20.431,-20.438,-20.454,-20.453,-20.444,-20.442,-20.44,-20.451,-20.458,-20.452,-20.445,-20.448,-20.454,-20.462,-20.46,-20.447,-20.453,-20.454,-20.467,-20.463,-20.447,-20.451,-20.459,-20.466,-20.46,-20.444,-20.45,-20.457,-20.466,-20.462,-20.452,-20.449,-20.454,-20.465,-20.465,-20.452,-20.453,-20.457,-20.465,-20.464,-20.452,-20.456,-20.456,-20.464,-20.462,-20.449,-20.449,-20.454,-20.458,-20.46,-20.454,-20.446,-20.453,-20.459,-20.462,-20.457,-20.452,-20.453,-20.464,-20.465,-20.459,-20.449,-20.455,-20.46,-20.464,-20.46,-20.451,-20.457,-20.46,-20.467,-20.465,-20.449,-20.453,-20.461,-20.476,-20.48,-20.466,-20.462,-20.467,-20.471,-20.469,-20.457,-20.464,-20.469,-20.467,-20.467,-20.453,-20.457,-20.463,-20.469,-20.465,-20.46,-20.455,-20.458,-20.466,-20.463,-20.46,-20.452,-20.456,-20.468,-20.463,-20.454,-20.445,-20.456,-20.463,-20.461,-20.458,-20.456,-20.456,-20.464,-20.465,-20.46,-20.445,-20.444,-20.45,-20.453,-20.454,-20.442,-20.437,-20.436,-20.431,-20.408,-20.383,-20.357,-20.378,-20.396,-20.406,-20.404,-20.401,-20.413,-20.427,-20.42,-20.419,-20.435,-20.448,-20.475,-20.473,-20.469,-20.465,-20.466,-20.475,-20.475,-20.468,-20.474,-20.478,-20.482,-20.476,-20.469,-20.468,-20.47,-20.483,-20.485,-20.472,-20.465,-20.474,-20.541,-20.589,-20.539,-20.39,-20.183,-19.954,-19.658,-19.244,-19.125,-19.344,-19.762,-20.161,-20.479,-20.537,-20.509,-20.464,-20.406,-20.394,-20.371,-20.398,-20.403,-20.425,-20.411,-20.408,-20.4,-20.412,-20.407,-20.413,-20.39,-20.396,-20.392,-20.396,-20.384,-20.384,-20.377,-20.384,-20.389,-20.387,-20.369,-20.371,-20.367,-20.374,-20.362,-20.352,-20.343,-20.341,-20.344,-20.338,-20.314,-20.308,-20.309,-20.313,-20.296,-20.289,-20.274,-20.265,-20.262,-20.25,-20.23,-20.213,-20.208,-20.193,-20.186,-20.16,-20.136,-20.125,-20.12,-20.097,-20.072,-20.054,-20.043,-20.035,-20.029,-20.012,-19.989,-19.976,-19.973,-19.973,-19.971,-19.959,-19.969,-19.987,-20.016,-20.041,-20.063,-20.096,-20.134,-20.173,-20.211,-20.228,-20.265,-20.3,-20.324,-20.342,-20.36,-20.37,-20.386,-20.402,-20.41,-20.398,-20.403,-20.408,-20.42,-20.417,-20.414,-20.408,-20.414,-20.425,-20.421,-20.411,-20.406,-20.408,-20.413,-20.411,-20.411,-20.399,-20.403,-20.405,-20.408,-20.405,-20.394,-20.396,-20.407,-20.403,-20.396,-20.385,-20.391,-20.404,-20.404,-20.4,-20.395,-20.403,-20.409,-20.418,-20.411,-20.401,-20.403,-20.411,-20.422,-20.417,-20.41,-20.412,-20.424,-20.43,-20.424,-20.412,-20.415,-20.418,-20.424,-20.421,-20.416,-20.418,-20.423,-20.437,-20.431,-20.431,-20.427,-20.428,-20.438,-20.436,-20.426,-20.42,-20.423,-20.437,-20.442,-20.437,-20.433,-20.434,-20.446,-20.444,-20.427,-20.425,-20.421,-20.434,-20.438,-20.422,-20.419,-20.434,-20.44,-20.428,-20.43,-20.426,-20.417,-20.436,-20.429,-20.422,-20.436,-20.412,-20.416,-20.42,-20.415,-20.394,-20.39,-20.42,-20.415,-20.423,-20.404,-20.407,-20.416,-20.415,-20.403,-20.386,-20.404,-20.387,-20.441,-20.444,-20.381,-20.349,-20.363,-20.368,-20.364,-20.346,-20.331,-20.33,-20.37,-20.401,-20.397,-20.391,-20.383,-20.442,-20.437,-20.447,-20.434,-20.456,-20.492,-20.509,-20.483,-20.466,-20.472,-20.493,-20.484,-20.477,-20.484,-20.488,-20.499,-20.507,-20.449,-20.509,-20.517,-20.508,-20.507,-20.54,-20.515,-20.485,-20.503,-20.513,-20.586,-20.615,-20.595,-20.525,-20.33,-20.175,-19.955,-19.585,-19.201,-19.132,-19.382,-19.774,-20.199,-20.511,-20.568,-20.546,-20.473,-20.382,-20.391,-20.388,-20.417,-20.408,-20.428,-20.398,-20.454,-20.428,-20.431,-20.393,-20.39,-20.371,-20.42,-20.384,-20.375,-20.383,-20.367,-20.362,-20.332,-20.371,-20.36,-20.351,-20.332,-20.352,-20.335,-20.312,-20.33,-20.326,-20.317,-20.287,-20.309,-20.272,-20.311,-20.282,-20.271,-20.248,-20.205,-20.243,-20.23,-20.197,-20.181,-20.206,-20.155,-20.165,-20.099,-20.107,-20.101,-20.089,-20.082,-20.054,-20.019,-20.009,-20.008,-19.972,-19.99,-19.949,-19.946,-19.938,-19.966,-19.895,-19.893,-19.896,-19.956,-19.975,-19.969,-19.979,-20.02,-20.041,-20.051,-20.145,-20.169,-20.177,-20.243,-20.253,-20.266,-20.277,-20.292,-20.342,-20.32,-20.346,-20.329,-20.336,-20.342,-20.375,-20.365,-20.311,-20.315,-20.356,-20.402,-20.369,-20.321,-20.31,-20.351,-20.35,-20.337,-20.301,-20.322,-20.342,-20.381,-20.329,-20.298,-20.35,-20.322,-20.311,-20.336,-20.297,-20.316,-20.341,-20.276,-20.312,-20.326,-20.31,-20.324,-20.344,-20.288,-20.3,-20.318,-20.334,-20.301,-20.317,-20.331,-20.328,-20.314,-20.351,-20.345,-20.342,-20.32,-20.333,-20.295,-20.34,-20.369,-20.35,-20.35,-20.319,-20.357,-20.353,-20.313,-20.359,-20.308,-20.325,-20.348,-20.344,-20.324,-20.365,-20.356,-20.331,-20.319,-20.347,-20.329,-20.326,-20.291,-20.375,-20.341,-20.338,-20.305,-20.266,-20.291,-20.258,-20.257,-20.214,-20.252,-20.287,-20.293,-20.273,-20.279,-20.277,-20.28,-20.32,-20.317,-20.364,-20.38,-20.332,-20.369,-20.387,-20.366,-20.361,-20.398,-20.354,-20.38,-20.387,-20.385,-20.378,-20.401,-20.374,-20.399,-20.387,-20.379,-20.38,-20.393,-20.375,-20.429,-20.411,-20.449,-20.488,-20.457,-20.291,-20.053,-19.751,-19.407,-19.122,-19.066,-19.295,-19.749,-20.183,-20.49,-20.47,-20.419,-20.432,-20.395,-20.319,-20.314,-20.315,-20.308,-20.334,-20.333,-20.337,-20.354,-20.34,-20.307,-20.323,-20.342,-20.331,-20.291,-20.308,-20.309,-20.338,-20.31,-20.295,-20.297,-20.275,-20.295,-20.32,-20.273,-20.279,-20.259,-20.261,-20.233,-20.281,-20.258,-20.235,-20.258,-20.232,-20.234,-20.178,-20.204,-20.197,-20.185,-20.183,-20.16,-20.18,-20.119,-20.147,-20.121,-20.1,-20.09,-20.047,-20.078,-20.016,-20.022,-20.001,-20.007,-19.984,-19.975,-19.924,-19.934,-19.94,-19.946,-19.917,-19.927,-19.905,-19.913,-19.956,-19.963,-19.984,-20.006,-20.055,-20.088,-20.122,-20.152,-20.192,-20.175,-20.267,-20.279,-20.276,-20.289,-20.299,-20.317,-20.367,-20.352,-20.353,-20.368,-20.35,-20.368,-20.344,-20.385,-20.359,-20.357,-20.383,-20.343,-20.332,-20.348,-20.355,-20.373,-20.363,-20.343,-20.338,-20.345,-20.358,-20.345,-20.352,-20.351,-20.349,-20.365,-20.337,-20.341,-20.34,-20.334,-20.363,-20.354,-20.358,-20.357,-20.359,-20.363,-20.375,-20.355,-20.367,-20.356,-20.375,-20.363,-20.371,-20.334,-20.355,-20.38,-20.397,-20.373,-20.358,-20.356,-20.366,-20.359,-20.347,-20.326,-20.306,-20.292,-20.284,-20.256,-20.257,-20.298,-20.321,-20.332,-20.352,-20.32,-20.337,-20.387,-20.419,-20.407,-20.405,-20.412,-20.408,-20.41,-20.425,-20.422,-20.408,-20.429,-20.436,-20.428,-20.419,-20.426,-20.422,-20.433,-20.428,-20.407,-20.42,-20.431,-20.443,-20.442,-20.435,-20.458,-20.524,-20.536,-20.407,-20.198,-19.903,-19.583,-19.243,-19.127,-19.129,-19.422,-19.861,-20.275,-20.531,-20.514,-20.49,-20.442,-20.416,-20.392,-20.346,-20.349,-20.36,-20.395,-20.366,-20.375,-20.348,-20.347,-20.384,-20.374,-20.368,-20.348,-20.343,-20.344,-20.344,-20.336,-20.326,-20.332,-20.32,-20.327,-20.318,-20.302,-20.308,-20.306,-20.315,-20.294,-20.276,-20.284,-20.28,-20.274,-20.27,-20.254,-20.241,-20.239,-20.256,-20.248,-20.223,-20.201,-20.208,-20.206,-20.184,-20.157,-20.147,-20.129,-20.131,-20.115,-20.081,-20.085,-20.068,-20.058,-20.055,-20.033,-20.025,-20.013,-20.007,-20.007,-20,-19.982,-19.976,-20.011,-20.037,-20.051,-20.08,-20.106,-20.146,-20.184,-20.205,-20.23,-20.274,-20.321,-20.333,-20.331,-20.335,-20.366,-20.378,-20.382,-20.393,-20.414,-20.421,-20.414,-20.426,-20.423,-20.412,-20.423,-20.431,-20.44,-20.436,-20.423,-20.429,-20.424,-20.426,-20.431,-20.412,-20.428,-20.427,-20.438,-20.436,-20.424,-20.426,-20.407,-20.435,-20.448,-20.422,-20.42,-20.432,-20.434,-20.45,-20.441,-20.431,-20.425,-20.442,-20.446,-20.437,-20.425,-20.436,-20.448,-20.45,-20.457,-20.445,-20.449,-20.456,-20.462,-20.451,-20.441,-20.451,-20.452,-20.46,-20.46,-20.45,-20.452,-20.445,-20.464,-20.449,-20.436,-20.433,-20.439,-20.45,-20.439,-20.415,-20.397,-20.388,-20.372,-20.343,-20.343,-20.377,-20.403,-20.407,-20.399,-20.405,-20.403,-20.405,-20.447,-20.452,-20.469,-20.464,-20.468,-20.488,-20.473,-20.471,-20.472,-20.473,-20.489,-20.475,-20.489,-20.475,-20.466,-20.483,-20.49,-20.488,-20.472,-20.473,-20.478,-20.511,-20.547,-20.577,-20.512,-20.342,-20.119,-19.84,-19.491,-19.164,-19.108,-19.446,-19.882,-20.276,-20.548,-20.566,-20.516,-20.465,-20.428,-20.406,-20.403,-20.428,-20.421,-20.419,-20.414,-20.425,-20.428,-20.424,-20.414,-20.412,-20.404,-20.42,-20.412,-20.402,-20.398,-20.403,-20.408,-20.408,-20.397,-20.382,-20.378,-20.386,-20.385,-20.38,-20.361,-20.358,-20.358,-20.355,-20.346,-20.336,-20.332,-20.332,-20.322,-20.309,-20.289,-20.279,-20.289,-20.279,-20.263,-20.246,-20.231,-20.226,-20.219,-20.205,-20.179,-20.163,-20.142,-20.135,-20.112,-20.089,-20.076,-20.072,-20.074,-20.062,-20.033,-20.025,-20.032,-20.035,-20.031,-20.024,-20.039,-20.053,-20.096,-20.118,-20.145,-20.167,-20.207,-20.252,-20.282,-20.311,-20.331,-20.346,-20.381,-20.401,-20.392,-20.402,-20.407,-20.415,-20.431,-20.428,-20.401,-20.417,-20.429,-20.434,-20.431,-20.41,-20.42,-20.422,-20.426,-20.418,-20.406,-20.406,-20.412,-20.415,-20.408,-20.39,-20.404,-20.408,-20.406,-20.4,-20.395,-20.394,-20.404,-20.413,-20.414,-20.4,-20.397,-20.402,-20.415,-20.413,-20.403,-20.4,-20.406,-20.416,-20.414,-20.406,-20.412,-20.41,-20.415,-20.427,-20.412,-20.412,-20.415,-20.431,-20.43,-20.431,-20.421,-20.423,-20.439,-20.439,-20.439,-20.43,-20.439,-20.446,-20.44,-20.437,-20.426,-20.422,-20.417,-20.412,-20.414,-20.385,-20.384,-20.397,-20.38,-20.347,-20.318,-20.335,-20.355,-20.379,-20.391,-20.385,-20.396,-20.406,-20.419,-20.434,-20.447,-20.446,-20.451,-20.467,-20.472,-20.467,-20.463,-20.469,-20.489,-20.47,-20.465,-20.469,-20.471,-20.479,-20.478,-20.472,-20.471,-20.472,-20.487,-20.493,-20.476,-20.473,-20.5,-20.566,-20.6,-20.538,-20.368,-20.144,-19.884,-19.536,-19.173,-19.081,-19.385,-19.846,-20.269,-20.563,-20.581,-20.509,-20.468,-20.44,-20.428,-20.422,-20.438,-20.44,-20.448,-20.445,-20.425,-20.433,-20.432,-20.442,-20.439,-20.413,-20.414,-20.42,-20.423,-20.414,-20.405,-20.396,-20.407,-20.397,-20.391,-20.382,-20.371,-20.373,-20.389,-20.379,-20.366,-20.367,-20.36,-20.367,-20.359,-20.337,-20.333,-20.325,-20.325,-20.318,-20.298,-20.288,-20.276,-20.277,-20.269,-20.245,-20.214,-20.213,-20.206,-20.196,-20.172,-20.139,-20.138,-20.133,-20.119,-20.099,-20.074,-20.063,-20.056,-20.055,-20.031,-20.019,-20.01,-20.016,-20.026,-20.041,-20.036,-20.061,-20.092,-20.134,-20.163,-20.183,-20.226,-20.261,-20.307,-20.328,-20.334,-20.364,-20.382,-20.403,-20.403,-20.404,-20.419,-20.425,-20.437,-20.425,-20.426,-20.416,-20.424,-20.433,-20.434,-20.421,-20.42,-20.421,-20.427,-20.421,-20.413,-20.402,-20.406,-20.417,-20.412,-20.414,-20.403,-20.406,-20.407,-20.415,-20.401,-20.389,-20.397,-20.405,-20.412,-20.41,-20.395,-20.401,-20.415,-20.409,-20.416,-20.402,-20.401,-20.414,-20.421,-20.42,-20.416,-20.422,-20.432,-20.44,-20.437,-20.43,-20.427,-20.433,-20.444,-20.451,-20.438,-20.438,-20.455,-20.459,-20.458,-20.447,-20.446,-20.452,-20.463,-20.46,-20.455,-20.451,-20.459,-20.467,-20.463,-20.453,-20.45,-20.449,-20.467,-20.465,-20.461,-20.456,-20.455,-20.47,-20.473,-20.465,-20.455,-20.457,-20.472,-20.472,-20.462,-20.456,-20.452,-20.454,-20.463,-20.456,-20.451,-20.454,-20.458,-20.465,-20.463,-20.442,-20.443,-20.449,-20.457,-20.45,-20.442,-20.453,-20.452,-20.459,-20.447,-20.448,-20.444,-20.448,-20.46,-20.46,-20.445,-20.447,-20.45,-20.462,-20.458,-20.449,-20.445,-20.449,-20.458,-20.452,-20.442,-20.445,-20.447,-20.457,-20.432,-20.428,-20.413,-20.415,-20.408,-20.384,-20.356,-20.363,-20.395,-20.419,-20.423,-20.414,-20.413,-20.434,-20.445,-20.461,-20.464,-20.475,-20.494,-20.509,-20.513,-20.508,-20.51,-20.507,-20.512,-20.522,-20.514,-20.492,-20.503,-20.512,-20.52,-20.513,-20.502,-20.5,-20.509,-20.543,-20.596,-20.6,-20.527,-20.337,-20.119,-19.983,-19.673,-19.252,-19.112,-19.308,-19.731,-20.131,-20.487,-20.558,-20.518,-20.471,-20.417,-20.4,-20.407,-20.434,-20.434,-20.433,-20.423,-20.427,-20.44,-20.441,-20.427,-20.419,-20.408,-20.417,-20.413,-20.416,-20.399,-20.403,-20.406,-20.406,-20.4,-20.385,-20.387,-20.39,-20.391,-20.381,-20.358,-20.363,-20.363,-20.366,-20.359,-20.342,-20.334,-20.333,-20.332,-20.327,-20.308,-20.295,-20.287,-20.288,-20.273,-20.248,-20.235,-20.224,-20.224,-20.203,-20.17,-20.148,-20.154,-20.15,-20.124,-20.108,-20.079,-20.07,-20.069,-20.051,-20.045,-20.02,-20.012,-20.007,-20.001,-20,-19.99,-20.001,-20.033,-20.046,-20.073,-20.087,-20.132,-20.155,-20.188,-20.218,-20.238,-20.274,-20.306,-20.341,-20.355,-20.36,-20.362,-20.391,-20.408,-20.414,-20.41,-20.404,-20.414,-20.414,-20.413,-20.397,-20.4,-20.406,-20.415,-20.418,-20.397,-20.403,-20.397,-20.409,-20.395,-20.392,-20.392,-20.392,-20.406,-20.407,-20.398,-20.401,-20.392,-20.403,-20.399,-20.393,-20.387,-20.387,-20.407,-20.404,-20.406,-20.395,-20.396,-20.401,-20.407,-20.408,-20.4,-20.408,-20.424,-20.422,-20.421,-20.409,-20.412,-20.431,-20.426,-20.421,-20.414,-20.417,-20.418,-20.427,-20.427,-20.421,-20.421,-20.43,-20.424,-20.424,-20.425,-20.425,-20.427,-20.437,-20.432,-20.422,-20.432,-20.436,-20.443,-20.438,-20.433,-20.434,-20.427,-20.44,-20.439,-20.432,-20.432,-20.439,-20.448,-20.45,-20.443,-20.448,-20.451,-20.451,-20.433,-20.432,-20.436,-20.431,-20.433,-20.416,-20.408,-20.401,-20.394,-20.367,-20.337,-20.343,-20.348,-20.371,-20.394,-20.403,-20.401,-20.39,-20.4,-20.407,-20.432,-20.451,-20.446,-20.448,-20.466,-20.46,-20.463,-20.454,-20.471,-20.469,-20.483,-20.486,-20.473,-20.469,-20.465,-20.478,-20.47,-20.466,-20.468,-20.482,-20.48,-20.493,-20.518,-20.561,-20.543,-20.446,-20.357,-20.111,-19.811,-19.428,-19.142,-19.128,-19.451,-19.875,-20.296,-20.552,-20.546,-20.495,-20.427,-20.409,-20.388,-20.399,-20.404,-20.414,-20.4,-20.416,-20.412,-20.417,-20.406,-20.403,-20.41,-20.413,-20.4,-20.397,-20.395,-20.389,-20.385,-20.395,-20.373,-20.367,-20.372,-20.371,-20.356,-20.358,-20.346,-20.349,-20.349,-20.344,-20.337,-20.325,-20.318,-20.311,-20.309,-20.285,-20.263,-20.261,-20.263,-20.245,-20.223,-20.214,-20.206,-20.202,-20.194,-20.169,-20.143,-20.137,-20.14,-20.116,-20.099,-20.082,-20.06,-20.055,-20.048,-20.016,-20.002,-19.985,-19.993,-19.988,-19.964,-19.952,-19.968,-19.993,-20.006,-20.021,-20.032,-20.046,-20.08,-20.136,-20.172,-20.188,-20.223,-20.257,-20.289,-20.309,-20.324,-20.332,-20.357,-20.378,-20.381,-20.369,-20.376,-20.38,-20.389,-20.397,-20.376,-20.381,-20.385,-20.401,-20.392,-20.386,-20.371,-20.372,-20.393,-20.382,-20.379,-20.38,-20.377,-20.388,-20.393,-20.384,-20.388,-20.382,-20.387,-20.399,-20.384,-20.382,-20.38,-20.384,-20.409,-20.408,-20.397,-20.394,-20.403,-20.399,-20.393,-20.379,-20.382,-20.398,-20.403,-20.405,-20.393,-20.393,-20.403,-20.409,-20.399,-20.395,-20.4,-20.397,-20.412,-20.404,-20.378,-20.364,-20.34,-20.325,-20.331,-20.318,-20.346,-20.36,-20.372,-20.397,-20.383,-20.409,-20.439,-20.474,-20.475,-20.466,-20.47,-20.486,-20.493,-20.495,-20.509,-20.505,-20.524,-20.52,-20.532,-20.531,-20.511,-20.509,-20.539,-20.53,-20.512,-20.508,-20.498,-20.517,-20.512,-20.515,-20.517,-20.513,-20.562,-20.624,-20.612,-20.445,-20.206,-19.893,-19.536,-19.238,-19.131,-19.338,-19.771,-20.194,-20.54,-20.558,-20.537,-20.515,-20.467,-20.453,-20.393,-20.399,-20.394,-20.407,-20.406,-20.411,-20.387,-20.392,-20.398,-20.404,-20.383,-20.371,-20.38,-20.4,-20.388,-20.379,-20.368,-20.367,-20.382,-20.377,-20.355,-20.346,-20.342,-20.348,-20.338,-20.33,-20.307,-20.313,-20.302,-20.31,-20.289,-20.28,-20.275,-20.271,-20.262,-20.237,-20.228,-20.226,-20.224,-20.23,-20.187,-20.178,-20.174,-20.158,-20.139,-20.14,-20.121,-20.088,-20.082,-20.077,-20.069,-20.048,-20.032,-20.02,-20.03,-20.023,-19.994,-19.992,-20,-20.011,-20.016,-20.038,-20.068,-20.081,-20.134,-20.178,-20.206,-20.244,-20.279,-20.309,-20.353,-20.375,-20.394,-20.402,-20.42,-20.434,-20.459,-20.461,-20.451,-20.437,-20.432,-20.467,-20.447,-20.453,-20.465,-20.443,-20.475,-20.443,-20.442,-20.453,-20.458,-20.434,-20.433,-20.414,-20.404,-20.438,-20.416,-20.391,-20.401,-20.395,-20.401,-20.391,-20.394,-20.389,-20.399,-20.414,-20.41,-20.394,-20.401,-20.425,-20.435,-20.425,-20.408,-20.411,-20.426,-20.439,-20.439,-20.421,-20.414,-20.423,-20.449,-20.443,-20.431,-20.424,-20.418,-20.412,-20.393,-20.396,-20.39,-20.407,-20.413,-20.346,-20.319,-20.327,-20.306,-20.297,-20.357,-20.361,-20.355,-20.399,-20.386,-20.39,-20.449,-20.435,-20.443,-20.464,-20.46,-20.476,-20.466,-20.46,-20.491,-20.526,-20.505,-20.507,-20.516,-20.532,-20.534,-20.524,-20.515,-20.519,-20.535,-20.544,-20.543,-20.54,-20.567,-20.648,-20.654,-20.526,-20.295,-20.046,-19.737,-19.392,-19.232,-19.328,-19.698,-20.108,-20.477,-20.586,-20.546,-20.556,-20.477,-20.45,-20.389,-20.385,-20.389,-20.42,-20.401,-20.406,-20.41,-20.403,-20.387,-20.391,-20.385,-20.375,-20.369,-20.366,-20.379,-20.347,-20.343,-20.356,-20.337,-20.346,-20.362,-20.345,-20.339,-20.336,-20.317,-20.345,-20.339,-20.32,-20.311,-20.315,-20.326,-20.294,-20.268,-20.293,-20.285,-20.292,-20.278,-20.249,-20.242,-20.222,-20.226,-20.212,-20.206,-20.181,-20.164,-20.166,-20.154,-20.113,-20.089,-20.09,-20.099,-20.089,-20.069,-20.039,-20.014,-20.018,-20.016,-20.003,-20.006,-19.99,-20.012,-20.045,-20.04,-20.052,-20.081,-20.117,-20.163,-20.175,-20.201,-20.232,-20.276,-20.294,-20.308,-20.322,-20.342,-20.342,-20.362,-20.355,-20.366,-20.366,-20.362,-20.388,-20.38,-20.365,-20.374,-20.372,-20.392,-20.38,-20.382,-20.387,-20.368,-20.381,-20.375,-20.358,-20.361,-20.356,-20.348,-20.371,-20.371,-20.353,-20.347,-20.374,-20.364,-20.358,-20.366,-20.367,-20.354,-20.35,-20.364,-20.362,-20.368,-20.393,-20.38,-20.37,-20.368,-20.363,-20.369,-20.377,-20.354,-20.332,-20.362,-20.356,-20.359,-20.337,-20.323,-20.31,-20.294,-20.293,-20.288,-20.292,-20.302,-20.324,-20.352,-20.331,-20.337,-20.352,-20.382,-20.422,-20.43,-20.419,-20.419,-20.41,-20.421,-20.423,-20.399,-20.407,-20.436,-20.422,-20.417,-20.411,-20.416,-20.436,-20.425,-20.429,-20.414,-20.412,-20.413,-20.427,-20.474,-20.526,-20.541,-20.428,-20.256,-19.995,-19.701,-19.353,-19.181,-19.265,-19.631,-19.989,-20.355,-20.518,-20.513,-20.498,-20.414,-20.395,-20.343,-20.346,-20.349,-20.369,-20.348,-20.345,-20.361,-20.376,-20.348,-20.341,-20.314,-20.35,-20.346,-20.336,-20.318,-20.317,-20.332,-20.34,-20.33,-20.318,-20.294,-20.294,-20.301,-20.307,-20.297,-20.285,-20.272,-20.287,-20.28,-20.244,-20.237,-20.24,-20.241,-20.24,-20.214,-20.21,-20.206,-20.195,-20.191,-20.17,-20.144,-20.165,-20.148,-20.145,-20.117,-20.105,-20.095,-20.09,-20.072,-20.053,-20.021,-20.017,-20.033,-20.032,-20.008,-19.979,-19.982,-19.977,-19.983,-19.989,-19.998,-20.014,-20.026,-20.07,-20.077,-20.093,-20.14,-20.168,-20.212,-20.21,-20.226,-20.247,-20.27,-20.308,-20.346,-20.352,-20.326,-20.302,-20.332,-20.337,-20.353,-20.348,-20.338,-20.378,-20.357,-20.334,-20.331,-20.327,-20.362,-20.368,-20.358,-20.351,-20.343,-20.351,-20.349,-20.332,-20.336,-20.343,-20.351,-20.356,-20.356,-20.33,-20.317,-20.333,-20.308,-20.321,-20.293,-20.302,-20.304,-20.328,-20.332,-20.29,-20.278,-20.284,-20.29,-20.247,-20.283,-20.288,-20.302,-20.326,-20.33,-20.323,-20.369,-20.383,-20.434,-20.425,-20.414,-20.417,-20.403,-20.451,-20.453,-20.442,-20.445,-20.411,-20.425,-20.43,-20.426,-20.428,-20.426,-20.444,-20.43,-20.402,-20.421,-20.38,-20.419,-20.398,-20.404,-20.47,-20.512,-20.503,-20.347,-20.137,-19.837,-19.577,-19.171,-19.105,-19.294,-19.67,-19.91,-20.335,-20.555,-20.492,-20.496,-20.379,-20.304,-20.35,-20.372,-20.368,-20.392,-20.367,-20.39,-20.387,-20.391,-20.372,-20.418,-20.357,-20.392,-20.378,-20.411,-20.391,-20.381,-20.373,-20.402,-20.366,-20.391,-20.4,-20.405,-20.411,-20.402,-20.37,-20.416,-20.426,-20.391,-20.326,-20.344,-20.372,-20.358,-20.385,-20.348,-20.322,-20.323,-20.289,-20.326,-20.249,-20.26,-20.282,-20.215,-20.226,-20.167,-20.198,-20.162,-20.123,-20.136,-20.097,-20.074,-20.078,-20.058,-20.041,-20.011,-19.969,-20.044,-20.034,-20.03,-20.012,-20.01,-20.061,-20.06,-20.136,-20.101,-20.12,-20.132,-20.229,-20.244,-20.226,-20.266,-20.313,-20.315,-20.324,-20.331,-20.315,-20.327,-20.381,-20.366,-20.361,-20.367,-20.361,-20.39,-20.362,-20.363,-20.352,-20.358,-20.347,-20.353,-20.344,-20.341,-20.355,-20.374,-20.382,-20.352,-20.305,-20.352,-20.367,-20.363,-20.358,-20.336,-20.36,-20.337,-20.384,-20.368,-20.361,-20.358,-20.345,-20.369,-20.325,-20.308,-20.34,-20.344,-20.354,-20.336,-20.303,-20.286,-20.298,-20.272,-20.315,-20.283,-20.316,-20.328,-20.332,-20.341,-20.336,-20.352,-20.388,-20.423,-20.419,-20.391,-20.421,-20.395,-20.397,-20.422,-20.414,-20.39,-20.404,-20.427,-20.414,-20.421,-20.414,-20.414,-20.402,-20.433,-20.427,-20.416,-20.413,-20.408,-20.434,-20.424,-20.48,-20.531,-20.526,-20.426,-20.273,-20.01,-19.737,-19.399,-19.168,-19.171,-19.534,-19.908,-20.302,-20.516,-20.496,-20.444,-20.392,-20.375,-20.334
