-8.209,-8.1885,-8.1586,-8.1444,-8.1278,-8.1061,-8.0851,-8.0623,-8.0476,-8.0295,-8.029,-8.0074,-8.0063,-7.9982,-8.0078,-8.0037,-7.994,-7.9892,-8.0139,-8.0362,-8.0581,-8.0899,-8.1344,-8.1803,-8.227,-8.2837,-8.3299,-8.3621,-8.4137,-8.4408,-8.4834,-8.5036,-8.5201,-8.5354,-8.5525,-8.5632,-8.5771,-8.5654,-8.5717,-8.5663,-8.5751,-8.5805,-8.5839,-8.5709,-8.5767,-8.5763,-8.5763,-8.5637,-8.5578,-8.5662,-8.5688,-8.5656,-8.5687,-8.5482,-8.5621,-8.5583,-8.5741,-8.5709,-8.561,-8.5478,-8.5548,-8.5718,-8.5844,-8.5725,-8.5719,-8.5784,-8.6002,-8.6004,-8.5956,-8.5948,-8.5955,-8.618,-8.6182,-8.6131,-8.6106,-8.621,-8.6352,-8.636,-8.6325,-8.6268,-8.6391,-8.6404,-8.6474,-8.6442,-8.6457,-8.6429,-8.6455,-8.6496,-8.6472,-8.6404,-8.6409,-8.6477,-8.6539,-8.6499,-8.6421,-8.637,-8.651,-8.6618,-8.6552,-8.6485,-8.6522,-8.6471,-8.6555,-8.6606,-8.6535,-8.643,-8.648,-8.6514,-8.659,-8.6498,-8.6385,-8.646,-8.6433,-8.6557,-8.6442,-8.6343,-8.641,-8.6507,-8.6544,-8.6448,-8.6398,-8.641,-8.6413,-8.6574,-8.6475,-8.6456,-8.6429,-8.646,-8.643,-8.6546,-8.6418,-8.6351,-8.6387,-8.6418,-8.6514,-8.6398,-8.6383,-8.6424,-8.635,-8.6071,-8.601,-8.6005,-8.6021,-8.6133,-8.6186,-8.5972,-8.5441,-8.5149,-8.5024,-8.536,-8.5418,-8.543,-8.5636,-8.5875,-8.5806,-8.598,-8.6174,-8.6338,-8.6416,-8.6511,-8.6493,-8.6555,-8.6611,-8.6587,-8.6545,-8.6563,-8.6538,-8.6619,-8.6584,-8.6708,-8.6672,-8.6293,-8.5267,-8.3295,-8.1241,-7.9502,-7.7344,-7.5793,-7.7035,-8.3275,-8.6703,-9.2985,-9.3331,-9.0541,-8.9347,-8.7868,-8.6646,-8.583,-8.6006,-8.5638,-8.6108,-8.5554,-8.5888,-8.5379,-8.58,-8.5412,-8.5719,-8.5243,-8.5487,-8.5214,-8.5489,-8.5284,-8.5169,-8.4875,-8.5137,-8.4934,-8.503,-8.472,-8.4775,-8.454,-8.4653,-8.4547,-8.4416,-8.4233,-8.4166,-8.407,-8.404,-8.3757,-8.3662,-8.356,-8.3489,-8.3292,-8.3258,-8.2968,-8.2755,-8.2667,-8.2496,-8.2307,-8.2089,-8.1794,-8.169,-8.167,-8.1341,-8.1249,-8.1218,-8.118,-8.1073,-8.1005,-8.0827,-8.0878,-8.0848,-8.0912,-8.0972,-8.1012,-8.1003,-8.1421,-8.168,-8.2266,-8.2512,-8.2885,-8.3213,-8.3883,-8.4289,-8.4636,-8.4887,-8.5295,-8.5593,-8.5784,-8.577,-8.5949,-8.6027,-8.6221,-8.6269,-8.6292,-8.6194,-8.6273,-8.63,-8.6378,-8.6347,-8.6133,-8.615,-8.6176,-8.6253,-8.6206,-8.6027,-8.6133,-8.6072,-8.6144,-8.6068,-8.6114,-8.6015,-8.6144,-8.6117,-8.6304,-8.6182,-8.6166,-8.6167,-8.6273,-8.6214,-8.6245,-8.6261,-8.6386,-8.6471,-8.645,-8.6329,-8.6449,-8.6425,-8.6568,-8.654,-8.6526,-8.6501,-8.6623,-8.6616,-8.6691,-8.675,-8.6556,-8.6663,-8.6696,-8.6868,-8.677,-8.6735,-8.6728,-8.6796,-8.6892,-8.6902,-8.6782,-8.6729,-8.6725,-8.674,-8.6858,-8.6795,-8.6891,-8.6836,-8.6844,-8.6937,-8.6915,-8.6892,-8.6924,-8.6981,-8.6937,-8.6972,-8.692,-8.6906,-8.7044,-8.7,-8.7019,-8.6946,-8.6753,-8.6709,-8.6678,-8.6629,-8.6535,-8.6623,-8.6662,-8.6617,-8.6214,-8.5899,-8.5767,-8.5942,-8.6128,-8.61,-8.6259,-8.6419,-8.6468,-8.6727,-8.6914,-8.6983,-8.7026,-8.7172,-8.7212,-8.7202,-8.7275,-8.722,-8.719,-8.7293,-8.7316,-8.7316,-8.7168,-8.7352,-8.7333,-8.7163,-8.6764,-8.5167,-8.3289,-8.1426,-7.9776,-7.8415,-7.7779,-8.1182,-8.3689,-8.9714,-9.5048,-9.3158,-9.0725,-8.9462,-8.8437,-8.7115,-8.6386,-8.6458,-8.6429,-8.6452,-8.6376,-8.6236,-8.6221,-8.6152,-8.6193,-8.6106,-8.6006,-8.5961,-8.5915,-8.5959,-8.586,-8.5666,-8.5632,-8.5603,-8.558,-8.5554,-8.5404,-8.5226,-8.5137,-8.5112,-8.507,-8.4923,-8.4797,-8.4671,-8.4552,-8.4497,-8.4289,-8.4154,-8.4091,-8.4018,-8.393,-8.3792,-8.3445,-8.326,-8.3194,-8.3063,-8.2791,-8.256,-8.2332,-8.212,-8.211,-8.1954,-8.1721,-8.164,-8.1594,-8.1559,-8.159,-8.1423,-8.1323,-8.1339,-8.1483,-8.1657,-8.1902,-8.2033,-8.2494,-8.2972,-8.3442,-8.3853,-8.4236,-8.4625,-8.5229,-8.5704,-8.5946,-8.6124,-8.641,-8.6587,-8.6762,-8.6949,-8.6943,-8.7011,-8.7031,-8.7165,-8.7181,-8.7122,-8.7029,-8.7041,-8.7125,-8.7081,-8.7021,-8.6932,-8.6991,-8.698,-8.701,-8.6903,-8.6856,-8.6849,-8.6888,-8.6902,-8.6896,-8.6728,-8.6891,-8.6837,-8.6925,-8.6956,-8.6884,-8.7015,-8.6998,-8.7161,-8.7159,-8.7105,-8.7185,-8.719,-8.729,-8.7305,-8.726,-8.7241,-8.7295,-8.7366,-8.7368,-8.7401,-8.7365,-8.7428,-8.7436,-8.7465,-8.7521,-8.7455,-8.7398,-8.7474,-8.7523,-8.7535,-8.7464,-8.7457,-8.7509,-8.7612,-8.7466,-8.7408,-8.7524,-8.7533,-8.758,-8.7673,-8.7499,-8.745,-8.7542,-8.7565,-8.7374,-8.7125,-8.7121,-8.7144,-8.7236,-8.7247,-8.6829,-8.6512,-8.6339,-8.643,-8.6574,-8.6645,-8.6737,-8.6849,-8.7114,-8.7131,-8.7106,-8.7256,-8.7417,-8.7641,-8.782,-8.7826,-8.7778,-8.7756,-8.7859,-8.7874,-8.7861,-8.7813,-8.7867,-8.7899,-8.7957,-8.7933,-8.7772,-8.7607,-8.6637,-8.4764,-8.2678,-8.0871,-7.9153,-7.7544,-7.844,-8.4022,-9.0603,-9.5413,-9.3623,-9.1174,-9.0174,-8.8613,-8.7581,-8.7121,-8.7328,-8.7058,-8.7054,-8.6838,-8.6964,-8.6813,-8.6923,-8.6637,-8.6645,-8.6501,-8.6598,-8.6581,-8.65,-8.6254,-8.628,-8.6201,-8.6311,-8.6091,-8.6041,-8.5807,-8.5843,-8.5718,-8.571,-8.5571,-8.5453,-8.5334,-8.5307,-8.5206,-8.5088,-8.4835,-8.474,-8.4652,-8.4571,-8.4294,-8.4058,-8.3916,-8.3797,-8.3505,-8.3257,-8.3051,-8.2809,-8.261,-8.2478,-8.2406,-8.2078,-8.1942,-8.1888,-8.1922,-8.1751,-8.1638,-8.1558,-8.1561,-8.1624,-8.1661,-8.1716,-8.1996,-8.2362,-8.2888,-8.3249,-8.3733,-8.4242,-8.4702,-8.5217,-8.548,-8.578,-8.6072,-8.6403,-8.6826,-8.7048,-8.7157,-8.7232,-8.73,-8.7477,-8.7611,-8.7477,-8.7488,-8.7463,-8.7518,-8.7461,-8.7382,-8.7357,-8.7381,-8.7343,-8.7431,-8.7364,-8.7264,-8.7153,-8.7178,-8.7235,-8.7282,-8.7134,-8.717,-8.712,-8.7238,-8.7177,-8.7181,-8.7153,-8.7185,-8.7238,-8.7285,-8.7199,-8.7315,-8.7302,-8.7367,-8.7298,-8.7334,-8.7313,-8.7435,-8.7506,-8.7584,-8.7475,-8.7414,-8.7462,-8.7621,-8.7629,-8.7626,-8.7532,-8.7477,-8.7604,-8.763,-8.7571,-8.7626,-8.7584,-8.7669,-8.7744,-8.7659,-8.7584,-8.7604,-8.7628,-8.7724,-8.7785,-8.7593,-8.7618,-8.7636,-8.7719,-8.7717,-8.7637,-8.7586,-8.7663,-8.7739,-8.7764,-8.7699,-8.7638,-8.7645,-8.7703,-8.7682,-8.7673,-8.7579,-8.7577,-8.7658,-8.7391,-8.723,-8.7184,-8.7225,-8.7297,-8.7331,-8.6978,-8.6655,-8.6384,-8.6387,-8.6662,-8.6724,-8.6725,-8.6842,-8.7033,-8.7157,-8.7197,-8.7287,-8.7461,-8.7566,-8.7804,-8.7772,-8.7734,-8.7707,-8.7765,-8.7827,-8.7846,-8.7749,-8.7772,-8.7857,-8.7971,-8.7942,-8.7668,-8.728,-8.5875,-8.3826,-8.189,-7.9998,-7.7969,-7.639,-7.9069,-8.5467,-9.2133,-9.4627,-9.2412,-9.0579,-8.9584,-8.7789,-8.712,-8.6931,-8.6881,-8.6839,-8.6782,-8.6688,-8.6571,-8.6512,-8.6542,-8.646,-8.6431,-8.625,-8.621,-8.6185,-8.6173,-8.6131,-8.6045,-8.598,-8.5949,-8.5849,-8.5729,-8.5532,-8.553,-8.5513,-8.5348,-8.5284,-8.51,-8.4977,-8.4901,-8.4836,-8.4704,-8.4478,-8.4319,-8.4193,-8.4122,-8.3894,-8.3658,-8.3438,-8.328,-8.3105,-8.2796,-8.2536,-8.2258,-8.2196,-8.2031,-8.19,-8.1657,-8.1376,-8.1341,-8.1308,-8.1161,-8.0952,-8.0879,-8.0915,-8.1085,-8.1095,-8.1188,-8.1351,-8.1669,-8.2172,-8.2583,-8.3071,-8.3543,-8.4004,-8.4568,-8.4826,-8.514,-8.5375,-8.5647,-8.5977,-8.6218,-8.6342,-8.6425,-8.6613,-8.6637,-8.6771,-8.673,-8.6694,-8.6669,-8.667,-8.6738,-8.6744,-8.6579,-8.6527,-8.6577,-8.6681,-8.6641,-8.6604,-8.6516,-8.652,-8.6552,-8.6573,-8.6492,-8.6428,-8.6433,-8.6565,-8.6563,-8.653,-8.6419,-8.6502,-8.6568,-8.6567,-8.6567,-8.6547,-8.6563,-8.6638,-8.6764,-8.6791,-8.6758,-8.6808,-8.6856,-8.6992,-8.6961,-8.6861,-8.6819,-8.6855,-8.6933,-8.6998,-8.6978,-8.6958,-8.6942,-8.7043,-8.7024,-8.6916,-8.691,-8.6931,-8.6965,-8.7034,-8.6991,-8.6911,-8.6993,-8.7001,-8.7043,-8.6994,-8.6963,-8.6951,-8.697,-8.7049,-8.6959,-8.6915,-8.6931,-8.7084,-8.7096,-8.7016,-8.7043,-8.7005,-8.7047,-8.7096,-8.7132,-8.7031,-8.7012,-8.711,-8.7112,-8.7157,-8.7055,-8.7081,-8.71,-8.7165,-8.7177,-8.7104,-8.7087,-8.7109,-8.7215,-8.7142,-8.7117,-8.7056,-8.7131,-8.7152,-8.7218,-8.7158,-8.7058,-8.7025,-8.6881,-8.675,-8.668,-8.6726,-8.6719,-8.6808,-8.6623,-8.6224,-8.5871,-8.57,-8.6008,-8.6231,-8.6257,-8.6387,-8.644,-8.6548,-8.6749,-8.6858,-8.6938,-8.7058,-8.7135,-8.7225,-8.7275,-8.726,-8.7201,-8.73,-8.7302,-8.7308,-8.7278,-8.7216,-8.7281,-8.7316,-8.7245,-8.6705,-8.5065,-8.298,-8.1064,-7.9147,-7.6965,-7.5525,-7.9287,-8.6033,-9.2735,-9.3964,-9.1556,-8.99,-8.8559,-8.7127,-8.6773,-8.6466,-8.6362,-8.6447,-8.631,-8.6432,-8.6227,-8.6244,-8.6047,-8.6208,-8.6046,-8.6035,-8.5794,-8.583,-8.5757,-8.5815,-8.5638,-8.5623,-8.5449,-8.5522,-8.5395,-8.5318,-8.5118,-8.5046,-8.4981,-8.5034,-8.4847,-8.4661,-8.4506,-8.4483,-8.4403,-8.4229,-8.4009,-8.3898,-8.3802,-8.3606,-8.3402,-8.3141,-8.2923,-8.2707,-8.2617,-8.2395,-8.2094,-8.1883,-8.186,-8.1712,-8.1476,-8.1307,-8.1124,-8.0969,-8.0981,-8.1046,-8.1018,-8.0884,-8.0846,-8.0995,-8.1081,-8.1176,-8.1393,-8.18,-8.2302,-8.2753,-8.319,-8.3602,-8.3821,-8.4262,-8.4853,-8.5228,-8.5529,-8.5736,-8.6005,-8.6281,-8.6433,-8.6437,-8.6561,-8.6591,-8.6766,-8.6724,-8.6647,-8.6654,-8.6732,-8.6795,-8.6775,-8.6583,-8.6557,-8.6552,-8.6652,-8.6701,-8.6623,-8.6592,-8.6584,-8.6651,-8.6738,-8.6643,-8.6666,-8.6558,-8.6667,-8.6723,-8.6623,-8.6528,-8.6572,-8.6684,-8.687,-8.6785,-8.6748,-8.679,-8.6801,-8.6862,-8.6904,-8.671,-8.6815,-8.6935,-8.7043,-8.7051,-8.7041,-8.6969,-8.7036,-8.7082,-8.709,-8.7074,-8.7007,-8.7053,-8.7189,-8.724,-8.7097,-8.7006,-8.7039,-8.7166,-8.728,-8.7218,-8.7172,-8.7134,-8.7129,-8.7329,-8.7286,-8.7186,-8.7205,-8.7283,-8.7278,-8.7251,-8.7245,-8.7241,-8.7256,-8.7398,-8.7383,-8.7227,-8.7187,-8.725,-8.7287,-8.7352,-8.7223,-8.7166,-8.7251,-8.7352,-8.7328,-8.7188,-8.7214,-8.7193,-8.7293,-8.7332,-8.7267,-8.7096,-8.7247,-8.744,-8.7434,-8.737,-8.717,-8.7194,-8.7281,-8.7332,-8.7271,-8.7187,-8.7095,-8.7203,-8.7206,-8.7138,-8.6815,-8.6726,-8.6909,-8.6933,-8.6933,-8.6808,-8.644,-8.6165,-8.6047,-8.5979,-8.5956,-8.6141,-8.6244,-8.6484,-8.6635,-8.6673,-8.6622,-8.6907,-8.724,-8.7293,-8.7296,-8.7246,-8.7402,-8.7451,-8.7533,-8.7413,-8.7375,-8.7334,-8.7332,-8.7556,-8.7458,-8.7374,-8.715,-8.6267,-8.4452,-8.2235,-8.0416,-7.853,-7.6952,-7.7528,-8.2957,-8.9389,-9.471,-9.3399,-9.0751,-8.9509,-8.7891,-8.7025,-8.6445,-8.6654,-8.6399,-8.649,-8.6136,-8.6256,-8.6127,-8.6215,-8.5924,-8.6026,-8.5752,-8.6007,-8.5712,-8.5749,-8.5509,-8.5504,-8.5428,-8.5462,-8.5357,-8.5278,-8.5051,-8.5089,-8.504,-8.4993,-8.4738,-8.4657,-8.4518,-8.4513,-8.4371,-8.4262,-8.4053,-8.3895,-8.3738,-8.3677,-8.3504,-8.3189,-8.318,-8.3134,-8.2889,-8.2732,-8.2481,-8.2278,-8.2186,-8.2077,-8.1851,-8.1595,-8.1525,-8.135,-8.1378,-8.1293,-8.1152,-8.1073,-8.1095,-8.1149,-8.1108,-8.0982,-8.1286,-8.148,-8.1788,-8.1849,-8.2214,-8.2598,-8.3139,-8.3636,-8.4177,-8.4395,-8.4753,-8.5091,-8.555,-8.5722,-8.5885,-8.5856,-8.6127,-8.6332,-8.6388,-8.6389,-8.6379,-8.6528,-8.6502,-8.639,-8.6449,-8.6365,-8.6392,-8.6381,-8.6369,-8.626,-8.6231,-8.6162,-8.6269,-8.6315,-8.6262,-8.6196,-8.611,-8.6078,-8.6268,-8.6187,-8.6085,-8.5979,-8.6173,-8.6231,-8.6324,-8.6225,-8.6236,-8.6207,-8.653,-8.6484,-8.6396,-8.6499,-8.6451,-8.6588,-8.6613,-8.6637,-8.6525,-8.676,-8.6765,-8.6678,-8.6699,-8.6627,-8.6801,-8.6798,-8.6851,-8.6819,-8.6849,-8.6743,-8.6816,-8.6895,-8.6839,-8.6796,-8.6731,-8.6909,-8.6859,-8.6856,-8.675,-8.6801,-8.6822,-8.6883,-8.6878,-8.6794,-8.6805,-8.6813,-8.6842,-8.6922,-8.6921,-8.6797,-8.6746,-8.6881,-8.6912,-8.6876,-8.6854,-8.686,-8.676,-8.6633,-8.6491,-8.637,-8.6443,-8.6529,-8.6495,-8.6426,-8.5796,-8.5626,-8.5648,-8.5834,-8.5948,-8.593,-8.6149,-8.6291,-8.6391,-8.6514,-8.6617,-8.6795,-8.6888,-8.7087,-8.7037,-8.6954,-8.6867,-8.6969,-8.706,-8.7199,-8.7088,-8.7098,-8.7101,-8.7115,-8.7139,-8.7103,-8.6406,-8.4812,-8.3038,-8.1133,-7.9606,-7.7971,-7.7543,-8.1156,-8.6316,-9.3252,-9.4168,-9.1376,-8.9892,-8.8506,-8.7624,-8.6795,-8.6365,-8.6239,-8.6382,-8.618,-8.627,-8.6015,-8.61,-8.6066,-8.602,-8.5805,-8.5875,-8.5751,-8.5905,-8.5576,-8.5558,-8.541,-8.5532,-8.5412,-8.5349,-8.5229,-8.5028,-8.5041,-8.5135,-8.4932,-8.4807,-8.4621,-8.4613,-8.4472,-8.4457,-8.4228,-8.4041,-8.3832,-8.3817,-8.3682,-8.3571,-8.3152,-8.3041,-8.2872,-8.2774,-8.2619,-8.2408,-8.2215,-8.2089,-8.1905,-8.1715,-8.1532,-8.1313,-8.1271,-8.1239,-8.1267,-8.1098,-8.108,-8.1112,-8.1135,-8.1266,-8.1359,-8.1564,-8.1917,-8.2484,-8.2727,-8.3151,-8.361,-8.3986,-8.4514,-8.4887,-8.5272,-8.5538,-8.5868,-8.6171,-8.6485,-8.6513,-8.655,-8.6624,-8.6843,-8.6783,-8.6855,-8.6776,-8.6768,-8.6704,-8.6783,-8.6753,-8.6749,-8.6673,-8.6667,-8.6686,-8.6818,-8.6585,-8.663,-8.656,-8.661,-8.6659,-8.6598,-8.651,-8.6505,-8.6601,-8.6637,-8.6568,-8.6618,-8.6601,-8.6629,-8.671,-8.6689,-8.6628,-8.6709,-8.6776,-8.6906,-8.6944,-8.6896,-8.6866,-8.6955,-8.7107,-8.7019,-8.695,-8.6947,-8.7021,-8.7187,-8.7148,-8.7097,-8.7055,-8.7079,-8.7137,-8.7313,-8.7255,-8.7221,-8.7197,-8.7364,-8.736,-8.722,-8.7211,-8.7174,-8.7255,-8.728,-8.724,-8.7238,-8.725,-8.7305,-8.7238,-8.7228,-8.7277,-8.731,-8.7267,-8.7468,-8.742,-8.7251,-8.7276,-8.7395,-8.7512,-8.7495,-8.7181,-8.6999,-8.6957,-8.7082,-8.7074,-8.6989,-8.6983,-8.6711,-8.6515,-8.6257,-8.6151,-8.6282,-8.6523,-8.6616,-8.6807,-8.6901,-8.6898,-8.6957,-8.7293,-8.7436,-8.7538,-8.7509,-8.7555,-8.7741,-8.7748,-8.7737,-8.7635,-8.7687,-8.7737,-8.7758,-8.7761,-8.7759,-8.7776,-8.7697,-8.7242,-8.5629,-8.3488,-8.1482,-7.9737,-7.8051,-7.703,-8.0531,-8.3562,-9.3225,-9.4912,-9.1968,-9.0652,-8.8978,-8.8064,-8.7023,-8.7512,-8.6775,-8.7086,-8.6762,-8.7002,-8.6617,-8.6886,-8.6435,-8.684,-8.6461,-8.6705,-8.6237,-8.6508,-8.6149,-8.6395,-8.6152,-8.6261,-8.5923,-8.6103,-8.5863,-8.6002,-8.5702,-8.572,-8.5556,-8.5643,-8.5455,-8.5471,-8.5132,-8.5068,-8.4917,-8.4939,-8.4691,-8.4507,-8.4222,-8.4209,-8.4035,-8.3859,-8.3517,-8.3367,-8.3094,-8.3064,-8.2881,-8.2666,-8.2403,-8.2225,-8.2032,-8.1993,-8.1905,-8.1676,-8.1606,-8.1527,-8.1623,-8.1556,-8.1543,-8.1593,-8.1868,-8.208,-8.2399,-8.2718,-8.3214,-8.3447,-8.4115,-8.4476,-8.4961,-8.5272,-8.5679,-8.6146,-8.6486,-8.6556,-8.6742,-8.6929,-8.7225,-8.7237,-8.7356,-8.7286,-8.7345,-8.7355,-8.736,-8.7283,-8.731,-8.7222,-8.7321,-8.7296,-8.7287,-8.713,-8.7128,-8.7112,-8.7188,-8.7033,-8.7043,-8.6963,-8.7163,-8.715,-8.7166,-8.6942,-8.6982,-8.69,-8.7083,-8.6979,-8.7025,-8.6997,-8.7091,-8.7137,-8.7183,-8.7088,-8.7206,-8.726,-8.7356,-8.732,-8.7353,-8.7229,-8.7364,-8.7438,-8.7506,-8.7411,-8.7451,-8.7402,-8.7507,-8.7529,-8.7589,-8.7454,-8.7424,-8.7467,-8.753,-8.7541,-8.7466,-8.7491,-8.7489,-8.753,-8.7524,-8.7475,-8.7453,-8.7422,-8.7581,-8.7571,-8.7547,-8.7482,-8.7463,-8.7543,-8.7589,-8.75,-8.7478,-8.7419,-8.7535,-8.7532,-8.7514,-8.7459,-8.7472,-8.7541,-8.7572,-8.753,-8.7479,-8.7486,-8.7502,-8.7584,-8.7487,-8.7476,-8.7494,-8.7551,-8.7523,-8.7556,-8.7489,-8.7464,-8.7479,-8.7541,-8.754,-8.7427,-8.744,-8.7471,-8.759,-8.7595,-8.7418,-8.725,-8.7036,-8.7057,-8.7112,-8.702,-8.7054,-8.7054,-8.6596,-8.6483,-8.6175,-8.603,-8.6272,-8.6455,-8.6608,-8.675,-8.6762,-8.6835,-8.7,-8.7214,-8.7331,-8.7386,-8.7442,-8.7465,-8.7531,-8.7501,-8.7398,-8.7474,-8.7509,-8.7602,-8.7605,-8.7563,-8.7518,-8.7492,-8.712,-8.5591,-8.3418,-8.1403,-7.9616,-7.7624,-7.6039,-7.8873,-8.532,-9.2042,-9.4318,-9.2098,-9.0192,-8.9018,-8.7293,-8.6941,-8.6916,-8.6541,-8.644,-8.6402,-8.6384,-8.6368,-8.6275,-8.6121,-8.6163,-8.6111,-8.6037,-8.5969,-8.5849,-8.5836,-8.579,-8.5802,-8.5677,-8.5593,-8.5434,-8.546,-8.5383,-8.5298,-8.5183,-8.4968,-8.4867,-8.4858,-8.4771,-8.459,-8.4363,-8.4197,-8.4153,-8.4125,-8.392,-8.3644,-8.3485,-8.3446,-8.3221,-8.2935,-8.2703,-8.2611,-8.2479,-8.2312,-8.2063,-8.178,-8.1593,-8.144,-8.1379,-8.1264,-8.1087,-8.0981,-8.0997,-8.0975,-8.0924,-8.0795,-8.0825,-8.0963,-8.1185,-8.1393,-8.1484,-8.1731,-8.22,-8.2719,-8.3162,-8.361,-8.3993,-8.4393,-8.484,-8.5202,-8.5418,-8.5635,-8.5817,-8.6075,-8.6233,-8.6238,-8.6259,-8.6239,-8.6318,-8.6316,-8.6334,-8.6256,-8.6186,-8.6204,-8.6271,-8.6203,-8.6137,-8.5955,-8.6018,-8.6033,-8.6131,-8.5934,-8.5915,-8.5946,-8.59,-8.5913,-8.5718,-8.5755,-8.5725,-8.5797,-8.5819,-8.5753,-8.5704,-8.5678,-8.5812,-8.5859,-8.5845,-8.5895,-8.5846,-8.5972,-8.5995,-8.6052,-8.6046,-8.6132,-8.6144,-8.6261,-8.6186,-8.6195,-8.6211,-8.6325,-8.6363,-8.6383,-8.6343,-8.6336,-8.6335,-8.6473,-8.6503,-8.6398,-8.6382,-8.6379,-8.6459,-8.6432,-8.6345,-8.6356,-8.6428,-8.6533,-8.6499,-8.6389,-8.6405,-8.637,-8.6425,-8.6538,-8.6503,-8.6297,-8.6383,-8.6524,-8.6582,-8.6526,-8.6448,-8.6413,-8.6485,-8.6507,-8.643,-8.6392,-8.6442,-8.6449,-8.6484,-8.6466,-8.6312,-8.642,-8.6455,-8.6483,-8.6495,-8.6428,-8.6445,-8.6402,-8.6487,-8.646,-8.6452,-8.6418,-8.6431,-8.6433,-8.6507,-8.6421,-8.6403,-8.6391,-8.6529,-8.6524,-8.643,-8.6353,-8.6325,-8.6053,-8.5998,-8.596,-8.599,-8.5956,-8.6059,-8.5813,-8.5432,-8.5038,-8.5013,-8.5251,-8.5453,-8.5514,-8.5554,-8.5743,-8.5865,-8.6,-8.619,-8.618,-8.6278,-8.635,-8.6491,-8.6478,-8.6417,-8.6461,-8.6461,-8.6502,-8.6558,-8.6468,-8.6419,-8.6466,-8.6493,-8.6195,-8.4757,-8.2602,-8.0615,-7.8986,-7.707,-7.5234,-7.5302,-8.0651,-8.7098,-9.3119,-9.2813,-9.0144,-8.8899,-8.7062,-8.6194,-8.5731,-8.5504,-8.5342,-8.5582,-8.5444,-8.5521,-8.5123,-8.5272,-8.5065,-8.5212,-8.5003,-8.5104,-8.4848,-8.492,-8.4769,-8.4906,-8.4719,-8.4634,-8.4512,-8.4489,-8.4397,-8.4338,-8.4074,-8.4036,-8.3969,-8.3966,-8.3736,-8.3576,-8.3515,-8.3403,-8.3236,-8.3094,-8.2959,-8.2803,-8.2717,-8.2638,-8.2461,-8.2162,-8.1879,-8.1731,-8.1618,-8.1516,-8.1248,-8.0946,-8.0828,-8.0735,-8.064,-8.0371,-8.0307,-8.0279,-8.0275,-8.0269,-8.0257,-7.9995,-8.016,-8.0274,-8.0394,-8.054,-8.0643,-8.1056,-8.1547,-8.1934,-8.2517,-8.2764,-8.3406,-8.3809,-8.4257,-8.4492,-8.4641,-8.5006,-8.5245,-8.5403,-8.5543,-8.5589,-8.5669,-8.5641,-8.5817,-8.5853,-8.5707,-8.5685,-8.5737,-8.5727,-8.5828,-8.5673,-8.5591,-8.5631,-8.5746,-8.5715,-8.5628,-8.5458,-8.5605,-8.5606,-8.5689,-8.5708,-8.5686,-8.5636,-8.5688,-8.5736,-8.5709,-8.5634,-8.5767,-8.5744,-8.5795,-8.5736,-8.5865,-8.5774,-8.5998,-8.6026,-8.6066,-8.5997,-8.6031,-8.6064,-8.6176,-8.6178,-8.6111,-8.6059,-8.6292,-8.6267,-8.6363,-8.6272,-8.6174,-8.6222,-8.6302,-8.6424,-8.6319,-8.6255,-8.6371,-8.6393,-8.6392,-8.6283,-8.6318,-8.632,-8.64,-8.6541,-8.6394,-8.6397,-8.6335,-8.6417,-8.655,-8.6486,-8.6427,-8.6413,-8.6382,-8.6568,-8.6545,-8.6503,-8.6407,-8.6403,-8.6498,-8.6511,-8.6426,-8.6421,-8.6398,-8.6543,-8.6594,-8.6493,-8.6315,-8.6447,-8.6534,-8.6656,-8.648,-8.6476,-8.6481,-8.6621,-8.6499,-8.6561,-8.6445,-8.6572,-8.6548,-8.6572,-8.6651,-8.6413,-8.632,-8.6198,-8.6156,-8.619,-8.6117,-8.6119,-8.6082,-8.5702,-8.5506,-8.5167,-8.5156,-8.5413,-8.5442,-8.5742,-8.5824,-8.5851,-8.607,-8.6302,-8.6425,-8.6492,-8.6469,-8.6553,-8.6589,-8.6718,-8.673,-8.656,-8.6653,-8.6703,-8.6773,-8.6689,-8.6627,-8.6695,-8.6509,-8.5808,-8.4006,-8.182,-8.0202,-7.8489,-7.7724,-7.6897,-7.9061,-8.4724,-9.1766,-9.4369,-9.1697,-8.9682,-8.8238,-8.717,-8.6168,-8.6004,-8.5806,-8.5802,-8.5652,-8.573,-8.5807,-8.557,-8.5362,-8.5493,-8.5465,-8.5466,-8.5382,-8.5229,-8.5121,-8.5079,-8.5013,-8.499,-8.4807,-8.4836,-8.4788,-8.4697,-8.445,-8.4284,-8.4287,-8.4312,-8.4149,-8.411,-8.3839,-8.365,-8.3631,-8.3596,-8.3451,-8.3196,-8.3029,-8.2927,-8.2903,-8.2638,-8.2405,-8.2237,-8.2133,-8.201,-8.1826,-8.1624,-8.1399,-8.1288,-8.1414,-8.126,-8.1001,-8.0914,-8.0931,-8.0907,-8.0862,-8.0886,-8.0709,-8.0829,-8.0964,-8.1047,-8.1356,-8.1565,-8.1859,-8.235,-8.2805,-8.3259,-8.3717,-8.3986,-8.4513,-8.4941,-8.5215,-8.5409,-8.5485,-8.5634,-8.5839,-8.5926,-8.5937,-8.5931,-8.6045,-8.6067,-8.6117,-8.6016,-8.5941,-8.5931,-8.5986,-8.5867,-8.5944,-8.5809,-8.5785,-8.5985,-8.5864,-8.5785,-8.5659,-8.5723,-8.5802,-8.5854,-8.5792,-8.5727,-8.577,-8.584,-8.6048,-8.5991,-8.5868,-8.5913,-8.6114,-8.608,-8.6124,-8.6061,-8.6145,-8.6185,-8.6248,-8.6409,-8.6322,-8.6201,-8.6326,-8.6457,-8.6328,-8.6361,-8.6406,-8.6492,-8.6459,-8.6436,-8.6384,-8.6381,-8.6463,-8.6472,-8.6636,-8.6454,-8.6375,-8.6409,-8.6579,-8.6675,-8.6634,-8.6532,-8.6491,-8.6545,-8.6604,-8.6592,-8.6423,-8.6402,-8.6395,-8.6294,-8.6196,-8.6077,-8.6098,-8.6145,-8.6241,-8.6036,-8.5689,-8.5432,-8.532,-8.5549,-8.5624,-8.5696,-8.5647,-8.5873,-8.6132,-8.6209,-8.6359,-8.6502,-8.6691,-8.6755,-8.6679,-8.6781,-8.6765,-8.6761,-8.6816,-8.6818,-8.6809,-8.6734,-8.6773,-8.6779,-8.6905,-8.6817,-8.6484,-8.5398,-8.3611,-8.1714,-8.0058,-7.831,-7.7163,-7.8721,-8.3787,-9.045,-9.4615,-9.2425,-9.0003,-8.8989,-8.7754,-8.6574,-8.5952,-8.6122,-8.5995,-8.5956,-8.5782,-8.5798,-8.5642,-8.5789,-8.5785,-8.5751,-8.5525,-8.5493,-8.5507,-8.5519,-8.5364,-8.5225,-8.5134,-8.5195,-8.5085,-8.4971,-8.4819,-8.4855,-8.4831,-8.481,-8.4574,-8.4466,-8.4225,-8.4338,-8.4195,-8.4124,-8.3811,-8.3751,-8.3634,-8.3502,-8.3314,-8.3086,-8.2862,-8.2754,-8.2674,-8.2375,-8.2102,-8.1802,-8.1746,-8.167,-8.1525,-8.1256,-8.1091,-8.0967,-8.0996,-8.0971,-8.0785,-8.0718,-8.0731,-8.0787,-8.0956,-8.1094,-8.1281,-8.1648,-8.221,-8.2583,-8.3154,-8.3508,-8.3715,-8.4113,-8.4625,-8.4998,-8.5258,-8.547,-8.5772,-8.5984,-8.626,-8.6268,-8.6302,-8.6371,-8.6489,-8.6525,-8.6588,-8.6459,-8.6564,-8.6555,-8.6539,-8.6475,-8.6376,-8.6389,-8.6391,-8.6441,-8.6479,-8.6438,-8.6378,-8.6382,-8.6414,-8.6434,-8.632,-8.6343,-8.6328,-8.6389,-8.6431,-8.6372,-8.6388,-8.6435,-8.6552,-8.654,-8.6466,-8.6409,-8.6535,-8.67,-8.6751,-8.6649,-8.6654,-8.662,-8.6732,-8.6767,-8.6817,-8.6796,-8.673,-8.6922,-8.6837,-8.6846,-8.685,-8.6848,-8.6952,-8.6925,-8.6958,-8.6894,-8.6862,-8.6884,-8.6928,-8.6916,-8.6901,-8.6842,-8.6861,-8.6981,-8.6949,-8.6792,-8.6804,-8.6865,-8.692,-8.693,-8.6862,-8.6786,-8.6902,-8.6933,-8.6979,-8.6934,-8.6839,-8.6818,-8.6918,-8.6921,-8.6687,-8.6461,-8.6451,-8.6645,-8.6585,-8.662,-8.6331,-8.5953,-8.5809,-8.5724,-8.5794,-8.5981,-8.5997,-8.613,-8.6362,-8.6434,-8.6481,-8.6611,-8.6754,-8.7015,-8.7058,-8.7115,-8.7108,-8.7198,-8.7359,-8.7325,-8.7198,-8.7156,-8.7126,-8.7363,-8.7394,-8.7292,-8.713,-8.6978,-8.615,-8.413,-8.2017,-8.0186,-7.8226,-7.6481,-7.6847,-8.2558,-8.9234,-9.4392,-9.3023,-9.058,-8.9492,-8.7698,-8.6786,-8.653,-8.6513,-8.6292,-8.6371,-8.6116,-8.6281,-8.6105,-8.6147,-8.5838,-8.5916,-8.5782,-8.5899,-8.5749,-8.5719,-8.5457,-8.5576,-8.5535,-8.5535,-8.5309,-8.5327,-8.5149,-8.5151,-8.5042,-8.4933,-8.4739,-8.4681,-8.4509,-8.4507,-8.4381,-8.4185,-8.4035,-8.3944,-8.3795,-8.3624,-8.3355,-8.3131,-8.3007,-8.2876,-8.2641,-8.2386,-8.2157,-8.2013,-8.1744,-8.1558,-8.1375,-8.1213,-8.104,-8.0962,-8.0895,-8.0798,-8.0624,-8.0603,-8.0625,-8.0686,-8.0652,-8.0688,-8.0868,-8.1198,-8.1687,-8.2081,-8.251,-8.2999,-8.3599,-8.4016,-8.4256,-8.4545,-8.491,-8.5258,-8.565,-8.5791,-8.5942,-8.6052,-8.6293,-8.6409,-8.6459,-8.6383,-8.6477,-8.6322,-8.6382,-8.646,-8.6436,-8.6426,-8.6502,-8.645,-8.6497,-8.6418,-8.6242,-8.6219,-8.6344,-8.6335,-8.6312,-8.6208,-8.6219,-8.6274,-8.627,-8.6187,-8.6229,-8.6255,-8.6325,-8.6356,-8.6366,-8.6239,-8.6353,-8.6446,-8.6517,-8.649,-8.6368,-8.6383,-8.6512,-8.6642,-8.6709,-8.6546,-8.6585,-8.6657,-8.6777,-8.6791,-8.6683,-8.6698,-8.6752,-8.676,-8.6774,-8.6686,-8.6711,-8.6709,-8.687,-8.6872,-8.6813,-8.6668,-8.6759,-8.677,-8.6852,-8.6827,-8.6786,-8.6741,-8.6814,-8.6906,-8.688,-8.6759,-8.6743,-8.6795,-8.6806,-8.6813,-8.6691,-8.6766,-8.6801,-8.6905,-8.6876,-8.6788,-8.677,-8.6746,-8.6882,-8.6877,-8.6772,-8.6775,-8.6762,-8.6926,-8.6911,-8.6795,-8.6744,-8.6794,-8.6855,-8.684,-8.6771,-8.6755,-8.6728,-8.6787,-8.6841,-8.6797,-8.6731,-8.6812,-8.6811,-8.6859,-8.6905,-8.6782,-8.6763,-8.6772,-8.686,-8.685,-8.6799,-8.6786,-8.6877,-8.6936,-8.6917,-8.6824,-8.6812,-8.6844,-8.6726,-8.6481,-8.6335,-8.6425,-8.6406,-8.6571,-8.6346,-8.598,-8.5602,-8.5455,-8.5731,-8.5905,-8.5879,-8.6034,-8.6089,-8.6343,-8.6467,-8.663,-8.6696,-8.6771,-8.6855,-8.6953,-8.6977,-8.6878,-8.69,-8.7033,-8.7053,-8.6997,-8.6936,-8.6949,-8.7018,-8.7078,-8.6789,-8.5454,-8.337,-8.145,-7.9805,-7.78,-7.6676,-7.5598,-8.0113,-8.6735,-9.2932,-9.3445,-9.0764,-8.9607,-8.7924,-8.682,-8.6324,-8.6212,-8.5953,-8.6188,-8.5924,-8.5979,-8.5632,-8.5796,-8.5685,-8.5944,-8.5546,-8.5576,-8.5346,-8.5465,-8.5335,-8.5438,-8.5179,-8.524,-8.5047,-8.5142,-8.4984,-8.4904,-8.4657,-8.4749,-8.4604,-8.459,-8.43,-8.4205,-8.4029,-8.4051,-8.3938,-8.3812,-8.3588,-8.3495,-8.3379,-8.3176,-8.2979,-8.2741,-8.2598,-8.2492,-8.2318,-8.2052,-8.1812,-8.164,-8.1491,-8.132,-8.1175,-8.099,-8.0941,-8.0968,-8.0914,-8.0831,-8.0641,-8.0636,-8.0661,-8.0759,-8.0816,-8.0823,-8.1038,-8.1429,-8.1883,-8.2202,-8.259,-8.2936,-8.3459,-8.3922,-8.4359,-8.4531,-8.4917,-8.4937,-8.5235,-8.5443,-8.5619,-8.5604,-8.5683,-8.5812,-8.6027,-8.5922,-8.5887,-8.5774,-8.5912,-8.585,-8.5881,-8.5736,-8.5724,-8.5739,-8.5758,-8.5711,-8.5673,-8.5597,-8.5651,-8.566,-8.5683,-8.5436,-8.5561,-8.5648,-8.5742,-8.571,-8.564,-8.5537,-8.5706,-8.5773,-8.5812,-8.5724,-8.5764,-8.5709,-8.5934,-8.5928,-8.5874,-8.5806,-8.5935,-8.6025,-8.6101,-8.5984,-8.5935,-8.6026,-8.6124,-8.6176,-8.6136,-8.6027,-8.6071,-8.6169,-8.6226,-8.6206,-8.6079,-8.6079,-8.6068,-8.6158,-8.6192,-8.6152,-8.6161,-8.6191,-8.6263,-8.6224,-8.6112,-8.6103,-8.6205,-8.6271,-8.6251,-8.6143,-8.6132,-8.6105,-8.616,-8.6211,-8.622,-8.6126,-8.6156,-8.627,-8.6238,-8.6179,-8.6141,-8.614,-8.6196,-8.6313,-8.6293,-8.6132,-8.614,-8.6175,-8.6242,-8.6169,-8.6166,-8.6117,-8.616,-8.6201,-8.6266,-8.6171,-8.6098,-8.6204,-8.6232,-8.6217,-8.6179,-8.6191,-8.617,-8.6289,-8.6267,-8.6133,-8.6097,-8.618,-8.6228,-8.6285,-8.6182,-8.6121,-8.6186,-8.6255,-8.6281,-8.6199,-8.6109,-8.6113,-8.6208,-8.6244,-8.6167,-8.6167,-8.617,-8.6198,-8.6032,-8.5823,-8.5671,-8.5756,-8.5695,-8.5877,-8.5692,-8.521,-8.4875,-8.4747,-8.4945,-8.5163,-8.5154,-8.5384,-8.5484,-8.5591,-8.5703,-8.5821,-8.5955,-8.6048,-8.6258,-8.6263,-8.624,-8.6239,-8.6277,-8.6344,-8.6358,-8.6372,-8.6222,-8.6316,-8.6351,-8.6368,-8.5864,-8.4369,-8.2335,-8.136,-7.9635,-7.7812,-7.577,-7.5532,-8.1395,-8.7918,-9.3418,-9.232,-8.9683,-8.8681,-8.686,-8.5953,-8.5609,-8.5525,-8.5311,-8.5569,-8.5266,-8.5411,-8.4992,-8.5123,-8.5033,-8.5152,-8.4949,-8.5033,-8.4824,-8.4964,-8.4787,-8.4824,-8.4583,-8.4649,-8.4487,-8.4499,-8.4338,-8.4184,-8.4052,-8.41,-8.4005,-8.3852,-8.3621,-8.3591,-8.346,-8.3443,-8.3301,-8.3148,-8.2965,-8.2869,-8.2833,-8.2632,-8.241,-8.2111,-8.1968,-8.1852,-8.1664,-8.1408,-8.1159,-8.1011,-8.0921,-8.0788,-8.0578,-8.0535,-8.0403,-8.0429,-8.0447,-8.0289,-8.0229,-8.0155,-8.0276,-8.0301,-8.0404,-8.0406,-8.0752,-8.1103,-8.1543,-8.1928,-8.2318,-8.2711,-8.3261,-8.3735,-8.4169,-8.4249,-8.4477,-8.4753,-8.5063,-8.5328,-8.5431,-8.5444,-8.5561,-8.5653,-8.5739,-8.5615,-8.5622,-8.5548,-8.5737,-8.5722,-8.5628,-8.5496,-8.5629,-8.5599,-8.5628,-8.5586,-8.5526,-8.5411,-8.5602,-8.5564,-8.5535,-8.5384,-8.5474,-8.5465,-8.5628,-8.5575,-8.5534,-8.5453,-8.554,-8.5646,-8.5686,-8.5616,-8.5693,-8.5768,-8.5793,-8.5819,-8.5765,-8.5718,-8.584,-8.5876,-8.5966,-8.5868,-8.5864,-8.5932,-8.6013,-8.6049,-8.6069,-8.5999,-8.6026,-8.6029,-8.6101,-8.6002,-8.5977,-8.6069,-8.6099,-8.6117,-8.6162,-8.6089,-8.6052,-8.6078,-8.6238,-8.6144,-8.6112,-8.6103,-8.6144,-8.6248,-8.6238,-8.6094,-8.6073,-8.6133,-8.6264,-8.6254,-8.6209,-8.6191,-8.6191,-8.6227,-8.627,-8.6158,-8.6066,-8.6139,-8.623,-8.6258,-8.6169,-8.6217,-8.6133,-8.6258,-8.6161,-8.6203,-8.611,-8.6134,-8.6116,-8.6209,-8.6235,-8.6015,-8.6113,-8.6157,-8.6302,-8.6332,-8.6185,-8.6097,-8.6172,-8.623,-8.6061,-8.6306,-8.6087,-8.6248,-8.6228,-8.6215,-8.6268,-8.6183,-8.6162,-8.6243,-8.6163,-8.6248,-8.6248,-8.6226,-8.6344,-8.6267,-8.592,-8.5983,-8.5913,-8.6058,-8.5996,-8.6118,-8.5699,-8.535,-8.5239,-8.5118,-8.5294,-8.5315,-8.5375,-8.5529,-8.5724,-8.5788,-8.5783,-8.5794,-8.6129,-8.6273,-8.63,-8.6281,-8.6335,-8.635,-8.6354,-8.6464,-8.6313,-8.6248,-8.6302,-8.6409,-8.6441,-8.6203,-8.562,-8.4253,-8.2303,-8.0378,-7.9496,-7.7488,-7.5908,-7.6296,-8.1844,-8.8501,-9.3653,-9.2239,-8.9517,-8.8621,-8.6929,-8.5874,-8.5292,-8.5425,-8.536,-8.5481,-8.5128,-8.5352,-8.4977,-8.5265,-8.5105,-8.4954,-8.4646,-8.4938,-8.4785,-8.4918,-8.4578,-8.4702,-8.4423,-8.4526,-8.438,-8.4302,-8.3967,-8.4129,-8.397,-8.3994,-8.388,-8.3735,-8.3528,-8.3564,-8.3466,-8.3329,-8.3019,-8.3013,-8.2878,-8.2718,-8.2598,-8.2357,-8.2219,-8.2171,-8.1986,-8.1718,-8.1473,-8.1264,-8.1186,-8.0962,-8.0835,-8.0517,-8.0469,-8.0234,-8.0275,-8.0359,-8.0236,-8.0162,-8.0116,-8.0245,-8.0181,-8.0313,-8.0237,-8.048,-8.0839,-8.1186,-8.1546,-8.1799,-8.2377,-8.2827,-8.329,-8.3622,-8.3896,-8.4229,-8.4499,-8.4763,-8.5036,-8.4928,-8.5227,-8.5233,-8.5647,-8.552,-8.5452,-8.5437,-8.5498,-8.5567,-8.5581,-8.5405,-8.5374,-8.529,-8.5487,-8.5383,-8.5369,-8.5202,-8.5272,-8.5306,-8.5365,-8.5199,-8.5196,-8.515,-8.5371,-8.5278,-8.5307,-8.5194,-8.5288,-8.5316,-8.547,-8.5361,-8.5333,-8.5457,-8.5492,-8.5494,-8.5498,-8.5408,-8.5462,-8.5592,-8.5747,-8.5685,-8.5626,-8.5681,-8.567,-8.5757,-8.5766,-8.5686,-8.5696,-8.5804,-8.5847,-8.5891,-8.588,-8.5673,-8.5887,-8.5866,-8.5869,-8.5829,-8.5867,-8.5836,-8.5943,-8.5971,-8.5857,-8.5773,-8.5869,-8.5925,-8.6057,-8.5921,-8.5872,-8.5973,-8.5952,-8.6043,-8.5921,-8.5963,-8.5851,-8.5931,-8.6055,-8.5975,-8.5908,-8.5847,-8.5814,-8.6052,-8.604,-8.5982,-8.595,-8.5937,-8.6066,-8.602,-8.5959,-8.5977,-8.6008,-8.6105,-8.6128,-8.5907,-8.5856,-8.5624,-8.5654,-8.5752,-8.5648,-8.5446,-8.5627,-8.5633,-8.5259,-8.4971,-8.4623,-8.48,-8.4895,-8.5149,-8.5218,-8.5385,-8.5438,-8.5636,-8.5856,-8.6007,-8.6035,-8.6014,-8.6134,-8.6229,-8.6233,-8.6235,-8.6123,-8.6209,-8.627,-8.6365,-8.6285,-8.6131,-8.6241,-8.6258,-8.5472,-8.3848,-8.1751,-7.9998,-7.846,-7.6917,-7.6662,-8.0861,-8.6231,-9.0159,-9.3686,-9.16,-8.9121,-8.8109,-8.6908,-8.6015,-8.5363,-8.5494,-8.5289,-8.5373,-8.5212,-8.5396,-8.5046,-8.5152,-8.4994,-8.5127,-8.4961,-8.4896,-8.476,-8.4778,-8.4704,-8.4799,-8.4575,-8.4452,-8.4344,-8.4375,-8.4336,-8.4182,-8.3912,-8.3948,-8.3862,-8.3855,-8.3625,-8.3454,-8.3372,-8.3409,-8.3161,-8.3062,-8.2745,-8.2804,-8.2616,-8.2466,-8.2374,-8.2101,-8.1807,-8.1731,-8.1509,-8.128,-8.1063,-8.0802,-8.0768,-8.0701,-8.0487,-8.0257,-8.0232,-8.0119,-8.0176,-8.0172,-8.0029,-7.9926,-8.0166,-8.0354,-8.0479,-8.079,-8.118,-8.1456,-8.2015,-8.2478,-8.2999,-8.3358,-8.3841,-8.4253,-8.455,-8.4824,-8.5049,-8.5211,-8.5501,-8.562,-8.5749,-8.5697,-8.5642,-8.5698,-8.5799,-8.5785,-8.5847,-8.5692,-8.5728,-8.5819,-8.5851,-8.5657,-8.5655,-8.5563,-8.5665,-8.5697,-8.562,-8.5524,-8.5576,-8.5609,-8.5628,-8.5597,-8.5455,-8.5572,-8.5695,-8.5646,-8.5766,-8.5688,-8.5726,-8.5751,-8.5868,-8.5805,-8.5911,-8.5816,-8.5997,-8.6033,-8.6087,-8.6026,-8.6072,-8.6107,-8.6253,-8.6221,-8.6234,-8.6151,-8.6184,-8.634,-8.6384,-8.626,-8.6216,-8.6335,-8.643,-8.6484,-8.6393,-8.6325,-8.6342,-8.648,-8.65,-8.6522,-8.6441,-8.6444,-8.6678,-8.6653,-8.6654,-8.6545,-8.6533,-8.659,-8.6719,-8.67,-8.6646,-8.66,-8.6615,-8.6723,-8.6692,-8.6618,-8.6615,-8.6684,-8.6705,-8.6669,-8.66,-8.6685,-8.6643,-8.6693,-8.6702,-8.6625,-8.6327,-8.6236,-8.624,-8.6293,-8.612,-8.6289,-8.5909,-8.5632,-8.5471,-8.544,-8.561,-8.5646,-8.5865,-8.5977,-8.6074,-8.6067,-8.63,-8.6398,-8.6605,-8.6771,-8.6876,-8.6861,-8.6954,-8.7119,-8.7149,-8.6895,-8.6883,-8.7079,-8.7187,-8.7127,-8.711,-8.7142,-8.6914,-8.5847,-8.3801,-8.1667,-7.9892,-7.8951,-7.7239,-7.6227,-8.0056,-8.6191,-9.2765,-9.365,-9.1196,-8.9652,-8.8251,-8.6839,-8.6283,-8.643,-8.6044,-8.6019,-8.6084,-8.6195,-8.6049,-8.6049,-8.5883,-8.6003,-8.5771,-8.5934,-8.573,-8.5752,-8.5576,-8.5658,-8.5654,-8.5656,-8.5451,-8.5408,-8.5214,-8.5401,-8.5237,-8.4977,-8.4819,-8.4934,-8.4798,-8.4726,-8.451,-8.445,-8.429,-8.4204,-8.4027,-8.3851,-8.3622,-8.3458,-8.3409,-8.3169,-8.2893,-8.2666,-8.2401,-8.2294,-8.2168,-8.1894,-8.1612,-8.143,-8.1281,-8.1204,-8.1095,-8.0962,-8.0775,-8.0715,-8.0801,-8.0723,-8.0637,-8.0791,-8.1034,-8.1326,-8.1707,-8.214,-8.2555,-8.3109,-8.3753,-8.4237,-8.4633,-8.499,-8.5406,-8.5729,-8.6182,-8.6265,-8.6279,-8.6429,-8.662,-8.6701,-8.7,-8.6871,-8.6981,-8.7056,-8.7061,-8.7004,-8.6988,-8.6867,-8.7039,-8.7001,-8.6998,-8.6807,-8.6838,-8.6837,-8.6912,-8.6903,-8.6837,-8.6676,-8.6686,-8.6814,-8.6775,-8.675,-8.6651,-8.6664,-8.6713,-8.6812,-8.673,-8.6687,-8.6686,-8.6686,-8.6755,-8.6757,-8.6699,-8.6734,-8.6766,-8.6868,-8.6889,-8.6919,-8.6925,-8.6959,-8.7069,-8.7028,-8.7015,-8.7016,-8.7164,-8.7218,-8.729,-8.7213,-8.7177,-8.7188,-8.7326,-8.7236,-8.7303,-8.7263,-8.7223,-8.7387,-8.7342,-8.734,-8.7339,-8.7347,-8.7426,-8.7507,-8.7451,-8.7377,-8.739,-8.7503,-8.7623,-8.7518,-8.7528,-8.7571,-8.7618,-8.7718,-8.7596,-8.7507,-8.7507,-8.7563,-8.7676,-8.7673,-8.762,-8.7549,-8.7561,-8.7579,-8.7568,-8.7478,-8.7602,-8.7552,-8.7646,-8.768,-8.7484,-8.7334,-8.7103,-8.7082,-8.716,-8.7113,-8.7051,-8.7196,-8.6861,-8.6638,-8.6234,-8.6227,-8.6465,-8.6534,-8.6647,-8.6783,-8.683,-8.6995,-8.7124,-8.7416,-8.7464,-8.7552,-8.7655,-8.7677,-8.7766,-8.7759,-8.7685,-8.7697,-8.7748,-8.7851,-8.7908,-8.779,-8.7813,-8.7796,-8.7644,-8.6417,-8.4303,-8.2102,-8.0431,-7.8594,-7.6793,-7.7797,-8.4271,-9.0965,-9.4869,-9.3097,-9.1723,-9.0386,-8.8659,-8.7535,-8.7199,-8.7094,-8.6699,-8.7016,-8.6728,-8.7047,-8.6693,-8.676,-8.6512,-8.6597,-8.6544,-8.6613,-8.6314,-8.642,-8.627,-8.6327,-8.6139,-8.6142,-8.5954,-8.6026,-8.5906,-8.5919,-8.5684,-8.5477,-8.5358,-8.5472,-8.5292,-8.5155,-8.4925,-8.4835,-8.469,-8.4647,-8.4405,-8.4261,-8.4042,-8.3999,-8.3817,-8.3621,-8.3308,-8.3039,-8.2917,-8.2838,-8.2529,-8.2195,-8.1961,-8.1848,-8.1802,-8.1685,-8.1418,-8.1324,-8.1343,-8.1284,-8.1377,-8.1189,-8.1083,-8.1045,-8.1,-8.1393,-8.1903,-8.2414,-8.3091,-8.3479,-8.4034,-8.441,-8.4597,-8.4757,-8.5361,-8.6136,-8.641,-8.6592,-8.6748,-8.6946,-8.6907,-8.6838,-8.6866,-8.7069,-8.7168,-8.7088,-8.7015,-8.6883,-8.6984,-8.6993,-8.7037,-8.7027,-8.6887,-8.6766,-8.6769,-8.6771,-8.6832,-8.6814,-8.6833,-8.6646,-8.6759,-8.6709,-8.6769,-8.6688,-8.6637,-8.6568,-8.6765,-8.679,-8.6893,-8.6855,-8.7056,-8.6963,-8.6721,-8.6782,-8.6988,-8.72,-8.727,-8.7126,-8.7099,-8.716,-8.7354,-8.7259,-8.7326,-8.7238,-8.7248,-8.732,-8.7371,-8.7333,-8.7245,-8.7197,-8.7235,-8.7488,-8.7408,-8.7294,-8.7143,-8.7229,-8.7423,-8.737,-8.7283,-8.7172,-8.7072,-8.7221,-8.7331,-8.7238,-8.7243,-8.7129,-8.7172,-8.7246,-8.729,-8.7225,-8.7301,-8.7277,-8.7333,-8.7225,-8.7064,-8.6885,-8.7144,-8.7177,-8.7237,-8.7173,-8.7104,-8.7245,-8.7179,-8.7105,-8.7107,-8.7099,-8.7011,-8.7105,-8.7129,-8.7023,-8.7089,-8.6977,-8.7037,-8.7106,-8.6863,-8.6839,-8.7017,-8.732,-8.7249,-8.675,-8.6426,-8.6499,-8.6781,-8.6814,-8.6795,-8.6737,-8.6298,-8.5985,-8.5667,-8.5788,-8.5883,-8.5986,-8.6184,-8.6486,-8.6515,-8.6381,-8.6472,-8.6646,-8.7005,-8.6997,-8.7036,-8.71,-8.6974,-8.6981,-8.7132,-8.7215,-8.7144,-8.7154,-8.7175,-8.7247,-8.7232,-8.7129,-8.6625,-8.5184,-8.302,-8.102,-7.9272,-7.7311,-7.577,-7.8239,-8.1786,-8.8168,-9.4118,-9.1943,-9.0598,-8.9438,-8.754,-8.6547,-8.6356,-8.6264,-8.597,-8.6105,-8.5879,-8.6072,-8.5861,-8.5893,-8.5655,-8.569,-8.561,-8.5634,-8.5556,-8.5477,-8.5308,-8.5353,-8.5367,-8.5342,-8.5137,-8.5023,-8.4929,-8.5048,-8.4904,-8.4764,-8.4662,-8.444,-8.4366,-8.4423,-8.4131,-8.4005,-8.381,-8.3735,-8.3621,-8.3389,-8.3183,-8.3163,-8.3039,-8.2975,-8.2738,-8.2414,-8.2254,-8.2022,-8.1916,-8.1668,-8.1369,-8.1183,-8.0959,-8.1078,-8.0895,-8.0794,-8.0734,-8.0608,-8.0705,-8.0646,-8.0693,-8.0695,-8.0803,-8.1105,-8.1503,-8.1803,-8.2184,-8.2686,-8.3353,-8.3818,-8.4212,-8.4571,-8.4901,-8.5346,-8.5678,-8.5829,-8.5907,-8.6026,-8.6218,-8.6348,-8.6546,-8.6496,-8.6406,-8.6356,-8.6539,-8.6673,-8.6462,-8.6528,-8.6491,-8.652,-8.6483,-8.6458,-8.6346,-8.6397,-8.6415,-8.6503,-8.6266,-8.6283,-8.6363,-8.6423,-8.6367,-8.6375,-8.623,-8.633,-8.6458,-8.648,-8.6526,-8.6343,-8.6423,-8.6472,-8.6588,-8.6521,-8.6606,-8.6559,-8.6665,-8.6844,-8.6785,-8.6663,-8.6756,-8.6861,-8.6906,-8.6834,-8.6766,-8.6803,-8.6866,-8.6963,-8.6971,-8.6846,-8.6738,-8.6877,-8.699,-8.6984,-8.6993,-8.6733,-8.6832,-8.6951,-8.6942,-8.6938,-8.6895,-8.6917,-8.7021,-8.6996,-8.6995,-8.6878,-8.7059,-8.6964,-8.7042,-8.6993,-8.6928,-8.6858,-8.7044,-8.7057,-8.7029,-8.6881,-8.6915,-8.7041,-8.699,-8.7033,-8.7012,-8.6894,-8.7019,-8.7035,-8.7102,-8.6875,-8.6942,-8.6969,-8.7074,-8.7065,-8.6876,-8.6907,-8.685,-8.6671,-8.6694,-8.6626,-8.6553,-8.6552,-8.6604,-8.629,-8.5998,-8.5606,-8.5647,-8.5747,-8.6085,-8.605,-8.6252,-8.6367,-8.6477,-8.6643,-8.6773,-8.7028,-8.6953,-8.7017,-8.7217,-8.7376,-8.7261,-8.7247,-8.7318,-8.7363,-8.7293,-8.7316,-8.7289,-8.7331,-8.7271,-8.731,-8.6473,-8.4873,-8.2827,-8.1068,-7.9197,-7.7617,-7.7525,-8.1992,-8.8049,-9.4703,-9.4492,-9.1618,-9.0036,-8.8666,-8.751,-8.6586,-8.6738,-8.6577,-8.6696,-8.6525,-8.6479,-8.629,-8.6427,-8.635,-8.6333,-8.6317,-8.6183,-8.5972,-8.6037,-8.6042,-8.6074,-8.5747,-8.5807,-8.564,-8.5801,-8.561,-8.5513,-8.5357,-8.526,-8.5197,-8.5155,-8.4974,-8.4758,-8.4794,-8.4694,-8.45,-8.4534,-8.4146,-8.4175,-8.3896,-8.3855,-8.3647,-8.3344,-8.3321,-8.3201,-8.2975,-8.2766,-8.2598,-8.2369,-8.2229,-8.2092,-8.1856,-8.1785,-8.1535,-8.1531,-8.1631,-8.1488,-8.1351,-8.1271,-8.1446,-8.1577,-8.1741,-8.178,-8.2115,-8.2566,-8.2939,-8.3452,-8.3693,-8.4025,-8.449,-8.4936,-8.5499,-8.5702,-8.5994,-8.621,-8.6486,-8.6761,-8.6806,-8.6785,-8.6788,-8.6909,-8.6902,-8.6999,-8.6998,-8.6936,-8.7043,-8.6956,-8.6908,-8.6863,-8.6746,-8.6696,-8.6864,-8.6852,-8.6775,-8.6657,-8.6739,-8.6691,-8.6827,-8.667,-8.6661,-8.6711,-8.6755,-8.6803,-8.68,-8.6678,-8.6792,-8.6827,-8.6926,-8.6881,-8.6872,-8.692,-8.7039,-8.6999,-8.7196,-8.7014,-8.7092,-8.7119,-8.7144,-8.7181,-8.7229,-8.7183,-8.7371,-8.7383,-8.7376,-8.7284,-8.735,-8.7276,-8.737,-8.7359,-8.7413,-8.7331,-8.7345,-8.7505,-8.7516,-8.7448,-8.7396,-8.754,-8.7487,-8.7394,-8.7379,-8.7382,-8.7367,-8.725,-8.7095,-8.7174,-8.6981,-8.6978,-8.7208,-8.716,-8.6717,-8.6395,-8.6216,-8.6332,-8.6511,-8.6631,-8.6629,-8.693,-8.7099,-8.7153,-8.7366,-8.7402,-8.7483,-8.7498,-8.7657,-8.7696,-8.7642,-8.767,-8.765,-8.7646,-8.7824,-8.7797,-8.7566,-8.7583,-8.7697,-8.7795,-8.7409,-8.632,-8.4586,-8.2763,-8.0988,-7.9224,-7.802,-7.9314,-8.4266,-9.0724,-9.543,-9.4662,-9.207,-9.0433,-8.9235,-8.8305,-8.7082,-8.692,-8.6881,-8.699,-8.6778,-8.6729,-8.6586,-8.6611,-8.6603,-8.6619,-8.6461,-8.6436,-8.6402,-8.6561,-8.6359,-8.6348,-8.6085,-8.603,-8.602,-8.5969,-8.5759,-8.5574,-8.549,-8.5433,-8.5413,-8.5218,-8.5007,-8.5051,-8.4937,-8.4838,-8.4859,-8.4482,-8.4311,-8.4386,-8.4264,-8.4377,-8.4021,-8.3821,-8.3546,-8.3396,-8.32,-8.2849,-8.2643,-8.242,-8.2346,-8.2134,-8.1961,-8.1745,-8.1738,-8.1679,-8.158,-8.1527,-8.1504,-8.1582,-8.1841,-8.1939,-8.2149,-8.2349,-8.2756,-8.3347,-8.3851,-8.4221,-8.4723,-8.517,-8.5559,-8.5979,-8.6324,-8.6592,-8.6707,-8.7074,-8.7308,-8.7358,-8.7404,-8.7487,-8.7619,-8.7663,-8.7651,-8.7608,-8.7533,-8.7497,-8.7599,-8.7584,-8.7428,-8.735,-8.7381,-8.7494,-8.7489,-8.7389,-8.7324,-8.7287,-8.7331,-8.7445,-8.7261,-8.7233,-8.7219,-8.7249,-8.7389,-8.7347,-8.7237,-8.7193,-8.7282,-8.7354,-8.7402,-8.7429,-8.7485,-8.7453,-8.7676,-8.7693,-8.7681,-8.762,-8.7572,-8.7802,-8.7763,-8.7632,-8.7784,-8.7684,-8.7762,-8.7815,-8.7782,-8.7753,-8.7698,-8.7743,-8.7776,-8.7617,-8.7637,-8.7633,-8.778,-8.7676,-8.7645,-8.7619,-8.7726,-8.7792,-8.7794,-8.7751,-8.7653,-8.7656,-8.7694,-8.7721,-8.7679,-8.7625,-8.756,-8.7335,-8.7294,-8.7349,-8.7247,-8.7266,-8.7293,-8.6892,-8.6679,-8.6386,-8.6453,-8.682,-8.6843,-8.6917,-8.7091,-8.7092,-8.7104,-8.7276,-8.7539,-8.7611,-8.766,-8.7773,-8.7859,-8.7919,-8.7923,-8.7805,-8.782,-8.7961,-8.7899,-8.7913,-8.783,-8.7946,-8.7949,-8.7872,-8.7047,-8.6277,-8.4263,-8.2284,-8.0647,-7.8554,-7.6727,-7.8243,-8.4649,-9.154,-9.497,-9.276,-9.0771,-8.9783,-8.8092,-8.7417,-8.7053,-8.6959,-8.705,-8.7047,-8.6965,-8.6938,-8.6763,-8.68,-8.6787,-8.6732,-8.6559,-8.6416,-8.6421,-8.6465,-8.6446,-8.6325,-8.6221,-8.6153,-8.6113,-8.6061,-8.5988,-8.5792,-8.566,-8.5617,-8.5574,-8.5542,-8.5336,-8.5148,-8.5057,-8.5067,-8.4848,-8.4564,-8.4411,-8.4235,-8.4173,-8.402,-8.3733,-8.344,-8.3197,-8.3054,-8.2849,-8.2565,-8.2344,-8.2134,-8.2037,-8.1945,-8.1655,-8.154,-8.1405,-8.1353,-8.135,-8.1266,-8.1252,-8.1218,-8.1332,-8.1553,-8.182,-8.2056,-8.2469,-8.3056,-8.3652,-8.4087,-8.4528,-8.5008,-8.5196,-8.5685,-8.5972,-8.6259,-8.643,-8.6599,-8.6929,-8.6997,-8.7094,-8.7066,-8.7166,-8.7269,-8.7227,-8.7219,-8.7239,-8.7197,-8.7236,-8.7232,-8.7123,-8.7032,-8.7011,-8.7049,-8.7129,-8.7037,-8.6924,-8.6937,-8.7019,-8.7008,-8.7018,-8.6947,-8.6898,-8.6967,-8.7065,-8.7052,-8.6891,-8.6886,-8.7053,-8.7165,-8.7091,-8.7122,-8.712,-8.703,-8.7195,-8.7241,-8.7252,-8.7253,-8.7233,-8.7324,-8.7349,-8.729,-8.7292,-8.7298,-8.7514,-8.7505,-8.7428,-8.7403,-8.7347,-8.7541,-8.7515,-8.7412,-8.7426,-8.7385,-8.7494,-8.7612,-8.754,-8.7548,-8.749,-8.7491,-8.7595,-8.7539,-8.7463,-8.7436,-8.7448,-8.7535,-8.7604,-8.7523,-8.7554,-8.7557,-8.7654,-8.769,-8.7655,-8.7494,-8.7521,-8.7574,-8.7532,-8.7586,-8.756,-8.7581,-8.7615,-8.7734,-8.7568,-8.7578,-8.7564,-8.7614,-8.7691,-8.7587,-8.7529,-8.7595,-8.7571,-8.7666,-8.7637,-8.7558,-8.7554,-8.7613,-8.7697,-8.7615,-8.7579,-8.7552,-8.7544,-8.7563,-8.7649,-8.7577,-8.7368,-8.7225,-8.7255
