0.89861,0.9163,0.94037,0.948,0.96533,0.94819,0.93736,0.92198,0.89886,0.89656,0.88477,0.82694,0.81159,0.81872,0.83067,0.81598,0.82205,0.80624,0.80937,0.8216,0.82318,0.80766,0.81218,0.84568,0.83762,0.82838,0.81502,0.75207,0.68236,0.67112,0.69378,0.79222,1.088,1.3279,1.7613,2.1503,2.2744,2.5791,2.2732,1.6067,0.97501,0.55225,0.39113,0.27221,0.31455,0.45808,0.60062,0.72183,0.80639,0.82377,0.84219,0.81974,0.8263,0.81927,0.84078,0.84975,0.83857,0.84113,0.83564,0.84641,0.85842,0.84364,0.84729,0.85088,0.87083,0.86769,0.86106,0.86129,0.86249,0.86462,0.87176,0.87351,0.87271,0.86208,0.8707,0.87239,0.89353,0.88671,0.85861,0.8626,0.87672,0.90211,0.88979,0.86726,0.90124,0.88272,0.87577,0.87377,0.88277,0.87691,0.87249,0.88678,0.87138,0.86503,0.88712,0.87419,0.89417,0.91914,0.90292,0.8922,0.90538,0.90338,0.93651,0.9329,0.91479,0.91936,0.93234,0.94579,0.95614,0.95975,0.95748,0.95651,0.99075,0.99866,0.96361,0.94208,0.94771,0.97158,0.92744,0.94098,0.94326,0.94414,0.93138,0.90625,0.88872,0.86962,0.91632,0.92159,0.8858,0.88719,0.89932,0.90484,0.90719,0.90747,0.88859,0.87816,0.86164,0.91607,0.91615,0.89373,0.88021,0.884,0.9136,0.90241,0.88683,0.88132,0.88219,0.89371,0.89688,0.88715,0.87493,0.88595,0.90272,0.89818,0.886,0.85955,0.86115,0.8568,0.87301,0.87589,0.87174,0.88028,0.87658,0.87913,0.88906,0.86115,0.86729,0.86077,0.87983,0.87844,0.86285,0.86927,0.87397,0.87184,0.86854,0.85321,0.8268,0.8668,0.87839,0.86175,0.84827,0.85824,0.84372,0.85735,0.86295,0.87089,0.86418,0.84868,0.86407,0.86409,0.85616,0.85481,0.84653,0.8591,0.85683,0.85354,0.82359,0.83577,0.862,0.87645,0.87432,0.84832,0.84964,0.85585,0.85934,0.85587,0.84171,0.84556,0.84143,0.85785,0.88117,0.88218,0.89193,0.91492,0.9042,0.9011,0.9046,0.91654,0.93226,0.94903,0.94968,0.9643,0.94702,0.91333,0.8961,0.90216,0.84852,0.82239,0.81357,0.8233,0.85123,0.81966,0.81781,0.81952,0.82796,0.83706,0.81893,0.83312,0.83328,0.83375,0.84411,0.82686,0.78557,0.68815,0.6661,0.69107,0.7697,1.0158,1.4483,1.9106,2.207,2.4001,2.5613,2.3566,1.7362,1.1105,0.61948,0.43175,0.32157,0.30787,0.40415,0.58541,0.72259,0.79203,0.82269,0.83857,0.8417,0.82787,0.84701,0.84178,0.8616,0.8536,0.86151,0.85081,0.83139,0.86303,0.8837,0.88421,0.86289,0.8427,0.84999,0.87935,0.88492,0.86524,0.88099,0.86649,0.88902,0.87347,0.87877,0.86563,0.87464,0.88946,0.89657,0.87288,0.8839,0.87795,0.87852,0.88546,0.88776,0.88184,0.88023,0.88404,0.90727,0.88968,0.88425,0.85964,0.88334,0.89499,0.90299,0.88176,0.8965,0.88332,0.90538,0.90793,0.91796,0.92119,0.93297,0.92688,0.93499,0.92214,0.9307,0.96005,0.9701,0.98335,0.96281,0.95488,0.99304,0.98982,0.97365,0.976,0.9704,0.98511,0.99062,0.98113,0.95856,0.93832,0.93663,0.93876,0.94815,0.93629,0.91078,0.90999,0.91281,0.89271,0.89077,0.89357,0.87539,0.91784,0.91302,0.89871,0.88997,0.88156,0.87521,0.90448,0.92736,0.90531,0.8837,0.88679,0.89237,0.89325,0.90681,0.88762,0.88353,0.87947,0.87221,0.88913,0.84547,0.88226,0.89993,0.89007,0.85505,0.86398,0.86362,0.88405,0.87762,0.86436,0.85051,0.86991,0.85631,0.86806,0.86429,0.84751,0.84128,0.86113,0.85659,0.8628,0.82308,0.84045,0.84984,0.87338,0.86249,0.85441,0.83926,0.84683,0.85716,0.86054,0.84994,0.84645,0.8482,0.82744,0.85792,0.84616,0.85514,0.84052,0.83594,0.86273,0.83938,0.84854,0.83393,0.83781,0.85715,0.84567,0.85382,0.84176,0.85134,0.84374,0.85835,0.84163,0.85085,0.88235,0.91587,0.89438,0.88148,0.8862,0.89405,0.94286,0.94536,0.93187,0.94637,0.94679,0.92448,0.89659,0.87627,0.86428,0.83506,0.82466,0.83142,0.82959,0.81549,0.80799,0.82448,0.81762,0.83064,0.81873,0.82725,0.82588,0.83169,0.81765,0.82257,0.7749,0.70221,0.68226,0.67623,0.71898,0.83965,1.1861,1.6439,1.9996,2.1727,2.34,2.2334,1.6581,1.0348,0.62306,0.41602,0.30876,0.31097,0.34174,0.4407,0.55595,0.69005,0.75828,0.78724,0.80972,0.80802,0.81438,0.81706,0.83896,0.8467,0.84444,0.81933,0.83865,0.85737,0.8498,0.85953,0.85672,0.86039,0.86584,0.8548,0.84906,0.84946,0.85031,0.86952,0.88043,0.86535,0.84604,0.84432,0.87424,0.89424,0.88178,0.8692,0.8743,0.87722,0.88615,0.86621,0.8604,0.88947,0.89864,0.88038,0.88735,0.87772,0.87363,0.89101,0.90096,0.87078,0.88203,0.89479,0.89624,0.89863,0.88832,0.91693,0.91161,0.91838,0.91779,0.90724,0.92601,0.92781,0.9364,0.96159,0.95088,0.94649,0.9493,0.96501,0.97854,0.98111,0.98684,0.95514,0.95971,0.97337,0.97043,0.95998,0.93625,0.93033,0.91922,0.91784,0.9146,0.89545,0.90543,0.89514,0.89212,0.88373,0.86897,0.87957,0.88087,0.89435,0.88565,0.8634,0.86179,0.87423,0.88263,0.87643,0.85723,0.86486,0.87017,0.88891,0.87744,0.86332,0.87088,0.87739,0.88776,0.88699,0.8683,0.85454,0.87224,0.89093,0.86809,0.88197,0.87716,0.86228,0.85841,0.88414,0.85276,0.84962,0.84322,0.87049,0.87577,0.86027,0.83974,0.84083,0.85367,0.86607,0.86772,0.8494,0.8469,0.84497,0.84957,0.85892,0.84169,0.83385,0.85896,0.84364,0.82883,0.83923,0.83781,0.83364,0.84696,0.84829,0.83654,0.83255,0.83761,0.85898,0.85535,0.83908,0.85261,0.85043,0.90456,0.9105,0.89306,0.87709,0.89246,0.91786,0.92245,0.94621,0.90824,0.91728,0.91376,0.87959,0.86603,0.86915,0.81642,0.80292,0.82032,0.8098,0.80203,0.79851,0.80924,0.80974,0.79761,0.80814,0.80522,0.79829,0.82503,0.82827,0.80385,0.77346,0.73797,0.66101,0.65845,0.65681,0.80507,1.1175,1.3508,1.7985,2.1383,2.2595,2.5758,2.1888,1.5518,0.89852,0.49999,0.35335,0.27051,0.3245,0.45196,0.60866,0.72143,0.80056,0.792,0.80552,0.81306,0.80013,0.80258,0.83487,0.81778,0.81415,0.8111,0.81778,0.83793,0.85796,0.81586,0.82277,0.83499,0.84604,0.8502,0.84634,0.82869,0.84102,0.84066,0.86045,0.84322,0.8087,0.82772,0.86485,0.87427,0.85212,0.84025,0.84093,0.84861,0.85189,0.87374,0.85545,0.84317,0.84431,0.85361,0.85428,0.87505,0.8468,0.85017,0.86851,0.85582,0.84923,0.83099,0.85505,0.88043,0.87384,0.86497,0.87447,0.87697,0.89323,0.88212,0.87863,0.87622,0.87845,0.91658,0.93839,0.93121,0.91613,0.92441,0.93897,0.93015,0.92192,0.94638,0.94216,0.93407,0.92893,0.92048,0.91157,0.91152,0.90363,0.91462,0.88708,0.86419,0.89231,0.86509,0.86741,0.88226,0.86664,0.85489,0.87274,0.84271,0.83759,0.86136,0.86493,0.86932,0.87003,0.8779,0.85692,0.83661,0.87224,0.871,0.85615,0.85522,0.83466,0.84921,0.86148,0.87294,0.86628,0.83353,0.83484,0.85357,0.86355,0.84792,0.83725,0.84211,0.85207,0.85387,0.85717,0.83834,0.82123,0.83797,0.85931,0.83838,0.8404,0.83013,0.83215,0.83827,0.82062,0.84954,0.82503,0.80561,0.84281,0.85129,0.84032,0.82637,0.83785,0.84022,0.84604,0.82307,0.80903,0.81559,0.81458,0.8305,0.81936,0.79652,0.84088,0.84542,0.84098,0.82826,0.81715,0.82262,0.83271,0.83628,0.8309,0.82278,0.80921,0.82798,0.82978,0.82018,0.81732,0.85476,0.88212,0.88762,0.89086,0.86011,0.86125,0.9089,0.92902,0.91573,0.92215,0.91665,0.92482,0.90026,0.8761,0.87671,0.84372,0.79982,0.8084,0.82044,0.8171,0.8035,0.80107,0.79483,0.78744,0.80729,0.80007,0.81026,0.81465,0.81685,0.80731,0.79789,0.77574,0.73965,0.66015,0.64709,0.67101,0.75658,1.0411,1.4752,1.9309,2.1727,2.3804,2.5165,1.9835,1.312,0.75636,0.43694,0.33428,0.26106,0.36139,0.4586,0.53632,0.68267,0.78733,0.81124,0.82845,0.79257,0.79422,0.82356,0.82462,0.81092,0.80881,0.81551,0.83291,0.82325,0.82759,0.82191,0.82472,0.83746,0.86006,0.82943,0.84522,0.81935,0.83422,0.84271,0.85942,0.83576,0.83632,0.83382,0.84601,0.8685,0.84307,0.8398,0.84403,0.85396,0.85898,0.84169,0.84544,0.84628,0.84676,0.86579,0.85724,0.85046,0.8512,0.84628,0.87052,0.86778,0.85118,0.86028,0.86388,0.86295,0.87374,0.87232,0.85968,0.86702,0.91118,0.92003,0.90294,0.91232,0.90692,0.9235,0.93381,0.923,0.91733,0.94272,0.94746,0.96646,0.96047,0.94972,0.9326,0.96018,0.95845,0.94151,0.91861,0.92875,0.91962,0.92248,0.89388,0.89043,0.86953,0.8826,0.88415,0.8955,0.87812,0.87425,0.8624,0.87493,0.87335,0.88133,0.86923,0.87518,0.87083,0.87344,0.84995,0.85248,0.88614,0.88182,0.87917,0.85423,0.85386,0.85058,0.86059,0.85836,0.8491,0.8523,0.84077,0.8548,0.88019,0.85842,0.85993,0.85651,0.84625,0.8698,0.85078,0.84901,0.827,0.84576,0.86243,0.85181,0.8389,0.84947,0.84129,0.85076,0.85814,0.84504,0.84138,0.81862,0.85082,0.83535,0.8333,0.82416,0.85507,0.8493,0.84356,0.83979,0.84274,0.84324,0.82638,0.85438,0.84318,0.83064,0.83708,0.84381,0.84203,0.83982,0.81318,0.8253,0.83748,0.83952,0.83167,0.84385,0.83877,0.83214,0.8528,0.81822,0.81324,0.82256,0.83167,0.84756,0.84634,0.83675,0.82639,0.82974,0.83088,0.86919,0.88017,0.88317,0.88237,0.87846,0.89705,0.88859,0.91815,0.92795,0.93853,0.93482,0.90866,0.88274,0.87991,0.86746,0.82575,0.81179,0.81209,0.78709,0.81506,0.81115,0.82397,0.80521,0.8073,0.82136,0.81572,0.79068,0.82257,0.81562,0.81897,0.79773,0.75298,0.66446,0.65981,0.68287,0.80089,0.95275,1.3509,1.7672,2.0678,2.2362,2.3931,2.0409,1.4004,0.82341,0.50841,0.388,0.23311,0.28487,0.34558,0.45923,0.59074,0.73907,0.76036,0.79347,0.79918,0.81055,0.80118,0.81027,0.7898,0.81967,0.82385,0.83086,0.81846,0.83177,0.8262,0.82487,0.82774,0.83593,0.81959,0.86516,0.85307,0.84753,0.83746,0.84324,0.84408,0.84547,0.84987,0.85028,0.83368,0.85651,0.85665,0.86223,0.85614,0.84263,0.85598,0.85322,0.87601,0.85742,0.83577,0.8484,0.87022,0.87985,0.85496,0.86493,0.85392,0.84468,0.886,0.87232,0.85572,0.85972,0.86875,0.88926,0.88915,0.89201,0.8865,0.87995,0.90749,0.90599,0.9091,0.90936,0.93592,0.93905,0.93735,0.94234,0.93451,0.93915,0.94577,0.95578,0.95648,0.92062,0.92215,0.8861,0.9026,0.90635,0.87655,0.85239,0.85902,0.86545,0.84308,0.82077,0.82603,0.82598,0.83697,0.81721,0.78788,0.7164,0.71106,0.68582,0.65805,0.64194,0.6404,0.63853,0.67535,0.69836,0.69949,0.69762,0.70772,0.7397,0.73817,0.73294,0.74647,0.77747,0.77449,0.78378,0.77622,0.77179,0.78813,0.80737,0.80244,0.801,0.79678,0.78376,0.77775,0.80201,0.81258,0.80921,0.79498,0.81075,0.80886,0.81603,0.8136,0.79724,0.77043,0.81718,0.82004,0.82142,0.81575,0.81232,0.82361,0.80618,0.81377,0.81313,0.81036,0.81975,0.80582,0.81424,0.79594,0.78323,0.81854,0.81632,0.7916,0.80554,0.80758,0.84021,0.8511,0.81754,0.79825,0.82173,0.8267,0.82309,0.82253,0.83073,0.82502,0.83908,0.8448,0.82986,0.8506,0.84818,0.87686,0.8769,0.8694,0.8666,0.84092,0.85338,0.84375,0.83218,0.80721,0.74168,0.74693,0.76715,0.76596,0.77288,0.75508,0.75746,0.74374,0.774,0.76766,0.76619,0.76599,0.76679,0.77226,0.76936,0.72857,0.65777,0.62609,0.62407,0.64619,0.74587,1.0632,1.5197,1.9405,2.1523,2.3628,2.4048,1.8027,1.1864,0.69068,0.41191,0.30059,0.24187,0.32001,0.46612,0.61257,0.69584,0.73901,0.76629,0.78439,0.76207,0.81154,0.78479,0.80209,0.79467,0.80398,0.78712,0.80084,0.80667,0.82834,0.79849,0.80211,0.8066,0.82817,0.82902,0.82668,0.8218,0.81519,0.81944,0.8523,0.82674,0.82992,0.82862,0.84434,0.86245,0.84259,0.84538,0.85393,0.8382,0.87184,0.87223,0.85268,0.85033,0.86182,0.8595,0.8716,0.85457,0.84552,0.85713,0.88196,0.86587,0.85234,0.86976,0.87387,0.88623,0.89321,0.87778,0.87399,0.87484,0.86538,0.8923,0.8885,0.91908,0.89732,0.91979,0.90677,0.93122,0.92332,0.94098,0.91118,0.93888,0.9417,0.93007,0.91258,0.92832,0.92806,0.91012,0.92832,0.89931,0.89302,0.9085,0.90266,0.89725,0.87819,0.8721,0.86978,0.87081,0.87614,0.85857,0.8688,0.85965,0.8582,0.84934,0.83943,0.83628,0.86159,0.86863,0.81918,0.85208,0.82517,0.84302,0.86003,0.84286,0.83501,0.83387,0.84393,0.84859,0.84038,0.84425,0.82592,0.82026,0.8361,0.83302,0.83914,0.82919,0.83155,0.81869,0.83879,0.84119,0.82037,0.83278,0.82979,0.82731,0.82723,0.82116,0.82284,0.82733,0.81733,0.80801,0.80252,0.80821,0.83954,0.85033,0.81692,0.80951,0.82583,0.81764,0.81876,0.82735,0.82398,0.80683,0.81646,0.80998,0.82061,0.83004,0.83223,0.8296,0.80714,0.81313,0.81553,0.81406,0.82329,0.83082,0.83774,0.81575,0.80377,0.81244,0.83196,0.8345,0.80991,0.8184,0.81765,0.8219,0.82613,0.80887,0.80837,0.80486,0.82097,0.83179,0.83444,0.83133,0.85467,0.82647,0.83775,0.8372,0.81527,0.84252,0.88795,0.89296,0.8862,0.87891,0.89717,0.91394,0.91603,0.94249,0.91029,0.91727,0.91837,0.91089,0.90294,0.88214,0.83965,0.79631,0.80403,0.81417,0.81711,0.81814,0.83485,0.81082,0.8233,0.80546,0.81541,0.81318,0.81472,0.81678,0.83238,0.81632,0.75849,0.67308,0.64817,0.66915,0.77108,1.0488,1.5023,1.9623,2.2225,2.4221,2.5346,2.005,1.3336,0.75176,0.46711,0.35582,0.26031,0.38373,0.51469,0.59135,0.71558,0.8044,0.79995,0.83323,0.81344,0.82543,0.81129,0.83611,0.83874,0.83374,0.84057,0.83923,0.83337,0.86722,0.85899,0.84246,0.83502,0.84979,0.83918,0.85971,0.85379,0.86231,0.84186,0.8629,0.85702,0.83663,0.8484,0.844,0.86887,0.87632,0.84969,0.86224,0.86453,0.86476,0.87631,0.86569,0.86125,0.86595,0.8605,0.85909,0.86395,0.87635,0.8652,0.86973,0.86438,0.89007,0.86093,0.87122,0.85812,0.88807,0.88757,0.89572,0.87292,0.90476,0.91309,0.91905,0.91158,0.91448,0.93244,0.94279,0.9263,0.9551,0.95661,0.95162,0.96823,0.96244,0.96881,0.94409,0.94878,0.96963,0.95315,0.92605,0.91037,0.93702,0.93712,0.92191,0.93428,0.89608,0.89843,0.88777,0.90288,0.87026,0.88376,0.88398,0.88526,0.87777,0.90271,0.88316,0.9027,0.95537,0.88601,0.8389,0.87493,0.87455,0.86364,0.8725,0.88175,0.88405,0.89788,0.87996,0.87242,0.87005,0.8719,0.85885,0.8767,0.87356,0.88559,0.87241,0.86227,0.8625,0.8778,0.86996,0.86697,0.87759,0.87051,0.87793,0.88904,0.87452,0.86226,0.85054,0.86751,0.86322,0.86668,0.83178,0.87314,0.87514,0.86938,0.86339,0.85668,0.87235,0.86361,0.85401,0.86497,0.838,0.83649,0.8541,0.87609,0.86472,0.85058,0.83785,0.85485,0.84558,0.86245,0.83567,0.84714,0.8325,0.84322,0.84265,0.8333,0.84224,0.84129,0.843,0.8381,0.85354,0.83186,0.84087,0.84241,0.85844,0.84867,0.84933,0.8275,0.84342,0.83689,0.84876,0.81208,0.80466,0.84789,0.86746,0.86211,0.87506,0.88718,0.90562,0.8879,0.89434,0.91751,0.93513,0.92317,0.93889,0.93811,0.92265,0.89373,0.88328,0.87746,0.85026,0.81634,0.79738,0.80505,0.83522,0.79519,0.79987,0.8209,0.8135,0.80754,0.83629,0.82212,0.81405,0.79517,0.80019,0.7933,0.7666,0.69174,0.66166,0.69451,0.78727,1.0803,1.5218,1.9254,2.1598,2.3153,2.3781,1.8248,1.1773,0.67688,0.43155,0.34877,0.27544,0.29671,0.38458,0.46807,0.60286,0.71263,0.75049,0.80521,0.7845,0.80987,0.80593,0.79789,0.79131,0.838,0.83378,0.82069,0.81159,0.82628,0.8034,0.81993,0.82534,0.84882,0.80487,0.81259,0.80769,0.82832,0.83578,0.81287,0.82808,0.82655,0.83615,0.83615,0.82491,0.84551,0.83487,0.83186,0.84026,0.86705,0.83617,0.85008,0.85367,0.83682,0.8275,0.83221,0.85532,0.88524,0.86744,0.82499,0.84848,0.85655,0.85955,0.86451,0.86791,0.87358,0.87059,0.88725,0.88094,0.87673,0.87542,0.89136,0.90161,0.90479,0.89942,0.89929,0.90941,0.94011,0.95475,0.93357,0.9387,0.93892,0.9483,0.94913,0.93497,0.92828,0.92031,0.93532,0.91996,0.89751,0.88517,0.87778,0.83175,0.90281,0.89777,0.87407,0.8621,0.85606,0.87152,0.8486,0.85145,0.84012,0.8578,0.8564,0.87427,0.83718,0.86257,0.8459,0.86322,0.83605,0.84257,0.84366,0.84937,0.8561,0.87364,0.85397,0.85602,0.83799,0.84851,0.87458,0.87384,0.8572,0.84624,0.84373,0.85387,0.84319,0.87079,0.8597,0.85675,0.86626,0.85153,0.84962,0.82957,0.83045,0.84275,0.85722,0.84201,0.83422,0.85735,0.85675,0.86093,0.82688,0.8327,0.84243,0.83953,0.85684,0.84094,0.83233,0.8199,0.85693,0.84597,0.82857,0.83262,0.8615,0.85412,0.84401,0.83144,0.83016,0.82133,0.85337,0.85161,0.85151,0.88344,0.90032,0.90582,0.89561,0.89284,0.91286,0.92098,0.92983,0.94352,0.93433,0.91367,0.88524,0.88514,0.8602,0.83717,0.81177,0.78897,0.8174,0.79998,0.80756,0.82047,0.81292,0.80405,0.81583,0.81247,0.8094,0.80633,0.81873,0.80552,0.80095,0.75178,0.6646,0.63518,0.66722,0.72725,0.90593,1.3297,1.7491,2.0739,2.2332,2.492,2.1969,1.5499,0.95866,0.53946,0.40356,0.2839,0.30148,0.40731,0.56338,0.67764,0.77912,0.7784,0.80731,0.80229,0.81292,0.80176,0.80911,0.80918,0.84934,0.83888,0.83851,0.82858,0.84128,0.83818,0.86312,0.84411,0.83479,0.84253,0.85385,0.85214,0.84618,0.85398,0.82712,0.82695,0.85759,0.85197,0.82395,0.84342,0.85558,0.85542,0.8405,0.83988,0.86581,0.84952,0.8617,0.84921,0.84097,0.85583,0.85014,0.8564,0.84708,0.84164,0.83328,0.84893,0.83383,0.87636,0.86782,0.8541,0.85994,0.87982,0.89178,0.85728,0.87335,0.88356,0.87831,0.9025,0.90562,0.9067,0.89273,0.92597,0.91039,0.90594,0.88553,0.92851,0.94594,0.92848,0.93239,0.91568,0.90805,0.89117,0.88666,0.90488,0.88209,0.85143,0.85052,0.87917,0.85431,0.83989,0.81757,0.82195,0.82854,0.8535,0.82992,0.82213,0.82084,0.82504,0.83627,0.81589,0.81785,0.81425,0.82135,0.81967,0.83752,0.83121,0.82514,0.82512,0.82451,0.81929,0.82039,0.83601,0.82968,0.83047,0.83309,0.81446,0.8188,0.80746,0.8367,0.8202,0.81227,0.81453,0.8211,0.82574,0.82522,0.81595,0.79325,0.80759,0.8217,0.81977,0.81022,0.81094,0.79996,0.80898,0.81597,0.81149,0.79884,0.7898,0.78794,0.82227,0.80338,0.77348,0.80325,0.80077,0.7992,0.80517,0.79701,0.80621,0.79565,0.79997,0.79465,0.78335,0.78752,0.79226,0.80314,0.79256,0.8172,0.78601,0.78662,0.78667,0.79654,0.80586,0.80334,0.85641,0.87297,0.86083,0.84005,0.84793,0.87886,0.89138,0.90035,0.88827,0.88247,0.86625,0.84866,0.84817,0.82621,0.79606,0.75701,0.78438,0.78823,0.77217,0.76926,0.76212,0.75821,0.77146,0.77036,0.77699,0.77435,0.76536,0.76942,0.79451,0.78077,0.72238,0.62574,0.60853,0.63276,0.69716,0.93604,1.3797,1.8387,2.1111,2.2864,2.5065,2.0384,1.3748,0.7932,0.4227,0.33222,0.22082,0.28955,0.41131,0.49891,0.63868,0.74795,0.719,0.78311,0.75604,0.75034,0.76985,0.77866,0.78939,0.80713,0.77956,0.79448,0.78695,0.79935,0.80182,0.79749,0.78277,0.7987,0.80011,0.83116,0.79223,0.78865,0.79951,0.79523,0.79939,0.81236,0.7992,0.81484,0.80469,0.82591,0.80129,0.80706,0.80411,0.81504,0.82045,0.81612,0.79556,0.81919,0.82607,0.81995,0.80009,0.82366,0.82155,0.83167,0.83807,0.82789,0.82703,0.82142,0.84132,0.82656,0.83742,0.84371,0.8309,0.86177,0.86838,0.85827,0.86961,0.8672,0.88694,0.88541,0.88777,0.88958,0.91491,0.91861,0.92127,0.92685,0.91745,0.89809,0.90462,0.91452,0.92791,0.88867,0.86515,0.88808,0.88991,0.87066,0.87059,0.85298,0.85292,0.85056,0.85921,0.86521,0.84069,0.84355,0.84709,0.85134,0.86011,0.82281,0.83196,0.86459,0.86059,0.83705,0.84828,0.8335,0.8216,0.83877,0.85804,0.82835,0.82961,0.8236,0.83471,0.84243,0.83378,0.82567,0.84727,0.8364,0.84972,0.82751,0.80975,0.82242,0.83504,0.82135,0.81639,0.83021,0.81263,0.81609,0.82478,0.78407,0.78702,0.80395,0.83192,0.83365,0.81739,0.79547,0.81718,0.82585,0.82504,0.82518,0.81185,0.80392,0.80305,0.82491,0.82956,0.80891,0.80745,0.80649,0.81322,0.79498,0.81803,0.81457,0.82484,0.80743,0.81467,0.8147,0.80219,0.82114,0.80055,0.82108,0.80601,0.79896,0.79517,0.7954,0.81215,0.82292,0.81066,0.8106,0.8183,0.81246,0.8009,0.79571,0.81181,0.81417,0.8179,0.82932,0.80832,0.82027,0.80421,0.8099,0.82797,0.82425,0.80537,0.80669,0.84583,0.85469,0.87559,0.87286,0.84443,0.8789,0.9107,0.89652,0.89635,0.89829,0.92233,0.92205,0.89714,0.8577,0.86054,0.84224,0.8,0.8026,0.78426,0.79321,0.80917,0.79759,0.80578,0.78922,0.77766,0.79394,0.81126,0.82124,0.79756,0.80791,0.79349,0.75791,0.67674,0.62991,0.6511,0.72731,0.97877,1.4185,1.8594,2.1498,2.3222,2.5447,2.0614,1.3806,0.83555,0.4716,0.41097,0.29208,0.28755,0.3835,0.51609,0.66509,0.7687,0.78522,0.77438,0.76758,0.79872,0.79918,0.82511,0.80825,0.82445,0.82202,0.83358,0.8329,0.82616,0.82383,0.81693,0.81894,0.83243,0.82319,0.83475,0.83815,0.82984,0.83345,0.83283,0.83091,0.83908,0.84231,0.83338,0.84073,0.83879,0.84721,0.85219,0.85452,0.84001,0.8389,0.84863,0.83508,0.85211,0.85102,0.83027,0.84273,0.85899,0.8627,0.856,0.84693,0.82504,0.84521,0.85835,0.86034,0.85982,0.86336,0.86613,0.8846,0.8787,0.88016,0.87619,0.87789,0.89336,0.907,0.91021,0.90465,0.88911,0.92707,0.92209,0.93765,0.95952,0.93935,0.93124,0.93268,0.92608,0.92476,0.90155,0.90773,0.90099,0.87535,0.90202,0.88921,0.8878,0.8816,0.8772,0.85879,0.85009,0.84928,0.85168,0.86051,0.85606,0.83672,0.86076,0.87927,0.85641,0.84712,0.84554,0.84457,0.85554,0.84997,0.85449,0.84452,0.83738,0.84854,0.86804,0.84256,0.84908,0.83775,0.8623,0.86657,0.84212,0.84267,0.8532,0.86941,0.86929,0.85586,0.83288,0.84951,0.84409,0.85476,0.8608,0.86357,0.84992,0.85773,0.8154,0.83955,0.8438,0.8549,0.84826,0.8221,0.80115,0.82224,0.86659,0.84594,0.84862,0.84204,0.82082,0.83129,0.83325,0.83562,0.83737,0.82768,0.84251,0.81058,0.80282,0.80134,0.85289,0.82583,0.83614,0.84027,0.83913,0.83436,0.81136,0.82202,0.80972,0.84067,0.79042,0.80824,0.82553,0.80367,0.79765,0.80821,0.84954,0.86682,0.85535,0.87227,0.84483,0.84744,0.87533,0.88509,0.90544,0.92651,0.89283,0.90048,0.87391,0.83595,0.8333,0.82172,0.7869,0.78386,0.78004,0.79844,0.79046,0.76937,0.7711,0.77684,0.79496,0.79165,0.79108,0.78513,0.78876,0.78461,0.7905,0.73322,0.66021,0.61975,0.64539,0.71633,0.94498,1.1419,1.5868,1.9616,2.1368,2.291,2.23,1.6774,1.0267,0.59663,0.40953,0.27652,0.23647,0.29814,0.3551,0.49872,0.64034,0.73168,0.77814,0.77446,0.75378,0.75996,0.78182,0.78211,0.79816,0.79924,0.7949,0.80929,0.79069,0.8053,0.80835,0.8132,0.80946,0.79153,0.80825,0.8355,0.81494,0.83169,0.81376,0.83578,0.80121,0.82549,0.79242,0.79191,0.82047,0.80748,0.81708,0.83588,0.82607,0.83764,0.83118,0.81857,0.82305,0.82075,0.80926,0.84771,0.83033,0.82301,0.8341,0.83483,0.83108,0.82542,0.83631,0.84148,0.8512,0.84817,0.85429,0.85038,0.84893,0.87203,0.86658,0.87993,0.87792,0.88106,0.89142,0.90089,0.91916,0.92184,0.89821,0.87924,0.91786,0.906,0.94087,0.92008,0.90085,0.89741,0.9072,0.90004,0.8835,0.86858,0.85009,0.87861,0.84233,0.82451,0.84463,0.82763,0.81734,0.80837,0.83451,0.81329,0.80919,0.82384,0.83739,0.82907,0.79789,0.79962,0.83348,0.83278,0.81476,0.79638,0.79596,0.82745,0.83893,0.81197,0.81674,0.82146,0.83335,0.83029,0.81883,0.80564,0.80948,0.80336,0.84224,0.82665,0.83649,0.81401,0.78942,0.82085,0.79886,0.80105,0.81284,0.80112,0.82032,0.821,0.79782,0.80532,0.81507,0.80944,0.79971,0.80139,0.78758,0.78954,0.80515,0.81296,0.79697,0.79124,0.80408,0.79113,0.80269,0.7966,0.78286,0.80667,0.80475,0.80172,0.81172,0.80504,0.82861,0.85482,0.8595,0.84487,0.82449,0.85385,0.88349,0.89967,0.89032,0.88439,0.87613,0.8839,0.86411,0.83948,0.81953,0.80596,0.77207,0.77345,0.77008,0.76214,0.77537,0.768,0.75764,0.7857,0.76396,0.75986,0.7522,0.78867,0.79297,0.77022,0.77596,0.71787,0.64989,0.61163,0.62493,0.69239,0.937,1.366,1.7823,2.1137,2.2672,2.4959,2.086,1.4167,0.82317,0.58755,0.40703,0.24615,0.25475,0.31128,0.4844,0.60084,0.74126,0.7529,0.79869,0.78652,0.78043,0.77858,0.81938,0.7714,0.81272,0.78646,0.8088,0.78687,0.81053,0.79722,0.79936,0.81033,0.83238,0.81577,0.81596,0.79539,0.8053,0.82591,0.81967,0.81708,0.81222,0.81378,0.83697,0.83537,0.82361,0.81602,0.82445,0.84379,0.85712,0.82772,0.82663,0.81992,0.82733,0.83905,0.86169,0.84659,0.83806,0.84864,0.85597,0.84062,0.82692,0.85139,0.83789,0.8639,0.85278,0.86843,0.86012,0.86489,0.86679,0.88183,0.89441,0.87786,0.88316,0.90582,0.92173,0.91242,0.90811,0.92961,0.92656,0.94444,0.96033,0.94621,0.93181,0.92225,0.9259,0.91708,0.89422,0.88427,0.89091,0.89688,0.88583,0.88319,0.88019,0.85806,0.86267,0.86249,0.85729,0.85086,0.86419,0.86487,0.85274,0.85449,0.83686,0.83444,0.84545,0.8779,0.85921,0.86784,0.86254,0.85708,0.855,0.85923,0.85847,0.8456,0.82286,0.83142,0.84443,0.86579,0.85479,0.85065,0.84333,0.85053,0.84437,0.83904,0.82443,0.85263,0.85165,0.85759,0.82844,0.84172,0.85792,0.85043,0.81887,0.82411,0.82937,0.82471,0.83617,0.834,0.82516,0.8526,0.84249,0.83466,0.83089,0.8396,0.84028,0.84443,0.8328,0.82195,0.81196,0.81029,0.81909,0.82089,0.85673,0.83712,0.84109,0.81049,0.82544,0.84656,0.82536,0.80883,0.8403,0.88274,0.85305,0.83328,0.83378,0.83894,0.86464,0.90167,0.89886,0.88616,0.88544,0.8969,0.91468,0.93026,0.91517,0.93251,0.93139,0.89601,0.88714,0.8531,0.85682,0.82469,0.81243,0.78415,0.79714,0.82228,0.8026,0.8051,0.79772,0.79289,0.80954,0.81967,0.8283,0.81308,0.80208,0.79487,0.78203,0.74712,0.68505,0.6502,0.64475,0.73632,1.0268,1.4519,1.8912,2.1787,2.3704,2.5488,2.3123,1.6715,1.0314,0.58574,0.40834,0.30212,0.2859,0.418,0.5665,0.69988,0.79066,0.80067,0.78765,0.80006,0.80647,0.83007,0.82679,0.81104,0.81946,0.80866,0.80847,0.84787,0.83888,0.83651,0.83122,0.85095,0.83523,0.81882,0.84107,0.84432,0.86247,0.83989,0.82177,0.82254,0.84534,0.85695,0.87507,0.85645,0.85708,0.84856,0.86497,0.87594,0.86961,0.84853,0.85009,0.85602,0.87858,0.84598,0.84607,0.87728,0.88489,0.88924,0.87196,0.87159,0.86599,0.85295,0.87391,0.88915,0.90226,0.8876,0.89733,0.89444,0.88838,0.89413,0.89134,0.89579,0.92157,0.89391,0.95574,0.95112,0.94456,0.97487,0.97684,0.96756,0.96337,0.97563,0.98601,0.97418,0.9477,0.94649,0.95558,0.94426,0.95126,0.92737,0.90669,0.91473,0.90184,0.89933,0.91394,0.92043,0.90266,0.90073,0.8895,0.92008,0.88606,0.85254,0.91082,0.90125,0.89398,0.88998,0.90096,0.90895,0.8971,0.89196,0.88868,0.86703,0.89206,0.89749,0.90156,0.8791,0.86096,0.85907,0.89212,0.88848,0.88111,0.87788,0.87324,0.87491,0.89524,0.89138,0.86614,0.87325,0.87275,0.88611,0.85826,0.85438,0.86116,0.86483,0.87353,0.86459,0.84654,0.87142,0.8544,0.8832,0.85865,0.85083,0.83786,0.86589,0.86753,0.87286,0.86317,0.86427,0.85248,0.86272,0.8447,0.84526,0.85537,0.87786,0.85236,0.87797,0.82501,0.83582,0.84743,0.87305,0.84416,0.84655,0.83662,0.86429,0.85171,0.86443,0.86087,0.86855,0.8705,0.89364,0.91369,0.92747,0.9002,0.89653,0.93307,0.95195,0.97211,0.93252,0.93764,0.90919,0.90001,0.90271,0.89291,0.84263,0.83255,0.8268,0.82585,0.82433,0.81736,0.82792,0.83514,0.81208,0.83537,0.8074,0.82612,0.84067,0.84783,0.84275,0.81907,0.77782,0.70316,0.66685,0.70457,0.79616,1.1094,1.3411,1.7832,2.1008,2.2422,2.4665,2.1822,1.5137,0.886,0.56191,0.38934,0.31119,0.32987,0.40663,0.5424,0.68796,0.77438,0.79946,0.82159,0.81217,0.80156,0.81315,0.84584,0.83376,0.82996,0.83868,0.82781,0.82866,0.83857,0.88383,0.84916,0.8371,0.84559,0.86187,0.86768,0.84557,0.8463,0.83808,0.85531,0.83558,0.83943,0.83064,0.82591,0.83538,0.84981,0.89054,0.8714,0.87596,0.87572,0.86782,0.85712,0.82916,0.86974,0.88014,0.88031,0.82755,0.89517,0.81169,0.85812,0.88381,0.83913,0.86819,0.85237,0.90871,0.87823,0.87278,0.87102,0.88383,0.88592,0.91481,0.9043,0.88842,0.90137,0.87444,0.9363,0.95293,0.92301,0.94487,0.94066,0.97788,0.96904,0.95443,0.91923,0.91032,0.92155,0.93445,0.92528,0.87658,0.86606,0.8776,0.9071,0.85855,0.85641,0.86474,0.85947,0.84901,0.88027,0.83558,0.83849,0.82967,0.845,0.87421,0.85041,0.82668,0.85561,0.8382,0.8423,0.86116,0.81453,0.83095,0.83173,0.86842,0.85103,0.82944,0.81128,0.84396,0.87358,0.83552,0.84456,0.82954,0.82151,0.85794,0.85045,0.8422,0.84225,0.86667,0.81828,0.81893,0.86021,0.83571,0.805,0.83237,0.79982,0.83144,0.81243,0.84355,0.82848,0.83633,0.81501,0.81252,0.81908,0.82503,0.84601,0.81751,0.81596,0.78653,0.82304,0.83778,0.80572,0.784,0.82625,0.84519,0.83038,0.84315,0.82027,0.85518,0.89312,0.87611,0.86204,0.85309,0.85941,0.90578,0.92032,0.90444,0.89847,0.91471,0.92034,0.86809,0.85899,0.80542,0.78978,0.82576,0.79412,0.78618,0.78728,0.77884,0.76769,0.74862,0.80078,0.81236,0.80765,0.77255,0.81706,0.8098,0.80008,0.78369,0.72313,0.67116,0.62808,0.64632,0.7615,1.0488,1.5075,1.889,2.1174,2.2934,2.3589,1.8509,1.2038,0.64596,0.48219,0.38677,0.25675,0.29306,0.33675,0.47889,0.61195,0.71664,0.77252,0.77389,0.74841,0.80247,0.80262,0.80257,0.7561,0.79837,0.81366,0.81867,0.81829,0.82212,0.82107,0.84598,0.8341,0.81006,0.80894,0.82224,0.84012,0.81066,0.82183,0.82646,0.82007,0.86076,0.84416,0.83911,0.83462,0.85302,0.85108,0.84764,0.82612,0.85197,0.88092,0.84762,0.83624,0.83445,0.84842,0.84409,0.86514,0.88227,0.85755,0.87863,0.87682,0.84709,0.86415,0.85722,0.84829,0.88327,0.85109,0.88256,0.87104,0.90109,0.91657,0.88776,0.89506,0.89148,0.90181,0.94092,0.92203,0.92796,0.92087,0.94704,0.95637,0.91937,0.95511,0.92762,0.90175,0.9504,0.89355,0.89936,0.88584,0.90208,0.90333,0.88231,0.86588,0.87606,0.8669,0.88272,0.85644,0.84893,0.84614,0.83672,0.83451,0.847,0.83879,0.83257,0.85932,0.84194,0.84445,0.82821,0.84433,0.82575,0.82676,0.83496,0.85843,0.85138,0.8595,0.83679,0.84381,0.83227,0.84028,0.82798,0.8575,0.84399,0.83359,0.82355,0.86123,0.85383,0.85474,0.81454,0.83124,0.81589,0.83989,0.83844,0.82731,0.83175,0.84009,0.82506,0.84806,0.8422,0.83226,0.81681,0.83933,0.83749,0.83586,0.81543,0.81608,0.83037,0.83898,0.8334,0.84961,0.83274,0.82133,0.84641,0.82911,0.81492,0.84461,0.8464,0.83273,0.83623,0.8312,0.83303,0.82997,0.81591,0.83385,0.82717,0.82394,0.8283,0.82338,0.84075,0.8217,0.82954,0.8246,0.82927,0.81897,0.84399,0.84979,0.88442,0.89261,0.84282,0.86739,0.92318,0.92089,0.94699,0.91549,0.91103,0.92114,0.89133,0.85813,0.891,0.84641,0.82578,0.80815,0.78415,0.79678,0.82601,0.81612,0.81163,0.7994,0.80602,0.82127,0.81544,0.79728,0.8013,0.81077,0.81129,0.74863,0.65911,0.646,0.66635,0.76149,0.89168,1.2539,1.6849,2.0736,2.2582,2.5411,2.3174,1.5946,1.0165,0.57385,0.43566,0.28747,0.29035,0.42138,0.58151,0.69315,0.80063,0.77812,0.78469,0.80477,0.81553,0.82027,0.79537,0.80703,0.83006,0.81801,0.83975,0.83758,0.85499,0.82469,0.83705,0.84229,0.83613,0.82418,0.83914,0.84317,0.82978,0.85369,0.83159,0.85154,0.86854,0.83504,0.85013,0.84179,0.84525,0.84729,0.85213,0.85972,0.84641,0.8472,0.86216,0.85917,0.84572,0.87176,0.85994,0.85906,0.85854,0.84816,0.85359,0.85568,0.85358,0.87743,0.86776,0.86814,0.84207,0.87554,0.87384,0.89516,0.90716,0.88216,0.88625,0.8808,0.90652,0.91492,0.9173,0.92455,0.92571,0.94011,0.93919,0.93438,0.94159,0.95722,0.96465,0.94775,0.93233,0.92759,0.92676,0.93393,0.91945,0.90772,0.89702,0.90011,0.91336,0.89765,0.87932,0.86499,0.87986,0.86516,0.87017,0.84675,0.849,0.88762,0.8784,0.91135,0.88517,0.90032,0.87978,0.87746,0.86856,0.88022,0.87561,0.86369,0.85256,0.87235,0.88393,0.86134,0.87468,0.87044,0.86654,0.85627,0.84235,0.87645,0.85106,0.85746,0.87436,0.86702,0.85079,0.84274,0.88096,0.86792,0.84375,0.84948,0.8824,0.8833,0.85028,0.83379,0.83872,0.83604,0.85443,0.85486,0.84436,0.84073,0.84094,0.87108,0.86336,0.83892,0.83432,0.82554,0.83127,0.85992,0.86563,0.86438,0.83608,0.83733,0.84641,0.82001,0.84281,0.85289,0.86271,0.8641,0.82413,0.83985,0.85054,0.83621,0.8502,0.85144,0.8528,0.85682,0.84443,0.84148,0.84708,0.85043,0.81952,0.83398,0.87026,0.84797,0.85245,0.85192,0.8408,0.84847,0.84783,0.84433,0.84431,0.84235,0.86757,0.84111,0.841,0.82918,0.85285,0.87422,0.86329,0.87801,0.89787,0.90091,0.90296,0.91956,0.91908,0.91736,0.9507,0.94444,0.94213,0.95004,0.9098,0.90761,0.89617,0.83374,0.81858,0.81763,0.79426,0.82281,0.83988,0.84732,0.82241,0.81948,0.86186,0.84333,0.84061,0.83802,0.81918,0.81732,0.81387,0.7899,0.69378,0.66747,0.68027,0.81965,1.1475,1.5724,1.9492,2.203,2.4444,2.4774,1.8518,1.194,0.6934,0.45445,0.34496,0.30639,0.36346,0.41287,0.57286,0.68392,0.79074,0.81979,0.80347,0.81269,0.80302,0.81301,0.83999,0.82243,0.86301,0.84997,0.84817,0.84113,0.84598,0.8477,0.85905,0.85296,0.84388,0.82777,0.85055,0.86521,0.86873,0.83406,0.84572,0.85923,0.89303,0.8643,0.85803,0.88472,0.87336,0.8898,0.86398,0.85999,0.86479,0.87223,0.87819,0.89066,0.8841,0.87007,0.88997,0.8721,0.88338,0.87051,0.89776,0.87901,0.87724,0.90378,0.88682,0.90429,0.87675,0.9026,0.91078,0.91192,0.91629,0.90193,0.91307,0.93324,0.94563,0.93369,0.94591,0.94898,0.94783,0.98435,0.96913,0.99411,0.97851,0.96944,0.99871,0.99549,0.97198,0.95647,0.98524,0.97492,0.95203,0.92297,0.91762,0.92994,0.92606,0.91543,0.92186,0.91052,0.91182,0.90825,0.91762,0.92177,0.89133,0.88983,0.90961,0.89378,0.90349,0.88872,0.89901,0.91407,0.9031,0.86445,0.88615,0.90089,0.90138,0.89461,0.89277,0.89091,0.88604,0.88384,0.90521,0.87132,0.87993,0.91662,0.89176,0.90715,0.8827,0.88241,0.90081,0.88255,0.87638,0.88204,0.8562,0.87916,0.86847,0.88807,0.886,0.85766,0.85282,0.85872,0.87324,0.88633,0.87446,0.85835,0.85506,0.86934,0.86852,0.86106,0.8585,0.85313,0.87028,0.87258,0.83245,0.85134,0.85074,0.86337,0.84838,0.83554,0.85003,0.85185,0.86703,0.85182,0.84082,0.84221,0.83564,0.85919,0.84957,0.83663,0.84833,0.8701,0.84573,0.90683,0.89888,0.87807,0.88195,0.89311,0.91536,0.91717,0.90435,0.92199,0.95363,0.91276,0.89,0.85184,0.82561,0.81825,0.8223,0.81282,0.81016,0.79503,0.78774,0.80815,0.79058,0.81346,0.82466,0.8128,0.81648,0.8143,0.81648,0.81145,0.79417,0.6993,0.65775,0.65961,0.70799,0.90938,1.3374,1.7536,2.0804,2.2266,2.3664,2.0719,1.4794,0.87339,0.64739,0.46072,0.31162,0.29485,0.29875,0.40646,0.52292,0.66347,0.72653,0.83089,0.8093,0.8165,0.78175,0.81847,0.82214,0.82338,0.81186,0.84906,0.83012,0.85175,0.84266,0.84718,0.84139,0.85224,0.83841,0.869,0.84676,0.85226,0.86292,0.85801,0.84183,0.85056,0.85517,0.87788,0.86643,0.88758,0.8485,0.85128,0.88289,0.86508,0.86441,0.87479,0.86644,0.85572,0.89169,0.88974,0.88316,0.87037,0.86847,0.87415,0.92494,0.89783,0.87561,0.88962,0.89007,0.91403,0.90976,0.90404,0.92417,0.92114,0.92391,0.93878,0.93635,0.93164,0.94758,0.95611,0.97118,0.96527,0.96998,0.94722,0.98211,0.98358,0.98397,0.97682,0.96391,0.96286,0.96352,0.95073,0.92604,0.92331,0.91674,0.92265,0.89762,0.87671,0.90011,0.90015,0.8879,0.87679,0.86722,0.87281,0.88695,0.87103,0.86482,0.8539,0.85726,0.85989,0.89504,0.86757,0.85286,0.86027,0.88,0.88073,0.87825,0.85668,0.86096,0.87115,0.87869,0.8628,0.86798,0.8869,0.86324,0.87466,0.87101,0.87162,0.87733,0.85117,0.8653,0.86032,0.86147,0.85153,0.86952,0.85379,0.86425,0.84714,0.87074,0.842,0.85196,0.86671,0.85067,0.85021,0.82205,0.87006,0.85191,0.85843,0.84448,0.83536,0.84444,0.85894,0.82677,0.81125,0.84363,0.84709,0.87096,0.85484,0.86446,0.84171,0.8847,0.90304,0.90972,0.88527,0.8676,0.89608,0.93077,0.95059,0.93237,0.93208,0.92712,0.9291,0.91295,0.91724,0.89111,0.85682,0.83997,0.81971,0.82568,0.82959,0.82622,0.82932,0.81882,0.82899,0.83245,0.82081,0.82684,0.83444,0.81904,0.8124,0.82133,0.80522,0.72147,0.69475,0.6715,0.68787,0.77278,1.0614,1.5106,1.9247,2.1685,2.3637,2.4929,1.9878,1.3313,0.7911,0.46386,0.36313,0.31974,0.35371,0.46274,0.62334,0.73986,0.81001,0.80306,0.80743,0.80857,0.81822,0.85775,0.83357,0.83188,0.84277,0.84146,0.83128,0.83374,0.85846,0.84231,0.89153,0.86519,0.8571,0.85199,0.84335,0.86405,0.88013,0.85661,0.87409,0.86652,0.8921,0.88495,0.85401,0.84528,0.87346,0.85306,0.87893,0.88804,0.88372,0.87365,0.84606,0.87076,0.88173,0.90966,0.88709,0.86631,0.87413,0.84885,0.86364,0.87041,0.902,0.88662,0.89226,0.89434,0.90971,0.88674,0.8931,0.92647,0.92777,0.90843,0.9126,0.90994,0.93885,0.96609,0.94885,0.94133,0.96686,0.95852,0.95915,0.96268,0.94999,0.96749,0.96733,0.97606,0.95777,0.9273,0.93767,0.93627,0.91895,0.92029,0.91078,0.91125,0.88764,0.86454,0.8924,0.92159,0.90814,0.8923,0.89323,0.90048,0.88076,0.88233,0.89059,0.90873,0.90067,0.88023,0.89618,0.89295,0.90034,0.90615,0.88255,0.88257,0.89107,0.88887,0.89393,0.88744,0.9008,0.8925,0.86965,0.92221,0.88611,0.88099,0.89624,0.89585,0.89549,0.88646,0.87936,0.87958,0.8788,0.8786,0.87536,0.88553,0.87589,0.85137,0.88368,0.87475,0.87623,0.87919,0.874,0.87601,0.89457,0.88788,0.86461,0.87049,0.88533,0.88802,0.87335,0.87054,0.85854,0.88051,0.90352,0.88129,0.8662,0.87043,0.87847,0.89455,0.87564,0.91301,0.91209,0.94821,0.93407,0.90906,0.92347,0.93932,0.96796,0.96148,0.93336,0.93987,0.94107,0.92118,0.91332,0.91554,0.86848,0.83751,0.83464,0.83965,0.85729,0.82922,0.8146,0.85351,0.83214,0.85181,0.83891,0.84056,0.82281,0.83206,0.84286,0.82681,0.75531,0.70526,0.68909,0.69664,0.74768,0.96132,1.424,1.6345,2.0422,2.2692,2.5152,2.4761,1.827,1.2051,0.68618,0.46792,0.30757,0.32069,0.4387,0.59105,0.71791,0.83712,0.8234,0.8417,0.85082,0.85213,0.82738,0.85548,0.87116,0.85362,0.87175,0.85468,0.85031,0.87959,0.87767,0.87791,0.86861,0.88808,0.88066,0.87009,0.88598,0.89248,0.8708,0.87106,0.89423,0.88088,0.87643,0.88052,0.88451,0.89429,0.89678,0.91129,0.89997,0.90043,0.89086,0.90212,0.90164,0.90442,0.92012,0.90328,0.90135,0.89481,0.90996,0.90979,0.91012,0.89693,0.92419,0.90479,0.91867,0.90884,0.92957,0.92313,0.93637,0.92772,0.9323,0.96001,0.96692,0.93632,0.94218,0.97247,1.0048,0.9975,1.003,1.004,1.0264,1.0045,1.0119,0.99956,0.99638,0.97734,0.97739,0.97592,0.97067,0.94726,0.95279,0.95223,0.9555,0.9461,0.92479,0.9349,0.92233,0.91868,0.92264,0.91838,0.92402,0.92803,0.92194,0.91068,0.90817,0.91969,0.929,0.93599,0.94063,0.90813,0.90626,0.92022,0.90732,0.91412,0.90271,0.9172,0.90323,0.91811,0.91205,0.9152,0.91362,0.91154,0.906,0.90433,0.89514,0.88487,0.89504,0.89452,0.90665,0.90827,0.90415,0.87994,0.9026,0.90099,0.88703,0.87137,0.90224,0.9062,0.90312,0.88385,0.87416,0.87791,0.9092,0.90563,0.89775,0.8794,0.88996,0.8695,0.893,0.88674,0.87514,0.90157,0.89776,0.88274,0.87818,0.90176,0.92009,0.93288,0.93099,0.92441,0.93321,0.95588,0.9548,0.96606,0.9707,0.97448,0.95789,0.95739,0.92543,0.90403,0.87417,0.85485,0.86788,0.86395,0.85648,0.87184,0.84551,0.848,0.84293,0.85871,0.85923,0.84065,0.83816,0.8547,0.83821,0.85994,0.82632,0.80899,0.73544,0.70522,0.71538,0.75273,1.0052,1.4141,1.8697,2.1366,2.2788,2.4337,2.1059,1.4781,0.8657,0.51092,0.45111,0.36553,0.33486,0.36744,0.48311,0.61418,0.72121,0.79671,0.82775,0.84263,0.84835,0.84563,0.86358,0.86167,0.85671,0.85281,0.84817,0.88061,0.85449,0.85981,0.8643,0.86492,0.88853,0.8887,0.89558,0.87547,0.87764,0.86048,0.88512,0.87982,0.89583,0.89651,0.87045,0.88705,0.8858,0.88989,0.88191,0.89212,0.8936,0.88077,0.88956,0.89196,0.87879,0.89308,0.90607,0.90043,0.89466,0.91542,0.89808,0.90882,0.90196,0.89851,0.89854,0.90462,0.9168,0.9104,0.91263,0.91617,0.92007,0.95802,0.95687,0.94655,0.95208,0.96201,0.98569,0.96895,0.96295,0.98037,0.99178,0.9992,0.99435,0.97634,0.99304,0.9832,0.98781,0.98029,0.95714,0.93196,0.94287,0.97056,0.95437,0.91115,0.91416,0.91911,0.88738,0.89633,0.90145,0.88611,0.89909,0.89804,0.89345,0.89062,0.86785,0.88325,0.9037,0.89906,0.89092,0.87096,0.85795,0.87399,0.90061,0.90658,0.89398,0.88564,0.86014,0.8811,0.88168,0.88314,0.87843,0.89029,0.8931,0.87229,0.86761,0.875,0.86153,0.88069,0.88314,0.86711,0.85609,0.84564,0.84049,0.8639,0.86781,0.85538,0.84288,0.83701,0.87885,0.88371,0.87962,0.88772,0.90493,0.89617,0.8976,0.89325,0.91934,0.93573,0.94713,0.96167,0.96234,0.92128,0.89327,0.91093,0.91651,0.89154,0.8548,0.83498,0.82853,0.82056,0.80259,0.79493,0.80997,0.81465,0.81933,0.80887,0.79789,0.81748,0.81431,0.81356,0.80155,0.80878,0.81663,0.75844,0.6991,0.65243,0.62983,0.71038,0.92936,1.3509,1.781,2.0798,2.2491,2.4577,2.1343,1.4665,0.86783,0.5196,0.37851,0.26671,0.29812,0.30824,0.45185,0.57154,0.71219,0.76681,0.78111,0.78633,0.80547,0.77897,0.81813,0.80684,0.81864,0.81364,0.82096,0.82521,0.81211,0.78807,0.81269,0.85395,0.84514,0.82742,0.8153,0.82548,0.84451,0.83355,0.83926,0.82931,0.81246,0.83369,0.85398,0.83855,0.84582,0.84011,0.84898,0.85512,0.84267,0.82947,0.84212,0.84625,0.86509,0.86701,0.86409,0.84345,0.84616,0.85608,0.85283,0.87177,0.86961,0.85023,0.86212,0.8784,0.86025,0.86465,0.8704,0.89234,0.87926,0.9069,0.91256,0.91537,0.91369,0.91505,0.9056,0.91581,0.94443,0.95587,0.9531,0.93197,0.93916,0.93182,0.91705,0.94687,0.94649,0.90907,0.90031,0.8906,0.90108,0.9037,0.87608,0.87131,0.8614,0.87254,0.86755,0.85707,0.85036,0.86182,0.85752,0.87801,0.8412,0.82102,0.84103,0.86305,0.85971,0.84688,0.85737,0.8613,0.83995,0.85221,0.85279,0.85738,0.83748,0.84128,0.84656,0.85267,0.82247,0.83296,0.8516,0.86278,0.8515,0.82064,0.81462,0.84455,0.82932,0.83103,0.82138,0.83513,0.82968,0.84029,0.80383,0.82505,0.83331,0.83046,0.83186,0.82018,0.83719,0.82977,0.81208,0.81082,0.81831,0.81442,0.83639,0.84966,0.87147,0.88128,0.8746,0.83844,0.86227,0.90897,0.91917,0.89677,0.89746,0.90995,0.89142,0.87822,0.8732,0.84816,0.84162,0.79121,0.78283,0.78931,0.7625,0.76739,0.78887,0.7853,0.76815,0.77288,0.77678,0.78357,0.80021,0.78775,0.77636,0.76701,0.76273,0.71334,0.68099,0.59129,0.62901,0.68888,0.9526,1.4104,1.8299,2.1164,2.2932,2.5079,2.0167,1.3797,0.77309,0.42344,0.29962,0.22434,0.31447,0.36384,0.53095,0.65605,0.74406,0.7581,0.76632,0.75682,0.78865,0.7822,0.78067,0.75821,0.80253,0.79488,0.80929,0.78787,0.80484,0.78885,0.79069,0.79531,0.79171,0.80145,0.79448,0.80266,0.80868,0.81454,0.79885,0.81077,0.8019,0.81327,0.81672,0.807,0.81119,0.80813,0.82001,0.83651,0.81295,0.79693,0.81732,0.81771,0.82716,0.81109,0.81391,0.81188,0.81995,0.80851,0.83209,0.80858,0.82288,0.84162,0.84449,0.84458,0.84955,0.8352,0.82961,0.85824,0.85415,0.84945,0.86152,0.85843,0.87227,0.88134,0.88669,0.89243,0.88531,0.91949,0.92746,0.92527,0.90526,0.92675,0.9201,0.92009,0.89026,0.88755,0.8918,0.88658,0.87386,0.86164,0.84569,0.84184,0.84424,0.88195,0.86047,0.84408,0.84113,0.85428,0.85424,0.85182,0.83196
