2.4553,2.4451,2.445,2.4146,2.4446,2.4285,2.3894,2.4227,2.4187,2.3936,2.388,2.3905,2.4122,2.3974,2.3884,2.4014,2.3873,2.4307,2.4345,2.4078,2.3792,2.4157,2.4194,2.4107,2.4336,2.389,2.3884,2.4005,2.3962,2.4229,2.3957,2.3919,2.3932,2.4096,2.4206,2.3949,2.384,2.4278,2.4259,2.432,2.4007,2.3799,2.3825,2.4695,2.4861,2.4629,2.4743,2.4296,2.4729,2.4657,2.4702,2.4505,2.4482,2.4886,2.4881,2.4554,2.4273,2.3959,2.3832,2.3933,2.358,2.3815,2.3555,2.3651,2.3356,2.3593,2.3277,2.3188,2.3988,2.3514,2.3864,2.3126,2.3081,2.3712,2.3505,2.38,2.3544,2.3286,2.3378,2.3394,2.3469,2.3358,2.3477,2.36,2.3808,2.498,2.6447,2.7166,2.9217,3.006,2.7303,2.4184,2.2491,2.1634,2.1959,2.2155,2.297,2.3591,2.3686,2.4096,2.4033,2.3792,2.3191,2.3864,2.3935,2.3863,2.3886,2.3612,2.3356,2.3818,2.4273,2.3941,2.3626,2.4044,2.3898,2.3868,2.4097,2.3852,2.371,2.3887,2.3911,2.4215,2.417,2.3991,2.4259,2.4456,2.4153,2.4623,2.4002,2.4311,2.4517,2.4257,2.444,2.4597,2.4875,2.4974,2.4725,2.4908,2.489,2.4778,2.5265,2.5532,2.5342,2.531,2.5328,2.538,2.546,2.5674,2.5476,2.505,2.5439,2.506,2.4779,2.4757,2.4646,2.4333,2.407,2.3962,2.3954,2.3842,2.3706,2.3598,2.3657,2.3206,2.3369,2.3289,2.3469,2.2977,2.332,2.3342,2.323,2.2929,2.2952,2.3169,2.2991,2.3248,2.3156,2.288,2.3044,2.3042,2.3188,2.3256,2.3388,2.3368,2.2983,2.306,2.3028,2.3409,2.3165,2.3053,2.328,2.3246,2.3079,2.3798,2.4037,2.3865,2.3809,2.4129,2.4094,2.3976,2.3725,2.3758,2.4093,2.3754,2.4131,2.4029,2.3862,2.3671,2.3548,2.3178,2.2918,2.3188,2.292,2.3079,2.3157,2.3019,2.2973,2.2999,2.3004,2.2463,2.2815,2.2735,2.3221,2.304,2.2678,2.2598,2.2862,2.2847,2.2779,2.2605,2.2794,2.3021,2.2822,2.2834,2.2613,2.2891,2.3413,2.4503,2.5598,2.6503,2.8186,2.9347,2.682,2.3953,2.2105,2.1295,2.1045,2.1534,2.2347,2.3333,2.3241,2.2874,2.3409,2.2978,2.2983,2.3181,2.3424,2.3377,2.3552,2.3279,2.3253,2.3311,2.3326,2.3555,2.352,2.2949,2.3184,2.3663,2.335,2.3644,2.3276,2.3534,2.3699,2.3584,2.3504,2.3549,2.3511,2.408,2.4149,2.4098,2.3638,2.3825,2.4499,2.4113,2.4647,2.4409,2.4331,2.466,2.418,2.4857,2.5091,2.4879,2.4947,2.5003,2.5307,2.5069,2.5137,2.5371,2.5477,2.5514,2.5651,2.497,2.4862,2.5194,2.4989,2.4536,2.4142,2.4022,2.4144,2.4056,2.3536,2.354,2.3545,2.3538,2.3164,2.3412,2.3539,2.3281,2.3125,2.3439,2.3666,2.3537,2.3334,2.3284,2.3378,2.3236,2.3298,2.3363,2.3408,2.3137,2.3272,2.3108,2.3316,2.3294,2.3381,2.3103,2.323,2.3382,2.3381,2.347,2.3463,2.3384,2.3477,2.3831,2.3907,2.4093,2.3855,2.4364,2.4673,2.4263,2.4425,2.4378,2.4028,2.4116,2.468,2.4786,2.4502,2.3924,2.3621,2.3878,2.3941,2.3746,2.3168,2.3473,2.339,2.3274,2.3425,2.3431,2.3489,2.3487,2.327,2.3346,2.2963,2.3431,2.3281,2.3303,2.3231,2.321,2.3193,2.3228,2.3172,2.3229,2.3346,2.3338,2.3363,2.3494,2.386,2.4692,2.6124,2.7193,2.8626,2.9748,2.7947,2.4975,2.2423,2.1686,2.2028,2.2034,2.2755,2.3315,2.3935,2.4051,2.3874,2.4096,2.3908,2.3797,2.4171,2.383,2.3568,2.3953,2.4092,2.4044,2.4041,2.3807,2.4179,2.4156,2.4158,2.3886,2.3964,2.4362,2.4806,2.4374,2.4048,2.4265,2.4395,2.441,2.4456,2.4375,2.4193,2.4622,2.4752,2.4907,2.4707,2.4778,2.4648,2.482,2.5351,2.5112,2.5466,2.5448,2.5366,2.5423,2.5615,2.5621,2.5847,2.6081,2.5869,2.6083,2.6064,2.5576,2.59,2.5678,2.593,2.5368,2.5323,2.5228,2.4814,2.4555,2.4589,2.4185,2.4196,2.4326,2.4273,2.3987,2.3632,2.385,2.4037,2.4277,2.3749,2.361,2.3901,2.3947,2.3935,2.3746,2.3726,2.3822,2.3761,2.3906,2.3523,2.3879,2.3903,2.3917,2.3852,2.3655,2.3749,2.3858,2.4,2.3766,2.3796,2.3648,2.3889,2.3959,2.3869,2.3788,2.4077,2.4045,2.4352,2.4073,2.4006,2.4099,2.4373,2.4419,2.4416,2.4743,2.5138,2.4806,2.4624,2.4772,2.4554,2.4599,2.445,2.4483,2.5123,2.4806,2.4338,2.4342,2.3862,2.3962,2.3893,2.3901,2.3571,2.3736,2.3615,2.391,2.3501,2.3812,2.3671,2.3739,2.4035,2.3755,2.3361,2.367,2.4072,2.3683,2.3381,2.3815,2.3764,2.3992,2.3728,2.373,2.3556,2.4031,2.4386,2.5589,2.6907,2.821,2.9655,3.0141,2.7372,2.4409,2.1989,2.1747,2.2302,2.2947,2.4015,2.4141,2.4165,2.4406,2.4198,2.4021,2.4365,2.4087,2.4085,2.4097,2.4408,2.3953,2.4211,2.407,2.4534,2.4611,2.4344,2.4076,2.4546,2.4514,2.4161,2.4598,2.4548,2.445,2.4625,2.4758,2.4783,2.4412,2.4761,2.4944,2.5022,2.446,2.4584,2.4955,2.5313,2.5218,2.5268,2.5123,2.5165,2.5557,2.5609,2.55,2.5003,2.5876,2.6177,2.5964,2.5894,2.6157,2.6353,2.626,2.605,2.6002,2.6062,2.6309,2.6133,2.6,2.5678,2.5208,2.4937,2.498,2.4855,2.4712,2.4586,2.4648,2.4492,2.4222,2.4177,2.4109,2.4318,2.438,2.4309,2.4147,2.4065,2.3906,2.4173,2.4372,2.4437,2.4098,2.4231,2.3931,2.424,2.3922,2.4292,2.3831,2.3978,2.4442,2.4359,2.43,2.4338,2.4101,2.4341,2.4587,2.4029,2.3851,2.4284,2.4408,2.4357,2.4228,2.4182,2.4279,2.4253,2.4014,2.4117,2.43,2.4233,2.4513,2.4253,2.4406,2.4665,2.5324,2.5076,2.5176,2.5376,2.5094,2.4797,2.5183,2.5011,2.5032,2.5145,2.458,2.4756,2.4892,2.4771,2.4193,2.4052,2.4348,2.4331,2.4111,2.3762,2.4168,2.4113,2.4215,2.4242,2.4112,2.3824,2.3802,2.3962,2.407,2.3918,2.4018,2.4197,2.4013,2.4177,2.4099,2.3684,2.3991,2.4496,2.4532,2.4744,2.4921,2.5656,2.7448,2.825,2.9635,3.064,2.8622,2.5331,2.2782,2.2092,2.2224,2.2765,2.3703,2.4601,2.4623,2.4569,2.4229,2.448,2.4629,2.4461,2.4495,2.4318,2.4921,2.5005,2.4813,2.4745,2.4418,2.4552,2.4767,2.4912,2.4672,2.4441,2.4675,2.4772,2.5289,2.5074,2.4875,2.4967,2.5174,2.5225,2.5082,2.5274,2.5194,2.5445,2.5267,2.5284,2.5358,2.5547,2.5972,2.5404,2.5352,2.5903,2.6153,2.6143,2.6203,2.6732,2.6258,2.6342,2.6367,2.6428,2.6637,2.6402,2.674,2.6729,2.6495,2.6287,2.6082,2.606,2.5786,2.5913,2.5747,2.5001,2.5335,2.505,2.4999,2.4825,2.4612,2.4647,2.4492,2.4676,2.4384,2.4507,2.4238,2.4557,2.4679,2.4649,2.4499,2.4223,2.4659,2.428,2.4284,2.4446,2.4341,2.4635,2.452,2.4545,2.4059,2.4255,2.4643,2.4569,2.4684,2.4577,2.4498,2.4426,2.4579,2.4763,2.463,2.4561,2.457,2.4382,2.4492,2.4269,2.4401,2.4787,2.4779,2.512,2.47,2.4025,2.4467,2.4556,2.4605,2.4378,2.4948,2.5276,2.5402,2.5382,2.5117,2.5246,2.5012,2.5142,2.5144,2.5199,2.5459,2.5205,2.524,2.5079,2.4654,2.4832,2.4334,2.439,2.4423,2.4421,2.4106,2.3892,2.4225,2.4233,2.4098,2.416,2.4373,2.408,2.4477,2.4044,2.4182,2.4036,2.4059,2.4385,2.4259,2.398,2.3591,2.4203,2.4548,2.4283,2.4129,2.4477,2.5097,2.6136,2.7455,2.7927,2.9309,3.0425,2.9019,2.6179,2.3358,2.2646,2.2416,2.3042,2.3644,2.4475,2.4713,2.433,2.4858,2.4498,2.4344,2.4034,2.4617,2.4841,2.4788,2.4741,2.4635,2.4764,2.4602,2.4787,2.4834,2.4363,2.4324,2.5034,2.52,2.4579,2.4613,2.4859,2.4768,2.5017,2.5018,2.4943,2.4718,2.5181,2.5411,2.5068,2.4934,2.4949,2.521,2.5262,2.5453,2.5348,2.5459,2.5924,2.5888,2.5974,2.5571,2.5806,2.6176,2.6394,2.6163,2.6314,2.6192,2.6442,2.6304,2.6258,2.6377,2.6188,2.6198,2.6203,2.5862,2.54,2.5546,2.4975,2.5374,2.4924,2.5269,2.4687,2.4292,2.4507,2.4509,2.4514,2.4173,2.3874,2.4104,2.442,2.4186,2.4197,2.4085,2.4229,2.4424,2.4111,2.4224,2.3866,2.4228,2.448,2.4433,2.4209,2.3945,2.4152,2.4173,2.4062,2.4625,2.4411,2.4113,2.4243,2.4353,2.4322,2.4209,2.4269,2.4486,2.4797,2.4111,2.4517,2.4181,2.4725,2.4381,2.5213,2.5084,2.4798,2.5281,2.5069,2.5047,2.5094,2.5051,2.5349,2.5247,2.5394,2.5,2.5128,2.4514,2.4434,2.4694,2.4301,2.431,2.4071,2.439,2.4314,2.4115,2.3946,2.3872,2.4277,2.4079,2.4188,2.4047,2.3882,2.3974,2.4157,2.3897,2.373,2.3993,2.4147,2.4247,2.4034,2.3983,2.3769,2.4306,2.4501,2.4621,2.527,2.6428,2.7762,2.9163,3.0414,2.9054,2.6284,2.3446,2.257,2.2492,2.2613,2.2998,2.415,2.5024,2.4563,2.4704,2.4448,2.4728,2.47,2.4738,2.4517,2.4862,2.4847,2.4638,2.438,2.4955,2.4779,2.5013,2.4801,2.5066,2.4856,2.4894,2.5224,2.5248,2.4902,2.4809,2.4959,2.5133,2.5621,2.5394,2.49,2.5435,2.5533,2.6,2.597,2.5769,2.5647,2.5778,2.5951,2.5963,2.6399,2.6361,2.6309,2.6478,2.6589,2.6253,2.6364,2.6657,2.7043,2.6623,2.7007,2.695,2.6672,2.6849,2.6523,2.6289,2.6582,2.653,2.6229,2.6001,2.552,2.5462,2.5532,2.5616,2.5395,2.5097,2.4677,2.4963,2.5441,2.481,2.4931,2.4891,2.483,2.49,2.4833,2.4538,2.4687,2.4625,2.451,2.4495,2.4291,2.4685,2.4726,2.488,2.4787,2.4772,2.5112,2.4647,2.4573,2.4941,2.5189,2.53,2.5441,2.5311,2.5048,2.527,2.5155,2.5156,2.5175,2.5391,2.5352,2.5316,2.5318,2.5276,2.5513,2.5356,2.5121,2.5192,2.5959,2.563,2.5827,2.5877,2.5819,2.5704,2.5581,2.5465,2.6048,2.5876,2.5556,2.5568,2.5519,2.5475,2.5299,2.5045,2.4873,2.4697,2.4869,2.4649,2.4502,2.4864,2.455,2.476,2.4765,2.4795,2.4633,2.4838,2.4885,2.4892,2.4837,2.4828,2.517,2.5298,2.5354,2.5404,2.5545,2.5669,2.5593,2.5678,2.5857,2.6167,2.7448,2.8634,2.9718,3.1035,3.243,3.0891,2.7967,2.5437,2.4793,2.5018,2.5262,2.6021,2.6802,2.7225,2.7007,2.7091,2.7283,2.7066,2.6852,2.6936,2.6862,2.7329,2.7336,2.7265,2.7127,2.7366,2.748,2.7507,2.7301,2.7667,2.7665,2.7577,2.7711,2.7685,2.7558,2.7634,2.7713,2.7923,2.7567,2.7643,2.7951,2.7767,2.8047,2.8068,2.7981,2.835,2.8417,2.8154,2.8185,2.8477,2.8802,2.8972,2.8848,2.9167,2.8899,2.9442,2.9398,2.9243,2.9541,2.9591,2.9721,3.0078,2.9944,2.9714,2.997,3.0224,2.9882,3.0165,2.963,2.9566,2.9397,2.8988,2.9038,2.9013,2.8913,2.8635,2.8528,2.8736,2.8566,2.8405,2.8747,2.8852,2.8926,2.8639,2.8854,2.9357,2.9327,2.9239,2.9232,2.907,2.9281,2.9257,2.929,2.958,2.9522,2.9516,2.9889,2.9759,2.9755,2.957,2.9556,2.9949,3.0023,2.9932,3.0108,2.9956,3.0049,2.9891,2.9698,2.991,2.9863,3.0105,3.0014,2.9945,2.9997,2.9783,3.0034,3.0279,3.0689,3.0663,3.0949,3.0527,3.0947,3.0655,3.0518,3.0468,3.1012,3.0951,3.1095,3.0989,3.0631,3.0607,3.0341,2.9932,3.0091,2.991,3.0179,3.0152,3.0068,2.996,2.9743,2.9764,2.9581,3.0319,2.9952,3.014,2.9802,2.9873,2.9747,2.9853,2.9751,2.96,2.9356,2.9502,2.9501,2.9775,3.0215,3.0289,3.0476,3.1557,3.2841,3.4104,3.6013,3.6566,3.5742,3.0565,2.8153,2.8257,2.8339,2.9178,2.9698,3.0306,3.0349,3.0621,3.0619,3.0492,3.0098,3.0058,3.0141,3.0346,3.0392,3.0361,3.0625,3.0593,3.0924,3.0797,3.0797,3.0936,3.0823,3.073,3.0662,3.059,3.081,3.1044,3.0846,3.0855,3.0923,3.0846,3.072,3.1171,3.1059,3.085,3.0902,3.1306,3.1034,3.1024,3.1218,3.1586,3.1463,3.1588,3.167,3.1742,3.1716,3.1842,3.1809,3.1713,3.187,3.1991,3.2236,3.2026,3.2432,3.2018,3.1895,3.1477,3.2266,3.1897,3.1307,3.1247,3.1131,3.1312,3.0898,3.0533,3.0434,3.059,3.0372,3.016,3.0052,3.0055,3.0009,3.0096,2.9867,3.0126,2.9981,3.0065,3.0267,3.0274,3.0051,2.9804,3.0187,3.0319,3.0096,2.9985,2.9971,2.9768,3.0144,3.0261,3.0111,3.028,3.0237,3.0203,3.019,3.0104,2.9869,3.0049,3.0046,3.0437,3.0286,3.0407,3.0228,3.0195,3.0409,3.0248,3.0207,3.0103,3.0045,3.0262,3.0249,3.0231,3.0584,3.0697,3.0819,3.0775,3.0895,3.0964,3.1016,3.0903,3.1359,3.089,3.0763,3.1307,3.1044,3.1015,3.0608,3.0379,3.046,3.06,3.0154,2.989,2.9859,2.9927,2.988,2.9873,2.9851,2.964,2.9639,2.9991,2.996,2.9612,2.9804,2.9824,2.9904,2.971,2.9519,2.9678,2.9542,2.9536,2.9755,2.9702,2.9811,2.9865,2.9878,3.0427,3.1491,3.264,3.4011,3.5853,3.5545,3.3114,2.9514,2.8162,2.7996,2.8608,2.9224,2.9809,2.9833,3.009,3.0153,2.98,3.0129,3.0015,2.9647,2.9921,3.004,3.0093,3.0151,3.0121,3.0219,3.011,3.0164,2.9961,2.9883,3.0086,3.0377,2.9884,3.0149,3.006,3.0226,3.0257,3.0167,3.0158,3.015,3.0168,3.046,3.0558,3.0643,3.0867,3.0863,3.0498,3.0794,3.0724,3.0771,3.107,3.1138,3.1259,3.1293,3.1354,3.1403,3.2073,3.1881,3.1671,3.1597,3.1756,3.1877,3.1922,3.1667,3.1882,3.2011,3.1632,3.1655,3.14,3.0955,3.1074,3.0991,3.0808,3.0483,3.0131,3.0248,3.022,3.003,3.0031,3.0013,2.9861,3.0046,2.9975,3.001,2.9739,2.9639,2.9927,3.0048,2.9858,2.9631,2.9554,3.0187,2.9847,2.9597,2.991,2.9773,2.9862,2.9918,2.9607,2.9669,2.9867,3.0041,2.986,2.978,2.9883,2.9988,2.966,2.9824,2.9852,2.9885,2.9667,2.9891,2.9893,2.9671,2.9479,2.9745,3.0285,3.0456,3.0641,3.0712,3.0494,3.033,3.0406,3.0574,3.034,3.0515,3.0718,3.0636,3.048,3.0008,2.9767,2.9956,2.9977,2.9562,2.9377,2.9346,2.9396,2.9205,2.9186,2.9186,2.9123,2.9203,2.924,2.9255,2.9352,2.9372,2.9251,2.9068,2.9448,2.9426,2.913,2.9201,2.9097,2.8756,2.9126,2.9306,2.9189,2.9757,3.0264,3.1254,3.2786,3.4116,3.5346,3.5177,3.2382,2.9728,2.8031,2.7826,2.7891,2.8355,2.9306,2.9388,2.9621,2.9751,2.9427,2.9409,2.9559,2.9478,2.9711,2.9639,2.9591,2.9668,2.9772,2.9938,2.9729,2.9577,2.9909,2.9861,3.0031,2.9948,2.9891,2.9714,2.9864,2.9898,3.0035,3.0214,3.0091,3.0054,3.0291,3.0311,3.0262,3.0293,3.0538,3.0646,3.063,3.0546,3.081,3.0232,3.068,3.1106,3.1188,3.1176,3.1017,3.134,3.1287,3.1431,3.1533,3.1537,3.176,3.1736,3.1651,3.1534,3.1484,3.157,3.133,3.1082,3.1015,3.0727,3.0839,3.0603,3.0598,3.0219,2.982,2.9686,2.9689,3.0042,2.9787,2.9582,2.9641,2.982,2.9608,2.9639,2.9729,2.9873,2.9574,2.9414,2.9672,2.9482,2.9731,2.9724,2.9849,2.9608,2.9708,2.9045,2.9582,3.0124,2.9663,2.9614,2.9738,2.9767,2.9839,2.9896,2.9801,3.0088,3.0482,3.0814,3.0812,3.0489,3.0446,3.1034,3.0993,3.0463,3.026,3.0654,3.0407,3.0318,3.0291,3.057,2.987,2.9955,2.9721,2.96,2.9469,2.9493,2.9652,2.9681,2.9807,2.972,2.9435,2.9396,2.9561,2.9623,2.9727,2.9683,2.9626,2.9758,2.968,2.9392,2.9182,2.9805,2.9724,2.944,2.9584,2.9767,2.9676,2.9987,3.0934,3.1437,3.3137,3.4516,3.5805,3.5095,3.1917,2.9141,2.8152,2.8063,2.8264,2.9161,2.9922,3.02,3.0164,3.0089,3.0059,3.0298,3.0329,3.0108,3.0221,3.0241,3.0256,3.0065,3.0053,3.0441,3.0544,3.0335,3.0193,3.0419,3.0541,3.0449,3.0575,3.0436,3.0565,3.0628,3.0566,3.0627,3.1006,3.073,3.0664,3.0748,3.0826,3.1015,3.1163,3.1369,3.1092,3.1346,3.1345,3.1411,3.1749,3.1804,3.1719,3.1618,3.1609,3.2226,3.2041,3.2457,3.2003,3.229,3.246,3.2196,3.2297,3.2515,3.2122,3.2039,3.198,3.1763,3.1558,3.1212,3.1217,3.1286,3.0907,3.0691,3.0814,3.0572,3.0555,3.0346,3.051,3.042,3.0348,3.0388,3.0262,3.0314,3.0529,3.0478,3.0352,3.0357,3.0086,3.0275,3.0445,3.0291,3.0475,3.0568,3.0338,3.0378,3.0428,3.0319,3.0299,3.0547,3.0687,3.0679,3.0649,3.0647,3.0624,3.0301,3.0421,3.0987,3.076,3.0579,3.1332,3.1505,3.1546,3.1228,3.1142,3.1438,3.1377,3.1313,3.1284,3.1092,3.1366,3.1448,3.1158,3.0818,3.0757,3.1017,3.0625,3.044,3.0603,3.0196,3.0154,3.0219,3.0557,3.0265,3.0247,3.0376,3.0294,3.0339,3.028,3.0024,3.002,3.0316,3.0255,3.0174,3.0449,3.0508,3.0185,3.0335,3.0274,3.0645,3.1287,3.2009,3.2984,3.448,3.6089,3.6489,3.4217,3.0991,2.9032,2.8479,2.8717,2.9426,3.056,3.0689,3.0581,3.091,3.0679,3.0645,3.0887,3.0587,3.0769,3.0733,3.096,3.1041,3.1174,3.079,3.0753,3.1175,3.108,3.0838,3.1257,3.1017,3.1277,3.1135,3.1205,3.1181,3.109,3.1043,3.1521,3.1627,3.1228,3.1245,3.1434,3.1609,3.1239,3.1641,3.1575,3.1744,3.2039,3.1814,3.1989,3.2292,3.2265,3.2422,3.2462,3.233,3.2451,3.2663,3.2807,3.2611,3.2758,3.2783,3.3138,3.2989,3.2898,3.2685,3.2417,3.2679,3.2301,3.2188,3.1728,3.1521,3.1293,3.1377,3.1483,3.1154,3.1172,3.1001,3.0826,3.1008,3.0624,3.1002,3.1042,3.0982,3.0963,3.0824,3.0703,3.0764,3.097,3.0761,3.0819,3.0849,3.0589,3.0714,3.0841,3.0842,3.0948,3.1126,3.0838,3.0914,3.0948,3.1095,3.1138,3.0896,3.1018,3.0986,3.0868,3.0865,3.1303,3.1258,3.1643,3.1377,3.1556,3.2185,3.1806,3.159,3.1608,3.1737,3.1952,3.1938,3.1745,3.1631,3.1858,3.1613,3.1096,3.1023,3.0918,3.1009,3.1107,3.1018,3.0478,3.0785,3.0703,3.0717,3.0771,3.096,3.0837,3.0717,3.0803,3.0815,3.065,3.0599,3.0805,3.071,3.0742,3.0576,3.0596,3.0676,3.0767,3.0879,3.081,3.1084,3.1723,3.3036,3.4372,3.5945,3.7025,3.5811,3.399,3.1276,2.9412,2.9051,2.9399,3.0072,3.0837,3.1204,3.1075,3.1262,3.1176,3.1213,3.1394,3.1355,3.1003,3.1247,3.1194,3.1077,3.1042,3.1574,3.1307,3.1103,3.1309,3.1732,3.1177,3.1537,3.158,3.1515,3.1456,3.1281,3.1949,3.166,3.1334,3.1358,3.1603,3.174,3.1747,3.2167,3.1965,3.1986,3.1874,3.1631,3.2131,3.2077,3.2074,3.2619,3.2613,3.2785,3.2639,3.2595,3.3038,3.2829,3.2943,3.2947,3.3016,3.3035,3.3036,3.291,3.3431,3.312,3.311,3.2689,3.2274,3.2396,3.2159,3.1616,3.1825,3.1884,3.1542,3.1411,3.0977,3.1182,3.0971,3.0978,3.1447,3.1061,3.1394,3.1274,3.125,3.0946,3.0729,3.0789,3.1118,3.1,3.1022,3.1224,3.0544,3.0977,3.117,3.1455,3.1089,3.1039,3.1204,3.1408,3.1269,3.1112,3.1221,3.1109,3.1169,3.1051,3.1299,3.1002,3.1004,3.136,3.1143,3.1392,3.1397,3.1632,3.2033,3.191,3.2164,3.2048,3.2236,3.1925,3.1923,3.1922,3.2182,3.2186,3.2018,3.2093,3.1932,3.1584,3.1476,3.1398,3.1351,3.0868,3.1141,3.0868,3.0968,3.1136,3.1139,3.0986,3.094,3.096,3.1091,3.1081,3.0665,3.0895,3.1145,3.073,3.0989,3.1177,3.0683,3.0727,3.1288,3.12,3.1089,3.1313,3.1457,3.2514,3.4039,3.5715,3.6921,3.6984,3.455,3.1427,2.9476,2.9318,2.9533,3.0259,3.1037,3.1545,3.1436,3.1481,3.1389,3.1568,3.145,3.1203,3.1207,3.1409,3.1565,3.1434,3.2081,3.1798,3.1538,3.1613,3.1862,3.1301,3.197,3.1843,3.1837,3.2192,3.194,3.1759,3.1606,3.194,3.1716,3.169,3.1681,3.2149,3.207,3.2206,3.2207,3.2195,3.2159,3.2452,3.2665,3.2829,3.2364,3.2988,3.2745,3.2772,3.2972,3.3172,3.3127,3.3173,3.3504,3.3412,3.3549,3.3398,3.3345,3.3409,3.3404,3.3217,3.3128,3.3118,3.264,3.252,3.2586,3.2456,3.2256,3.186,3.1904,3.1689,3.1554,3.1599,3.182,3.1711,3.1105,3.1356,3.1397,3.1587,3.1242,3.1311,3.1506,3.1702,3.1888,3.1391,3.1056,3.1177,3.1592,3.1619,3.156,3.1522,3.1548,3.1573,3.1804,3.1643,3.1415,3.1526,3.1731,3.1481,3.1767,3.1508,3.1629,3.1649,3.1631,3.1522,3.1564,3.1666,3.1628,3.1601,3.2335,3.2448,3.2158,3.2367,3.2402,3.2628,3.2236,3.2187,3.2482,3.2443,3.2503,3.2157,3.2297,3.234,3.2164,3.1926,3.1718,3.1323,3.133,3.1336,3.1408,3.1471,3.1282,3.1554,3.1521,3.1514,3.1458,3.1372,3.1088,3.1252,3.1621,3.1582,3.1567,3.1446,3.1184,3.125,3.132,3.1474,3.1394,3.1658,3.1739,3.2025,3.2541,3.3428,3.5218,3.6376,3.7897,3.7368,3.4506,3.14,2.9856,2.9968,3.0049,3.0661,3.1675,3.1886,3.1805,3.1823,3.1879,3.1866,3.2021,3.2187,3.1841,3.1956,3.174,3.1994,3.1897,3.1895,3.2018,3.2054,3.197,3.2172,3.2107,3.191,3.1954,3.2137,3.1858,3.2429,3.2292,3.2216,3.2369,3.2345,3.2456,3.235,3.2456,3.269,3.2804,3.2457,3.2523,3.3003,3.2825,3.2745,3.2977,3.3158,3.2999,3.3122,3.3179,3.3691,3.3872,3.378,3.3853,3.3785,3.3775,3.3469,3.3806,3.4194,3.3997,3.3484,3.3558,3.3514,3.3332,3.2937,3.2933,3.2478,3.233,3.2398,3.2271,3.1603,3.2286,3.185,3.1807,3.1958,3.187,3.1854,3.1681,3.1906,3.1853,3.191,3.1541,3.1986,3.1764,3.2076,3.1747,3.1578,3.1495,3.1354,3.1887,3.1761,3.1624,3.1871,3.2002,3.1963,3.1963,3.1902,3.1547,3.1531,3.2149,3.2116,3.1712,3.1599,3.1561,3.1895,3.2149,3.1877,3.2116,3.2179,3.1886,3.245,3.2732,3.2409,3.2836,3.2733,3.2292,3.2617,3.2525,3.2581,3.2676,3.2643,3.2623,3.2149,3.1831,3.1724,3.2081,3.157,3.1508,3.1494,3.163,3.1551,3.1569,3.1347,3.1503,3.1573,3.1577,3.1578,3.1584,3.1315,3.1541,3.133,3.1361,3.1745,3.1228,3.1154,3.1363,3.1481,3.1462,3.1644,3.1586,3.2456,3.3335,3.495,3.58,3.7162,3.718,3.4408,3.1141,3.0024,2.9637,3.0114,3.068,3.1263,3.2023,3.1621,3.2134,3.2104,3.1814,3.1393,3.153,3.1853,3.1883,3.1848,3.1906,3.1684,3.1775,3.1967,3.2062,3.1742,3.1957,3.1718,3.208,3.2268,3.2404,3.2161,3.2389,3.2405,3.2202,3.2321,3.2151,3.2384,3.2629,3.2604,3.2239,3.2343,3.2815,3.2712,3.2696,3.2794,3.2827,3.3141,3.3022,3.3076,3.3297,3.3396,3.3413,3.3373,3.3655,3.3805,3.3594,3.3745,3.4016,3.3989,3.388,3.3719,3.3509,3.3411,3.3278,3.3538,3.302,3.2605,3.2232,3.2194,3.2321,3.1908,3.1907,3.188,3.1798,3.1986,3.166,3.1577,3.1739,3.2014,3.1532,3.1711,3.1684,3.1697,3.1807,3.1729,3.1574,3.1563,3.1896,3.167,3.169,3.1552,3.1337,3.1812,3.1995,3.1788,3.167,3.1681,3.1612,3.1683,3.175,3.1846,3.1995,3.16,3.1717,3.177,3.1606,3.1774,3.1708,3.1993,3.2023,3.204,3.2106,3.2581,3.2604,3.2569,3.2575,3.2393,3.239,3.2447,3.2635,3.2767,3.251,3.2389,3.2624,3.2091,3.19,3.1505,3.1663,3.1605,3.1587,3.1614,3.1287,3.1342,3.1729,3.1675,3.1266,3.146,3.1444,3.1472,3.1452,3.1446,3.1287,3.0859,3.1349,3.155,3.1498,3.1528,3.1693,3.1547,3.1202,3.1664,3.1697,3.1953,3.2715,3.4382,3.5941,3.7596,3.7137,3.4446,3.1384,3.029,2.9775,2.9761,3.0564,3.1576,3.1581,3.1934,3.1882,3.164,3.1704,3.1918,3.1877,3.1977,3.1706,3.1793,3.1596,3.1902,3.1749,3.1419,3.199,3.1912,3.203,3.1852,3.2044,3.2031,3.2379,3.2275,3.2099,3.1927,3.2285,3.2189,3.1855,3.2029,3.2128,3.1967,3.245,3.2285,3.2283,3.273,3.2623,3.2403,3.2693,3.2957,3.2805,3.2896,3.3219,3.3248,3.3346,3.3293,3.3273,3.3118,3.356,3.3905,3.3535,3.3636,3.3702,3.3918,3.3621,3.3023,3.2921,3.2791,3.2874,3.261,3.2257,3.2158,3.2114,3.2215,3.1743,3.1517,3.1544,3.1588,3.1412,3.13,3.1129,3.1282,3.1373,3.1347,3.1212,3.1482,3.148,3.1193,3.1626,3.1187,3.1458,3.1152,3.1252,3.1233,3.1575,3.1285,3.1881,3.1534,3.1183,3.1279,3.1469,3.1403,3.1715,3.1092,3.1489,3.1144,3.0664,3.1785,3.174,3.139,3.138,3.1595,3.1445,3.2079,3.1954,3.1784,3.2219,3.1686,3.1788,3.166,3.1878,3.2429,3.2389,3.2266,3.1846,3.1395,3.1212,3.1384,3.1476,3.137,3.0916,3.0504,3.0807,3.1012,3.1456,3.0859,3.0786,3.0813,3.071,3.049,3.0987,3.1299,3.1042,3.1177,3.0796,3.0671,3.0688,3.0743,3.0601,3.0945,3.0759,3.0879,3.1224,3.1315,3.278,3.4171,3.519,3.6697,3.6542,3.4047,3.0888,3.0239,2.9528,2.9185,2.9715,3.0518,3.1207,3.1652,3.1294,3.1172,3.0873,3.1461,3.1011,3.1064,3.1271,3.1367,3.1248,3.1336,3.1144,3.1305,3.1455,3.1158,3.1208,3.126,3.1323,3.164,3.1414,3.1239,3.1448,3.1428,3.1381,3.1431,3.1422,3.1564,3.1601,3.1671,3.163,3.1401,3.1704,3.2039,3.1824,3.2372,3.224,3.2396,3.2277,3.2423,3.2253,3.2424,3.2494,3.2553,3.2524,3.2971,3.2733,3.2582,3.3074,3.2964,3.2829,3.263,3.2663,3.2252,3.2431,3.1901,3.1883,3.2038,3.1938,3.1575,3.1238,3.1157,3.0831,3.0986,3.1155,3.0833,3.0495,3.0623,3.0713,3.0697,3.0664,3.0342,3.0687,3.0765,3.0668,3.0467,3.027,3.0258,3.0527,3.0546,3.058,3.0654,3.0252,3.0463,3.0782,3.0816,3.0583,3.0424,3.0583,3.0584,3.0503,3.0747,3.0837,3.0515,3.0601,3.0542,3.123,3.0729,3.1002,3.1061,3.1391,3.154,3.0992,3.1037,3.1251,3.1193,3.1924,3.1538,3.1227,3.1465,3.081,3.1111,3.1031,3.0499,3.0185,3.0249,3.0358,3.018,3.0349,3.0176,3.0499,3.0326,3.0457,3.0037,3.0517,3.0117,3.039,3.0543,2.9821,3.0289,3.022,3.0358,3.0188,3.0164,3.041,3.036,3.0371,3.0645,3.0795,3.1116,3.2816,3.4568,3.5867,3.6725,3.3965,3.0973,2.9292,2.9117,2.8878,2.8697,2.9832,3.0848,3.0594,3.0843,3.0934,3.0653,3.0771,3.0497,3.0956,3.0714,3.072,3.0833,3.0922,3.0772,3.0975,3.0841,3.0809,3.1033,3.1004,3.0808,3.087,3.144,3.1359,3.106,3.0992,3.1229,3.1193,3.1152,3.1564,3.1273,3.1149,3.169,3.1559,3.1412,3.1412,3.1609,3.2136,3.2028,3.2088,3.226,3.2158,3.2536,3.2131,3.257,3.2634,3.2309,3.2686,3.2974,3.3095,3.3088,3.2733,3.2934,3.3045,3.2649,3.2126,3.2325,3.2337,3.196,3.1944,3.1851,3.1822,3.1586,3.1344,3.109,3.076,3.1232,3.0999,3.0966,3.0872,3.1011,3.0841,3.0921,3.1287,3.0501,3.0718,3.1037,3.116,3.115,3.0876,3.1159,3.0647,3.0501,3.0732,3.0807,3.0988,3.0939,3.0897,3.1058,3.1123,3.1212,3.1068,3.0894,3.1335,3.1013,3.1084,3.1229,3.1196,3.1333,3.1655,3.1766,3.1941,3.1944,3.1841,3.2,3.2235,3.1798,3.1765,3.1701,3.1312,3.2116,3.149,3.1125,3.1201,3.1068,3.1362,3.0943,3.0868,3.0697,3.0694,3.0713,3.1151,3.0839,3.0881,3.0797,3.0813,3.0919,3.0545,3.0913,3.1122,3.0938,3.0913,3.09,3.0658,3.0893,3.0469,3.074,3.095,3.1112,3.1962,3.3007,3.4564,3.5841,3.7128,3.6176,3.3151,3.0074,2.9328,2.924,2.9954,3.043,3.0825,3.1166,3.0987,3.1455,3.1256,3.1527,3.1473,3.1407,3.1148,3.1372,3.1619,3.1582,3.131,3.1386,3.1235,3.1485,3.1654,3.155,3.15,3.1778,3.1555,3.161,3.158,3.1584,3.1825,3.1799,3.1797,3.1955,3.1811,3.1925,3.2209,3.1974,3.1971,3.2286,3.2206,3.2606,3.2418,3.2605,3.2437,3.2661,3.2978,3.2429,3.317,3.3411,3.3197,3.3264,3.3419,3.3339,3.3082,3.3816,3.3608,3.3221,3.3307,3.3051,3.2975,3.2846,3.2354,3.2137,3.2201,3.2155,3.2024,3.1507,3.1567,3.2158,3.2263,3.159,3.1352,3.1503,3.1479,3.1578,3.136,3.1545,3.138,3.1088,3.1564,3.1471,3.1479,3.1151,3.1398,3.154,3.1561,3.1419,3.1396,3.1369,3.1499,3.1108,3.1597,3.1941,3.1684,3.1472,3.1587,3.1525,3.1464,3.1824,3.1505,3.1906,3.1897,3.1847,3.224,3.253,3.243,3.2661,3.2825,3.2073,3.2302,3.2414,3.2304,3.245,3.247,3.228,3.2131,3.2099,3.1844,3.1617,3.1464,3.1408,3.1533,3.1469,3.1567,3.1338,3.1351,3.1453,3.1404,3.1392,3.1506,3.1412,3.1504,3.1548,3.1031,3.1225,3.1387,3.1278,3.1578,3.1388,3.1331,3.1572,3.151,3.132,3.1815,3.2219,3.3695,3.5256,3.6669,3.756,3.6047,3.3193,3.1658,3.0045,2.981,2.9809,3.0736,3.1364,3.1924,3.1859,3.1846,3.198,3.1672,3.1916,3.1619,3.1785,3.1575,3.1993,3.2191,3.2296,3.1908,3.1792,3.1968,3.2138,3.1832,3.2022,3.2031,3.1832,3.2095,3.2382,3.2575,3.2287,3.2483,3.2448,3.2357,3.2594,3.2447,3.2435,3.2466,3.2462,3.278,3.2854,3.3003,3.2899,3.3073,3.2921,3.3016,3.3359,3.3273,3.3293,3.3681,3.4008,3.359,3.3928,3.366,3.4048,3.3912,3.394,3.3729,3.3445,3.3591,3.3385,3.326,3.3056,3.3011,3.3206,3.245,3.2286,3.2494,3.2248,3.2067,3.1949,3.1882,3.2087,3.1859,3.1928,3.1699,3.1995,3.178,3.1563,3.2042,3.2076,3.1965,3.1907,3.194,3.1677,3.1645,3.1627,3.1913,3.1829,3.2023,3.1894,3.1679,3.2177,3.195,3.187,3.1808,3.1723,3.2117,3.1978,3.1942,3.1984,3.1791,3.2211,3.2199,3.179,3.1642,3.2148,3.2542,3.2971,3.2899,3.2888,3.2689,3.2709,3.3048,3.2777,3.2581,3.2536,3.2789,3.2796,3.2834,3.2622,3.2271,3.2144,3.2128,3.2296,3.1991,3.1767,3.1823,3.1709,3.1631,3.1781,3.1647,3.1869,3.1879,3.1642,3.1709,3.1457,3.1737,3.1637,3.1711,3.146,3.1721,3.2117,3.192,3.1742,3.1554,3.1775,3.1878,3.2207,3.287,3.4014,3.5389,3.6928,3.8281,3.6753,3.3543,3.0931,3.0288,3.0215,3.0699,3.1681,3.2086,3.228,3.2405,3.2625,3.2414,3.2409,3.2377,3.2421,3.2487,3.24,3.2717,3.2545,3.2446,3.2688,3.2288,3.2427,3.215,3.2457,3.2587,3.2799,3.2398,3.2219,3.2327,3.2599,3.2507,3.2084,3.2466,3.2498,3.2579,3.2707,3.2619,3.2551,3.2721,3.2995,3.3079,3.308,3.3117,3.3247,3.3557,3.368,3.3732,3.3669,3.3814,3.4076,3.4168,3.425,3.4134,3.4136,3.4451,3.4356,3.4401,3.4103,3.4017,3.3992,3.4067,3.3682,3.3322,3.2465,3.2276,3.2529,3.2694,3.2155,3.2284,3.263,3.2749,3.2946,3.2984,3.2856,3.2228,3.2015,3.2018,3.2148,3.2161,3.2178,3.2087,3.2067,3.2069,3.1977,3.2213,3.2212,3.2117,3.1971,3.1959,3.2022,3.2284,3.2205,3.1956,3.1958,3.1805,3.174,3.1861,3.2127,3.1915,3.1688,3.1816,3.207,3.178,3.1802,3.1695,3.1767,3.1746,3.179,3.1448,3.166,3.1728,3.1477,3.1632,3.1534,3.1513,3.1417,3.1707,3.1531,3.183,3.2057,3.2367,3.2469,3.24,3.2166,3.2089,3.2104,3.2103,3.2187,3.2436,3.2095,3.2163,3.202,3.175,3.1513,3.1249,3.136,3.138,3.1425,3.1202,3.1135,3.1264,3.1401,3.1151,3.1287,3.0983,3.0992,3.1004,3.0998,3.1212,3.1254,3.109,3.0958,3.1017,3.1107,3.0978,3.0994,3.1114,3.1083,3.1331,3.1362,3.1882,3.3012,3.437,3.5889,3.7328,3.6799,3.3931,3.0735,2.9224,2.9256,2.9596,3.0568,3.1408,3.1562,3.1523,3.1278,3.1192,3.1672,3.1738,3.1772,3.1708,3.1434,3.1743,3.1739,3.1587,3.1718,3.1751,3.1834,3.1708,3.1655,3.1574,3.1872,3.2246,3.1994,3.1848,3.1492,3.1551,3.1941,3.1786,3.1809,3.1789,3.1764,3.1851,3.1916,3.2131,3.2,3.2127,3.2345,3.226,3.2382,3.2298,3.2644,3.2966,3.2747,3.2649,3.2601,3.274,3.2853,3.3081,3.3034,3.3054,3.3112,3.312,3.3233,3.3176,3.2892,3.2641,3.2735,3.2467,3.221,3.1863,3.1696,3.1618,3.1445,3.144,3.1412,3.1166,3.1216,3.1089,3.1159,3.1188,3.0993,3.0964,3.0927,3.1002,3.0969,3.0813,3.0837,3.0987,3.0944,3.082,3.0729,3.089,3.1022,3.086,3.0821,3.0802,3.0718,3.0966,3.1003,3.096,3.0855,3.0935,3.0929,3.091,3.0895,3.0808,3.0845,3.0849,3.0964,3.0891,3.0778,3.0697,3.0907,3.0843,3.0715,3.0639,3.0737,3.0662,3.0715,3.0658,3.0675,3.0811,3.0735,3.0651,3.0993,3.1003,3.086,3.1199,3.1102,3.1139,3.106,3.0994,3.1309,3.1618,3.1519,3.1282,3.0913,3.0903,3.1096,3.097,3.0809,3.0588,3.0445,3.0579,3.0542,3.0301,3.0007,3.0111,3.0322,3.0146,3.0192,2.9827,2.9831,3.0045,3.0085,3.002,2.9863,2.9752,2.9895,3.0035,2.9842,2.9863,2.998,2.9953,2.995,2.9868,2.9863,3.0165,3.0737,3.169,3.313,3.4548,3.652,3.6114,3.3146,2.9762,2.8423,2.7944,2.7873,2.8692,2.9478,3.0005,2.9963,3.0016,3.0093,3.0188,3.0008,2.9837,2.9904,3.0007,2.9887,2.9826,2.9799,2.9975,3.0018,3.0134,2.9949,2.989,2.9868,3.0113,3.0124,3.0147,3.01,3.0016,3.0059,3.0074,2.9823,3.0028,2.9966,3.0181,3.0143,3.0072,3.0157,3.0056,3.0182,3.031,3.0344,3.0284,3.0368,3.0549,3.0658,3.0845,3.0875,3.0905,3.1154,3.1089,3.1065,3.117,3.1178,3.1244,3.1196,3.1339,3.1268,3.1078,3.0991,3.0756,3.0589,3.0414,3.025,2.9881,2.9719,2.9724,2.9501,2.9278,2.9067,2.8925,2.8965,2.873,2.8583,2.8666,2.8771,2.866,2.8439,2.8471,2.8442,2.8436,2.8451,2.8403,2.832,2.8315,2.8477,2.8503,2.8319,2.8414,2.8265,2.849,2.8244,2.8455,2.8296,2.8191,2.8391,2.8385,2.842,2.8243,2.8237,2.8279,2.8359,2.8028,2.7974,2.8324,2.843,2.8386,2.8227,2.816,2.8061,2.7987,2.8203,2.826,2.8198,2.8199,2.8427,2.824,2.8463,2.8437,2.8485,2.8558,2.8404,2.8218,2.8115,2.8199,2.8229,2.8186,2.7985,2.7788,2.7537,2.7202,2.7489,2.7332,2.7384,2.7231,2.718,2.7371,2.726,2.7149,2.7271,2.7067,2.7105,2.7282,2.6998,2.7136,2.6799,2.6965,2.6835,2.6918,2.6817,2.7173,2.7261,2.6995,2.7158,2.7263,2.7895,2.9208,3.0678,3.2092,3.3311,3.2487,2.9774,2.6465,2.5725,2.5754,2.5604,2.5912,2.6359,2.7249,2.7333,2.7351,2.7691,2.7612,2.7424,2.7226,2.7222,2.7342,2.7389,2.754,2.7255,2.7259,2.7385,2.7544,2.7317,2.7349,2.7434,2.7294,2.7284,2.7038,2.7613,2.7664,2.7464,2.7782,2.7705,2.7525,2.7485,2.754,2.7876,2.792,2.772,2.769,2.7934,2.8002,2.8177,2.8111,2.8206,2.8174,2.8296,2.8285,2.8476,2.8686,2.873,2.8732,2.895,2.8935,2.8821,2.8927,2.8751,2.8955,2.8664,2.8353,2.8516,2.8579,2.8387,2.7659,2.77,2.7663,2.7363,2.7142,2.7217,2.7096,2.694,2.6991,2.6725,2.6871,2.6982,2.6727,2.6964,2.6701,2.654,2.675,2.6848,2.6727,2.6748,2.6775,2.6594,2.6709,2.6638,2.6863,2.6832,2.6749,2.6769,2.6766,2.676,2.7008,2.6716,2.6746,2.6744,2.6952,2.6774,2.6806,2.6493,2.6965,2.7261,2.7502,2.7538,2.757,2.7543,2.7452,2.7728,2.8079,2.7651,2.7488,2.7732,2.7823,2.798,2.7621,2.7228,2.7236,2.7231,2.6696,2.6832,2.6534,2.6969,2.6751,2.6596,2.6761,2.6871,2.6657,2.7056,2.6506,2.6588,2.6922,2.6565,2.704,2.6884,2.665,2.6433,2.6497,2.6843,2.6659,2.6391,2.6781,2.7217,2.7119,2.7245,2.7556,2.882,2.9514,3.1225,3.2663,3.2975,3.0431,2.7282,2.599,2.5604,2.5564,2.5448,2.6646,2.711,2.7233,2.6877,2.722,2.7033,2.7466,2.7612,2.7378,2.7142,2.7195,2.7366,2.7405,2.7481,2.7529,2.7156,2.7435,2.7777,2.7666,2.7399,2.751,2.7549,2.7755,2.7483,2.7364,2.7527,2.7738,2.7974,2.7869,2.8,2.8031,2.8012,2.7934,2.7981,2.8131,2.8102,2.8574,2.8588,2.865,2.8647,2.8766,2.8968,2.926,2.9087,2.9167,2.9273,2.9222,2.9529,2.9347,2.9271,2.9365,2.937,2.9599,2.918,2.9094,2.91,2.8646,2.8724,2.8252,2.8218,2.7987,2.7811,2.7825,2.7791,2.7765,2.7674,2.7481,2.7532,2.7348,2.7564,2.7235,2.7301,2.75,2.7618,2.7568,2.7346,2.7254,2.7373,2.7865,2.7597,2.7414,2.7223,2.7484,2.766,2.7655,2.7444,2.7584,2.7597,2.7493,2.7801,2.7655,2.7669,2.754,2.7929,2.7976,2.8275,2.8432,2.8272,2.8452,2.8657,2.8431,2.8698,2.8478,2.8457,2.86,2.8382,2.8593,2.8516,2.8141,2.7858,2.7925,2.7843,2.7944,2.7891,2.7653,2.7512,2.7488,2.7743,2.7681,2.7322,2.767,2.7606,2.7537,2.7661,2.7544,2.7532,2.7539,2.7504,2.7603,2.7595,2.7523,2.7603,2.7415,2.765,2.7677,2.8084,2.8226,2.8982,3.0575,3.2225,3.3531,3.4277,3.1442,2.801,2.604,2.6119,2.64,2.6915,2.7933,2.8159,2.7968,2.7917,2.8046,2.808,2.8162,2.8089,2.8408,2.7924,2.8076,2.8172,2.8033,2.8359,2.8379,2.8367,2.8327,2.8208,2.8352,2.8298,2.8174,2.8386,2.8751,2.8773,2.8548,2.8529,2.8685,2.8594,2.8682,2.8585,2.8963,2.8949,2.8839,2.8938,2.8927,2.8919,2.9422,2.9369,2.9481,2.9575,2.9758,2.9712,2.9862,2.9747,3.0169,3.0167,3.0299,3.0513,3.0402,3.0213,3.0024,3.0222,3.0265,3.0062,2.9992,2.9681,2.9622,2.9312,2.904,2.8862,2.8776,2.8623,2.8267,2.8639,2.8344,2.8255,2.817,2.8135,2.827,2.7929,2.8184,2.8242,2.8202,2.8133,2.8052,2.7947,2.8146,2.8109,2.8052,2.8098,2.7868,2.8108,2.8217,2.8311,2.787,2.7999,2.8104,2.8098,2.8206,2.8105,2.8101,2.7879,2.8309,2.824,2.8316,2.862,2.8815,2.8927,2.8956,2.9275,2.8754,2.8922,2.9065,2.883,2.9074,2.9001,2.8812,2.8712,2.8722,2.9099,2.8385,2.8274,2.829,2.8229,2.8218,2.8041,2.7822,2.789,2.8066,2.7999,2.7977,2.7741,2.8013,2.8147,2.7749,2.7597,2.7924,2.7989,2.7927,2.8149,2.8051,2.7764,2.7959,2.7898,2.7879,2.8241,2.8649,2.9355,3.0684,3.2419,3.3862,3.4531,3.207,2.8801,2.644,2.6141,2.6443,2.735,2.819,2.8396,2.8304,2.8207,2.8129,2.8427,2.8308,2.8116,2.8401,2.8579,2.8558,2.8609,2.8497,2.8339,2.8347,2.8478,2.8614,2.875,2.879,2.8719,2.8879,2.8847,2.8653,2.8408,2.8823,2.8872,2.8873,2.8801,2.8785,2.9016,2.909,2.9092,2.9158,2.8999,2.9129,2.922,2.9537,2.9684,2.9582,2.9426,2.9938,3.0147,3.0074,2.9941,3.0008,3.0091,3.0454,3.0469,3.0209,3.0408,3.0863,3.0701,3.0404,3.0155,3.0037,2.9921,2.984,2.9452,2.9272,2.9206,2.8966,2.8831,2.8711,2.8533,2.8222,2.8587,2.8597,2.8429,2.8422,2.8255,2.8121,2.8652,2.829,2.8075,2.8402,2.8155,2.8397,2.8249,2.8523,2.82,2.815,2.832,2.819,2.8313,2.8351,2.8256,2.8225,2.8539,2.8351,2.8384,2.8299,2.8493,2.8349,2.8281,2.8304,2.8631,2.8961,2.8929,2.9205,2.9442,2.9212,2.9161,2.9155,2.9037,2.9077,2.9073,2.9255,2.9193,2.8862,2.8876,2.8688,2.8456,2.8594,2.8412,2.8295,2.8115,2.8179,2.8303,2.8265,2.7977,2.8045,2.8187,2.8061,2.7972,2.8001,2.8001,2.8175,2.8416,2.8419,2.8233,2.8093,2.7977,2.8235,2.8336,2.83,2.7913,2.8252,2.8924,2.9456,3.0683,3.1964,3.3793,3.4796,3.2878,3.1225,2.7999,2.6156,2.6166,2.6948,2.8036,2.8156,2.8659,2.8535,2.8819,2.8594,2.8467,2.8477,2.8626,2.881,2.8953,2.8523,2.8787,2.8575,2.8769,2.875,2.8741,2.8689,2.8882,2.8856,2.8948,2.9016,2.8989,2.888,2.9104,2.9086,2.8956,2.8884,2.9187,2.9337,2.9217,2.9157,2.9134,2.9255,2.9649,2.9801,2.9569,2.9583,2.9725,2.9871,3.0155,3.0274,3.0355,3.0216,3.0224,3.0582,3.0517,3.0571,3.0523,3.0798,3.0657,3.0795,3.0601,3.0398,3.0396,3.0337,3.004,2.9768,2.9514,2.9588,2.934,2.9097,2.9066,2.8793,2.866,2.8798,2.8504,2.8707,2.8229,2.8696,2.8442,2.8284,2.8635,2.8462,2.8743,2.8536,2.8484,2.8447,2.8608,2.8238,2.8469,2.8748,2.8658,2.8322,2.8445,2.8488,2.8636,2.847,2.8497,2.8605,2.8666,2.8736,2.8586,2.8527,2.8588,2.8919,2.863,2.8425,2.8601,2.8702,2.8995,2.9137,2.9373,2.9374,2.9274,2.9461,2.94,2.9308,2.9314,2.9292,2.9611,2.9385,2.9339,2.8855,2.8704,2.883,2.8605,2.8647,2.8539,2.8154,2.8443,2.8316,2.8269,2.8424,2.8519,2.8293,2.8465,2.8465,2.8368,2.8139,2.8317,2.8439,2.8419,2.8325,2.8269,2.8377,2.8482,2.8517,2.8365,2.8609,2.8634,2.8843,2.94,3.0842,3.2266,3.4116,3.4923,3.278,2.9548,2.6881,2.6441,2.6948,2.7331,2.8279,2.8827,2.886,2.8678,2.8924,2.8755,2.8763,2.8812,2.8968,2.8654,2.8835,2.8766,2.8878,2.8928,2.8813,2.8996,2.9009,2.8804,2.9277,2.9196,2.9026,2.8934,2.9028,2.8995,2.9173,2.9062,2.9217,2.9217,2.9271,2.9401,2.9524,2.9463,2.9507,2.9614,2.9719,2.9707,2.9951,2.965,3.0009,3.0011,3.0212,3.0396,3.0489,3.0384,3.0681,3.0813,3.081,3.0586,3.0535,3.0891,3.0998,3.096,3.0425,3.062,3.0428,3.0363,3.0071,2.978,2.9763,2.9351,2.9351,2.909,2.879,2.8668,2.8764,2.8846,2.8768,2.8987,2.8488,2.8662,2.8659,2.8716,2.8445,2.8613,2.8482,2.8298,2.8588,2.8618,2.846,2.8487,2.8367,2.853,2.8458,2.8309,2.8562,2.8682,2.8655,2.8668,2.8843,2.8485,2.8544,2.8819,2.8489,2.8654,2.8534,2.8718,2.8779,2.8481,2.8259,2.8608,2.8739,2.8962,2.906,2.9315,2.9456,2.9505,2.95,2.9322,2.9168,2.9226,2.9349,2.938,2.9528,2.9288,2.9115,2.8934,2.8662,2.8692,2.8553,2.8439,2.8378,2.8465,2.8448,2.8294,2.8295,2.8231,2.825,2.8479,2.8231,2.8183,2.8301,2.8298,2.8047,2.8285,2.818,2.8197,2.8453,2.8304,2.8239,2.8267,2.8099,2.8384,2.8471,2.8984,3.0008,3.1228,3.2793,3.4669,3.4653,3.3145,3.0046,2.694,2.6723,2.6657,2.7135,2.8005,2.8681,2.8824,2.848,2.864,2.844,2.8963,2.8696,2.8662,2.8497,2.8793,2.8842,2.8698,2.891,2.8627,2.8886,2.8809,2.8873,2.9071,2.8925,2.8844,2.9072,2.9109,2.9011,2.8738,2.928,2.9136,2.9312,2.9133,2.9088,2.9193,2.9287,2.9219,2.9263,2.9298,2.9459,2.9823,2.9737,2.9872,3.0007,2.9877,3.0084,3.0258,3.0436,3.0452,3.0366,3.053,3.0915,3.0868,3.0669,3.0586,3.0806,3.068,3.0646,3.035,3.0029,2.9896,2.9906,2.9591,2.9457,2.9323,2.9225,2.887,2.9018,2.8608,2.8505,2.8682,2.8405,2.8418,2.8569,2.8318,2.8283,2.8374,2.8441,2.8323,2.8446,2.8404,2.8514,2.8678,2.8354,2.8034,2.8386,2.8512,2.8272,2.8596,2.8468,2.8287,2.8346,2.8777,2.8657,2.8185,2.8265
