-18.747,-18.762,-18.73,-18.748,-18.744,-18.735,-18.734,-18.746,-18.76,-18.739,-18.741,-18.739,-18.728,-18.744,-18.767,-18.765,-18.733,-18.75,-18.747,-18.765,-18.759,-18.741,-18.744,-18.738,-18.733,-18.728,-18.722,-18.724,-18.699,-18.679,-18.644,-18.642,-18.643,-18.665,-18.703,-18.701,-18.697,-18.698,-18.718,-18.734,-18.753,-18.763,-18.766,-18.769,-18.764,-18.761,-18.781,-18.776,-18.782,-18.791,-18.78,-18.8,-18.787,-18.784,-18.797,-18.79,-18.786,-18.782,-18.785,-18.796,-18.811,-18.864,-18.884,-18.825,-18.672,-18.425,-18.178,-18.005,-17.629,-17.428,-17.53,-17.926,-18.344,-18.722,-18.9,-18.873,-18.843,-18.739,-18.729,-18.705,-18.736,-18.736,-18.733,-18.717,-18.735,-18.716,-18.732,-18.713,-18.737,-18.706,-18.72,-18.705,-18.698,-18.687,-18.696,-18.702,-18.707,-18.686,-18.667,-18.668,-18.674,-18.663,-18.669,-18.636,-18.638,-18.645,-18.621,-18.617,-18.617,-18.58,-18.591,-18.591,-18.572,-18.561,-18.54,-18.536,-18.514,-18.497,-18.48,-18.47,-18.458,-18.435,-18.402,-18.367,-18.353,-18.341,-18.346,-18.338,-18.322,-18.313,-18.299,-18.277,-18.269,-18.286,-18.293,-18.3,-18.316,-18.344,-18.365,-18.391,-18.438,-18.469,-18.521,-18.551,-18.577,-18.61,-18.644,-18.672,-18.686,-18.702,-18.708,-18.72,-18.739,-18.753,-18.758,-18.768,-18.76,-18.777,-18.777,-18.772,-18.771,-18.765,-18.78,-18.783,-18.77,-18.773,-18.758,-18.768,-18.761,-18.768,-18.757,-18.757,-18.763,-18.77,-18.756,-18.765,-18.752,-18.767,-18.778,-18.775,-18.754,-18.752,-18.762,-18.756,-18.75,-18.764,-18.763,-18.777,-18.765,-18.785,-18.769,-18.763,-18.739,-18.783,-18.78,-18.796,-18.778,-18.783,-18.788,-18.774,-18.776,-18.786,-18.777,-18.798,-18.794,-18.787,-18.787,-18.785,-18.799,-18.801,-18.791,-18.775,-18.773,-18.789,-18.803,-18.798,-18.793,-18.785,-18.789,-18.793,-18.79,-18.806,-18.783,-18.791,-18.797,-18.797,-18.785,-18.789,-18.798,-18.806,-18.788,-18.789,-18.787,-18.761,-18.791,-18.784,-18.787,-18.791,-18.801,-18.789,-18.796,-18.804,-18.785,-18.777,-18.792,-18.8,-18.791,-18.768,-18.784,-18.783,-18.8,-18.783,-18.782,-18.759,-18.776,-18.777,-18.789,-18.772,-18.767,-18.745,-18.76,-18.736,-18.713,-18.678,-18.682,-18.689,-18.719,-18.715,-18.727,-18.736,-18.742,-18.761,-18.752,-18.756,-18.777,-18.791,-18.793,-18.788,-18.792,-18.806,-18.817,-18.824,-18.815,-18.804,-18.812,-18.822,-18.795,-18.813,-18.811,-18.798,-18.816,-18.81,-18.803,-18.797,-18.811,-18.854,-18.915,-18.877,-18.737,-18.526,-18.298,-18.043,-17.646,-17.465,-17.594,-17.996,-18.442,-18.811,-18.932,-18.92,-18.883,-18.807,-18.778,-18.763,-18.752,-18.76,-18.781,-18.775,-18.778,-18.766,-18.783,-18.781,-18.807,-18.774,-18.801,-18.793,-18.8,-18.809,-18.813,-18.811,-18.827,-18.848,-18.842,-18.85,-18.833,-18.803,-18.819,-18.851,-18.862,-18.842,-18.835,-18.84,-18.848,-18.857,-18.854,-18.839,-18.841,-18.836,-18.842,-18.816,-18.796,-18.786,-18.782,-18.761,-18.733,-18.729,-18.716,-18.696,-18.679,-18.652,-18.646,-18.644,-18.624,-18.63,-18.61,-18.613,-18.604,-18.595,-18.599,-18.608,-18.611,-18.624,-18.642,-18.688,-18.709,-18.745,-18.799,-18.829,-18.874,-18.912,-18.933,-18.979,-18.999,-19.032,-19.024,-19.06,-19.056,-19.077,-19.082,-19.087,-19.072,-19.075,-19.092,-19.096,-19.102,-19.095,-19.107,-19.1,-19.108,-19.124,-19.121,-19.137,-19.109,-19.084,-19.091,-19.062,-19.051,-19.063,-19.067,-19.069,-19.054,-19.04,-19.017,-19.03,-19.037,-19.053,-19.062,-19.055,-19.052,-19.058,-19.096,-19.105,-19.125,-19.132,-19.146,-19.146,-19.113,-19.111,-19.099,-19.083,-19.045,-19.005,-18.98,-18.962,-18.954,-18.948,-18.955,-18.945,-18.996,-19.049,-19.082,-19.096,-19.121,-19.134,-19.135,-19.151,-19.153,-19.146,-19.141,-19.151,-19.139,-19.158,-19.136,-19.099,-19.111,-19.122,-19.113,-19.09,-19.101,-19.095,-19.096,-19.1,-19.097,-19.11,-19.113,-19.108,-19.102,-19.087,-19.044,-19.047,-18.981,-18.956,-18.933,-18.919,-18.921,-18.949,-18.932,-18.884,-18.833,-18.847,-18.87,-18.867,-18.891,-18.873,-18.888,-18.881,-18.896,-18.893,-18.943,-18.932,-18.933,-18.949,-18.939,-18.935,-18.94,-18.936,-18.935,-18.932,-18.931,-18.917,-18.914,-18.934,-18.937,-18.915,-18.888,-18.906,-18.914,-18.898,-18.906,-18.895,-18.94,-18.984,-18.957,-18.81,-18.581,-18.305,-18.01,-17.633,-17.505,-17.7,-18.141,-18.548,-18.914,-18.989,-18.924,-18.876,-18.812,-18.786,-18.753,-18.77,-18.776,-18.789,-18.787,-18.783,-18.763,-18.778,-18.77,-18.788,-18.768,-18.776,-18.748,-18.765,-18.743,-18.745,-18.741,-18.732,-18.728,-18.737,-18.725,-18.729,-18.696,-18.692,-18.698,-18.699,-18.664,-18.651,-18.652,-18.658,-18.635,-18.625,-18.606,-18.592,-18.584,-18.574,-18.547,-18.54,-18.504,-18.486,-18.486,-18.47,-18.466,-18.437,-18.429,-18.4,-18.395,-18.371,-18.357,-18.329,-18.338,-18.327,-18.318,-18.291,-18.301,-18.322,-18.348,-18.333,-18.365,-18.414,-18.465,-18.48,-18.513,-18.528,-18.583,-18.614,-18.652,-18.687,-18.714,-18.744,-18.736,-18.773,-18.781,-18.786,-18.786,-18.798,-18.808,-18.814,-18.788,-18.803,-18.793,-18.796,-18.806,-18.797,-18.793,-18.799,-18.802,-18.799,-18.783,-18.79,-18.788,-18.784,-18.789,-18.77,-18.782,-18.785,-18.785,-18.785,-18.784,-18.784,-18.771,-18.784,-18.791,-18.794,-18.776,-18.766,-18.797,-18.794,-18.791,-18.764,-18.775,-18.786,-18.796,-18.79,-18.791,-18.79,-18.809,-18.799,-18.814,-18.829,-18.849,-18.851,-18.853,-18.878,-18.862,-18.88,-18.887,-18.896,-18.905,-18.914,-18.903,-18.926,-18.924,-18.93,-18.92,-18.921,-18.914,-18.9,-18.91,-18.885,-18.875,-18.896,-18.89,-18.871,-18.838,-18.791,-18.789,-18.783,-18.804,-18.827,-18.809,-18.822,-18.817,-18.833,-18.842,-18.844,-18.867,-18.882,-18.872,-18.864,-18.838,-18.845,-18.856,-18.856,-18.868,-18.859,-18.855,-18.857,-18.851,-18.84,-18.849,-18.847,-18.845,-18.845,-18.876,-18.848,-18.867,-18.921,-18.938,-18.862,-18.674,-18.436,-18.302,-18.006,-17.616,-17.483,-17.618,-18.076,-18.476,-18.863,-18.943,-18.902,-18.847,-18.787,-18.746,-18.749,-18.775,-18.758,-18.775,-18.771,-18.771,-18.752,-18.741,-18.723,-18.753,-18.74,-18.742,-18.733,-18.733,-18.715,-18.722,-18.7,-18.697,-18.698,-18.7,-18.696,-18.689,-18.673,-18.682,-18.67,-18.658,-18.632,-18.643,-18.625,-18.626,-18.63,-18.613,-18.585,-18.58,-18.568,-18.558,-18.549,-18.523,-18.495,-18.491,-18.479,-18.465,-18.437,-18.414,-18.398,-18.376,-18.378,-18.369,-18.338,-18.322,-18.326,-18.32,-18.317,-18.309,-18.297,-18.319,-18.348,-18.362,-18.385,-18.408,-18.444,-18.485,-18.516,-18.554,-18.601,-18.638,-18.676,-18.682,-18.682,-18.698,-18.726,-18.748,-18.753,-18.745,-18.764,-18.773,-18.774,-18.757,-18.769,-18.766,-18.767,-18.782,-18.786,-18.777,-18.778,-18.783,-18.769,-18.758,-18.768,-18.756,-18.766,-18.77,-18.767,-18.75,-18.751,-18.739,-18.751,-18.754,-18.758,-18.751,-18.73,-18.727,-18.738,-18.746,-18.729,-18.738,-18.739,-18.734,-18.754,-18.729,-18.736,-18.743,-18.751,-18.747,-18.748,-18.747,-18.762,-18.757,-18.775,-18.76,-18.761,-18.768,-18.774,-18.761,-18.755,-18.768,-18.757,-18.765,-18.774,-18.778,-18.76,-18.767,-18.759,-18.76,-18.763,-18.759,-18.765,-18.769,-18.784,-18.771,-18.761,-18.764,-18.774,-18.773,-18.764,-18.755,-18.777,-18.783,-18.787,-18.77,-18.772,-18.77,-18.764,-18.754,-18.761,-18.758,-18.754,-18.779,-18.768,-18.76,-18.743,-18.774,-18.75,-18.756,-18.774,-18.768,-18.764,-18.747,-18.762,-18.77,-18.773,-18.769,-18.754,-18.77,-18.779,-18.772,-18.757,-18.743,-18.745,-18.741,-18.726,-18.728,-18.709,-18.69,-18.659,-18.676,-18.655,-18.677,-18.704,-18.702,-18.71,-18.712,-18.712,-18.71,-18.731,-18.746,-18.757,-18.776,-18.788,-18.807,-18.798,-18.788,-18.768,-18.771,-18.814,-18.788,-18.798,-18.787,-18.792,-18.797,-18.796,-18.787,-18.789,-18.781,-18.788,-18.825,-18.884,-18.848,-18.74,-18.555,-18.313,-18.063,-17.666,-17.434,-17.486,-17.894,-18.329,-18.693,-18.843,-18.897,-18.85,-18.778,-18.723,-18.692,-18.722,-18.722,-18.739,-18.723,-18.708,-18.712,-18.729,-18.719,-18.717,-18.705,-18.701,-18.695,-18.691,-18.67,-18.676,-18.68,-18.677,-18.676,-18.675,-18.671,-18.656,-18.648,-18.657,-18.645,-18.636,-18.629,-18.611,-18.62,-18.619,-18.569,-18.582,-18.576,-18.576,-18.549,-18.538,-18.504,-18.501,-18.487,-18.466,-18.464,-18.43,-18.404,-18.406,-18.381,-18.349,-18.334,-18.335,-18.312,-18.3,-18.289,-18.273,-18.265,-18.256,-18.255,-18.255,-18.258,-18.249,-18.287,-18.306,-18.334,-18.355,-18.386,-18.427,-18.49,-18.516,-18.547,-18.578,-18.62,-18.625,-18.655,-18.677,-18.687,-18.69,-18.712,-18.722,-18.72,-18.721,-18.735,-18.739,-18.743,-18.729,-18.73,-18.743,-18.734,-18.741,-18.745,-18.733,-18.731,-18.731,-18.733,-18.732,-18.72,-18.728,-18.723,-18.721,-18.719,-18.71,-18.721,-18.73,-18.724,-18.722,-18.709,-18.714,-18.718,-18.719,-18.716,-18.708,-18.71,-18.716,-18.737,-18.725,-18.714,-18.715,-18.717,-18.738,-18.742,-18.735,-18.726,-18.733,-18.722,-18.74,-18.729,-18.729,-18.747,-18.744,-18.753,-18.746,-18.744,-18.746,-18.747,-18.754,-18.745,-18.752,-18.748,-18.758,-18.75,-18.752,-18.746,-18.749,-18.748,-18.749,-18.756,-18.75,-18.759,-18.76,-18.745,-18.755,-18.745,-18.75,-18.747,-18.758,-18.754,-18.747,-18.757,-18.747,-18.751,-18.758,-18.757,-18.74,-18.744,-18.743,-18.751,-18.741,-18.746,-18.749,-18.753,-18.769,-18.75,-18.752,-18.75,-18.754,-18.753,-18.75,-18.736,-18.751,-18.752,-18.726,-18.738,-18.738,-18.741,-18.745,-18.741,-18.719,-18.7,-18.703,-18.683,-18.656,-18.636,-18.646,-18.691,-18.704,-18.701,-18.684,-18.691,-18.714,-18.712,-18.711,-18.733,-18.753,-18.749,-18.758,-18.775,-18.78,-18.764,-18.754,-18.759,-18.773,-18.777,-18.772,-18.777,-18.762,-18.764,-18.771,-18.771,-18.768,-18.771,-18.77,-18.771,-18.8,-18.84,-18.866,-18.781,-18.621,-18.383,-18.128,-17.762,-17.468,-17.419,-17.719,-18.194,-18.574,-18.86,-18.876,-18.815,-18.757,-18.716,-18.684,-18.677,-18.703,-18.699,-18.701,-18.69,-18.696,-18.688,-18.682,-18.689,-18.68,-18.682,-18.679,-18.674,-18.662,-18.664,-18.66,-18.651,-18.649,-18.649,-18.643,-18.658,-18.636,-18.62,-18.61,-18.618,-18.607,-18.609,-18.593,-18.583,-18.563,-18.564,-18.537,-18.539,-18.523,-18.51,-18.513,-18.502,-18.464,-18.439,-18.44,-18.423,-18.418,-18.401,-18.387,-18.356,-18.339,-18.302,-18.317,-18.296,-18.277,-18.262,-18.264,-18.255,-18.251,-18.226,-18.237,-18.262,-18.289,-18.299,-18.305,-18.356,-18.379,-18.413,-18.457,-18.481,-18.514,-18.561,-18.605,-18.615,-18.635,-18.658,-18.672,-18.691,-18.704,-18.694,-18.703,-18.702,-18.716,-18.711,-18.708,-18.707,-18.719,-18.719,-18.721,-18.723,-18.709,-18.709,-18.701,-18.717,-18.701,-18.705,-18.708,-18.694,-18.701,-18.708,-18.703,-18.7,-18.695,-18.697,-18.698,-18.691,-18.676,-18.687,-18.688,-18.694,-18.692,-18.682,-18.686,-18.688,-18.716,-18.698,-18.675,-18.695,-18.7,-18.698,-18.706,-18.691,-18.697,-18.714,-18.722,-18.702,-18.702,-18.708,-18.715,-18.716,-18.705,-18.703,-18.718,-18.711,-18.721,-18.725,-18.724,-18.704,-18.713,-18.724,-18.709,-18.713,-18.722,-18.728,-18.73,-18.717,-18.709,-18.719,-18.712,-18.721,-18.73,-18.723,-18.709,-18.709,-18.714,-18.719,-18.717,-18.703,-18.714,-18.707,-18.712,-18.703,-18.696,-18.702,-18.705,-18.715,-18.696,-18.684,-18.684,-18.679,-18.67,-18.657,-18.612,-18.616,-18.617,-18.644,-18.664,-18.643,-18.642,-18.67,-18.669,-18.667,-18.683,-18.706,-18.712,-18.743,-18.74,-18.73,-18.725,-18.737,-18.744,-18.734,-18.733,-18.74,-18.724,-18.736,-18.735,-18.736,-18.722,-18.727,-18.725,-18.73,-18.718,-18.732,-18.749,-18.816,-18.845,-18.742,-18.544,-18.296,-18.024,-17.657,-17.391,-17.368,-17.743,-18.198,-18.57,-18.815,-18.801,-18.769,-18.717,-18.664,-18.657,-18.644,-18.648,-18.644,-18.657,-18.667,-18.644,-18.662,-18.654,-18.648,-18.654,-18.645,-18.631,-18.64,-18.637,-18.638,-18.64,-18.627,-18.617,-18.619,-18.611,-18.598,-18.582,-18.584,-18.596,-18.584,-18.581,-18.567,-18.562,-18.563,-18.524,-18.521,-18.531,-18.509,-18.492,-18.479,-18.476,-18.437,-18.42,-18.406,-18.39,-18.379,-18.355,-18.34,-18.326,-18.296,-18.296,-18.259,-18.252,-18.233,-18.23,-18.22,-18.214,-18.199,-18.19,-18.2,-18.223,-18.23,-18.242,-18.262,-18.308,-18.327,-18.376,-18.393,-18.4,-18.465,-18.518,-18.543,-18.566,-18.594,-18.613,-18.631,-18.653,-18.655,-18.675,-18.668,-18.675,-18.672,-18.686,-18.688,-18.696,-18.678,-18.688,-18.692,-18.686,-18.681,-18.695,-18.7,-18.678,-18.664,-18.668,-18.674,-18.684,-18.673,-18.658,-18.676,-18.671,-18.671,-18.664,-18.651,-18.662,-18.67,-18.668,-18.669,-18.653,-18.658,-18.653,-18.658,-18.654,-18.649,-18.669,-18.662,-18.674,-18.667,-18.661,-18.675,-18.659,-18.676,-18.673,-18.657,-18.668,-18.677,-18.683,-18.694,-18.66,-18.672,-18.678,-18.673,-18.678,-18.687,-18.684,-18.682,-18.684,-18.704,-18.687,-18.684,-18.683,-18.692,-18.687,-18.689,-18.673,-18.693,-18.701,-18.696,-18.698,-18.689,-18.681,-18.683,-18.69,-18.705,-18.69,-18.684,-18.695,-18.696,-18.695,-18.695,-18.689,-18.697,-18.697,-18.691,-18.677,-18.676,-18.673,-18.679,-18.674,-18.647,-18.605,-18.589,-18.593,-18.609,-18.624,-18.619,-18.65,-18.672,-18.662,-18.654,-18.676,-18.699,-18.723,-18.724,-18.721,-18.706,-18.717,-18.725,-18.723,-18.742,-18.731,-18.707,-18.737,-18.735,-18.73,-18.725,-18.718,-18.738,-18.738,-18.728,-18.724,-18.741,-18.782,-18.849,-18.771,-18.61,-18.379,-18.246,-17.973,-17.557,-17.358,-17.402,-17.828,-18.259,-18.649,-18.815,-18.791,-18.745,-18.669,-18.662,-18.647,-18.651,-18.656,-18.66,-18.661,-18.661,-18.647,-18.654,-18.653,-18.651,-18.645,-18.661,-18.635,-18.632,-18.633,-18.629,-18.616,-18.607,-18.612,-18.608,-18.588,-18.579,-18.572,-18.557,-18.579,-18.567,-18.56,-18.542,-18.539,-18.535,-18.539,-18.512,-18.495,-18.48,-18.478,-18.452,-18.437,-18.419,-18.401,-18.389,-18.387,-18.354,-18.335,-18.326,-18.31,-18.301,-18.288,-18.262,-18.255,-18.253,-18.245,-18.225,-18.22,-18.197,-18.218,-18.223,-18.227,-18.235,-18.251,-18.29,-18.324,-18.365,-18.399,-18.428,-18.461,-18.513,-18.555,-18.582,-18.573,-18.593,-18.625,-18.656,-18.659,-18.659,-18.657,-18.67,-18.678,-18.683,-18.687,-18.687,-18.703,-18.697,-18.691,-18.675,-18.678,-18.684,-18.694,-18.687,-18.683,-18.673,-18.674,-18.686,-18.673,-18.671,-18.673,-18.674,-18.673,-18.672,-18.672,-18.67,-18.659,-18.667,-18.668,-18.65,-18.657,-18.66,-18.669,-18.679,-18.671,-18.668,-18.68,-18.671,-18.665,-18.667,-18.669,-18.674,-18.68,-18.692,-18.667,-18.66,-18.666,-18.675,-18.677,-18.672,-18.659,-18.677,-18.67,-18.68,-18.687,-18.684,-18.674,-18.687,-18.678,-18.683,-18.667,-18.665,-18.675,-18.681,-18.688,-18.684,-18.676,-18.679,-18.699,-18.682,-18.675,-18.677,-18.679,-18.681,-18.678,-18.689,-18.681,-18.69,-18.676,-18.671,-18.687,-18.679,-18.694,-18.685,-18.698,-18.674,-18.679,-18.669,-18.686,-18.687,-18.679,-18.674,-18.684,-18.692,-18.691,-18.697,-18.675,-18.687,-18.667,-18.699,-18.678,-18.67,-18.681,-18.686,-18.669,-18.677,-18.672,-18.658,-18.671,-18.677,-18.651,-18.645,-18.62,-18.588,-18.579,-18.588,-18.585,-18.607,-18.624,-18.605,-18.622,-18.629,-18.633,-18.632,-18.649,-18.677,-18.716,-18.694,-18.697,-18.694,-18.706,-18.701,-18.696,-18.704,-18.697,-18.684,-18.683,-18.697,-18.708,-18.713,-18.711,-18.725,-18.689,-18.684,-18.706,-18.775,-18.829,-18.75,-18.599,-18.37,-18.13,-17.836,-17.424,-17.307,-17.541,-17.741,-18.181,-18.543,-18.785,-18.795,-18.725,-18.678,-18.628,-18.62,-18.621,-18.636,-18.636,-18.642,-18.648,-18.632,-18.633,-18.639,-18.626,-18.639,-18.619,-18.621,-18.628,-18.619,-18.605,-18.611,-18.602,-18.6,-18.597,-18.598,-18.592,-18.599,-18.586,-18.567,-18.547,-18.551,-18.545,-18.556,-18.549,-18.53,-18.512,-18.504,-18.488,-18.502,-18.472,-18.447,-18.436,-18.432,-18.422,-18.4,-18.356,-18.355,-18.334,-18.318,-18.29,-18.274,-18.258,-18.239,-18.229,-18.232,-18.214,-18.208,-18.196,-18.192,-18.183,-18.204,-18.203,-18.237,-18.258,-18.294,-18.315,-18.357,-18.399,-18.427,-18.47,-18.513,-18.565,-18.573,-18.61,-18.621,-18.646,-18.648,-18.656,-18.672,-18.676,-18.684,-18.687,-18.696,-18.698,-18.691,-18.704,-18.695,-18.693,-18.69,-18.7,-18.695,-18.702,-18.691,-18.687,-18.678,-18.687,-18.676,-18.674,-18.678,-18.688,-18.683,-18.692,-18.67,-18.671,-18.677,-18.668,-18.671,-18.661,-18.67,-18.676,-18.691,-18.673,-18.668,-18.666,-18.672,-18.682,-18.674,-18.685,-18.68,-18.675,-18.686,-18.689,-18.668,-18.672,-18.678,-18.694,-18.706,-18.694,-18.684,-18.675,-18.687,-18.689,-18.683,-18.689,-18.7,-18.703,-18.703,-18.695,-18.667,-18.689,-18.698,-18.701,-18.707,-18.694,-18.695,-18.683,-18.691,-18.7,-18.699,-18.697,-18.704,-18.709,-18.688,-18.687,-18.694,-18.702,-18.692,-18.702,-18.701,-18.705,-18.705,-18.707,-18.713,-18.689,-18.685,-18.686,-18.681,-18.674,-18.64,-18.634,-18.608,-18.602,-18.605,-18.611,-18.639,-18.65,-18.651,-18.653,-18.651,-18.663,-18.691,-18.711,-18.719,-18.712,-18.711,-18.74,-18.735,-18.716,-18.716,-18.721,-18.727,-18.733,-18.74,-18.736,-18.722,-18.736,-18.726,-18.712,-18.728,-18.729,-18.735,-18.756,-18.838,-18.831,-18.732,-18.543,-18.304,-18.013,-17.843,-17.467,-17.331,-17.765,-18.217,-18.604,-18.81,-18.811,-18.756,-18.732,-18.696,-18.652,-18.644,-18.65,-18.673,-18.651,-18.669,-18.666,-18.657,-18.649,-18.643,-18.651,-18.642,-18.639,-18.645,-18.646,-18.647,-18.628,-18.639,-18.635,-18.636,-18.625,-18.62,-18.624,-18.606,-18.615,-18.597,-18.594,-18.587,-18.593,-18.582,-18.578,-18.564,-18.548,-18.525,-18.53,-18.522,-18.502,-18.495,-18.493,-18.489,-18.443,-18.438,-18.434,-18.413,-18.398,-18.386,-18.371,-18.336,-18.336,-18.319,-18.306,-18.285,-18.301,-18.292,-18.284,-18.288,-18.28,-18.289,-18.296,-18.283,-18.391,-18.449,-18.402,-18.495,-18.542,-18.528,-18.641,-18.663,-18.677,-18.688,-18.721,-18.737,-18.743,-18.759,-18.772,-18.782,-18.787,-18.761,-18.753,-18.781,-18.785,-18.792,-18.774,-18.795,-18.772,-18.776,-18.789,-18.784,-18.773,-18.766,-18.768,-18.769,-18.754,-18.739,-18.732,-18.753,-18.74,-18.744,-18.732,-18.733,-18.732,-18.726,-18.733,-18.708,-18.702,-18.703,-18.709,-18.701,-18.691,-18.708,-18.697,-18.702,-18.707,-18.695,-18.703,-18.681,-18.706,-18.701,-18.698,-18.693,-18.695,-18.695,-18.706,-18.71,-18.702,-18.706,-18.701,-18.709,-18.705,-18.686,-18.692,-18.715,-18.711,-18.693,-18.692,-18.69,-18.678,-18.687,-18.682,-18.652,-18.625,-18.612,-18.615,-18.617,-18.609,-18.641,-18.65,-18.672,-18.683,-18.677,-18.686,-18.706,-18.728,-18.749,-18.733,-18.747,-18.748,-18.756,-18.749,-18.756,-18.75,-18.74,-18.752,-18.765,-18.765,-18.764,-18.755,-18.749,-18.77,-18.762,-18.759,-18.803,-18.854,-18.861,-18.774,-18.583,-18.335,-18.032,-17.678,-17.505,-17.378,-17.571,-18.032,-18.429,-18.803,-18.852,-18.833,-18.77,-18.727,-18.683,-18.671,-18.671,-18.683,-18.683,-18.685,-18.692,-18.665,-18.671,-18.656,-18.671,-18.668,-18.664,-18.654,-18.661,-18.648,-18.641,-18.654,-18.632,-18.634,-18.638,-18.632,-18.62,-18.605,-18.605,-18.594,-18.589,-18.582,-18.583,-18.573,-18.57,-18.544,-18.53,-18.524,-18.503,-18.506,-18.492,-18.474,-18.446,-18.43,-18.427,-18.398,-18.378,-18.343,-18.338,-18.326,-18.308,-18.298,-18.271,-18.262,-18.252,-18.259,-18.248,-18.237,-18.238,-18.238,-18.25,-18.275,-18.293,-18.319,-18.353,-18.4,-18.437,-18.459,-18.504,-18.547,-18.575,-18.6,-18.623,-18.648,-18.666,-18.685,-18.696,-18.707,-18.705,-18.714,-18.717,-18.725,-18.728,-18.721,-18.727,-18.746,-18.742,-18.731,-18.723,-18.723,-18.728,-18.737,-18.735,-18.717,-18.718,-18.717,-18.729,-18.726,-18.701,-18.709,-18.715,-18.71,-18.709,-18.713,-18.696,-18.71,-18.717,-18.699,-18.689,-18.687,-18.694,-18.698,-18.705,-18.702,-18.709,-18.718,-18.711,-18.724,-18.71,-18.71,-18.719,-18.715,-18.725,-18.714,-18.712,-18.716,-18.722,-18.718,-18.717,-18.722,-18.722,-18.725,-18.736,-18.726,-18.721,-18.714,-18.731,-18.734,-18.74,-18.722,-18.723,-18.717,-18.724,-18.714,-18.703,-18.695,-18.69,-18.686,-18.669,-18.632,-18.618,-18.626,-18.629,-18.647,-18.653,-18.652,-18.668,-18.686,-18.688,-18.693,-18.697,-18.718,-18.743,-18.748,-18.744,-18.748,-18.745,-18.755,-18.765,-18.761,-18.745,-18.75,-18.753,-18.751,-18.752,-18.762,-18.753,-18.765,-18.778,-18.756,-18.758,-18.802,-18.857,-18.844,-18.701,-18.48,-18.227,-17.932,-17.54,-17.393,-17.535,-17.977,-18.397,-18.768,-18.865,-18.84,-18.82,-18.744,-18.73,-18.691,-18.697,-18.708,-18.704,-18.698,-18.712,-18.696,-18.702,-18.685,-18.694,-18.683,-18.696,-18.673,-18.682,-18.674,-18.685,-18.666,-18.671,-18.651,-18.668,-18.659,-18.645,-18.638,-18.637,-18.629,-18.634,-18.614,-18.606,-18.583,-18.587,-18.585,-18.574,-18.559,-18.538,-18.525,-18.522,-18.513,-18.49,-18.476,-18.453,-18.441,-18.435,-18.409,-18.388,-18.362,-18.347,-18.328,-18.312,-18.304,-18.295,-18.284,-18.265,-18.257,-18.256,-18.253,-18.266,-18.281,-18.289,-18.313,-18.346,-18.384,-18.417,-18.463,-18.481,-18.53,-18.565,-18.606,-18.626,-18.644,-18.669,-18.691,-18.709,-18.72,-18.717,-18.718,-18.726,-18.735,-18.739,-18.741,-18.728,-18.725,-18.75,-18.755,-18.752,-18.745,-18.741,-18.754,-18.743,-18.74,-18.719,-18.723,-18.731,-18.734,-18.723,-18.72,-18.724,-18.72,-18.715,-18.714,-18.728,-18.738,-18.716,-18.719,-18.708,-18.723,-18.715,-18.714,-18.718,-18.721,-18.718,-18.73,-18.729,-18.743,-18.729,-18.719,-18.721,-18.726,-18.734,-18.749,-18.745,-18.717,-18.735,-18.749,-18.758,-18.741,-18.739,-18.746,-18.744,-18.76,-18.753,-18.75,-18.753,-18.746,-18.751,-18.753,-18.747,-18.742,-18.752,-18.751,-18.751,-18.741,-18.743,-18.756,-18.762,-18.749,-18.754,-18.752,-18.745,-18.755,-18.75,-18.744,-18.75,-18.744,-18.752,-18.761,-18.741,-18.751,-18.763,-18.762,-18.767,-18.756,-18.748,-18.747,-18.754,-18.766,-18.76,-18.756,-18.752,-18.767,-18.769,-18.756,-18.741,-18.735,-18.747,-18.76,-18.753,-18.752,-18.75,-18.756,-18.762,-18.769,-18.761,-18.766,-18.749,-18.753,-18.768,-18.749,-18.738,-18.744,-18.752,-18.748,-18.728,-18.73,-18.699,-18.679,-18.669,-18.648,-18.65,-18.655,-18.682,-18.705,-18.707,-18.718,-18.707,-18.706,-18.747,-18.761,-18.772,-18.767,-18.778,-18.77,-18.783,-18.769,-18.779,-18.768,-18.767,-18.774,-18.78,-18.774,-18.77,-18.778,-18.784,-18.786,-18.793,-18.83,-18.875,-18.818,-18.662,-18.434,-18.178,-17.853,-17.497,-17.397,-17.66,-18.118,-18.513,-18.831,-18.882,-18.857,-18.8,-18.734,-18.714,-18.696,-18.696,-18.693,-18.726,-18.706,-18.725,-18.699,-18.703,-18.697,-18.707,-18.685,-18.684,-18.691,-18.682,-18.691,-18.687,-18.656,-18.657,-18.659,-18.658,-18.657,-18.642,-18.634,-18.626,-18.618,-18.616,-18.605,-18.601,-18.596,-18.591,-18.584,-18.552,-18.547,-18.524,-18.528,-18.524,-18.504,-18.478,-18.461,-18.454,-18.436,-18.425,-18.398,-18.386,-18.367,-18.353,-18.319,-18.307,-18.294,-18.287,-18.283,-18.271,-18.25,-18.233,-18.237,-18.241,-18.238,-18.249,-18.277,-18.295,-18.334,-18.366,-18.402,-18.42,-18.459,-18.499,-18.541,-18.564,-18.594,-18.624,-18.655,-18.667,-18.678,-18.674,-18.694,-18.699,-18.703,-18.697,-18.707,-18.695,-18.702,-18.719,-18.714,-18.707,-18.692,-18.702,-18.703,-18.713,-18.699,-18.699,-18.704,-18.701,-18.691,-18.687,-18.682,-18.678,-18.696,-18.689,-18.682,-18.676,-18.673,-18.674,-18.698,-18.676,-18.678,-18.681,-18.674,-18.679,-18.684,-18.679,-18.684,-18.683,-18.684,-18.688,-18.685,-18.684,-18.692,-18.691,-18.703,-18.696,-18.688,-18.686,-18.694,-18.707,-18.699,-18.693,-18.693,-18.703,-18.702,-18.693,-18.688,-18.701,-18.715,-18.715,-18.704,-18.71,-18.694,-18.709,-18.706,-18.705,-18.697,-18.694,-18.704,-18.709,-18.707,-18.708,-18.702,-18.706,-18.708,-18.704,-18.704,-18.693,-18.711,-18.699,-18.699,-18.695,-18.695,-18.693,-18.707,-18.701,-18.692,-18.687,-18.697,-18.706,-18.704,-18.699,-18.684,-18.68,-18.687,-18.684,-18.666,-18.667,-18.633,-18.613,-18.586,-18.576,-18.58,-18.606,-18.629,-18.639,-18.633,-18.637,-18.646,-18.671,-18.679,-18.695,-18.696,-18.702,-18.714,-18.715,-18.717,-18.704,-18.722,-18.725,-18.721,-18.718,-18.7,-18.717,-18.718,-18.716,-18.718,-18.701,-18.703,-18.706,-18.744,-18.816,-18.807,-18.689,-18.495,-18.246,-17.974,-17.575,-17.353,-17.409,-17.826,-18.256,-18.452,-18.761,-18.801,-18.773,-18.728,-18.658,-18.631,-18.632,-18.647,-18.64,-18.644,-18.63,-18.64,-18.639,-18.647,-18.63,-18.623,-18.617,-18.63,-18.62,-18.616,-18.611,-18.599,-18.608,-18.612,-18.587,-18.584,-18.579,-18.566,-18.566,-18.571,-18.559,-18.548,-18.548,-18.549,-18.533,-18.509,-18.495,-18.485,-18.481,-18.482,-18.462,-18.44,-18.435,-18.42,-18.412,-18.376,-18.353,-18.338,-18.313,-18.308,-18.286,-18.277,-18.245,-18.246,-18.231,-18.212,-18.199,-18.196,-18.193,-18.188,-18.189,-18.186,-18.198,-18.224,-18.248,-18.281,-18.316,-18.34,-18.374,-18.42,-18.454,-18.484,-18.51,-18.548,-18.564,-18.599,-18.61,-18.616,-18.625,-18.642,-18.648,-18.656,-18.66,-18.653,-18.658,-18.666,-18.667,-18.663,-18.671,-18.652,-18.666,-18.664,-18.654,-18.649,-18.653,-18.656,-18.659,-18.635,-18.646,-18.654,-18.653,-18.659,-18.649,-18.639,-18.646,-18.651,-18.64,-18.631,-18.636,-18.627,-18.643,-18.634,-18.624,-18.641,-18.641,-18.646,-18.651,-18.657,-18.645,-18.643,-18.649,-18.66,-18.662,-18.653,-18.652,-18.656,-18.667,-18.667,-18.673,-18.661,-18.667,-18.676,-18.676,-18.67,-18.675,-18.68,-18.68,-18.666,-18.666,-18.664,-18.669,-18.676,-18.677,-18.672,-18.672,-18.674,-18.69,-18.684,-18.673,-18.671,-18.679,-18.689,-18.692,-18.67,-18.679,-18.683,-18.685,-18.687,-18.679,-18.678,-18.674,-18.693,-18.689,-18.685,-18.679,-18.675,-18.684,-18.688,-18.665,-18.663,-18.666,-18.676,-18.672,-18.669,-18.656,-18.633,-18.635,-18.624,-18.58,-18.588,-18.594,-18.614,-18.626,-18.639,-18.627,-18.634,-18.646,-18.649,-18.671,-18.677,-18.687,-18.691,-18.706,-18.72,-18.704,-18.691,-18.693,-18.71,-18.715,-18.718,-18.715,-18.701,-18.705,-18.698,-18.701,-18.699,-18.704,-18.718,-18.743,-18.781,-18.812,-18.739,-18.579,-18.354,-18.09,-17.738,-17.396,-17.329,-17.65,-18.107,-18.298,-18.663,-18.812,-18.796,-18.73,-18.661,-18.634,-18.615,-18.641,-18.625,-18.637,-18.635,-18.647,-18.637,-18.645,-18.626,-18.627,-18.612,-18.631,-18.608,-18.613,-18.612,-18.603,-18.598,-18.602,-18.578,-18.576,-18.573,-18.592,-18.571,-18.577,-18.559,-18.542,-18.53,-18.541,-18.521,-18.511,-18.501,-18.5,-18.486,-18.482,-18.465,-18.448,-18.445,-18.433,-18.411,-18.382,-18.361,-18.342,-18.324,-18.318,-18.287,-18.273,-18.252,-18.238,-18.239,-18.226,-18.205,-18.204,-18.189,-18.187,-18.178,-18.177,-18.196,-18.195,-18.241,-18.258,-18.291,-18.307,-18.357,-18.395,-18.437,-18.476,-18.503,-18.544,-18.579,-18.58,-18.602,-18.614,-18.624,-18.632,-18.65,-18.654,-18.641,-18.652,-18.661,-18.677,-18.668,-18.664,-18.659,-18.666,-18.677,-18.652,-18.662,-18.671,-18.665,-18.663,-18.646,-18.641,-18.655,-18.654,-18.661,-18.658,-18.65,-18.641,-18.657,-18.65,-18.643,-18.654,-18.647,-18.655,-18.664,-18.646,-18.642,-18.634,-18.642,-18.668,-18.666,-18.661,-18.649,-18.649,-18.663,-18.653,-18.661,-18.652,-18.662,-18.667,-18.683,-18.68,-18.675,-18.668,-18.672,-18.672,-18.683,-18.669,-18.673,-18.678,-18.683,-18.676,-18.67,-18.684,-18.692,-18.684,-18.683,-18.676,-18.673,-18.679,-18.688,-18.683,-18.671,-18.674,-18.694,-18.675,-18.684,-18.683,-18.692,-18.694,-18.687,-18.696,-18.677,-18.668,-18.673,-18.667,-18.678,-18.68,-18.672,-18.68,-18.67,-18.643,-18.644,-18.615,-18.585,-18.574,-18.598,-18.636,-18.619,-18.628,-18.635,-18.656,-18.638,-18.649,-18.653,-18.674,-18.691,-18.705,-18.719,-18.716,-18.721,-18.728,-18.719,-18.73,-18.733,-18.718,-18.736,-18.723,-18.703,-18.722,-18.714,-18.724,-18.717,-18.73,-18.732,-18.732,-18.776,-18.821,-18.785,-18.646,-18.425,-18.18,-17.917,-17.509,-17.351,-17.525,-17.942,-18.372,-18.745,-18.84,-18.793,-18.747,-18.684,-18.665,-18.644,-18.66,-18.661,-18.691,-18.657,-18.653,-18.654,-18.666,-18.657,-18.667,-18.641,-18.665,-18.633,-18.649,-18.643,-18.626,-18.616,-18.629,-18.615,-18.625,-18.601,-18.592,-18.589,-18.582,-18.576,-18.576,-18.545,-18.536,-18.54,-18.538,-18.501,-18.489,-18.47,-18.475,-18.478,-18.449,-18.438,-18.421,-18.414,-18.394,-18.386,-18.357,-18.333,-18.33,-18.291,-18.284,-18.248,-18.231,-18.229,-18.242,-18.232,-18.197,-18.179,-18.164,-18.209,-18.206,-18.192,-18.222,-18.264,-18.29,-18.31,-18.339,-18.369,-18.415,-18.461,-18.507,-18.535,-18.548,-18.602,-18.621,-18.65,-18.65,-18.672,-18.671,-18.69,-18.706,-18.701,-18.709,-18.71,-18.71,-18.729,-18.734,-18.732,-18.709,-18.711,-18.736,-18.739,-18.715,-18.717,-18.734,-18.739,-18.734,-18.747,-18.74,-18.737,-18.729,-18.74,-18.731,-18.729,-18.733,-18.749,-18.736,-18.726,-18.742,-18.736,-18.727,-18.741,-18.736,-18.735,-18.742,-18.741,-18.74,-18.763,-18.753,-18.748,-18.735,-18.729,-18.713,-18.709,-18.718,-18.723,-18.72,-18.711,-18.698,-18.709,-18.708,-18.709,-18.702,-18.715,-18.701,-18.714,-18.721,-18.743,-18.728,-18.714,-18.727,-18.731,-18.741,-18.753,-18.736,-18.729,-18.744,-18.761,-18.776,-18.758,-18.739,-18.744,-18.763,-18.772,-18.767,-18.769,-18.764,-18.777,-18.757,-18.751,-18.756,-18.77,-18.77,-18.764,-18.752,-18.754,-18.767,-18.759,-18.754,-18.744,-18.745,-18.76,-18.759,-18.752,-18.746,-18.736,-18.726,-18.71,-18.678,-18.641,-18.631,-18.645,-18.689,-18.709,-18.728,-18.722,-18.729,-18.697,-18.704,-18.707,-18.738,-18.749,-18.755,-18.743,-18.73,-18.753,-18.78,-18.767,-18.776,-18.807,-18.809,-18.809,-18.821,-18.829,-18.821,-18.793,-18.802,-18.806,-18.812,-18.802,-18.828,-18.89,-18.9,-18.763,-18.552,-18.302,-18.016,-17.63,-17.452,-17.509,-17.934,-18.359,-18.756,-18.925,-18.908,-18.844,-18.789,-18.718,-18.665,-18.687,-18.691,-18.712,-18.694,-18.689,-18.67,-18.684,-18.678,-18.677,-18.66,-18.687,-18.658,-18.652,-18.669,-18.65,-18.644,-18.66,-18.649,-18.664,-18.646,-18.645,-18.638,-18.653,-18.636,-18.636,-18.628,-18.648,-18.627,-18.628,-18.617,-18.616,-18.595,-18.609,-18.597,-18.621,-18.6,-18.579,-18.576,-18.534,-18.539,-18.529,-18.508,-18.482,-18.463,-18.452,-18.441,-18.434,-18.428,-18.42,-18.378,-18.367,-18.371,-18.382,-18.378,-18.367,-18.358,-18.383,-18.4,-18.416,-18.43,-18.473,-18.503,-18.525,-18.574,-18.578,-18.63,-18.654,-18.681,-18.721,-18.737,-18.769,-18.779,-18.772,-18.757,-18.756,-18.787,-18.782,-18.786,-18.787,-18.789,-18.799,-18.807,-18.783,-18.78,-18.784,-18.77,-18.789,-18.785,-18.762,-18.764,-18.751,-18.766,-18.793,-18.786,-18.766,-18.736,-18.712,-18.742,-18.751,-18.753,-18.75,-18.756,-18.754,-18.746,-18.768,-18.75,-18.751,-18.762,-18.763,-18.762,-18.734,-18.753,-18.778,-18.785,-18.781,-18.783,-18.766,-18.769,-18.777,-18.804,-18.809,-18.809,-18.805,-18.807,-18.805,-18.802,-18.808,-18.804,-18.816,-18.814,-18.804,-18.81,-18.805,-18.818,-18.812,-18.781,-18.787,-18.758,-18.739,-18.729,-18.751,-18.759,-18.781,-18.81,-18.825,-18.826,-18.814,-18.851,-18.861,-18.884,-18.901,-18.907,-18.917,-18.921,-18.932,-18.937,-18.932,-18.936,-18.927,-18.946,-18.931,-18.932,-18.936,-18.946,-18.947,-18.94,-18.929,-18.926,-18.929,-18.97,-19.013,-19.004,-18.9,-18.71,-18.466,-18.177,-17.809,-17.568,-17.536,-17.764,-18.219,-18.602,-18.942,-18.967,-18.958,-18.893,-18.827,-18.795,-18.785,-18.814,-18.794,-18.802,-18.778,-18.773,-18.781,-18.769,-18.759,-18.767,-18.759,-18.755,-18.768,-18.759,-18.738,-18.736,-18.736,-18.733,-18.73,-18.709,-18.702,-18.712,-18.715,-18.705,-18.705,-18.67,-18.679,-18.674,-18.677,-18.668,-18.652,-18.643,-18.624,-18.621,-18.6,-18.58,-18.569,-18.559,-18.539,-18.512,-18.486,-18.475,-18.452,-18.446,-18.421,-18.401,-18.375,-18.372,-18.352,-18.34,-18.323,-18.317,-18.305,-18.313,-18.322,-18.324,-18.333,-18.355,-18.389,-18.415,-18.438,-18.488,-18.532,-18.566,-18.588,-18.617,-18.642,-18.666,-18.693,-18.711,-18.712,-18.714,-18.72,-18.729,-18.738,-18.74,-18.752,-18.737,-18.748,-18.755,-18.746,-18.731,-18.734,-18.736,-18.751,-18.745,-18.737,-18.741,-18.737,-18.741,-18.735,-18.735,-18.728,-18.728,-18.734,-18.737,-18.722,-18.721,-18.727,-18.712,-18.722,-18.717,-18.72,-18.712,-18.714,-18.709,-18.711,-18.715,-18.717,-18.722,-18.727,-18.731,-18.721,-18.715,-18.713,-18.73,-18.739,-18.726,-18.733,-18.73,-18.745,-18.748,-18.735,-18.724,-18.736,-18.741,-18.752,-18.748,-18.731,-18.748,-18.76,-18.749,-18.745,-18.747,-18.74,-18.742,-18.739,-18.736,-18.716,-18.711,-18.717,-18.705,-18.698,-18.667,-18.64,-18.643,-18.642,-18.655,-18.665,-18.674,-18.675,-18.683,-18.693,-18.707,-18.711,-18.725,-18.74,-18.758,-18.746,-18.752,-18.754,-18.752,-18.751,-18.754,-18.755,-18.754,-18.763,-18.766,-18.753,-18.761,-18.763,-18.763,-18.762,-18.771,-18.768,-18.803,-18.865,-18.839,-18.711,-18.488,-18.243,-17.957,-17.569,-17.409,-17.556,-17.985,-18.41,-18.776,-18.887,-18.832,-18.771,-18.755,-18.711,-18.688,-18.704,-18.695,-18.717,-18.701,-18.693,-18.682,-18.702,-18.682,-18.703,-18.676,-18.681,-18.656,-18.671,-18.671,-18.674,-18.659,-18.659,-18.643,-18.655,-18.639,-18.651,-18.616,-18.631,-18.623,-18.618,-18.607,-18.606,-18.565,-18.573,-18.568,-18.568,-18.549,-18.54,-18.525,-18.516,-18.502,-18.483,-18.472,-18.473,-18.461,-18.418,-18.4,-18.357,-18.368,-18.353,-18.347,-18.315,-18.292,-18.288,-18.288,-18.268,-18.279,-18.255,-18.263,-18.28,-18.294,-18.305,-18.323,-18.345,-18.38,-18.435,-18.465,-18.481,-18.525,-18.553,-18.612,-18.631,-18.64,-18.671,-18.675,-18.691,-18.706,-18.696,-18.714,-18.709,-18.737,-18.738,-18.741,-18.718,-18.733,-18.75,-18.746,-18.745,-18.739,-18.751,-18.741,-18.742,-18.747,-18.743,-18.766,-18.769,-18.758,-18.759,-18.753,-18.741,-18.758,-18.755,-18.748,-18.75,-18.757,-18.763,-18.76,-18.745,-18.754,-18.742,-18.754,-18.764,-18.755,-18.749,-18.752,-18.756,-18.756,-18.743,-18.741,-18.742,-18.749,-18.758,-18.751,-18.744,-18.737,-18.752,-18.749,-18.762,-18.756,-18.731,-18.75,-18.751,-18.73,-18.742,-18.735,-18.728,-18.731,-18.73,-18.739,-18.725,-18.726,-18.738,-18.724,-18.723,-18.722,-18.715,-18.724,-18.724,-18.707,-18.717,-18.708,-18.719,-18.72,-18.713,-18.701,-18.707,-18.712,-18.722,-18.715,-18.708,-18.716,-18.714,-18.718,-18.717,-18.702,-18.7,-18.711,-18.711,-18.713,-18.702,-18.699,-18.716,-18.718,-18.72,-18.711,-18.694,-18.707,-18.707,-18.714,-18.707,-18.686,-18.697,-18.711,-18.716,-18.699,-18.689,-18.662,-18.664,-18.65,-18.627,-18.631,-18.641,-18.658,-18.671,-18.665,-18.673,-18.67,-18.68,-18.695,-18.706,-18.717,-18.732,-18.729,-18.739,-18.736,-18.738,-18.743,-18.735,-18.755,-18.757,-18.747,-18.743,-18.744,-18.749,-18.752,-18.743,-18.751,-18.764,-18.779,-18.844,-18.862,-18.792,-18.642,-18.523,-18.277,-18.006,-17.615,-17.436,-17.584,-17.994,-18.41,-18.76,-18.899,-18.851,-18.801,-18.727,-18.713,-18.695,-18.717,-18.718,-18.729,-18.705,-18.718,-18.702,-18.716,-18.695,-18.707,-18.692,-18.697,-18.687,-18.685,-18.674,-18.666,-18.653,-18.656,-18.655,-18.658,-18.631,-18.643,-18.625,-18.638,-18.615,-18.614,-18.606,-18.6,-18.591,-18.579,-18.57,-18.558,-18.557,-18.554,-18.527,-18.511,-18.491,-18.489,-18.47,-18.448,-18.426,-18.402,-18.401,-18.395,-18.377,-18.364,-18.353,-18.342,-18.347,-18.338,-18.328,-18.312,-18.317,-18.329,-18.335,-18.335,-18.333,-18.377,-18.402,-18.446,-18.493,-18.544,-18.63,-18.701,-18.762,-18.832,-18.872,-18.949,-19.05,-19.129,-19.212,-19.275,-19.347,-19.379,-19.429,-19.426,-19.439,-19.418,-19.424,-19.439,-19.463,-19.477,-19.519,-19.556,-19.609,-19.636,-19.688,-19.704,-19.73,-19.759,-19.782,-19.786,-19.78,-19.782,-19.781,-19.792,-19.803,-19.807,-19.837,-19.859,-19.827,-19.768,-19.738,-19.658,-19.632,-19.593,-19.558,-19.538,-19.501,-19.487,-19.477,-19.451,-19.412,-19.365,-19.337,-19.326,-19.336,-19.297,-19.195,-19.15,-19.129,-19.088,-19.063,-19.072,-19.077,-19.11,-19.103,-19.098,-19.082,-19.047,-19.048,-19.061,-19.056,-19.029,-19.016,-19.003,-19.002,-19.012,-18.989,-18.987,-18.977,-18.982,-18.969,-18.948,-18.954,-18.954,-18.958,-18.942,-18.93,-18.919,-18.92,-18.923,-18.932,-18.927,-18.911,-18.898,-18.889,-18.887,-18.844,-18.823,-18.833,-18.861,-18.87,-18.861,-18.843,-18.855,-18.881,-18.896,-18.898,-18.915,-18.919,-18.907,-18.909,-18.925,-18.904,-18.898,-18.906,-18.915,-18.91,-18.893,-18.899,-18.907,-18.898,-18.894,-18.864,-18.845,-18.858,-18.866,-18.867,-18.863,-18.917,-18.98,-18.928,-18.773,-18.546,-18.275,-17.955,-17.59,-17.483,-17.729,-18.189,-18.562,-18.864,-18.898,-18.864,-18.842,-18.764,-18.76,-18.743,-18.759,-18.749,-18.737,-18.708,-18.728,-18.725,-18.722,-18.716,-18.714,-18.686,-18.702,-18.698,-18.692,-18.684,-18.68,-18.661,-18.643,-18.615,-18.596,-18.584,-18.582,-18.573,-18.54,-18.531,-18.51,-18.519,-18.527,-18.505,-18.516,-18.521,-18.52,-18.454,-18.442,-18.43,-18.418,-18.417,-18.402,-18.363,-18.36,-18.35,-18.262,-18.229,-18.224,-18.218,-18.206,-18.23,-18.203,-18.16,-18.146,-18.136,-18.158,-18.167,-18.144,-18.119,-18.134,-18.19,-18.256,-18.233,-18.231,-18.304,-18.358,-18.423,-18.439,-18.459,-18.487,-18.556,-18.591,-18.629,-18.635,-18.653,-18.648,-18.669,-18.667,-18.647,-18.676,-18.686,-18.726,-18.683,-18.675,-18.699,-18.713,-18.702,-18.71,-18.723,-18.722,-18.754,-18.736,-18.708,-18.669,-18.682,-18.712,-18.712,-18.697,-18.687,-18.696,-18.691,-18.713,-18.713,-18.708,-18.717,-18.718,-18.711,-18.699,-18.734,-18.738,-18.745,-18.723,-18.733,-18.741,-18.714,-18.718,-18.726,-18.74,-18.753,-18.742,-18.746,-18.746,-18.751,-18.766,-18.768,-18.738,-18.759,-18.767,-18.763,-18.761,-18.73,-18.744,-18.76,-18.765,-18.77,-18.76,-18.764,-18.761,-18.706,-18.68,-18.682,-18.66,-18.652,-18.659,-18.666,-18.66,-18.666,-18.655,-18.697,-18.716,-18.715,-18.731,-18.758,-18.761,-18.75,-18.74,-18.752,-18.771,-18.795,-18.787,-18.762,-18.753,-18.75,-18.765,-18.77,-18.759,-18.74,-18.773,-18.791,-18.796,-18.756,-18.744,-18.822,-18.878,-18.808,-18.63,-18.4,-18.121,-17.8,-17.517,-17.437,-17.767,-18.223,-18.603,-18.806,-18.919,-18.88,-18.76,-18.712,-18.709,-18.717,-18.694,-18.701,-18.704,-18.71,-18.706,-18.692,-18.688,-18.691,-18.712,-18.724,-18.716,-18.739,-18.753,-18.733,-18.68,-18.648,-18.648,-18.648,-18.695,-18.713,-18.701,-18.669,-18.63,-18.626,-18.615,-18.623,-18.65,-18.643,-18.636,-18.612,-18.565,-18.55,-18.552,-18.549,-18.54,-18.539,-18.516,-18.515,-18.52,-18.491,-18.417,-18.381,-18.423,-18.45,-18.408,-18.337,-18.312,-18.304,-18.3,-18.292,-18.338,-18.36,-18.319,-18.273,-18.244,-18.278,-18.315,-18.336,-18.391,-18.437,-18.455,-18.485,-18.511,-18.545,-18.586,-18.599,-18.659,-18.727,-18.737,-18.689,-18.645,-18.649,-18.681,-18.69,-18.715,-18.727,-18.732,-18.747,-18.751,-18.746,-18.76,-18.77,-18.755,-18.762,-18.789,-18.768,-18.779,-18.755,-18.753,-18.772,-18.779,-18.795,-18.825,-18.83,-18.816,-18.774,-18.738,-18.721,-18.722,-18.726,-18.734,-18.747,-18.743,-18.763,-18.76,-18.767,-18.778,-18.779,-18.796,-18.796,-18.795,-18.797,-18.814,-18.823,-18.811,-18.824,-18.838,-18.848,-18.836,-18.869,-18.901,-18.917,-18.927,-18.942,-18.93,-18.925,-18.914,-18.909,-18.893,-18.896,-18.883,-18.893,-18.867,-18.856,-18.861,-18.86,-18.872,-18.883,-18.891,-18.886,-18.893,-18.887,-18.895,-18.903,-18.927,-18.94,-18.946,-18.974,-18.968,-18.979,-19.005,-19.031,-19.052,-19.047,-19.047,-19.064,-19.063,-19.06,-19.05,-19.048,-19.047,-19.044,-19.057,-19.091,-19.134,-19.185,-19.122,-18.971,-18.733,-18.427,-18.082,-17.747,-17.627,-17.846,-18.069,-18.453,-18.856,-18.995,-18.976,-18.893,-18.834,-18.76,-18.756,-18.73,-18.722,-18.707,-18.707,-18.707,-18.709,-18.699,-18.684,-18.678,-18.69,-18.681,-18.683,-18.674,-18.671,-18.675,-18.662,-18.646,-18.649,-18.651,-18.65,-18.638,-18.639,-18.634,-18.618,-18.616,-18.618,-18.584,-18.593,-18.574,-18.574,-18.562,-18.552,-18.556,-18.538,-18.521,-18.499,-18.499,-18.467,-18.476,-18.465,-18.434,-18.436,-18.402,-18.386,-18.372,-18.344,-18.355,-18.348,-18.316,-18.304,-18.318,-18.317,-18.316,-18.308,-18.306,-18.336,-18.353,-18.385,-18.398,-18.43,-18.466,-18.507,-18.547,-18.566,-18.619,-18.639,-18.68,-18.691,-18.693,-18.709,-18.73,-18.735,-18.753,-18.746,-18.739,-18.745,-18.767,-18.769,-18.76,-18.756,-18.755,-18.771,-18.755,-18.747,-18.755,-18.748,-18.74,-18.745,-18.746,-18.742,-18.741,-18.743,-18.751,-18.737,-18.717,-18.721,-18.736,-18.744,-18.741,-18.715,-18.729,-18.736,-18.729,-18.729,-18.717,-18.725,-18.737,-18.738,-18.738,-18.733,-18.734,-18.735,-18.742,-18.743,-18.733,-18.729,-18.727,-18.721,-18.729,-18.74,-18.755,-18.732,-18.747,-18.749,-18.741,-18.748,-18.749,-18.759,-18.768,-18.776,-18.755,-18.773,-18.761,-18.77,-18.766,-18.759,-18.748,-18.76,-18.763,-18.759,-18.744,-18.714,-18.716,-18.711,-18.718,-18.741,-18.748,-18.758,-18.753,-18.735,-18.737,-18.756,-18.767,-18.788,-18.803,-18.807,-18.777,-18.777,-18.788,-18.807,-18.797,-18.805,-18.795,-18.802,-18.805,-18.802,-18.794,-18.797,-18.809,-18.816,-18.809,-18.837,-18.865,-18.917,-18.9,-18.756,-18.529,-18.274,-18.001,-17.606,-17.443,-17.55,-17.978,-18.398,-18.794,-18.925,-18.896,-18.869,-18.819,-18.822,-18.785,-18.799,-18.804,-18.862,-18.852,-18.843,-18.794,-18.798,-18.788,-18.808,-18.792,-18.782,-18.78,-18.772,-18.761,-18.772,-18.761,-18.748,-18.762,-18.716,-18.719,-18.741,-18.739,-18.755,-18.76,-18.755,-18.731,-18.706,-18.688,-18.684,-18.671
