2.732,2.7337,2.7454,2.754,2.7657,2.7899,2.8034,2.7957,2.7893,2.7806,2.779,2.7508,2.7285,2.7121,2.6683,2.6422,2.5809,2.5335,2.5001,2.4729,2.4459,2.4272,2.4185,2.3632,2.3475,2.3341,2.3495,2.3376,2.3398,2.3269,2.318,2.3218,2.3168,2.3288,2.3177,2.3145,2.3265,2.3262,2.3188,2.3312,2.3372,2.3264,2.3456,2.3594,2.3199,2.3157,2.314,2.331,2.3605,2.3386,2.3393,2.3479,2.3378,2.341,2.3273,2.3369,2.3275,2.3259,2.3235,2.3143,2.3099,2.3207,2.3189,2.3164,2.3322,2.3196,2.3289,2.3113,2.3012,2.2986,2.2927,2.3188,2.3069,2.3014,2.2908,2.289,2.3136,2.3153,2.2841,2.2903,2.2871,2.2838,2.2993,2.2939,2.2789,2.2749,2.2974,2.3041,2.2921,2.2937,2.3114,2.2856,2.2794,2.2705,2.2603,2.2811,2.2838,2.2824,2.2706,2.2778,2.2636,2.2576,2.2459,2.2742,2.2689,2.2576,2.2589,2.2526,2.2783,2.2605,2.267,2.2742,2.2543,2.2689,2.2617,2.2512,2.2465,2.245,2.2511,2.2834,2.255,2.2411,2.252,2.234,2.2446,2.2546,2.2482,2.2576,2.2758,2.24,2.2487,2.2363,2.2569,2.2623,2.2753,2.2638,2.2657,2.2786,2.2771,2.3061,2.3155,2.2953,2.3258,2.3157,2.3159,2.309,2.2869,2.2817,2.2985,2.309,2.2472,2.2496,2.2605,2.2282,2.2341,2.2274,2.2241,2.2326,2.2538,2.2379,2.2221,2.2281,2.2073,2.2238,2.2555,2.3408,2.432,2.4686,2.6134,2.7863,2.9927,3.1324,3.0846,2.7724,2.1444,1.8844,1.9613,2.0527,2.1214,2.1929,2.2943,2.3139,2.3155,2.3165,2.3085,2.3528,2.3437,2.3318,2.31,2.3221,2.3418,2.3355,2.3363,2.3464,2.3564,2.362,2.3625,2.3602,2.379,2.3826,2.4029,2.3973,2.3987,2.4202,2.4251,2.4304,2.4357,2.432,2.4372,2.4996,2.475,2.4657,2.5019,2.5036,2.5114,2.5249,2.5313,2.5406,2.5581,2.5826,2.5942,2.6061,2.6236,2.622,2.668,2.6661,2.6703,2.6956,2.6785,2.7292,2.77,2.7197,2.7229,2.7539,2.7736,2.7682,2.7604,2.7569,2.7434,2.7304,2.7316,2.6753,2.6192,2.585,2.547,2.5211,2.512,2.4712,2.4095,2.4146,2.3787,2.3414,2.3287,2.338,2.321,2.2973,2.3063,2.2862,2.2928,2.3161,2.3032,2.288,2.2976,2.2979,2.3021,2.3183,2.3128,2.3228,2.3134,2.2897,2.3211,2.336,2.3307,2.3018,2.2979,2.3189,2.3459,2.3292,2.3246,2.3221,2.326,2.333,2.3309,2.3155,2.3243,2.3141,2.3224,2.3459,2.3146,2.297,2.2956,2.3236,2.2922,2.2854,2.291,2.2919,2.3142,2.2991,2.2786,2.2871,2.2972,2.2966,2.2814,2.28,2.2718,2.3431,2.3482,2.2779,2.2555,2.2692,2.2822,2.2896,2.2756,2.2791,2.2728,2.2699,2.2916,2.2792,2.2628,2.2793,2.2848,2.2857,2.2844,2.2774,2.3103,2.2727,2.2747,2.2695,2.2575,2.2667,2.2674,2.2786,2.2788,2.2678,2.2597,2.2673,2.2672,2.2729,2.2816,2.2658,2.2611,2.2791,2.2531,2.277,2.2766,2.2963,2.2637,2.2441,2.2591,2.2477,2.2514,2.2809,2.2705,2.2762,2.2683,2.2678,2.2872,2.2751,2.2801,2.287,2.2898,2.284,2.3486,2.3438,2.3202,2.3269,2.3401,2.334,2.3339,2.3135,2.2979,2.3019,2.3201,2.3028,2.2754,2.2678,2.2673,2.2552,2.2518,2.2577,2.2458,2.2445,2.2493,2.2538,2.2637,2.2768,2.2686,2.2797,2.3231,2.4234,2.5523,2.7089,2.9034,3.1372,3.236,3.0953,2.6563,2.0635,1.9406,2.0455,2.1061,2.1878,2.2775,2.3418,2.3456,2.3531,2.3477,2.363,2.3959,2.4143,2.3552,2.361,2.3954,2.3719,2.3614,2.3787,2.377,2.3947,2.3998,2.406,2.4091,2.4157,2.4228,2.4446,2.4535,2.4377,2.4386,2.4559,2.4666,2.4708,2.4701,2.4693,2.5005,2.5179,2.5254,2.5268,2.5364,2.5753,2.5833,2.5811,2.5812,2.6014,2.6196,2.6233,2.6456,2.6596,2.6837,2.7085,2.7164,2.7266,2.7357,2.7581,2.772,2.7963,2.8226,2.8029,2.81,2.8126,2.8391,2.8318,2.816,2.7936,2.7587,2.7749,2.7517,2.7071,2.6262,2.5808,2.5481,2.5182,2.4957,2.4505,2.4344,2.414,2.3956,2.3799,2.3684,2.3387,2.3667,2.3471,2.3507,2.3367,2.3222,2.3311,2.3431,2.3361,2.3412,2.3216,2.3312,2.3405,2.3527,2.3457,2.342,2.3554,2.3605,2.3615,2.3633,2.3574,2.3642,2.3626,2.3585,2.3644,2.3627,2.3688,2.371,2.3712,2.3682,2.3695,2.3602,2.362,2.3678,2.3576,2.3419,2.362,2.3574,2.3681,2.3437,2.3249,2.3376,2.338,2.3518,2.3415,2.3227,2.3284,2.3558,2.3549,2.373,2.3299,2.3156,2.3225,2.3248,2.3337,2.3187,2.3195,2.3323,2.337,2.3242,2.3273,2.3332,2.353,2.3258,2.3232,2.327,2.3262,2.3258,2.3282,2.3303,2.3294,2.3231,2.3339,2.3294,2.3228,2.3359,2.3728,2.3277,2.3113,2.3194,2.3151,2.3228,2.3445,2.3318,2.3173,2.3141,2.3225,2.3399,2.3473,2.3304,2.3237,2.3225,2.3257,2.3353,2.3402,2.3304,2.3221,2.3336,2.3331,2.333,2.3339,2.3283,2.3346,2.3344,2.333,2.3273,2.3313,2.339,2.3618,2.3395,2.3243,2.3108,2.3066,2.3367,2.3362,2.3272,2.3449,2.3387,2.3419,2.3504,2.3518,2.3916,2.383,2.3873,2.3814,2.3734,2.4241,2.3976,2.3694,2.3502,2.367,2.3627,2.3327,2.3058,2.3113,2.3073,2.299,2.3101,2.3262,2.3325,2.307,2.2982,2.2954,2.3045,2.2854,2.3471,2.364,2.4476,2.5145,2.6788,2.8443,3.0138,3.2744,3.3292,3.045,2.4914,1.9911,1.9796,2.1105,2.1538,2.2868,2.3738,2.3985,2.4036,2.4135,2.3943,2.3864,2.371,2.4157,2.4271,2.4136,2.3993,2.4,2.4284,2.4134,2.4242,2.4369,2.4193,2.4487,2.433,2.4672,2.4485,2.442,2.4745,2.4855,2.4784,2.4949,2.4915,2.4821,2.5099,2.5407,2.5456,2.5158,2.5169,2.5447,2.5752,2.5673,2.5655,2.5907,2.6118,2.6217,2.6449,2.6545,2.6785,2.7026,2.72,2.7173,2.7224,2.7515,2.7568,2.7833,2.8021,2.804,2.8104,2.8146,2.8589,2.8705,2.8446,2.8246,2.8378,2.8127,2.7767,2.7544,2.7225,2.6941,2.6572,2.5996,2.5799,2.539,2.517,2.4892,2.4649,2.4272,2.4161,2.4229,2.3857,2.3742,2.3684,2.3684,2.3649,2.3523,2.3471,2.3545,2.3623,2.3399,2.3707,2.3748,2.3797,2.3601,2.354,2.3723,2.3649,2.3675,2.3706,2.3642,2.3808,2.3948,2.3776,2.3541,2.3616,2.3678,2.3761,2.3798,2.3782,2.3602,2.3671,2.4018,2.3918,2.3626,2.3569,2.3641,2.3607,2.3788,2.3675,2.3448,2.3578,2.3621,2.3316,2.3485,2.3344,2.3397,2.3448,2.3339,2.3385,2.3276,2.3452,2.3457,2.3516,2.3475,2.3063,2.3189,2.3363,2.3295,2.3564,2.3334,2.3036,2.3322,2.3377,2.3303,2.3185,2.3235,2.329,2.3259,2.3381,2.3258,2.3158,2.3199,2.3264,2.3322,2.3223,2.3375,2.3353,2.3319,2.3268,2.3235,2.3368,2.342,2.3194,2.3145,2.3284,2.2999,2.3343,2.3379,2.3226,2.3254,2.325,2.3266,2.3288,2.3216,2.3188,2.3244,2.3221,2.32,2.3435,2.3494,2.3262,2.3078,2.3641,2.3337,2.3065,2.3105,2.3298,2.3421,2.3148,2.3381,2.3323,2.3169,2.3173,2.3384,2.3375,2.3349,2.3235,2.3366,2.3409,2.3313,2.3263,2.3447,2.3691,2.3536,2.3444,2.3769,2.4031,2.4235,2.3885,2.3919,2.3895,2.3944,2.3958,2.3976,2.3779,2.3667,2.3719,2.3798,2.3578,2.3274,2.3108,2.3249,2.3442,2.3271,2.3155,2.3284,2.3375,2.3515,2.3244,2.3239,2.3283,2.3504,2.4444,2.5833,2.7206,2.871,3.1103,3.3193,3.3642,3.181,2.4001,1.9829,2.0549,2.136,2.2256,2.3249,2.4109,2.4153,2.4449,2.4267,2.4635,2.4426,2.4421,2.4287,2.4464,2.4299,2.4327,2.4306,2.4834,2.4726,2.4798,2.444,2.4658,2.4855,2.4991,2.4966,2.4877,2.4953,2.5023,2.5377,2.5136,2.5062,2.5242,2.5358,2.5564,2.5828,2.5722,2.5656,2.5913,2.6044,2.613,2.6142,2.623,2.6438,2.6871,2.6836,2.6862,2.7096,2.7191,2.7352,2.7403,2.7427,2.7716,2.8237,2.8157,2.8154,2.8315,2.8541,2.8469,2.8847,2.8745,2.8549,2.8652,2.8729,2.8741,2.8688,2.8345,2.7925,2.7835,2.7529,2.6898,2.6464,2.6064,2.5704,2.5648,2.5283,2.5052,2.48,2.4398,2.4552,2.442,2.4002,2.4104,2.4169,2.4036,2.3852,2.3827,2.3893,2.4064,2.3853,2.3838,2.3948,2.4004,2.3988,2.44,2.4214,2.4097,2.3936,2.3863,2.3926,2.4069,2.4179,2.3978,2.4072,2.4092,2.4167,2.409,2.3993,2.4067,2.4522,2.3861,2.3863,2.4054,2.3968,2.387,2.3839,2.3996,2.4003,2.3827,2.3815,2.377,2.3857,2.3735,2.3566,2.3655,2.3846,2.3684,2.3569,2.3471,2.3587,2.3658,2.369,2.3496,2.3398,2.3618,2.3483,2.3313,2.3483,2.3398,2.3378,2.361,2.3715,2.3517,2.3254,2.3203,2.3166,2.3385,2.3449,2.3271,2.3292,2.3338,2.3275,2.3377,2.3238,2.3172,2.3194,2.3244,2.3289,2.3253,2.3065,2.3073,2.3575,2.3354,2.3096,2.3178,2.3074,2.3263,2.3253,2.3122,2.3205,2.316,2.3021,2.3116,2.2958,2.3053,2.3035,2.3124,2.3083,2.3175,2.307,2.3075,2.3088,2.3013,2.3002,2.2983,2.3045,2.3262,2.3326,2.3043,2.2946,2.3015,2.3084,2.2954,2.2919,2.2976,2.3181,2.312,2.3113,2.3221,2.3155,2.3356,2.3482,2.3869,2.3628,2.3565,2.3713,2.3688,2.3606,2.3627,2.3429,2.3236,2.3438,2.3566,2.32,2.2941,2.3046,2.2974,2.2848,2.2857,2.2888,2.2852,2.2878,2.2899,2.2925,2.2771,2.2922,2.337,2.4207,2.5226,2.6788,2.7547,2.947,3.1929,3.2563,3.0616,2.6074,2.0472,1.9689,2.105,2.1489,2.2034,2.3069,2.3859,2.3672,2.3796,2.3837,2.3808,2.3856,2.3848,2.392,2.4036,2.3875,2.4126,2.4256,2.4065,2.4086,2.4212,2.4176,2.4333,2.422,2.447,2.4484,2.4571,2.4418,2.4526,2.4701,2.4852,2.476,2.493,2.5071,2.5123,2.4949,2.5335,2.5324,2.5472,2.5413,2.5642,2.5719,2.5888,2.6177,2.6101,2.6016,2.6442,2.6685,2.6673,2.6795,2.7087,2.7248,2.7256,2.7501,2.7668,2.7618,2.7728,2.7861,2.8199,2.8044,2.8182,2.8262,2.809,2.8045,2.7956,2.78,2.7616,2.7271,2.6734,2.6361,2.6092,2.569,2.5274,2.4993,2.4772,2.4517,2.3994,2.3819,2.3859,2.3823,2.3435,2.3697,2.3359,2.3229,2.2877,2.3188,2.3196,2.3225,2.3134,2.3358,2.3169,2.3278,2.3327,2.2979,2.3286,2.329,2.3306,2.341,2.342,2.3428,2.3628,2.3641,2.3184,2.3586,2.354,2.3558,2.3618,2.3652,2.3828,2.3616,2.341,2.353,2.3685,2.3534,2.3574,2.3521,2.3192,2.3443,2.3491,2.34,2.3169,2.3328,2.3094,2.3293,2.3269,2.3212,2.3061,2.298,2.3225,2.2896,2.2981,2.2942,2.3166,2.3264,2.3211,2.3031,2.3087,2.2811,2.3039,2.3082,2.2887,2.2832,2.2819,2.2945,2.2821,2.2758,2.3039,2.3018,2.3007,2.3001,2.2997,2.2953,2.2998,2.3187,2.3312,2.3025,2.2576,2.2872,2.298,2.3142,2.2966,2.2837,2.2769,2.2949,2.2959,2.2792,2.293,2.3137,2.2949,2.3042,2.3055,2.2847,2.2843,2.279,2.3281,2.3222,2.2973,2.2898,2.3199,2.3149,2.3271,2.3342,2.3463,2.3689,2.3575,2.3566,2.3625,2.3566,2.3668,2.3825,2.3396,2.3301,2.3302,2.3191,2.3117,2.3108,2.3163,2.2979,2.2922,2.291,2.2938,2.3167,2.2976,2.2775,2.2973,2.3002,2.2956,2.3304,2.4475,2.5659,2.729,2.8647,3.0842,3.1882,3.2306,3.0129,2.5251,1.9795,1.9776,2.125,2.1509,2.2308,2.3263,2.3942,2.3903,2.4282,2.3954,2.3927,2.3942,2.4176,2.4257,2.4223,2.4063,2.423,2.4081,2.4489,2.4347,2.4346,2.4276,2.4631,2.4615,2.4533,2.4616,2.4741,2.474,2.4944,2.5204,2.5107,2.4978,2.5093,2.5144,2.5253,2.5431,2.5577,2.5954,2.5748,2.5686,2.6027,2.5976,2.621,2.664,2.6543,2.6526,2.6754,2.6923,2.7306,2.7228,2.7659,2.8055,2.8052,2.7971,2.8158,2.8167,2.8182,2.847,2.8661,2.8625,2.8596,2.8799,2.8722,2.8579,2.8403,2.8027,2.7677,2.717,2.6746,2.6318,2.603,2.5489,2.5328,2.5143,2.4939,2.4413,2.4162,2.4087,2.3997,2.3975,2.3724,2.3904,2.3773,2.3685,2.3554,2.3664,2.3635,2.352,2.372,2.3793,2.3461,2.3541,2.4015,2.4266,2.3887,2.366,2.3653,2.3943,2.3625,2.3449,2.3612,2.4067,2.4104,2.4066,2.4085,2.4021,2.373,2.3894,2.4276,2.3974,2.3751,2.374,2.3711,2.3609,2.3945,2.4093,2.3799,2.3423,2.3563,2.3747,2.3802,2.3581,2.3507,2.3782,2.3614,2.3411,2.3766,2.3456,2.3497,2.3574,2.343,2.3886,2.3474,2.3219,2.3447,2.355,2.3472,2.3417,2.3385,2.3587,2.3487,2.3356,2.3581,2.3356,2.3215,2.3448,2.3454,2.3329,2.3326,2.346,2.366,2.37,2.3352,2.3314,2.3357,2.3587,2.3462,2.3436,2.3333,2.3363,2.3538,2.3513,2.3559,2.343,2.3381,2.341,2.3405,2.3411,2.336,2.3462,2.3405,2.3437,2.3385,2.3375,2.3495,2.3544,2.347,2.3504,2.3458,2.3443,2.3589,2.3534,2.3389,2.3478,2.3679,2.3548,2.3524,2.3769,2.3404,2.3554,2.3803,2.3786,2.4121,2.4078,2.4007,2.3988,2.4208,2.4311,2.4303,2.3991,2.402,2.4078,2.3965,2.3972,2.37,2.3591,2.3501,2.338,2.3706,2.3518,2.35,2.3724,2.3422,2.3461,2.3584,2.355,2.3593,2.3747,2.4196,2.5268,2.6662,2.805,2.9948,3.2288,3.3735,3.2631,2.8435,2.2223,2.0357,2.1117,2.1782,2.2887,2.3946,2.4394,2.4428,2.451,2.4526,2.452,2.4334,2.4583,2.4722,2.4888,2.4684,2.464,2.4626,2.4689,2.4801,2.4872,2.4853,2.492,2.5116,2.5072,2.5405,2.5232,2.5066,2.5141,2.5485,2.5392,2.5309,2.5642,2.5696,2.5816,2.5872,2.6102,2.6098,2.6379,2.6236,2.6402,2.6507,2.652,2.6681,2.7111,2.727,2.7612,2.7422,2.7456,2.7743,2.7873,2.8307,2.8581,2.8504,2.8568,2.8885,2.9081,2.9259,2.9225,2.9273,2.9427,2.976,2.941,2.9202,2.9245,2.8947,2.8662,2.8281,2.7952,2.7668,2.729,2.7098,2.644,2.5819,2.5436,2.5506,2.5342,2.4979,2.4693,2.4707,2.4702,2.4494,2.433,2.464,2.4229,2.4229,2.4127,2.4046,2.4191,2.4421,2.4211,2.4365,2.4244,2.4087,2.4288,2.4489,2.4392,2.4287,2.4322,2.4393,2.4522,2.4421,2.4518,2.444,2.4412,2.4378,2.4522,2.4694,2.4668,2.4322,2.4221,2.4418,2.4559,2.4419,2.4387,2.4517,2.4585,2.4339,2.4303,2.4282,2.4337,2.4262,2.4297,2.4313,2.4314,2.4232,2.4145,2.4053,2.4228,2.4301,2.3904,2.4123,2.4087,2.3956,2.4012,2.4148,2.4166,2.415,2.4069,2.4022,2.3996,2.4208,2.4079,2.4149,2.3945,2.3916,2.4409,2.4332,2.4007,2.3971,2.3906,2.3896,2.3932,2.4081,2.4052,2.3839,2.4046,2.3988,2.3954,2.3928,2.394,2.3908,2.3969,2.3896,2.4026,2.4137,2.4052,2.3951,2.4195,2.3824,2.3743,2.3843,2.4116,2.4047,2.3849,2.3811,2.3951,2.4099,2.4294,2.3979,2.3894,2.3945,2.4124,2.4157,2.3861,2.4004,2.4058,2.406,2.4164,2.4303,2.3917,2.3626,2.3944,2.399,2.417,2.3967,2.3998,2.4094,2.4424,2.4477,2.4563,2.4551,2.4702,2.4703,2.4474,2.4542,2.4843,2.4646,2.4336,2.4344,2.4255,2.3997,2.3791,2.4117,2.379,2.3788,2.3849,2.357,2.3747,2.378,2.3786,2.3611,2.3801,2.3697,2.3681,2.4071,2.5253,2.6114,2.7348,2.9086,3.1153,3.3511,3.4071,3.1244,2.5639,2.0796,2.0291,2.1649,2.2361,2.3752,2.4295,2.469,2.4584,2.4475,2.4491,2.4616,2.4474,2.4554,2.4518,2.4687,2.4797,2.4694,2.4568,2.4757,2.4649,2.4771,2.4835,2.5018,2.491,2.5083,2.5125,2.503,2.509,2.5242,2.5193,2.5379,2.5161,2.5305,2.5503,2.565,2.5752,2.5791,2.5614,2.5939,2.6083,2.6012,2.6186,2.6412,2.6623,2.6717,2.6775,2.6806,2.7131,2.7437,2.7551,2.7785,2.7806,2.7902,2.8064,2.8211,2.8501,2.8776,2.8464,2.856,2.8771,2.8721,2.887,2.8722,2.8828,2.8724,2.8578,2.7843,2.7534,2.696,2.6593,2.6219,2.5809,2.5582,2.5367,2.4842,2.5007,2.4503,2.4214,2.4128,2.4049,2.3919,2.3735,2.3796,2.3647,2.3668,2.359,2.354,2.3603,2.3619,2.345,2.3632,2.3649,2.3464,2.3486,2.3635,2.3498,2.3493,2.3772,2.3323,2.3732,2.3922,2.3631,2.3611,2.3485,2.3534,2.3681,2.3627,2.3431,2.3639,2.3743,2.3657,2.3612,2.3636,2.356,2.3607,2.3546,2.3695,2.3741,2.3304,2.3388,2.3322,2.344,2.338,2.3303,2.3303,2.3367,2.3589,2.3244,2.3267,2.3143,2.3154,2.318,2.3291,2.3138,2.3043,2.3249,2.3024,2.3192,2.3211,2.3009,2.2974,2.3181,2.3086,2.2899,2.308,2.3146,2.3213,2.321,2.2991,2.295,2.2897,2.2959,2.313,2.2968,2.2747,2.3046,2.3074,2.3041,2.2973,2.2974,2.302,2.2899,2.2925,2.3042,2.2796,2.3019,2.3278,2.2796,2.2866,2.3032,2.2879,2.2949,2.3068,2.2925,2.2707,2.2984,2.3044,2.2711,2.2885,2.2985,2.3158,2.2836,2.2751,2.2838,2.2847,2.2931,2.3013,2.2917,2.2996,2.3253,2.2991,2.2913,2.3139,2.3303,2.3408,2.3383,2.338,2.3489,2.3545,2.3472,2.3316,2.3364,2.3243,2.3224,2.2957,2.2674,2.2812,2.2818,2.2747,2.2754,2.2831,2.2914,2.2758,2.2483,2.2541,2.2654,2.2673,2.2577,2.2728,2.3239,2.4281,2.5712,2.7025,2.8796,3.0964,3.2138,3.1306,2.7604,2.1422,1.916,2.03,2.089,2.1307,2.2213,2.3343,2.3245,2.3559,2.3577,2.3609,2.373,2.3621,2.357,2.3664,2.3704,2.371,2.365,2.3872,2.3739,2.4067,2.3882,2.3972,2.3967,2.4103,2.4354,2.401,2.4201,2.4247,2.4248,2.4516,2.4557,2.4309,2.4408,2.461,2.487,2.496,2.4942,2.4999,2.5086,2.5263,2.5247,2.5679,2.5679,2.5569,2.5929,2.5973,2.5908,2.6202,2.6475,2.698,2.7071,2.685,2.6974,2.7399,2.7302,2.7548,2.7757,2.7737,2.7987,2.7895,2.8012,2.794,2.7874,2.7896,2.7657,2.7258,2.6911,2.657,2.637,2.5903,2.5238,2.4951,2.4806,2.4195,2.4026,2.3735,2.3342,2.318,2.3179,2.3323,2.3032,2.2777,2.2839,2.2804,2.2867,2.2632,2.2847,2.2826,2.286,2.287,2.2808,2.2866,2.3058,2.3229,2.2933,2.2599,2.2912,2.2809,2.3302,2.3294,2.3189,2.2984,2.2945,2.2943,2.3223,2.3236,2.3075,2.2897,2.3262,2.3076,2.3019,2.3066,2.3151,2.3078,2.2802,2.3262,2.292,2.2929,2.2836,2.2869,2.2839,2.2716,2.2777,2.2705,2.2785,2.2992,2.2822,2.2478,2.2488,2.2609,2.2565,2.2835,2.2686,2.2512,2.2719,2.2725,2.2478,2.2444,2.269,2.2798,2.2636,2.2492,2.2471,2.2341,2.2386,2.2637,2.2518,2.2326,2.2379,2.2524,2.2412,2.2641,2.2562,2.2246,2.2406,2.2556,2.2466,2.2441,2.2751,2.2605,2.2402,2.2404,2.2373,2.2329,2.2475,2.2374,2.2435,2.2548,2.2299,2.2358,2.2514,2.2324,2.2493,2.2486,2.2284,2.2613,2.2644,2.2552,2.2409,2.2553,2.297,2.3063,2.3041,2.3261,2.3183,2.3032,2.3029,2.2977,2.2764,2.2689,2.2669,2.2877,2.2724,2.2355,2.2289,2.2165,2.2074,2.2409,2.2409,2.2427,2.2407,2.2343,2.2195,2.2137,2.2198,2.2344,2.257,2.327,2.4326,2.5733,2.721,2.9433,3.1589,3.2333,3.0075,2.4889,1.9862,1.9248,2.0156,2.0557,2.1546,2.2272,2.3037,2.3188,2.3014,2.3174,2.3414,2.3472,2.3235,2.3226,2.3379,2.3424,2.3613,2.361,2.3374,2.3278,2.3746,2.3834,2.3591,2.35,2.3635,2.3718,2.4003,2.4054,2.3996,2.3902,2.4068,2.4284,2.4184,2.4211,2.4393,2.4623,2.4829,2.4642,2.4857,2.4938,2.4965,2.5228,2.5398,2.53,2.5404,2.5686,2.6008,2.6037,2.5993,2.6418,2.6676,2.6976,2.7006,2.7155,2.7426,2.7643,2.7755,2.7504,2.7606,2.7808,2.8224,2.8372,2.7912,2.7564,2.7364,2.7427,2.7367,2.6729,2.6225,2.5861,2.5265,2.4971,2.4677,2.4303,2.3878,2.3795,2.3582,2.3246,2.3022,2.2867,2.287,2.3195,2.3001,2.2605,2.2492,2.2484,2.2522,2.2763,2.2645,2.2781,2.2828,2.2751,2.275,2.2541,2.2896,2.2745,2.2555,2.2826,2.2844,2.2756,2.2917,2.314,2.2743,2.2778,2.2835,2.2786,2.2685,2.2794,2.2855,2.2842,2.2929,2.2832,2.277,2.2863,2.276,2.2654,2.2736,2.2911,2.2733,2.2589,2.2576,2.2654,2.2503,2.2538,2.2832,2.251,2.2371,2.2533,2.2688,2.2498,2.2413,2.2351,2.2573,2.2588,2.2452,2.2212,2.2562,2.2461,2.2458,2.2336,2.2414,2.2396,2.2481,2.2519,2.2777,2.272,2.2264,2.2155,2.2542,2.2444,2.2361,2.2396,2.2263,2.246,2.2459,2.2241,2.2514,2.2549,2.2321,2.2312,2.2394,2.229,2.243,2.2482,2.2323,2.2009,2.2557,2.2659,2.2221,2.239,2.23,2.2304,2.2452,2.266,2.23,2.214,2.2263,2.2619,2.2425,2.2431,2.2438,2.2339,2.2268,2.2337,2.2387,2.2414,2.2323,2.218,2.253,2.2683,2.2515,2.2232,2.2138,2.2415,2.2476,2.2581,2.2636,2.2687,2.2501,2.2908,2.3321,2.2827,2.285,2.2978,2.306,2.2903,2.2857,2.3168,2.3076,2.292,2.2829,2.2377,2.2681,2.2322,2.2326,2.2537,2.221,2.2162,2.2289,2.2374,2.2381,2.2254,2.2296,2.2518,2.2781,2.2759,2.2799,2.3697,2.5182,2.6837,2.8792,3.0836,3.2288,3.1713,2.769,2.1464,1.8906,2.0019,2.0636,2.1741,2.2866,2.3195,2.3079,2.3337,2.3193,2.3381,2.3489,2.3705,2.314,2.3221,2.3386,2.369,2.3617,2.3459,2.3738,2.3686,2.3796,2.3791,2.382,2.3811,2.3844,2.3903,2.3963,2.3907,2.4255,2.4491,2.4044,2.4047,2.4226,2.4478,2.4605,2.5026,2.4762,2.4754,2.5022,2.5062,2.5257,2.5398,2.536,2.5535,2.5808,2.5696,2.613,2.6207,2.6591,2.6674,2.6712,2.6848,2.7073,2.738,2.7492,2.7567,2.7665,2.7744,2.8107,2.8152,2.7911,2.816,2.8002,2.7795,2.763,2.7331,2.7009,2.6611,2.6624,2.6102,2.5784,2.5094,2.4563,2.4417,2.4202,2.4009,2.3706,2.3345,2.317,2.3381,2.325,2.326,2.2846,2.3072,2.3082,2.2779,2.2801,2.2829,2.2992,2.3023,2.2886,2.288,2.2813,2.2821,2.3107,2.2872,2.3008,2.2902,2.2864,2.3088,2.3002,2.3159,2.3031,2.2942,2.3185,2.308,2.2859,2.3091,2.3285,2.3253,2.3178,2.3147,2.3184,2.2872,2.2721,2.3065,2.3014,2.292,2.3026,2.2917,2.2742,2.2787,2.2916,2.2692,2.2741,2.2826,2.2809,2.2798,2.2742,2.2636,2.2694,2.2716,2.281,2.2657,2.2546,2.257,2.2618,2.2658,2.2491,2.2876,2.2718,2.2583,2.241,2.2513,2.2685,2.2587,2.2522,2.2453,2.2591,2.2567,2.2468,2.2604,2.2805,2.2569,2.2434,2.2448,2.267,2.2503,2.2409,2.2422,2.2425,2.2498,2.2594,2.2293,2.2385,2.2445,2.2555,2.2556,2.2466,2.2481,2.2355,2.2506,2.2396,2.2514,2.2629,2.2501,2.2342,2.2341,2.2398,2.2354,2.2388,2.2515,2.2297,2.2526,2.2517,2.2375,2.2358,2.243,2.2604,2.2561,2.2434,2.2497,2.2468,2.2592,2.2298,2.2474,2.2335,2.2539,2.2455,2.2134,2.2479,2.2535,2.2466,2.2466,2.2551,2.2489,2.267,2.2678,2.2678,2.2633,2.2529,2.2783,2.3167,2.315,2.3025,2.2933,2.3169,2.3084,2.304,2.2971,2.263,2.2709,2.2982,2.2439,2.2337,2.2382,2.2485,2.2386,2.2234,2.2398,2.2388,2.2297,2.2486,2.2558,2.2297,2.2309,2.2476,2.2803,2.3912,2.4973,2.6421,2.7921,3.0049,3.215,3.2002,2.8842,2.6116,2.0417,1.9272,2.0592,2.074,2.1969,2.2921,2.3311,2.3446,2.3639,2.326,2.3662,2.329,2.3346,2.3493,2.3762,2.3403,2.3578,2.3516,2.3587,2.3548,2.4007,2.3841,2.3845,2.3739,2.3922,2.3939,2.4085,2.4109,2.4155,2.4309,2.4543,2.4478,2.4524,2.4338,2.4675,2.4707,2.4992,2.4903,2.4842,2.493,2.5248,2.5335,2.5406,2.5551,2.5841,2.597,2.6155,2.6144,2.6287,2.6571,2.684,2.6957,2.7042,2.7221,2.7455,2.7622,2.7789,2.7985,2.7715,2.7772,2.7877,2.8333,2.7961,2.7793,2.7704,2.7502,2.7278,2.7142,2.6683,2.6154,2.5789,2.5463,2.5035,2.4731,2.4459,2.4085,2.4203,2.388,2.3514,2.3401,2.3341,2.324,2.3202,2.3232,2.3144,2.3176,2.3289,2.3123,2.2914,2.2938,2.3324,2.309,2.305,2.296,2.3453,2.3459,2.3352,2.3214,2.3125,2.3329,2.314,2.3515,2.3632,2.3163,2.3011,2.3305,2.3344,2.3602,2.3204,2.3211,2.3353,2.3406,2.3304,2.3304,2.3004,2.3157,2.3095,2.3282,2.3141,2.3126,2.3081,2.3154,2.2956,2.3226,2.3064,2.3003,2.3066,2.2969,2.3048,2.3061,2.2911,2.3046,2.3048,2.2847,2.2771,2.2899,2.279,2.3059,2.2962,2.3102,2.2812,2.2668,2.2688,2.3098,2.2994,2.2534,2.271,2.3104,2.2976,2.294,2.26,2.2875,2.2915,2.2708,2.2738,2.2586,2.2681,2.2711,2.2923,2.3117,2.2878,2.2547,2.2742,2.2707,2.2642,2.275,2.2957,2.2855,2.2764,2.2735,2.2637,2.2737,2.2633,2.2632,2.2672,2.256,2.2659,2.2811,2.2918,2.2828,2.2701,2.2524,2.2823,2.2799,2.2792,2.2517,2.2669,2.2612,2.2954,2.2906,2.2642,2.2555,2.2635,2.2552,2.2674,2.2694,2.2926,2.2702,2.2619,2.2585,2.2768,2.2589,2.2844,2.2891,2.2699,2.2949,2.2716,2.272,2.2837,2.3455,2.3188,2.295,2.3205,2.3228,2.3429,2.3214,2.3264,2.3258,2.3405,2.3315,2.3007,2.2973,2.3013,2.2886,2.266,2.2628,2.2755,2.2495,2.256,2.2612,2.31,2.2652,2.2308,2.2434,2.2506,2.2645,2.2699,2.3021,2.3516,2.5055,2.6389,2.7638,2.9792,3.2075,3.3034,3.0584,2.5177,1.995,1.9763,2.0901,2.1504,2.2451,2.3364,2.3666,2.3824,2.3829,2.3767,2.3809,2.3846,2.4016,2.3802,2.3799,2.3949,2.4041,2.4082,2.4284,2.4067,2.4059,2.4346,2.4283,2.4316,2.4473,2.4468,2.4593,2.4672,2.4711,2.4687,2.4762,2.4809,2.4895,2.4929,2.5181,2.5079,2.5423,2.528,2.5522,2.5499,2.5732,2.595,2.5948,2.6027,2.625,2.6346,2.639,2.6785,2.6932,2.7079,2.7036,2.7438,2.7596,2.7852,2.7949,2.7869,2.806,2.827,2.8324,2.8404,2.8559,2.8551,2.8605,2.8505,2.8264,2.7999,2.8001,2.7667,2.7057,2.6762,2.6251,2.5808,2.5419,2.4977,2.5006,2.4831,2.4069,2.3943,2.4061,2.3691,2.3947,2.3646,2.3461,2.3478,2.3518,2.3397,2.3547,2.3407,2.3581,2.3435,2.3374,2.3298,2.3265,2.4,2.3667,2.3305,2.3443,2.3552,2.3671,2.3629,2.3534,2.3676,2.3636,2.3544,2.3747,2.3737,2.371,2.3599,2.3927,2.3755,2.365,2.3475,2.3675,2.379,2.3878,2.3837,2.3476,2.3307,2.3485,2.3563,2.3579,2.3437,2.337,2.3423,2.3481,2.362,2.322,2.3364,2.3504,2.3331,2.3244,2.3208,2.3273,2.3286,2.3313,2.3293,2.3203,2.338,2.3393,2.3234,2.3142,2.3165,2.3037,2.3215,2.3215,2.3142,2.2998,2.3117,2.3204,2.3025,2.3125,2.3081,2.2981,2.3045,2.3105,2.2972,2.2904,2.307,2.3108,2.303,2.3054,2.3107,2.2943,2.2761,2.3157,2.311,2.2868,2.3026,2.298,2.2992,2.2774,2.3273,2.3044,2.2782,2.3113,2.2994,2.2929,2.2935,2.2907,2.3083,2.3148,2.3175,2.3186,2.29,2.2852,2.2943,2.2879,2.2882,2.2921,2.2957,2.2886,2.3014,2.3135,2.2678,2.2773,2.3003,2.2708,2.2826,2.2791,2.2823,2.2703,2.3013,2.2825,2.2658,2.313,2.3169,2.2756,2.2699,2.2762,2.2785,2.302,2.3014,2.3012,2.3261,2.3636,2.3218,2.3119,2.325,2.33,2.3394,2.3361,2.3382,2.3321,2.3112,2.2917,2.3143,2.2773,2.2644,2.2677,2.2642,2.2583,2.2605,2.2847,2.25,2.261,2.2515,2.2629,2.258,2.2694,2.3374,2.492,2.568,2.693,2.9385,3.1878,3.3039,3.1312,2.6886,2.1013,1.9838,2.0176,2.0716,2.1286,2.2453,2.3186,2.3278,2.3524,2.3521,2.3475,2.3304,2.372,2.3788,2.3468,2.3391,2.3584,2.3649,2.3815,2.3579,2.3573,2.3712,2.3681,2.3796,2.3974,2.4011,2.404,2.3825,2.4228,2.4298,2.4333,2.4366,2.4368,2.4325,2.4346,2.4476,2.4811,2.4714,2.4841,2.5048,2.5077,2.5024,2.5127,2.5292,2.567,2.5617,2.5785,2.5947,2.6206,2.6761,2.6479,2.6597,2.6723,2.6893,2.7184,2.7229,2.7618,2.7444,2.7553,2.7794,2.7741,2.8098,2.7984,2.7928,2.7841,2.7822,2.731,2.7085,2.6765,2.64,2.6151,2.5692,2.4865,2.4601,2.42,2.4228,2.4016,2.3483,2.3142,2.3191,2.2974,2.3001,2.3124,2.2839,2.2776,2.2842,2.2699,2.2605,2.2637,2.2559,2.2771,2.2928,2.2924,2.2791,2.2594,2.2807,2.2782,2.2828,2.2948,2.2753,2.3059,2.2784,2.2684,2.2719,2.2875,2.3028,2.3103,2.2716,2.2881,2.2812,2.2969,2.3032,2.2907,2.2848,2.2768,2.3149,2.2844,2.2615,2.2521,2.2877,2.3008,2.2766,2.2575,2.2634,2.2932,2.2648,2.2642,2.262,2.2508,2.244,2.2553,2.257,2.2538,2.25,2.2587,2.232,2.2421,2.2401,2.2241,2.2292,2.2694,2.2686,2.2283,2.2208,2.2092,2.2165,2.2234,2.2178,2.2459,2.2229,2.2197,2.2119,2.2104,2.2335,2.2403,2.2242,2.2111,2.2355,2.2209,2.2308,2.2184,2.203,2.212,2.2029,2.2113,2.2205,2.2071,2.2075,2.1807,2.1941,2.2039,2.2121,2.2066,2.1885,2.208,2.2225,2.212,2.1866,2.1978,2.1781,2.1918,2.2133,2.2066,2.1957,2.1742,2.2097,2.1945,2.1798,2.184,2.1706,2.1623,2.1879,2.204,2.1718,2.1905,2.1901,2.1664,2.1664,2.1829,2.2492,2.1852,2.196,2.2225,2.2031,2.2755,2.2593,2.2178,2.2048,2.2222,2.2389,2.219,2.1975,2.214,2.1839,2.1646,2.1552,2.1692,2.1925,2.1487,2.1671,2.1725,2.1589,2.1369,2.1464,2.1484,2.1563,2.1569,2.1823,2.2332,2.3841,2.5037,2.6449,2.8662,3.0474,3.1088,2.8895,2.3269,1.8259,1.8881,1.9764,2.0154,2.06,2.1165,2.22,2.2598,2.2113,2.2647,2.2743,2.2382,2.2562,2.2618,2.2631,2.2865,2.2866,2.2482,2.2808,2.2611,2.3017,2.3005,2.2918,2.2828,2.2912,2.3131,2.3086,2.3556,2.3013,2.3158,2.3577,2.3518,2.3513,2.3406,2.3636,2.3836,2.3949,2.4057,2.4163,2.4088,2.4494,2.4621,2.4534,2.4446,2.5016,2.536,2.526,2.5219,2.5587,2.5553,2.5875,2.6064,2.6106,2.618,2.636,2.6641,2.693,2.6865,2.6637,2.6902,2.7763,2.7213,2.686,2.6844,2.6899,2.6943,2.6754,2.6532,2.5951,2.4876,2.4681,2.4506,2.4048,2.3786,2.3329,2.3202,2.2902,2.2956,2.3028,2.2308,2.2241,2.2269,2.217,2.2246,2.2019,2.2197,2.2436,2.2301,2.182,2.178,2.2035,2.2178,2.2129,2.2291,2.2197,2.2122,2.2212,2.2436,2.2279,2.2203,2.2169,2.2368,2.207,2.2085,2.2517,2.2868,2.2349,2.2238,2.2201,2.2124,2.238,2.2343,2.219,2.2242,2.2178,2.2343,2.202,2.2067,2.2272,2.2251,2.2218,2.2337,2.2376,2.2198,2.2077,2.2133,2.2125,2.2149,2.2043,2.1942,2.1883,2.205,2.1986,2.1953,2.1978,2.1935,2.2124,2.2031,2.2161,2.1892,2.1625,2.2145,2.2257,2.2275,2.2025,2.1754,2.1687,2.1743,2.1945,2.1986,2.1754,2.1839,2.1902,2.1939,2.1918,2.1935,2.2133,2.1944,2.1629,2.1821,2.1847,2.197,2.1937,2.2044,2.2079,2.1788,2.171,2.1857,2.1833,2.1757,2.1742,2.1883,2.1781,2.2037,2.1961,2.1805,2.2009,2.2044,2.1983,2.1943,2.2011,2.1979,2.2341,2.2076,2.1876,2.1741,2.165,2.1878,2.2014,2.2023,2.1725,2.1679,2.204,2.2112,2.1894,2.1773,2.1932,2.1881,2.209,2.2193,2.2083,2.2198,2.238,2.2642,2.2443,2.2874,2.3091,2.246,2.2477,2.2585,2.2676,2.2497,2.2359,2.2527,2.2434,2.2208,2.2093,2.1994,2.2026,2.2139,2.197,2.1882,2.2083,2.2031,2.1994,2.2177,2.2091,2.1785,2.2006,2.2791,2.4111,2.4936,2.6593,2.8729,3.0885,3.231,3.082,2.6605,2.071,1.9074,2.0015,2.0528,2.1724,2.2416,2.2969,2.2847,2.3098,2.3065,2.3269,2.3514,2.3298,2.3033,2.3301,2.3396,2.3628,2.3492,2.344,2.3312,2.345,2.3576,2.3672,2.3621,2.3682,2.3841,2.4379,2.4317,2.365,2.3795,2.4017,2.4467,2.433,2.4215,2.4299,2.4383,2.462,2.455,2.4611,2.4879,2.4945,2.5041,2.5377,2.5375,2.5159,2.5259,2.5667,2.5818,2.5922,2.6473,2.6174,2.6421,2.6884,2.6691,2.6784,2.6995,2.7149,2.7473,2.7437,2.7394,2.7695,2.7653,2.7593,2.772,2.7542,2.709,2.7117,2.6817,2.6601,2.6177,2.5926,2.5134,2.46,2.4349,2.4151,2.3505,2.3398,2.3218,2.3283,2.3051,2.2776,2.2644,2.285,2.2637,2.2415,2.2209,2.2218,2.2607,2.3078,2.2436,2.2091,2.2395,2.2499,2.2345,2.2311,2.2547,2.2496,2.2533,2.2601,2.2654,2.2424,2.2573,2.2834,2.26,2.2458,2.2566,2.2333,2.2904,2.3059,2.2906,2.2476,2.235,2.2417,2.2562,2.2547,2.2698,2.2411,2.2697,2.2487,2.2606,2.2463,2.2522,2.2383,2.2498,2.2631,2.2587,2.2463,2.2479,2.2008,2.2113,2.2303,2.2367,2.2262,2.235,2.2511,2.2145,2.2113,2.2064,2.2313,2.2404,2.2379,2.2348,2.2153,2.2575,2.2456,2.2261,2.224,2.187,2.2114,2.2114,2.2114,2.2275,2.2321,2.2264,2.2278,2.2268,2.1982,2.2171,2.2285,2.2132,2.2072,2.2324,2.2101,2.2026,2.186,2.2568,2.28,2.1901,2.195,2.2085,2.2092,2.1982,2.1985,2.2225,2.2288,2.2138,2.2208,2.2307,2.2046,2.2297,2.2298,2.2005,2.21,2.2174,2.2461,2.2278,2.2043,2.1986,2.2235,2.2224,2.2126,2.2011,2.2223,2.2257,2.2222,2.2247,2.2197,2.2055,2.2393,2.2524,2.2379,2.223,2.2475,2.2399,2.232,2.2477,2.2722,2.2692,2.276,2.2892,2.2767,2.2907,2.2877,2.2646,2.2766,2.2969,2.2667,2.2044,2.2044,2.2157,2.2279,2.2387,2.2257,2.2124,2.1981,2.1998,2.2033,2.2103,2.2101,2.2152,2.2344,2.2746,2.3631,2.5498,2.6486,2.8492,3.0827,3.2351,3.1404,2.728,2.1291,1.9394,1.9915,2.0534,2.1009,2.2132,2.2986,2.2979,2.335,2.3315,2.3378,2.3266,2.3075,2.303,2.3607,2.3436,2.3395,2.3388,2.336,2.3312,2.3671,2.3757,2.3527,2.3442,2.3827,2.3713,2.394,2.3861,2.385,2.4144,2.4151,2.4109,2.4198,2.4144,2.4487,2.4446,2.4491,2.476,2.4758,2.4818,2.4958,2.4936,2.5387,2.5525,2.5639,2.5705,2.5716,2.5919,2.5979,2.6185,2.6589,2.6612,2.6636,2.6778,2.7019,2.7462,2.7466,2.757,2.7468,2.7555,2.7815,2.7738,2.8033,2.8114,2.7909,2.7598,2.7273,2.7191,2.6853,2.6405,2.6067,2.5559,2.5131,2.4673,2.4313,2.417,2.4102,2.3776,2.3415,2.3286,2.3212,2.3123,2.3176,2.3205,2.2925,2.2879,2.3012,2.2745,2.2688,2.3005,2.2977,2.3187,2.2812,2.2746,2.2844,2.2932,2.2962,2.2939,2.302,2.2967,2.3165,2.3077,2.3008,2.3186,2.3413,2.312,2.3101,2.3017,2.2986,2.3493,2.2956,2.2988,2.2987,2.2936,2.2983,2.3111,2.3075,2.2909,2.2913,2.2805,2.2925,2.3032,2.2835,2.2862,2.3144,2.3074,2.2729,2.2559,2.262,2.2632,2.2579,2.2711,2.2946,2.2739,2.2562,2.2654,2.2648,2.278,2.2664,2.262,2.2543,2.2782,2.2746,2.2725,2.2675,2.2469,2.3049,2.2678,2.2577,2.2598,2.2632,2.2682,2.272,2.2717,2.2684,2.2607,2.2507,2.2612,2.2744,2.2507,2.2505,2.2612,2.2903,2.2825,2.2529,2.2519,2.2677,2.2663,2.2536,2.2802,2.282,2.2669,2.2621,2.2749,2.2629,2.2578,2.2621,2.2706,2.2761,2.2809,2.2525,2.2463,2.2702,2.2622,2.2723,2.2714,2.2588,2.2628,2.2633,2.2825,2.2841,2.2816,2.2678,2.2471,2.2634,2.2585,2.2548,2.2932,2.2812,2.2556,2.2561,2.2679,2.2763,2.2803,2.2762,2.2853,2.2659,2.2777,2.2933,2.3128,2.3168,2.3247,2.3247,2.3553,2.3353,2.3159,2.3456,2.3269,2.3007,2.2954,2.3245,2.2642,2.2638,2.2732,2.2701,2.2659,2.262,2.255,2.2544,2.2644,2.2718,2.2483,2.2545,2.2655,2.2687,2.3345,2.4504,2.6023,2.7768,2.9624,3.1745,3.2971,3.2716,2.8791,2.2691,1.9466,2.0051,2.1074,2.1576,2.3097,2.3188,2.3516,2.3648,2.3665,2.3732,2.3572,2.3604,2.3623,2.3709,2.3799,2.3731,2.3645,2.3769,2.3749,2.3869,2.411,2.3918,2.3889,2.4057,2.4137,2.4201,2.4151,2.3995,2.4373,2.4405,2.4359,2.466,2.4429,2.449,2.4805,2.4833,2.4842,2.4906,2.5052,2.5283,2.5399,2.5619,2.5487,2.546,2.5784,2.602,2.6017,2.611,2.6362,2.668,2.6741,2.6835,2.7055,2.6994,2.7287,2.7398,2.7492,2.75,2.7751,2.7788,2.7826,2.7863,2.7844,2.7788,2.7593,2.7597,2.7133,2.6724,2.6317,2.6089,2.5836,2.5147,2.467,2.4577,2.4288,2.3997,2.3826,2.3682,2.3257,2.3112,2.2871,2.3125,2.2902,2.2835,2.2903,2.2899,2.2809,2.2826,2.2845,2.2902,2.2841,2.2853,2.2807,2.281,2.2934,2.2872,2.3365,2.3159,2.2549,2.265,2.2809,2.3107,2.3108,2.2894,2.2732,2.2821,2.2953,2.2858,2.3032,2.2807,2.2712,2.3067,2.2849,2.2832,2.2805,2.2593,2.2813,2.2826,2.3124,2.2896,2.2566,2.255,2.2548,2.2446,2.2475,2.2839,2.2721,2.2587,2.2423,2.2486,2.2447,2.2627,2.2799,2.2415,2.2614,2.2424,2.2182,2.2091,2.2417,2.2437,2.2265,2.2323,2.2422,2.2353,2.2427,2.2333,2.2367,2.2506,2.2506,2.2541,2.2395,2.2474,2.2558,2.2675,2.2525,2.2369,2.218,2.2208,2.2364,2.2437,2.2453,2.2519,2.2455,2.2336,2.2318,2.2503,2.2564,2.236,2.2625,2.2306,2.2514,2.2701,2.2161,2.2167,2.2462,2.2219,2.2307,2.2233,2.2496,2.2329,2.2209,2.2398,2.2387,2.2296,2.2319,2.2365,2.251,2.254,2.2261,2.2406,2.2424,2.2634,2.2294,2.2192,2.2284,2.2383,2.2724,2.2632,2.2917,2.2908,2.2918,2.2919,2.3004,2.2889,2.313,2.3043,2.2831,2.2692,2.2397,2.2163,2.2391,2.245,2.2221,2.2274,2.2179,2.2227,2.2108,2.2218,2.2195,2.2151,2.1966,2.2185,2.239,2.3091,2.4418,2.5786,2.6834,2.8646,3.1014,3.1652,3.0022,2.5559,1.9465,1.9065,2.0083,2.066,2.1173,2.2066,2.2954,2.3046,2.2836,2.3166,2.3238,2.331,2.3101,2.2991,2.3332,2.3263,2.3249,2.3179,2.3559,2.3349,2.3377,2.3478,2.3584,2.3441,2.3539,2.3723,2.4106,2.3905,2.3524,2.3528,2.4194,2.4208,2.3979,2.4214,2.4318,2.4257,2.4233,2.4456,2.4586,2.4803,2.4792,2.5095,2.5014,2.4957,2.5066,2.5352,2.5534,2.5674,2.5766,2.6049,2.6299,2.6127,2.6431,2.6667,2.6733,2.6607,2.6919,2.7141,2.7202,2.7278,2.7185,2.726,2.7405,2.7368,2.7244,2.7124,2.7092,2.6534,2.6179,2.5678,2.5666,2.5238,2.459,2.4099,2.3785,2.3889,2.3611,2.3199,2.2965,2.2679,2.2839,2.2923,2.2708,2.2714,2.2631,2.2436,2.2451,2.2893,2.2347,2.2431,2.2441,2.2517,2.2659,2.2653,2.2622,2.2618,2.2813,2.2507,2.2683,2.2874,2.2591,2.2556,2.2745,2.2833,2.2714,2.2807,2.299,2.2496,2.2939,2.2868,2.2437,2.2412,2.2649,2.2775,2.2888,2.2638,2.2511,2.2669,2.2489,2.2463,2.257,2.2876,2.279,2.2351,2.2343,2.2463,2.2364,2.2427,2.2639,2.2406,2.2344,2.2281,2.2373,2.2676,2.2298,2.2258,2.2215,2.2117,2.2217,2.2165,2.2378,2.2333,2.2229,2.2051,2.206,2.1936,2.2261,2.2253,2.2364,2.252,2.223,2.2314,2.2534,2.226,2.2156,2.19,2.2523,2.2294,2.2483,2.1898,2.1839,2.1927,2.2053,2.2188,2.1995,2.1909,2.1754,2.2011,2.182,2.1831,2.1731,2.1841,2.1761,2.2113,2.1998,2.1982,2.1787,2.1902,2.2348,2.2513,2.2245,2.2339,2.265,2.2799,2.2521,2.2321,2.2181,2.2489,2.2257,2.2931,2.2688,2.1968,2.1687,2.1927,2.2086,2.2024,2.1997,2.2102,2.2164,2.2628,2.2122,2.18,2.1946,2.2056,2.2422,2.3019,2.4033,2.5438,2.6913,2.8809,3.1308,3.2372,3.0793,2.6414,2.0336,1.9164,2.0345,2.0897,2.1677,2.2666,2.3558,2.3488,2.3673,2.3686,2.3817,2.3742,2.3823,2.4007,2.4043,2.3949,2.3956,2.4032,2.4016,2.4239,2.4412,2.4462,2.4152,2.4336,2.4432,2.4325,2.4485,2.4299,2.4426,2.4362,2.4562,2.444,2.4649,2.4882,2.4789,2.4916,2.5101,2.5377,2.5303,2.5307,2.5569,2.569,2.5805,2.5918,2.6137,2.61,2.6704,2.6625,2.6501,2.6718,2.7252,2.722,2.7193,2.7376,2.7652,2.7885,2.8302,2.8359,2.854,2.8364,2.8492,2.8614,2.8499,2.8654,2.8595,2.8563,2.7962,2.7818,2.7311,2.6895,2.6432,2.6073,2.565,2.5415,2.5151,2.4878,2.4754,2.419,2.385,2.3625,2.3584,2.3688,2.357,2.3387,2.3257,2.3236,2.3216,2.3276,2.328,2.318,2.316,2.368,2.3355,2.3111,2.317,2.3316,2.3305,2.3205,2.3149,2.3316,2.3426,2.3424,2.3364,2.3057,2.3184,2.3163,2.3292,2.3308,2.327,2.3117,2.3186,2.3311,2.3433,2.3161,2.3377,2.3349,2.3687,2.3684,2.3689,2.3643,2.3958,2.406,2.398,2.3986,2.3929,2.4078,2.3927,2.3817,2.394,2.3999,2.3954,2.3562,2.3528,2.3976,2.358,2.3307,2.3443,2.3748,2.3504,2.3304,2.3224,2.3322,2.3443,2.3298,2.3328,2.3209,2.3268,2.3285,2.3134,2.3348,2.3164,2.2963,2.3042,2.3162,2.3145,2.2958,2.3133,2.3369,2.3091,2.3001,2.3092,2.3066,2.3138,2.3043,2.2983,2.3189,2.3228,2.3154,2.3005,2.2821,2.2868,2.29,2.3217,2.3298,2.3206,2.3136,2.2987,2.3128,2.3106,2.3164,2.3123,2.3131,2.3449,2.3464,2.3357,2.3302,2.3491,2.3713,2.3773,2.3617,2.3708,2.3739,2.373,2.3624,2.3762,2.3679,2.3326,2.3338,2.3298,2.3299,2.3041,2.2825,2.2616,2.2864,2.2892,2.2623,2.248,2.2833,2.2723,2.2696,2.2497,2.2588,2.2626,2.2884,2.3731,2.5039,2.6482,2.8017,3.0171,3.248,3.3067,2.9574,2.4084,1.9366,1.9384,2.0689,2.1045,2.2592,2.3068,2.3346,2.3537,2.3337,2.3383,2.3377,2.327,2.3441,2.353,2.361,2.3524,2.3659,2.3709,2.3653,2.377,2.4089,2.3984,2.3733,2.3803,2.4156,2.4342,2.4201,2.4064,2.4134,2.4308,2.4304,2.4417,2.4562,2.4569,2.4735,2.4806,2.5004,2.5076,2.517,2.5459,2.5563,2.5719,2.5691,2.5581,2.5922,2.6211,2.6348,2.6342,2.6792,2.6579,2.6887,2.7224,2.7101,2.7341,2.747,2.7658,2.7872,2.8016,2.7833,2.7986,2.8134,2.8181,2.8018,2.7967,2.7735,2.7839,2.7681,2.7501,2.6879,2.6231,2.59,2.552,2.5221,2.4862,2.4237,2.3994,2.3952,2.379,2.355,2.3325,2.339,2.3346,2.3147,2.3111,2.3142,2.2992,2.3154,2.3204,2.2764,2.3079,2.2993,2.3045,2.3032,2.3013,2.2939,2.2935,2.2983,2.297,2.299,2.282,2.2677,2.2785,2.2764,2.2707,2.2887,2.2983,2.2663,2.2943,2.3317,2.284,2.271,2.2491,2.2599,2.2811,2.2557,2.2693,2.282,2.2593,2.2644,2.2464,2.2462,2.2573,2.2642,2.2648,2.2586,2.2571,2.2563,2.2623,2.2586,2.2644,2.2535,2.2826,2.2855,2.2768,2.2828,2.2779,2.2746,2.2861,2.2862,2.2796,2.3019,2.2894,2.3224,2.3033,2.2804,2.282,2.2856,2.3133,2.3367,2.3461,2.342,2.3281,2.3187,2.3244,2.3304,2.3086,2.2845,2.3067,2.2938,2.3016,2.3025
