-2.2558,-2.2354,-2.2187,-2.1969,-2.1702,-2.1459,-2.1215,-2.0977,-2.0778,-2.0604,-2.0393,-2.0182,-2.0088,-2.0012,-1.9909,-1.9731,-1.9681,-1.968,-1.9647,-1.9648,-1.9707,-1.9864,-2.0078,-2.0391,-2.0718,-2.1166,-2.1558,-2.2072,-2.2388,-2.2786,-2.3137,-2.3505,-2.3668,-2.3933,-2.4115,-2.4192,-2.4359,-2.4424,-2.4532,-2.4609,-2.4625,-2.4674,-2.4691,-2.4765,-2.4774,-2.4801,-2.4813,-2.4749,-2.4832,-2.4791,-2.4775,-2.4791,-2.4813,-2.4739,-2.4696,-2.4701,-2.4667,-2.4755,-2.4666,-2.4626,-2.463,-2.464,-2.466,-2.465,-2.4567,-2.4621,-2.4682,-2.4663,-2.4744,-2.4699,-2.468,-2.472,-2.4765,-2.4744,-2.4821,-2.4897,-2.4906,-2.4923,-2.497,-2.4974,-2.4914,-2.498,-2.4963,-2.496,-2.4944,-2.4985,-2.494,-2.4959,-2.4985,-2.4891,-2.4907,-2.488,-2.4928,-2.4856,-2.482,-2.4808,-2.4831,-2.4769,-2.4735,-2.4683,-2.4645,-2.4653,-2.461,-2.4697,-2.459,-2.4562,-2.4568,-2.4507,-2.4541,-2.4519,-2.4472,-2.4504,-2.4478,-2.4494,-2.4466,-2.4509,-2.4519,-2.4566,-2.441,-2.4283,-2.4208,-2.4132,-2.409,-2.4139,-2.4123,-2.39,-2.3623,-2.3445,-2.346,-2.3721,-2.3927,-2.4018,-2.4156,-2.4339,-2.4452,-2.4505,-2.4618,-2.4711,-2.4773,-2.4743,-2.4769,-2.4655,-2.4771,-2.4794,-2.4853,-2.4772,-2.4802,-2.4735,-2.4854,-2.484,-2.4908,-2.5034,-2.4754,-2.3479,-2.1708,-1.9749,-1.7398,-1.7283,-1.9778,-2.2094,-2.6926,-3.0389,-2.8925,-2.7444,-2.6796,-2.5973,-2.5236,-2.5058,-2.4812,-2.4839,-2.4857,-2.4796,-2.4855,-2.4882,-2.4795,-2.4807,-2.4764,-2.4733,-2.4718,-2.4681,-2.4748,-2.464,-2.4639,-2.4661,-2.4574,-2.4605,-2.4449,-2.4393,-2.4403,-2.4341,-2.4311,-2.4257,-2.4174,-2.4071,-2.404,-2.3985,-2.3889,-2.3784,-2.3738,-2.3672,-2.3498,-2.3466,-2.324,-2.3081,-2.2936,-2.278,-2.2677,-2.2445,-2.2217,-2.209,-2.1803,-2.1538,-2.1375,-2.1162,-2.1002,-2.073,-2.0548,-2.0354,-2.0179,-2.0085,-1.9994,-1.9846,-1.9786,-1.9624,-1.9548,-1.9482,-1.9502,-1.9499,-1.9594,-1.9785,-2.0052,-2.035,-2.0729,-2.1109,-2.1586,-2.2002,-2.2455,-2.2771,-2.3076,-2.3269,-2.3552,-2.3799,-2.3955,-2.4182,-2.4277,-2.4425,-2.4436,-2.448,-2.456,-2.4521,-2.4538,-2.4666,-2.4627,-2.4666,-2.4613,-2.467,-2.4683,-2.4681,-2.4613,-2.4596,-2.4589,-2.4594,-2.457,-2.4514,-2.4516,-2.4559,-2.4565,-2.4523,-2.4497,-2.4468,-2.442,-2.4519,-2.4517,-2.4367,-2.4394,-2.4458,-2.4555,-2.462,-2.4577,-2.4586,-2.4625,-2.4637,-2.462,-2.4699,-2.4633,-2.4676,-2.4639,-2.4755,-2.4681,-2.4631,-2.464,-2.4645,-2.4618,-2.4572,-2.4566,-2.4519,-2.4483,-2.4477,-2.4462,-2.4398,-2.4344,-2.4371,-2.4371,-2.4371,-2.4289,-2.4316,-2.4337,-2.4297,-2.4266,-2.4255,-2.428,-2.4237,-2.4339,-2.4312,-2.4321,-2.4314,-2.4376,-2.4372,-2.4347,-2.4316,-2.4309,-2.431,-2.4478,-2.4412,-2.4323,-2.4295,-2.4319,-2.4396,-2.4398,-2.4401,-2.4312,-2.428,-2.4348,-2.4318,-2.4319,-2.4261,-2.4335,-2.4279,-2.4239,-2.4264,-2.4266,-2.4256,-2.429,-2.4357,-2.4274,-2.4153,-2.3911,-2.3953,-2.398,-2.394,-2.3739,-2.3694,-2.3517,-2.3401,-2.3344,-2.3521,-2.373,-2.3834,-2.3943,-2.3928,-2.4154,-2.4143,-2.4341,-2.4347,-2.4367,-2.4392,-2.4381,-2.4379,-2.4404,-2.4378,-2.437,-2.4381,-2.4408,-2.4479,-2.4582,-2.4635,-2.4523,-2.4043,-2.3264,-2.1676,-1.9694,-1.7553,-1.709,-1.9336,-2.3862,-2.8613,-2.9392,-2.7666,-2.6537,-2.5896,-2.4952,-2.4531,-2.4274,-2.4041,-2.4106,-2.4109,-2.407,-2.4004,-2.3922,-2.3817,-2.3738,-2.3682,-2.3666,-2.3617,-2.3592,-2.3527,-2.3509,-2.3526,-2.3485,-2.3512,-2.3394,-2.3342,-2.32,-2.3236,-2.3166,-2.3162,-2.3012,-2.302,-2.3036,-2.3005,-2.2919,-2.2822,-2.2763,-2.2676,-2.2652,-2.2593,-2.2454,-2.2389,-2.2235,-2.215,-2.2008,-2.1861,-2.1743,-2.1588,-2.1405,-2.1299,-2.0997,-2.0775,-2.0722,-2.0529,-2.0407,-2.0271,-2.0037,-1.9851,-1.9734,-1.9575,-1.9511,-1.9449,-1.9356,-1.9345,-1.936,-1.932,-1.9326,-1.9499,-1.9556,-1.9747,-2.003,-2.0321,-2.0545,-2.084,-2.1311,-2.1889,-2.2302,-2.2586,-2.2957,-2.3222,-2.3555,-2.3733,-2.3933,-2.4057,-2.4215,-2.4245,-2.4256,-2.4329,-2.4388,-2.4401,-2.4553,-2.4527,-2.4488,-2.4409,-2.4398,-2.4346,-2.439,-2.4393,-2.4283,-2.4245,-2.419,-2.4208,-2.4139,-2.4003,-2.3959,-2.396,-2.3933,-2.3923,-2.3881,-2.3869,-2.3849,-2.3811,-2.3853,-2.3824,-2.3914,-2.3894,-2.3993,-2.4015,-2.4098,-2.4074,-2.4074,-2.4139,-2.4182,-2.42,-2.4321,-2.4303,-2.4439,-2.4448,-2.4462,-2.4462,-2.4501,-2.4583,-2.456,-2.4598,-2.4517,-2.4496,-2.4526,-2.4517,-2.4519,-2.4478,-2.4521,-2.4526,-2.4566,-2.4502,-2.4534,-2.4499,-2.4504,-2.4546,-2.456,-2.4476,-2.44,-2.4458,-2.4408,-2.4439,-2.4463,-2.4412,-2.4411,-2.4384,-2.4388,-2.4332,-2.4358,-2.4579,-2.461,-2.4461,-2.442,-2.445,-2.4537,-2.4507,-2.4452,-2.4282,-2.4202,-2.4279,-2.4342,-2.4333,-2.4028,-2.3984,-2.3903,-2.3939,-2.3833,-2.3988,-2.4123,-2.4134,-2.4319,-2.4388,-2.448,-2.4626,-2.4591,-2.4643,-2.4765,-2.4879,-2.48,-2.4788,-2.4748,-2.4776,-2.47,-2.4749,-2.4668,-2.4647,-2.4702,-2.4662,-2.4521,-2.4024,-2.235,-2.0603,-1.9003,-1.7701,-1.8438,-2.1512,-2.532,-2.8446,-2.7634,-2.684,-2.6278,-2.5618,-2.5274,-2.4622,-2.4415,-2.4171,-2.3971,-2.3887,-2.4037,-2.3951,-2.3985,-2.3827,-2.396,-2.3887,-2.408,-2.3995,-2.4022,-2.4057,-2.4122,-2.4063,-2.4046,-2.3945,-2.406,-2.3983,-2.393,-2.3893,-2.3931,-2.38,-2.3802,-2.3678,-2.3647,-2.3597,-2.3567,-2.3473,-2.3349,-2.3168,-2.3135,-2.3026,-2.3018,-2.2921,-2.2825,-2.2694,-2.2601,-2.2528,-2.2335,-2.2129,-2.1904,-2.1722,-2.1503,-2.1307,-2.1168,-2.1052,-2.0951,-2.0705,-2.0476,-2.0369,-2.0292,-2.0206,-2.0127,-2.0085,-1.9943,-1.9896,-1.9915,-1.9933,-1.9991,-2.0004,-2.0232,-2.0547,-2.0885,-2.1287,-2.1607,-2.2023,-2.2487,-2.2964,-2.3307,-2.3675,-2.3999,-2.4381,-2.4475,-2.4718,-2.4928,-2.5022,-2.5107,-2.5273,-2.5327,-2.5334,-2.5503,-2.5461,-2.5443,-2.5496,-2.5454,-2.5501,-2.5383,-2.528,-2.521,-2.5244,-2.5218,-2.5207,-2.5116,-2.5114,-2.5008,-2.4993,-2.4988,-2.4955,-2.4956,-2.4965,-2.4891,-2.484,-2.4845,-2.4873,-2.4899,-2.4748,-2.479,-2.476,-2.4727,-2.475,-2.4659,-2.4704,-2.4716,-2.477,-2.4749,-2.4749,-2.4647,-2.4696,-2.4696,-2.4724,-2.4756,-2.4627,-2.47,-2.478,-2.4696,-2.4674,-2.4609,-2.4748,-2.4773,-2.4724,-2.4814,-2.4678,-2.4647,-2.4757,-2.481,-2.4752,-2.478,-2.4695,-2.4504,-2.4334,-2.4367,-2.428,-2.4385,-2.434,-2.4059,-2.3686,-2.3521,-2.3767,-2.4056,-2.4237,-2.4272,-2.4381,-2.4412,-2.4556,-2.4663,-2.4678,-2.4854,-2.487,-2.4921,-2.4916,-2.4856,-2.4891,-2.4957,-2.5011,-2.4942,-2.502,-2.4967,-2.4989,-2.51,-2.5192,-2.5282,-2.5088,-2.4659,-2.2937,-2.0991,-1.9243,-1.7672,-1.8644,-2.2197,-2.6556,-2.9995,-2.904,-2.7895,-2.7338,-2.662,-2.6002,-2.5577,-2.5546,-2.5154,-2.5176,-2.5132,-2.5188,-2.5092,-2.5246,-2.511,-2.5034,-2.4981,-2.5036,-2.4913,-2.4917,-2.4752,-2.4747,-2.466,-2.4631,-2.453,-2.4482,-2.4226,-2.4284,-2.4137,-2.4101,-2.3881,-2.3833,-2.3821,-2.3674,-2.3648,-2.3518,-2.3403,-2.3334,-2.3245,-2.3051,-2.3102,-2.2922,-2.2773,-2.2636,-2.251,-2.2455,-2.229,-2.2045,-2.1778,-2.1593,-2.1369,-2.1195,-2.113,-2.0901,-2.0612,-2.0376,-2.0298,-2.0099,-1.9934,-1.9817,-1.9737,-1.9619,-1.9542,-1.9431,-1.9418,-1.9408,-1.9538,-1.9665,-1.98,-2.0171,-2.0482,-2.0895,-2.1119,-2.146,-2.1902,-2.2263,-2.2668,-2.3031,-2.3273,-2.3609,-2.3765,-2.3957,-2.4141,-2.4187,-2.4265,-2.4372,-2.4523,-2.4537,-2.4589,-2.4667,-2.4619,-2.466,-2.4735,-2.4734,-2.4763,-2.4756,-2.4802,-2.4772,-2.4732,-2.4722,-2.4786,-2.4843,-2.4927,-2.485,-2.4781,-2.4706,-2.4815,-2.4775,-2.4796,-2.4809,-2.488,-2.4819,-2.486,-2.4881,-2.4851,-2.4809,-2.4909,-2.491,-2.4985,-2.4787,-2.4846,-2.4921,-2.4939,-2.4892,-2.4866,-2.4824,-2.4818,-2.4802,-2.4813,-2.4742,-2.4756,-2.4679,-2.4625,-2.4528,-2.4538,-2.4418,-2.4434,-2.4326,-2.4385,-2.4333,-2.4233,-2.4182,-2.4295,-2.425,-2.4205,-2.4199,-2.4134,-2.4159,-2.4117,-2.4161,-2.4158,-2.4128,-2.4115,-2.4008,-2.3802,-2.3718,-2.3594,-2.3736,-2.3784,-2.3641,-2.324,-2.3086,-2.3122,-2.339,-2.3549,-2.3725,-2.3759,-2.3924,-2.4036,-2.4094,-2.4193,-2.4224,-2.4183,-2.4261,-2.4346,-2.4276,-2.4207,-2.4265,-2.4283,-2.4282,-2.4128,-2.42,-2.4173,-2.4201,-2.4272,-2.4388,-2.4301,-2.3706,-2.2072,-2.0106,-1.8118,-1.6965,-1.68,-1.9415,-2.4233,-2.9055,-2.9385,-2.7728,-2.6796,-2.5964,-2.5217,-2.4793,-2.48,-2.4486,-2.4547,-2.4532,-2.4623,-2.4549,-2.4635,-2.4549,-2.4667,-2.459,-2.4555,-2.4562,-2.458,-2.4521,-2.4568,-2.4442,-2.4437,-2.438,-2.4366,-2.4246,-2.4202,-2.4075,-2.4141,-2.4045,-2.4015,-2.3939,-2.388,-2.3827,-2.3792,-2.3734,-2.3477,-2.3462,-2.3349,-2.3253,-2.3147,-2.2973,-2.2756,-2.2605,-2.244,-2.2254,-2.2011,-2.174,-2.1559,-2.1283,-2.1022,-2.0708,-2.0453,-2.0283,-2.0094,-2.0051,-1.9846,-1.9556,-1.9435,-1.9341,-1.9216,-1.9159,-1.9017,-1.8981,-1.8941,-1.8979,-1.9085,-1.9217,-1.9465,-1.9833,-2.0238,-2.07,-2.1116,-2.1562,-2.1821,-2.2145,-2.2521,-2.2818,-2.3121,-2.3315,-2.3544,-2.3703,-2.3844,-2.3922,-2.3966,-2.4049,-2.4116,-2.4163,-2.4117,-2.4273,-2.4284,-2.4255,-2.4233,-2.4173,-2.4171,-2.4154,-2.4198,-2.4167,-2.4153,-2.4223,-2.4178,-2.4226,-2.4165,-2.4154,-2.4135,-2.4102,-2.4136,-2.4154,-2.4074,-2.4128,-2.4135,-2.4236,-2.4296,-2.4365,-2.4363,-2.433,-2.4383,-2.4402,-2.4434,-2.4455,-2.4535,-2.4542,-2.4569,-2.4507,-2.4536,-2.4561,-2.4568,-2.4582,-2.4547,-2.4507,-2.4509,-2.4473,-2.4463,-2.4411,-2.4401,-2.4381,-2.436,-2.4381,-2.4326,-2.423,-2.4177,-2.4195,-2.4097,-2.4062,-2.4041,-2.4133,-2.4086,-2.4029,-2.3919,-2.3909,-2.3877,-2.3907,-2.3916,-2.3939,-2.3926,-2.384,-2.3965,-2.3896,-2.4002,-2.3955,-2.3977,-2.3979,-2.4049,-2.402,-2.4102,-2.3975,-2.4063,-2.4021,-2.4108,-2.4065,-2.4045,-2.4118,-2.4142,-2.4086,-2.4033,-2.399,-2.4063,-2.4133,-2.4073,-2.4106,-2.4068,-2.4135,-2.4171,-2.4179,-2.4136,-2.415,-2.4195,-2.4182,-2.4144,-2.4149,-2.408,-2.4211,-2.4145,-2.3982,-2.3937,-2.4032,-2.3985,-2.4031,-2.393,-2.3797,-2.368,-2.3545,-2.3695,-2.3893,-2.4089,-2.4153,-2.4234,-2.4322,-2.4487,-2.4546,-2.461,-2.4714,-2.4753,-2.4772,-2.4813,-2.4867,-2.4792,-2.4769,-2.4742,-2.4813,-2.4851,-2.4866,-2.5028,-2.5019,-2.4906,-2.3809,-2.2185,-2.0228,-1.8041,-1.741,-1.8976,-2.3144,-2.7945,-2.9823,-2.9,-2.7415,-2.6569,-2.5687,-2.4928,-2.4607,-2.4294,-2.4164,-2.4096,-2.4098,-2.4044,-2.3963,-2.3801,-2.3767,-2.3665,-2.3643,-2.3613,-2.363,-2.3635,-2.361,-2.3589,-2.3618,-2.3559,-2.3433,-2.3362,-2.3365,-2.3405,-2.3281,-2.3169,-2.3168,-2.3215,-2.3269,-2.3107,-2.3015,-2.2906,-2.2913,-2.2803,-2.2733,-2.2583,-2.2535,-2.2433,-2.2337,-2.2186,-2.2081,-2.1915,-2.1742,-2.1634,-2.1455,-2.1244,-2.1038,-2.0896,-2.0682,-2.0462,-2.0219,-2.0105,-2.0005,-1.9844,-1.9626,-1.9594,-1.9569,-1.9488,-1.9428,-1.9443,-1.9376,-1.9242,-1.9273,-1.9431,-1.9536,-1.9579,-1.9861,-2.019,-2.0571,-2.105,-2.1529,-2.1881,-2.2356,-2.2766,-2.3043,-2.3378,-2.3509,-2.3838,-2.4081,-2.4207,-2.4289,-2.4514,-2.4542,-2.4591,-2.4709,-2.4747,-2.4746,-2.475,-2.4836,-2.466,-2.459,-2.4621,-2.4589,-2.4563,-2.4515,-2.4378,-2.4347,-2.4294,-2.4236,-2.427,-2.4112,-2.4021,-2.3944,-2.3871,-2.3854,-2.3836,-2.379,-2.3736,-2.3629,-2.3616,-2.3529,-2.3587,-2.3487,-2.3532,-2.3573,-2.3587,-2.3613,-2.3574,-2.3676,-2.3769,-2.3734,-2.3742,-2.3795,-2.3755,-2.3726,-2.3803,-2.3949,-2.4028,-2.3887,-2.392,-2.3929,-2.3896,-2.4,-2.393,-2.401,-2.3948,-2.39,-2.3901,-2.3976,-2.3996,-2.3967,-2.408,-2.3963,-2.3953,-2.4082,-2.3977,-2.3972,-2.3953,-2.4037,-2.4048,-2.407,-2.4209,-2.405,-2.4036,-2.4118,-2.4025,-2.4019,-2.4044,-2.4094,-2.4075,-2.4162,-2.4142,-2.4166,-2.4199,-2.4219,-2.428,-2.4295,-2.4365,-2.4443,-2.4415,-2.4495,-2.4529,-2.4551,-2.4601,-2.4659,-2.4599,-2.4625,-2.4676,-2.4744,-2.4693,-2.4608,-2.4568,-2.4643,-2.4621,-2.4545,-2.4393,-2.4367,-2.4324,-2.408,-2.4103,-2.4166,-2.4371,-2.4393,-2.4428,-2.4457,-2.4526,-2.4557,-2.47,-2.4682,-2.4667,-2.4509,-2.4623,-2.4632,-2.4505,-2.4476,-2.4351,-2.4457,-2.4331,-2.4309,-2.4308,-2.4341,-2.4163,-2.3472,-2.1618,-1.9761,-1.8889,-1.7022,-1.7082,-1.9595,-2.3748,-2.8079,-2.801,-2.6813,-2.6094,-2.5477,-2.4882,-2.4424,-2.435,-2.414,-2.398,-2.3831,-2.394,-2.3923,-2.3974,-2.3863,-2.3926,-2.3844,-2.3845,-2.3831,-2.3822,-2.3801,-2.3717,-2.3775,-2.3778,-2.3648,-2.3657,-2.3735,-2.3618,-2.351,-2.3528,-2.3479,-2.3343,-2.3301,-2.334,-2.3231,-2.3183,-2.3168,-2.2928,-2.2873,-2.2849,-2.2729,-2.2703,-2.2623,-2.2484,-2.2425,-2.2276,-2.2083,-2.2042,-2.1876,-2.1699,-2.1561,-2.1411,-2.1324,-2.111,-2.103,-2.0976,-2.0776,-2.0639,-2.059,-2.0502,-2.0484,-2.0329,-2.0217,-2.0232,-2.0289,-2.0323,-2.032,-2.024,-2.0344,-2.0509,-2.071,-2.0918,-2.131,-2.1649,-2.207,-2.2249,-2.2626,-2.2842,-2.3221,-2.3566,-2.3844,-2.4017,-2.414,-2.4351,-2.447,-2.4471,-2.4434,-2.4532,-2.4582,-2.4582,-2.4493,-2.439,-2.4342,-2.4349,-2.4253,-2.4278,-2.4204,-2.4115,-2.4089,-2.4002,-2.3923,-2.3854,-2.3848,-2.4001,-2.3888,-2.3833,-2.3829,-2.3847,-2.3895,-2.3928,-2.3923,-2.3957,-2.3982,-2.4115,-2.4122,-2.4108,-2.4107,-2.4111,-2.4227,-2.4238,-2.4274,-2.43,-2.4277,-2.4281,-2.4297,-2.4339,-2.4337,-2.4266,-2.4256,-2.4386,-2.4342,-2.4409,-2.4353,-2.4388,-2.4424,-2.449,-2.443,-2.4346,-2.4439,-2.446,-2.4473,-2.4543,-2.4473,-2.452,-2.4596,-2.453,-2.4583,-2.4636,-2.4677,-2.4744,-2.4706,-2.4735,-2.4854,-2.4808,-2.4874,-2.4905,-2.4842,-2.4966,-2.505,-2.509,-2.5053,-2.5099,-2.4975,-2.5078,-2.5198,-2.5196,-2.5094,-2.5004,-2.4961,-2.4802,-2.4825,-2.4892,-2.5158,-2.5198,-2.5243,-2.5356,-2.5377,-2.5531,-2.5621,-2.5692,-2.5638,-2.5705,-2.5682,-2.5726,-2.5689,-2.5672,-2.5684,-2.5693,-2.5622,-2.5605,-2.5634,-2.5616,-2.5709,-2.555,-2.5307,-2.3925,-2.207,-2.023,-1.8302,-1.8599,-2.1259,-2.5456,-2.9648,-2.9214,-2.7969,-2.7323,-2.6618,-2.6101,-2.5563,-2.5371,-2.5067,-2.4998,-2.4918,-2.4897,-2.4818,-2.4856,-2.4756,-2.4817,-2.473,-2.4707,-2.4682,-2.4632,-2.4614,-2.4684,-2.4591,-2.4465,-2.4467,-2.4479,-2.4339,-2.4339,-2.4333,-2.4316,-2.4151,-2.4153,-2.4109,-2.3995,-2.3921,-2.3963,-2.3848,-2.3627,-2.3454,-2.342,-2.3411,-2.3412,-2.3137,-2.308,-2.3003,-2.2904,-2.2676,-2.249,-2.2376,-2.2107,-2.2004,-2.181,-2.1697,-2.1555,-2.1396,-2.1183,-2.1023,-2.0875,-2.0779,-2.065,-2.0615,-2.0511,-2.0422,-2.0367,-2.0288,-2.0337,-2.0382,-2.0494,-2.0615,-2.0914,-2.1291,-2.1625,-2.1891,-2.2318,-2.2649,-2.2952,-2.3452,-2.3756,-2.4131,-2.4393,-2.4695,-2.485,-2.5057,-2.5114,-2.5261,-2.5296,-2.5364,-2.5449,-2.5567,-2.5462,-2.555,-2.5517,-2.5512,-2.5492,-2.5438,-2.5416,-2.5369,-2.5356,-2.5281,-2.5159,-2.5145,-2.5115,-2.5058,-2.5043,-2.5001,-2.4824,-2.4845,-2.4902,-2.478,-2.4732,-2.4732,-2.4745,-2.4711,-2.467,-2.471,-2.4624,-2.4738,-2.4709,-2.4691,-2.4701,-2.465,-2.4746,-2.4756,-2.4707,-2.4674,-2.4669,-2.4681,-2.4778,-2.4729,-2.4667,-2.4711,-2.47,-2.4753,-2.4798,-2.4714,-2.4748,-2.4747,-2.475,-2.4738,-2.4713,-2.4703,-2.4779,-2.4765,-2.4762,-2.4862,-2.4821,-2.4818,-2.4769,-2.4838,-2.482,-2.4831,-2.4822,-2.4821,-2.4913,-2.4951,-2.493,-2.4899,-2.4893,-2.4877,-2.4932,-2.4888,-2.4899,-2.4864,-2.4906,-2.4955,-2.4924,-2.478,-2.465,-2.4608,-2.4679,-2.4621,-2.4575,-2.4498,-2.4471,-2.4385,-2.4201,-2.4215,-2.4495,-2.4652,-2.4706,-2.4696,-2.4798,-2.4994,-2.5231,-2.5266,-2.5293,-2.5279,-2.5341,-2.5299,-2.5359,-2.5328,-2.5287,-2.5323,-2.5367,-2.5419,-2.5399,-2.5421,-2.5568,-2.5599,-2.499,-2.3433,-2.1396,-1.9239,-1.7528,-1.8726,-2.2315,-2.715,-3.083,-2.9623,-2.8061,-2.7373,-2.6816,-2.5997,-2.5461,-2.5417,-2.5063,-2.513,-2.4915,-2.4882,-2.482,-2.4801,-2.47,-2.4663,-2.4544,-2.4627,-2.4509,-2.4515,-2.4411,-2.4331,-2.429,-2.4248,-2.4191,-2.4158,-2.4083,-2.4089,-2.4028,-2.3936,-2.3812,-2.3756,-2.3676,-2.3625,-2.3579,-2.3471,-2.3434,-2.3354,-2.3228,-2.3159,-2.3091,-2.2973,-2.2877,-2.2762,-2.2674,-2.2503,-2.2325,-2.2162,-2.2037,-2.1788,-2.1576,-2.1366,-2.1141,-2.0928,-2.0707,-2.0548,-2.033,-2.0207,-2.0084,-1.9971,-1.9889,-1.9775,-1.9651,-1.9591,-1.9603,-1.9554,-1.952,-1.9619,-1.9755,-1.9989,-2.0246,-2.0557,-2.0995,-2.1371,-2.1805,-2.2237,-2.2684,-2.3085,-2.3381,-2.3689,-2.3941,-2.4098,-2.427,-2.4407,-2.4455,-2.4617,-2.4682,-2.4757,-2.477,-2.4786,-2.4822,-2.4895,-2.4976,-2.4913,-2.4935,-2.4988,-2.4926,-2.4948,-2.4956,-2.492,-2.4977,-2.4897,-2.4827,-2.4816,-2.4876,-2.4842,-2.4837,-2.4842,-2.4819,-2.4703,-2.4833,-2.4681,-2.4722,-2.4714,-2.4722,-2.4774,-2.4793,-2.476,-2.4731,-2.4826,-2.4836,-2.4806,-2.48,-2.4799,-2.4885,-2.4797,-2.4826,-2.4781,-2.4697,-2.4782,-2.4857,-2.4837,-2.4828,-2.4831,-2.4784,-2.478,-2.4696,-2.465,-2.4692,-2.4672,-2.4676,-2.4734,-2.4686,-2.4667,-2.4628,-2.4559,-2.4591,-2.4561,-2.4503,-2.4521,-2.4482,-2.4437,-2.4405,-2.4365,-2.4387,-2.4367,-2.4387,-2.4369,-2.4303,-2.4285,-2.427,-2.4299,-2.4316,-2.4298,-2.423,-2.4295,-2.432,-2.4256,-2.4237,-2.4279,-2.4255,-2.4264,-2.427,-2.4258,-2.4224,-2.4306,-2.4302,-2.4184,-2.4097,-2.4038,-2.4077,-2.4043,-2.389,-2.3873,-2.3737,-2.3592,-2.3546,-2.3563,-2.3794,-2.3876,-2.396,-2.4053,-2.4151,-2.4177,-2.426,-2.4412,-2.4434,-2.4491,-2.4538,-2.4477,-2.4466,-2.4512,-2.4558,-2.4577,-2.453,-2.458,-2.4541,-2.4654,-2.4704,-2.4688,-2.4181,-2.2784,-2.0848,-1.8838,-1.7107,-1.8094,-2.1481,-2.6277,-3.0263,-2.902,-2.739,-2.6789,-2.5894,-2.5577,-2.5049,-2.4982,-2.4613,-2.4621,-2.4665,-2.4699,-2.4691,-2.4721,-2.467,-2.4707,-2.4618,-2.4545,-2.4513,-2.4561,-2.4517,-2.4524,-2.4565,-2.4454,-2.4425,-2.4335,-2.4331,-2.4223,-2.4149,-2.4141,-2.4127,-2.406,-2.3907,-2.3823,-2.375,-2.3626,-2.35,-2.3395,-2.3237,-2.3152,-2.3096,-2.2966,-2.2782,-2.2591,-2.2429,-2.2363,-2.2193,-2.1938,-2.1736,-2.1556,-2.1348,-2.1159,-2.0935,-2.0725,-2.053,-2.0425,-2.0181,-1.9993,-1.9816,-1.9802,-1.9686,-1.9546,-1.9441,-1.9323,-1.9378,-1.9278,-1.9253,-1.923,-1.9394,-1.9528,-1.9767,-2.016,-2.052,-2.0818,-2.1302,-2.1716,-2.2146,-2.2558,-2.2817,-2.3123,-2.3444,-2.3694,-2.3817,-2.386,-2.395,-2.3972,-2.4123,-2.4226,-2.4329,-2.4355,-2.4363,-2.4503,-2.4515,-2.4398,-2.4523,-2.4526,-2.4441,-2.4399,-2.4412,-2.4395,-2.4302,-2.4297,-2.4352,-2.4324,-2.4316,-2.4353,-2.4384,-2.4452,-2.4422,-2.4345,-2.4363,-2.4347,-2.4373,-2.4396,-2.4435,-2.4478,-2.4607,-2.4633,-2.4739,-2.4778,-2.4755,-2.4825,-2.4876,-2.4952,-2.4968,-2.4974,-2.5014,-2.5081,-2.5161,-2.5041,-2.5111,-2.5096,-2.5147,-2.5197,-2.5185,-2.5068,-2.5072,-2.5094,-2.5087,-2.5085,-2.5112,-2.5086,-2.4991,-2.5126,-2.511,-2.5082,-2.5035,-2.49,-2.495,-2.4914,-2.4868,-2.4887,-2.4802,-2.4753,-2.4804,-2.4781,-2.4707,-2.4624,-2.4737,-2.4647,-2.4619,-2.449,-2.4468,-2.4522,-2.4427,-2.4334,-2.4319,-2.4266,-2.4135,-2.4034,-2.3828,-2.3842,-2.402,-2.4175,-2.4197,-2.4305,-2.4308,-2.4505,-2.4585,-2.4701,-2.4709,-2.4733,-2.4734,-2.4812,-2.485,-2.4911,-2.492,-2.4791,-2.4843,-2.4803,-2.4835,-2.486,-2.494,-2.5006,-2.4653,-2.325,-2.1329,-1.9643,-1.794,-1.8294,-2.1075,-2.5196,-2.9038,-2.8547,-2.7748,-2.7185,-2.6561,-2.6191,-2.5582,-2.5338,-2.5156,-2.5014,-2.484,-2.4812,-2.4744,-2.483,-2.4772,-2.4772,-2.4648,-2.4724,-2.4595,-2.474,-2.4686,-2.4828,-2.4698,-2.4785,-2.4584,-2.4576,-2.4536,-2.4566,-2.4555,-2.4457,-2.4431,-2.4341,-2.429,-2.4285,-2.4238,-2.4302,-2.4097,-2.4131,-2.4016,-2.3823,-2.3828,-2.3837,-2.3773,-2.3647,-2.3525,-2.336,-2.3247,-2.3107,-2.2983,-2.2823,-2.2609,-2.2406,-2.2296,-2.2069,-2.1888,-2.1721,-2.1457,-2.1395,-2.1296,-2.1092,-2.0997,-2.0867,-2.0785,-2.0748,-2.0638,-2.0604,-2.0501,-2.0514,-2.0667,-2.0917,-2.116,-2.1402,-2.1678,-2.2067,-2.2537,-2.2817,-2.3228,-2.3538,-2.3919,-2.4134,-2.4274,-2.4417,-2.4563,-2.4805,-2.4866,-2.4926,-2.4964,-2.4955,-2.514,-2.5138,-2.5087,-2.5108,-2.5043,-2.5045,-2.5098,-2.5035,-2.4961,-2.4936,-2.4848,-2.4958,-2.4938,-2.4835,-2.4742,-2.4754,-2.4827,-2.4939,-2.4875,-2.4762,-2.4798,-2.4879,-2.4922,-2.4861,-2.4897,-2.5025,-2.5094,-2.5123,-2.5188,-2.5137,-2.5205,-2.521,-2.5285,-2.521,-2.5247,-2.5364,-2.5449,-2.542,-2.5493,-2.5428,-2.5497,-2.5487,-2.5502,-2.5553,-2.553,-2.5501,-2.5594,-2.5637,-2.561,-2.5577,-2.5546,-2.5576,-2.5648,-2.5613,-2.5556,-2.5408,-2.5255,-2.5305,-2.5363,-2.5264,-2.5136,-2.5002,-2.5005,-2.4831,-2.4974,-2.5059,-2.5258,-2.5396,-2.5491,-2.5574,-2.5733,-2.5734,-2.5994,-2.5942,-2.6007,-2.5965,-2.5962,-2.6086,-2.6009,-2.6098,-2.5937,-2.5965,-2.6024,-2.6018,-2.6019,-2.5994,-2.612,-2.5955,-2.4884,-2.3101,-2.1103,-1.8897,-1.8093,-1.8769,-2.2155,-2.6532,-3.0407,-2.9789,-2.8534,-2.7992,-2.7024,-2.6437,-2.5835,-2.5912,-2.5451,-2.5524,-2.5313,-2.5371,-2.5217,-2.5351,-2.52,-2.5326,-2.5156,-2.5225,-2.5111,-2.5144,-2.4929,-2.4986,-2.4804,-2.4865,-2.4688,-2.4695,-2.4603,-2.4606,-2.449,-2.4484,-2.4417,-2.4401,-2.4293,-2.4241,-2.4143,-2.399,-2.3903,-2.3915,-2.3841,-2.3696,-2.3522,-2.3449,-2.3288,-2.3193,-2.2963,-2.2849,-2.2739,-2.249,-2.2315,-2.2128,-2.1885,-2.1575,-2.1341,-2.1267,-2.1078,-2.0787,-2.0681,-2.0588,-2.0413,-2.0342,-2.0242,-2.005,-2.0026,-1.997,-1.99,-2.0033,-2.0061,-2.0253,-2.0561,-2.0829,-2.1187,-2.1619,-2.211,-2.2535,-2.309,-2.3428,-2.3602,-2.3928,-2.4186,-2.4392,-2.4701,-2.4751,-2.4894,-2.5081,-2.5301,-2.5347,-2.5361,-2.5347,-2.5447,-2.5513,-2.5602,-2.5509,-2.5533,-2.5508,-2.5533,-2.553,-2.5491,-2.5428,-2.536,-2.5403,-2.5415,-2.5379,-2.5312,-2.5343,-2.5369,-2.5293,-2.5206,-2.517,-2.5101,-2.5094,-2.5117,-2.5008,-2.5031,-2.5089,-2.5143,-2.5086,-2.511,-2.5046,-2.4946,-2.4958,-2.4981,-2.4983,-2.4959,-2.4914,-2.4937,-2.4902,-2.4926,-2.4846,-2.4768,-2.4728,-2.4739,-2.4679,-2.4661,-2.4661,-2.4649,-2.4585,-2.4635,-2.4491,-2.4625,-2.4547,-2.4637,-2.4614,-2.4642,-2.4634,-2.46,-2.4583,-2.4613,-2.4634,-2.4636,-2.4618,-2.4711,-2.4711,-2.4638,-2.4699,-2.4666,-2.4648,-2.4663,-2.4651,-2.4678,-2.4609,-2.4628,-2.4712,-2.4752,-2.457,-2.4361,-2.4429,-2.4489,-2.448,-2.4391,-2.4232,-2.405,-2.3915,-2.3759,-2.4041,-2.4185,-2.4451,-2.4562,-2.466,-2.4734,-2.4804,-2.4887,-2.5075,-2.5115,-2.5192,-2.5191,-2.515,-2.5285,-2.5246,-2.5288,-2.5257,-2.5309,-2.5319,-2.5361,-2.538,-2.5496,-2.5518,-2.5462,-2.4981,-2.3392,-2.139,-1.9263,-1.7526,-1.8506,-2.2136,-2.6994,-3.0829,-2.958,-2.8033,-2.7325,-2.6361,-2.5792,-2.5432,-2.5244,-2.5103,-2.5057,-2.5013,-2.5112,-2.497,-2.4988,-2.487,-2.4792,-2.4691,-2.4688,-2.4645,-2.4626,-2.4448,-2.4386,-2.4323,-2.4277,-2.4181,-2.4064,-2.3957,-2.3892,-2.3846,-2.3763,-2.373,-2.3703,-2.3551,-2.3523,-2.3463,-2.3301,-2.3154,-2.3214,-2.3133,-2.3058,-2.2883,-2.2726,-2.268,-2.2557,-2.2406,-2.2288,-2.2121,-2.1971,-2.1772,-2.1586,-2.134,-2.1267,-2.1059,-2.0831,-2.069,-2.0452,-2.0241,-1.9993,-1.982,-1.9722,-1.9726,-1.9658,-1.9599,-1.9521,-1.9493,-1.9422,-1.946,-1.959,-1.9752,-2.0063,-2.0244,-2.0569,-2.0991,-2.1392,-2.1986,-2.2372,-2.2806,-2.3169,-2.3542,-2.383,-2.4072,-2.4289,-2.453,-2.4763,-2.4986,-2.5043,-2.5084,-2.5144,-2.5341,-2.5433,-2.5489,-2.5512,-2.5503,-2.5579,-2.5645,-2.5584,-2.5654,-2.5665,-2.5659,-2.5613,-2.5674,-2.5563,-2.5579,-2.5506,-2.5492,-2.5473,-2.5435,-2.5294,-2.5308,-2.5335,-2.5328,-2.5205,-2.5105,-2.5052,-2.5035,-2.5051,-2.4953,-2.4951,-2.4865,-2.4874,-2.4838,-2.4757,-2.469,-2.4767,-2.4645,-2.4699,-2.4669,-2.4536,-2.4524,-2.4407,-2.4442,-2.4401,-2.4416,-2.4357,-2.4291,-2.4229,-2.4292,-2.4254,-2.4157,-2.4228,-2.4217,-2.4142,-2.4177,-2.4163,-2.4136,-2.4162,-2.4172,-2.4205,-2.4223,-2.4243,-2.4201,-2.4288,-2.4274,-2.4242,-2.4243,-2.4244,-2.4299,-2.4338,-2.4254,-2.4275,-2.4285,-2.4297,-2.4298,-2.4241,-2.4214,-2.4252,-2.4272,-2.4269,-2.4194,-2.4236,-2.4257,-2.4216,-2.4277,-2.4311,-2.43,-2.4332,-2.4351,-2.4347,-2.4461,-2.4485,-2.4388,-2.4306,-2.4184,-2.4166,-2.4263,-2.4338,-2.4253,-2.4178,-2.4107,-2.3983,-2.3916,-2.4044,-2.4286,-2.4458,-2.458,-2.4735,-2.4862,-2.5063,-2.5214,-2.5316,-2.5425,-2.5528,-2.5578,-2.5638,-2.5694,-2.5749,-2.5839,-2.5846,-2.5771,-2.5859,-2.591,-2.5975,-2.6177,-2.6192,-2.5717,-2.4136,-2.2421,-2.0551,-1.8424,-1.8887,-2.203,-2.6975,-3.1445,-3.0656,-2.8818,-2.8095,-2.7075,-2.6436,-2.6067,-2.5878,-2.5725,-2.578,-2.5644,-2.5668,-2.5497,-2.5497,-2.5378,-2.5394,-2.5221,-2.5163,-2.5002,-2.4958,-2.4879,-2.4948,-2.4725,-2.4611,-2.4513,-2.4354,-2.4264,-2.4208,-2.4056,-2.3953,-2.3806,-2.3756,-2.362,-2.3474,-2.3407,-2.329,-2.3182,-2.297,-2.2868,-2.2648,-2.2579,-2.2539,-2.2402,-2.2218,-2.2073,-2.1943,-2.1848,-2.177,-2.1571,-2.1353,-2.1175,-2.1038,-2.0856,-2.0596,-2.0413,-2.0236,-2.0113,-1.9981,-1.9746,-1.9494,-1.945,-1.9303,-1.9265,-1.9074,-1.9038,-1.8989,-1.9046,-1.9077,-1.9105,-1.927,-1.947,-1.9789,-2.0286,-2.0613,-2.1041,-2.1434,-2.1847,-2.2174,-2.2579,-2.2888,-2.3174,-2.3567,-2.3709,-2.3853,-2.405,-2.4123,-2.4213,-2.4272,-2.4254,-2.4398,-2.4555,-2.4665,-2.4671,-2.4771,-2.4772,-2.4676,-2.4698,-2.4839,-2.4845,-2.4925,-2.4875,-2.4875,-2.4935,-2.485,-2.4835,-2.4778,-2.4779,-2.4732,-2.4735,-2.4745,-2.473,-2.4706,-2.4855,-2.4786,-2.474,-2.4716,-2.4708,-2.4675,-2.4834,-2.4838,-2.4742,-2.4867,-2.4987,-2.4889,-2.4924,-2.4955,-2.4918,-2.4967,-2.5,-2.4997,-2.4909,-2.4846,-2.4874,-2.4938,-2.4917,-2.4882,-2.4782,-2.4788,-2.4736,-2.4833,-2.4816,-2.4788,-2.4794,-2.4806,-2.4857,-2.4704,-2.4695,-2.4742,-2.4785,-2.4748,-2.4682,-2.4763,-2.4623,-2.4722,-2.4662,-2.4676,-2.4652,-2.4754,-2.4761,-2.478,-2.4712,-2.4723,-2.4751,-2.4752,-2.4836,-2.4807,-2.4786,-2.4742,-2.4876,-2.4917,-2.4972,-2.4878,-2.4812,-2.4865,-2.4847,-2.4784,-2.4724,-2.4718,-2.4746,-2.4713,-2.4721,-2.464,-2.4682,-2.4556,-2.4495,-2.4385,-2.4273,-2.4302,-2.4303,-2.4266,-2.4105,-2.4023,-2.3834,-2.3692,-2.3688,-2.3845,-2.405,-2.4134,-2.4167,-2.4184,-2.4288,-2.4377,-2.4369,-2.4468,-2.4466,-2.4485,-2.4503,-2.4493,-2.4579,-2.4542,-2.4659,-2.4729,-2.4614,-2.4708,-2.489,-2.5005,-2.498,-2.4361,-2.2652,-2.0754,-1.9001,-1.7621,-1.8768,-2.2106,-2.6347,-2.9425,-2.9058,-2.7715,-2.7135,-2.6519,-2.6037,-2.5468,-2.5323,-2.5051,-2.4921,-2.4812,-2.4859,-2.4802,-2.4798,-2.4847,-2.4813,-2.4875,-2.4853,-2.4818,-2.4862,-2.4838,-2.4852,-2.4848,-2.4771,-2.4728,-2.4713,-2.4786,-2.4693,-2.4675,-2.4757,-2.466,-2.4616,-2.4677,-2.4585,-2.4544,-2.4518,-2.4529,-2.4488,-2.4581,-2.4555,-2.4495,-2.4533,-2.4389,-2.4217,-2.4155,-2.4164,-2.4156,-2.411,-2.399,-2.3836,-2.3742,-2.3569,-2.3385,-2.328,-2.3103,-2.2731,-2.2671,-2.2493,-2.2363,-2.2161,-2.2016,-2.1956,-2.1741,-2.1591,-2.1499,-2.1382,-2.1484,-2.1424,-2.1291,-2.1367,-2.1617,-2.1902,-2.2054,-2.2477,-2.2769,-2.3026,-2.3428,-2.3748,-2.4112,-2.4223,-2.4401,-2.4523,-2.4698,-2.4826,-2.4872,-2.4861,-2.4949,-2.5039,-2.5076,-2.5035,-2.4987,-2.5036,-2.5013,-2.5064,-2.4974,-2.4953,-2.483,-2.491,-2.492,-2.4772,-2.4826,-2.4752,-2.4756,-2.4837,-2.4798,-2.4782,-2.4754,-2.4773,-2.4747,-2.4764,-2.4747,-2.4799,-2.4757,-2.4807,-2.4888,-2.4897,-2.5019,-2.5058,-2.5038,-2.4956,-2.4926,-2.499,-2.5022,-2.5014,-2.5074,-2.5073,-2.5038,-2.5061,-2.5065,-2.5165,-2.5118,-2.5132,-2.5192,-2.5212,-2.5169,-2.5102,-2.5098,-2.519,-2.5194,-2.517,-2.5147,-2.5098,-2.5075,-2.4948,-2.486,-2.5001,-2.4949,-2.4697,-2.4747,-2.4465,-2.4456,-2.4553,-2.4743,-2.4794,-2.4911,-2.4998,-2.5065,-2.5253,-2.5317,-2.5429,-2.5406,-2.5481,-2.5485,-2.5454,-2.5565,-2.5618,-2.5584,-2.5508,-2.5531,-2.5507,-2.5514,-2.5557,-2.5656,-2.5666,-2.5488,-2.4256,-2.2388,-2.0557,-1.8543,-1.826,-1.9319,-2.3074,-2.7199,-2.9764,-2.887,-2.7921,-2.7487,-2.6773,-2.6402,-2.587,-2.5909,-2.5527,-2.5512,-2.5315,-2.5306,-2.5238,-2.5368,-2.5161,-2.5384,-2.5267,-2.5316,-2.5195,-2.5253,-2.5142,-2.5266,-2.5178,-2.5178,-2.5105,-2.5144,-2.5007,-2.4983,-2.4935,-2.4953,-2.4931,-2.4793,-2.4737,-2.4747,-2.4622,-2.4547,-2.4537,-2.445,-2.4422,-2.436,-2.4301,-2.4111,-2.4113,-2.3996,-2.3797,-2.3572,-2.3383,-2.3336,-2.3179,-2.2935,-2.2729,-2.2461,-2.2318,-2.2123,-2.1823,-2.1601,-2.1468,-2.1473,-2.1399,-2.1166,-2.1087,-2.0945,-2.0888,-2.0842,-2.0834,-2.0847,-2.1079,-2.1098,-2.1554,-2.1889,-2.217,-2.2545,-2.3078,-2.3408,-2.3931,-2.4271,-2.4568,-2.4737,-2.5003,-2.5253,-2.5426,-2.5669,-2.5804,-2.5895,-2.5886,-2.5904,-2.596,-2.6017,-2.6174,-2.6101,-2.6071,-2.6188,-2.6079,-2.6057,-2.6041,-2.5948,-2.5912,-2.5869,-2.5866,-2.5802,-2.5826,-2.5725,-2.5668,-2.5712,-2.5653,-2.5592,-2.5635,-2.5616,-2.5609,-2.5594,-2.5633,-2.5639,-2.5681,-2.5653,-2.5707,-2.5866,-2.5833,-2.5835,-2.5761,-2.586,-2.593,-2.5876,-2.5886,-2.5921,-2.6053,-2.5887,-2.5875,-2.5918,-2.5933,-2.5962,-2.5854,-2.5782,-2.5813,-2.5735,-2.5595,-2.549,-2.5416,-2.5385,-2.5368,-2.54,-2.5338,-2.4947,-2.4712,-2.4678,-2.4955,-2.513,-2.5282,-2.5329,-2.5483,-2.558,-2.56,-2.5829,-2.5825,-2.5873,-2.5861,-2.5986,-2.5915,-2.5894,-2.5932,-2.6028,-2.598,-2.598,-2.5968,-2.5932,-2.5971,-2.6023,-2.6122,-2.6137,-2.5915,-2.4536,-2.2592,-2.0544,-1.8104,-1.785,-2.0737,-2.5453,-2.7952,-3.068,-2.9806,-2.8565,-2.8023,-2.7057,-2.6722,-2.6114,-2.609,-2.5733,-2.6,-2.5733,-2.5893,-2.5752,-2.5905,-2.572,-2.5807,-2.5611,-2.5683,-2.5658,-2.5724,-2.5613,-2.5588,-2.5491,-2.5517,-2.5488,-2.5444,-2.5403,-2.5289,-2.525,-2.5212,-2.514,-2.5106,-2.5021,-2.5036,-2.4888,-2.4908,-2.4748,-2.4679,-2.464,-2.4625,-2.451,-2.4346,-2.4176,-2.4032,-2.3939,-2.3754,-2.3554,-2.3339,-2.3164,-2.303,-2.2706,-2.2543,-2.2211,-2.2002,-2.1885,-2.16,-2.1481,-2.1309,-2.1159,-2.1099,-2.1046,-2.0975,-2.0844,-2.0829,-2.0894,-2.0892,-2.1053,-2.1287,-2.1583,-2.1856,-2.2385,-2.2791,-2.3226,-2.3577,-2.3987,-2.4383,-2.4752,-2.4895,-2.5157,-2.5281,-2.5378,-2.5477,-2.5601,-2.5728,-2.5873,-2.5838,-2.5928,-2.5918,-2.5995,-2.5995,-2.6038,-2.6057,-2.6097,-2.5919,-2.5985,-2.5871,-2.5917,-2.5879,-2.5813,-2.5793,-2.5781,-2.5748,-2.5735,-2.5732,-2.5671,-2.57,-2.5734,-2.5658,-2.5548,-2.5654,-2.5662,-2.5599,-2.5563,-2.5567,-2.5583,-2.5539,-2.5622,-2.5717,-2.5646,-2.5604,-2.569,-2.5677,-2.5802,-2.5762,-2.5769,-2.5725,-2.5812,-2.5889,-2.5847,-2.5845,-2.5804,-2.5808,-2.5791,-2.5738,-2.5806,-2.5767,-2.5806,-2.5811,-2.587,-2.582,-2.5845,-2.5788,-2.5737,-2.5782,-2.5792,-2.5761,-2.5766,-2.5793,-2.5741,-2.575,-2.5786,-2.5717,-2.5602,-2.5625,-2.5357,-2.5294,-2.5435,-2.5473,-2.5197,-2.5087,-2.4791,-2.4635,-2.4745,-2.505,-2.5204,-2.5314,-2.5399,-2.5512,-2.556,-2.5596,-2.5702,-2.5786,-2.5855,-2.5978,-2.5845,-2.5871,-2.5854,-2.588,-2.5887,-2.5845,-2.5789,-2.5826,-2.5965,-2.5842,-2.5971,-2.6029,-2.5887,-2.4982,-2.3231,-2.1015,-1.8571,-1.7617,-1.9641,-2.4217,-2.93,-3.1073,-2.9445,-2.8205,-2.794,-2.7051,-2.6207,-2.5914,-2.5705,-2.564,-2.552,-2.5589,-2.5561,-2.5507,-2.55,-2.5475,-2.5392,-2.5333,-2.539,-2.5326,-2.5234,-2.5217,-2.5157,-2.5203,-2.523,-2.5225,-2.5138,-2.5093,-2.5059,-2.4977,-2.492,-2.4921,-2.4791,-2.4726,-2.4706,-2.4681,-2.4593,-2.4528,-2.4411,-2.4316,-2.426,-2.4079,-2.4,-2.3825,-2.3757,-2.364,-2.3525,-2.3379,-2.3095,-2.2938,-2.2793,-2.2572,-2.2226,-2.2008,-2.1795,-2.1561,-2.1393,-2.1146,-2.0956,-2.0914,-2.0776,-2.0686,-2.0494,-2.0397,-2.0395,-2.0341,-2.0288,-2.0417,-2.0649,-2.0826,-2.11,-2.1534,-2.2007,-2.2383,-2.2838,-2.3282,-2.3673,-2.4033,-2.4257,-2.4576,-2.4838,-2.4966,-2.516,-2.5343,-2.5381,-2.5518,-2.555,-2.5629,-2.549,-2.5584,-2.5646,-2.5688,-2.5688,-2.5574,-2.5643,-2.5585,-2.5706,-2.5727,-2.5582,-2.557,-2.5564,-2.5609,-2.5556,-2.5506,-2.5495,-2.5483,-2.542,-2.5436,-2.5396,-2.5302,-2.5346,-2.5317,-2.5277,-2.5219,-2.5223,-2.5228,-2.5213,-2.5257,-2.5246,-2.5226,-2.5366,-2.5301,-2.5371,-2.5382,-2.542,-2.5362,-2.545,-2.5447,-2.547,-2.5457,-2.5444,-2.5442,-2.55,-2.5494,-2.5568,-2.5504,-2.548,-2.5549,-2.5495,-2.5485,-2.5413,-2.5477,-2.5515,-2.5509,-2.5531,-2.5456,-2.5445,-2.5529,-2.5438,-2.5474,-2.5471,-2.5422,-2.5442,-2.5482,-2.5474,-2.5411,-2.5453,-2.5519,-2.5549,-2.5478,-2.5481,-2.5454,-2.5555,-2.5538,-2.5563,-2.5545,-2.557,-2.5515,-2.5509,-2.5472,-2.5536,-2.5494,-2.5619,-2.5581,-2.552,-2.5515,-2.5543,-2.5522,-2.5567,-2.5516,-2.5476,-2.5467,-2.545,-2.5521,-2.5526,-2.56,-2.5519,-2.5572,-2.5522,-2.557,-2.5517,-2.5461,-2.5482,-2.547,-2.5532,-2.5511,-2.5465,-2.5511,-2.5561,-2.5548,-2.5423,-2.5287,-2.51,-2.5189,-2.524,-2.5374,-2.5195,-2.5024,-2.4888,-2.4714,-2.4574,-2.4601,-2.4894,-2.5,-2.5098,-2.5168,-2.5165,-2.5236,-2.5345,-2.5489,-2.5535,-2.5488,-2.5463,-2.5501,-2.549,-2.5601,-2.5423,-2.5391,-2.5479,-2.5488,-2.5491,-2.551,-2.563,-2.5619,-2.4682,-2.2892,-2.0711,-1.859,-1.7536,-1.8876,-2.2658,-2.733,-3.0143,-2.9634,-2.8328,-2.7581,-2.6793,-2.599,-2.5611,-2.5445,-2.5321,-2.525,-2.5209,-2.5231,-2.5197,-2.5203,-2.5228,-2.5114,-2.5064,-2.5005,-2.4993,-2.503,-2.4935,-2.497,-2.4922,-2.4895,-2.4937,-2.4803,-2.4652,-2.4663,-2.4562,-2.4595,-2.4585,-2.4499,-2.4432,-2.4422,-2.4404,-2.4274,-2.4182,-2.4116,-2.3953,-2.3873,-2.3734,-2.3671,-2.3603,-2.3477,-2.3349,-2.3155,-2.3039,-2.2844,-2.271,-2.2535,-2.2353,-2.2233,-2.1904,-2.1761,-2.1534,-2.1299,-2.1076,-2.0917,-2.0849,-2.0723,-2.0566,-2.0447,-2.0447,-2.0356,-2.0408,-2.0338,-2.0298,-2.0318,-2.0442,-2.0498,-2.0831,-2.1028,-2.1316,-2.1779,-2.2227,-2.2606,-2.2918,-2.3327,-2.3657,-2.3929,-2.4236,-2.4323,-2.4627,-2.4655,-2.4772,-2.5022,-2.5103,-2.5017,-2.4931,-2.5087,-2.5097,-2.5127,-2.5094,-2.5104,-2.5105,-2.5124,-2.5127,-2.5078,-2.5045,-2.4998,-2.4931,-2.4988,-2.5095,-2.5047,-2.4993,-2.4977,-2.4965,-2.4896,-2.4858,-2.485,-2.4879,-2.4868,-2.4922,-2.4843,-2.4917,-2.4979,-2.5004,-2.4965,-2.484,-2.5076,-2.5088,-2.505,-2.507,-2.5029,-2.5032,-2.5132,-2.5222,-2.5194,-2.5232,-2.5221,-2.5278,-2.5228,-2.5243,-2.53,-2.5274,-2.5302,-2.536,-2.5325,-2.5316,-2.5402,-2.5352,-2.5337,-2.5353,-2.5395,-2.5311,-2.5451,-2.5435,-2.5437,-2.5455,-2.531,-2.5484,-2.5448,-2.5546,-2.5431,-2.544,-2.5422,-2.5507,-2.55,-2.5451,-2.5476,-2.5461,-2.5535,-2.5542,-2.5571,-2.5461,-2.5584,-2.5567,-2.5712,-2.5632,-2.5691,-2.555,-2.558,-2.5494,-2.5403,-2.5388,-2.5468,-2.5532,-2.5322,-2.5133,-2.5147,-2.5064,-2.4888,-2.4986,-2.5253,-2.5327,-2.5337,-2.5483,-2.5659,-2.5754,-2.579,-2.5831,-2.5946,-2.6014,-2.5914,-2.5917,-2.5949,-2.5983,-2.5979,-2.5921,-2.58,-2.5835,-2.584,-2.593,-2.5993,-2.597,-2.5328,-2.3567,-2.1702,-1.9967,-1.8452,-1.9692,-2.3311,-2.7483,-2.9976,-2.8754,-2.8,-2.7623,-2.7118,-2.6755,-2.6193,-2.6178,-2.5935,-2.5796,-2.5665,-2.5669,-2.564,-2.563,-2.556,-2.5582,-2.5636,-2.5608,-2.551,-2.561,-2.5504,-2.5472,-2.542,-2.5461,-2.5355,-2.5335,-2.531,-2.5324,-2.521,-2.5164,-2.5094,-2.4959,-2.4987,-2.4845,-2.4792,-2.4678,-2.465,-2.4589,-2.4489,-2.4447,-2.4343,-2.4299,-2.4136,-2.3962,-2.3808,-2.3681,-2.3682,-2.3622,-2.3309,-2.3162,-2.2932,-2.2808,-2.2628,-2.2377,-2.2258,-2.1974,-2.1878,-2.1774,-2.156,-2.1375,-2.1348,-2.1272,-2.1169,-2.1158,-2.1062,-2.1037,-2.1123,-2.1109,-2.1198,-2.1496,-2.1781,-2.2166,-2.2597,-2.2843,-2.331,-2.3767,-2.4085,-2.4379,-2.4685,-2.4975,-2.5209,-2.5479,-2.5644,-2.5784,-2.5818,-2.5879,-2.5857,-2.6028,-2.6029,-2.6096,-2.6107,-2.6108,-2.6096,-2.6117,-2.6043,-2.5925,-2.5947,-2.5905,-2.5949,-2.5894,-2.5804,-2.5753,-2.5828,-2.5783,-2.584,-2.5726,-2.5756,-2.5746,-2.5787,-2.5781,-2.5739,-2.5787,-2.5872,-2.5841,-2.5834,-2.5876,-2.5943,-2.6,-2.602,-2.6001,-2.6065,-2.6018,-2.6127,-2.6128,-2.6167,-2.627,-2.6239,-2.6156,-2.6254,-2.6231,-2.631,-2.6298,-2.636,-2.6365,-2.6378,-2.6337,-2.6364,-2.6347,-2.6206,-2.6063,-2.607,-2.5953,-2.604,-2.6018,-2.5821,-2.5434,-2.5343,-2.5262,-2.5388,-2.574,-2.5854,-2.5947,-2.6063,-2.6209,-2.6262,-2.6349,-2.6433,-2.6529,-2.651,-2.6668,-2.663,-2.6548,-2.6564,-2.661,-2.6649,-2.657,-2.6559,-2.6558,-2.6586,-2.6717,-2.6652,-2.6804,-2.6613,-2.5758,-2.4014,-2.2021,-1.9771,-1.8583,-2.0489,-2.4815,-2.9337,-3.0883,-2.9691,-2.9008,-2.8248,-2.761,-2.7287,-2.6903,-2.6706,-2.6535,-2.6504,-2.639,-2.6308,-2.6339,-2.6359,-2.6308,-2.6241,-2.6305,-2.6229,-2.6243,-2.6207,-2.6121,-2.6048,-2.6033,-2.6049,-2.6091,-2.5951,-2.5898,-2.582,-2.5809,-2.5728,-2.5665,-2.5635,-2.5563,-2.5551,-2.54,-2.5306,-2.5236,-2.5157,-2.5157,-2.5015,-2.4882,-2.4721,-2.4535,-2.4548,-2.4325,-2.4184,-2.4078,-2.3823,-2.3492,-2.3204,-2.3023,-2.2712,-2.2492,-2.2272,-2.2119,-2.1894,-2.1615,-2.1498,-2.1368,-2.1198,-2.1179,-2.1098,-2.0999,-2.0951,-2.0997,-2.1046,-2.1205,-2.1289,-2.1701,-2.2017,-2.2421,-2.2937,-2.3321,-2.3796,-2.4206,-2.4598,-2.4821,-2.5129,-2.5403,-2.5656,-2.5824,-2.5931,-2.5983,-2.6093,-2.6159,-2.624,-2.628,-2.6291,-2.6274,-2.6409,-2.6488,-2.6498,-2.6437,-2.64,-2.6374,-2.6312,-2.6316,-2.6284,-2.6185,-2.6144,-2.6145,-2.6155,-2.6038,-2.5953,-2.5964,-2.5945,-2.6011,-2.594,-2.5875,-2.5883,-2.58,-2.5907,-2.5864,-2.5899,-2.5863,-2.5845,-2.5896,-2.5881,-2.5885,-2.5887,-2.5926,-2.6001,-2.5973,-2.5944,-2.5965,-2.6009,-2.6076,-2.6122,-2.6023,-2.6052,-2.608,-2.604,-2.6055,-2.6045,-2.6075,-2.6121,-2.6133,-2.613,-2.6107,-2.6085,-2.6102,-2.6125,-2.6018,-2.6046,-2.6067,-2.6015,-2.6101,-2.6156,-2.604,-2.6044,-2.6133,-2.6034,-2.5845,-2.5698,-2.5648,-2.5634,-2.5694,-2.5672,-2.5473,-2.503,-2.494,-2.4968,-2.5261,-2.5369,-2.5426,-2.5507,-2.5669,-2.5905,-2.5916,-2.5988,-2.6025,-2.6135,-2.6194,-2.6171,-2.6218,-2.6178,-2.6192,-2.6114,-2.6148,-2.6195,-2.6106,-2.6089,-2.6135,-2.615,-2.6215,-2.6283,-2.6115,-2.4975,-2.3036,-2.0769,-1.83,-1.7709,-2.0037,-2.4753,-2.9741,-3.0579,-2.9323,-2.8324,-2.7535,-2.6779,-2.6329,-2.6172,-2.5909,-2.5958,-2.5876,-2.5789,-2.5713,-2.5749,-2.5744,-2.5841,-2.5727,-2.5655,-2.562,-2.5656,-2.5609,-2.5606,-2.5527,-2.5549,-2.5398,-2.5394,-2.5327,-2.5295,-2.5222,-2.5249,-2.5188,-2.5091,-2.5011,-2.496,-2.4903,-2.4932,-2.4797,-2.4688,-2.4667,-2.4562,-2.4525,-2.4386,-2.4169,-2.4112,-2.4036,-2.3898,-2.3598,-2.3423,-2.3196,-2.3051,-2.2961,-2.2738,-2.2479,-2.2284,-2.2069,-2.1882,-2.1639,-2.1482,-2.1342,-2.1139,-2.1123,-2.095,-2.0827,-2.0709,-2.0718,-2.0751,-2.0747,-2.0848,-2.1058,-2.1364,-2.1594,-2.1971,-2.2405,-2.2753,-2.3241,-2.3709,-2.4142,-2.447,-2.475,-2.4926,-2.5215,-2.5402,-2.5517,-2.5597,-2.5729,-2.5815,-2.5893,-2.5872,-2.5846,-2.5859,-2.5956,-2.5949,-2.593,-2.5929,-2.5907,-2.5875,-2.5875,-2.5867,-2.5885,-2.5862,-2.5881,-2.5872,-2.588,-2.5774,-2.5792,-2.5752,-2.5759,-2.5755,-2.5631,-2.5588,-2.5659,-2.5617,-2.5616,-2.56,-2.5509,-2.5578,-2.5627,-2.565,-2.5616,-2.5532,-2.5622,-2.5677,-2.5617,-2.5627,-2.5672,-2.5671,-2.5669,-2.566,-2.5667,-2.5661,-2.565,-2.5624,-2.5706,-2.5728,-2.5658,-2.5666,-2.5707,-2.5737,-2.5691,-2.5634,-2.5642,-2.5718,-2.5724,-2.5706,-2.5647,-2.5629,-2.5717,-2.5684,-2.5657,-2.5652,-2.5571,-2.5725,-2.5731,-2.5715,-2.5626,-2.5608,-2.5632,-2.5673,-2.5708,-2.5655,-2.5631,-2.5609,-2.5645,-2.557,-2.565,-2.5599,-2.5684,-2.5653,-2.5687,-2.5633,-2.5634,-2.5648,-2.5648,-2.5614,-2.5566,-2.563,-2.5619,-2.5658,-2.5632,-2.5622,-2.5557,-2.5564,-2.5534,-2.5598,-2.5587,-2.5572,-2.5575,-2.5611,-2.5662,-2.564,-2.5516,-2.5529,-2.5605,-2.5602,-2.5643,-2.5578,-2.5544,-2.5616,-2.5609,-2.5535,-2.5578,-2.5527,-2.5657,-2.5623,-2.5443,-2.524,-2.5119,-2.5189,-2.53,-2.5238,-2.4991,-2.4911,-2.4778,-2.4689,-2.4687,-2.4918,-2.4952,-2.5043,-2.5088,-2.5256,-2.5343,-2.5417,-2.5518,-2.5481,-2.5514,-2.5535,-2.5515,-2.5543,-2.5571,-2.5524,-2.5348,-2.5424,-2.5532,-2.5569,-2.562,-2.5696,-2.5438,-2.4011,-2.2265,-2.0102,-1.7885,-1.7595,-1.9544,-2.4036,-2.8738,-2.9593,-2.8258,-2.7417,-2.6745,-2.6199,-2.5677,-2.5465,-2.5228,-2.518,-2.524,-2.519,-2.5099,-2.5057,-2.5018,-2.5001,-2.504,-2.4881,-2.4812,-2.4873,-2.4886,-2.4838,-2.4869,-2.4838,-2.4782,-2.4761,-2.4693,-2.4674,-2.4545,-2.4501,-2.4453,-2.4391,-2.4382,-2.4316,-2.4284,-2.4226,-2.4104,-2.3986,-2.3882,-2.3802,-2.3707,-2.3635,-2.364,-2.3398,-2.3329,-2.3168,-2.3122,-2.292,-2.2739,-2.2561,-2.238,-2.2298,-2.209,-2.182,-2.1628,-2.1445,-2.1315,-2.1242,-2.1038,-2.0806,-2.0732,-2.0636,-2.053,-2.0437,-2.0377,-2.0388,-2.0334,-2.0408,-2.0415,-2.0434,-2.0598,-2.0755,-2.1054,-2.1517,-2.1917,-2.2413,-2.2753,-2.3105,-2.344,-2.3723,-2.404,-2.4326,-2.4541,-2.4714,-2.4771,-2.4907,-2.5,-2.5062,-2.5005,-2.5182,-2.5208,-2.5258,-2.5257,-2.5261,-2.5286,-2.5271,-2.5355,-2.5307,-2.5249,-2.5118,-2.5143,-2.5163,-2.5165,-2.5081,-2.5108,-2.5088,-2.5026,-2.4959,-2.5041,-2.4961,-2.4931,-2.4942,-2.4933,-2.4963,-2.4977,-2.4923,-2.4889,-2.5005,-2.5031,-2.503,-2.5029,-2.5073,-2.5189,-2.5156,-2.5119,-2.5173,-2.5074,-2.5116,-2.519,-2.5266,-2.5312,-2.5291,-2.5291,-2.5272,-2.5306,-2.5288,-2.5235,-2.522,-2.5302,-2.5364,-2.5345,-2.5236,-2.5263,-2.5323,-2.5383,-2.5342,-2.5376,-2.5379,-2.5307,-2.5385,-2.5289,-2.5327,-2.5322,-2.5368,-2.5403,-2.5399,-2.537,-2.5314,-2.5312,-2.5366,-2.5507,-2.5409,-2.5463,-2.5373,-2.5308,-2.5411,-2.5431,-2.5395,-2.5425,-2.5519,-2.5541,-2.5444,-2.5534,-2.5529,-2.5476,-2.5513,-2.5399,-2.5464,-2.5554,-2.5522,-2.5551,-2.554,-2.5486,-2.5437,-2.5519,-2.5609,-2.5611,-2.5537,-2.5414,-2.5276,-2.5296,-2.5287,-2.5293,-2.5239,-2.5066,-2.5019,-2.4932,-2.4809,-2.4847,-2.5073,-2.5088,-2.5161,-2.519,-2.523,-2.552,-2.5647,-2.5542,-2.5628,-2.5559,-2.5561,-2.564,-2.5689,-2.5576,-2.5457,-2.5454,-2.5484,-2.5545,-2.5537,-2.5599,-2.5606,-2.5314,-2.3867,-2.2129,-2.1264,-1.9417,-1.8315,-1.9679,-2.305,-2.7204,-2.9257,-2.8234,-2.7393,-2.703,-2.6537,-2.6135,-2.5658,-2.5592,-2.5305,-2.5336,-2.5211,-2.5246,-2.5268,-2.5185,-2.5128,-2.5124,-2.5146,-2.512,-2.5072,-2.5076,-2.4943,-2.5068,-2.4961,-2.4918,-2.4796,-2.4814,-2.4828,-2.4793,-2.4739,-2.4665,-2.458,-2.4575,-2.4603,-2.4477,-2.4366,-2.4389,-2.4432,-2.4379,-2.4255,-2.4207,-2.4088
