-5.8012,-5.8034,-5.8438,-5.8428,-5.8271,-5.8433,-5.8443,-5.8622,-5.8528,-5.8408,-5.8486,-5.8452,-5.8355,-5.855,-5.85,-5.8056,-5.7187,-5.5312,-5.3106,-5.1357,-4.9744,-4.8448,-4.9516,-5.5159,-6.127,-6.5739,-6.419,-6.2597,-6.1451,-5.9978,-5.8745,-5.7694,-5.7825,-5.7539,-5.7694,-5.734,-5.7441,-5.7274,-5.7386,-5.7307,-5.7246,-5.6841,-5.7238,-5.6994,-5.6988,-5.6799,-5.7093,-5.6923,-5.6883,-5.6529,-5.6603,-5.6383,-5.6532,-5.6396,-5.6412,-5.6136,-5.5893,-5.5779,-5.5865,-5.5724,-5.5621,-5.5395,-5.542,-5.5289,-5.5016,-5.4752,-5.4583,-5.4569,-5.4425,-5.4321,-5.3983,-5.3744,-5.3613,-5.3321,-5.3303,-5.3151,-5.2858,-5.2899,-5.2693,-5.2695,-5.2447,-5.2519,-5.2366,-5.2509,-5.2439,-5.2471,-5.2621,-5.2778,-5.2906,-5.3484,-5.3857,-5.4136,-5.4471,-5.5025,-5.5466,-5.5752,-5.6043,-5.6539,-5.6683,-5.7016,-5.7253,-5.7313,-5.7375,-5.7736,-5.794,-5.783,-5.7859,-5.7728,-5.7825,-5.7852,-5.7834,-5.7745,-5.7557,-5.7775,-5.7817,-5.7804,-5.7814,-5.7561,-5.7547,-5.7621,-5.7692,-5.7498,-5.7342,-5.7353,-5.7564,-5.7532,-5.7421,-5.7384,-5.7338,-5.7571,-5.738,-5.7644,-5.7603,-5.7558,-5.747,-5.7655,-5.7503,-5.7642,-5.7834,-5.7794,-5.794,-5.7735,-5.7748,-5.7736,-5.7904,-5.8134,-5.7968,-5.7999,-5.7931,-5.7853,-5.7995,-5.8053,-5.7958,-5.8032,-5.8117,-5.8063,-5.7973,-5.8097,-5.8001,-5.8075,-5.8093,-5.7873,-5.7919,-5.7778,-5.7631,-5.7807,-5.79,-5.7521,-5.7371,-5.7297,-5.7004,-5.7065,-5.72,-5.7398,-5.7466,-5.7484,-5.7855,-5.7705,-5.7842,-5.7991,-5.813,-5.8345,-5.8181,-5.8075,-5.8346,-5.8444,-5.8266,-5.8541,-5.8304,-5.8482,-5.8391,-5.8273,-5.8386,-5.8464,-5.7786,-5.6332,-5.419,-5.2664,-5.1019,-4.9602,-4.8977,-5.2517,-5.7213,-6.355,-6.4633,-6.2222,-6.1275,-5.9954,-5.958,-5.8427,-5.7706,-5.7529,-5.7674,-5.7447,-5.7314,-5.7549,-5.7353,-5.7235,-5.7378,-5.7124,-5.733,-5.7063,-5.7105,-5.7012,-5.7049,-5.6622,-5.6977,-5.6831,-5.6886,-5.6639,-5.6567,-5.633,-5.647,-5.6127,-5.6272,-5.6,-5.5885,-5.5823,-5.5732,-5.5679,-5.5599,-5.5255,-5.5149,-5.4828,-5.504,-5.4655,-5.4434,-5.4271,-5.3977,-5.3759,-5.3666,-5.3369,-5.3155,-5.3071,-5.2794,-5.2612,-5.2593,-5.2353,-5.2363,-5.2221,-5.2265,-5.2347,-5.2339,-5.2556,-5.2535,-5.3039,-5.3363,-5.4081,-5.4423,-5.4829,-5.4925,-5.5421,-5.6037,-5.6382,-5.6782,-5.7026,-5.7154,-5.7374,-5.7601,-5.7737,-5.7613,-5.786,-5.7991,-5.8179,-5.8034,-5.7974,-5.7937,-5.7919,-5.789,-5.8105,-5.8055,-5.7907,-5.8019,-5.783,-5.8008,-5.789,-5.7557,-5.7791,-5.7617,-5.7705,-5.7256,-5.7461,-5.7675,-5.7669,-5.7717,-5.7554,-5.7456,-5.7456,-5.7637,-5.7539,-5.7569,-5.7663,-5.7612,-5.77,-5.7683,-5.7809,-5.7683,-5.7792,-5.7884,-5.7921,-5.7776,-5.7974,-5.7722,-5.7917,-5.7909,-5.7959,-5.8036,-5.7855,-5.8018,-5.7859,-5.7613,-5.7695,-5.752,-5.7378,-5.7615,-5.7201,-5.7308,-5.6901,-5.685,-5.6983,-5.7102,-5.7339,-5.7329,-5.7485,-5.7554,-5.7575,-5.7882,-5.7649,-5.7771,-5.8097,-5.8266,-5.8216,-5.8054,-5.8021,-5.7914,-5.798,-5.8194,-5.8057,-5.7922,-5.8051,-5.827,-5.8052,-5.7718,-5.6302,-5.4721,-5.2714,-5.1105,-4.968,-4.8344,-4.8866,-5.2853,-5.8027,-6.3378,-6.2954,-6.1293,-6.0698,-5.9418,-5.8133,-5.7187,-5.7227,-5.7203,-5.742,-5.6643,-5.7128,-5.6926,-5.6998,-5.6897,-5.6794,-5.6665,-5.6744,-5.6617,-5.6757,-5.6551,-5.642,-5.6473,-5.6284,-5.6163,-5.6662,-5.6058,-5.6125,-5.5905,-5.5863,-5.5873,-5.5834,-5.5533,-5.5456,-5.532,-5.5398,-5.5555,-5.5168,-5.4598,-5.465,-5.4903,-5.4453,-5.4254,-5.4004,-5.3355,-5.3378,-5.3116,-5.3351,-5.3106,-5.2624,-5.2771,-5.2381,-5.2373,-5.1949,-5.2081,-5.226,-5.1885,-5.1887,-5.2301,-5.208,-5.2521,-5.2365,-5.3098,-5.3468,-5.4021,-5.4154,-5.4987,-5.5157,-5.5855,-5.5949,-5.6133,-5.6516,-5.6492,-5.6696,-5.6774,-5.7144,-5.7313,-5.7409,-5.6855,-5.6764,-5.7197,-5.7708,-5.7183,-5.7111,-5.7051,-5.7143,-5.7177,-5.7184,-5.7138,-5.6419,-5.6995,-5.6968,-5.6948,-5.6829,-5.6326,-5.685,-5.6614,-5.6974,-5.7071,-5.6675,-5.68,-5.6803,-5.6585,-5.6766,-5.6444,-5.6797,-5.6851,-5.6871,-5.7036,-5.6836,-5.6648,-5.6822,-5.6857,-5.6633,-5.6774,-5.699,-5.7118,-5.7004,-5.7116,-5.7045,-5.6892,-5.7104,-5.6691,-5.6926,-5.6964,-5.6977,-5.6719,-5.6479,-5.6688,-5.6406,-5.6835,-5.627,-5.6081,-5.6385,-5.6252,-5.5987,-5.6144,-5.6182,-5.6412,-5.6385,-5.6679,-5.6771,-5.7128,-5.676,-5.7003,-5.7073,-5.7319,-5.7079,-5.7385,-5.7128,-5.7309,-5.7299,-5.7568,-5.7576,-5.709,-5.7225,-5.7269,-5.7048,-5.7265,-5.653,-5.4476,-5.2565,-5.1388,-5.032,-4.8728,-4.8632,-5.1573,-5.7056,-6.2101,-6.1607,-6.0241,-5.9857,-5.8307,-5.7279,-5.649,-5.6447,-5.6499,-5.6225,-5.6108,-5.6839,-5.6108,-5.6298,-5.6056,-5.6365,-5.6155,-5.6548,-5.6362,-5.6305,-5.6125,-5.6329,-5.6037,-5.6263,-5.6125,-5.6442,-5.5864,-5.5858,-5.5875,-5.5953,-5.5657,-5.5624,-5.5633,-5.5428,-5.5291,-5.5582,-5.5437,-5.5294,-5.5008,-5.4817,-5.4685,-5.4723,-5.4506,-5.4297,-5.424,-5.406,-5.3726,-5.36,-5.3404,-5.3368,-5.318,-5.3205,-5.3077,-5.3004,-5.2966,-5.2827,-5.2941,-5.3104,-5.3044,-5.3108,-5.334,-5.3858,-5.4184,-5.4524,-5.4819,-5.5219,-5.5557,-5.6123,-5.6407,-5.6564,-5.671,-5.6992,-5.707,-5.7339,-5.7596,-5.7416,-5.7862,-5.7739,-5.7772,-5.7523,-5.7639,-5.7991,-5.786,-5.7695,-5.7679,-5.7712,-5.7725,-5.7709,-5.77,-5.7495,-5.7763,-5.736,-5.7813,-5.7626,-5.7619,-5.7586,-5.7614,-5.7645,-5.7787,-5.7527,-5.7431,-5.7259,-5.7764,-5.7644,-5.775,-5.7599,-5.7738,-5.7714,-5.793,-5.7747,-5.7833,-5.7692,-5.7802,-5.8119,-5.8018,-5.786,-5.7905,-5.7956,-5.8281,-5.8203,-5.8153,-5.7963,-5.8268,-5.8222,-5.8264,-5.8045,-5.8502,-5.8372,-5.8425,-5.8396,-5.8323,-5.8519,-5.8311,-5.8433,-5.831,-5.8454,-5.8567,-5.8511,-5.8704,-5.8568,-5.8562,-5.8296,-5.8517,-5.8646,-5.8714,-5.8647,-5.8686,-5.87,-5.8777,-5.8629,-5.868,-5.8658,-5.872,-5.8685,-5.8731,-5.8812,-5.8789,-5.874,-5.8646,-5.8881,-5.8666,-5.8811,-5.8854,-5.8705,-5.8832,-5.8858,-5.8607,-5.8743,-5.8776,-5.8816,-5.8925,-5.8866,-5.8875,-5.8926,-5.8897,-5.8816,-5.8907,-5.8904,-5.8843,-5.897,-5.8898,-5.8933,-5.8813,-5.896,-5.8981,-5.9001,-5.8943,-5.8914,-5.901,-5.9027,-5.8994,-5.9087,-5.8861,-5.8989,-5.8907,-5.9078,-5.9028,-5.8918,-5.8977,-5.9121,-5.8854,-5.9081,-5.8937,-5.8981,-5.9004,-5.9021,-5.8969,-5.8769,-5.8836,-5.8908,-5.8703,-5.8527,-5.8705,-5.8749,-5.8626,-5.8671,-5.8504,-5.8585,-5.8608,-5.8739,-5.8721,-5.8944,-5.9167,-5.9239,-5.911,-5.9112,-5.9251,-5.9076,-5.9071,-5.9156,-5.9281,-5.9378,-5.9362,-5.9176,-5.9116,-5.8928,-5.8082,-5.6386,-5.4735,-5.3542,-5.2239,-5.0548,-5.0917,-5.4843,-5.942,-6.439,-6.3655,-6.2342,-6.1531,-5.9951,-5.8969,-5.8698,-5.8684,-5.8351,-5.8517,-5.8312,-5.8224,-5.8232,-5.8333,-5.8109,-5.8128,-5.808,-5.8127,-5.7837,-5.7844,-5.8028,-5.7999,-5.8096,-5.7865,-5.7889,-5.7926,-5.7773,-5.8007,-5.7901,-5.7841,-5.776,-5.7841,-5.7553,-5.7405,-5.7427,-5.7317,-5.7282,-5.7262,-5.7097,-5.6948,-5.6981,-5.6907,-5.692,-5.6591,-5.6402,-5.639,-5.6278,-5.6119,-5.594,-5.5748,-5.5474,-5.5442,-5.5288,-5.5318,-5.5195,-5.5154,-5.5035,-5.5083,-5.4993,-5.489,-5.4978,-5.4934,-5.5124,-5.5244,-5.5426,-5.5631,-5.577,-5.616,-5.6695,-5.7,-5.7156,-5.771,-5.7856,-5.8243,-5.8523,-5.8601,-5.8785,-5.9019,-5.9223,-5.9224,-5.9154,-5.9156,-5.9108,-5.9261,-5.9226,-5.9082,-5.9087,-5.9222,-5.9265,-5.9217,-5.9049,-5.8938,-5.9012,-5.9061,-5.9041,-5.8877,-5.899,-5.8904,-5.895,-5.9047,-5.8928,-5.8993,-5.8936,-5.9086,-5.9077,-5.9051,-5.8966,-5.899,-5.9108,-5.9234,-5.9148,-5.9048,-5.9129,-5.925,-5.9257,-5.9273,-5.9243,-5.9376,-5.9396,-5.9408,-5.9492,-5.957,-5.9525,-5.9627,-5.9658,-5.9504,-5.9492,-5.9482,-5.9562,-5.9687,-5.9681,-5.9682,-5.9626,-5.97,-5.967,-5.9636,-5.9729,-5.9697,-5.9737,-5.9717,-5.9758,-5.9763,-5.969,-5.9718,-5.9697,-5.9768,-5.976,-5.9763,-5.9703,-5.9746,-5.9832,-5.9853,-5.9754,-5.9628,-5.9756,-5.9831,-5.9886,-5.9712,-5.9687,-5.9758,-5.9789,-5.9817,-5.972,-5.9636,-5.9801,-5.9775,-5.9831,-5.9787,-5.9668,-5.9711,-5.9901,-5.9902,-5.9762,-5.958,-5.9669,-5.9709,-5.9662,-5.961,-5.9546,-5.9618,-5.966,-5.9626,-5.9546,-5.9533,-5.9571,-5.9661,-5.9578,-5.955,-5.946,-5.9439,-5.943,-5.9444,-5.9122,-5.9004,-5.893,-5.904,-5.9029,-5.9044,-5.887,-5.896,-5.9044,-5.9195,-5.9229,-5.9288,-5.9448,-5.9617,-5.9617,-5.9615,-5.962,-5.9475,-5.9503,-5.9483,-5.9578,-5.9421,-5.9463,-5.9462,-5.9473,-5.8991,-5.762,-5.577,-5.4263,-5.2879,-5.1329,-4.9885,-5.2154,-5.6739,-6.2273,-6.4884,-6.4516,-6.2795,-6.1666,-6.0779,-5.9421,-5.8875,-5.8603,-5.8433,-5.8337,-5.8476,-5.8479,-5.842,-5.8348,-5.8356,-5.8275,-5.8219,-5.8025,-5.7992,-5.8003,-5.8092,-5.8029,-5.7843,-5.7723,-5.7758,-5.7697,-5.7771,-5.7631,-5.754,-5.7316,-5.7336,-5.7243,-5.7152,-5.6975,-5.6976,-5.6862,-5.6742,-5.6512,-5.627,-5.6184,-5.6146,-5.6072,-5.584,-5.5598,-5.5419,-5.5314,-5.5109,-5.493,-5.4639,-5.4478,-5.4369,-5.4158,-5.4135,-5.3853,-5.3889,-5.3886,-5.3747,-5.3799,-5.3686,-5.3763,-5.3762,-5.3981,-5.4172,-5.4316,-5.4521,-5.4846,-5.5369,-5.577,-5.6137,-5.6513,-5.6958,-5.7311,-5.761,-5.7804,-5.7996,-5.8156,-5.8249,-5.8346,-5.8423,-5.8531,-5.8562,-5.8548,-5.8618,-5.8526,-5.84,-5.8537,-5.8578,-5.8546,-5.8477,-5.8346,-5.841,-5.8381,-5.8327,-5.8237,-5.8229,-5.8221,-5.8164,-5.8225,-5.8234,-5.8187,-5.8202,-5.8166,-5.818,-5.8127,-5.8188,-5.8208,-5.8187,-5.8202,-5.8281,-5.8341,-5.8228,-5.8259,-5.8389,-5.8451,-5.8394,-5.8336,-5.8323,-5.8444,-5.8399,-5.8496,-5.8541,-5.8532,-5.8455,-5.8466,-5.854,-5.8487,-5.8402,-5.8463,-5.8532,-5.8538,-5.8482,-5.8437,-5.8447,-5.8428,-5.8414,-5.8331,-5.8392,-5.8472,-5.8532,-5.845,-5.8329,-5.8307,-5.8317,-5.8409,-5.8495,-5.8376,-5.8261,-5.8269,-5.8385,-5.8328,-5.8256,-5.8286,-5.8245,-5.8384,-5.831,-5.8291,-5.8262,-5.8157,-5.8239,-5.8228,-5.8237,-5.8266,-5.8236,-5.8277,-5.8318,-5.812,-5.8198,-5.8272,-5.8228,-5.8288,-5.8159,-5.8236,-5.7984,-5.8132,-5.8233,-5.8236,-5.8089,-5.8135,-5.8216,-5.8163,-5.8173,-5.812,-5.8147,-5.8179,-5.8217,-5.7981,-5.7955,-5.7855,-5.758,-5.7615,-5.7701,-5.7552,-5.7507,-5.7395,-5.7499,-5.7688,-5.7692,-5.7662,-5.7832,-5.8193,-5.8243,-5.8185,-5.8167,-5.8158,-5.8284,-5.8251,-5.8221,-5.8112,-5.8248,-5.8294,-5.8353,-5.8281,-5.8066,-5.7421,-5.567,-5.3782,-5.2238,-5.0238,-4.8342,-4.7834,-5.2407,-5.5312,-6.0669,-6.4662,-6.2917,-6.1494,-6.0243,-5.8661,-5.776,-5.7761,-5.7504,-5.755,-5.7407,-5.7333,-5.7095,-5.7232,-5.7126,-5.7213,-5.7065,-5.712,-5.7,-5.7112,-5.6851,-5.6918,-5.6779,-5.683,-5.6735,-5.6776,-5.6564,-5.6537,-5.6393,-5.6503,-5.6324,-5.6185,-5.6035,-5.6066,-5.5892,-5.5828,-5.5547,-5.5472,-5.5385,-5.5345,-5.5137,-5.4986,-5.4748,-5.4595,-5.4505,-5.4398,-5.4161,-5.3949,-5.3706,-5.3506,-5.3313,-5.3125,-5.2939,-5.2842,-5.2752,-5.2646,-5.2598,-5.254,-5.2478,-5.2461,-5.269,-5.2686,-5.2783,-5.3051,-5.3381,-5.3761,-5.41,-5.4485,-5.4935,-5.5384,-5.5838,-5.6219,-5.6569,-5.6823,-5.71,-5.7258,-5.7471,-5.7531,-5.7774,-5.7856,-5.802,-5.8045,-5.8088,-5.788,-5.7899,-5.8045,-5.8017,-5.7961,-5.7925,-5.7795,-5.7954,-5.7847,-5.7794,-5.7779,-5.782,-5.7877,-5.7845,-5.7794,-5.7794,-5.7698,-5.7699,-5.7772,-5.7983,-5.7708,-5.7776,-5.7849,-5.7942,-5.791,-5.7876,-5.7915,-5.8053,-5.8095,-5.8093,-5.8054,-5.8088,-5.8176,-5.8284,-5.8214,-5.8212,-5.8149,-5.8193,-5.828,-5.8369,-5.8363,-5.8328,-5.8355,-5.8443,-5.8359,-5.8265,-5.8234,-5.8333,-5.8497,-5.8497,-5.8362,-5.8338,-5.843,-5.8486,-5.847,-5.842,-5.844,-5.8433,-5.8464,-5.8485,-5.8578,-5.8342,-5.8366,-5.8344,-5.8385,-5.8372,-5.8271,-5.8223,-5.8319,-5.8383,-5.842,-5.8264,-5.8386,-5.8498,-5.8553,-5.8508,-5.8411,-5.8403,-5.8429,-5.858,-5.8554,-5.8434,-5.8418,-5.8419,-5.8542,-5.8576,-5.8578,-5.8565,-5.8563,-5.8641,-5.8651,-5.8541,-5.8543,-5.8467,-5.8594,-5.8566,-5.8465,-5.8521,-5.8573,-5.8559,-5.8589,-5.8504,-5.8473,-5.8503,-5.8454,-5.8543,-5.84,-5.8343,-5.8303,-5.8082,-5.8125,-5.802,-5.7978,-5.7893,-5.7763,-5.7905,-5.7963,-5.803,-5.8079,-5.8151,-5.8447,-5.8654,-5.8562,-5.8552,-5.8645,-5.8769,-5.8792,-5.8734,-5.8607,-5.8664,-5.875,-5.8849,-5.88,-5.8678,-5.7859,-5.6055,-5.4149,-5.3147,-5.145,-4.9536,-4.8086,-5.0416,-5.6674,-6.2329,-6.5275,-6.3561,-6.1867,-6.0905,-5.9049,-5.8378,-5.831,-5.8086,-5.8082,-5.7948,-5.7813,-5.7814,-5.7775,-5.781,-5.7703,-5.7545,-5.7575,-5.7608,-5.7583,-5.7497,-5.7459,-5.7403,-5.7427,-5.7379,-5.7285,-5.7227,-5.7145,-5.7057,-5.6926,-5.6885,-5.6748,-5.6668,-5.6608,-5.649,-5.6453,-5.6157,-5.6077,-5.5986,-5.5953,-5.574,-5.5439,-5.5328,-5.5263,-5.5103,-5.4934,-5.4586,-5.4383,-5.4242,-5.4019,-5.3882,-5.3593,-5.3418,-5.3388,-5.3315,-5.3313,-5.3189,-5.3087,-5.3091,-5.3069,-5.3071,-5.3183,-5.332,-5.3547,-5.387,-5.4235,-5.4595,-5.4974,-5.5347,-5.5778,-5.634,-5.6682,-5.7114,-5.7353,-5.7657,-5.7828,-5.8049,-5.8107,-5.8257,-5.8503,-5.859,-5.8488,-5.8496,-5.8582,-5.8571,-5.8616,-5.8532,-5.8484,-5.8455,-5.8447,-5.8475,-5.8487,-5.8388,-5.8413,-5.8378,-5.8452,-5.8338,-5.8334,-5.8184,-5.821,-5.827,-5.8265,-5.8236,-5.8114,-5.8194,-5.8309,-5.8327,-5.8241,-5.8312,-5.8371,-5.8257,-5.838,-5.838,-5.833,-5.8343,-5.8349,-5.8478,-5.8451,-5.8402,-5.8397,-5.8601,-5.8595,-5.8646,-5.857,-5.8521,-5.8503,-5.8646,-5.8654,-5.8564,-5.8567,-5.8554,-5.8683,-5.8654,-5.8613,-5.8655,-5.8651,-5.8694,-5.876,-5.8717,-5.8702,-5.8785,-5.879,-5.8764,-5.8691,-5.8705,-5.8659,-5.8737,-5.8761,-5.8668,-5.8696,-5.8738,-5.8727,-5.8787,-5.8734,-5.8828,-5.8756,-5.878,-5.8773,-5.8742,-5.8661,-5.8678,-5.8757,-5.869,-5.8774,-5.8688,-5.8729,-5.8732,-5.8763,-5.8789,-5.875,-5.8762,-5.8758,-5.88,-5.882,-5.8798,-5.8807,-5.859,-5.8696,-5.8828,-5.8733,-5.8688,-5.868,-5.8739,-5.8633,-5.8527,-5.845,-5.8269,-5.8376,-5.8331,-5.8145,-5.8106,-5.8008,-5.8126,-5.8201,-5.8341,-5.8274,-5.8323,-5.8537,-5.8844,-5.8948,-5.8823,-5.8885,-5.8986,-5.9041,-5.8922,-5.8917,-5.8925,-5.8967,-5.8928,-5.9072,-5.8761,-5.782,-5.5945,-5.4059,-5.2395,-5.1429,-4.9479,-4.8357,-5.1778,-5.7931,-6.3829,-6.5605,-6.3754,-6.2018,-6.0961,-5.9131,-5.8504,-5.8298,-5.8312,-5.8295,-5.8097,-5.8122,-5.8085,-5.8121,-5.7937,-5.793,-5.7835,-5.7848,-5.7909,-5.7804,-5.7777,-5.7757,-5.7461,-5.7519,-5.7556,-5.7461,-5.7384,-5.7364,-5.7269,-5.72,-5.7035,-5.6922,-5.6858,-5.6758,-5.6733,-5.6589,-5.6489,-5.6299,-5.6253,-5.6103,-5.6031,-5.5771,-5.5584,-5.5455,-5.5342,-5.5084,-5.483,-5.4614,-5.4395,-5.4228,-5.3961,-5.3886,-5.3631,-5.3575,-5.351,-5.3389,-5.3419,-5.3352,-5.3332,-5.3528,-5.3417,-5.3433,-5.3596,-5.3797,-5.4161,-5.4682,-5.504,-5.5364,-5.5844,-5.6338,-5.6697,-5.7056,-5.7356,-5.7698,-5.807,-5.8268,-5.8395,-5.8486,-5.8567,-5.8656,-5.8932,-5.8949,-5.8868,-5.8836,-5.8802,-5.886,-5.8864,-5.8847,-5.868,-5.8733,-5.8875,-5.8724,-5.8707,-5.8638,-5.8611,-5.8633,-5.868,-5.8649,-5.8589,-5.8565,-5.8621,-5.8618,-5.8622,-5.8604,-5.8513,-5.863,-5.87,-5.8567,-5.8579,-5.8742,-5.887,-5.8942,-5.8836,-5.8805,-5.8848,-5.8923,-5.8958,-5.894,-5.8937,-5.8979,-5.897,-5.9067,-5.9189,-5.8993,-5.9094,-5.9079,-5.9131,-5.9097,-5.9157,-5.9151,-5.9175,-5.9304,-5.9202,-5.9182,-5.9167,-5.9143,-5.9157,-5.9274,-5.9245,-5.9154,-5.9113,-5.9146,-5.9218,-5.9224,-5.9165,-5.9252,-5.9281,-5.9276,-5.928,-5.9206,-5.9162,-5.9215,-5.9311,-5.9314,-5.9205,-5.9111,-5.904,-5.8953,-5.8921,-5.8791,-5.8771,-5.8957,-5.8858,-5.8466,-5.8106,-5.8032,-5.8261,-5.8453,-5.8492,-5.8568,-5.8657,-5.8686,-5.8858,-5.9039,-5.9157,-5.9346,-5.9313,-5.9431,-5.9453,-5.9425,-5.932,-5.9362,-5.9457,-5.9541,-5.9494,-5.9459,-5.9491,-5.9369,-5.8852,-5.7252,-5.5159,-5.326,-5.1501,-4.985,-4.8952,-5.2996,-5.6373,-6.2553,-6.7009,-6.5059,-6.3103,-6.1736,-6.0392,-5.9101,-5.9003,-5.8609,-5.8714,-5.8557,-5.8635,-5.8491,-5.8509,-5.8317,-5.8419,-5.8239,-5.8249,-5.8098,-5.8127,-5.8027,-5.8027,-5.7985,-5.8073,-5.7893,-5.7836,-5.7759,-5.7709,-5.7535,-5.7465,-5.729,-5.7254,-5.7228,-5.7143,-5.6845,-5.687,-5.6695,-5.6665,-5.6469,-5.6244,-5.6141,-5.5964,-5.5789,-5.5642,-5.5469,-5.524,-5.5035,-5.4911,-5.4606,-5.4418,-5.4077,-5.3984,-5.388,-5.368,-5.3547,-5.3491,-5.3486,-5.3435,-5.3412,-5.335,-5.3361,-5.3437,-5.3703,-5.401,-5.4359,-5.4703,-5.5133,-5.5481,-5.6054,-5.6503,-5.6954,-5.7323,-5.772,-5.7993,-5.8293,-5.8437,-5.8602,-5.8737,-5.8924,-5.8945,-5.9024,-5.8939,-5.8982,-5.903,-5.9098,-5.9008,-5.8965,-5.8883,-5.9012,-5.8912,-5.8869,-5.8754,-5.8814,-5.8817,-5.8837,-5.8742,-5.8735,-5.8685,-5.8778,-5.8792,-5.8744,-5.8765,-5.8705,-5.8743,-5.8895,-5.8854,-5.8797,-5.8812,-5.8872,-5.8981,-5.9005,-5.8796,-5.8991,-5.8991,-5.9153,-5.9155,-5.9147,-5.9097,-5.9189,-5.9333,-5.9343,-5.9318,-5.9253,-5.9263,-5.933,-5.9411,-5.9376,-5.9337,-5.9326,-5.9415,-5.9489,-5.9324,-5.9383,-5.9389,-5.9413,-5.9451,-5.9365,-5.9353,-5.9324,-5.9449,-5.945,-5.9454,-5.9375,-5.9423,-5.9494,-5.9511,-5.9484,-5.9342,-5.941,-5.9426,-5.9518,-5.9558,-5.9422,-5.9457,-5.9493,-5.9512,-5.9495,-5.9492,-5.9473,-5.9554,-5.941,-5.9303,-5.9139,-5.9148,-5.9088,-5.9197,-5.9327,-5.8887,-5.8662,-5.8361,-5.8463,-5.8738,-5.875,-5.8766,-5.8984,-5.9063,-5.9155,-5.9289,-5.9414,-5.9639,-5.9667,-5.979,-5.9734,-5.9735,-5.9748,-5.9832,-5.9941,-5.9933,-5.9804,-5.9801,-5.9881,-6.0003,-5.9827,-5.9038,-5.7252,-5.5252,-5.3449,-5.1485,-4.9717,-4.9348,-5.1132,-5.7651,-6.4295,-6.7156,-6.5193,-6.3163,-6.2197,-6.0439,-5.9549,-5.9362,-5.9237,-5.9162,-5.9191,-5.8994,-5.9009,-5.8879,-5.9006,-5.8894,-5.8939,-5.8819,-5.8782,-5.8722,-5.8674,-5.859,-5.8641,-5.8613,-5.8582,-5.8444,-5.8408,-5.8173,-5.8192,-5.8156,-5.8152,-5.8038,-5.7881,-5.7725,-5.7664,-5.7536,-5.7436,-5.7211,-5.7076,-5.7047,-5.6943,-5.6708,-5.6492,-5.6252,-5.6169,-5.6105,-5.5792,-5.5603,-5.5437,-5.5266,-5.5046,-5.4913,-5.4734,-5.4587,-5.4452,-5.4509,-5.4454,-5.4442,-5.4386,-5.4398,-5.4322,-5.4498,-5.4618,-5.4839,-5.5145,-5.5657,-5.6179,-5.6599,-5.6944,-5.7393,-5.7899,-5.8288,-5.8715,-5.8925,-5.9213,-5.9478,-5.9659,-5.9789,-5.9847,-5.9919,-5.9957,-6.0078,-5.9998,-6.0054,-5.9944,-5.9978,-6.0082,-5.9978,-5.9942,-5.9901,-5.9919,-5.9951,-5.9921,-5.9814,-5.9747,-5.982,-5.9802,-5.9886,-5.9816,-5.9742,-5.973,-5.9752,-5.9844,-5.981,-5.9811,-5.9849,-5.9861,-5.9932,-5.9978,-5.9975,-5.9976,-6.006,-6.0104,-6.0171,-6.0108,-6.0088,-6.0225,-6.0346,-6.0276,-6.0278,-6.032,-6.0336,-6.0416,-6.0435,-6.0407,-6.0401,-6.0414,-6.0419,-6.0429,-6.0375,-6.0358,-6.0439,-6.0521,-6.0564,-6.0462,-6.0452,-6.0477,-6.0429,-6.054,-6.0525,-6.0488,-6.0578,-6.0636,-6.0633,-6.0613,-6.0556,-6.0585,-6.0603,-6.0603,-6.067,-6.0579,-6.0482,-6.0475,-6.0615,-6.0569,-6.0548,-6.0622,-6.0574,-6.065,-6.0636,-6.0625,-6.0617,-6.0674,-6.0691,-6.0773,-6.0736,-6.0477,-6.0263,-6.0286,-6.0422,-6.03,-6.0362,-6.035,-5.9839,-5.9746,-5.9316,-5.937,-5.9682,-5.9831,-5.9903,-6.0062,-6.0108,-6.0154,-6.0247,-6.0492,-6.0595,-6.0642,-6.0722,-6.0774,-6.0863,-6.0858,-6.0796,-6.0775,-6.0839,-6.0907,-6.0849,-6.0777,-6.0767,-6.0183,-5.9548,-5.7656,-5.5568,-5.3789,-5.1943,-5.0349,-5.1224,-5.7345,-6.3993,-6.8287,-6.6616,-6.4338,-6.3187,-6.1422,-6.0563,-6.017,-6.0129,-5.9914,-5.9933,-5.9776,-5.9823,-5.9709,-5.9684,-5.9444,-5.9469,-5.9402,-5.9544,-5.9342,-5.9318,-5.9226,-5.9304,-5.9268,-5.9206,-5.8951,-5.8936,-5.8899,-5.8811,-5.867,-5.8608,-5.8502,-5.8464,-5.8442,-5.8366,-5.813,-5.797,-5.7861,-5.7809,-5.7664,-5.7503,-5.7342,-5.7198,-5.7039,-5.6886,-5.6676,-5.6517,-5.6196,-5.6065,-5.5838,-5.5553,-5.5362,-5.5223,-5.52,-5.5148,-5.508,-5.4849,-5.4777,-5.4825,-5.4883,-5.4854,-5.4825,-5.5017,-5.521,-5.5487,-5.5835,-5.611,-5.6612,-5.6937,-5.7447,-5.7879,-5.8262,-5.8496,-5.8606,-5.9005,-5.9329,-5.9536,-5.9649,-5.9862,-6.0067,-6.0007,-6.0057,-5.9942,-6.0033,-6.0035,-6.0069,-5.9935,-5.9936,-5.9862,-5.9901,-5.9819,-5.9815,-5.9723,-5.9756,-5.9731,-5.984,-5.9667,-5.9675,-5.9612,-5.9666,-5.9664,-5.9596,-5.9551,-5.953,-5.9545,-5.9651,-5.9542,-5.96,-5.9594,-5.9636,-5.9771,-5.9798,-5.9753,-5.9762,-5.9736,-5.9763,-5.9802,-5.9856,-5.9864,-5.9894,-5.9967,-5.9997,-5.988,-5.9901,-5.9919,-5.9958,-6.0035,-6.0001,-5.9945,-5.9889,-6.0012,-5.999,-5.9969,-5.9882,-5.9963,-5.9955,-6.0089,-6.0038,-5.9963,-5.9987,-6.0005,-6.0052,-6.0053,-5.9946,-6.0018,-5.9916,-6.0002,-5.9925,-5.9882,-5.9909,-6.0002,-5.996,-5.9842,-5.9803,-5.9894,-5.9965,-5.9986,-5.9884,-5.9861,-5.9797,-5.9861,-5.988,-5.9939,-5.9777,-5.9811,-5.9703,-5.9524,-5.9372,-5.9374,-5.9382,-5.9394,-5.9499,-5.9106,-5.8991,-5.8639,-5.8352,-5.8694,-5.8889,-5.8947,-5.8993,-5.9104,-5.9202,-5.9349,-5.9496,-5.965,-5.9676,-5.9834,-5.9896,-5.9792,-5.9743,-5.9734,-5.9748,-5.9819,-5.9786,-5.9789,-5.9766,-5.9821,-5.9673,-5.8873,-5.7036,-5.4925,-5.309,-5.1311,-4.9667,-4.9505,-5.465,-6.1248,-6.6744,-6.6139,-6.3643,-6.2336,-6.0735,-5.9611,-5.896,-5.9089,-5.8637,-5.8798,-5.8588,-5.8741,-5.8545,-5.8554,-5.8381,-5.8366,-5.8321,-5.8355,-5.8212,-5.8203,-5.811,-5.8098,-5.8017,-5.7933,-5.7847,-5.7845,-5.779,-5.7824,-5.759,-5.7539,-5.7385,-5.7383,-5.7228,-5.7048,-5.684,-5.6787,-5.6635,-5.6538,-5.6369,-5.611,-5.6016,-5.5943,-5.569,-5.5496,-5.5295,-5.5088,-5.4925,-5.4878,-5.4738,-5.4455,-5.4271,-5.4165,-5.4016,-5.3836,-5.3658,-5.3612,-5.3652,-5.3682,-5.3615,-5.3553,-5.3614,-5.3648,-5.3858,-5.4159,-5.4397,-5.4769,-5.5296,-5.5464,-5.5989,-5.6248,-5.6567,-5.7,-5.7427,-5.7762,-5.7945,-5.8247,-5.8342,-5.856,-5.8632,-5.8644,-5.8685,-5.8617,-5.8748,-5.8718,-5.8642,-5.8666,-5.863,-5.8525,-5.86,-5.8551,-5.8517,-5.8409,-5.8485,-5.8443,-5.8396,-5.8308,-5.8424,-5.841,-5.851,-5.8399,-5.8326,-5.8249,-5.8394,-5.8423,-5.841,-5.8333,-5.8348,-5.8312,-5.8512,-5.8552,-5.8548,-5.8565,-5.8673,-5.8623,-5.8754,-5.8687,-5.8713,-5.8821,-5.8828,-5.8829,-5.8852,-5.8839,-5.8895,-5.8973,-5.8978,-5.8948,-5.8955,-5.8967,-5.9017,-5.9076,-5.9061,-5.8967,-5.8995,-5.898,-5.9009,-5.8913,-5.8887,-5.895,-5.8966,-5.9002,-5.9071,-5.8996,-5.8993,-5.9044,-5.9115,-5.9097,-5.8988,-5.8952,-5.9004,-5.9143,-5.9196,-5.9054,-5.9001,-5.9005,-5.9022,-5.911,-5.9074,-5.9078,-5.9037,-5.91,-5.9136,-5.9014,-5.9027,-5.9098,-5.9134,-5.9062,-5.8866,-5.8745,-5.8576,-5.8635,-5.8722,-5.8724,-5.8734,-5.8355,-5.8149,-5.7869,-5.7963,-5.8018,-5.8047,-5.8294,-5.8381,-5.8583,-5.8416,-5.8652,-5.8895,-5.9016,-5.9066,-5.905,-5.894,-5.9043,-5.913,-5.9146,-5.9124,-5.9005,-5.9024,-5.917,-5.9209,-5.9101,-5.8378,-5.6778,-5.479,-5.2909,-5.1046,-4.9319,-4.8724,-5.2908,-5.9525,-6.5482,-6.6665,-6.4621,-6.2647,-6.139,-5.997,-5.8656,-5.8547,-5.8225,-5.8346,-5.8264,-5.8108,-5.7968,-5.7961,-5.8009,-5.7943,-5.7724,-5.7782,-5.7763,-5.7761,-5.7632,-5.7522,-5.7412,-5.7393,-5.7424,-5.7454,-5.7324,-5.7098,-5.7037,-5.6991,-5.6996,-5.6764,-5.6631,-5.6501,-5.6463,-5.6328,-5.6224,-5.6032,-5.5891,-5.5788,-5.5639,-5.5563,-5.5327,-5.5164,-5.503,-5.4872,-5.4785,-5.4461,-5.4232,-5.4086,-5.3969,-5.375,-5.3539,-5.3431,-5.3449,-5.3371,-5.3382,-5.3248,-5.3122,-5.3175,-5.3272,-5.3176,-5.3317,-5.349,-5.3751,-5.4189,-5.4575,-5.4966,-5.5341,-5.5701,-5.6169,-5.657,-5.6894,-5.7252,-5.7499,-5.7769,-5.7949,-5.8034,-5.8157,-5.8247,-5.8366,-5.8356,-5.833,-5.8246,-5.8273,-5.8291,-5.8359,-5.8403,-5.8149,-5.8141,-5.8161,-5.8218,-5.8165,-5.811,-5.812,-5.8144,-5.8132,-5.8181,-5.8016,-5.808,-5.8088,-5.8136,-5.8158,-5.807,-5.8084,-5.8141,-5.8185,-5.8295,-5.8299,-5.8265,-5.8385,-5.8391,-5.8416,-5.8443,-5.8385,-5.8471,-5.854,-5.8633,-5.8501,-5.8547,-5.8606,-5.8626,-5.8687,-5.8636,-5.8646,-5.871,-5.8731,-5.8875,-5.8819,-5.8821,-5.8796,-5.8824,-5.889,-5.8891,-5.8782,-5.8732,-5.8843,-5.8869,-5.8902,-5.8822,-5.8874,-5.8827,-5.8875,-5.8826,-5.8849,-5.8841,-5.8863,-5.8942,-5.8963,-5.8889,-5.8817,-5.8846,-5.8876,-5.8922,-5.8944,-5.88,-5.8804,-5.8854,-5.8961,-5.8937,-5.8843,-5.8925,-5.893,-5.9039,-5.8897,-5.8678,-5.8501,-5.8502,-5.8586,-5.8536,-5.8544,-5.8458,-5.8093,-5.7924,-5.7772,-5.7886,-5.7968,-5.7987,-5.8239,-5.8351,-5.8322,-5.8349,-5.8451,-5.8736,-5.889,-5.9026,-5.8972,-5.899,-5.9074,-5.9091,-5.9024,-5.9039,-5.9072,-5.9142,-5.9203,-5.9052,-5.8864,-5.8021,-5.6225,-5.4167,-5.2333,-5.045,-4.9729,-4.8932,-5.1679,-5.8276,-6.4522,-6.6465,-6.421,-6.24,-6.1236,-5.9534,-5.8659,-5.8635,-5.8409,-5.8446,-5.8253,-5.8225,-5.8162,-5.8137,-5.7995,-5.7936,-5.789,-5.7891,-5.7933,-5.7946,-5.784,-5.7675,-5.7589,-5.7678,-5.7587,-5.7447,-5.7322,-5.73,-5.7232,-5.7159,-5.7008,-5.6872,-5.6753,-5.6761,-5.6663,-5.648,-5.6355,-5.6271,-5.6205,-5.6081,-5.5841,-5.5791,-5.5566,-5.5391,-5.5291,-5.5092,-5.4846,-5.461,-5.4514,-5.4358,-5.4232,-5.398,-5.3865,-5.3773,-5.3763,-5.3666,-5.3589,-5.3576,-5.357,-5.3582,-5.3586,-5.36,-5.3693,-5.3974,-5.4373,-5.4768,-5.506,-5.5508,-5.5968,-5.6402,-5.6884,-5.7191,-5.7571,-5.7842,-5.8128,-5.8405,-5.847,-5.8602,-5.8743,-5.8726,-5.8855,-5.8873,-5.8787,-5.8766,-5.8825,-5.8838,-5.889,-5.8768,-5.8761,-5.8733,-5.876,-5.8647,-5.8659,-5.8609,-5.8594,-5.8655,-5.8589,-5.8559,-5.8539,-5.8508,-5.8558,-5.8623,-5.8615,-5.8537,-5.8577,-5.8666,-5.871,-5.8749,-5.8705,-5.8693,-5.8755,-5.8823,-5.8822,-5.8934,-5.8919,-5.8982,-5.8993,-5.8974,-5.8948,-5.8955,-5.8939,-5.9058,-5.9124,-5.8903,-5.9009,-5.9034,-5.9106,-5.9165,-5.9017,-5.8991,-5.9041,-5.906,-5.9106,-5.9,-5.8965,-5.9078,-5.9078,-5.9085,-5.9062,-5.8962,-5.8985,-5.8987,-5.9114,-5.9038,-5.8983,-5.8973,-5.9079,-5.9078,-5.8941,-5.8975,-5.8865,-5.902,-5.904,-5.9026,-5.8977,-5.8985,-5.9015,-5.9043,-5.9016,-5.8926,-5.8989,-5.9012,-5.9033,-5.8976,-5.8704,-5.8603,-5.8607,-5.8652,-5.8662,-5.8644,-5.8318,-5.8044,-5.7842,-5.7784,-5.7921,-5.7934,-5.8129,-5.8355,-5.8378,-5.8333,-5.8472,-5.8625,-5.8875,-5.9053,-5.8983,-5.9008,-5.8977,-5.9084,-5.9086,-5.9089,-5.9073,-5.9027,-5.9135,-5.9114,-5.9021,-5.8686,-5.7356,-5.6375,-5.4396,-5.245,-5.0639,-4.9061,-4.9038,-5.4187,-6.085,-6.6132,-6.56,-6.3067,-6.1966,-6.0305,-5.9055,-5.8357,-5.837,-5.8158,-5.8394,-5.8055,-5.8094,-5.7803,-5.8062,-5.7857,-5.7936,-5.7693,-5.7856,-5.7659,-5.763,-5.7451,-5.7512,-5.7465,-5.7609,-5.7357,-5.7355,-5.7116,-5.7122,-5.6987,-5.701,-5.6798,-5.6711,-5.6566,-5.6535,-5.6463,-5.6409,-5.6172,-5.6004,-5.5826,-5.5805,-5.5651,-5.5434,-5.5181,-5.5035,-5.4929,-5.4761,-5.4506,-5.4288,-5.4097,-5.4044,-5.3861,-5.3579,-5.3544,-5.3447,-5.3428,-5.3372,-5.3282,-5.3225,-5.321,-5.3213,-5.329,-5.3388,-5.3509,-5.3681,-5.4094,-5.4484,-5.497,-5.5393,-5.5813,-5.6261,-5.6728,-5.7057,-5.7251,-5.7453,-5.7829,-5.8045,-5.8283,-5.8299,-5.8468,-5.8507,-5.8703,-5.8642,-5.8569,-5.858,-5.8623,-5.8607,-5.8676,-5.8465,-5.8504,-5.8421,-5.8545,-5.8505,-5.8459,-5.8331,-5.8411,-5.8437,-5.8413,-5.8371,-5.8355,-5.8278,-5.8474,-5.8407,-5.8454,-5.8408,-5.8501,-5.8434,-5.8539,-5.8567,-5.8534,-5.856,-5.8692,-5.8736,-5.8818,-5.8719,-5.8769,-5.8825,-5.8963,-5.8953,-5.8961,-5.9022,-5.9065,-5.9046,-5.9115,-5.9059,-5.9087,-5.9048,-5.9121,-5.9039,-5.9058,-5.905,-5.9078,-5.9126,-5.9134,-5.9082,-5.9098,-5.9182,-5.9151,-5.9175,-5.9154,-5.9133,-5.9134,-5.9143,-5.9188,-5.9168,-5.9028,-5.9117,-5.9213,-5.9302,-5.9177,-5.9192,-5.9152,-5.9168,-5.9233,-5.9159,-5.9125,-5.9199,-5.9145,-5.924,-5.9231,-5.9192,-5.9184,-5.9252,-5.9053,-5.9023,-5.8816,-5.8716,-5.8858,-5.8866,-5.8905,-5.8644,-5.8344,-5.8059,-5.7969,-5.8089,-5.8222,-5.8371,-5.8479,-5.8538,-5.8625,-5.8676,-5.8782,-5.9008,-5.9163,-5.9284,-5.9288,-5.9227,-5.9209,-5.9323,-5.9281,-5.9286,-5.9265,-5.9365,-5.9351,-5.947,-5.9252,-5.8486,-5.659,-5.4637,-5.2761,-5.0917,-4.9306,-4.9032,-5.4133,-6.0936,-6.6476,-6.5871,-6.3375,-6.2113,-6.0648,-5.935,-5.8671,-5.8644,-5.8404,-5.8625,-5.8387,-5.843,-5.8176,-5.8329,-5.8113,-5.8231,-5.8087,-5.8169,-5.7918,-5.8064,-5.7948,-5.7988,-5.7829,-5.7795,-5.772,-5.7731,-5.751,-5.7414,-5.7276,-5.7355,-5.727,-5.7169,-5.6998,-5.6894,-5.6705,-5.6706,-5.6579,-5.646,-5.6256,-5.6219,-5.6018,-5.5889,-5.5688,-5.5494,-5.5341,-5.5272,-5.4993,-5.4772,-5.4492,-5.4388,-5.4281,-5.414,-5.4083,-5.3855,-5.3741,-5.3732,-5.3732,-5.3646,-5.3606,-5.3582,-5.3689,-5.3786,-5.3912,-5.4097,-5.452,-5.483,-5.5347,-5.5697,-5.6169,-5.6396,-5.6805,-5.7293,-5.7594,-5.7836,-5.811,-5.8359,-5.8574,-5.8708,-5.8792,-5.8866,-5.8884,-5.8909,-5.8895,-5.8792,-5.886,-5.8827,-5.8808,-5.886,-5.8871,-5.8775,-5.8805,-5.8767,-5.8821,-5.8705,-5.8673,-5.8603,-5.8668,-5.8655,-5.8579,-5.8518,-5.8573,-5.8588,-5.8663,-5.861,-5.8596,-5.8602,-5.863,-5.8702,-5.8821,-5.8812,-5.8831,-5.8813,-5.8938,-5.9069,-5.8965,-5.8987,-5.9045,-5.9059,-5.9081,-5.907,-5.9138,-5.9111,-5.9269,-5.9115,-5.9182,-5.9252,-5.9254,-5.9241,-5.9231,-5.9181,-5.9141,-5.9246,-5.9367,-5.9321,-5.9294,-5.9175,-5.9226,-5.9222,-5.9327,-5.9281,-5.9247,-5.9244,-5.928,-5.9292,-5.9296,-5.927,-5.9311,-5.9308,-5.937,-5.9292,-5.924,-5.9202,-5.9241,-5.9315,-5.931,-5.9214,-5.9243,-5.926,-5.9272,-5.9269,-5.925,-5.9152,-5.9152,-5.9032,-5.8991,-5.8996,-5.8947,-5.9014,-5.9019,-5.8649,-5.8523,-5.8263,-5.8102,-5.839,-5.8422,-5.8577,-5.8697,-5.8714,-5.8876,-5.8987,-5.9147,-5.9272,-5.9419,-5.9496,-5.9522,-5.9504,-5.9402,-5.951,-5.9533,-5.9621,-5.9587,-5.953,-5.9539,-5.9493,-5.9223,-5.8008,-5.594,-5.3867,-5.2117,-5.0336,-4.9054,-5.0976,-5.7503,-6.4169,-6.7139,-6.5012,-6.2714,-6.1683,-6.0049,-5.9201,-5.8953,-5.8844,-5.8579,-5.8637,-5.8581,-5.8679,-5.8394,-5.8346,-5.8242,-5.8342,-5.8277,-5.8206,-5.8044,-5.8059,-5.8021,-5.8058,-5.7908,-5.7822,-5.7682,-5.7732,-5.7632,-5.7641,-5.7442,-5.7438,-5.7373,-5.732,-5.7071,-5.6958,-5.6728,-5.6722,-5.6598,-5.6526,-5.6258,-5.6092,-5.592,-5.5884,-5.5626,-5.5412,-5.5217,-5.5057,-5.4968,-5.4793,-5.4543,-5.4256,-5.4189,-5.4112,-5.4014,-5.3882,-5.374,-5.369,-5.3613,-5.3663,-5.3609,-5.3578,-5.3666,-5.3847,-5.4035,-5.4299,-5.4586,-5.5015,-5.52,-5.578,-5.6169,-5.6531,-5.6888,-5.7244,-5.7674,-5.7946,-5.8208,-5.8386,-5.8615,-5.87,-5.8745,-5.87,-5.8778,-5.8771,-5.8806,-5.878,-5.8808,-5.8725,-5.879,-5.8761,-5.8801,-5.8589,-5.8558,-5.8502,-5.8549,-5.856,-5.8499,-5.8339,-5.8435,-5.8396,-5.8515,-5.8491,-5.8422,-5.8353,-5.8444,-5.8506,-5.8509,-5.8435,-5.8499,-5.845,-5.8602,-5.8652,-5.8633,-5.8668,-5.8695,-5.8832,-5.882,-5.8801,-5.8801,-5.8809,-5.8898,-5.8902,-5.8946,-5.8851,-5.8901,-5.9016,-5.9039,-5.8965,-5.8947,-5.8951,-5.9029,-5.9108,-5.9017,-5.8967,-5.8955,-5.902,-5.9037,-5.8936,-5.8907,-5.8855,-5.8979,-5.9003,-5.8957,-5.889,-5.8971,-5.8974,-5.9028,-5.9003,-5.9018,-5.8956,-5.8969,-5.8968,-5.8981,-5.8842,-5.8867,-5.8903,-5.8905,-5.8896,-5.8812,-5.8816,-5.8858,-5.8989,-5.9002,-5.8894,-5.8908,-5.8828,-5.871,-5.8461,-5.8486,-5.8527,-5.8419,-5.8573,-5.8517,-5.8096,-5.7922,-5.7591,-5.7729,-5.7998,-5.7997,-5.8166,-5.822,-5.8375,-5.8412,-5.8622,-5.8644,-5.8776,-5.8862,-5.8922,-5.892,-5.8866,-5.8831,-5.8939,-5.8974,-5.9039,-5.894,-5.8905,-5.895,-5.8875,-5.8145,-5.6223,-5.4092,-5.2255,-5.0424,-4.8749,-4.8488,-5.4012,-6.0939,-6.6327,-6.5479,-6.3975,-6.2233,-6.0759,-5.9422,-5.8214,-5.8439,-5.7883,-5.8162,-5.7868,-5.8077,-5.7666,-5.7724,-5.748,-5.7697,-5.7471,-5.7622,-5.7295,-5.7313,-5.7229,-5.7323,-5.7216,-5.7175,-5.7032,-5.7054,-5.6864,-5.6859,-5.6624,-5.6491,-5.6415,-5.639,-5.6319,-5.6188,-5.6002,-5.589,-5.5789,-5.5705,-5.5442,-5.5283,-5.5133,-5.5081,-5.4954,-5.4729,-5.4497,-5.4377,-5.4248,-5.4007,-5.3707,-5.3403,-5.3227,-5.3166,-5.303,-5.2888,-5.2774,-5.2646,-5.2625,-5.2582,-5.2666,-5.2559,-5.265,-5.2755,-5.2904,-5.3036,-5.3265,-5.3591,-5.4189,-5.4603,-5.504,-5.5373,-5.5776,-5.6138,-5.6675,-5.696,-5.7103,-5.7335,-5.7635,-5.7763,-5.7862,-5.7815,-5.7802,-5.7788,-5.7882,-5.7901,-5.7912,-5.7715,-5.7731,-5.7728,-5.7719,-5.7662,-5.7597,-5.7534,-5.76,-5.7579,-5.7548,-5.7416,-5.7597,-5.7532,-5.757,-5.7575,-5.7483,-5.7498,-5.7574,-5.765,-5.7615,-5.7537,-5.7598,-5.773,-5.7821,-5.7698,-5.7671,-5.7641,-5.777,-5.7903,-5.7968,-5.7897,-5.7861,-5.7925,-5.7994,-5.8109,-5.8102,-5.7964,-5.8058,-5.8045,-5.8221,-5.8158,-5.8152,-5.813,-5.8237,-5.8197,-5.8171,-5.8178,-5.8165,-5.8199,-5.8324,-5.8303,-5.82,-5.8233,-5.8261,-5.8289,-5.8387,-5.8241,-5.8278,-5.8318,-5.8427,-5.8347,-5.8192,-5.8298,-5.836,-5.8403,-5.8414,-5.8362,-5.8273,-5.8333,-5.8357,-5.84,-5.8279,-5.8127,-5.7952,-5.7989,-5.8007,-5.8049,-5.8063,-5.8044,-5.7814,-5.7595,-5.7161,-5.7152,-5.7403,-5.7549,-5.7666,-5.7822,-5.7692,-5.7838,-5.8036,-5.8367,-5.8374,-5.8407,-5.8484,-5.8474,-5.8571,-5.861,-5.8531,-5.8539,-5.8666,-5.8733,-5.8719,-5.8591,-5.8617,-5.8097,-5.7042,-5.5183,-5.2957,-5.1149,-4.925,-4.8207,-5.0159,-5.6462,-6.3369,-6.6366,-6.4249,-6.2121,-6.0951,-6.0289,-5.879,-5.821,-5.8256,-5.7996,-5.8024,-5.7805,-5.7839,-5.7865,-5.7871,-5.7709,-5.7656,-5.7693,-5.7502,-5.7496,-5.7402,-5.7357,-5.7454,-5.7405,-5.7435,-5.7224,-5.7086,-5.7017,-5.7055,-5.7002,-5.6909,-5.6707,-5.6745,-5.6593,-5.6405,-5.6409,-5.6283,-5.6059,-5.6147,-5.5797,-5.5596,-5.5439,-5.5306,-5.5314,-5.5052,-5.4919,-5.4689,-5.4501,-5.4415,-5.4197,-5.4035,-5.3733,-5.3578,-5.3519,-5.3441,-5.3322,-5.3241,-5.3201,-5.3206,-5.3164,-5.3225,-5.3238,-5.3408,-5.3816,-5.4112,-5.4235,-5.4603,-5.4989,-5.5481,-5.6017,-5.6401,-5.666,-5.708,-5.75,-5.7879,-5.8072,-5.8087,-5.8288,-5.8445,-5.8664,-5.877,-5.8693,-5.8653,-5.8595,-5.8764,-5.8714,-5.8638,-5.8515,-5.8477,-5.8511,-5.8529,-5.8425,-5.8374,-5.8346,-5.843,-5.8411,-5.8393,-5.8375,-5.8318,-5.8385,-5.8372,-5.8411,-5.8257,-5.8384,-5.8379,-5.8484,-5.8485,-5.8482,-5.8372,-5.8354,-5.8648,-5.8633,-5.8557,-5.8678,-5.8707,-5.8775,-5.8804,-5.8746,-5.8723,-5.8902,-5.9004,-5.8893,-5.8801,-5.8808,-5.8839,-5.878,-5.8612,-5.86,-5.8545,-5.8525,-5.8576,-5.8631,-5.8195,-5.7872,-5.7599,-5.7796,-5.812,-5.8095,-5.8353,-5.8371,-5.8471,-5.8655,-5.8899,-5.8902,-5.9043,-5.9073,-5.9149,-5.9222,-5.9114,-5.9095,-5.9178,-5.9205,-5.9257,-5.9236,-5.9215,-5.9316,-5.9241,-5.9131,-5.8663,-5.7074,-5.5388,-5.3623,-5.1932,-5.0403,-5.0113,-5.1338,-5.6381,-6.2609,-6.6766,-6.4798,-6.2529,-6.1615,-6.0284,-5.9514,-5.8378,-5.8654,-5.8358,-5.8419,-5.8164,-5.8189,-5.8118,-5.8324,-5.8001,-5.8022,-5.77,-5.7893,-5.7899,-5.7856,-5.7756,-5.7629,-5.7513,-5.7491,-5.7512,-5.7447,-5.7284,-5.7162,-5.7155,-5.7201,-5.7023,-5.6843,-5.6621,-5.674,-5.6631,-5.6528,-5.6179,-5.6116,-5.6002,-5.5889,-5.5748,-5.5441,-5.5149,-5.5082,-5.4852,-5.4654,-5.4389,-5.4136,-5.3959,-5.3784,-5.3549,-5.3489,-5.3325,-5.3242,-5.3184,-5.3247,-5.3181,-5.3016,-5.3091,-5.3275,-5.3624,-5.3772,-5.4177,-5.4537,-5.515,-5.5638,-5.6079,-5.6443,-5.6833,-5.7289,-5.7675,-5.7913,-5.8232,-5.8365,-5.8617,-5.8766,-5.8792,-5.8691,-5.8753,-5.8749,-5.8862,-5.8899,-5.8951,-5.8644,-5.8698,-5.8785,-5.8829,-5.8694,-5.8698,-5.86,-5.8734,-5.8813,-5.8571,-5.8467,-5.8574,-5.8525,-5.8707,-5.8594,-5.8563,-5.8555,-5.8634,-5.8665,-5.8694,-5.8668,-5.8679,-5.8748,-5.889,-5.8883,-5.8803,-5.8759,-5.8834,-5.904,-5.9095,-5.9077,-5.9145,-5.9013,-5.8893,-5.8814,-5.8768,-5.8588,-5.8663,-5.8672,-5.882,-5.8486,-5.8267,-5.8079,-5.7997,-5.819,-5.834,-5.8272,-5.8456,-5.8779,-5.888,-5.8983,-5.9108,-5.922,-5.937,-5.9411,-5.9449,-5.9413,-5.944,-5.9432,-5.9491,-5.9531,-5.9498,-5.9481,-5.9487,-5.966,-5.9728,-5.9313,-5.8456,-5.6858,-5.4985,-5.3298,-5.1348,-4.9741,-5.0136,-5.5368,-5.8215,-6.4484,-6.6488,-6.4096,-6.2801,-6.139,-6.0422,-5.9096,-5.9123,-5.8787,-5.8868,-5.8585,-5.8592,-5.8485,-5.8604,-5.8407,-5.8504,-5.8221,-5.8178,-5.8083,-5.8305,-5.8209,-5.8145,-5.784,-5.7969,-5.7855,-5.7859,-5.7649,-5.7597,-5.7515,-5.7535,-5.723,-5.7269,-5.7,-5.7015,-5.6877,-5.6746,-5.6538,-5.6246,-5.6107,-5.611,-5.5996,-5.5767,-5.5598,-5.5263,-5.5021,-5.4872,-5.4624,-5.4047,-5.3911,-5.3699,-5.3359,-5.3255,-5.298,-5.2808,-5.2925,-5.2902,-5.2567,-5.2388,-5.2511,-5.2817,-5.3076,-5.3223,-5.348,-5.3651,-5.4616,-5.5364,-5.5702,-5.5654,-5.6111,-5.6625,-5.7146,-5.7241,-5.7447,-5.7585,-5.7696,-5.779,-5.7827,-5.7721,-5.7466,-5.739,-5.7621,-5.7785,-5.7765,-5.7503,-5.7482,-5.7661,-5.7822,-5.7752,-5.7669,-5.7605,-5.7876,-5.7861,-5.7776,-5.7444,-5.7907,-5.7904,-5.7833,-5.7955,-5.82,-5.8199,-5.8059,-5.8421,-5.8521,-5.8627,-5.8495,-5.8496,-5.8797,-5.8646,-5.8432,-5.8744,-5.909,-5.9098,-5.9195,-5.9135,-5.9204,-5.9182,-5.9571,-5.9585,-5.9403,-5.9485,-5.9448,-5.9542,-5.9664,-5.9726,-5.946,-5.9423,-5.9665,-5.991,-5.9998,-6.0066,-6.0265,-6.0316,-6.0081,-5.9843,-5.9567,-5.9469,-5.9894,-5.9719,-5.9358,-5.8976,-5.8887,-5.9017,-5.9398,-5.9263,-5.9222,-5.9425,-5.956,-5.9681,-5.9777,-5.9779,-5.9853,-6.007,-6.0135,-6.0229,-6.0225,-6.0126,-6.0438,-6.0565,-6.1098,-6.1677,-6.1745,-6.1984,-6.1884,-6.1868,-6.1449,-6.0247,-5.7792,-5.5688,-5.3839,-5.1465,-4.8794,-4.9017,-5.5447,-6.2761,-6.6538,-6.4942,-6.2714,-6.1689,-5.9866,-5.882,-5.8493,-5.84,-5.818,-5.8142,-5.781,-5.7703,-5.7481,-5.7466,-5.7013,-5.6931,-5.6792,-5.6447,-5.6534,-5.6484,-5.61,-5.6108,-5.5793,-5.5893,-5.5578,-5.5428,-5.5239,-5.519,-5.4956,-5.4904,-5.4667,-5.4777,-5.4452,-5.416,-5.4107,-5.39,-5.3731,-5.3625,-5.3271,-5.329,-5.2909,-5.2606,-5.226,-5.2092,-5.1651,-5.1488,-5.1406,-5.1106,-5.1057,-5.0611,-5.0293,-5.0063,-4.978,-4.9397,-4.9678,-4.9305,-4.9342,-4.9164,-4.8862,-4.8931,-4.9043,-4.9371,-4.942,-4.9791,-5.0172,-5.0634,-5.0808,-5.1365,-5.175,-5.174,-5.2118,-5.2593,-5.2806,-5.2682,-5.2739,-5.2847,-5.2984,-5.2966,-5.2866,-5.2741,-5.2788,-5.2932,-5.2671,-5.2586,-5.2705,-5.2578,-5.2481,-5.2446,-5.2305,-5.2349,-5.2267,-5.2133,-5.2208,-5.1928,-5.1931,-5.2044,-5.2012,-5.1971,-5.204,-5.1979,-5.183,-5.1929,-5.1965,-5.2058,-5.2148,-5.1999,-5.191,-5.1953,-5.2049,-5.202,-5.2036,-5.2057,-5.1929,-5.1784,-5.1759,-5.1569,-5.1791,-5.1805,-5.1794,-5.1601,-5.1353,-5.1476,-5.1653,-5.1406,-5.1462,-5.1175,-5.116,-5.1218,-5.1265,-5.1216,-5.11,-5.0936,-5.0923,-5.0725,-5.0651,-5.0496,-5.0544,-5.0753,-5.0646,-5.0224,-5.0028,-4.9558,-4.9721,-4.998,-4.9995,-5.0091,-5.0268,-5.0508,-5.031,-5.0408,-5.0617,-5.0598,-5.0682,-5.082,-5.0929,-5.0843,-5.0692,-5.0813,-5.0853,-5.0729,-5.0625,-5.0507,-5.0719,-5.0718,-5.0823,-5.0348,-4.9076,-4.8318,-4.66,-4.461,-4.2281,-3.9789,-3.8574,-4.2363,-4.9635,-5.6078,-5.6062,-5.4042,-5.3056,-5.1769,-5.0116,-4.9501,-4.9543,-4.9502,-4.9619,-4.9169,-4.9178,-4.9048,-4.9054,-4.901,-4.9032,-4.8897,-4.8809,-4.8609,-4.8674,-4.8727,-4.8541,-4.8294,-4.8468,-4.8498,-4.8272,-4.7966,-4.7932,-4.7797,-4.8016,-4.7644,-4.7668,-4.7494,-4.7549,-4.7477,-4.7332,-4.7068,-4.6903,-4.6688,-4.6666,-4.6616,-4.6257,-4.5986,-4.5635,-4.5641,-4.5407,-4.5044,-4.459,-4.4538,-4.4616,-4.4268,-4.4035,-4.3821,-4.3789,-4.3831,-4.371,-4.3731,-4.3509,-4.3412,-4.3559,-4.3739,-4.3838,-4.3886,-4.4334,-4.4846,-4.53,-4.5581,-4.6291,-4.6485,-4.7008,-4.7411,-4.7566,-4.7728,-4.7993,-4.8158,-4.8481,-4.838,-4.8352,-4.8513,-4.8577,-4.878,-4.8669,-4.8514,-4.8469,-4.8513,-4.8449,-4.8591,-4.8392,-4.843,-4.8288,-4.834,-4.8232,-4.8328,-4.8219,-4.8151,-4.8056,-4.8194,-4.7963,-4.8016,-4.7962,-4.8037,-4.814,-4.7976,-4.7984,-4.8106,-4.8051,-4.8171,-4.8179,-4.8181,-4.8233,-4.8254,-4.8155,-4.8391,-4.8483,-4.8291,-4.8361,-4.8566,-4.8646,-4.8647,-4.8441,-4.8567,-4.8735,-4.8749,-4.8734,-4.8705,-4.872,-4.8855,-4.902,-4.8909,-4.8845,-4.9001,-4.9236,-4.9033,-4.8923,-4.9011,-4.9067,-4.9072,-4.917,-4.9334,-4.8886,-4.9169,-4.9211,-4.9315,-4.9282,-4.9155,-4.908,-4.9362,-4.9363,-4.9332,-4.9162,-4.9169,-4.9267,-4.9282,-4.9364,-4.9346,-4.9203,-4.9205,-4.9312,-4.914,-4.9173,-4.8999,-4.886,-4.9185,-4.9177,-4.9177,-4.9054,-4.884,-4.8857,-4.8931,-4.9188,-4.9173,-4.923,-4.9495,-4.9455,-4.9415,-4.9534,-4.9612,-4.9791,-5.0017,-4.9959,-4.9947,-4.9886,-5.0106,-5.0295,-5.0258,-5.0221,-5.0294,-5.0402,-5.0642,-5.0689,-5.0513,-5.0579,-4.9463,-4.8576,-4.6749,-4.472,-4.2692,-4.0649,-3.9773,-4.3541,-5.0044,-5.6673,-5.7359,-5.5137,-5.3708,-5.2346,-5.1112,-5.0192,-5.0289,-4.9962,-4.9921,-4.9655,-4.9644,-4.9533,-4.9776,-4.9403,-4.9368,-4.9323,-4.9343,-4.9455,-4.9397,-4.9255,-4.9255,-4.9058,-4.9034,-4.8738,-4.8688,-4.8625,-4.8683,-4.8842,-4.8795,-4.8559,-4.8346,-4.822,-4.8242,-4.8251,-4.8031,-4.7768,-4.7708,-4.7867,-4.7717,-4.742,-4.7103,-4.7092,-4.6943,-4.6736,-4.6441,-4.6326,-4.6078,-4.5922,-4.5733,-4.5389,-4.5277,-4.5367,-4.5184,-4.5372,-4.5491,-4.5214,-4.5138,-4.524,-4.5298,-4.5456,-4.5336,-4.5514,-4.5846,-4.6192,-4.6576,-4.693,-4.749,-4.7946,-4.8341,-4.8716,-4.9056,-4.936,-4.9533,-4.9983,-4.9971,-5.0369,-5.0424,-5.0687,-5.0927,-5.0908,-5.0746,-5.0639,-5.0739,-5.0967,-5.1,-5.0912,-5.0845,-5.0819,-5.0935,-5.1111,-5.112,-5.1201,-5.119,-5.1063,-5.0986,-5.0906,-5.1101,-5.1166,-5.115,-5.1076,-5.092,-5.0952,-5.0872,-5.1028,-5.122,-5.1128,-5.1038,-5.113,-5.1178,-5.1177,-5.1117,-5.1438,-5.1438,-5.15,-5.1585,-5.1506,-5.1678,-5.148,-5.1515,-5.1714,-5.1814,-5.1899,-5.1614,-5.1652,-5.1863,-5.1878,-5.176,-5.1666,-5.1684,-5.1683,-5.1485,-5.1387,-5.1516,-5.1436,-5.1692,-5.1568,-5.1328,-5.0998,-5.072,-5.093,-5.1323,-5.1263,-5.1437,-5.1548,-5.1763,-5.1908,-5.2084,-5.2052,-5.2163,-5.2408,-5.2726,-5.2771,-5.2747,-5.2634,-5.254,-5.2639,-5.2653,-5.2455,-5.2463,-5.2365,-5.2556,-5.263,-5.2456,-5.142,-4.9701,-4.787,-4.6113,-4.4211,-4.2916,-4.4272,-4.9227,-5.5306,-5.8888,-5.9401,-5.7316,-5.5619,-5.4688,-5.3617,-5.2615,-5.2227,-5.226,-5.2236,-5.211,-5.2033,-5.1921,-5.1781,-5.1926,-5.1836,-5.1802,-5.1736,-5.1738,-5.1689,-5.1746,-5.1614,-5.1512,-5.1297,-5.134,-5.1332,-5.1201,-5.1074
