-9.8,-9.809,-9.8061,-9.8074,-9.8127,-9.8182,-9.8143,-9.8178,-9.8175,-9.821,-9.8154,-9.8185,-9.8228,-9.8179,-9.8216,-9.8282,-9.8303,-9.833,-9.838,-9.8268,-9.8278,-9.8311,-9.8308,-9.8437,-9.8462,-9.8456,-9.8386,-9.8375,-9.844,-9.8513,-9.8545,-9.8524,-9.8458,-9.8409,-9.8459,-9.852,-9.8515,-9.8473,-9.8558,-9.8581,-9.8625,-9.8541,-9.856,-9.8595,-9.8584,-9.864,-9.87,-9.8667,-9.8614,-9.86,-9.8693,-9.8757,-9.8785,-9.8748,-9.8747,-9.8674,-9.8714,-9.8774,-9.877,-9.8834,-9.8685,-9.8708,-9.8721,-9.8788,-9.876,-9.8751,-9.8747,-9.8799,-9.8848,-9.8818,-9.8692,-9.8692,-9.8589,-9.8452,-9.837,-9.8507,-9.849,-9.8229,-9.8179,-9.8017,-9.7816,-9.7863,-9.7866,-9.7989,-9.798,-9.8151,-9.8231,-9.8146,-9.8238,-9.8451,-9.8782,-9.8998,-9.9095,-9.9027,-9.9094,-9.9133,-9.9091,-9.9133,-9.9124,-9.9066,-9.9144,-9.9138,-9.91,-9.914,-9.9124,-9.9205,-9.9393,-9.9766,-10.008,-9.9658,-9.7897,-9.5389,-9.2993,-9.0513,-9.0636,-9.3984,-9.5221,-9.6332,-9.9438,-10.052,-10.063,-10.1,-10.032,-9.984,-9.9424,-9.8917,-9.8809,-9.871,-9.8653,-9.8594,-9.8519,-9.8473,-9.845,-9.8362,-9.8256,-9.814,-9.8051,-9.7992,-9.8008,-9.7923,-9.7859,-9.7659,-9.754,-9.7482,-9.7471,-9.7474,-9.7459,-9.7355,-9.717,-9.6991,-9.6859,-9.6741,-9.6761,-9.6542,-9.6353,-9.6182,-9.6055,-9.587,-9.571,-9.5483,-9.5208,-9.4897,-9.4781,-9.4696,-9.4545,-9.4297,-9.4041,-9.3945,-9.3789,-9.3675,-9.3543,-9.3442,-9.3429,-9.3496,-9.354,-9.3634,-9.3801,-9.41,-9.4405,-9.476,-9.5136,-9.5586,-9.607,-9.6346,-9.664,-9.6879,-9.7277,-9.7691,-9.7784,-9.7949,-9.8138,-9.8326,-9.8522,-9.853,-9.8534,-9.8754,-9.8811,-9.8837,-9.8781,-9.8772,-9.8778,-9.8837,-9.8885,-9.8945,-9.8906,-9.8866,-9.8881,-9.8845,-9.8858,-9.877,-9.8794,-9.8837,-9.8855,-9.879,-9.8817,-9.8762,-9.8659,-9.857,-9.867,-9.8627,-9.8665,-9.8705,-9.8627,-9.8564,-9.8515,-9.8499,-9.8496,-9.8544,-9.8529,-9.8491,-9.8403,-9.8379,-9.8344,-9.8357,-9.8377,-9.8246,-9.8199,-9.8298,-9.8387,-9.8412,-9.8324,-9.8417,-9.8512,-9.8443,-9.8288,-9.8442,-9.8567,-9.8553,-9.8551,-9.8541,-9.862,-9.8724,-9.8644,-9.8688,-9.8711,-9.8589,-9.8562,-9.8628,-9.8642,-9.872,-9.8606,-9.8653,-9.8662,-9.8669,-9.8615,-9.8832,-9.8603,-9.8533,-9.8834,-9.8882,-9.8842,-9.8858,-9.8761,-9.8735,-9.8953,-9.8932,-9.8876,-9.8749,-9.8814,-9.9031,-9.9076,-9.9082,-9.8943,-9.8921,-9.9005,-9.8882,-9.9112,-9.8873,-9.916,-9.8994,-9.8913,-9.9359,-9.93,-9.9164,-9.9302,-9.9538,-9.9539,-9.9477,-9.9448,-9.9529,-9.9701,-9.9539,-9.9708,-9.9691,-9.9426,-9.9643,-9.973,-9.9815,-9.9569,-9.9771,-10.028,-10.019,-9.9959,-10.016,-10.029,-10.045,-10.034,-10.021,-10.031,-10.005,-10.024,-10.047,-10.036,-10.023,-10.001,-10.034,-10.034,-9.9845,-9.9851,-9.9989,-10.045,-10.047,-10.008,-9.9725,-9.9623,-9.9464,-9.9783,-10.009,-9.9945,-9.9899,-9.992,-10.024,-10.035,-10.017,-10.055,-10.079,-10.097,-10.116,-10.13,-10.098,-10.119,-10.104,-10.094,-10.118,-10.124,-10.113,-10.122,-10.121,-10.097,-10.126,-10.124,-10.133,-10.168,-10.221,-10.18,-10.03,-9.7873,-9.5457,-9.268,-9.2139,-9.6004,-9.735,-9.8178,-10.11,-10.256,-10.245,-10.252,-10.202,-10.17,-10.123,-10.097,-10.098,-10.047,-10.065,-10.012,-10.047,-10.052,-10.044,-10.006,-9.9962,-10.02,-10,-9.9937,-9.9818,-9.9885,-9.9844,-9.9514,-9.9848,-9.9602,-9.9368,-9.9349,-9.9265,-9.9039,-9.9053,-9.8932,-9.8635,-9.8592,-9.8567,-9.8334,-9.8314,-9.8026,-9.7883,-9.7704,-9.7459,-9.7197,-9.6715,-9.6687,-9.6774,-9.6469,-9.6189,-9.5994,-9.5759,-9.5633,-9.5373,-9.5264,-9.5199,-9.5004,-9.4993,-9.4888,-9.4834,-9.5017,-9.5102,-9.5397,-9.5814,-9.6183,-9.6518,-9.6893,-9.7256,-9.7689,-9.7879,-9.7974,-9.8539,-9.889,-9.9151,-9.9299,-9.943,-9.9344,-9.9744,-9.9758,-9.9582,-9.9721,-9.9909,-9.9857,-9.9806,-9.9705,-9.9795,-9.9829,-9.9853,-9.9796,-9.9732,-9.991,-9.9851,-9.9827,-9.9812,-9.9878,-9.9751,-9.9835,-9.9881,-9.9745,-9.9671,-9.9608,-9.9472,-9.9675,-9.9731,-9.9587,-9.9518,-9.9561,-9.9453,-9.9472,-9.9349,-9.9287,-9.9231,-9.9231,-9.9371,-9.9434,-9.9234,-9.9304,-9.9176,-9.9342,-9.9357,-9.9278,-9.9296,-9.9289,-9.9204,-9.9179,-9.9302,-9.9284,-9.9315,-9.931,-9.9384,-9.9322,-9.9209,-9.9419,-9.9358,-9.9282,-9.941,-9.9348,-9.9389,-9.9489,-9.9391,-9.9506,-9.9372,-9.9385,-9.9524,-9.9445,-9.941,-9.9509,-9.959,-9.9529,-9.9484,-9.9346,-9.9386,-9.943,-9.9359,-9.9433,-9.9457,-9.9425,-9.9416,-9.9377,-9.9368,-9.9316,-9.9391,-9.9551,-9.9379,-9.9378,-9.946,-9.9326,-9.9489,-9.9586,-9.9509,-9.9506,-9.9356,-9.9293,-9.94,-9.929,-9.9368,-9.9528,-9.9462,-9.9426,-9.9344,-9.9349,-9.935,-9.9422,-9.9426,-9.9398,-9.9408,-9.9385,-9.9437,-9.9578,-9.9491,-9.9383,-9.9293,-9.9375,-9.9378,-9.9389,-9.9438,-9.9309,-9.9139,-9.9274,-9.9292,-9.9279,-9.9125,-9.9016,-9.9024,-9.8957,-9.8765,-9.866,-9.872,-9.8666,-9.8299,-9.8274,-9.8031,-9.8027,-9.8093,-9.7963,-9.7923,-9.8114,-9.8298,-9.8259,-9.8247,-9.8368,-9.8824,-9.8746,-9.8925,-9.8881,-9.8904,-9.8896,-9.8908,-9.8906,-9.8929,-9.8925,-9.8951,-9.8926,-9.8887,-9.8777,-9.8573,-9.8613,-9.887,-9.9366,-9.969,-9.9706,-9.8534,-9.5962,-9.3486,-9.0694,-8.9448,-9.2504,-9.3677,-9.4962,-9.6459,-9.8584,-9.9228,-9.8943,-10.003,-9.9637,-9.897,-9.8318,-9.8098,-9.7716,-9.7762,-9.7686,-9.7733,-9.7417,-9.7319,-9.7223,-9.7195,-9.7012,-9.7114,-9.6951,-9.7054,-9.6821,-9.677,-9.6505,-9.6584,-9.6342,-9.6216,-9.6194,-9.6108,-9.5882,-9.5902,-9.5665,-9.5454,-9.5125,-9.5251,-9.5023,-9.4827,-9.4628,-9.4581,-9.4164,-9.382,-9.3683,-9.3511,-9.3266,-9.3025,-9.2784,-9.2465,-9.217,-9.2011,-9.1832,-9.1695,-9.149,-9.1111,-9.1114,-9.1015,-9.0979,-9.0921,-9.093,-9.0962,-9.124,-9.1549,-9.1774,-9.2143,-9.2527,-9.291,-9.3307,-9.354,-9.3948,-9.4331,-9.456,-9.4822,-9.502,-9.5088,-9.5146,-9.5307,-9.5418,-9.5471,-9.5649,-9.5514,-9.5376,-9.5361,-9.5536,-9.5655,-9.5674,-9.5638,-9.5677,-9.5601,-9.5685,-9.5707,-9.5672,-9.5478,-9.5611,-9.555,-9.5584,-9.5436,-9.538,-9.5266,-9.5424,-9.5483,-9.5475,-9.5369,-9.5295,-9.5268,-9.5239,-9.5215,-9.5228,-9.5307,-9.527,-9.5126,-9.514,-9.5098,-9.4975,-9.4979,-9.5057,-9.501,-9.5132,-9.5082,-9.5082,-9.4863,-9.488,-9.498,-9.5083,-9.4956,-9.5016,-9.5066,-9.5175,-9.5055,-9.5019,-9.5151,-9.5195,-9.524,-9.5304,-9.5295,-9.5341,-9.5211,-9.5329,-9.5239,-9.519,-9.5172,-9.5288,-9.5424,-9.5432,-9.5407,-9.5268,-9.5381,-9.5389,-9.5435,-9.542,-9.5444,-9.5449,-9.5568,-9.5577,-9.5452,-9.5435,-9.5548,-9.5496,-9.5592,-9.5601,-9.5705,-9.5695,-9.5647,-9.5646,-9.5666,-9.5696,-9.5591,-9.5551,-9.5391,-9.5359,-9.5322,-9.5367,-9.5439,-9.534,-9.528,-9.5114,-9.4872,-9.4842,-9.4928,-9.5007,-9.5055,-9.5172,-9.5274,-9.5303,-9.5415,-9.5619,-9.6009,-9.6171,-9.6226,-9.6179,-9.6314,-9.6355,-9.6492,-9.636,-9.6354,-9.6383,-9.6325,-9.6361,-9.6398,-9.6529,-9.6513,-9.6581,-9.6707,-9.707,-9.739,-9.7238,-9.5982,-9.3332,-9.1144,-8.8575,-8.7683,-9.0884,-9.2502,-9.396,-9.6274,-9.7715,-9.7787,-9.8451,-9.87,-9.7887,-9.7344,-9.6624,-9.6584,-9.6234,-9.6337,-9.622,-9.6349,-9.6237,-9.629,-9.6152,-9.6044,-9.5828,-9.5851,-9.5855,-9.5799,-9.5776,-9.5697,-9.5651,-9.5626,-9.5516,-9.5401,-9.5181,-9.5177,-9.504,-9.507,-9.4777,-9.463,-9.4615,-9.4535,-9.4512,-9.4318,-9.4064,-9.3976,-9.3802,-9.3579,-9.3336,-9.3125,-9.3137,-9.2845,-9.2563,-9.2522,-9.2322,-9.222,-9.1962,-9.1799,-9.1743,-9.1637,-9.1623,-9.1565,-9.1598,-9.1593,-9.1829,-9.1991,-9.2285,-9.2664,-9.3066,-9.3467,-9.3719,-9.4363,-9.4791,-9.5099,-9.545,-9.5687,-9.5988,-9.6239,-9.6428,-9.6439,-9.6691,-9.6866,-9.7025,-9.7163,-9.7138,-9.7059,-9.7311,-9.7241,-9.7307,-9.7376,-9.7353,-9.736,-9.7419,-9.7352,-9.7361,-9.7526,-9.7546,-9.7481,-9.736,-9.7418,-9.7478,-9.7513,-9.7504,-9.75,-9.7479,-9.7477,-9.742,-9.7469,-9.7394,-9.7305,-9.7329,-9.7365,-9.7333,-9.7262,-9.7364,-9.7338,-9.7285,-9.7251,-9.7205,-9.7179,-9.7251,-9.7252,-9.7247,-9.7166,-9.7203,-9.725,-9.7381,-9.7383,-9.7421,-9.7392,-9.7418,-9.7411,-9.7591,-9.7658,-9.7643,-9.775,-9.7664,-9.7683,-9.791,-9.791,-9.7921,-9.7872,-9.7853,-9.788,-9.8,-9.7989,-9.791,-9.792,-9.8017,-9.8052,-9.8041,-9.8001,-9.8046,-9.7996,-9.8067,-9.8131,-9.825,-9.8255,-9.8251,-9.8245,-9.819,-9.8198,-9.8258,-9.8304,-9.8263,-9.8263,-9.8344,-9.8424,-9.8454,-9.839,-9.8428,-9.842,-9.84,-9.8371,-9.84,-9.8553,-9.8511,-9.8526,-9.8584,-9.8688,-9.8632,-9.861,-9.8679,-9.8685,-9.8821,-9.8778,-9.8807,-9.8757,-9.8721,-9.8776,-9.8879,-9.8951,-9.8941,-9.8884,-9.894,-9.902,-9.8978,-9.8919,-9.8881,-9.9011,-9.8917,-9.8948,-9.8986,-9.9057,-9.9054,-9.9026,-9.914,-9.9104,-9.9041,-9.9176,-9.9138,-9.9084,-9.9092,-9.9031,-9.8879,-9.8808,-9.8823,-9.8814,-9.8659,-9.8608,-9.831,-9.8173,-9.8259,-9.8459,-9.8518,-9.8611,-9.8691,-9.8784,-9.8662,-9.8727,-9.9051,-9.943,-9.9525,-9.9568,-9.9564,-9.9545,-9.953,-9.9575,-9.9545,-9.9569,-9.9651,-9.9642,-9.9606,-9.9708,-9.9638,-9.9624,-9.982,-10.018,-10.046,-10.065,-10.014,-9.8337,-9.5791,-9.3248,-9.0822,-9.1541,-9.4745,-9.5963,-9.7247,-10.043,-10.148,-10.147,-10.173,-10.091,-10.044,-9.9748,-9.9615,-9.9401,-9.9379,-9.9357,-9.9432,-9.9402,-9.9302,-9.9257,-9.9166,-9.9047,-9.8877,-9.8781,-9.8848,-9.8972,-9.8796,-9.8742,-9.8647,-9.8542,-9.8411,-9.841,-9.8346,-9.821,-9.8148,-9.8079,-9.7959,-9.7825,-9.7691,-9.7507,-9.7385,-9.729,-9.7165,-9.6978,-9.6727,-9.6563,-9.645,-9.6191,-9.5958,-9.577,-9.563,-9.542,-9.522,-9.5108,-9.4965,-9.4776,-9.4738,-9.4598,-9.4562,-9.4517,-9.4561,-9.4642,-9.4701,-9.4922,-9.5221,-9.5503,-9.6012,-9.6328,-9.6823,-9.7193,-9.7587,-9.7939,-9.8264,-9.8447,-9.8701,-9.9085,-9.9313,-9.9421,-9.9539,-9.9652,-9.9664,-9.9785,-9.9853,-9.9898,-9.9873,-10.004,-10.001,-10.01,-10.012,-10.008,-10.011,-10.004,-10.009,-10.007,-10.001,-10.019,-10.011,-10.005,-10.008,-10.007,-10.004,-10.011,-10.008,-10.004,-10.007,-9.9981,-9.9938,-9.9817,-9.984,-9.9742,-9.9749,-9.9865,-9.9807,-9.981,-9.9779,-9.9702,-9.9661,-9.9719,-9.9715,-9.9697,-9.9798,-9.9806,-9.9845,-9.9714,-9.9728,-9.9736,-9.9753,-9.9868,-9.9872,-9.9945,-9.9953,-9.9963,-9.9968,-9.9996,-9.9972,-9.9968,-10.007,-10.011,-9.9998,-10.009,-10.012,-10.013,-10.018,-10.02,-10.015,-10.015,-10.022,-10.021,-10.018,-10.012,-10.014,-10.013,-10.01,-10.024,-10.029,-10.019,-10.014,-10.014,-10.013,-10.007,-10.021,-10.025,-10.027,-10.027,-10.033,-10.027,-10.023,-10.027,-10.027,-10.036,-10.031,-10.039,-10.034,-10.034,-10.029,-10.028,-10.045,-10.04,-10.04,-10.043,-10.037,-10.041,-10.042,-10.036,-10.039,-10.044,-10.045,-10.046,-10.044,-10.054,-10.054,-10.055,-10.054,-10.053,-10.046,-10.049,-10.053,-10.053,-10.051,-10.048,-10.051,-10.056,-10.044,-10.048,-10.055,-10.064,-10.063,-10.059,-10.058,-10.056,-10.052,-10.054,-10.069,-10.056,-10.054,-10.057,-10.058,-10.061,-10.063,-10.064,-10.067,-10.062,-10.058,-10.053,-10.051,-10.054,-10.049,-10.029,-10.022,-10.02,-10.02,-10.014,-9.9975,-9.9735,-9.9581,-9.9584,-9.9791,-9.9779,-9.9869,-10.001,-10.008,-10.006,-10.01,-10.047,-10.068,-10.084,-10.083,-10.091,-10.084,-10.076,-10.068,-10.071,-10.081,-10.09,-10.09,-10.091,-10.085,-10.078,-10.079,-10.089,-10.095,-10.138,-10.165,-10.118,-9.9641,-9.7018,-9.4605,-9.1993,-9.1963,-9.5495,-9.6839,-9.7388,-9.9068,-10.168,-10.218,-10.245,-10.231,-10.127,-10.081,-10.018,-10.024,-10.002,-10,-9.9852,-9.9789,-9.9607,-9.9692,-9.9601,-9.9503,-9.9312,-9.9312,-9.9168,-9.9191,-9.9069,-9.9062,-9.8941,-9.8893,-9.8682,-9.8572,-9.8444,-9.8475,-9.8325,-9.8266,-9.8106,-9.796,-9.7766,-9.7776,-9.7614,-9.753,-9.7327,-9.721,-9.7053,-9.6818,-9.6658,-9.6366,-9.6226,-9.5891,-9.5766,-9.5526,-9.5417,-9.523,-9.5055,-9.4809,-9.464,-9.4556,-9.4473,-9.4367,-9.4339,-9.4467,-9.4594,-9.4617,-9.4898,-9.5132,-9.5536,-9.5923,-9.6321,-9.6715,-9.706,-9.749,-9.7819,-9.8143,-9.8472,-9.8704,-9.9028,-9.9101,-9.9245,-9.9329,-9.9443,-9.9488,-9.9596,-9.9603,-9.9594,-9.9594,-9.9544,-9.9642,-9.9667,-9.9698,-9.9744,-9.9748,-9.9787,-9.9784,-9.9733,-9.9736,-9.9851,-9.9824,-9.974,-9.9725,-9.9624,-9.9636,-9.9658,-9.9633,-9.9594,-9.9585,-9.9509,-9.9418,-9.9408,-9.9425,-9.9289,-9.9217,-9.9181,-9.9224,-9.9242,-9.9198,-9.911,-9.9002,-9.8916,-9.9003,-9.9023,-9.9031,-9.9085,-9.9015,-9.896,-9.8919,-9.8914,-9.8985,-9.9093,-9.909,-9.9014,-9.9061,-9.9075,-9.9042,-9.9035,-9.9045,-9.9036,-9.9041,-9.9068,-9.9128,-9.9149,-9.9099,-9.9139,-9.9039,-9.9005,-9.9129,-9.8991,-9.899,-9.9076,-9.9027,-9.911,-9.908,-9.9109,-9.9043,-9.9046,-9.9057,-9.8972,-9.9006,-9.899,-9.8986,-9.9083,-9.8942,-9.8951,-9.8926,-9.9013,-9.8995,-9.9073,-9.9033,-9.8868,-9.8918,-9.8984,-9.895,-9.886,-9.8779,-9.8822,-9.8853,-9.8879,-9.886,-9.8883,-9.8804,-9.8775,-9.8704,-9.8753,-9.8822,-9.885,-9.884,-9.8765,-9.8704,-9.8688,-9.867,-9.8572,-9.8543,-9.8526,-9.8427,-9.8444,-9.8569,-9.8533,-9.8576,-9.8556,-9.8488,-9.8325,-9.8336,-9.8221,-9.8202,-9.8144,-9.798,-9.79,-9.7933,-9.775,-9.7487,-9.7286,-9.7238,-9.7187,-9.7247,-9.7239,-9.7272,-9.7364,-9.7472,-9.7461,-9.7481,-9.7651,-9.782,-9.801,-9.8187,-9.8179,-9.8181,-9.8123,-9.8138,-9.8083,-9.8024,-9.8014,-9.8037,-9.8094,-9.8097,-9.8081,-9.7987,-9.7963,-9.8072,-9.8593,-9.8927,-9.8684,-9.8039,-9.5805,-9.3102,-9.0361,-8.8837,-9.0986,-9.3323,-9.5101,-9.6557,-9.8086,-9.7916,-9.8098,-9.9045,-9.8585,-9.8056,-9.7503,-9.7153,-9.6977,-9.6815,-9.6707,-9.6736,-9.6595,-9.6615,-9.6445,-9.631,-9.6129,-9.6212,-9.6193,-9.6021,-9.5814,-9.5756,-9.5657,-9.5602,-9.5343,-9.5245,-9.5186,-9.5043,-9.4976,-9.5015,-9.493,-9.4755,-9.4492,-9.4312,-9.4133,-9.4034,-9.3897,-9.3796,-9.3694,-9.3481,-9.3181,-9.2997,-9.2737,-9.2564,-9.2319,-9.2086,-9.1822,-9.1663,-9.1428,-9.1346,-9.1298,-9.1171,-9.0979,-9.0961,-9.1019,-9.1037,-9.1108,-9.124,-9.1473,-9.1712,-9.2112,-9.2666,-9.3073,-9.3423,-9.3853,-9.4165,-9.4585,-9.4914,-9.5133,-9.5394,-9.56,-9.5702,-9.5917,-9.603,-9.6094,-9.6096,-9.6158,-9.6264,-9.6383,-9.6353,-9.6404,-9.6429,-9.6559,-9.6568,-9.6578,-9.6449,-9.6561,-9.6541,-9.6503,-9.6487,-9.6516,-9.6576,-9.6575,-9.6555,-9.6449,-9.6482,-9.655,-9.6465,-9.6444,-9.6423,-9.6428,-9.6431,-9.6381,-9.624,-9.6363,-9.6347,-9.639,-9.6345,-9.6317,-9.6212,-9.6243,-9.6187,-9.6205,-9.6115,-9.6197,-9.6185,-9.6242,-9.6298,-9.629,-9.6324,-9.6367,-9.6422,-9.6447,-9.6474,-9.6472,-9.6467,-9.6523,-9.6555,-9.6615,-9.6672,-9.6585,-9.6609,-9.6595,-9.6653,-9.6725,-9.677,-9.6809,-9.6809,-9.6784,-9.6845,-9.6811,-9.6727,-9.679,-9.6981,-9.6926,-9.6967,-9.701,-9.7044,-9.7028,-9.6997,-9.701,-9.7078,-9.7079,-9.712,-9.7172,-9.7185,-9.7182,-9.7211,-9.7148,-9.7107,-9.7179,-9.7234,-9.7226,-9.7326,-9.7254,-9.7288,-9.7246,-9.7353,-9.7395,-9.7385,-9.7419,-9.7458,-9.7396,-9.7453,-9.7366,-9.7323,-9.725,-9.7126,-9.72,-9.7209,-9.7112,-9.7061,-9.6916,-9.6644,-9.6693,-9.6825,-9.6809,-9.7037,-9.7118,-9.7188,-9.7231,-9.7117,-9.7337,-9.762,-9.7992,-9.8113,-9.8073,-9.8155,-9.8142,-9.8182,-9.8319,-9.8253,-9.8222,-9.8285,-9.8413,-9.848,-9.839,-9.8386,-9.8462,-9.8554,-9.8853,-9.9315,-9.934,-9.8216,-9.5946,-9.3376,-9.0714,-8.9166,-9.215,-9.4129,-9.5312,-9.7342,-9.9501,-10.015,-10.058,-10.046,-9.9362,-9.8919,-9.8572,-9.8536,-9.8283,-9.8292,-9.8141,-9.8294,-9.8185,-9.8226,-9.808,-9.8143,-9.8028,-9.8011,-9.7808,-9.7744,-9.7625,-9.7697,-9.7716,-9.7724,-9.7471,-9.7508,-9.7433,-9.7388,-9.7249,-9.716,-9.7003,-9.6884,-9.6802,-9.6655,-9.6561,-9.6421,-9.6279,-9.6118,-9.5901,-9.5787,-9.5631,-9.5481,-9.523,-9.5109,-9.4831,-9.4709,-9.4543,-9.4377,-9.4148,-9.4022,-9.3852,-9.3701,-9.3705,-9.3829,-9.3821,-9.3867,-9.3987,-9.4049,-9.4388,-9.4786,-9.518,-9.5533,-9.609,-9.6481,-9.698,-9.7249,-9.7609,-9.7937,-9.8208,-9.8515,-9.8742,-9.886,-9.9064,-9.9237,-9.9286,-9.9405,-9.9411,-9.9436,-9.9453,-9.9464,-9.9511,-9.9553,-9.9591,-9.9636,-9.9689,-9.9611,-9.9704,-9.9721,-9.977,-9.9729,-9.9696,-9.9643,-9.971,-9.9657,-9.965,-9.9707,-9.9776,-9.9641,-9.9575,-9.9568,-9.9668,-9.9701,-9.9659,-9.9578,-9.9481,-9.9457,-9.9482,-9.9488,-9.9472,-9.9599,-9.9482,-9.9421,-9.9469,-9.9436,-9.9465,-9.9447,-9.9439,-9.9414,-9.9531,-9.9497,-9.9499,-9.9548,-9.9536,-9.9522,-9.9626,-9.958,-9.9702,-9.9725,-9.9772,-9.9807,-9.9834,-9.9821,-9.9882,-9.9764,-9.9843,-9.9914,-9.9956,-9.9921,-9.9904,-9.998,-9.9991,-9.9933,-9.9933,-9.9997,-9.9967,-9.9945,-10,-10.009,-10.001,-10.001,-10.008,-10.012,-10.015,-10.013,-10.017,-10.018,-10.022,-10.025,-10.027,-10.03,-10.024,-10.024,-10.022,-10.02,-10.021,-10.022,-10.028,-10.034,-10.027,-10.031,-10.038,-10.028,-10.025,-10.023,-10.025,-10.039,-10.038,-10.031,-10.046,-10.043,-10.038,-10.046,-10.044,-10.047,-10.045,-10.042,-10.047,-10.053,-10.045,-10.053,-10.054,-10.054,-10.054,-10.056,-10.062,-10.058,-10.06,-10.056,-10.062,-10.068,-10.056,-10.055,-10.053,-10.043,-10.036,-10.028,-10.028,-10.037,-10.03,-10.003,-9.9827,-9.967,-9.9493,-9.9706,-9.9753,-9.9905,-10.005,-10.02,-10.012,-10.01,-10.019,-10.052,-10.072,-10.074,-10.081,-10.087,-10.088,-10.092,-10.096,-10.09,-10.087,-10.089,-10.099,-10.097,-10.09,-10.094,-10.09,-10.104,-10.141,-10.18,-10.163,-10.037,-9.7901,-9.6578,-9.4188,-9.1743,-9.308,-9.6111,-9.7367,-9.8537,-10.167,-10.242,-10.258,-10.275,-10.189,-10.137,-10.08,-10.059,-10.044,-10.038,-10.04,-10.037,-10.036,-10.037,-10.026,-10.017,-10.008,-9.9941,-9.9913,-9.9795,-9.9815,-9.9788,-9.964,-9.9539,-9.9456,-9.9462,-9.9391,-9.9306,-9.9191,-9.8994,-9.8923,-9.8872,-9.8768,-9.8675,-9.8471,-9.8188,-9.8158,-9.8058,-9.7958,-9.7773,-9.758,-9.7429,-9.7149,-9.6874,-9.6604,-9.6468,-9.6256,-9.6069,-9.591,-9.5775,-9.5698,-9.5485,-9.5453,-9.5394,-9.5351,-9.5419,-9.5474,-9.5519,-9.576,-9.6005,-9.6389,-9.6789,-9.7207,-9.7673,-9.8129,-9.8545,-9.888,-9.9214,-9.9499,-9.9751,-10.003,-10.027,-10.041,-10.048,-10.066,-10.066,-10.071,-10.078,-10.08,-10.087,-10.091,-10.09,-10.086,-10.097,-10.099,-10.099,-10.1,-10.099,-10.105,-10.098,-10.09,-10.085,-10.084,-10.095,-10.094,-10.097,-10.09,-10.083,-10.077,-10.084,-10.082,-10.088,-10.089,-10.074,-10.063,-10.058,-10.062,-10.059,-10.057,-10.057,-10.048,-10.048,-10.048,-10.052,-10.057,-10.058,-10.061,-10.052,-10.056,-10.059,-10.052,-10.056,-10.064,-10.069,-10.073,-10.075,-10.077,-10.076,-10.083,-10.075,-10.081,-10.09,-10.091,-10.085,-10.084,-10.085,-10.078,-10.085,-10.09,-10.096,-10.087,-10.085,-10.086,-10.092,-10.091,-10.085,-10.084,-10.093,-10.109,-10.102,-10.1,-10.099,-10.092,-10.084,-10.101,-10.102,-10.098,-10.098,-10.101,-10.096,-10.102,-10.104,-10.107,-10.098,-10.098,-10.094,-10.095,-10.095,-10.098,-10.098,-10.091,-10.097,-10.103,-10.105,-10.098,-10.098,-10.102,-10.11,-10.111,-10.104,-10.095,-10.102,-10.098,-10.106,-10.105,-10.11,-10.114,-10.111,-10.103,-10.11,-10.115,-10.112,-10.112,-10.114,-10.102,-10.092,-10.09,-10.096,-10.115,-10.125,-10.129,-10.122,-10.118,-10.117,-10.12,-10.114,-10.105,-10.112,-10.112,-10.109,-10.108,-10.111,-10.119,-10.117,-10.116,-10.114,-10.098,-10.086,-10.077,-10.073,-10.088,-10.077,-10.066,-10.035,-10.017,-10.021,-10.041,-10.036,-10.042,-10.055,-10.054,-10.058,-10.059,-10.088,-10.119,-10.135,-10.136,-10.141,-10.145,-10.145,-10.137,-10.135,-10.14,-10.149,-10.149,-10.15,-10.153,-10.149,-10.15,-10.155,-10.157,-10.192,-10.235,-10.244,-10.137,-9.9058,-9.6588,-9.4005,-9.2108,-9.4897,-9.7196,-9.834,-10.011,-10.258,-10.303,-10.327,-10.327,-10.227,-10.185,-10.123,-10.126,-10.1,-10.104,-10.079,-10.092,-10.082,-10.085,-10.074,-10.074,-10.056,-10.049,-10.031,-10.033,-10.023,-10.03,-10.019,-10.009,-9.9888,-9.9877,-9.9682,-9.965,-9.9551,-9.9595,-9.9463,-9.9329,-9.9169,-9.8963,-9.8882,-9.8796,-9.8664,-9.8456,-9.8264,-9.8145,-9.7936,-9.7715,-9.7449,-9.7321,-9.7147,-9.6913,-9.6777,-9.6587,-9.6406,-9.6304,-9.6098,-9.5964,-9.5889,-9.5805,-9.5737,-9.5712,-9.5807,-9.5936,-9.6287,-9.6604,-9.6958,-9.7338,-9.7771,-9.8137,-9.8585,-9.8942,-9.9125,-9.9432,-9.978,-9.9935,-10.03,-10.051,-10.066,-10.079,-10.084,-10.095,-10.102,-10.098,-10.106,-10.107,-10.113,-10.11,-10.117,-10.126,-10.127,-10.124,-10.123,-10.115,-10.109,-10.115,-10.106,-10.113,-10.119,-10.115,-10.117,-10.111,-10.106,-10.099,-10.1,-10.098,-10.098,-10.091,-10.088,-10.074,-10.069,-10.064,-10.064,-10.069,-10.067,-10.055,-10.055,-10.047,-10.05,-10.039,-10.045,-10.052,-10.051,-10.053,-10.054,-10.054,-10.055,-10.051,-10.053,-10.062,-10.063,-10.054,-10.058,-10.057,-10.059,-10.058,-10.069,-10.073,-10.072,-10.069,-10.062,-10.06,-10.067,-10.07,-10.067,-10.071,-10.072,-10.077,-10.079,-10.07,-10.065,-10.066,-10.079,-10.08,-10.061,-10.06,-10.07,-10.08,-10.074,-10.07,-10.071,-10.068,-10.07,-10.071,-10.07,-10.072,-10.071,-10.059,-10.065,-10.068,-10.072,-10.071,-10.064,-10.059,-10.058,-10.066,-10.059,-10.066,-10.061,-10.056,-10.048,-10.053,-10.068,-10.069,-10.071,-10.071,-10.068,-10.07,-10.071,-10.074,-10.066,-10.069,-10.071,-10.067,-10.055,-10.058,-10.06,-10.057,-10.065,-10.062,-10.057,-10.058,-10.057,-10.051,-10.044,-10.05,-10.055,-10.056,-10.057,-10.049,-10.049,-10.047,-10.049,-10.036,-10.024,-10.012,-10.014,-10.016,-9.9894,-9.9748,-9.9552,-9.942,-9.9461,-9.9624,-9.9585,-9.9641,-9.9793,-9.9726,-9.9732,-9.9842,-9.9897,-10.029,-10.048,-10.047,-10.05,-10.048,-10.044,-10.046,-10.04,-10.041,-10.034,-10.035,-10.036,-10.029,-10.027,-10.031,-10.036,-10.051,-10.078,-10.108,-10.089,-9.9482,-9.6838,-9.4377,-9.1738,-9.1171,-9.4521,-9.6212,-9.7658,-9.98,-10.071,-10.061,-10.11,-10.143,-10.073,-10.043,-9.9688,-9.9513,-9.937,-9.9285,-9.9204,-9.9212,-9.9196,-9.908,-9.9006,-9.8809,-9.8732,-9.8709,-9.848,-9.8498,-9.8423,-9.8296,-9.8235,-9.8128,-9.811,-9.8128,-9.7945,-9.7818,-9.7664,-9.7635,-9.7529,-9.7436,-9.731,-9.7023,-9.6993,-9.6855,-9.6705,-9.6473,-9.6298,-9.6057,-9.576,-9.5556,-9.5305,-9.5081,-9.4913,-9.4608,-9.4442,-9.4238,-9.3963,-9.3863,-9.3741,-9.3543,-9.3532,-9.3426,-9.3422,-9.3411,-9.3592,-9.3697,-9.3858,-9.4078,-9.4384,-9.4972,-9.5413,-9.5766,-9.6182,-9.6572,-9.6867,-9.7119,-9.738,-9.7479,-9.7685,-9.7844,-9.8023,-9.8189,-9.8246,-9.82,-9.8313,-9.8431,-9.8362,-9.8416,-9.8466,-9.841,-9.8441,-9.8391,-9.8445,-9.8452,-9.8319,-9.8235,-9.8293,-9.8253,-9.8287,-9.8203,-9.8127,-9.8124,-9.8119,-9.8177,-9.8127,-9.8075,-9.8087,-9.8016,-9.7985,-9.7898,-9.7879,-9.7966,-9.7934,-9.7986,-9.7866,-9.78,-9.7831,-9.7816,-9.782,-9.7763,-9.7734,-9.7682,-9.7718,-9.7707,-9.7748,-9.7771,-9.7805,-9.7838,-9.7783,-9.784,-9.7843,-9.7866,-9.791,-9.7919,-9.7869,-9.7904,-9.7917,-9.792,-9.796,-9.7867,-9.7954,-9.8024,-9.8023,-9.8085,-9.8045,-9.8058,-9.8013,-9.8016,-9.8133,-9.8078,-9.8134,-9.8041,-9.8048,-9.8125,-9.8087,-9.8121,-9.8106,-9.8246,-9.8186,-9.8143,-9.8143,-9.8251,-9.8228,-9.8202,-9.8209,-9.8291,-9.8382,-9.8379,-9.8335,-9.8404,-9.8417,-9.8364,-9.8227,-9.8167,-9.7992,-9.8122,-9.8172,-9.8245,-9.8143,-9.7971,-9.7869,-9.7623,-9.7602,-9.7653,-9.776,-9.784,-9.798,-9.8092,-9.8057,-9.8069,-9.8396,-9.873,-9.9008,-9.9105,-9.9094,-9.9103,-9.9127,-9.9177,-9.9105,-9.9027,-9.9081,-9.9271,-9.9316,-9.9274,-9.9302,-9.9189,-9.9382,-9.9567,-10.003,-10.03,-10.005,-9.8521,-9.585,-9.3392,-9.082,-9.0156,-9.2591,-9.4835,-9.655,-9.8179,-10.038,-10.077,-10.116,-10.148,-10.055,-10.008,-9.9466,-9.9466,-9.9289,-9.9199,-9.9153,-9.9247,-9.9279,-9.9239,-9.9091,-9.9114,-9.8985,-9.889,-9.8758,-9.8756,-9.8695,-9.8624,-9.8721,-9.8715,-9.8657,-9.8519,-9.8392,-9.8303,-9.8075,-9.8031,-9.7957,-9.7888,-9.7815,-9.7649,-9.752,-9.746,-9.7341,-9.7182,-9.7051,-9.6889,-9.666,-9.6463,-9.6307,-9.6124,-9.5882,-9.5604,-9.5507,-9.5296,-9.5106,-9.5021,-9.4994,-9.4908,-9.4829,-9.4833,-9.4805,-9.4842,-9.4946,-9.5167,-9.5558,-9.5994,-9.6358,-9.6796,-9.7217,-9.7679,-9.8033,-9.8408,-9.867,-9.9159,-9.9494,-9.9669,-9.9873,-10.004,-10.017,-10.027,-10.03,-10.023,-10.034,-10.044,-10.059,-10.062,-10.062,-10.062,-10.068,-10.068,-10.07,-10.063,-10.064,-10.065,-10.068,-10.071,-10.072,-10.072,-10.073,-10.067,-10.069,-10.076,-10.07,-10.07,-10.067,-10.06,-10.059,-10.056,-10.051,-10.057,-10.057,-10.061,-10.063,-10.056,-10.051,-10.045,-10.044,-10.04,-10.038,-10.044,-10.047,-10.041,-10.037,-10.035,-10.037,-10.039,-10.044,-10.047,-10.044,-10.036,-10.043,-10.05,-10.058,-10.058,-10.057,-10.058,-10.063,-10.064,-10.058,-10.058,-10.058,-10.067,-10.07,-10.061,-10.069,-10.073,-10.071,-10.074,-10.07,-10.069,-10.074,-10.08,-10.076,-10.078,-10.085,-10.084,-10.076,-10.071,-10.092,-10.095,-10.098,-10.098,-10.095,-10.098,-10.096,-10.097,-10.096,-10.1,-10.1,-10.094,-10.095,-10.105,-10.103,-10.112,-10.103,-10.102,-10.106,-10.103,-10.113,-10.115,-10.116,-10.119,-10.115,-10.114,-10.116,-10.119,-10.118,-10.117,-10.119,-10.12,-10.124,-10.127,-10.114,-10.11,-10.103,-10.093,-10.092,-10.099,-10.09,-10.076,-10.073,-10.054,-10.032,-10.038,-10.038,-10.037,-10.047,-10.064,-10.071,-10.074,-10.089,-10.105,-10.14,-10.152,-10.164,-10.167,-10.154,-10.152,-10.15,-10.153,-10.169,-10.169,-10.166,-10.169,-10.171,-10.173,-10.162,-10.169,-10.194,-10.225,-10.256,-10.214,-10.056,-9.8043,-9.5605,-9.2931,-9.2798,-9.6376,-9.7161,-9.8481,-10.031,-10.265,-10.33,-10.356,-10.339,-10.233,-10.196,-10.138,-10.144,-10.116,-10.124,-10.107,-10.107,-10.088,-10.098,-10.074,-10.081,-10.065,-10.074,-10.053,-10.057,-10.038,-10.046,-10.029,-10.02,-10.017,-10.016,-10.001,-9.9982,-9.9804,-9.968,-9.9545,-9.9478,-9.9329,-9.919,-9.8995,-9.8843,-9.8667,-9.8596,-9.8422,-9.8223,-9.8076,-9.7877,-9.7664,-9.7425,-9.7215,-9.7061,-9.6826,-9.6626,-9.6511,-9.6401,-9.6234,-9.6029,-9.6011,-9.6027,-9.6057,-9.6117,-9.6171,-9.6209,-9.6461,-9.6894,-9.7344,-9.7694,-9.8136,-9.8483,-9.8994,-9.9407,-9.9789,-10.003,-10.035,-10.05,-10.069,-10.091,-10.114,-10.12,-10.129,-10.134,-10.139,-10.139,-10.155,-10.156,-10.154,-10.162,-10.165,-10.166,-10.158,-10.158,-10.165,-10.164,-10.168,-10.17,-10.169,-10.162,-10.166,-10.158,-10.167,-10.155,-10.157,-10.152,-10.155,-10.148,-10.154,-10.147,-10.146,-10.152,-10.152,-10.143,-10.13,-10.127,-10.121,-10.121,-10.132,-10.143,-10.135,-10.127,-10.128,-10.133,-10.133,-10.138,-10.137,-10.137,-10.136,-10.135,-10.146,-10.14,-10.143,-10.155,-10.155,-10.151,-10.155,-10.158,-10.17,-10.164,-10.165,-10.173,-10.169,-10.167,-10.167,-10.163,-10.17,-10.173,-10.176,-10.181,-10.172,-10.176,-10.174,-10.172,-10.166,-10.169,-10.173,-10.18,-10.18,-10.185,-10.19,-10.189,-10.188,-10.19,-10.186,-10.178,-10.176,-10.187,-10.186,-10.195,-10.193,-10.191,-10.192,-10.189,-10.19,-10.19,-10.192,-10.184,-10.187,-10.189,-10.19,-10.196,-10.194,-10.193,-10.19,-10.19,-10.195,-10.198,-10.201,-10.199,-10.206,-10.203,-10.207,-10.209,-10.207,-10.205,-10.203,-10.202,-10.204,-10.203,-10.208,-10.209,-10.203,-10.205,-10.203,-10.194,-10.208,-10.218,-10.21,-10.2,-10.191,-10.183,-10.174,-10.177,-10.178,-10.164,-10.147,-10.126,-10.114,-10.119,-10.124,-10.131,-10.143,-10.156,-10.17,-10.163,-10.16,-10.184,-10.208,-10.225,-10.236,-10.241,-10.243,-10.245,-10.243,-10.243,-10.243,-10.25,-10.241,-10.244,-10.243,-10.245,-10.249,-10.251,-10.26,-10.296,-10.34,-10.342,-10.226,-9.9892,-9.7395,-9.4732,-9.2968,-9.6037,-9.8295,-9.9545,-10.155,-10.363,-10.402,-10.44,-10.432,-10.321,-10.307,-10.233,-10.216,-10.195,-10.198,-10.193,-10.204,-10.196,-10.193,-10.179,-10.172,-10.149,-10.149,-10.137,-10.14,-10.13,-10.136,-10.127,-10.113,-10.104,-10.103,-10.084,-10.073,-10.046,-10.04,-10.045,-10.037,-10.024,-10.006,-9.9956,-9.9743,-9.9558,-9.9352,-9.9296,-9.9084,-9.8819,-9.8606,-9.844,-9.8195,-9.8013,-9.7908,-9.7684,-9.7461,-9.7339,-9.723,-9.696,-9.6817,-9.68,-9.6729,-9.6696,-9.675,-9.6836,-9.6952,-9.721,-9.7554,-9.8034,-9.8465,-9.8844,-9.9295,-9.9712,-9.9931,-10.034,-10.066,-10.096,-10.119,-10.14,-10.169,-10.189,-10.204,-10.209,-10.215,-10.219,-10.233,-10.242,-10.239,-10.242,-10.244,-10.248,-10.246,-10.244,-10.243,-10.248,-10.248,-10.248,-10.248,-10.245,-10.245,-10.247,-10.242,-10.234,-10.231,-10.234,-10.229,-10.232,-10.23,-10.222,-10.219,-10.225,-10.208,-10.208,-10.208,-10.205,-10.201,-10.197,-10.193,-10.196,-10.195,-10.189,-10.189,-10.188,-10.189,-10.189,-10.185,-10.189,-10.192,-10.191,-10.191,-10.191,-10.19,-10.19,-10.192,-10.19,-10.19,-10.186,-10.196,-10.197,-10.207,-10.205,-10.203,-10.196,-10.196,-10.199,-10.199,-10.196,-10.201,-10.193,-10.193,-10.192,-10.186,-10.191,-10.196,-10.191,-10.189,-10.194,-10.191,-10.19,-10.188,-10.189,-10.187,-10.186,-10.183,-10.175,-10.173,-10.189,-10.188,-10.183,-10.182,-10.183,-10.185,-10.178,-10.179,-10.163,-10.161,-10.173,-10.174,-10.175,-10.177,-10.168,-10.17,-10.171,-10.166,-10.157,-10.163,-10.173,-10.164,-10.167,-10.167,-10.162,-10.159,-10.165,-10.166,-10.17,-10.166,-10.167,-10.158,-10.159,-10.151,-10.145,-10.155,-10.163,-10.159,-10.156,-10.156,-10.148,-10.157,-10.159,-10.154,-10.148,-10.147,-10.149,-10.15,-10.142,-10.144,-10.152,-10.142,-10.14,-10.129,-10.115,-10.101,-10.113,-10.103,-10.085,-10.059,-10.049,-10.045,-10.054,-10.055,-10.063,-10.069,-10.077,-10.081,-10.079,-10.095,-10.124,-10.149,-10.14,-10.148,-10.154,-10.154,-10.151,-10.156,-10.148,-10.149,-10.139,-10.14,-10.151,-10.157,-10.155,-10.152,-10.153,-10.19,-10.215,-10.234,-10.145,-9.9291,-9.6756,-9.4082,-9.2163,-9.4595,-9.6925,-9.839,-9.9977,-10.214,-10.256,-10.274,-10.326,-10.233,-10.208,-10.148,-10.11,-10.081,-10.076,-10.07,-10.076,-10.059,-10.063,-10.048,-10.054,-10.028,-10.031,-10.017,-10.012,-9.9956,-9.9934,-9.987,-9.9868,-9.9766,-9.9765,-9.9648,-9.9567,-9.9404,-9.9387,-9.9203,-9.9119,-9.8937,-9.8814,-9.8648,-9.8532,-9.8292,-9.807,-9.8007,-9.7807,-9.771,-9.7481,-9.7223,-9.6884,-9.6589,-9.6475,-9.6281,-9.6203,-9.6067,-9.5777,-9.5624,-9.5491,-9.5418,-9.5407,-9.5362,-9.5325,-9.5352,-9.5465,-9.569,-9.5998,-9.6378,-9.6644,-9.7157,-9.7517,-9.7653,-9.8057,-9.8438,-9.8804,-9.9075,-9.9247,-9.9518,-9.9657,-9.9965,-10.003,-10.011,-10.019,-10.02,-10.03,-10.039,-10.038,-10.045,-10.038,-10.039,-10.043,-10.04,-10.04,-10.041,-10.035,-10.036,-10.031,-10.039,-10.046,-10.04,-10.032,-10.026,-10.017,-10.014,-10.013,-10.022,-10.01,-10.009,-10.009,-10.015,-10.003,-9.9977,-9.9996,-9.9916,-9.9861,-9.9895,-9.9875,-9.9853,-9.9801,-9.9808,-9.9825,-9.9798,-9.9812,-9.9715,-9.9741,-9.9655,-9.9702,-9.9783,-9.975,-9.978,-9.9681,-9.9636,-9.972,-9.9765,-9.9804,-9.98,-9.9789,-9.9823,-9.9827,-9.9823,-9.9801,-9.9772,-9.9774,-9.9786,-9.9769,-9.9769,-9.9765,-9.9732,-9.97,-9.9723,-9.972,-9.9772,-9.9779,-9.9696,-9.9677,-9.9615,-9.9734,-9.9627,-9.9532,-9.9644,-9.9697,-9.9707,-9.9758,-9.9634,-9.9593,-9.9604,-9.9643,-9.9662,-9.9643,-9.9578,-9.9562,-9.9618,-9.9573,-9.9532,-9.9575,-9.9607,-9.9592,-9.9494,-9.9403,-9.926,-9.9161,-9.9237,-9.9377,-9.9315,-9.914,-9.9023,-9.8769,-9.8677,-9.8796,-9.8845,-9.8779,-9.8789,-9.9015,-9.9156,-9.9141,-9.9222,-9.9438,-9.9772,-9.9972,-9.9925,-9.9901,-9.9852,-9.99,-10.006,-10.018,-10.019,-10.004,-10.014,-10.017,-10.017,-10.019,-10.017,-10.02,-10.025,-10.061,-10.103,-10.102,-9.9987,-9.7506,-9.5122,-9.2386,-9.1108,-9.3914,-9.5899,-9.7657,-9.9519,-10.111,-10.113,-10.162,-10.206,-10.161,-10.105,-10.047,-10.022,-10.005,-10.005,-9.9955,-10.001,-9.9767,-9.9913,-9.9735,-9.9732,-9.9636,-9.963,-9.9555,-9.9544,-9.9406,-9.9397,-9.9281,-9.9356,-9.9275,-9.924,-9.905,-9.9057,-9.8938,-9.8822,-9.8711,-9.8641,-9.8511,-9.8421,-9.8223,-9.8111,-9.8023,-9.7981,-9.7672,-9.7509,-9.7326,-9.7222,-9.6974,-9.6922,-9.6706,-9.6439,-9.629,-9.6164,-9.6057,-9.5984,-9.5884,-9.5796,-9.5822,-9.5774,-9.5812,-9.5769,-9.5966,-9.6268,-9.6585,-9.702,-9.736,-9.7894,-9.8419,-9.8662,-9.9073,-9.941,-9.9825,-10.021,-10.054,-10.078,-10.098,-10.108,-10.13,-10.139,-10.15,-10.158,-10.164,-10.166,-10.177,-10.18,-10.181,-10.181,-10.19,-10.194,-10.191,-10.194,-10.201,-10.211,-10.203,-10.204,-10.208,-10.2,-10.203,-10.199,-10.194,-10.196,-10.202,-10.209,-10.208,-10.2,-10.199,-10.191,-10.191,-10.189,-10.187,-10.186,-10.184,-10.185,-10.183,-10.176,-10.178,-10.178,-10.183,-10.174,-10.175,-10.177,-10.163,-10.171,-10.19,-10.199,-10.197,-10.186,-10.189,-10.196,-10.21,-10.209,-10.21,-10.221,-10.223,-10.217,-10.221,-10.216,-10.222,-10.222,-10.216,-10.226,-10.235,-10.228,-10.222,-10.224,-10.227,-10.227,-10.232,-10.234,-10.24,-10.247,-10.239,-10.24,-10.241,-10.244,-10.253,-10.252,-10.253,-10.252,-10.26,-10.256,-10.246,-10.257,-10.26,-10.26,-10.259,-10.248,-10.249,-10.254,-10.264,-10.258,-10.256,-10.249,-10.258,-10.262,-10.268,-10.264,-10.261,-10.261,-10.262,-10.251,-10.259,-10.263,-10.276,-10.261,-10.251,-10.258,-10.263,-10.273,-10.263,-10.268,-10.264,-10.263,-10.263,-10.265,-10.274,-10.268,-10.266,-10.253,-10.238,-10.227,-10.219,-10.232,-10.218,-10.204,-10.184,-10.18,-10.16,-10.173,-10.175,-10.182,-10.199,-10.211,-10.213,-10.212,-10.218,-10.253,-10.277,-10.291,-10.294,-10.295,-10.296,-10.293,-10.285,-10.289,-10.297,-10.294,-10.293,-10.296,-10.288,-10.288,-10.286,-10.295,-10.332,-10.377,-10.388,-10.292,-10.082,-9.8285,-9.562,-9.3473,-9.5584,-9.8205,-9.9391,-10.104,-10.368,-10.432,-10.43,-10.492,-10.408,-10.335,-10.278,-10.262,-10.246,-10.245,-10.223,-10.228,-10.212,-10.224,-10.215,-10.212,-10.196,-10.19,-10.176,-10.183,-10.169,-10.161,-10.153,-10.156,-10.143,-10.128,-10.119,-10.117,-10.11,-10.096,-10.07,-10.062,-10.049,-10.053,-10.033,-10.019,-9.9974,-9.9778,-9.9589,-9.9469,-9.939,-9.9188,-9.902,-9.8821,-9.8506,-9.8283,-9.8106,-9.7937,-9.7763,-9.757,-9.7362,-9.7299,-9.7266,-9.7213,-9.7255,-9.719,-9.725,-9.7343,-9.7636,-9.7915,-9.814,-9.8426,-9.8959,-9.9425,-9.9851,-10.02,-10.057,-10.092,-10.128,-10.152,-10.177,-10.191,-10.206,-10.214,-10.225,-10.229,-10.242,-10.246,-10.262,-10.257,-10.257,-10.259,-10.267,-10.263,-10.27,-10.264,-10.273,-10.274,-10.277,-10.271,-10.277,-10.264,-10.27,-10.272,-10.27,-10.265,-10.264,-10.248,-10.256,-10.258,-10.261,-10.255,-10.245,-10.244,-10.24,-10.241,-10.244,-10.231,-10.223,-10.223,-10.228,-10.226,-10.222,-10.22,-10.221,-10.22,-10.227,-10.22,-10.221,-10.225,-10.229,-10.235,-10.235,-10.233,-10.229,-10.234,-10.231,-10.24,-10.249,-10.254,-10.25,-10.251,-10.255,-10.254,-10.253,-10.253,-10.257,-10.259,-10.255,-10.25,-10.249,-10.254,-10.261,-10.255,-10.248,-10.245,-10.256,-10.261,-10.25,-10.253,-10.253,-10.266,-10.265,-10.262,-10.267,-10.26,-10.264,-10.267,-10.258,-10.249,-10.253,-10.26,-10.274,-10.269,-10.266,-10.27,-10.268,-10.272,-10.27,-10.257,-10.263,-10.269,-10.273,-10.276,-10.27,-10.272,-10.266,-10.27,-10.267,-10.27,-10.267,-10.267,-10.276,-10.284,-10.285,-10.285,-10.282,-10.278,-10.275,-10.276,-10.275,-10.272,-10.272,-10.288,-10.28,-10.282,-10.28,-10.278,-10.274,-10.277,-10.279,-10.274,-10.269,-10.275,-10.281,-10.275,-10.286,-10.293,-10.288,-10.285,-10.278,-10.276,-10.275,-10.28,-10.282,-10.281,-10.276,-10.277,-10.269,-10.269,-10.251,-10.244,-10.246,-10.228,-10.211,-10.193,-10.176,-10.188,-10.201,-10.205,-10.212,-10.22,-10.225,-10.233,-10.243,-10.272,-10.294,-10.314,-10.314,-10.316,-10.314,-10.323,-10.315,-10.316,-10.325,-10.327,-10.323,-10.317,-10.317,-10.319,-10.323,-10.335,-10.352,-10.39,-10.421,-10.383,-10.228,-9.9665,-9.8526,-9.5947,-9.3899,-9.6554,-9.8825,-10.012,-10.183,-10.44,-10.479,-10.513,-10.506,-10.406,-10.359,-10.305,-10.305,-10.292,-10.288,-10.278,-10.279,-10.271,-10.269,-10.26,-10.257,-10.232,-10.231,-10.221,-10.233,-10.221,-10.222,-10.206,-10.206,-10.189,-10.173,-10.166,-10.167,-10.157,-10.146,-10.127,-10.108,-10.103,-10.1,-10.082,-10.071,-10.053,-10.037,-10.016,-9.9946,-9.9717,-9.9603,-9.9334,-9.9076,-9.8795,-9.8663,-9.8493,-9.8355,-9.8248,-9.7951,-9.7875,-9.7887,-9.78,-9.7734,-9.7647,-9.757,-9.7616,-9.7844,-9.8091,-9.8391,-9.8683,-9.9088,-9.9552,-9.9968,-10.038,-10.081,-10.122,-10.154,-10.193,-10.217,-10.225,-10.256,-10.257,-10.279,-10.308,-10.31,-10.318,-10.315,-10.325,-10.328,-10.334,-10.335,-10.339,-10.34,-10.345,-10.349,-10.349,-10.34,-10.341,-10.351,-10.351,-10.354,-10.35,-10.341,-10.342,-10.348,-10.338,-10.329,-10.328,-10.322,-10.331,-10.325,-10.323,-10.318,-10.317,-10.311,-10.305,-10.295,-10.293,-10.294,-10.291,-10.294,-10.291,-10.296,-10.298,-10.304,-10.299,-10.302,-10.298,-10.303,-10.31,-10.302,-10.311,-10.308,-10.317,-10.318,-10.325,-10.327,-10.317,-10.32,-10.322,-10.32,-10.318,-10.322,-10.328,-10.338,-10.337,-10.335,-10.338,-10.337,-10.335,-10.33,-10.333,-10.333,-10.327,-10.329,-10.342,-10.339,-10.338,-10.338,-10.34,-10.338,-10.335,-10.332,-10.333,-10.331,-10.333,-10.344,-10.35,-10.343,-10.339,-10.337,-10.335,-10.333,-10.33,-10.328,-10.33,-10.329,-10.335,-10.338,-10.338,-10.34,-10.332,-10.336,-10.333,-10.334,-10.329,-10.331,-10.332,-10.33,-10.328,-10.323,-10.33,-10.334,-10.335,-10.33,-10.331,-10.334,-10.328,-10.325,-10.322,-10.31,-10.306,-10.324,-10.326,-10.33,-10.335,-10.334,-10.328,-10.323,-10.308,-10.313,-10.319,-10.323,-10.33,-10.321,-10.319,-10.326,-10.316,-10.314,-10.315,-10.304,-10.298,-10.291,-10.275,-10.266,-10.266,-10.241,-10.218,-10.207,-10.195,-10.208,-10.213,-10.217,-10.232,-10.239,-10.244,-10.24,-10.267,-10.303,-10.312,-10.316,-10.31,-10.314,-10.325,-10.327,-10.325,-10.32,-10.332,-10.32,-10.323,-10.332,-10.334,-10.329,-10.33,-10.335,-10.357,-10.397,-10.418,-10.384,-10.219,-9.9599,-9.7183,-9.4528,-9.4559,-9.8186,-9.9545,-10.055,-10.349,-10.455,-10.472,-10.508,-10.443,-10.376,-10.315,-10.284,-10.265,-10.259,-10.266,-10.255,-10.255,-10.237,-10.234,-10.224,-10.222,-10.209,-10.207,-10.204,-10.2,-10.182,-10.181,-10.162,-10.154,-10.14,-10.133,-10.124,-10.126,-10.12,-10.095,-10.089,-10.074,-10.059,-10.044,-10.02,-10.018,-10.009,-9.9859,-9.9682,-9.9456,-9.9278,-9.9008,-9.8795,-9.853,-9.8371,-9.8085,-9.7929,-9.7663,-9.7567,-9.7331,-9.7249,-9.7205,-9.7197,-9.7184,-9.7147,-9.7064,-9.7132,-9.7313,-9.7572,-9.8048,-9.8319,-9.8691,-9.9004,-9.9393,-9.9895,-10.018,-10.049,-10.096,-10.122,-10.135,-10.162,-10.169,-10.183,-10.197,-10.201,-10.214,-10.221,-10.223,-10.218,-10.219,-10.229,-10.239,-10.238,-10.236,-10.234,-10.237,-10.225,-10.217,-10.222,-10.219,-10.219,-10.225,-10.226,-10.222,-10.222,-10.211,-10.2,-10.196,-10.207,-10.204,-10.202,-10.203,-10.198,-10.187,-10.18,-10.171,-10.17,-10.178,-10.17,-10.165,-10.16,-10.151,-10.157,-10.15,-10.152,-10.151,-10.15,-10.145,-10.153,-10.143,-10.137,-10.13,-10.142,-10.144,-10.142,-10.138,-10.14,-10.136,-10.135,-10.136,-10.133,-10.13,-10.131,-10.144,-10.135,-10.125,-10.127,-10.124,-10.124,-10.128,-10.128,-10.128,-10.128,-10.128,-10.123,-10.128,-10.128,-10.127,-10.131,-10.128,-10.128,-10.123,-10.135,-10.121,-10.126,-10.123,-10.12,-10.118,-10.115,-10.118,-10.127,-10.124,-10.123,-10.118,-10.111,-10.11,-10.1,-10.103,-10.108,-10.108,-10.112,-10.107,-10.098,-10.106,-10.101,-10.105,-10.108,-10.11,-10.108,-10.095,-10.088,-10.086,-10.087,-10.092,-10.101,-10.096,-10.08,-10.068,-10.059,-10.053,-10.042,-10.046,-10.023,-10.007,-9.9746,-9.9738,-9.9768,-9.9922,-9.9898,-9.9873,-9.9941,-10,-10.007,-10.017,-10.034,-10.063,-10.066,-10.061,-10.064,-10.066,-10.064,-10.072,-10.075,-10.077,-10.073,-10.065,-10.064,-10.06,-10.067,-10.064,-10.063,-10.079,-10.112,-10.15,-10.135,-9.9887,-9.7193,-9.5965,-9.3393,-9.1612,-9.3582,-9.5888,-9.7761,-9.9199,-10.087,-10.08,-10.113,-10.22,-10.183,-10.114,-10.072,-10.025,-10.004,-10.005,-10.002,-10.003,-9.992,-9.9966,-9.9857,-9.9722,-9.9562,-9.9496,-9.9378,-9.9486,-9.9393,-9.9302,-9.9232,-9.9155,-9.9047,-9.9001,-9.8922,-9.8825,-9.8708,-9.8646,-9.8584,-9.849,-9.8338,-9.8318,-9.8174,-9.7949,-9.7816,-9.7639,-9.7527,-9.7337,-9.711,-9.6981,-9.6894,-9.6672,-9.6436,-9.6153,-9.6004,-9.5908,-9.5783,-9.5643,-9.5463,-9.539,-9.5315,-9.5322,-9.5315,-9.5359,-9.5523,-9.5622,-9.5894,-9.6114,-9.6493,-9.7017,-9.7417,-9.782,-9.8311,-9.8471,-9.9128,-9.947,-9.9754,-9.9999,-10.019,-10.042,-10.048,-10.07,-10.087,-10.095,-10.1,-10.105,-10.108,-10.114,-10.112,-10.121,-10.127,-10.134,-10.128,-10.139,-10.14,-10.134,-10.142,-10.14,-10.143,-10.15,-10.154,-10.155,-10.152,-10.145,-10.155,-10.151,-10.147,-10.147,-10.145,-10.143,-10.141,-10.152,-10.153,-10.151,-10.151,-10.148,-10.146,-10.149,-10.146,-10.143,-10.146,-10.147,-10.155,-10.159,-10.158,-10.164,-10.169,-10.174,-10.174,-10.176,-10.184,-10.192,-10.196,-10.194,-10.199,-10.203,-10.206,-10.212,-10.204,-10.207,-10.209,-10.213,-10.226,-10.226,-10.232,-10.231,-10.234,-10.233,-10.239,-10.241,-10.246,-10.245,-10.251,-10.245,-10.248,-10.254,-10.261,-10.258,-10.267,-10.27,-10.276,-10.277,-10.269,-10.276,-10.283,-10.283,-10.29,-10.284,-10.284,-10.282,-10.284,-10.288,-10.296,-10.299,-10.296,-10.305,-10.309,-10.304,-10.309,-10.308,-10.315,-10.314,-10.309,-10.308,-10.315,-10.326,-10.332,-10.325,-10.317,-10.309,-10.299,-10.294,-10.301,-10.31,-10.296,-10.276,-10.262,-10.243,-10.236,-10.247,-10.255,-10.267,-10.276,-10.29,-10.302,-10.307,-10.314,-10.338,-10.365,-10.38,-10.378,-10.393,-10.393,-10.4,-10.401,-10.405,-10.409,-10.414,-10.405,-10.407,-10.406,-10.411,-10.417,-10.424,-10.457,-10.5,-10.52,-10.422,-10.216,-9.9609,-9.709,-9.4995,-9.6817,-9.9477,-10.077,-10.244,-10.535,-10.607,-10.615,-10.638,-10.557,-10.495,-10.427,-10.411,-10.383,-10.397,-10.391,-10.389,-10.37,-10.379,-10.364,-10.372,-10.348,-10.342
