-9.5665,-9.5857,-9.5738,-9.576,-9.5809,-9.587,-9.5749,-9.5767,-9.5709,-9.5543,-9.5558,-9.5508,-9.5504,-9.5537,-9.5453,-9.5225,-9.494,-9.4885,-9.4754,-9.491,-9.4939,-9.4954,-9.5191,-9.5325,-9.5236,-9.5268,-9.5552,-9.5805,-9.5957,-9.5924,-9.6049,-9.6032,-9.6099,-9.601,-9.5931,-9.5967,-9.6048,-9.6113,-9.5996,-9.587,-9.5976,-9.6074,-9.5977,-9.606,-9.6543,-9.6815,-9.6547,-9.5145,-9.2673,-9.0542,-8.821,-8.7702,-8.9806,-9.2412,-9.3681,-9.4748,-9.7233,-9.749,-9.7866,-9.7784,-9.6848,-9.6425,-9.5938,-9.5675,-9.5546,-9.541,-9.5567,-9.5399,-9.5424,-9.5322,-9.5228,-9.5173,-9.5116,-9.4987,-9.503,-9.494,-9.4739,-9.4681,-9.4768,-9.4643,-9.4618,-9.4583,-9.4348,-9.437,-9.4264,-9.4182,-9.3996,-9.3942,-9.3844,-9.365,-9.3334,-9.3329,-9.323,-9.3086,-9.3065,-9.2883,-9.2524,-9.2474,-9.2192,-9.1965,-9.1774,-9.1531,-9.1305,-9.1275,-9.0934,-9.0873,-9.0942,-9.0799,-9.0672,-9.0738,-9.0727,-9.059,-9.0555,-9.0902,-9.1225,-9.1351,-9.1747,-9.2321,-9.273,-9.2845,-9.3274,-9.3926,-9.41,-9.4502,-9.4562,-9.4888,-9.5208,-9.5395,-9.5315,-9.5643,-9.5835,-9.558,-9.5553,-9.5649,-9.5909,-9.6021,-9.5935,-9.5928,-9.5855,-9.5686,-9.6128,-9.6051,-9.5749,-9.5757,-9.5762,-9.5806,-9.5668,-9.5833,-9.5723,-9.5868,-9.5899,-9.5879,-9.5679,-9.5591,-9.5601,-9.576,-9.5617,-9.5565,-9.5673,-9.5579,-9.5714,-9.5487,-9.5284,-9.5371,-9.5485,-9.5407,-9.5469,-9.5539,-9.5529,-9.5049,-9.5624,-9.5744,-9.5582,-9.5513,-9.5127,-9.5198,-9.5375,-9.5774,-9.5643,-9.5398,-9.5612,-9.5623,-9.5598,-9.5608,-9.5641,-9.5485,-9.5594,-9.576,-9.5578,-9.5475,-9.5438,-9.5499,-9.5775,-9.5627,-9.5527,-9.5369,-9.5739,-9.5578,-9.5522,-9.5866,-9.5727,-9.5527,-9.5442,-9.5673,-9.571,-9.5514,-9.5698,-9.5566,-9.5403,-9.5582,-9.5569,-9.5408,-9.5537,-9.5321,-9.5409,-9.5584,-9.5524,-9.5423,-9.5245,-9.5205,-9.5425,-9.5488,-9.5436,-9.52,-9.5363,-9.5324,-9.5318,-9.5295,-9.5098,-9.5113,-9.5438,-9.5215,-9.5078,-9.5106,-9.5139,-9.5277,-9.5154,-9.5302,-9.518,-9.5266,-9.4959,-9.4724,-9.486,-9.4933,-9.4944,-9.4681,-9.4483,-9.4516,-9.425,-9.4121,-9.4271,-9.4507,-9.4144,-9.4552,-9.4568,-9.4613,-9.462,-9.4775,-9.54,-9.5514,-9.5139,-9.5433,-9.5703,-9.5476,-9.5409,-9.5465,-9.5724,-9.5531,-9.5439,-9.5434,-9.5598,-9.5747,-9.5499,-9.539,-9.5783,-9.6053,-9.6118,-9.6499,-9.56,-9.3741,-9.1146,-8.8893,-8.7406,-8.9426,-9.1901,-9.3083,-9.4544,-9.6329,-9.6176,-9.6536,-9.7435,-9.7058,-9.6345,-9.6126,-9.5581,-9.5384,-9.5389,-9.5122,-9.5311,-9.5038,-9.5189,-9.4931,-9.5078,-9.4909,-9.4892,-9.4633,-9.4805,-9.4711,-9.4478,-9.4555,-9.4725,-9.444,-9.4533,-9.4284,-9.4301,-9.4245,-9.4149,-9.3977,-9.4001,-9.3885,-9.3864,-9.3531,-9.347,-9.3223,-9.3073,-9.3156,-9.2778,-9.2476,-9.261,-9.2101,-9.1855,-9.1871,-9.2021,-9.1757,-9.1549,-9.1285,-9.1087,-9.1134,-9.1072,-9.0844,-9.0876,-9.0951,-9.0981,-9.1122,-9.1475,-9.172,-9.1882,-9.2426,-9.2656,-9.3165,-9.3319,-9.3622,-9.4171,-9.4497,-9.4795,-9.5095,-9.5343,-9.5621,-9.573,-9.5906,-9.5846,-9.5965,-9.5956,-9.6287,-9.6025,-9.623,-9.6449,-9.6433,-9.6117,-9.6233,-9.6331,-9.639,-9.6272,-9.6376,-9.6444,-9.6385,-9.6479,-9.6317,-9.6419,-9.6373,-9.6267,-9.6331,-9.6239,-9.6175,-9.6404,-9.6388,-9.638,-9.627,-9.6081,-9.5912,-9.597,-9.6494,-9.6272,-9.6061,-9.6124,-9.6102,-9.6323,-9.6196,-9.6042,-9.6225,-9.6228,-9.6015,-9.6124,-9.6431,-9.6315,-9.6187,-9.6273,-9.6268,-9.6305,-9.6249,-9.6333,-9.6411,-9.6402,-9.6491,-9.6411,-9.6496,-9.6251,-9.6524,-9.6674,-9.652,-9.658,-9.6619,-9.6554,-9.6409,-9.6579,-9.6631,-9.6507,-9.6645,-9.6582,-9.6392,-9.6421,-9.6792,-9.6718,-9.659,-9.671,-9.6704,-9.6722,-9.6577,-9.6718,-9.6681,-9.6725,-9.6549,-9.6705,-9.682,-9.6617,-9.6619,-9.659,-9.6741,-9.6831,-9.6782,-9.6787,-9.6703,-9.6735,-9.671,-9.6516,-9.6628,-9.6732,-9.6625,-9.6722,-9.6797,-9.6506,-9.6629,-9.6659,-9.6941,-9.681,-9.6715,-9.6665,-9.6421,-9.6576,-9.6388,-9.6391,-9.6209,-9.6541,-9.6544,-9.618,-9.6164,-9.5835,-9.5806,-9.5806,-9.5859,-9.6012,-9.6126,-9.6299,-9.6296,-9.6072,-9.6386,-9.6771,-9.6957,-9.6916,-9.6862,-9.7048,-9.7077,-9.719,-9.7066,-9.7158,-9.7047,-9.7074,-9.697,-9.698,-9.6992,-9.7065,-9.705,-9.6917,-9.7427,-9.7954,-9.7611,-9.6387,-9.3724,-9.1588,-8.9317,-8.85,-9.0329,-9.3108,-9.4328,-9.5551,-9.8084,-9.8366,-9.8685,-9.854,-9.7569,-9.7338,-9.6923,-9.6677,-9.6502,-9.6396,-9.6397,-9.6334,-9.6193,-9.6223,-9.607,-9.6127,-9.6175,-9.5976,-9.5941,-9.5762,-9.5796,-9.5774,-9.5646,-9.5453,-9.5465,-9.5468,-9.5303,-9.527,-9.5109,-9.4951,-9.4898,-9.4877,-9.4532,-9.4466,-9.4589,-9.439,-9.4078,-9.4001,-9.3803,-9.3544,-9.3462,-9.3242,-9.2956,-9.2845,-9.2577,-9.2256,-9.2262,-9.2026,-9.175,-9.1573,-9.1547,-9.1584,-9.1441,-9.1214,-9.1239,-9.1498,-9.1705,-9.1783,-9.1901,-9.2464,-9.2801,-9.318,-9.3711,-9.4019,-9.441,-9.4749,-9.4984,-9.5365,-9.5617,-9.5865,-9.602,-9.6236,-9.6325,-9.6201,-9.6313,-9.6504,-9.6488,-9.6492,-9.6704,-9.6619,-9.6556,-9.6592,-9.643,-9.6456,-9.6652,-9.6516,-9.6676,-9.6677,-9.664,-9.6543,-9.6552,-9.6442,-9.6408,-9.6468,-9.6364,-9.6336,-9.6418,-9.6354,-9.627,-9.6376,-9.6228,-9.612,-9.6243,-9.6208,-9.5989,-9.6132,-9.6183,-9.5937,-9.5949,-9.6073,-9.6157,-9.5929,-9.5971,-9.596,-9.6059,-9.6096,-9.5942,-9.5969,-9.6084,-9.6127,-9.6165,-9.6238,-9.6158,-9.6042,-9.6119,-9.6292,-9.6202,-9.6018,-9.6382,-9.6208,-9.609,-9.6196,-9.6273,-9.6437,-9.6362,-9.6205,-9.6259,-9.621,-9.6215,-9.6269,-9.6299,-9.6262,-9.6282,-9.6273,-9.6153,-9.6319,-9.6385,-9.6352,-9.6313,-9.6256,-9.6238,-9.6371,-9.6327,-9.6275,-9.6361,-9.6336,-9.6333,-9.6183,-9.6233,-9.6484,-9.6403,-9.637,-9.6336,-9.638,-9.6316,-9.6315,-9.6361,-9.6364,-9.6408,-9.6363,-9.6268,-9.6362,-9.6434,-9.6309,-9.6301,-9.631,-9.6252,-9.6363,-9.6361,-9.6338,-9.6377,-9.6405,-9.6262,-9.6128,-9.6507,-9.6423,-9.6407,-9.6457,-9.6378,-9.6329,-9.6456,-9.6496,-9.6399,-9.6485,-9.6393,-9.6401,-9.6438,-9.6453,-9.6421,-9.6496,-9.6302,-9.6282,-9.6251,-9.6068,-9.599,-9.6159,-9.6057,-9.5881,-9.5583,-9.5243,-9.5611,-9.5716,-9.5665,-9.5763,-9.5825,-9.5954,-9.5981,-9.5904,-9.609,-9.6394,-9.6603,-9.6668,-9.668,-9.6734,-9.664,-9.6691,-9.6686,-9.6627,-9.6694,-9.6751,-9.6764,-9.6552,-9.6496,-9.6678,-9.6649,-9.6704,-9.6853,-9.7206,-9.7331,-9.6529,-9.4292,-9.1778,-8.9603,-8.7816,-9.0169,-9.2919,-9.4083,-9.5679,-9.7894,-9.8126,-9.8375,-9.8106,-9.7105,-9.7082,-9.6518,-9.6386,-9.6106,-9.6075,-9.586,-9.5952,-9.5757,-9.583,-9.5726,-9.5731,-9.5652,-9.5541,-9.5467,-9.537,-9.5177,-9.5206,-9.5129,-9.5107,-9.5029,-9.5008,-9.4774,-9.4628,-9.4679,-9.4621,-9.4447,-9.4468,-9.4297,-9.4095,-9.3979,-9.3811,-9.356,-9.3434,-9.3373,-9.3131,-9.2939,-9.2862,-9.2598,-9.2378,-9.215,-9.2052,-9.1862,-9.1639,-9.1512,-9.1315,-9.1171,-9.1095,-9.1032,-9.0926,-9.0796,-9.1003,-9.1145,-9.131,-9.1648,-9.1886,-9.2191,-9.2663,-9.3022,-9.3386,-9.3927,-9.4155,-9.4323,-9.4825,-9.4805,-9.5321,-9.5544,-9.5628,-9.5681,-9.5729,-9.594,-9.5945,-9.598,-9.6033,-9.6199,-9.6169,-9.6179,-9.6093,-9.6053,-9.6278,-9.6348,-9.6198,-9.6326,-9.6111,-9.6188,-9.618,-9.6173,-9.6141,-9.5982,-9.6036,-9.6165,-9.6058,-9.6156,-9.6049,-9.5964,-9.5887,-9.5918,-9.5896,-9.5913,-9.577,-9.5895,-9.5785,-9.556,-9.5628,-9.5714,-9.5731,-9.5843,-9.5623,-9.5554,-9.5545,-9.5571,-9.569,-9.5603,-9.563,-9.571,-9.5716,-9.5806,-9.5841,-9.5743,-9.5705,-9.5849,-9.5828,-9.5808,-9.5799,-9.5821,-9.5722,-9.5874,-9.5807,-9.5972,-9.5838,-9.5736,-9.5741,-9.5904,-9.5997,-9.5781,-9.5813,-9.5937,-9.5766,-9.5811,-9.5707,-9.5966,-9.6025,-9.5901,-9.5834,-9.5872,-9.5753,-9.5975,-9.5951,-9.584,-9.5933,-9.593,-9.5912,-9.5761,-9.6081,-9.6028,-9.595,-9.5868,-9.6049,-9.6012,-9.5972,-9.599,-9.5904,-9.5868,-9.5662,-9.5958,-9.6108,-9.6119,-9.6049,-9.6006,-9.5978,-9.5943,-9.6032,-9.5836,-9.6151,-9.6003,-9.5946,-9.5926,-9.6058,-9.6069,-9.5983,-9.6007,-9.6023,-9.5994,-9.5977,-9.6029,-9.5893,-9.6255,-9.6172,-9.6141,-9.6157,-9.6036,-9.6107,-9.6132,-9.612,-9.6209,-9.6112,-9.5919,-9.6024,-9.5911,-9.5732,-9.5723,-9.5786,-9.5711,-9.5556,-9.5283,-9.5151,-9.5025,-9.518,-9.5169,-9.5179,-9.546,-9.5573,-9.5522,-9.5589,-9.581,-9.5952,-9.6193,-9.627,-9.6182,-9.6364,-9.6205,-9.6261,-9.6171,-9.6457,-9.6275,-9.6216,-9.6211,-9.6288,-9.6364,-9.6362,-9.6103,-9.6336,-9.6725,-9.6935,-9.6677,-9.5255,-9.2606,-9.0421,-8.8256,-8.8013,-8.9948,-9.2522,-9.4203,-9.5298,-9.7334,-9.7411,-9.7649,-9.782,-9.693,-9.6568,-9.608,-9.5751,-9.5628,-9.5463,-9.5662,-9.5595,-9.5407,-9.5293,-9.5313,-9.54,-9.5327,-9.5085,-9.4978,-9.4989,-9.4912,-9.4816,-9.4847,-9.4709,-9.447,-9.4458,-9.4425,-9.4478,-9.4266,-9.4125,-9.3981,-9.3931,-9.3767,-9.3516,-9.3631,-9.3342,-9.3149,-9.3018,-9.2763,-9.2803,-9.2699,-9.2223,-9.2015,-9.179,-9.1714,-9.1459,-9.1153,-9.0923,-9.0799,-9.0753,-9.0441,-9.071,-9.0447,-9.0446,-9.0565,-9.0398,-9.064,-9.0928,-9.1069,-9.1289,-9.1843,-9.2286,-9.2402,-9.2892,-9.3396,-9.3712,-9.4011,-9.4275,-9.4565,-9.4933,-9.5273,-9.5064,-9.5474,-9.5506,-9.5436,-9.5538,-9.5565,-9.5605,-9.5634,-9.5682,-9.5622,-9.5652,-9.5623,-9.5614,-9.5623,-9.5674,-9.559,-9.562,-9.5755,-9.556,-9.5628,-9.5551,-9.5635,-9.5396,-9.5494,-9.5632,-9.5684,-9.5504,-9.5534,-9.5368,-9.5493,-9.5563,-9.5439,-9.5334,-9.5364,-9.5357,-9.5279,-9.5227,-9.5501,-9.5293,-9.5201,-9.5344,-9.5232,-9.5213,-9.5485,-9.5179,-9.5225,-9.5526,-9.5385,-9.5392,-9.5376,-9.5361,-9.5378,-9.5218,-9.5414,-9.5559,-9.5384,-9.5258,-9.5577,-9.5419,-9.5454,-9.5381,-9.5454,-9.563,-9.5485,-9.5635,-9.5307,-9.5466,-9.5458,-9.5572,-9.5608,-9.5832,-9.5543,-9.5643,-9.5647,-9.5701,-9.5612,-9.5656,-9.5724,-9.5592,-9.5803,-9.5741,-9.5629,-9.5773,-9.5877,-9.5908,-9.5706,-9.5673,-9.5776,-9.5826,-9.5899,-9.5864,-9.5802,-9.5871,-9.571,-9.5931,-9.5876,-9.5784,-9.5817,-9.594,-9.5792,-9.5799,-9.566,-9.5621,-9.5708,-9.5668,-9.5507,-9.5275,-9.5236,-9.5051,-9.4861,-9.5213,-9.54,-9.5249,-9.5279,-9.5468,-9.5502,-9.5815,-9.5881,-9.615,-9.6389,-9.6318,-9.6561,-9.6524,-9.6448,-9.6469,-9.6519,-9.6551,-9.6477,-9.6664,-9.6491,-9.6559,-9.6812,-9.679,-9.6776,-9.6826,-9.7251,-9.7485,-9.7525,-9.626,-9.3805,-9.1481,-8.9158,-8.8421,-9.1735,-9.2995,-9.4319,-9.5513,-9.7625,-9.7984,-9.81,-9.8779,-9.8057,-9.7631,-9.6797,-9.6757,-9.6463,-9.6713,-9.6663,-9.6617,-9.6455,-9.6374,-9.6232,-9.6485,-9.6085,-9.6121,-9.6139,-9.6166,-9.5875,-9.5927,-9.5747,-9.5875,-9.5823,-9.5777,-9.5616,-9.5589,-9.5441,-9.535,-9.5356,-9.5208,-9.4987,-9.4897,-9.4615,-9.4662,-9.4457,-9.4434,-9.4342,-9.386,-9.3856,-9.3749,-9.3429,-9.314,-9.2938,-9.2939,-9.2813,-9.2577,-9.2377,-9.2071,-9.1917,-9.1993,-9.2105,-9.2067,-9.2033,-9.1948,-9.2323,-9.2552,-9.2692,-9.3082,-9.3664,-9.4008,-9.4366,-9.4891,-9.5286,-9.5567,-9.5979,-9.6171,-9.6465,-9.6559,-9.678,-9.691,-9.7012,-9.7231,-9.745,-9.733,-9.7264,-9.7219,-9.7581,-9.7498,-9.7243,-9.753,-9.7461,-9.7383,-9.7589,-9.7406,-9.7481,-9.7493,-9.7497,-9.7383,-9.744,-9.7412,-9.7378,-9.7241,-9.7422,-9.73,-9.7297,-9.7224,-9.7274,-9.724,-9.73,-9.7243,-9.7121,-9.7015,-9.7089,-9.7056,-9.6995,-9.7099,-9.7098,-9.7158,-9.7005,-9.6817,-9.68,-9.7055,-9.7077,-9.7016,-9.6984,-9.6863,-9.706,-9.7206,-9.7217,-9.7163,-9.7089,-9.7077,-9.7188,-9.7087,-9.7064,-9.7254,-9.7253,-9.7365,-9.7257,-9.7283,-9.7265,-9.7239,-9.726,-9.7148,-9.7194,-9.719,-9.7299,-9.734,-9.7397,-9.7231,-9.7267,-9.7246,-9.7294,-9.7327,-9.7145,-9.7405,-9.7292,-9.7261,-9.7288,-9.7237,-9.7383,-9.7215,-9.7248,-9.7302,-9.7289,-9.7463,-9.7239,-9.7275,-9.7377,-9.7314,-9.7275,-9.7264,-9.7328,-9.7259,-9.7303,-9.7333,-9.7315,-9.73,-9.728,-9.7379,-9.7257,-9.7257,-9.7242,-9.7278,-9.7321,-9.747,-9.7306,-9.7331,-9.7265,-9.733,-9.7291,-9.7176,-9.739,-9.7407,-9.726,-9.7205,-9.7144,-9.7353,-9.7289,-9.735,-9.7251,-9.7097,-9.7006,-9.6926,-9.6952,-9.6867,-9.6806,-9.6737,-9.6449,-9.6219,-9.6196,-9.6525,-9.6451,-9.6353,-9.661,-9.6788,-9.6887,-9.6799,-9.6999,-9.7313,-9.734,-9.7516,-9.7557,-9.758,-9.7576,-9.7511,-9.7417,-9.7327,-9.7655,-9.7587,-9.7474,-9.7486,-9.7438,-9.7476,-9.7316,-9.7654,-9.8112,-9.8385,-9.7661,-9.5999,-9.3387,-9.1251,-8.8994,-8.9566,-9.1886,-9.3793,-9.5115,-9.6863,-9.8844,-9.8988,-9.9337,-9.86,-9.7772,-9.7324,-9.7164,-9.6855,-9.6932,-9.6922,-9.6702,-9.6535,-9.6578,-9.6556,-9.6331,-9.626,-9.6273,-9.6362,-9.6229,-9.6044,-9.6009,-9.5975,-9.5729,-9.5802,-9.5685,-9.5633,-9.5422,-9.5427,-9.5359,-9.5129,-9.4992,-9.4959,-9.4732,-9.4547,-9.46,-9.4444,-9.4312,-9.4064,-9.3923,-9.3752,-9.3586,-9.3341,-9.3014,-9.2818,-9.2728,-9.2587,-9.2378,-9.217,-9.1943,-9.1748,-9.1893,-9.1799,-9.1682,-9.1628,-9.1539,-9.1725,-9.1927,-9.2034,-9.2417,-9.2717,-9.3045,-9.3439,-9.3798,-9.4273,-9.4786,-9.5022,-9.5619,-9.5792,-9.5893,-9.6244,-9.6497,-9.6504,-9.669,-9.6677,-9.6803,-9.691,-9.6879,-9.6855,-9.699,-9.7192,-9.7019,-9.6883,-9.698,-9.7162,-9.7101,-9.7012,-9.7123,-9.7146,-9.7023,-9.7125,-9.7124,-9.6962,-9.6975,-9.7042,-9.7043,-9.691,-9.675,-9.6861,-9.7041,-9.6862,-9.6849,-9.6735,-9.6845,-9.6768,-9.6718,-9.6547,-9.6621,-9.6752,-9.6599,-9.6655,-9.6666,-9.668,-9.6548,-9.6599,-9.6472,-9.6433,-9.6648,-9.6697,-9.6724,-9.6678,-9.6657,-9.6778,-9.6667,-9.6622,-9.6766,-9.6706,-9.6805,-9.682,-9.6583,-9.6864,-9.6973,-9.6757,-9.6907,-9.6869,-9.6817,-9.6882,-9.6901,-9.6896,-9.6745,-9.6821,-9.6824,-9.6733,-9.6825,-9.6866,-9.6833,-9.6916,-9.6806,-9.6904,-9.6624,-9.6798,-9.6923,-9.7009,-9.6926,-9.6832,-9.6764,-9.6861,-9.6892,-9.6893,-9.6807,-9.6865,-9.6923,-9.6844,-9.6869,-9.6837,-9.6913,-9.6871,-9.6891,-9.6822,-9.6846,-9.6887,-9.6783,-9.6854,-9.6872,-9.6867,-9.68,-9.6804,-9.688,-9.6824,-9.6846,-9.6731,-9.6821,-9.6836,-9.6836,-9.662,-9.6818,-9.6905,-9.6878,-9.6733,-9.6656,-9.6852,-9.7005,-9.6943,-9.684,-9.6965,-9.6851,-9.678,-9.6802,-9.6821,-9.688,-9.6893,-9.6922,-9.6841,-9.6804,-9.6824,-9.6796,-9.6864,-9.6783,-9.6755,-9.6742,-9.6651,-9.6489,-9.642,-9.6468,-9.623,-9.593,-9.5886,-9.5712,-9.5826,-9.6043,-9.5974,-9.6048,-9.617,-9.6241,-9.6156,-9.6182,-9.6681,-9.6929,-9.6946,-9.7021,-9.6877,-9.6945,-9.7025,-9.7002,-9.6936,-9.7011,-9.7024,-9.7017,-9.6916,-9.6957,-9.6964,-9.6882,-9.6918,-9.7215,-9.7408,-9.7705,-9.7192,-9.5446,-9.2893,-9.0799,-8.8738,-8.91,-9.266,-9.4145,-9.5155,-9.4217,-9.8107,-9.866,-9.8567,-9.8486,-9.7281,-9.7123,-9.6454,-9.6695,-9.6284,-9.6486,-9.6134,-9.6342,-9.5949,-9.6236,-9.5824,-9.5878,-9.5781,-9.5919,-9.559,-9.5706,-9.5404,-9.5528,-9.5282,-9.5346,-9.5193,-9.5301,-9.4997,-9.5058,-9.492,-9.4782,-9.4553,-9.4583,-9.4403,-9.4347,-9.4082,-9.4001,-9.3835,-9.3755,-9.3408,-9.3346,-9.3216,-9.3008,-9.2606,-9.2635,-9.2418,-9.2144,-9.2137,-9.1923,-9.172,-9.148,-9.1456,-9.1394,-9.1262,-9.1246,-9.1304,-9.138,-9.143,-9.1818,-9.2232,-9.2215,-9.2602,-9.3047,-9.3518,-9.3851,-9.4207,-9.4595,-9.5099,-9.5281,-9.557,-9.5612,-9.5946,-9.6085,-9.6148,-9.621,-9.6502,-9.632,-9.6417,-9.6348,-9.6555,-9.6471,-9.6672,-9.6544,-9.6528,-9.6615,-9.6596,-9.6499,-9.6617,-9.6565,-9.6561,-9.6344,-9.6487,-9.6391,-9.641,-9.6497,-9.6423,-9.6314,-9.6244,-9.6247,-9.6314,-9.6295,-9.6282,-9.6012,-9.6117,-9.6195,-9.6046,-9.6076,-9.6102,-9.6003,-9.5962,-9.5912,-9.6119,-9.6038,-9.5935,-9.5955,-9.591,-9.5994,-9.5929,-9.598,-9.6117,-9.6039,-9.6088,-9.6078,-9.601,-9.6023,-9.6116,-9.6184,-9.6178,-9.6122,-9.6254,-9.6203,-9.6201,-9.6284,-9.6205,-9.624,-9.6176,-9.6098,-9.6121,-9.5868,-9.6136,-9.629,-9.6317,-9.6328,-9.6227,-9.6236,-9.6144,-9.621,-9.6196,-9.621,-9.6237,-9.6235,-9.6312,-9.6157,-9.6131,-9.6174,-9.6275,-9.6442,-9.6254,-9.629,-9.6201,-9.6307,-9.6306,-9.6241,-9.6129,-9.6159,-9.6063,-9.6175,-9.6329,-9.6342,-9.6302,-9.6189,-9.6247,-9.6338,-9.6233,-9.6267,-9.6172,-9.6163,-9.6115,-9.6363,-9.6313,-9.6261,-9.6285,-9.6273,-9.6232,-9.6196,-9.6347,-9.6304,-9.6329,-9.6272,-9.6271,-9.6354,-9.6345,-9.6371,-9.6365,-9.63,-9.6279,-9.6467,-9.6365,-9.6351,-9.6327,-9.6395,-9.6413,-9.6361,-9.636,-9.6466,-9.6463,-9.6381,-9.6413,-9.6326,-9.6161,-9.6101,-9.6034,-9.6084,-9.5972,-9.5843,-9.5672,-9.5276,-9.5306,-9.5435,-9.5498,-9.5575,-9.5797,-9.5778,-9.5834,-9.5943,-9.5959,-9.621,-9.6392,-9.66,-9.6567,-9.657,-9.6525,-9.6514,-9.6678,-9.6617,-9.6604,-9.6663,-9.6553,-9.6585,-9.657,-9.6659,-9.662,-9.6714,-9.6925,-9.7185,-9.7328,-9.6726,-9.4869,-9.232,-8.9986,-8.8246,-8.9544,-9.258,-9.4029,-9.5181,-9.7239,-9.7539,-9.7533,-9.8141,-9.7955,-9.7395,-9.6874,-9.6431,-9.6115,-9.6064,-9.5952,-9.5877,-9.5658,-9.5886,-9.5879,-9.5757,-9.5538,-9.5632,-9.5421,-9.5263,-9.5333,-9.5264,-9.5179,-9.5133,-9.5106,-9.5019,-9.4937,-9.491,-9.4826,-9.4747,-9.4575,-9.4453,-9.4268,-9.422,-9.4041,-9.3935,-9.3858,-9.365,-9.3366,-9.3254,-9.3054,-9.2869,-9.2596,-9.2404,-9.2331,-9.2094,-9.1848,-9.1578,-9.1329,-9.1197,-9.1052,-9.0908,-9.0797,-9.0671,-9.0695,-9.0731,-9.0877,-9.0959,-9.1173,-9.1475,-9.1913,-9.2226,-9.2678,-9.3061,-9.3205,-9.3532,-9.3949,-9.4258,-9.4489,-9.4754,-9.4983,-9.5171,-9.525,-9.5392,-9.5517,-9.556,-9.5546,-9.5577,-9.567,-9.5815,-9.5772,-9.5749,-9.59,-9.584,-9.5852,-9.5745,-9.5891,-9.5634,-9.5852,-9.5884,-9.5822,-9.5719,-9.5772,-9.5788,-9.5818,-9.5723,-9.5716,-9.5743,-9.573,-9.5739,-9.5607,-9.5695,-9.5694,-9.5691,-9.5686,-9.5525,-9.5598,-9.5624,-9.5643,-9.5604,-9.5638,-9.5641,-9.5604,-9.5612,-9.5644,-9.5721,-9.5716,-9.5786,-9.5791,-9.5761,-9.5789,-9.5803,-9.5891,-9.5976,-9.5955,-9.5947,-9.6078,-9.603,-9.6019,-9.604,-9.5989,-9.5917,-9.6117,-9.6042,-9.6108,-9.6102,-9.6028,-9.608,-9.6111,-9.6196,-9.6214,-9.6192,-9.6135,-9.6178,-9.6223,-9.6246,-9.6226,-9.6178,-9.6213,-9.6308,-9.6298,-9.6284,-9.6319,-9.6387,-9.6396,-9.632,-9.6433,-9.6456,-9.6468,-9.654,-9.6508,-9.654,-9.6502,-9.6597,-9.6566,-9.6576,-9.662,-9.6661,-9.6498,-9.6508,-9.627,-9.6292,-9.6438,-9.6413,-9.618,-9.6127,-9.5879,-9.5845,-9.59,-9.5967,-9.6085,-9.6181,-9.6291,-9.6418,-9.6392,-9.6534,-9.6828,-9.7081,-9.7105,-9.7245,-9.7405,-9.7356,-9.7429,-9.7413,-9.7437,-9.7458,-9.7416,-9.753,-9.7514,-9.7521,-9.7586,-9.7513,-9.7612,-9.7659,-9.8108,-9.8406,-9.8277,-9.6885,-9.4367,-9.2146,-8.9826,-8.928,-9.2668,-9.4451,-9.568,-9.801,-9.9023,-9.9071,-9.9541,-9.9341,-9.848,-9.8114,-9.7637,-9.7615,-9.7484,-9.7472,-9.7295,-9.7473,-9.7388,-9.7311,-9.7247,-9.7196,-9.7037,-9.6938,-9.687,-9.6911,-9.6738,-9.6767,-9.6731,-9.6655,-9.6557,-9.6516,-9.6447,-9.64,-9.6336,-9.6136,-9.5981,-9.5923,-9.5823,-9.5669,-9.5576,-9.5419,-9.5253,-9.504,-9.4896,-9.4586,-9.4507,-9.4407,-9.4095,-9.3932,-9.3684,-9.338,-9.3284,-9.3176,-9.307,-9.2977,-9.2893,-9.2682,-9.2729,-9.2686,-9.2816,-9.285,-9.3078,-9.3401,-9.3788,-9.4159,-9.4523,-9.5033,-9.5479,-9.5845,-9.6215,-9.6586,-9.6952,-9.7108,-9.7288,-9.751,-9.768,-9.7837,-9.7892,-9.8109,-9.818,-9.8165,-9.8232,-9.8217,-9.8142,-9.8183,-9.8233,-9.8355,-9.8331,-9.8315,-9.834,-9.8314,-9.831,-9.8319,-9.821,-9.8286,-9.8337,-9.8221,-9.8223,-9.822,-9.8251,-9.8241,-9.8191,-9.8151,-9.8196,-9.8123,-9.8061,-9.8081,-9.8123,-9.8058,-9.8057,-9.7943,-9.7896,-9.7892,-9.8014,-9.7967,-9.7935,-9.781,-9.796,-9.8052,-9.7958,-9.7995,-9.7995,-9.7943,-9.8119,-9.814,-9.8103,-9.8035,-9.811,-9.8204,-9.817,-9.828,-9.8314,-9.8266,-9.836,-9.8315,-9.826,-9.8391,-9.8368,-9.8428,-9.8366,-9.8345,-9.8406,-9.8412,-9.832,-9.8392,-9.8296,-9.8449,-9.8406,-9.8433,-9.8388,-9.8342,-9.8291,-9.8419,-9.8393,-9.8442,-9.8479,-9.851,-9.8461,-9.8458,-9.8511,-9.845,-9.8505,-9.8503,-9.8514,-9.8443,-9.8488,-9.8466,-9.8359,-9.8475,-9.8447,-9.8445,-9.8452,-9.8415,-9.8494,-9.8462,-9.8456,-9.8511,-9.8535,-9.8544,-9.8522,-9.8427,-9.8461,-9.8446,-9.8566,-9.8605,-9.854,-9.8465,-9.8571,-9.8567,-9.8529,-9.8567,-9.8584,-9.852,-9.8598,-9.8557,-9.8507,-9.8628,-9.8511,-9.8504,-9.842,-9.8311,-9.8183,-9.8135,-9.8248,-9.8099,-9.7908,-9.7725,-9.7604,-9.7473,-9.7642,-9.7664,-9.7617,-9.7797,-9.7834,-9.7885,-9.7925,-9.8039,-9.825,-9.8602,-9.8757,-9.868,-9.8674,-9.8754,-9.8701,-9.8689,-9.8705,-9.8719,-9.8656,-9.8542,-9.8871,-9.8828,-9.8774,-9.8761,-9.8747,-9.8996,-9.9233,-9.9332,-9.8463,-9.6508,-9.4028,-9.1817,-8.9922,-9.172,-9.4719,-9.5872,-9.7215,-9.9812,-10.029,-10.034,-10.026,-9.9339,-9.919,-9.8619,-9.8369,-9.8167,-9.8179,-9.7949,-9.7957,-9.7921,-9.7893,-9.7677,-9.7688,-9.7554,-9.7506,-9.7457,-9.7404,-9.7255,-9.7241,-9.7102,-9.7024,-9.6975,-9.6977,-9.6884,-9.6734,-9.6664,-9.6568,-9.6388,-9.6388,-9.6223,-9.6063,-9.5882,-9.5726,-9.5552,-9.5422,-9.5246,-9.5131,-9.4971,-9.4736,-9.4483,-9.4193,-9.4073,-9.3992,-9.3829,-9.3634,-9.3439,-9.3228,-9.3121,-9.3021,-9.3044,-9.2925,-9.2928,-9.3009,-9.3144,-9.332,-9.356,-9.3879,-9.4297,-9.4827,-9.5212,-9.5637,-9.5915,-9.6235,-9.6524,-9.689,-9.7221,-9.7554,-9.7743,-9.7864,-9.8027,-9.8166,-9.8292,-9.829,-9.8359,-9.8386,-9.8448,-9.8496,-9.8604,-9.8552,-9.8649,-9.8599,-9.8557,-9.8584,-9.8598,-9.8658,-9.8685,-9.8615,-9.8611,-9.8572,-9.8579,-9.8516,-9.8526,-9.8385,-9.8509,-9.8485,-9.8472,-9.8338,-9.8375,-9.8277,-9.8278,-9.8274,-9.8293,-9.8172,-9.8239,-9.8195,-9.8155,-9.8101,-9.8059,-9.8078,-9.8066,-9.8058,-9.8074,-9.804,-9.8064,-9.8031,-9.8004,-9.8026,-9.8113,-9.8185,-9.8177,-9.8165,-9.8152,-9.821,-9.821,-9.8185,-9.8152,-9.8167,-9.8179,-9.8312,-9.8317,-9.8249,-9.8162,-9.8169,-9.824,-9.825,-9.8227,-9.8219,-9.8208,-9.8256,-9.8241,-9.8241,-9.8233,-9.8201,-9.8238,-9.8264,-9.8286,-9.8243,-9.8295,-9.8309,-9.8321,-9.8247,-9.8187,-9.8281,-9.8278,-9.8261,-9.8288,-9.825,-9.8235,-9.8313,-9.8266,-9.828,-9.824,-9.8296,-9.8258,-9.8283,-9.8221,-9.8291,-9.8272,-9.8333,-9.8307,-9.8321,-9.829,-9.8253,-9.8283,-9.8268,-9.8339,-9.839,-9.8378,-9.8306,-9.8279,-9.8299,-9.8313,-9.8334,-9.8437,-9.8414,-9.8379,-9.8367,-9.8312,-9.8329,-9.829,-9.8344,-9.8335,-9.8313,-9.8302,-9.8332,-9.8288,-9.8337,-9.8349,-9.8338,-9.827,-9.8322,-9.8347,-9.8418,-9.8401,-9.8363,-9.8373,-9.828,-9.8214,-9.8154,-9.8062,-9.7918,-9.7975,-9.7937,-9.7651,-9.7428,-9.7265,-9.7284,-9.7493,-9.7563,-9.7531,-9.7614,-9.7652,-9.7748,-9.7683,-9.7805,-9.8144,-9.8346,-9.8423,-9.8464,-9.8461,-9.8436,-9.8485,-9.8493,-9.849,-9.8526,-9.847,-9.8547,-9.8457,-9.8517,-9.8471,-9.853,-9.8591,-9.8818,-9.9038,-9.9105,-9.8143,-9.6105,-9.3668,-9.1359,-8.9659,-9.2006,-9.4706,-9.587,-9.732,-9.9608,-10.004,-10.014,-10.002,-9.9038,-9.876,-9.8289,-9.8169,-9.7778,-9.7894,-9.7691,-9.7743,-9.7548,-9.7527,-9.7408,-9.7402,-9.7137,-9.7191,-9.7052,-9.7102,-9.6976,-9.6926,-9.6727,-9.6792,-9.6565,-9.656,-9.6453,-9.6462,-9.626,-9.6195,-9.5999,-9.6083,-9.5857,-9.5711,-9.5521,-9.5416,-9.5168,-9.5079,-9.4853,-9.4655,-9.4482,-9.4266,-9.4022,-9.3775,-9.3558,-9.3395,-9.3289,-9.3064,-9.2871,-9.2669,-9.2664,-9.2477,-9.2413,-9.235,-9.2354,-9.2369,-9.2385,-9.2633,-9.2876,-9.323,-9.3602,-9.3961,-9.4413,-9.4801,-9.5218,-9.5529,-9.5741,-9.6017,-9.6376,-9.6532,-9.682,-9.6917,-9.7169,-9.7191,-9.7289,-9.7289,-9.7387,-9.7438,-9.7404,-9.7444,-9.7486,-9.7437,-9.7458,-9.7424,-9.7518,-9.7575,-9.7565,-9.7487,-9.7451,-9.7452,-9.7364,-9.7325,-9.7392,-9.7405,-9.7424,-9.7353,-9.7353,-9.7316,-9.7302,-9.7258,-9.7224,-9.7179,-9.717,-9.7059,-9.7035,-9.7048,-9.7097,-9.7026,-9.7028,-9.6982,-9.6906,-9.6887,-9.6953,-9.6996,-9.7048,-9.7034,-9.7036,-9.6953,-9.7061,-9.6946,-9.709,-9.7141,-9.722,-9.7251,-9.727,-9.7292,-9.7266,-9.7291,-9.7291,-9.7324,-9.734,-9.7366,-9.742,-9.7404,-9.7397,-9.7391,-9.7399,-9.7441,-9.7454,-9.7496,-9.7442,-9.7431,-9.7462,-9.7581,-9.7476,-9.7503,-9.7515,-9.7518,-9.7497,-9.7529,-9.7539,-9.759,-9.7573,-9.7545,-9.7529,-9.7499,-9.7582,-9.7571,-9.7505,-9.7612,-9.7574,-9.764,-9.7631,-9.7582,-9.7644,-9.7618,-9.7703,-9.7611,-9.7613,-9.7661,-9.7612,-9.7647,-9.7707,-9.7687,-9.7643,-9.7622,-9.7637,-9.7668,-9.7661,-9.7693,-9.7676,-9.7748,-9.7729,-9.7674,-9.7736,-9.7679,-9.7728,-9.7621,-9.766,-9.7783,-9.7824,-9.7732,-9.778,-9.7756,-9.7761,-9.7721,-9.7675,-9.7747,-9.7694,-9.777,-9.772,-9.7775,-9.7779,-9.7775,-9.7688,-9.7708,-9.7637,-9.7652,-9.7561,-9.7408,-9.7379,-9.7367,-9.7252,-9.7023,-9.6818,-9.6718,-9.6681,-9.6799,-9.6891,-9.7035,-9.7116,-9.72,-9.7237,-9.741,-9.7673,-9.7779,-9.7817,-9.791,-9.7901,-9.7946,-9.8047,-9.7985,-9.7994,-9.801,-9.7999,-9.7999,-9.7956,-9.7933,-9.8,-9.8012,-9.8099,-9.8267,-9.8552,-9.8772,-9.796,-9.7174,-9.4669,-9.2214,-8.9917,-8.9456,-9.3021,-9.4711,-9.6142,-9.7987,-9.8953,-9.8779,-9.9214,-9.9344,-9.8691,-9.8365,-9.7788,-9.7563,-9.744,-9.7313,-9.7323,-9.7336,-9.7196,-9.7114,-9.703,-9.6957,-9.6802,-9.671,-9.6537,-9.6546,-9.6498,-9.6441,-9.6265,-9.6147,-9.614,-9.604,-9.5973,-9.5816,-9.5816,-9.5755,-9.5575,-9.5487,-9.532,-9.5192,-9.5026,-9.4849,-9.4678,-9.4552,-9.4274,-9.4101,-9.384,-9.3616,-9.336,-9.3137,-9.2961,-9.2789,-9.2535,-9.2355,-9.2152,-9.2043,-9.1933,-9.1899,-9.1766,-9.179,-9.1834,-9.1908,-9.1986,-9.2276,-9.2545,-9.2905,-9.3337,-9.3734,-9.4098,-9.4531,-9.4978,-9.5259,-9.5583,-9.5877,-9.6138,-9.6286,-9.654,-9.6572,-9.6626,-9.6738,-9.687,-9.691,-9.692,-9.6991,-9.6991,-9.7001,-9.7111,-9.705,-9.7112,-9.7067,-9.7116,-9.7104,-9.7116,-9.7089,-9.7073,-9.7042,-9.7058,-9.7009,-9.7025,-9.7086,-9.6923,-9.6919,-9.6882,-9.6973,-9.697,-9.6911,-9.6856,-9.6796,-9.6857,-9.6741,-9.6779,-9.6805,-9.6731,-9.6608,-9.6639,-9.6664,-9.6654,-9.6653,-9.6704,-9.6612,-9.6644,-9.66,-9.6722,-9.6725,-9.6713,-9.6718,-9.6682,-9.6741,-9.6736,-9.6809,-9.68,-9.6792,-9.6771,-9.6915,-9.6914,-9.6917,-9.6916,-9.6918,-9.6931,-9.6909,-9.6972,-9.6973,-9.7027,-9.7035,-9.7041,-9.7011,-9.7002,-9.7035,-9.7109,-9.7129,-9.7066,-9.7175,-9.7198,-9.7176,-9.7135,-9.7171,-9.7111,-9.7192,-9.7193,-9.7286,-9.7285,-9.731,-9.7333,-9.7383,-9.7417,-9.7381,-9.7422,-9.7411,-9.7396,-9.7367,-9.7335,-9.7236,-9.7175,-9.7302,-9.7301,-9.7175,-9.7143,-9.7062,-9.687,-9.6762,-9.6975,-9.6985,-9.7033,-9.715,-9.7284,-9.7335,-9.7364,-9.7619,-9.7945,-9.8185,-9.8307,-9.8277,-9.8368,-9.8366,-9.8381,-9.851,-9.8517,-9.8443,-9.844,-9.8497,-9.8553,-9.8616,-9.8572,-9.8622,-9.8691,-9.8777,-9.9226,-9.9491,-9.8791,-9.6847,-9.4354,-9.2077,-9.0205,-9.1536,-9.4575,-9.5943,-9.6544,-9.8571,-10.004,-9.9952,-10.062,-10.018,-9.9497,-9.9068,-9.8657,-9.8502,-9.8411,-9.8345,-9.837,-9.8246,-9.8283,-9.8101,-9.8087,-9.8122,-9.7945,-9.7852,-9.7842,-9.7778,-9.7753,-9.7722,-9.7713,-9.7635,-9.7564,-9.7495,-9.739,-9.7204,-9.7264,-9.7175,-9.7041,-9.6828,-9.6703,-9.662,-9.6382,-9.628,-9.6058,-9.5919,-9.5823,-9.5717,-9.5385,-9.5194,-9.5032,-9.4792,-9.4522,-9.4277,-9.4098,-9.409,-9.3867,-9.3763,-9.3585,-9.36,-9.3628,-9.3593,-9.3662,-9.3949,-9.4162,-9.4459,-9.4692,-9.5056,-9.5467,-9.5955,-9.6437,-9.6862,-9.7224,-9.7564,-9.7874,-9.8034,-9.8334,-9.85,-9.8673,-9.8874,-9.895,-9.9,-9.905,-9.9091,-9.9144,-9.9201,-9.919,-9.9262,-9.925,-9.9248,-9.9265,-9.9286,-9.9314,-9.9365,-9.929,-9.9311,-9.9254,-9.9225,-9.9241,-9.9316,-9.92,-9.9268,-9.925,-9.9189,-9.918,-9.9138,-9.9122,-9.9084,-9.9106,-9.9045,-9.899,-9.8972,-9.8918,-9.8975,-9.8903,-9.8878,-9.8851,-9.8805,-9.8797,-9.8834,-9.8783,-9.8828,-9.8872,-9.8832,-9.8852,-9.8885,-9.889,-9.8861,-9.8956,-9.8991,-9.8956,-9.897,-9.8955,-9.9036,-9.9051,-9.9031,-9.8999,-9.9071,-9.9009,-9.9044,-9.9057,-9.9063,-9.9076,-9.8999,-9.9061,-9.904,-9.9067,-9.9066,-9.9063,-9.9068,-9.9149,-9.9064,-9.9114,-9.9086,-9.9111,-9.908,-9.9103,-9.9055,-9.9055,-9.9137,-9.9123,-9.9139,-9.9123,-9.9111,-9.9137,-9.9133,-9.9121,-9.9117,-9.9143,-9.9125,-9.9106,-9.9098,-9.9052,-9.9045,-9.911,-9.9128,-9.9127,-9.9078,-9.9103,-9.912,-9.9093,-9.9158,-9.9147,-9.9177,-9.9109,-9.911,-9.908,-9.9117,-9.9146,-9.9103,-9.9072,-9.9225,-9.9251,-9.9125,-9.9089,-9.9122,-9.9215,-9.913,-9.915,-9.9177,-9.9182,-9.9183,-9.9207,-9.9148,-9.9244,-9.9225,-9.9204,-9.9227,-9.9206,-9.899,-9.8967,-9.8924,-9.872,-9.886,-9.8871,-9.8628,-9.8482,-9.8204,-9.8127,-9.8209,-9.8346,-9.841,-9.8488,-9.8632,-9.8613,-9.861,-9.8735,-9.8955,-9.9287,-9.9249,-9.935,-9.9334,-9.9365,-9.9372,-9.9446,-9.9514,-9.941,-9.9447,-9.9423,-9.9387,-9.9372,-9.9408,-9.9387,-9.9386,-9.9676,-9.987,-10.008,-9.9551,-9.782,-9.5368,-9.3162,-9.0925,-9.142,-9.4923,-9.6248,-9.7318,-10.013,-10.097,-10.108,-10.115,-10.026,-9.9618,-9.9155,-9.9018,-9.8774,-9.877,-9.8709,-9.8672,-9.8557,-9.8489,-9.837,-9.8393,-9.8252,-9.8125,-9.8054,-9.7981,-9.7884,-9.7857,-9.7847,-9.7702,-9.7613,-9.7565,-9.7477,-9.7411,-9.7248,-9.7185,-9.7003,-9.6902,-9.678,-9.6729,-9.6529,-9.6424,-9.6203,-9.5997,-9.5902,-9.5735,-9.5558,-9.5255,-9.5043,-9.4943,-9.4703,-9.446,-9.4258,-9.4116,-9.4075,-9.3932,-9.3632,-9.3578,-9.3619,-9.3469,-9.3449,-9.3483,-9.3583,-9.3614,-9.4033,-9.4379,-9.4728,-9.5107,-9.5549,-9.5863,-9.6325,-9.6769,-9.7068,-9.7439,-9.7577,-9.7751,-9.8005,-9.8155,-9.8414,-9.8498,-9.8616,-9.8646,-9.879,-9.8827,-9.8805,-9.8822,-9.8837,-9.8959,-9.8961,-9.893,-9.8907,-9.894,-9.898,-9.8932,-9.8857,-9.8836,-9.8852,-9.8997,-9.8909,-9.8854,-9.8817,-9.8822,-9.8737,-9.8759,-9.8687,-9.8682,-9.8751,-9.8712,-9.8571,-9.8551,-9.8533,-9.8486,-9.8557,-9.8485,-9.8495,-9.8504,-9.8395,-9.8384,-9.8445,-9.8451,-9.8362,-9.8343,-9.8388,-9.8453,-9.8483,-9.8425,-9.8425,-9.8558,-9.8552,-9.8533,-9.8523,-9.8668,-9.8596,-9.8656,-9.8656,-9.8621,-9.8621,-9.8654,-9.8665,-9.8687,-9.8685,-9.8657,-9.8659,-9.87,-9.8699,-9.866,-9.8718,-9.8723,-9.8719,-9.8714,-9.8766,-9.8786,-9.8616,-9.8651,-9.8756,-9.8772,-9.8743,-9.8776,-9.874,-9.8746,-9.8819,-9.8734,-9.8772,-9.8664,-9.874,-9.8777,-9.8807,-9.8713,-9.8795,-9.8792,-9.8804,-9.8757,-9.8812,-9.8812,-9.884,-9.8886,-9.8849,-9.8789,-9.8789,-9.8879,-9.8849,-9.8749,-9.8754,-9.894,-9.8882,-9.88,-9.8821,-9.8806,-9.8843,-9.8845,-9.8891,-9.8878,-9.8795,-9.8835,-9.8898,-9.888,-9.8891,-9.8851,-9.8781,-9.8862,-9.8901,-9.8815,-9.8834,-9.8826,-9.8823,-9.8875,-9.8773,-9.8794,-9.885,-9.8842,-9.89,-9.8833,-9.8875,-9.8767,-9.8773,-9.8842,-9.8869,-9.8918,-9.885,-9.8781,-9.874,-9.8643,-9.8513,-9.8354,-9.8415,-9.8341,-9.8199,-9.7917,-9.7685,-9.7719,-9.7977,-9.8018,-9.8089,-9.806,-9.8141,-9.8178,-9.822,-9.8376,-9.871,-9.8951,-9.8983,-9.9032,-9.8953,-9.8938,-9.9027,-9.9002,-9.901,-9.9026,-9.9028,-9.9019,-9.9046,-9.9047,-9.9009,-9.9035,-9.9145,-9.9297,-9.951,-9.966,-9.8626,-9.6391,-9.3913,-9.1677,-9.0092,-9.2955,-9.5329,-9.6598,-9.8271,-10.034,-10.069,-10.079,-10.054,-9.9628,-9.925,-9.8827,-9.8745,-9.8515,-9.8496,-9.8311,-9.834,-9.8154,-9.8257,-9.8006,-9.7965,-9.7768,-9.7852,-9.7678,-9.776,-9.7622,-9.7591,-9.7446,-9.748,-9.7287,-9.7223,-9.7127,-9.707,-9.698,-9.6888,-9.676,-9.659,-9.6421,-9.6401,-9.6194,-9.5999,-9.5813,-9.5734,-9.5527,-9.5343,-9.5104,-9.499,-9.4757,-9.4525,-9.4342,-9.4103,-9.4074,-9.379,-9.3613,-9.3467,-9.3455,-9.3265,-9.3187,-9.3098,-9.3132,-9.3162,-9.3262,-9.3416,-9.3751,-9.3976,-9.4466,-9.4868,-9.5301,-9.5675,-9.6052,-9.6467,-9.669,-9.7025,-9.7287,-9.7418,-9.767,-9.7865,-9.8021,-9.8082,-9.8243,-9.8261,-9.8329,-9.8377,-9.8332,-9.8433,-9.8476,-9.8399,-9.8541,-9.8478,-9.8472,-9.8511,-9.8555,-9.849,-9.846,-9.8447,-9.8502,-9.8391,-9.8439,-9.8469,-9.8428,-9.8457,-9.8388,-9.8269,-9.823,-9.8225,-9.8168,-9.8196,-9.8237,-9.8185,-9.8101,-9.7983,-9.7996,-9.7935,-9.7906,-9.7968,-9.7902,-9.7857,-9.7868,-9.7861,-9.7928,-9.789,-9.7951,-9.7967,-9.7952,-9.7909,-9.7997,-9.8018,-9.8022,-9.8073,-9.7972,-9.7968,-9.8017,-9.8063,-9.8089,-9.8091,-9.8141,-9.8103,-9.8106,-9.8111,-9.8143,-9.8211,-9.8145,-9.8181,-9.818,-9.8176,-9.8224,-9.8227,-9.8173,-9.8207,-9.8137,-9.8161,-9.8198,-9.8191,-9.8156,-9.8179,-9.8163,-9.8207,-9.8205,-9.8195,-9.8169,-9.8229,-9.8224,-9.8201,-9.8153,-9.8156,-9.8174,-9.8108,-9.8084,-9.8164,-9.8147,-9.8138,-9.817,-9.8132,-9.8163,-9.817,-9.8143,-9.8128,-9.816,-9.8205,-9.8226,-9.8234,-9.8126,-9.8145,-9.8157,-9.8185,-9.8195,-9.8169,-9.8134,-9.8141,-9.8143,-9.8109,-9.815,-9.811,-9.8192,-9.8157,-9.8132,-9.8155,-9.8131,-9.805,-9.8042,-9.8123,-9.8104,-9.8084,-9.8005,-9.806,-9.8063,-9.8099,-9.8045,-9.8026,-9.7999,-9.7987,-9.8035,-9.8034,-9.8058,-9.8099,-9.8065,-9.7998,-9.8037,-9.7988,-9.8019,-9.8003,-9.7987,-9.7962,-9.792,-9.7971,-9.7941,-9.7892,-9.7887,-9.7781,-9.7687,-9.7711,-9.7607,-9.7638,-9.7577,-9.7371,-9.7066,-9.6927,-9.6804,-9.6992,-9.7141,-9.7052,-9.7182,-9.7279,-9.724,-9.7385,-9.7572,-9.7805,-9.7956,-9.8026,-9.8058,-9.8022,-9.7956,-9.7927,-9.797,-9.806,-9.8069,-9.8038,-9.8073,-9.8017,-9.8051,-9.8033,-9.8011,-9.8071,-9.8326,-9.8639,-9.8782,-9.7839,-9.5649,-9.3303,-9.0904,-8.9913,-9.0109,-9.3381,-9.51,-9.6038,-9.8558,-9.9242,-9.9216,-9.9702,-9.9289,-9.8494,-9.8204,-9.7662,-9.7694,-9.7435,-9.7441,-9.7374,-9.7382,-9.723,-9.7215,-9.7047,-9.7119,-9.6914,-9.6858,-9.6812,-9.6773,-9.6668,-9.6727,-9.6541,-9.6516,-9.6323,-9.6428,-9.6236,-9.616,-9.6087,-9.6018,-9.5959,-9.5764,-9.5575,-9.5436,-9.5376,-9.5208,-9.506,-9.5038,-9.4815,-9.4569,-9.4311,-9.4116,-9.3911,-9.3651,-9.3522,-9.3307,-9.3043,-9.2871,-9.2696,-9.2524,-9.2362,-9.2334,-9.2348,-9.2259,-9.2355,-9.2388,-9.2489,-9.2823,-9.3066,-9.326,-9.37,-9.4024,-9.4471,-9.4852,-9.5313,-9.5618,-9.597,-9.6213,-9.6444,-9.6632,-9.7013,-9.7018,-9.7174,-9.7141,-9.7233,-9.7362,-9.7473,-9.736,-9.7453,-9.7452,-9.7446,-9.7506,-9.7452,-9.7503,-9.7472,-9.7429,-9.7396,-9.7434,-9.7432,-9.7391,-9.7382,-9.7403,-9.7374,-9.7362,-9.7335,-9.7352,-9.7335,-9.7377,-9.7367,-9.726,-9.7267,-9.7205,-9.7231,-9.7182,-9.7147,-9.7208,-9.7133,-9.7121,-9.7112,-9.7085,-9.7116,-9.7085,-9.7166,-9.7109,-9.7118,-9.7089,-9.7188,-9.7119,-9.7105,-9.7142,-9.7249,-9.7206,-9.7169,-9.7238,-9.7285,-9.7291,-9.7333,-9.7337,-9.7342,-9.7231,-9.7348,-9.7382,-9.7406,-9.7407,-9.7365,-9.7418,-9.7385,-9.746,-9.7403,-9.7373,-9.7388,-9.7409,-9.7407,-9.7452,-9.7378,-9.7413,-9.7447,-9.7475,-9.746,-9.7414,-9.755,-9.7476,-9.7379,-9.7449,-9.7562,-9.7492,-9.7534,-9.7512,-9.7455,-9.7558,-9.7552,-9.7603,-9.754,-9.7588,-9.7598,-9.7621,-9.7608,-9.7647,-9.7601,-9.7593,-9.7608,-9.7607,-9.7769,-9.7788,-9.7687,-9.7747,-9.7734,-9.7683,-9.7608,-9.7654,-9.7516,-9.7474,-9.7358,-9.7406,-9.746,-9.7401,-9.723,-9.6983,-9.6806,-9.6868,-9.6983,-9.698,-9.71,-9.7157,-9.7338,-9.7342,-9.7432,-9.7628,-9.7823,-9.8157,-9.8189,-9.8292,-9.8233,-9.8286,-9.8216,-9.8297,-9.8317,-9.8297,-9.832,-9.8383,-9.8374,-9.8346,-9.8406,-9.8407,-9.8451,-9.8698,-9.9039,-9.918,-9.8333,-9.6091,-9.3652,-9.1173,-8.964,-9.213,-9.4508,-9.6008,-9.7415,-9.9315,-9.9419,-9.983,-10.024,-9.9344,-9.9031,-9.8688,-9.8366,-9.8084,-9.8126,-9.7958,-9.8086,-9.7866,-9.7914,-9.7861,-9.7815,-9.7641,-9.7571,-9.7497,-9.7501,-9.7379,-9.7388,-9.732,-9.7354,-9.7193,-9.7244,-9.7109,-9.7112,-9.6983,-9.6886,-9.6737,-9.6653,-9.6553,-9.6511,-9.625,-9.6099,-9.5935,-9.5937,-9.5739,-9.5587,-9.5333,-9.517,-9.4938,-9.4729,-9.4562,-9.4496,-9.4234,-9.4071,-9.3909,-9.3766,-9.3657,-9.3574,-9.3512,-9.3539,-9.3602,-9.365,-9.3768,-9.3975,-9.4288,-9.4661,-9.5066,-9.5602,-9.6049,-9.6347,-9.6766,-9.6931,-9.737,-9.7695,-9.7971,-9.8228,-9.8404,-9.8612,-9.8824,-9.8852,-9.8941,-9.8985,-9.9131,-9.9132,-9.9167,-9.9221,-9.9255,-9.917,-9.9223,-9.9233,-9.9255,-9.9253,-9.9237,-9.9235,-9.9232,-9.9206,-9.9179,-9.9205,-9.9199,-9.9271,-9.9261,-9.9189,-9.9102,-9.9165,-9.9192,-9.9157,-9.9125,-9.9111,-9.9023,-9.898,-9.9005,-9.901,-9.9021,-9.8908,-9.8902,-9.8883,-9.8809,-9.8878,-9.8894,-9.8845,-9.8885,-9.8852,-9.8931,-9.8886,-9.8926,-9.8952,-9.8929,-9.897,-9.9021,-9.9043,-9.9124,-9.9098,-9.9145,-9.9101,-9.9139,-9.9212,-9.9158,-9.9161,-9.9188,-9.9167,-9.9159,-9.9173,-9.9176,-9.9188,-9.9162,-9.9168,-9.9201,-9.9239,-9.9229,-9.922,-9.9235,-9.9213,-9.9191,-9.9256,-9.9219,-9.929,-9.9272,-9.9295,-9.9305,-9.9265,-9.9338,-9.9232,-9.9298,-9.9242,-9.9196,-9.9279,-9.9283,-9.9264,-9.9259,-9.9308,-9.9271,-9.9248,-9.9331,-9.9253,-9.934,-9.9303,-9.9266,-9.9235,-9.9268,-9.9363,-9.9382,-9.9312,-9.931,-9.9319,-9.9365,-9.9405,-9.9426,-9.9414,-9.9433,-9.9445,-9.9427,-9.9469,-9.9425,-9.9433,-9.9599,-9.9586,-9.9532,-9.9552,-9.9479,-9.9467,-9.9572,-9.953,-9.9512,-9.9551,-9.9538,-9.9515,-9.9508,-9.9535,-9.9529,-9.9507,-9.9414,-9.9414,-9.9382,-9.9356,-9.9255,-9.9176,-9.9117,-9.9139,-9.9015,-9.8831,-9.8595,-9.8418,-9.8286,-9.855,-9.8591,-9.8627,-9.8745,-9.8816,-9.8747,-9.8895,-9.8964,-9.9117,-9.9396,-9.9513,-9.9561,-9.9464,-9.9537,-9.9486,-9.9491,-9.9504,-9.9445,-9.9495,-9.9569,-9.9498,-9.9415,-9.9425,-9.9496,-9.9624,-9.9906,-10.015,-10.008,-9.9161,-9.7074,-9.463,-9.2262,-9.0365,-9.2683,-9.5317,-9.6433,-9.7893,-10.041,-10.091,-10.111,-10.089,-9.9841,-9.9559,-9.898,-9.8971,-9.8751,-9.8832,-9.8629,-9.8716,-9.8544,-9.8516,-9.8383,-9.842,-9.822,-9.8145,-9.811,-9.8112,-9.7966,-9.7987,-9.7818,-9.7779,-9.7706,-9.7647,-9.746,-9.744,-9.7235,-9.7304,-9.7158,-9.7019,-9.6806,-9.6747,-9.6611,-9.6471,-9.6255,-9.6096,-9.5929,-9.5749,-9.5546,-9.5407,-9.514,-9.5022,-9.4762,-9.4495,-9.4267,-9.4104,-9.4026,-9.3881,-9.3831,-9.3632,-9.3482,-9.3424,-9.3493,-9.3545,-9.3628,-9.3731,-9.3985,-9.4311,-9.4702,-9.505,-9.5418,-9.5851,-9.6328,-9.6665,-9.702,-9.728,-9.7604,-9.778,-9.7942,-9.8093,-9.8229,-9.8299,-9.8464,-9.8486,-9.8551,-9.8656,-9.8693,-9.8618,-9.8667,-9.8701,-9.8691,-9.8654,-9.8762,-9.8704,-9.8771,-9.8774,-9.8747,-9.8676,-9.8688,-9.8661,-9.8664,-9.8654,-9.8648,-9.8575,-9.8605,-9.8582,-9.863,-9.8533,-9.8569,-9.8522,-9.849,-9.8397,-9.8413,-9.8344,-9.8353,-9.8322,-9.8328,-9.8347,-9.8343,-9.8281,-9.828,-9.8201,-9.8215,-9.8281,-9.8291,-9.8275,-9.826,-9.838,-9.8359,-9.8303,-9.8334,-9.8369,-9.8402,-9.8409,-9.8427,-9.8455,-9.8504,-9.8444,-9.8484,-9.8479,-9.8475,-9.8554,-9.8508,-9.849,-9.8551,-9.8638,-9.855,-9.8587,-9.8545,-9.8504,-9.8518,-9.8596,-9.8607,-9.8559,-9.8624,-9.8587,-9.8642,-9.8595,-9.8605,-9.858,-9.8571,-9.861,-9.8645,-9.8618,-9.8554,-9.862,-9.8608,-9.8552,-9.8579,-9.8583,-9.8611,-9.8631,-9.8609,-9.8592,-9.8582,-9.8625,-9.8632,-9.8652,-9.8655,-9.8637,-9.8687,-9.867,-9.8659,-9.8635,-9.8718,-9.8633,-9.8672,-9.8677,-9.8697,-9.8645,-9.8642,-9.8697,-9.8655,-9.867,-9.869,-9.8623,-9.864,-9.8656,-9.8706,-9.8743,-9.8614,-9.8666,-9.8658,-9.8685,-9.8589,-9.8696,-9.8654,-9.8646,-9.8633,-9.8637,-9.8618,-9.8623,-9.866,-9.868,-9.8612,-9.8637,-9.8624,-9.8685,-9.8629,-9.8619,-9.8612,-9.8652,-9.8649,-9.8654,-9.8584,-9.8662,-9.8627,-9.866,-9.8555,-9.8554,-9.8579,-9.8482,-9.8459,-9.8369,-9.8256,-9.8272,-9.8197,-9.8075,-9.7873,-9.7733,-9.7546,-9.7607,-9.7724,-9.7858,-9.7909,-9.7979,-9.8022,-9.8052,-9.8214,-9.8516,-9.871,-9.8726,-9.8778,-9.8691,-9.8783,-9.8781,-9.8795,-9.8819,-9.8751,-9.8782,-9.8754,-9.8786,-9.8776,-9.8863,-9.8787,-9.8825,-9.9064,-9.9385,-9.9405,-9.8428,-9.6288,-9.3894,-9.1566,-8.9817,-9.2429,-9.49,-9.6004,-9.6548,-9.9253,-10.044,-10.022,-10.061,-9.9768,-9.9267,-9.8614,-9.8502,-9.8163,-9.823,-9.8073,-9.8087,-9.7929,-9.7974,-9.7779,-9.7774,-9.7689,-9.7622,-9.745,-9.7483,-9.7326,-9.7341,-9.7232,-9.7206,-9.7165,-9.7049,-9.6965,-9.6943,-9.6767,-9.669,-9.653,-9.6466,-9.6319,-9.6217,-9.6028,-9.5917,-9.5766,-9.561,-9.5401,-9.5366,-9.5196,-9.5031,-9.4777,-9.4579,-9.4439,-9.4153,-9.4007,-9.3719,-9.3556,-9.3373,-9.3318,-9.322,-9.3073,-9.3094,-9.3033,-9.3039,-9.3247,-9.3374,-9.3636,-9.3764,-9.4113,-9.451,-9.4977,-9.5286,-9.5726,-9.6071,-9.6439,-9.6851,-9.7139,-9.742,-9.763,-9.782,-9.7973,-9.8088,-9.8178,-9.8259,-9.8382,-9.8364,-9.8411,-9.8476,-9.853,-9.8458,-9.8562,-9.8527,-9.8588,-9.8586,-9.8569,-9.8524,-9.8584,-9.8505,-9.8514,-9.845,-9.8504,-9.8489,-9.848,-9.8397,-9.8428,-9.8328,-9.8329,-9.833,-9.8313,-9.8261,-9.8255,-9.8185,-9.8149,-9.8078,-9.8083,-9.8041,-9.808,-9.8009,-9.8006,-9.7998,-9.7978,-9.8006,-9.7986,-9.7981,-9.7912,-9.7987,-9.8024,-9.7997,-9.7999,-9.8061,-9.8078,-9.803,-9.8133,-9.8174,-9.8153,-9.8109,-9.8155,-9.8156,-9.8153,-9.8201,-9.8203,-9.8144,-9.8152,-9.8199,-9.816,-9.8152,-9.8159,-9.8136,-9.8176,-9.8169,-9.814,-9.8113,-9.8098,-9.8113,-9.8109,-9.8116,-9.8096,-9.8063,-9.8064,-9.8052,-9.8135,-9.812,-9.8106,-9.8081,-9.8085,-9.808,-9.8097,-9.8132,-9.8121,-9.8085,-9.8105,-9.8079,-9.811,-9.8117,-9.811,-9.8098,-9.8081,-9.8081,-9.807,-9.8139,-9.8076,-9.8127,-9.8109,-9.8136,-9.809,-9.8105,-9.8112,-9.8137,-9.8033,-9.8148,-9.8122,-9.8129,-9.8133,-9.8147,-9.8081,-9.813,-9.8109,-9.8142,-9.8113,-9.8087,-9.8094,-9.8084,-9.8086,-9.8085,-9.8081,-9.809,-9.8078,-9.8067,-9.807,-9.8013,-9.8111,-9.8145,-9.8087,-9.815,-9.8048,-9.8113,-9.8145,-9.8102,-9.8086,-9.8049,-9.8066,-9.808,-9.8111,-9.8093,-9.8083,-9.8074,-9.8145,-9.8154,-9.8117,-9.8123,-9.8052,-9.8013,-9.8062,-9.7956,-9.7892,-9.7753,-9.7628,-9.7641,-9.7532,-9.7305,-9.7193,-9.7081,-9.7158,-9.7255,-9.7208,-9.7345,-9.7335,-9.7509,-9.7476,-9.7515,-9.7779,-9.8032,-9.8138,-9.8189,-9.8256,-9.8243,-9.814,-9.8194,-9.8229,-9.8232,-9.8224,-9.8218,-9.8168,-9.8097,-9.8212,-9.822,-9.8262,-9.8346,-9.861,-9.8908,-9.8572,-9.7103,-9.4591,-9.246,-9.0149,-8.9983,-9.3628,-9.5053,-9.6041,-9.8627,-9.9534,-9.9505,-9.989,-9.9344,-9.8673,-9.8618,-9.794,-9.7811,-9.766,-9.7619,-9.7498,-9.7486,-9.7407,-9.7335,-9.724,-9.7184,-9.705,-9.7025,-9.6945,-9.689,-9.6824,-9.6796,-9.6754,-9.6653,-9.6547,-9.6535,-9.6381,-9.636,-9.6218,-9.6159,-9.6082,-9.594,-9.5808,-9.5658,-9.5501,-9.5322,-9.5288,-9.5,-9.486
