-0.26226,-0.27182,-0.27009,-0.26123,-0.25543,-0.24693,-0.25087,-0.26044,-0.25877,-0.25462,-0.25227,-0.24594,-0.25664,-0.25774,-0.25147,-0.24699,-0.24657,-0.25545,-0.25409,-0.25336,-0.24097,-0.24415,-0.25455,-0.25471,-0.23909,-0.22693,-0.22239,-0.23551,-0.23402,-0.23126,-0.21974,-0.21707,-0.21669,-0.22848,-0.21619,-0.2048,-0.20278,-0.21155,-0.21308,-0.20759,-0.19576,-0.1937,-0.19286,-0.19191,-0.17991,-0.16904,-0.15706,-0.15498,-0.15942,-0.15504,-0.14432,-0.12945,-0.11814,-0.12704,-0.1249,-0.11995,-0.10658,-0.10054,-0.11078,-0.11186,-0.10452,-0.10476,-0.097559,-0.10586,-0.10233,-0.094422,-0.080221,-0.081425,-0.090304,-0.085701,-0.073719,-0.068927,-0.06048,-0.058962,-0.056322,-0.041567,-0.038417,-0.036864,-0.040634,-0.046917,-0.03338,-0.020235,-0.022488,-0.022898,-0.030865,-0.030534,-0.029394,-0.029256,-0.033018,-0.04541,-0.048733,-0.044427,-0.047445,-0.056558,-0.074969,-0.078823,-0.081564,-0.083058,-0.087262,-0.10132,-0.10951,-0.11351,-0.10934,-0.11282,-0.12704,-0.1335,-0.1315,-0.13036,-0.13327,-0.13946,-0.14805,-0.1546,-0.15012,-0.15569,-0.16036,-0.1667,-0.16533,-0.16287,-0.1594,-0.16302,-0.17857,-0.17155,-0.15882,-0.16353,-0.17065,-0.18149,-0.17668,-0.1689,-0.17555,-0.17234,-0.18152,-0.18353,-0.17664,-0.17306,-0.17392,-0.18569,-0.17935,-0.17623,-0.17639,-0.17864,-0.18383,-0.18623,-0.17972,-0.17643,-0.18003,-0.18506,-0.18848,-0.1818,-0.17841,-0.1796,-0.18391,-0.18257,-0.16709,-0.14402,-0.13653,-0.13316,-0.12834,-0.11962,-0.09913,-0.089244,-0.078537,-0.085908,-0.077141,-0.068396,-0.067921,-0.071617,-0.079269,-0.085702,-0.089452,-0.10267,-0.14046,-0.15973,-0.17465,-0.17929,-0.18582,-0.19767,-0.21428,-0.20953,-0.20473,-0.2017,-0.20773,-0.21904,-0.22109,-0.21666,-0.21725,-0.21676,-0.24272,-0.25197,-0.22468,-0.16245,-0.018823,0.25548,0.56285,0.88264,1.1443,1.2301,1.1848,1.0449,0.68043,0.12436,-0.41041,-0.51755,-0.46619,-0.39909,-0.33393,-0.30857,-0.28007,-0.28123,-0.26335,-0.26192,-0.24558,-0.24743,-0.24972,-0.25531,-0.25032,-0.24093,-0.23714,-0.25124,-0.24162,-0.24287,-0.23206,-0.2426,-0.24621,-0.2429,-0.24047,-0.23388,-0.23236,-0.24734,-0.23336,-0.23621,-0.22257,-0.22231,-0.2266,-0.23308,-0.22933,-0.21797,-0.21741,-0.22674,-0.22737,-0.22328,-0.21266,-0.21276,-0.22092,-0.22718,-0.22825,-0.21949,-0.21326,-0.22184,-0.2239,-0.22123,-0.21503,-0.20439,-0.20571,-0.21028,-0.20447,-0.20098,-0.19027,-0.18776,-0.19297,-0.18669,-0.17537,-0.16821,-0.1723,-0.18256,-0.18149,-0.1716,-0.17152,-0.16637,-0.17342,-0.17255,-0.1684,-0.15168,-0.14569,-0.14887,-0.14776,-0.13744,-0.12247,-0.11665,-0.11717,-0.11595,-0.10555,-0.090802,-0.089113,-0.096247,-0.10313,-0.098873,-0.090272,-0.097284,-0.096085,-0.10126,-0.097337,-0.091979,-0.087005,-0.081333,-0.094084,-0.088552,-0.081785,-0.070932,-0.068344,-0.075886,-0.063997,-0.05346,-0.047411,-0.04251,-0.050321,-0.042638,-0.035397,-0.02179,-0.029476,-0.031808,-0.033969,-0.02645,-0.022551,-0.019116,-0.028185,-0.034631,-0.033833,-0.033895,-0.040327,-0.050411,-0.066796,-0.064608,-0.064082,-0.071171,-0.084187,-0.096397,-0.10391,-0.10154,-0.10583,-0.11111,-0.12849,-0.12865,-0.12402,-0.13033,-0.13148,-0.14809,-0.15156,-0.14608,-0.1436,-0.15577,-0.16383,-0.16898,-0.16335,-0.16131,-0.16272,-0.17905,-0.17895,-0.17226,-0.17395,-0.17855,-0.17579,-0.18609,-0.18059,-0.17816,-0.1802,-0.18489,-0.19034,-0.19054,-0.18133,-0.18916,-0.19359,-0.19898,-0.18978,-0.18093,-0.18246,-0.18991,-0.19687,-0.19227,-0.18558,-0.18449,-0.19146,-0.19776,-0.19614,-0.19183,-0.1885,-0.18929,-0.20165,-0.19859,-0.19403,-0.19008,-0.19599,-0.19853,-0.19805,-0.19394,-0.19466,-0.19463,-0.20459,-0.20388,-0.19372,-0.18959,-0.1941,-0.19317,-0.18759,-0.17587,-0.15399,-0.15259,-0.14609,-0.13807,-0.12552,-0.10587,-0.093791,-0.088613,-0.096517,-0.083905,-0.078844,-0.0794,-0.075975,-0.079696,-0.089694,-0.097325,-0.1106,-0.14181,-0.16731,-0.18132,-0.18627,-0.19075,-0.19952,-0.21661,-0.21905,-0.21607,-0.20915,-0.21445,-0.22413,-0.22613,-0.21935,-0.22427,-0.23539,-0.25877,-0.26252,-0.24518,-0.13106,0.057953,0.35407,0.66515,0.97832,1.2076,1.2289,1.1918,0.94558,0.52206,-0.081235,-0.49138,-0.52038,-0.45941,-0.39224,-0.34246,-0.31109,-0.30098,-0.28802,-0.28739,-0.27541,-0.26326,-0.26135,-0.27068,-0.27364,-0.26523,-0.25562,-0.25957,-0.26831,-0.26448,-0.25907,-0.25828,-0.26066,-0.26696,-0.26349,-0.2566,-0.25405,-0.25539,-0.26273,-0.26027,-0.2531,-0.2442,-0.24807,-0.24545,-0.24961,-0.24476,-0.23309,-0.23412,-0.24536,-0.25431,-0.24364,-0.23077,-0.23152,-0.23902,-0.24321,-0.24263,-0.23216,-0.23212,-0.23446,-0.23228,-0.23918,-0.23229,-0.22799,-0.22436,-0.2236,-0.22152,-0.21367,-0.20691,-0.20064,-0.20876,-0.20134,-0.19362,-0.18595,-0.18764,-0.19423,-0.19171,-0.18031,-0.17858,-0.17337,-0.18176,-0.18034,-0.17105,-0.16245,-0.15153,-0.1569,-0.15702,-0.14063,-0.12593,-0.12197,-0.11823,-0.11702,-0.1045,-0.099433,-0.096472,-0.10067,-0.1002,-0.097759,-0.089928,-0.095401,-0.10104,-0.10734,-0.1086,-0.094808,-0.095454,-0.093895,-0.099778,-0.091138,-0.08343,-0.076939,-0.075234,-0.079346,-0.073141,-0.062005,-0.053037,-0.048063,-0.059912,-0.060307,-0.037382,-0.033976,-0.036137,-0.042308,-0.044226,-0.043864,-0.034357,-0.039423,-0.04508,-0.056002,-0.05716,-0.049352,-0.054181,-0.069254,-0.07619,-0.080479,-0.083601,-0.093315,-0.104,-0.11363,-0.11778,-0.11118,-0.12304,-0.12897,-0.13989,-0.14597,-0.13901,-0.13795,-0.15089,-0.16539,-0.16665,-0.16301,-0.16447,-0.16992,-0.18185,-0.1865,-0.17662,-0.17764,-0.18734,-0.19573,-0.19589,-0.19181,-0.18745,-0.18876,-0.1958,-0.20324,-0.20063,-0.18798,-0.19337,-0.2031,-0.20775,-0.20247,-0.19736,-0.2045,-0.20586,-0.21462,-0.21254,-0.20245,-0.20575,-0.21131,-0.21866,-0.21535,-0.20383,-0.21215,-0.21414,-0.22155,-0.22476,-0.21919,-0.21351,-0.21744,-0.22569,-0.22295,-0.21488,-0.21337,-0.2231,-0.22798,-0.23137,-0.22902,-0.22208,-0.2229,-0.23386,-0.2353,-0.22744,-0.21617,-0.21944,-0.22478,-0.23137,-0.23039,-0.2201,-0.2204,-0.23072,-0.23621,-0.23679,-0.22403,-0.22708,-0.23101,-0.23889,-0.23769,-0.22394,-0.22968,-0.23948,-0.24575,-0.23782,-0.23503,-0.22759,-0.23452,-0.24659,-0.24003,-0.23466,-0.23039,-0.23746,-0.24613,-0.24037,-0.2384,-0.23347,-0.22595,-0.22201,-0.21448,-0.19133,-0.17719,-0.17529,-0.17124,-0.1575,-0.14751,-0.13065,-0.13158,-0.13703,-0.13233,-0.13183,-0.12169,-0.12314,-0.13987,-0.15732,-0.18143,-0.1975,-0.2125,-0.2342,-0.23939,-0.25094,-0.24144,-0.25043,-0.26096,-0.26871,-0.27097,-0.26928,-0.26483,-0.26465,-0.27585,-0.28441,-0.29565,-0.29096,-0.27448,-0.17845,0.034734,0.34958,0.66784,0.95576,1.1498,1.1759,1.1497,0.89475,0.45174,-0.17709,-0.44058,-0.56255,-0.52625,-0.43729,-0.41674,-0.36538,-0.35611,-0.31935,-0.33236,-0.31446,-0.33194,-0.31628,-0.32499,-0.30466,-0.32807,-0.31953,-0.31898,-0.30008,-0.31102,-0.31037,-0.32037,-0.31233,-0.31536,-0.30667,-0.30829,-0.31249,-0.32015,-0.30331,-0.30185,-0.30593,-0.31585,-0.30326,-0.30518,-0.29984,-0.30008,-0.30275,-0.30016,-0.29101,-0.29961,-0.29693,-0.30237,-0.29783,-0.29738,-0.28466,-0.29384,-0.29584,-0.3016,-0.29439,-0.28832,-0.28259,-0.28992,-0.29654,-0.28718,-0.27757,-0.27711,-0.27689,-0.26918,-0.26746,-0.25662,-0.25853,-0.25711,-0.26347,-0.26181,-0.25373,-0.24785,-0.24452,-0.25147,-0.24396,-0.2336,-0.23271,-0.23376,-0.24133,-0.23021,-0.21428,-0.20747,-0.20335,-0.20026,-0.19451,-0.17559,-0.16736,-0.16291,-0.17286,-0.16717,-0.15644,-0.14952,-0.1493,-0.14979,-0.15695,-0.14595,-0.14068,-0.13951,-0.15015,-0.14871,-0.14629,-0.13548,-0.14222,-0.13476,-0.14054,-0.12997,-0.11767,-0.10512,-0.11026,-0.10842,-0.10458,-0.091708,-0.087121,-0.084738,-0.099066,-0.09853,-0.080348,-0.081706,-0.090029,-0.090632,-0.090143,-0.084852,-0.088517,-0.095802,-0.11056,-0.11154,-0.1091,-0.10061,-0.1124,-0.12985,-0.13901,-0.1376,-0.13398,-0.13688,-0.15157,-0.1641,-0.16359,-0.16137,-0.16652,-0.17866,-0.19181,-0.19245,-0.18542,-0.19692,-0.20755,-0.21009,-0.20967,-0.2101,-0.21512,-0.21336,-0.22544,-0.22424,-0.22383,-0.22668,-0.22783,-0.23221,-0.24273,-0.22742,-0.22054,-0.2307,-0.24346,-0.24792,-0.24637,-0.24068,-0.2416,-0.25062,-0.24737,-0.24688,-0.23491,-0.23677,-0.25104,-0.25169,-0.25462,-0.24096,-0.23969,-0.24973,-0.25211,-0.25189,-0.24529,-0.24998,-0.25282,-0.25783,-0.24597,-0.22351,-0.21451,-0.2181,-0.20512,-0.20092,-0.18755,-0.17643,-0.17121,-0.15607,-0.14083,-0.13161,-0.12551,-0.13769,-0.14225,-0.13738,-0.13292,-0.13931,-0.15138,-0.18276,-0.20599,-0.21758,-0.22897,-0.24708,-0.26201,-0.26236,-0.26909,-0.26251,-0.26538,-0.27122,-0.26813,-0.27112,-0.27157,-0.26918,-0.28259,-0.28241,-0.29706,-0.29664,-0.28541,-0.19821,-0.030046,0.2695,0.59648,0.88491,1.1063,1.1543,1.1508,1.0807,0.74564,0.22492,-0.4146,-0.59298,-0.55328,-0.50806,-0.42017,-0.40464,-0.34571,-0.33521,-0.30509,-0.31728,-0.30514,-0.3105,-0.2815,-0.29487,-0.28519,-0.30091,-0.294,-0.2993,-0.27276,-0.29049,-0.28775,-0.30453,-0.28433,-0.27865,-0.27212,-0.28666,-0.28168,-0.27875,-0.26461,-0.27102,-0.27416,-0.28513,-0.27414,-0.26779,-0.2681,-0.27114,-0.27153,-0.27188,-0.26317,-0.26377,-0.2654,-0.27572,-0.26415,-0.25321,-0.2553,-0.25951,-0.268,-0.26896,-0.25789,-0.25645,-0.2519,-0.25769,-0.25358,-0.24059,-0.23904,-0.23568,-0.24326,-0.23611,-0.22869,-0.21931,-0.22197,-0.21944,-0.22193,-0.2152,-0.20947,-0.20541,-0.21539,-0.21558,-0.21323,-0.19565,-0.19827,-0.20185,-0.196,-0.18474,-0.16733,-0.16562,-0.16888,-0.16975,-0.16558,-0.13781,-0.13923,-0.13237,-0.14174,-0.13506,-0.12948,-0.12169,-0.12727,-0.12945,-0.12945,-0.1149,-0.11502,-0.1223,-0.12545,-0.11887,-0.10874,-0.09995,-0.10531,-0.10784,-0.10087,-0.092927,-0.088468,-0.078847,-0.082976,-0.073215,-0.072194,-0.052212,-0.05788,-0.056014,-0.058235,-0.042049,-0.040439,-0.045075,-0.055032,-0.057052,-0.057771,-0.049319,-0.05385,-0.058476,-0.070666,-0.073784,-0.079318,-0.08387,-0.092624,-0.10525,-0.11137,-0.10751,-0.11145,-0.1205,-0.13717,-0.14238,-0.14255,-0.13713,-0.15132,-0.16226,-0.16201,-0.16077,-0.15811,-0.16721,-0.18557,-0.17941,-0.18101,-0.17775,-0.18259,-0.19373,-0.1963,-0.19145,-0.18449,-0.19272,-0.20785,-0.20765,-0.2007,-0.197,-0.20528,-0.21277,-0.20425,-0.20226,-0.20529,-0.20093,-0.21049,-0.21995,-0.21868,-0.2071,-0.21252,-0.21721,-0.22392,-0.21608,-0.20602,-0.2082,-0.2176,-0.22531,-0.222,-0.21328,-0.20955,-0.21864,-0.21216,-0.20998,-0.19516,-0.17716,-0.16777,-0.17181,-0.162,-0.15448,-0.13726,-0.12303,-0.11077,-0.11739,-0.10573,-0.10348,-0.093303,-0.10605,-0.10354,-0.11123,-0.11706,-0.1425,-0.17211,-0.18781,-0.1974,-0.20688,-0.21779,-0.22519,-0.24095,-0.24177,-0.23616,-0.23909,-0.23547,-0.25517,-0.25025,-0.24666,-0.24394,-0.25117,-0.27593,-0.28139,-0.28772,-0.21297,-0.063427,0.043537,0.35325,0.68067,1.0037,1.2117,1.205,1.1653,0.90476,0.48358,-0.12799,-0.49774,-0.51541,-0.46686,-0.40717,-0.36554,-0.32989,-0.30358,-0.28514,-0.2786,-0.27219,-0.28247,-0.28346,-0.27775,-0.26627,-0.27647,-0.27851,-0.2918,-0.27406,-0.27204,-0.2611,-0.26984,-0.28056,-0.27694,-0.26361,-0.27463,-0.2714,-0.27676,-0.25708,-0.25045,-0.26948,-0.27147,-0.28116,-0.28721,-0.27443,-0.25287,-0.25506,-0.26742,-0.26945,-0.27056,-0.26295,-0.2563,-0.26678,-0.26194,-0.25136,-0.24718,-0.25998,-0.26661,-0.25019,-0.24293,-0.23562,-0.24166,-0.24427,-0.24317,-0.22706,-0.21736,-0.21614,-0.21475,-0.22699,-0.22945,-0.20942,-0.20185,-0.21367,-0.21131,-0.22876,-0.21129,-0.21006,-0.2114,-0.21531,-0.20158,-0.19325,-0.17919,-0.17523,-0.18576,-0.18372,-0.17298,-0.16609,-0.15928,-0.15782,-0.15094,-0.14152,-0.12412,-0.12244,-0.1311,-0.13033,-0.12399,-0.12559,-0.12746,-0.14039,-0.14347,-0.13531,-0.12615,-0.12503,-0.13185,-0.13091,-0.12561,-0.1244,-0.11984,-0.12746,-0.12553,-0.11499,-0.097695,-0.093646,-0.10562,-0.10673,-0.099394,-0.089607,-0.088131,-0.085685,-0.096471,-0.094894,-0.079614,-0.083584,-0.085071,-0.09239,-0.090565,-0.092386,-0.084624,-0.090103,-0.10012,-0.10781,-0.11038,-0.11,-0.11607,-0.13126,-0.14808,-0.14426,-0.14397,-0.14945,-0.16623,-0.17337,-0.16697,-0.16539,-0.1714,-0.17885,-0.19083,-0.19194,-0.1894,-0.19128,-0.19907,-0.21225,-0.2055,-0.19766,-0.2002,-0.21314,-0.21801,-0.21167,-0.20614,-0.20514,-0.21403,-0.22109,-0.21388,-0.21307,-0.21302,-0.21199,-0.22019,-0.22172,-0.22348,-0.21661,-0.21424,-0.22632,-0.22624,-0.22176,-0.21848,-0.22369,-0.23058,-0.23662,-0.22816,-0.21711,-0.22646,-0.23131,-0.22627,-0.21905,-0.20249,-0.18909,-0.18389,-0.18298,-0.1637,-0.14592,-0.14653,-0.13891,-0.12374,-0.11263,-0.10709,-0.10153,-0.10835,-0.11167,-0.10491,-0.098096,-0.10403,-0.13664,-0.15915,-0.17574,-0.20093,-0.19992,-0.20849,-0.23737,-0.24641,-0.24791,-0.24523,-0.24385,-0.25792,-0.26091,-0.25425,-0.25005,-0.2543,-0.26184,-0.26969,-0.27638,-0.28153,-0.27615,-0.17478,-0.092858,0.14945,0.49144,0.80069,1.0855,1.218,1.2016,1.1186,0.76125,0.22476,-0.39073,-0.58034,-0.51895,-0.47401,-0.40108,-0.39101,-0.33775,-0.32171,-0.29359,-0.31112,-0.30202,-0.31543,-0.28728,-0.29207,-0.28225,-0.2976,-0.28694,-0.29171,-0.27434,-0.28513,-0.28101,-0.29374,-0.28125,-0.28615,-0.27577,-0.29143,-0.28616,-0.28341,-0.26371,-0.26884,-0.26994,-0.27493,-0.26763,-0.26318,-0.25573,-0.26964,-0.27189,-0.26716,-0.25659,-0.25548,-0.258,-0.26548,-0.26451,-0.25527,-0.25497,-0.26404,-0.26538,-0.26241,-0.25072,-0.25289,-0.25865,-0.25414,-0.25182,-0.23996,-0.23114,-0.22672,-0.23644,-0.22414,-0.21996,-0.2071,-0.21029,-0.21169,-0.21163,-0.20448,-0.20375,-0.20078,-0.21329,-0.20779,-0.20477,-0.18763,-0.18533,-0.19031,-0.19364,-0.18319,-0.17596,-0.17194,-0.17001,-0.16435,-0.15737,-0.13893,-0.14039,-0.14479,-0.1505,-0.1333,-0.13486,-0.12956,-0.14216,-0.15177,-0.15007,-0.13167,-0.13186,-0.13814,-0.14714,-0.14405,-0.13503,-0.12496,-0.13159,-0.13238,-0.13112,-0.11894,-0.11097,-0.10521,-0.1173,-0.11003,-0.098187,-0.087364,-0.086031,-0.093178,-0.096642,-0.089085,-0.082376,-0.081263,-0.090698,-0.099147,-0.097453,-0.09209,-0.10213,-0.1069,-0.12169,-0.1247,-0.1254,-0.12643,-0.14018,-0.15043,-0.16073,-0.15543,-0.16406,-0.18169,-0.19539,-0.19469,-0.1907,-0.19366,-0.19726,-0.21599,-0.21664,-0.21615,-0.22052,-0.22281,-0.23572,-0.2389,-0.2324,-0.24239,-0.23962,-0.25665,-0.25982,-0.246,-0.24448,-0.24928,-0.26425,-0.2632,-0.25873,-0.25887,-0.26103,-0.26485,-0.27693,-0.26969,-0.25869,-0.26943,-0.27291,-0.27958,-0.27444,-0.26288,-0.26828,-0.26244,-0.25493,-0.24166,-0.21742,-0.21608,-0.20709,-0.20846,-0.20086,-0.18129,-0.16344,-0.17227,-0.17164,-0.17188,-0.16446,-0.16157,-0.16942,-0.18209,-0.19558,-0.20722,-0.22872,-0.25829,-0.27779,-0.29536,-0.29576,-0.29634,-0.3096,-0.31248,-0.31361,-0.31477,-0.31006,-0.3133,-0.32577,-0.32769,-0.32093,-0.31635,-0.32674,-0.34736,-0.36181,-0.31901,-0.18721,0.027234,0.34746,0.65056,0.93939,1.1393,1.1374,1.0669,0.92301,0.51552,-0.097096,-0.58542,-0.64453,-0.61032,-0.54219,-0.45755,-0.43003,-0.39388,-0.39403,-0.37987,-0.36911,-0.35237,-0.35695,-0.35793,-0.36274,-0.34845,-0.34857,-0.34118,-0.3471,-0.35384,-0.35322,-0.33941,-0.3408,-0.34788,-0.34956,-0.35117,-0.33829,-0.33899,-0.34142,-0.34244,-0.34144,-0.32861,-0.334,-0.33698,-0.33694,-0.33825,-0.31843,-0.32178,-0.32952,-0.33601,-0.338,-0.33145,-0.32601,-0.32935,-0.33616,-0.32156,-0.3249,-0.32144,-0.32476,-0.33414,-0.32917,-0.32219,-0.31125,-0.30711,-0.31547,-0.30259,-0.29519,-0.29431,-0.29165,-0.29791,-0.30181,-0.29893,-0.27528,-0.27758,-0.28462,-0.28146,-0.26948,-0.26595,-0.27184,-0.27609,-0.27727,-0.25914,-0.24884,-0.24379,-0.24663,-0.24325,-0.23136,-0.21934,-0.21584,-0.20946,-0.21051,-0.20855,-0.19514,-0.192,-0.19707,-0.19811,-0.19948,-0.18877,-0.1744,-0.18485,-0.1935,-0.1871,-0.17454,-0.17883,-0.17633,-0.18648,-0.17345,-0.16589,-0.15585,-0.15138,-0.15324,-0.15856,-0.14769,-0.13979,-0.13337,-0.13379,-0.136,-0.12971,-0.11665,-0.11589,-0.12189,-0.12898,-0.12535,-0.11448,-0.12017,-0.13225,-0.13995,-0.14406,-0.14212,-0.14426,-0.14764,-0.16578,-0.17509,-0.16749,-0.1686,-0.17959,-0.19651,-0.19828,-0.19494,-0.20046,-0.2064,-0.21995,-0.22417,-0.21782,-0.22526,-0.2333,-0.24963,-0.24528,-0.23969,-0.23803,-0.23958,-0.24648,-0.24106,-0.22603,-0.21372,-0.21175,-0.20356,-0.20218,-0.19256,-0.17527,-0.15014,-0.13798,-0.16242,-0.14588,-0.13843,-0.14092,-0.14152,-0.1506,-0.15251,-0.16316,-0.1766,-0.20022,-0.24268,-0.26261,-0.25904,-0.27072,-0.27192,-0.27849,-0.29729,-0.29614,-0.28904,-0.29682,-0.30621,-0.30413,-0.29537,-0.29698,-0.30172,-0.31091,-0.31209,-0.31848,-0.31598,-0.32375,-0.25067,-0.0974,0.18307,0.50743,0.80168,1.04,1.1347,1.096,0.92205,0.51119,-0.11981,-0.59025,-0.63832,-0.58405,-0.51893,-0.44048,-0.44941,-0.39743,-0.36278,-0.33999,-0.34522,-0.33794,-0.34735,-0.32968,-0.33044,-0.32341,-0.32833,-0.32225,-0.31485,-0.31015,-0.31959,-0.32353,-0.32312,-0.31204,-0.30421,-0.30558,-0.31085,-0.30414,-0.30525,-0.29402,-0.30285,-0.30696,-0.30999,-0.30488,-0.29343,-0.29529,-0.30455,-0.30424,-0.30199,-0.29186,-0.29487,-0.3031,-0.2989,-0.29742,-0.2855,-0.2875,-0.29237,-0.30085,-0.29747,-0.28705,-0.28008,-0.28043,-0.28801,-0.2803,-0.26863,-0.25891,-0.26308,-0.26606,-0.2557,-0.2462,-0.2385,-0.24528,-0.25217,-0.24562,-0.23534,-0.23506,-0.23501,-0.24258,-0.23926,-0.239,-0.22161,-0.22383,-0.22589,-0.21536,-0.21009,-0.19517,-0.19088,-0.19418,-0.1851,-0.1761,-0.16095,-0.16072,-0.16716,-0.16863,-0.16216,-0.15608,-0.1558,-0.15801,-0.16943,-0.16664,-0.15585,-0.15143,-0.14717,-0.15845,-0.15183,-0.13991,-0.13103,-0.13152,-0.13484,-0.12781,-0.11214,-0.109,-0.09962,-0.10821,-0.097557,-0.088394,-0.083831,-0.076946,-0.082327,-0.081144,-0.077441,-0.072985,-0.070201,-0.084554,-0.093633,-0.08712,-0.086947,-0.096441,-0.10637,-0.11227,-0.11353,-0.11035,-0.12106,-0.13639,-0.13982,-0.14864,-0.14771,-0.15768,-0.16273,-0.17443,-0.17838,-0.17163,-0.17648,-0.18507,-0.19864,-0.20056,-0.19895,-0.20635,-0.20464,-0.2188,-0.21914,-0.21187,-0.21855,-0.22333,-0.23364,-0.23224,-0.2267,-0.22268,-0.22438,-0.23402,-0.24286,-0.2389,-0.22784,-0.23317,-0.24259,-0.24636,-0.23696,-0.23838,-0.24303,-0.24902,-0.24984,-0.24297,-0.22374,-0.21263,-0.20676,-0.20664,-0.20162,-0.18647,-0.17426,-0.17175,-0.17028,-0.15308,-0.12694,-0.13177,-0.12807,-0.13941,-0.13801,-0.12479,-0.12257,-0.13202,-0.15953,-0.17788,-0.19374,-0.21743,-0.23757,-0.24765,-0.25633,-0.25606,-0.25578,-0.25956,-0.27813,-0.28277,-0.27387,-0.26271,-0.27077,-0.27918,-0.28058,-0.27961,-0.28174,-0.30439,-0.32036,-0.29666,-0.1827,0.029645,0.33255,0.64689,0.96402,1.0931,1.1958,1.1724,1.0283,0.65959,0.08529,-0.45722,-0.59594,-0.52338,-0.48336,-0.40811,-0.38588,-0.34452,-0.35222,-0.32691,-0.33853,-0.31194,-0.32245,-0.30859,-0.32655,-0.30952,-0.31549,-0.29422,-0.31151,-0.30283,-0.31656,-0.30279,-0.30247,-0.29677,-0.31408,-0.30752,-0.30733,-0.2924,-0.30239,-0.30217,-0.30349,-0.29518,-0.28816,-0.28275,-0.29495,-0.29494,-0.28909,-0.27565,-0.27719,-0.28054,-0.29164,-0.28313,-0.27629,-0.26979,-0.27675,-0.28518,-0.28095,-0.27211,-0.2722,-0.27512,-0.27904,-0.27677,-0.26205,-0.26031,-0.25877,-0.26427,-0.25262,-0.24402,-0.23154,-0.23112,-0.23473,-0.23492,-0.22096,-0.21765,-0.2175,-0.23219,-0.21711,-0.21362,-0.20133,-0.2005,-0.20797,-0.20265,-0.18837,-0.18298,-0.1732,-0.18088,-0.17534,-0.17049,-0.14585,-0.14232,-0.13897,-0.1474,-0.13482,-0.1296,-0.12632,-0.12686,-0.13704,-0.13402,-0.12079,-0.12331,-0.12315,-0.13441,-0.12032,-0.11822,-0.11106,-0.11458,-0.11474,-0.11697,-0.1027,-0.093314,-0.089524,-0.094441,-0.09339,-0.079604,-0.062423,-0.066673,-0.072173,-0.076713,-0.064959,-0.065517,-0.057047,-0.071642,-0.069613,-0.067942,-0.05451,-0.058898,-0.062419,-0.07875,-0.075262,-0.074612,-0.08221,-0.088827,-0.10591,-0.11405,-0.10611,-0.11614,-0.12424,-0.14096,-0.1422,-0.13667,-0.14448,-0.1547,-0.16192,-0.1645,-0.1653,-0.16887,-0.17443,-0.18689,-0.18985,-0.18437,-0.18682,-0.19179,-0.20102,-0.20005,-0.19942,-0.19747,-0.20704,-0.21582,-0.21691,-0.20903,-0.20631,-0.20772,-0.2186,-0.2249,-0.22357,-0.21258,-0.22016,-0.21817,-0.22992,-0.22358,-0.21161,-0.21018,-0.21288,-0.22243,-0.22676,-0.21714,-0.21724,-0.22454,-0.23225,-0.22662,-0.21607,-0.21298,-0.2223,-0.2278,-0.23356,-0.22463,-0.21594,-0.22247,-0.23331,-0.22963,-0.22925,-0.21769,-0.22138,-0.22989,-0.23214,-0.2286,-0.22442,-0.22183,-0.23438,-0.22814,-0.22839,-0.21785,-0.22235,-0.23207,-0.23572,-0.23049,-0.21801,-0.21066,-0.20271,-0.19457,-0.18367,-0.16412,-0.15133,-0.15094,-0.15469,-0.1282,-0.11115,-0.11417,-0.11629,-0.12014,-0.11912,-0.1041,-0.10576,-0.12305,-0.14276,-0.15403,-0.17946,-0.19153,-0.20519,-0.22812,-0.23263,-0.23401,-0.23122,-0.24258,-0.25681,-0.25358,-0.25011,-0.24733,-0.25345,-0.26131,-0.26457,-0.26691,-0.27485,-0.28095,-0.24523,-0.18297,-0.013524,0.29136,0.60169,0.91003,1.1389,1.1983,1.1783,0.97362,0.54416,-0.046385,-0.52095,-0.56155,-0.48939,-0.43121,-0.39511,-0.36026,-0.33271,-0.31697,-0.31577,-0.32122,-0.31398,-0.30805,-0.29804,-0.30241,-0.30925,-0.30821,-0.30624,-0.30283,-0.30251,-0.31747,-0.31292,-0.31039,-0.29672,-0.29447,-0.31493,-0.30971,-0.30087,-0.29673,-0.2961,-0.3004,-0.30779,-0.30607,-0.28688,-0.2923,-0.2947,-0.30757,-0.29879,-0.2899,-0.2873,-0.2914,-0.29222,-0.29716,-0.28463,-0.28408,-0.29604,-0.30161,-0.28862,-0.28083,-0.28205,-0.28558,-0.2927,-0.2948,-0.27811,-0.27062,-0.26827,-0.27299,-0.26841,-0.25959,-0.25841,-0.25063,-0.25174,-0.25695,-0.24709,-0.24166,-0.23942,-0.25186,-0.2484,-0.24099,-0.23718,-0.23295,-0.22913,-0.23476,-0.22227,-0.2115,-0.20633,-0.20184,-0.20028,-0.19073,-0.17434,-0.17395,-0.17692,-0.17584,-0.17512,-0.16091,-0.16108,-0.16132,-0.16651,-0.16125,-0.14381,-0.14761,-0.15724,-0.15792,-0.15489,-0.14539,-0.13536,-0.13481,-0.14124,-0.13025,-0.12083,-0.11559,-0.11773,-0.11949,-0.11414,-0.099852,-0.098247,-0.096234,-0.1006,-0.10797,-0.10177,-0.092953,-0.095927,-0.096692,-0.097667,-0.096953,-0.092064,-0.098364,-0.10406,-0.10906,-0.11561,-0.11078,-0.12231,-0.13741,-0.14679,-0.15675,-0.15585,-0.16777,-0.16869,-0.17689,-0.17998,-0.18271,-0.18222,-0.18859,-0.21021,-0.21666,-0.21443,-0.20434,-0.21822,-0.22652,-0.2304,-0.23266,-0.23116,-0.23358,-0.24277,-0.24924,-0.24692,-0.24099,-0.25198,-0.26442,-0.25804,-0.2581,-0.24697,-0.25112,-0.25453,-0.26142,-0.26475,-0.25546,-0.2565,-0.26293,-0.26905,-0.2656,-0.26251,-0.26437,-0.26983,-0.27045,-0.27346,-0.25737,-0.25243,-0.25268,-0.2353,-0.23508,-0.22337,-0.20674,-0.20346,-0.20365,-0.18801,-0.15781,-0.1558,-0.16156,-0.17202,-0.17004,-0.15177,-0.15502,-0.16293,-0.17499,-0.19142,-0.2143,-0.23518,-0.24909,-0.27433,-0.27676,-0.28003,-0.28395,-0.28879,-0.29842,-0.2988,-0.30212,-0.29226,-0.29979,-0.30879,-0.30872,-0.30444,-0.30586,-0.32144,-0.34867,-0.34776,-0.25357,-0.096593,0.18017,0.49267,0.64561,0.92576,1.1291,1.1468,1.0878,0.76102,0.27838,-0.37504,-0.61576,-0.61823,-0.5712,-0.48618,-0.43349,-0.38791,-0.37212,-0.36469,-0.36694,-0.33284,-0.34243,-0.34179,-0.35255,-0.34684,-0.3462,-0.32828,-0.3332,-0.33858,-0.34074,-0.32767,-0.32433,-0.31521,-0.32435,-0.32919,-0.33191,-0.31962,-0.32225,-0.32278,-0.32797,-0.3183,-0.31451,-0.30831,-0.31552,-0.31943,-0.31885,-0.30373,-0.30291,-0.30361,-0.32084,-0.31202,-0.31062,-0.31081,-0.3099,-0.3127,-0.30703,-0.29866,-0.30167,-0.3024,-0.30893,-0.2988,-0.28916,-0.28844,-0.28405,-0.28457,-0.2905,-0.27712,-0.26128,-0.26772,-0.27569,-0.27969,-0.27237,-0.25848,-0.25815,-0.26414,-0.26491,-0.26683,-0.2545,-0.24984,-0.25012,-0.25184,-0.24684,-0.23571,-0.22897,-0.2277,-0.22313,-0.21886,-0.20459,-0.1942,-0.18639,-0.19286,-0.18609,-0.17663,-0.16926,-0.16908,-0.17674,-0.17296,-0.16268,-0.16244,-0.16276,-0.17729,-0.16393,-0.14862,-0.14336,-0.1467,-0.14411,-0.146,-0.13767,-0.13124,-0.12307,-0.12599,-0.11665,-0.11048,-0.10011,-0.098154,-0.10121,-0.099993,-0.09153,-0.08018,-0.079431,-0.09318,-0.093979,-0.089905,-0.081535,-0.078088,-0.077912,-0.096803,-0.093314,-0.09286,-0.09333,-0.10485,-0.12238,-0.12798,-0.12912,-0.13549,-0.14086,-0.15919,-0.16119,-0.15318,-0.158,-0.16333,-0.18603,-0.18756,-0.18575,-0.18215,-0.18246,-0.19951,-0.20076,-0.20624,-0.19781,-0.20548,-0.21277,-0.21496,-0.21352,-0.20002,-0.19034,-0.19182,-0.18859,-0.18061,-0.15855,-0.14728,-0.15687,-0.13557,-0.12232,-0.10201,-0.10884,-0.1134,-0.12848,-0.12048,-0.10528,-0.10909,-0.12055,-0.14921,-0.16003,-0.17991,-0.20125,-0.23246,-0.25136,-0.24901,-0.23787,-0.24227,-0.25961,-0.27186,-0.26766,-0.27667,-0.26863,-0.26736,-0.28238,-0.2833,-0.28327,-0.27784,-0.27756,-0.30677,-0.31973,-0.26341,-0.13391,0.10301,0.40954,0.71899,1.0135,1.1965,1.1669,1.0811,0.92147,0.51033,-0.1299,-0.54836,-0.59103,-0.55058,-0.47931,-0.41673,-0.37761,-0.3498,-0.34716,-0.328,-0.31543,-0.30629,-0.29244,-0.30437,-0.31228,-0.29838,-0.29016,-0.27945,-0.29673,-0.29134,-0.26231,-0.26443,-0.27897,-0.2842,-0.27656,-0.27853,-0.27458,-0.25792,-0.2742,-0.27668,-0.29362,-0.2727,-0.29171,-0.29836,-0.28558,-0.27958,-0.26773,-0.2702,-0.28207,-0.2802,-0.26058,-0.24968,-0.24109,-0.2432,-0.28101,-0.2912,-0.2844,-0.28848,-0.28103,-0.27299,-0.26954,-0.26388,-0.26322,-0.25098,-0.25209,-0.25076,-0.23879,-0.24356,-0.2439,-0.24218,-0.23199,-0.21508,-0.1949,-0.22461,-0.24348,-0.23466,-0.21552,-0.21286,-0.21239,-0.21345,-0.21999,-0.20524,-0.18152,-0.19339,-0.18107,-0.17347,-0.1615,-0.13122,-0.1334,-0.14806,-0.1539,-0.13744,-0.11987,-0.13404,-0.15192,-0.17081,-0.16346,-0.14053,-0.14058,-0.13859,-0.14524,-0.13326,-0.11346,-0.12849,-0.12187,-0.095205,-0.10352,-0.063534,-0.067838,-0.073172,-0.097459,-0.096252,-0.064803,-0.089138,-0.088845,-0.081685,-0.09023,-0.073706,-0.05569,-0.069804,-0.071915,-0.076279,-0.060505,-0.046782,-0.075817,-0.082738,-0.072771,-0.079428,-0.077885,-0.054766,-0.051515,-0.054674,-0.091893,-0.085239,-0.10211,-0.11697,-0.10225,-0.10585,-0.10053,-0.10101,-0.12942,-0.18569,-0.17741,-0.16731,-0.16812,-0.19172,-0.17311,-0.1808,-0.17168,-0.17919,-0.17396,-0.18926,-0.19792,-0.18399,-0.16107,-0.18295,-0.19779,-0.17052,-0.21998,-0.21255,-0.19722,-0.16474,-0.18524,-0.18353,-0.20156,-0.21098,-0.17941,-0.15864,-0.13949,-0.14516,-0.16812,-0.19591,-0.15361,-0.13538,-0.1253,-0.10403,-0.096044,-0.10397,-0.093443,-0.082289,-0.064955,-0.09175,-0.11654,-0.11118,-0.085496,-0.1308,-0.20387,-0.2366,-0.21127,-0.21438,-0.22296,-0.22116,-0.22979,-0.24773,-0.24571,-0.24289,-0.24245,-0.25131,-0.24855,-0.25557,-0.24666,-0.23153,-0.2593,-0.29035,-0.28607,-0.21191,-0.075988,0.17646,0.48844,0.65851,0.99499,1.2194,1.2042,1.1777,0.91641,0.47321,-0.21501,-0.53106,-0.53376,-0.46226,-0.39311,-0.37611,-0.33917,-0.33929,-0.30007,-0.28509,-0.28393,-0.28665,-0.28732,-0.28736,-0.26899,-0.26401,-0.26204,-0.27848,-0.27044,-0.27228,-0.26488,-0.26431,-0.26815,-0.26256,-0.23985,-0.25402,-0.23598,-0.2752,-0.28358,-0.27304,-0.24818,-0.24696,-0.26815,-0.2584,-0.24847,-0.24054,-0.24153,-0.24282,-0.24961,-0.24143,-0.23333,-0.22403,-0.23273,-0.24408,-0.25436,-0.22915,-0.22617,-0.22605,-0.2457,-0.24236,-0.2238,-0.20873,-0.22786,-0.23185,-0.21599,-0.20264,-0.19003,-0.20119,-0.22011,-0.20135,-0.17459,-0.16394,-0.18198,-0.18514,-0.20626,-0.17407,-0.17613,-0.16925,-0.18304,-0.17443,-0.15238,-0.13755,-0.13581,-0.13783,-0.14241,-0.13392,-0.12455,-0.11869,-0.11597,-0.10733,-0.11302,-0.10271,-0.10331,-0.10278,-0.1048,-0.10894,-0.092639,-0.061604,-0.078765,-0.10831,-0.093463,-0.089479,-0.097342,-0.083317,-0.06731,-0.056159,-0.064621,-0.053469,-0.054604,-0.041577,-0.046082,-0.046534,-0.017077,-0.0038461,-0.022887,-0.01794,-0.037304,-0.041176,-0.048694,-0.038915,-0.019873,-0.022631,-0.024418,-0.037338,-0.047737,-0.057728,-0.051564,-0.037249,-0.045115,-0.063632,-0.067634,-0.071669,-0.049718,-0.065474,-0.065086,-0.083842,-0.11006,-0.11636,-0.12753,-0.14073,-0.13403,-0.13026,-0.11409,-0.12043,-0.1492,-0.15657,-0.15026,-0.14135,-0.12912,-0.15515,-0.17983,-0.1776,-0.16741,-0.1522,-0.17069,-0.19508,-0.17185,-0.15631,-0.14036,-0.1789,-0.2111,-0.2147,-0.1694,-0.1612,-0.16772,-0.20058,-0.20049,-0.20963,-0.1981,-0.20003,-0.20356,-0.20727,-0.19415,-0.19265,-0.20233,-0.19574,-0.18034,-0.17585,-0.16064,-0.17996,-0.20711,-0.20148,-0.18198,-0.17138,-0.15299,-0.14971,-0.14323,-0.11919,-0.11877,-0.11273,-0.09885,-0.089764,-0.085554,-0.072277,-0.074662,-0.079046,-0.075158,-0.084522,-0.093883,-0.11144,-0.1474,-0.1767,-0.18766,-0.19442,-0.18676,-0.19183,-0.20026,-0.22256,-0.24,-0.22917,-0.23053,-0.21346,-0.23491,-0.25623,-0.23816,-0.22376,-0.24629,-0.28475,-0.28283,-0.23786,-0.13925,0.042204,0.37589,0.53125,0.83577,1.1183,1.2352,1.2287,1.0837,0.73567,0.17004,-0.41327,-0.58273,-0.50706,-0.44179,-0.35613,-0.35805,-0.32965,-0.33627,-0.29866,-0.2911,-0.26294,-0.29791,-0.27697,-0.28039,-0.26708,-0.30484,-0.29128,-0.28315,-0.2651,-0.28935,-0.27755,-0.3039,-0.29105,-0.27811,-0.24407,-0.25464,-0.26738,-0.26749,-0.28851,-0.26746,-0.25052,-0.25928,-0.25127,-0.2889,-0.27286,-0.2562,-0.24951,-0.27329,-0.28025,-0.2706,-0.25884,-0.26037,-0.27039,-0.26999,-0.25459,-0.26426,-0.26927,-0.26792,-0.26486,-0.24021,-0.24819,-0.26069,-0.25335,-0.23901,-0.22524,-0.22196,-0.22807,-0.21701,-0.2337,-0.2341,-0.21874,-0.23709,-0.21696,-0.20598,-0.23183,-0.2058,-0.21066,-0.21869,-0.21423,-0.20669,-0.19555,-0.19067,-0.20001,-0.18765,-0.17831,-0.17059,-0.17984,-0.15948,-0.16555,-0.16851,-0.15304,-0.15224,-0.13383,-0.14812,-0.15841,-0.13782,-0.13445,-0.12576,-0.14774,-0.13268,-0.1253,-0.10828,-0.11948,-0.1395,-0.14211,-0.12411,-0.1098,-0.097463,-0.11809,-0.10124,-0.11467,-0.092944,-0.089222,-0.08705,-0.081831,-0.086435,-0.075633,-0.065943,-0.080593,-0.073401,-0.086089,-0.069536,-0.073256,-0.07829,-0.087558,-0.094958,-0.099476,-0.097899,-0.10974,-0.11711,-0.11282,-0.11845,-0.12261,-0.11328,-0.15346,-0.14336,-0.14654,-0.15928,-0.17054,-0.18516,-0.17018,-0.16703,-0.16947,-0.18123,-0.19984,-0.21418,-0.21543,-0.20736,-0.19775,-0.20704,-0.21964,-0.22538,-0.20553,-0.21858,-0.22045,-0.22731,-0.23471,-0.22272,-0.22954,-0.23242,-0.23673,-0.23048,-0.21701,-0.19874,-0.18468,-0.19235,-0.19325,-0.18219,-0.1689,-0.15236,-0.13245,-0.13569,-0.124,-0.11313,-0.10848,-0.12733,-0.11416,-0.10615,-0.13385,-0.15765,-0.20067,-0.22962,-0.22525,-0.23422,-0.25006,-0.27685,-0.26667,-0.2707,-0.27355,-0.26761,-0.27505,-0.28012,-0.27357,-0.27289,-0.26888,-0.28348,-0.28306,-0.27912,-0.29546,-0.31685,-0.30116,-0.19963,-0.11749,0.1379,0.46843,0.75904,1.033,1.1945,1.1894,1.0286,0.66466,0.056044,-0.52004,-0.62331,-0.56503,-0.52379,-0.44439,-0.4211,-0.35319,-0.36705,-0.32671,-0.33572,-0.31594,-0.34138,-0.30517,-0.29586,-0.30601,-0.32415,-0.31413,-0.30617,-0.29704,-0.32087,-0.31097,-0.31432,-0.27812,-0.28555,-0.30252,-0.30243,-0.31022,-0.30129,-0.28517,-0.29691,-0.29635,-0.30653,-0.28346,-0.27599,-0.28694,-0.28891,-0.29068,-0.28223,-0.27337,-0.27618,-0.27744,-0.28891,-0.29197,-0.28641,-0.27947,-0.27673,-0.27896,-0.29342,-0.28807,-0.28877,-0.30096,-0.27631,-0.2805,-0.25645,-0.25241,-0.25676,-0.25722,-0.24139,-0.24548,-0.24098,-0.23466,-0.25051,-0.2465,-0.23411,-0.24724,-0.24374,-0.22745,-0.21845,-0.21977,-0.2234,-0.23529,-0.21885,-0.20056,-0.17445,-0.18363,-0.19106,-0.20062,-0.15233,-0.1565,-0.15918,-0.13149,-0.14932,-0.13432,-0.15385,-0.13987,-0.12902,-0.18213,-0.17055,-0.14394,-0.14156,-0.15517,-0.13705,-0.13507,-0.13702,-0.14457,-0.11637,-0.12613,-0.10009,-0.10013,-0.084832,-0.078426,-0.077149,-0.081123,-0.086718,-0.063814,-0.05782,-0.085377,-0.054272,-0.072041,-0.046796,-0.042473,-0.040563,-0.084763,-0.095075,-0.073288,-0.038246,-0.051292,-0.094732,-0.073098,-0.099049,-0.11865,-0.12172,-0.11223,-0.1036,-0.13645,-0.13584,-0.13093,-0.15283,-0.13883,-0.12548,-0.15196,-0.15531,-0.16382,-0.16368,-0.1663,-0.12747,-0.14482,-0.17618,-0.15581,-0.14058,-0.11518,-0.13531,-0.11791,-0.10562,-0.096826,-0.063511,-0.10681,-0.062159,-0.094136,-0.10484,-0.06531,-0.055779,-0.057401,-0.092588,-0.12668,-0.14043,-0.15475,-0.19803,-0.21687,-0.21398,-0.18159,-0.23499,-0.22714,-0.25137,-0.24855,-0.22212,-0.2375,-0.23485,-0.24227,-0.25459,-0.24859,-0.26582,-0.26308,-0.28016,-0.27913,-0.28623,-0.22551,-0.11504,0.13268,0.43925,0.78272,1.0523,1.2153,1.1542,1.0444,0.71057,0.16098,-0.45604,-0.58134,-0.53367,-0.50279,-0.42297,-0.41397,-0.3677,-0.33446,-0.30447,-0.30801,-0.29865,-0.29438,-0.2925,-0.29893,-0.28556,-0.27266,-0.27063,-0.29574,-0.29853,-0.26659,-0.24389,-0.25919,-0.2737,-0.29898,-0.27791,-0.27024,-0.25214,-0.27063,-0.27944,-0.27447,-0.26291,-0.26781,-0.25916,-0.27528,-0.26676,-0.2548,-0.23729,-0.2676,-0.25356,-0.26874,-0.23911,-0.25244,-0.26772,-0.26941,-0.2711,-0.25178,-0.25322,-0.25608,-0.25359,-0.25584,-0.25521,-0.2331,-0.22024,-0.24763,-0.24495,-0.22159,-0.2173,-0.22279,-0.23036,-0.22735,-0.21456,-0.21144,-0.2175,-0.2219,-0.21254,-0.21281,-0.19978,-0.20252,-0.20874,-0.20171,-0.19916,-0.18623,-0.18274,-0.18626,-0.17821,-0.1652,-0.15576,-0.14609,-0.15345,-0.147,-0.13982,-0.12909,-0.1308,-0.11856,-0.13563,-0.1538,-0.16066,-0.15647,-0.15083,-0.14675,-0.14143,-0.1243,-0.13017,-0.14298,-0.12754,-0.11136,-0.098448,-0.086909,-0.096964,-0.096698,-0.08848,-0.063276,-0.048347,-0.03644,-0.051866,-0.044092,-0.047542,-0.044542,-0.038105,-0.046909,-0.052032,-0.045125,-0.027025,-0.028555,-0.052368,-0.06824,-0.065011,-0.066866,-0.073428,-0.086636,-0.099,-0.10054,-0.09093,-0.092652,-0.1076,-0.11965,-0.11518,-0.11645,-0.11979,-0.13502,-0.14951,-0.14482,-0.14942,-0.14721,-0.1586,-0.16236,-0.17343,-0.16779,-0.17076,-0.16837,-0.18089,-0.18441,-0.1795,-0.17807,-0.18129,-0.19113,-0.1893,-0.18426,-0.18743,-0.17874,-0.17258,-0.16006,-0.14318,-0.13517,-0.13198,-0.12804,-0.12747,-0.10549,-0.081566,-0.077991,-0.087045,-0.087426,-0.083549,-0.07307,-0.070962,-0.081513,-0.10501,-0.13098,-0.13682,-0.16822,-0.19112,-0.21035,-0.21834,-0.21117,-0.22374,-0.23293,-0.24098,-0.24697,-0.23982,-0.24392,-0.24186,-0.24797,-0.25658,-0.25862,-0.25551,-0.25975,-0.27659,-0.28832,-0.27723,-0.16931,0.020195,0.30398,0.60951,0.92555,1.1679,1.1918,1.148,0.91176,0.48987,-0.1395,-0.54396,-0.57868,-0.50974,-0.46584,-0.4032,-0.3648,-0.34735,-0.33251,-0.32094,-0.29479,-0.29632,-0.292,-0.29105,-0.29242,-0.28204,-0.283,-0.29387,-0.29372,-0.29293,-0.27612,-0.29,-0.29394,-0.29833,-0.29807,-0.29404,-0.28118,-0.28364,-0.28906,-0.28369,-0.28295,-0.2829,-0.28026,-0.28244,-0.27865,-0.27759,-0.26559,-0.26216,-0.27573,-0.27871,-0.27756,-0.26692,-0.27307,-0.27853,-0.27876,-0.27674,-0.26762,-0.26329,-0.27025,-0.2746,-0.2654,-0.25523,-0.25728,-0.25806,-0.25392,-0.24646,-0.23975,-0.22965,-0.23426,-0.23449,-0.22564,-0.21552,-0.21447,-0.21779,-0.22336,-0.22003,-0.20738,-0.19451,-0.19795,-0.21833,-0.20553,-0.1897,-0.17759,-0.17988,-0.18197,-0.16941,-0.16104,-0.14685,-0.14203,-0.14842,-0.14573,-0.13151,-0.1279,-0.12893,-0.13736,-0.13712,-0.12817,-0.11371,-0.12084,-0.1224,-0.13136,-0.12533,-0.11133,-0.10467,-0.10988,-0.11508,-0.10743,-0.09333,-0.085367,-0.084767,-0.090029,-0.081731,-0.068581,-0.070701,-0.071685,-0.077524,-0.070252,-0.058454,-0.05457,-0.06285,-0.077147,-0.076108,-0.06327,-0.061371,-0.06623,-0.086776,-0.090678,-0.08748,-0.093422,-0.096216,-0.11344,-0.12167,-0.11812,-0.12486,-0.12967,-0.13921,-0.15022,-0.16106,-0.14975,-0.15855,-0.17071,-0.18238,-0.18216,-0.18206,-0.18493,-0.19695,-0.20165,-0.20465,-0.19567,-0.20698,-0.20977,-0.22072,-0.22227,-0.2108,-0.21026,-0.21252,-0.23093,-0.23716,-0.22801,-0.22402,-0.22809,-0.25016,-0.24414,-0.23711,-0.23059,-0.23343,-0.24819,-0.24178,-0.23076,-0.23592,-0.2442,-0.25085,-0.24765,-0.23889,-0.23078,-0.23217,-0.24303,-0.24775,-0.24819,-0.23571,-0.23822,-0.24149,-0.25195,-0.24995,-0.23999,-0.23803,-0.24062,-0.25457,-0.24777,-0.23571,-0.23968,-0.24906,-0.25035,-0.24505,-0.23682,-0.23884,-0.2426,-0.24985,-0.25044,-0.24443,-0.23445,-0.22269,-0.21767,-0.20924,-0.18495,-0.17427,-0.17479,-0.17471,-0.15197,-0.12818,-0.13622,-0.12617,-0.13904,-0.14059,-0.12615,-0.1204,-0.13216,-0.14601,-0.1731,-0.19881,-0.20846,-0.22934,-0.24435,-0.25466,-0.2572,-0.25168,-0.26761,-0.27894,-0.27654,-0.2772,-0.26905,-0.27295,-0.28731,-0.28872,-0.28565,-0.28709,-0.29914,-0.30351,-0.22385,-0.063298,0.21011,0.5285,0.83981,1.0885,1.1747,1.1553,0.99121,0.58709,0.0065973,-0.5134,-0.61047,-0.52769,-0.46873,-0.42083,-0.39482,-0.36786,-0.35374,-0.33094,-0.34001,-0.32806,-0.33338,-0.3072,-0.31508,-0.31601,-0.33124,-0.33253,-0.32182,-0.3166,-0.33114,-0.32682,-0.32258,-0.31943,-0.3243,-0.32567,-0.32351,-0.3176,-0.31027,-0.30326,-0.30589,-0.31931,-0.32348,-0.30775,-0.3087,-0.30694,-0.31494,-0.30574,-0.29954,-0.29567,-0.29551,-0.30931,-0.31523,-0.3037,-0.30066,-0.30081,-0.30819,-0.3164,-0.30549,-0.29273,-0.29364,-0.29875,-0.30007,-0.29186,-0.27849,-0.27964,-0.28333,-0.28698,-0.27522,-0.26134,-0.25844,-0.27501,-0.27084,-0.26652,-0.25406,-0.2525,-0.25211,-0.25783,-0.25788,-0.243,-0.23737,-0.23477,-0.24082,-0.23461,-0.21576,-0.21732,-0.21436,-0.21528,-0.20161,-0.18704,-0.17324,-0.16711,-0.17761,-0.17169,-0.16084,-0.15861,-0.15383,-0.15896,-0.15655,-0.14673,-0.13172,-0.14367,-0.15085,-0.15159,-0.14747,-0.14015,-0.12895,-0.13489,-0.13056,-0.11721,-0.10708,-0.10251,-0.10471,-0.099846,-0.10446,-0.089168,-0.08409,-0.088355,-0.095258,-0.096244,-0.082975,-0.078838,-0.081457,-0.098768,-0.099235,-0.093877,-0.10137,-0.10127,-0.11349,-0.11907,-0.1074,-0.12746,-0.1369,-0.15057,-0.15321,-0.15394,-0.16322,-0.16347,-0.17067,-0.17826,-0.17748,-0.18048,-0.194,-0.2016,-0.20418,-0.21321,-0.19913,-0.209,-0.22179,-0.23348,-0.23251,-0.224,-0.23231,-0.23502,-0.24139,-0.23701,-0.23135,-0.23824,-0.23712,-0.24592,-0.2467,-0.24539,-0.24997,-0.25247,-0.25719,-0.25839,-0.2408,-0.23992,-0.25197,-0.26445,-0.26157,-0.25541,-0.25372,-0.25696,-0.26366,-0.26348,-0.25801,-0.25609,-0.26381,-0.26704,-0.27586,-0.26791,-0.26477,-0.26886,-0.26877,-0.26814,-0.27094,-0.25766,-0.25933,-0.26903,-0.27281,-0.27058,-0.26636,-0.26951,-0.27853,-0.27192,-0.26813,-0.26018,-0.26324,-0.26627,-0.27104,-0.2712,-0.26479,-0.26284,-0.26943,-0.27284,-0.25836,-0.24424,-0.22775,-0.21891,-0.21488,-0.20697,-0.18868,-0.17349,-0.15913,-0.16457,-0.16314,-0.15513,-0.15643,-0.15282,-0.16007,-0.15769,-0.16467,-0.17019,-0.1987,-0.23155,-0.25428,-0.2539,-0.25814,-0.26799,-0.29035,-0.30066,-0.29476,-0.28788,-0.27947,-0.29764,-0.29502,-0.29404,-0.29051,-0.28953,-0.29575,-0.32096,-0.32331,-0.26512,-0.13964,0.10172,0.41867,0.72258,0.9995,1.1562,1.1378,1.0535,0.72006,0.20291,-0.42129,-0.60527,-0.5868,-0.56397,-0.46967,-0.42499,-0.38519,-0.37536,-0.35064,-0.3494,-0.32661,-0.34183,-0.34434,-0.34858,-0.33031,-0.33251,-0.31966,-0.34166,-0.33572,-0.3378,-0.31601,-0.31889,-0.32147,-0.3325,-0.32494,-0.31791,-0.31531,-0.3276,-0.33255,-0.32604,-0.31583,-0.319,-0.32211,-0.33761,-0.3225,-0.31007,-0.3152,-0.31893,-0.3205,-0.31623,-0.30759,-0.31012,-0.31064,-0.32169,-0.32029,-0.3184,-0.30773,-0.31005,-0.3193,-0.31318,-0.30218,-0.2943,-0.30096,-0.30491,-0.30696,-0.29365,-0.28683,-0.28586,-0.29436,-0.28211,-0.27939,-0.26823,-0.2706,-0.27127,-0.27874,-0.27543,-0.26189,-0.2549,-0.26334,-0.26585,-0.25928,-0.24195,-0.24395,-0.2373,-0.24297,-0.22681,-0.20538,-0.20605,-0.21107,-0.20368,-0.19061,-0.16599,-0.16488,-0.16693,-0.16614,-0.15929,-0.15221,-0.15174,-0.15423,-0.15812,-0.15979,-0.14519,-0.13519,-0.14308,-0.14618,-0.13742,-0.13271,-0.11602,-0.11313,-0.11271,-0.11048,-0.09903,-0.078922,-0.080478,-0.087217,-0.0893,-0.085725,-0.075442,-0.069338,-0.078051,-0.078517,-0.078207,-0.070021,-0.075796,-0.080351,-0.085779,-0.084223,-0.086345,-0.090904,-0.10411,-0.11365,-0.11716,-0.12012,-0.11939,-0.12452,-0.14307,-0.14935,-0.1486,-0.15474,-0.15804,-0.18041,-0.17992,-0.18471,-0.18386,-0.18604,-0.19839,-0.19927,-0.1955,-0.20014,-0.20657,-0.21984,-0.21189,-0.20895,-0.20448,-0.21236,-0.22402,-0.22801,-0.22686,-0.22565,-0.22499,-0.23066,-0.23972,-0.23756,-0.22939,-0.23163,-0.23934,-0.24295,-0.24022,-0.22838,-0.23348,-0.23818,-0.24086,-0.23493,-0.23447,-0.23315,-0.2321,-0.23439,-0.22257,-0.19622,-0.18605,-0.18513,-0.18356,-0.1738,-0.16121,-0.13707,-0.12416,-0.1394,-0.13024,-0.12785,-0.12996,-0.128,-0.14061,-0.14502,-0.15007,-0.16464,-0.19269,-0.22218,-0.24289,-0.24783,-0.25409,-0.26319,-0.27224,-0.28226,-0.28009,-0.26698,-0.2733,-0.27662,-0.28602,-0.28203,-0.27701,-0.28626,-0.29623,-0.32002,-0.32101,-0.29918,-0.18868,0.0014972,0.29752,0.60603,0.92341,1.1402,1.1455,1.1039,0.83832,0.41936,-0.22445,-0.56896,-0.58886,-0.52679,-0.44937,-0.41149,-0.3688,-0.36256,-0.35291,-0.34096,-0.31971,-0.32231,-0.32188,-0.33272,-0.32178,-0.31484,-0.3065,-0.31801,-0.31311,-0.31759,-0.30439,-0.31339,-0.31267,-0.3174,-0.31239,-0.30534,-0.30666,-0.31227,-0.31389,-0.31035,-0.306,-0.30491,-0.30114,-0.30487,-0.30137,-0.29272,-0.28966,-0.29568,-0.30111,-0.29964,-0.29478,-0.29443,-0.29601,-0.29861,-0.30034,-0.29723,-0.28996,-0.29483,-0.29352,-0.29332,-0.29441,-0.28293,-0.28158,-0.27963,-0.28176,-0.28003,-0.26931,-0.25012,-0.25289,-0.26816,-0.24667,-0.24258,-0.25137,-0.25054,-0.25346,-0.24029,-0.23534,-0.24249,-0.23898,-0.2336,-0.21468,-0.21174,-0.21334,-0.2155,-0.20923,-0.19422,-0.17695,-0.16393,-0.15926,-0.17071,-0.15284,-0.1278,-0.10478,-0.12826,-0.13009,-0.14133,-0.13434,-0.10796,-0.11434,-0.11625,-0.14698,-0.14557,-0.10758,-0.099277,-0.13768,-0.12907,-0.11072,-0.10381,-0.10813,-0.10619,-0.08865,-0.080305,-0.079992,-0.081265,-0.081435,-0.075119,-0.074513,-0.054213,-0.048451,-0.044048,-0.061555,-0.06672,-0.052851,-0.060557,-0.09232,-0.075041,-0.064634,-0.081338,-0.089083,-0.09433,-0.11218,-0.11571,-0.11278,-0.11166,-0.12089,-0.13802,-0.14694,-0.14552,-0.14629,-0.14877,-0.16891,-0.17401,-0.17441,-0.1674,-0.16291,-0.17778,-0.18671,-0.20171,-0.185,-0.18451,-0.20908,-0.21076,-0.21116,-0.20121,-0.20983,-0.23124,-0.24744,-0.22794,-0.22427,-0.22724,-0.23602,-0.24405,-0.2365,-0.23173,-0.24165,-0.25183,-0.24245,-0.24004,-0.23407,-0.2407,-0.23866,-0.25183,-0.24276,-0.23154,-0.2324,-0.23559,-0.25556,-0.24734,-0.2406,-0.23749,-0.23515,-0.24447,-0.25834,-0.24964,-0.23506,-0.24616,-0.23858,-0.25362,-0.25582,-0.25066,-0.24491,-0.2561,-0.26211,-0.26279,-0.2508,-0.26073,-0.26051,-0.25754,-0.25867,-0.2532,-0.24825,-0.25429,-0.26194,-0.25573,-0.25585,-0.25583,-0.26271,-0.26477,-0.26292,-0.25056,-0.24613,-0.23305,-0.21396,-0.20586,-0.19371,-0.18689,-0.17422,-0.17741,-0.17196,-0.14371,-0.14084,-0.13919,-0.15047,-0.14178,-0.13523,-0.13887,-0.14637,-0.16387,-0.18037,-0.2097,-0.22295,-0.2377,-0.25227,-0.26768,-0.27239,-0.26535,-0.26976,-0.28068,-0.28064,-0.28885,-0.28029,-0.28067,-0.28732,-0.29453,-0.29747,-0.31804,-0.31885,-0.27932,-0.16337,0.064992,0.39176,0.7064,0.99267,1.1451,1.1337,1.0837,0.75853,0.26566,-0.065955,-0.53671,-0.60901,-0.51673,-0.48298,-0.42798,-0.40935,-0.36446,-0.35405,-0.33728,-0.36401,-0.34392,-0.35409,-0.32893,-0.34284,-0.34336,-0.35202,-0.34061,-0.33515,-0.33055,-0.34801,-0.34614,-0.3438,-0.33714,-0.33449,-0.33352,-0.35818,-0.34385,-0.33785,-0.33406,-0.34052,-0.34609,-0.34412,-0.3291,-0.33484,-0.32202,-0.33347,-0.32803,-0.33197,-0.32833,-0.33199,-0.33479,-0.33948,-0.33312,-0.32435,-0.32418,-0.3342,-0.33342,-0.33046,-0.32743,-0.32674,-0.3317,-0.33067,-0.31621,-0.30372,-0.30568,-0.31603,-0.31199,-0.30258,-0.2937,-0.29175,-0.29689,-0.29898,-0.29772,-0.28717,-0.28577,-0.27985,-0.29587,-0.29212,-0.27916,-0.26858,-0.27232,-0.27172,-0.26567,-0.24173,-0.24134,-0.2401,-0.24738,-0.22968,-0.22579,-0.21982,-0.21071,-0.21278,-0.20996,-0.20954,-0.2007,-0.19691,-0.20201,-0.20837,-0.20194,-0.19185,-0.19593,-0.20292,-0.20221,-0.189,-0.1762,-0.17299,-0.17405,-0.17412,-0.17008,-0.15317,-0.16372,-0.16089,-0.16534,-0.15272,-0.13885,-0.14359,-0.14551,-0.15092,-0.15004,-0.13498,-0.14043,-0.14502,-0.15363,-0.15154,-0.15146,-0.15725,-0.16108,-0.17314,-0.17655,-0.17375,-0.17932,-0.18569,-0.20128,-0.21372,-0.21456,-0.21357,-0.22461,-0.24324,-0.24944,-0.24555,-0.24665,-0.25562,-0.27362,-0.27771,-0.27547,-0.2742,-0.28333,-0.28633,-0.29939,-0.30102,-0.28454,-0.29738,-0.30209,-0.30798,-0.31074,-0.29336,-0.30256,-0.31005,-0.32563,-0.32671,-0.31624,-0.32286,-0.32658,-0.33228,-0.32827,-0.31908,-0.32098,-0.32743,-0.33604,-0.33585,-0.33252,-0.32704,-0.33343,-0.34142,-0.33116,-0.33359,-0.32833,-0.33594,-0.34711,-0.34448,-0.33835,-0.31786,-0.30121,-0.2993,-0.29323,-0.28181,-0.26696,-0.26582,-0.25633,-0.24125,-0.22343,-0.2224,-0.21568,-0.22298,-0.23148,-0.22525,-0.21919,-0.22317,-0.25443,-0.2743,-0.30131,-0.31659,-0.32498,-0.34837,-0.35892,-0.36294,-0.35922,-0.3566,-0.36688,-0.37284,-0.37631,-0.37507,-0.37141,-0.37865,-0.39043,-0.39086,-0.39437,-0.40533,-0.40994,-0.34618,-0.19876,0.065963,0.39082,0.69673,0.96828,1.0926,1.0626,0.93017,0.54259,0.26914,-0.3489,-0.70558,-0.6704,-0.62857,-0.54627,-0.53517,-0.46449,-0.46282,-0.43494,-0.44831,-0.4278,-0.43895,-0.40536,-0.42096,-0.40895,-0.42981,-0.41026,-0.41184,-0.40093,-0.42211,-0.41191,-0.42229,-0.40446,-0.41412,-0.40173,-0.41795,-0.40457,-0.40665,-0.39402,-0.39903,-0.40032,-0.40621,-0.38806,-0.38414,-0.38247,-0.40144,-0.39822,-0.40095,-0.39065,-0.38667,-0.38916,-0.3945,-0.38656,-0.37344,-0.37993,-0.38796,-0.39567,-0.38355,-0.37512,-0.37457,-0.38241,-0.38634,-0.37742,-0.36055,-0.36181,-0.36405,-0.36929,-0.35403,-0.34598,-0.34762,-0.34824,-0.35497,-0.35245,-0.3383,-0.34408,-0.33319,-0.34606,-0.34042,-0.33352,-0.32106,-0.32163,-0.32367,-0.32235,-0.30532,-0.30043,-0.29035,-0.29771,-0.28674,-0.26856,-0.25349,-0.25564,-0.25427,-0.25972,-0.24586,-0.24028,-0.23809,-0.24139,-0.24582,-0.24942,-0.2308,-0.23757,-0.23707,-0.2396,-0.23887,-0.22297,-0.21792,-0.21986,-0.21549,-0.21543,-0.19627,-0.20072,-0.19083,-0.20481,-0.19418,-0.18448,-0.17373,-0.17803,-0.17592,-0.1835,-0.1731,-0.17357,-0.16867,-0.18861,-0.18357,-0.18106,-0.16311,-0.17627,-0.19812,-0.20712,-0.20338,-0.20318,-0.20426,-0.21364,-0.23063,-0.23752,-0.24123,-0.24141,-0.25539,-0.26465,-0.26653,-0.26274,-0.26485,-0.27172,-0.28261,-0.28513,-0.27917,-0.28438,-0.29583,-0.29973,-0.2995,-0.3042,-0.29654,-0.30676,-0.30991,-0.30751,-0.29839,-0.30543,-0.31475,-0.32518,-0.31665,-0.31671,-0.30724,-0.31646,-0.33281,-0.33215,-0.32067,-0.30998,-0.31743,-0.32487,-0.32878,-0.32593,-0.31815,-0.31888,-0.32309,-0.31569
