-3.0096,-3.0144,-3.0372,-3.0397,-3.0068,-2.9754,-3.0355,-3.025,-3.0059,-2.9749,-2.9698,-2.9854,-2.9785,-2.9695,-2.9729,-2.9831,-2.9877,-3.0029,-3.0104,-3.01,-3.0086,-3.0017,-3.0477,-3.0482,-3.0272,-3.0186,-3.0365,-3.0835,-3.0741,-3.053,-3.0441,-3.0504,-3.0564,-3.0711,-3.0373,-2.991,-2.8515,-2.6858,-2.5808,-2.3988,-2.1232,-2.0851,-2.3854,-2.8421,-3.3947,-3.4162,-3.2733,-3.2283,-3.0895,-3.0082,-3.0068,-2.9793,-2.9615,-2.974,-2.9616,-2.9627,-2.9736,-2.9787,-2.97,-2.9665,-2.9541,-2.9446,-2.9485,-2.9333,-2.9156,-2.9538,-2.92,-2.9204,-2.9153,-2.9237,-2.9323,-2.9181,-2.9028,-2.9026,-2.8932,-2.8809,-2.8659,-2.8649,-2.867,-2.8466,-2.8394,-2.8386,-2.8326,-2.805,-2.782,-2.7633,-2.7848,-2.7561,-2.749,-2.7273,-2.711,-2.7021,-2.6862,-2.6566,-2.6509,-2.6395,-2.6145,-2.583,-2.5757,-2.5751,-2.5606,-2.5435,-2.539,-2.5245,-2.5268,-2.5234,-2.5323,-2.5287,-2.56,-2.5934,-2.6327,-2.665,-2.6967,-2.7354,-2.7944,-2.8328,-2.8572,-2.8925,-2.9237,-2.9622,-2.976,-2.9905,-3.0072,-3.0148,-3.0267,-3.0322,-3.0427,-3.048,-3.0271,-3.0405,-3.0425,-3.0472,-3.0278,-3.0318,-3.0308,-3.0383,-3.0311,-3.043,-3.0369,-3.031,-3.036,-3.0345,-3.0269,-3.0345,-3.0333,-3.0362,-3.0404,-3.0372,-3.0441,-3.0287,-3.0278,-3.0393,-3.0537,-3.0501,-3.0396,-3.0494,-3.0501,-3.0532,-3.0559,-3.0632,-3.066,-3.0697,-3.0653,-3.0886,-3.0831,-3.0822,-3.0821,-3.0991,-3.0934,-3.0897,-3.0848,-3.0975,-3.1075,-3.1089,-3.1068,-3.0971,-3.1018,-3.1215,-3.1111,-3.1037,-3.112,-3.1231,-3.1164,-3.1121,-3.1076,-3.1052,-3.1102,-3.1203,-3.1278,-3.1182,-3.1053,-3.1126,-3.1252,-3.12,-3.1206,-3.1091,-3.1164,-3.1155,-3.131,-3.1328,-3.1126,-3.1063,-3.1165,-3.1274,-3.1266,-3.1084,-3.1155,-3.113,-3.1225,-3.1091,-3.0724,-3.0739,-3.0727,-3.083,-3.0888,-3.0459,-3.029,-3.0121,-3.0045,-3.0256,-3.0329,-3.037,-3.0546,-3.0697,-3.0707,-3.0727,-3.0913,-3.1081,-3.1309,-3.1287,-3.1304,-3.1291,-3.1366,-3.1512,-3.1531,-3.1517,-3.1473,-3.1424,-3.1363,-3.1458,-3.142,-3.1297,-3.0517,-2.915,-2.7657,-2.6239,-2.4351,-2.2091,-2.241,-2.6242,-3.18,-3.5679,-3.4909,-3.3668,-3.2925,-3.147,-3.0775,-3.0581,-3.0499,-3.045,-3.0482,-3.041,-3.0366,-3.0391,-3.0387,-3.0281,-3.028,-3.0208,-3.0112,-3.0163,-3.018,-3.0112,-3.011,-2.9913,-3.003,-2.9957,-2.9838,-2.9779,-2.9556,-2.9609,-2.9713,-2.9617,-2.9607,-2.9403,-2.9473,-2.9375,-2.9309,-2.9081,-2.8895,-2.8954,-2.8778,-2.8714,-2.855,-2.8235,-2.8212,-2.8036,-2.7903,-2.7825,-2.7516,-2.7356,-2.7182,-2.7148,-2.6902,-2.6718,-2.658,-2.6612,-2.6348,-2.6217,-2.6159,-2.6038,-2.6095,-2.6048,-2.5963,-2.5977,-2.6198,-2.6509,-2.6889,-2.7027,-2.7299,-2.7819,-2.8325,-2.8712,-2.9123,-2.9425,-2.9738,-3.0093,-3.0322,-3.0472,-3.0567,-3.0707,-3.0895,-3.1128,-3.0972,-3.0938,-3.0878,-3.0862,-3.0875,-3.0871,-3.0875,-3.0926,-3.0859,-3.091,-3.0923,-3.0878,-3.0735,-3.0827,-3.0834,-3.0726,-3.0703,-3.073,-3.0745,-3.0865,-3.0894,-3.0815,-3.0762,-3.0771,-3.0753,-3.0724,-3.0766,-3.0779,-3.088,-3.0785,-3.0858,-3.0903,-3.0812,-3.0877,-3.0944,-3.0941,-3.0986,-3.0903,-3.0901,-3.0963,-3.1057,-3.1113,-3.1017,-3.1086,-3.1027,-3.1093,-3.1182,-3.1016,-3.1084,-3.1105,-3.1113,-3.1178,-3.115,-3.1175,-3.1117,-3.1197,-3.1194,-3.1085,-3.1102,-3.1222,-3.1245,-3.1318,-3.1205,-3.1151,-3.122,-3.1309,-3.1341,-3.1229,-3.1269,-3.1224,-3.1197,-3.1285,-3.1323,-3.1241,-3.129,-3.1214,-3.1346,-3.1376,-3.1344,-3.1279,-3.1303,-3.1344,-3.1328,-3.1169,-3.0938,-3.0955,-3.0984,-3.1002,-3.1007,-3.0841,-3.0649,-3.0406,-3.0279,-3.0506,-3.0633,-3.0592,-3.0798,-3.0762,-3.09,-3.0987,-3.13,-3.1474,-3.1493,-3.1465,-3.1567,-3.1588,-3.1486,-3.158,-3.1561,-3.1517,-3.1515,-3.1624,-3.1766,-3.1729,-3.1679,-3.1509,-3.0835,-2.9652,-2.8199,-2.6807,-2.5046,-2.3161,-2.3394,-2.645,-3.1896,-3.6578,-3.6195,-3.4635,-3.3607,-3.2842,-3.175,-3.0904,-3.1064,-3.0943,-3.0956,-3.0924,-3.0955,-3.0882,-3.0887,-3.0696,-3.0691,-3.0587,-3.0585,-3.0584,-3.0559,-3.0585,-3.0488,-3.0421,-3.0391,-3.0331,-3.0321,-3.0313,-3.0179,-3.0178,-3.0109,-2.9923,-2.9825,-2.9834,-2.9819,-2.961,-2.9523,-2.9399,-2.9372,-2.9367,-2.9188,-2.8984,-2.8848,-2.8852,-2.8715,-2.8667,-2.8391,-2.8227,-2.8097,-2.8114,-2.7921,-2.7614,-2.7492,-2.7373,-2.7332,-2.7245,-2.6899,-2.6809,-2.6747,-2.6789,-2.6791,-2.6537,-2.6622,-2.6644,-2.6844,-2.7092,-2.7125,-2.7491,-2.7898,-2.854,-2.8844,-2.916,-2.9505,-2.9873,-3.0356,-3.0572,-3.081,-3.0963,-3.1129,-3.1304,-3.1408,-3.143,-3.146,-3.1379,-3.1541,-3.1512,-3.1549,-3.15,-3.1453,-3.1352,-3.1605,-3.1513,-3.1376,-3.1338,-3.1274,-3.1324,-3.1454,-3.1443,-3.1163,-3.1267,-3.1343,-3.1316,-3.1163,-3.1146,-3.1215,-3.1371,-3.138,-3.1349,-3.1372,-3.1389,-3.1316,-3.1614,-3.1467,-3.1354,-3.1368,-3.1518,-3.165,-3.151,-3.1451,-3.1486,-3.1492,-3.1563,-3.1575,-3.1481,-3.1521,-3.156,-3.1542,-3.1601,-3.1475,-3.1578,-3.156,-3.1575,-3.1642,-3.1586,-3.1585,-3.1507,-3.1577,-3.1422,-3.12,-3.1124,-3.1154,-3.1158,-3.1243,-3.1131,-3.0756,-3.0571,-3.0523,-3.0739,-3.0812,-3.0875,-3.0962,-3.1003,-3.1212,-3.119,-3.1434,-3.1584,-3.168,-3.1748,-3.1638,-3.1778,-3.1792,-3.1817,-3.1834,-3.1725,-3.1725,-3.1754,-3.1801,-3.1973,-3.1898,-3.1777,-3.1671,-3.0889,-2.9565,-2.8167,-2.688,-2.5089,-2.3279,-2.4126,-2.7374,-3.3113,-3.6573,-3.5079,-3.4011,-3.3628,-3.27,-3.1549,-3.1093,-3.094,-3.0909,-3.0822,-3.0824,-3.0766,-3.0849,-3.0819,-3.0697,-3.065,-3.0541,-3.0533,-3.0576,-3.0555,-3.0337,-3.0307,-3.045,-3.0446,-3.0392,-3.0227,-3.018,-3.014,-3.0116,-3.002,-2.9908,-2.9839,-2.9707,-2.9689,-2.9615,-2.9429,-2.9329,-2.9218,-2.9186,-2.8965,-2.8751,-2.8593,-2.847,-2.8403,-2.8249,-2.818,-2.7981,-2.7673,-2.7576,-2.7445,-2.72,-2.6966,-2.6893,-2.6742,-2.6623,-2.6552,-2.642,-2.6266,-2.6308,-2.6273,-2.6128,-2.6299,-2.657,-2.6831,-2.6902,-2.726,-2.7587,-2.8136,-2.8575,-2.9094,-2.9558,-2.9746,-3.0121,-3.0472,-3.0681,-3.0896,-3.1087,-3.1078,-3.1108,-3.1191,-3.1308,-3.1227,-3.1169,-3.1188,-3.1238,-3.1218,-3.1176,-3.118,-3.1136,-3.1146,-3.1057,-3.1102,-3.1053,-3.1039,-3.1117,-3.0973,-3.0812,-3.0904,-3.0933,-3.0897,-3.0848,-3.0823,-3.0805,-3.0856,-3.0821,-3.0935,-3.0925,-3.0879,-3.081,-3.0955,-3.0955,-3.1031,-3.1,-3.1011,-3.1039,-3.1006,-3.104,-3.0984,-3.1002,-3.1094,-3.118,-3.1056,-3.1101,-3.0991,-3.1137,-3.1116,-3.1206,-3.1178,-3.1109,-3.1105,-3.1207,-3.1166,-3.118,-3.1149,-3.1075,-3.127,-3.1196,-3.1074,-3.1111,-3.1093,-3.1191,-3.1131,-3.1127,-3.1075,-3.108,-3.115,-3.1121,-3.1148,-3.102,-3.0789,-3.0726,-3.0727,-3.0782,-3.0737,-3.0683,-3.0524,-3.031,-3.0021,-2.9993,-3.0084,-3.0289,-3.0482,-3.0489,-3.0508,-3.0577,-3.0652,-3.0914,-3.1036,-3.1046,-3.1042,-3.1157,-3.1247,-3.121,-3.1325,-3.1245,-3.1246,-3.1212,-3.1289,-3.1227,-3.1227,-3.1186,-3.1204,-3.0791,-2.9503,-2.8086,-2.737,-2.6096,-2.4125,-2.2189,-2.2557,-2.6105,-3.1968,-3.5911,-3.4658,-3.3385,-3.2655,-3.1324,-3.0567,-3.0367,-3.0202,-3.0242,-3.0251,-3.0341,-3.044,-3.0186,-3.0067,-3.0039,-3.0161,-3.0057,-2.9998,-2.9929,-2.9874,-2.9901,-2.9859,-2.9821,-2.9815,-2.9717,-2.976,-2.9735,-2.9581,-2.9452,-2.9471,-2.9418,-2.9413,-2.932,-2.9279,-2.9023,-2.9021,-2.8911,-2.885,-2.8626,-2.8497,-2.837,-2.8295,-2.8202,-2.8064,-2.7833,-2.7696,-2.7611,-2.7381,-2.7191,-2.6982,-2.6842,-2.6739,-2.6679,-2.6507,-2.6316,-2.615,-2.6212,-2.6095,-2.5938,-2.5824,-2.5816,-2.5824,-2.5871,-2.6041,-2.6362,-2.6565,-2.7121,-2.7479,-2.7926,-2.8406,-2.883,-2.9217,-2.9564,-2.9629,-2.9886,-3.0068,-3.0322,-3.0527,-3.0631,-3.0589,-3.0662,-3.0721,-3.0751,-3.0734,-3.0668,-3.0644,-3.0635,-3.0716,-3.0609,-3.0543,-3.0454,-3.0469,-3.0595,-3.0558,-3.0498,-3.0525,-3.0363,-3.0481,-3.0443,-3.0423,-3.0393,-3.0452,-3.0436,-3.0478,-3.0452,-3.0397,-3.0372,-3.0484,-3.0609,-3.047,-3.0453,-3.047,-3.0564,-3.062,-3.0629,-3.063,-3.0621,-3.0593,-3.066,-3.0775,-3.058,-3.0656,-3.0625,-3.0706,-3.0708,-3.0644,-3.0676,-3.0762,-3.0764,-3.0775,-3.0744,-3.0739,-3.0848,-3.0776,-3.0739,-3.0712,-3.064,-3.0677,-3.0874,-3.0818,-3.0776,-3.0702,-3.072,-3.0684,-3.0848,-3.0907,-3.0842,-3.0866,-3.0827,-3.0659,-3.0716,-3.0855,-3.0834,-3.0929,-3.089,-3.0839,-3.0751,-3.075,-3.0826,-3.0881,-3.0789,-3.0713,-3.0775,-3.0794,-3.081,-3.0855,-3.0827,-3.0816,-3.0852,-3.0838,-3.0747,-3.0709,-3.0827,-3.0831,-3.0884,-3.0859,-3.0781,-3.0763,-3.0833,-3.0846,-3.0855,-3.0744,-3.0713,-3.0809,-3.0823,-3.0778,-3.0758,-3.0818,-3.0823,-3.0873,-3.0693,-3.0364,-3.0327,-3.0464,-3.047,-3.0451,-3.055,-3.0194,-2.9897,-2.9669,-2.9782,-3.0042,-2.9968,-2.9997,-3.0219,-3.0294,-3.0279,-3.0346,-3.0529,-3.0816,-3.0948,-3.0927,-3.0954,-3.0955,-3.094,-3.1007,-3.0983,-3.0987,-3.0943,-3.1076,-3.1104,-3.1101,-3.0969,-3.0641,-2.9533,-2.8086,-2.6735,-2.4902,-2.2655,-2.0891,-2.3103,-2.7386,-3.3076,-3.4649,-3.3525,-3.3202,-3.2318,-3.0977,-3.0406,-3.0332,-3.007,-3.0205,-3.0068,-3.0177,-3.0057,-3.0082,-2.9856,-2.9889,-2.9843,-3.0016,-2.9711,-2.9827,-2.9725,-2.9737,-2.9634,-2.9673,-2.9788,-2.9766,-2.957,-2.9495,-2.9448,-2.94,-2.9354,-2.9205,-2.9132,-2.9106,-2.8989,-2.8978,-2.8758,-2.8598,-2.8494,-2.8478,-2.8438,-2.8245,-2.8117,-2.8077,-2.7987,-2.7881,-2.7656,-2.7516,-2.7225,-2.7109,-2.6999,-2.6871,-2.6735,-2.6606,-2.6362,-2.6375,-2.6257,-2.6094,-2.6065,-2.5957,-2.5914,-2.5815,-2.5778,-2.5744,-2.5799,-2.5963,-2.6217,-2.6447,-2.6743,-2.7135,-2.7669,-2.8088,-2.8258,-2.8679,-2.9067,-2.9398,-2.9601,-2.9737,-2.99,-3.008,-3.0223,-3.0195,-3.019,-3.0198,-3.0241,-3.0326,-3.0349,-3.0203,-3.0242,-3.0184,-3.026,-3.0151,-3.0121,-3.0065,-3.0139,-3.0134,-3.0087,-3.0095,-3.0119,-2.9921,-3.0003,-3.0103,-2.9999,-2.9879,-2.9993,-2.9935,-3.0071,-3.0095,-3.0035,-2.9929,-3.0041,-3.0059,-3.0051,-2.9992,-2.9997,-3.012,-3.0183,-3.02,-3.0046,-3.0015,-3.0116,-3.0197,-3.0153,-3.0147,-3.0181,-3.0098,-3.0128,-3.014,-3.0196,-3.0457,-3.0174,-3.0008,-3.0153,-3.0132,-3.0309,-3.0268,-3.0091,-3.0149,-3.0276,-3.0137,-2.9934,-3.0136,-3.0059,-3.0067,-2.9927,-2.9977,-3.0256,-3.0271,-2.9976,-2.9992,-3.0282,-3.0051,-3.0389,-3.019,-3.0103,-2.9994,-3.0361,-3.0363,-2.9958,-3.0054,-3.0268,-2.9943,-3.0129,-3.0215,-3.02,-3.0345,-3.0139,-3.0406,-3.0102,-3.0115,-3.0189,-2.9801,-3.0191,-3.0116,-3.0005,-3.0355,-3.0004,-3.0164,-3.0597,-3.0353,-3.0226,-3.0455,-3.0262,-2.9982,-2.9978,-3.0514,-3.05,-3.0144,-2.9969,-3.0187,-2.9816,-2.9807,-2.9845,-2.9541,-2.9278,-2.9608,-2.9899,-3.0171,-2.9898,-3.0043,-3.0066,-3.0128,-3.0292,-3.0627,-3.0586,-3.0416,-3.046,-3.0641,-3.0738,-3.0647,-3.066,-3.0507,-3.0712,-3.0835,-3.0702,-3.0475,-3.0034,-2.8862,-2.736,-2.6072,-2.395,-2.1399,-2.0976,-2.4034,-2.6431,-3.1989,-3.4486,-3.3301,-3.2678,-3.1207,-3.0143,-2.9863,-3.0187,-2.9618,-2.9835,-2.9754,-2.9843,-2.9653,-2.9758,-2.9515,-2.9857,-2.9724,-2.9667,-2.913,-2.9204,-2.9187,-2.9788,-2.9731,-2.945,-2.9435,-2.9577,-2.9367,-2.9415,-2.9337,-2.9208,-2.8989,-2.9126,-2.9013,-2.8884,-2.9031,-2.8782,-2.8567,-2.8598,-2.8456,-2.8489,-2.8369,-2.8166,-2.8064,-2.8056,-2.8069,-2.8054,-2.8071,-2.7466,-2.7258,-2.7319,-2.7012,-2.6769,-2.6633,-2.6224,-2.6407,-2.6595,-2.6474,-2.6235,-2.6232,-2.6118,-2.6207,-2.607,-2.6113,-2.6121,-2.6312,-2.6402,-2.6436,-2.6888,-2.726,-2.7762,-2.8364,-2.8374,-2.8958,-2.9419,-2.9944,-3.0157,-3.0137,-3.0342,-3.0509,-3.0628,-3.0478,-3.0876,-3.0786,-3.0608,-3.0612,-3.0625,-3.0663,-3.0758,-3.08,-3.0443,-3.1027,-3.0952,-3.0745,-3.0563,-3.0354,-3.0474,-3.0688,-3.099,-3.0611,-3.0597,-3.0653,-3.0543,-3.0679,-3.076,-3.0643,-3.0719,-3.0686,-3.0756,-3.0426,-3.0689,-3.0809,-3.0722,-3.0956,-3.0656,-3.0922,-3.076,-3.0956,-3.0954,-3.0836,-3.0863,-3.0856,-3.0843,-3.0912,-3.1018,-3.1102,-3.1014,-3.0938,-3.0929,-3.0908,-3.1058,-3.0966,-3.0996,-3.0906,-3.1091,-3.1202,-3.1131,-3.1015,-3.1133,-3.1127,-3.1055,-3.0985,-3.1176,-3.1132,-3.1242,-3.1106,-3.1242,-3.1338,-3.1292,-3.1004,-3.0967,-3.1167,-3.1181,-3.1366,-3.1169,-3.1391,-3.1275,-3.1333,-3.1372,-3.1325,-3.1166,-3.1184,-3.1223,-3.1402,-3.1206,-3.1327,-3.1295,-3.1377,-3.1275,-3.1194,-3.108,-3.0872,-3.1091,-3.1163,-3.0788,-3.0875,-3.0753,-3.0551,-3.0761,-3.0702,-3.0698,-3.0923,-3.0839,-3.0742,-3.0902,-3.1358,-3.1274,-3.1487,-3.1482,-3.1383,-3.1715,-3.1597,-3.1445,-3.123,-3.1677,-3.1762,-3.1634,-3.1563,-3.1507,-3.139,-3.0821,-2.9377,-2.8644,-2.7333,-2.614,-2.4288,-2.2958,-2.5167,-2.9255,-3.5756,-3.6447,-3.45,-3.3479,-3.24,-3.1462,-3.1095,-3.0954,-3.0688,-3.0871,-3.0769,-3.0781,-3.0643,-3.0847,-3.0654,-3.0607,-3.0455,-3.0792,-3.0531,-3.0417,-3.0483,-3.0473,-3.039,-3.022,-3.0182,-3.0058,-3.0002,-3.0198,-3.0036,-2.9733,-3.004,-3.0046,-2.9749,-2.9637,-2.927,-2.9591,-2.9313,-2.9408,-2.9243,-2.8995,-2.8794,-2.8711,-2.8509,-2.861,-2.8668,-2.825,-2.8106,-2.8171,-2.7738,-2.7835,-2.7544,-2.7316,-2.7422,-2.7401,-2.7073,-2.7185,-2.6728,-2.6682,-2.6893,-2.6531,-2.6604,-2.6797,-2.6637,-2.6689,-2.6994,-2.7123,-2.7472,-2.7849,-2.8002,-2.8748,-2.9181,-2.9561,-2.9769,-2.9793,-3.0274,-3.0735,-3.0579,-3.0933,-3.1333,-3.1091,-3.1033,-3.1315,-3.1497,-3.1233,-3.0924,-3.0848,-3.1564,-3.159,-3.1123,-3.1377,-3.1243,-3.1051,-3.1232,-3.0807,-3.0843,-3.1188,-3.1231,-3.13,-3.1198,-3.1158,-3.1193,-3.1095,-3.1183,-3.1045,-3.1483,-3.1239,-3.1161,-3.1273,-3.115,-3.1167,-3.1295,-3.1141,-3.1231,-3.143,-3.1481,-3.1439,-3.132,-3.118,-3.1356,-3.1423,-3.1359,-3.1292,-3.14,-3.1347,-3.1318,-3.1312,-3.1335,-3.1369,-3.1529,-3.1365,-3.1343,-3.1219,-3.1144,-3.144,-3.1485,-3.126,-3.143,-3.1186,-3.1108,-3.1325,-3.1366,-3.1098,-3.1147,-3.1106,-3.1373,-3.1383,-3.1113,-3.117,-3.1131,-3.0983,-3.1014,-3.0934,-3.0892,-3.1129,-3.1177,-3.1053,-3.1028,-3.0874,-3.0836,-3.0742,-3.0486,-3.0285,-3.0267,-3.0312,-3.0231,-3.0186,-3.0379,-3.0304,-3.0223,-3.0505,-3.0698,-3.0702,-3.0808,-3.0854,-3.0906,-3.1052,-3.0966,-3.1006,-3.1062,-3.1141,-3.1142,-3.0993,-3.0932,-3.0979,-3.1022,-3.0941,-3.0538,-2.9395,-2.8215,-2.6929,-2.5491,-2.3475,-2.1975,-2.3893,-2.5767,-3.1214,-3.59,-3.4599,-3.3396,-3.2319,-3.1766,-3.0512,-3.0131,-3.0018,-3.0136,-3.0469,-3.0259,-3.0076,-2.9927,-3.0025,-2.9863,-2.9931,-2.9738,-2.9888,-2.9624,-2.9668,-2.9727,-2.9542,-2.9423,-2.933,-2.9664,-2.9641,-2.9451,-2.9495,-2.9382,-2.9436,-2.9364,-2.9267,-2.9293,-2.9116,-2.9102,-2.9052,-2.8866,-2.877,-2.8637,-2.8569,-2.8545,-2.8347,-2.8233,-2.7994,-2.7895,-2.7932,-2.7703,-2.7509,-2.7372,-2.7173,-2.6983,-2.6767,-2.6667,-2.6633,-2.6483,-2.6454,-2.6467,-2.6463,-2.6181,-2.6296,-2.6048,-2.6245,-2.6301,-2.6466,-2.6706,-2.6979,-2.7359,-2.7856,-2.808,-2.8519,-2.919,-2.9469,-2.9761,-3.001,-3.0167,-3.0522,-3.053,-3.0479,-3.0776,-3.0985,-3.0829,-3.1043,-3.0942,-3.0948,-3.1016,-3.0972,-3.1005,-3.0901,-3.0831,-3.0738,-3.0733,-3.0852,-3.0855,-3.068,-3.0461,-3.0673,-3.0702,-3.0727,-3.0631,-3.0596,-3.0904,-3.084,-3.0813,-3.0783,-3.0821,-3.075,-3.0889,-3.091,-3.0785,-3.0888,-3.102,-3.0983,-3.0913,-3.0983,-3.09,-3.0783,-3.0974,-3.0842,-3.1125,-3.1102,-3.0984,-3.1102,-3.1187,-3.1088,-3.0882,-3.0858,-3.0871,-3.1148,-3.1135,-3.1032,-3.1045,-3.1084,-3.1015,-3.1074,-3.1022,-3.1006,-3.1072,-3.0955,-3.0975,-3.0976,-3.1161,-3.0919,-3.0831,-3.1193,-3.112,-3.0998,-3.1142,-3.0993,-3.0941,-3.1111,-3.1095,-3.0946,-3.1204,-3.0986,-3.0906,-3.0951,-3.0849,-3.1064,-3.1144,-3.0958,-3.0892,-3.0849,-3.0903,-3.0959,-3.1211,-3.1053,-3.0763,-3.0945,-3.0899,-3.0944,-3.0908,-3.0577,-3.0847,-3.0669,-3.0175,-3.0244,-3.0272,-3.0407,-3.0188,-3.024,-3.0207,-3.0391,-3.0482,-3.0418,-3.0384,-3.0639,-3.0968,-3.1176,-3.0874,-3.0991,-3.1152,-3.1182,-3.1086,-3.114,-3.1125,-3.0828,-3.1039,-3.125,-3.1246,-3.0708,-3.0306,-2.9112,-2.7665,-2.6426,-2.456,-2.2187,-2.1076,-2.3938,-2.9317,-3.4903,-3.496,-3.3181,-3.2771,-3.1661,-3.0661,-3.0258,-3.0082,-3.0016,-3.0143,-2.9986,-3.0077,-3.0058,-3.0101,-2.9967,-2.9969,-2.9766,-2.9983,-2.9755,-2.9844,-2.9587,-2.9537,-2.9559,-2.9433,-2.9402,-2.9637,-2.9607,-2.9488,-2.9314,-2.9288,-2.9098,-2.9243,-2.9212,-2.8788,-2.8734,-2.8969,-2.8938,-2.8774,-2.857,-2.8532,-2.8358,-2.8201,-2.7969,-2.7676,-2.7641,-2.77,-2.7484,-2.7561,-2.726,-2.7135,-2.6977,-2.6893,-2.6712,-2.647,-2.6333,-2.6208,-2.6229,-2.6048,-2.6265,-2.6114,-2.5943,-2.5939,-2.5846,-2.605,-2.6018,-2.6514,-2.6827,-2.7187,-2.7526,-2.7874,-2.8319,-2.8728,-2.906,-2.9352,-2.9615,-2.9847,-3.0115,-3.0232,-3.0471,-3.0555,-3.0484,-3.0495,-3.078,-3.0687,-3.0592,-3.056,-3.0665,-3.0507,-3.0578,-3.0532,-3.0488,-3.0318,-3.047,-3.0587,-3.0683,-3.053,-3.0482,-3.0443,-3.035,-3.0494,-3.0547,-3.036,-3.054,-3.0335,-3.0392,-3.0366,-3.0438,-3.0454,-3.0421,-3.0361,-3.048,-3.0372,-3.0437,-3.0585,-3.0573,-3.043,-3.0487,-3.0433,-3.0502,-3.0634,-3.0569,-3.0542,-3.0556,-3.074,-3.0666,-3.0607,-3.0483,-3.0428,-3.0474,-3.0491,-3.0504,-3.0591,-3.0646,-3.0566,-3.0615,-3.056,-3.0506,-3.052,-3.0445,-3.071,-3.0711,-3.05,-3.0509,-3.0542,-3.0738,-3.0576,-3.0586,-3.0635,-3.0566,-3.05,-3.0509,-3.0458,-3.0401,-3.0453,-3.0645,-3.0618,-3.0553,-3.0447,-3.0428,-3.0551,-3.0491,-3.0386,-3.0447,-3.048,-3.0576,-3.0565,-3.0465,-3.0485,-3.041,-3.0347,-3.0216,-3.0321,-3.0493,-3.0381,-3.0428,-3.0218,-3.0178,-3.0132,-2.9836,-2.9558,-2.9482,-2.9621,-2.9434,-2.9703,-2.9696,-2.9646,-2.9633,-2.9767,-2.9681,-3.0081,-3.0415,-3.0226,-3.023,-3.0251,-3.0319,-3.0503,-3.0293,-3.0128,-3.0022,-3.0165,-3.0299,-3.0299,-3.0195,-3.0112,-3.0025,-2.8988,-2.7591,-2.6337,-2.4575,-2.2292,-2.0044,-2.064,-2.4382,-2.7487,-3.3054,-3.3459,-3.2171,-3.17,-3.0137,-2.9687,-2.9556,-2.9446,-2.9063,-2.946,-2.9242,-2.9379,-2.9077,-2.9267,-2.8954,-2.908,-2.9069,-2.9278,-2.9006,-2.9094,-2.9056,-2.9061,-2.8912,-2.8979,-2.8624,-2.8966,-2.8914,-2.9008,-2.8784,-2.8639,-2.8638,-2.8596,-2.8688,-2.8617,-2.8375,-2.8236,-2.8255,-2.8079,-2.8073,-2.8094,-2.7931,-2.7608,-2.7501,-2.7493,-2.7532,-2.7327,-2.7132,-2.6951,-2.6727,-2.6665,-2.6393,-2.6275,-2.6232,-2.6063,-2.6109,-2.5867,-2.5844,-2.5826,-2.5666,-2.5712,-2.5636,-2.5585,-2.5621,-2.576,-2.5915,-2.5998,-2.6384,-2.6992,-2.7474,-2.7747,-2.8171,-2.8342,-2.902,-2.9368,-2.9648,-2.9765,-2.9923,-3.0243,-3.0359,-3.0405,-3.0326,-3.0468,-3.0274,-3.062,-3.0669,-3.0561,-3.029,-3.0516,-3.0527,-3.0493,-3.0376,-3.0288,-3.0341,-3.036,-3.0635,-3.04,-3.0463,-3.0389,-3.048,-3.0401,-3.0487,-3.0374,-3.0441,-3.0325,-3.051,-3.0572,-3.0404,-3.0355,-3.0492,-3.0551,-3.067,-3.0527,-3.0653,-3.0602,-3.0632,-3.0662,-3.0508,-3.0649,-3.0893,-3.0824,-3.0733,-3.0813,-3.072,-3.0714,-3.1008,-3.0759,-3.0692,-3.0831,-3.0943,-3.0841,-3.0965,-3.0812,-3.0854,-3.0789,-3.0761,-3.104,-3.1066,-3.0864,-3.0873,-3.0899,-3.0895,-3.0997,-3.0875,-3.0838,-3.0781,-3.1005,-3.1088,-3.1176,-3.113,-3.0955,-3.081,-3.0892,-3.091,-3.0876,-3.0945,-3.1009,-3.1199,-3.1001,-3.1026,-3.105,-3.1194,-3.1014,-3.0834,-3.0985,-3.114,-3.0955,-3.0969,-3.0716,-3.0769,-3.0651,-3.0527,-3.0471,-3.025,-3.0417,-3.0497,-3.0449,-3.043,-3.0482,-3.0481,-3.0668,-3.0787,-3.0939,-3.0904,-3.1047,-3.1062,-3.1128,-3.1139,-3.1229,-3.1112,-3.1239,-3.1294,-3.1427,-3.1227,-3.1123,-3.1292,-3.0974,-3.0444,-2.8938,-2.7409,-2.6041,-2.4849,-2.3127,-2.2503,-2.5004,-2.9523,-3.5287,-3.5305,-3.3617,-3.2981,-3.1997,-3.0883,-3.0361,-3.0696,-3.0696,-3.0689,-3.0453,-3.0839,-3.0498,-3.0523,-3.0466,-3.0458,-3.0187,-3.026,-3.0319,-3.0309,-3.0502,-3.0364,-2.999,-3.0249,-2.9996,-3.0159,-3.0059,-2.9941,-2.9904,-2.9795,-2.9913,-2.9898,-2.9709,-2.9555,-2.9553,-2.9512,-2.939,-2.9089,-2.8989,-2.8723,-2.8781,-2.8837,-2.8901,-2.8668,-2.82,-2.8038,-2.7961,-2.787,-2.8003,-2.7551,-2.7229,-2.7127,-2.7179,-2.7174,-2.7182,-2.6718,-2.6595,-2.6691,-2.6693,-2.6502,-2.6428,-2.6276,-2.6326,-2.6624,-2.6645,-2.6764,-2.7639,-2.8001,-2.8504,-2.8678,-2.882,-2.9357,-3.0039,-3.027,-3.0466,-3.043,-3.055,-3.1016,-3.1018,-3.1135,-3.1068,-3.1092,-3.1082,-3.0655,-3.086,-3.1085,-3.1211,-3.1171,-3.111,-3.0829,-3.0855,-3.0848,-3.0864,-3.0955,-3.0988,-3.0878,-3.0729,-3.0669,-3.059,-3.084,-3.0717,-3.0705,-3.072,-3.0721,-3.1009,-3.0649,-3.0671,-3.0667,-3.0917,-3.1093,-3.0942,-3.0535,-3.0795,-3.1061,-3.1046,-3.1057,-3.0836,-3.1064,-3.0917,-3.1064,-3.1018,-3.0873,-3.0991,-3.1201,-3.1051,-3.1282,-3.0901,-3.0935,-3.0871,-3.1182,-3.1357,-3.1142,-3.0956,-3.1017,-3.1154,-3.1076,-3.12,-3.1192,-3.1269,-3.12,-3.1089,-3.0864,-3.1072,-3.1191,-3.1069,-3.1149,-3.0983,-3.0763,-3.1136,-3.1232,-3.1034,-3.12,-3.088,-3.0738,-3.0751,-3.1394,-3.1345,-3.1087,-3.1095,-3.0954,-3.0769,-3.0818,-3.0313,-3.0499,-3.0525,-3.0572,-3.054,-3.0186,-3.0333,-3.085,-3.0517,-3.0737,-3.0812,-3.1118,-3.1276,-3.119,-3.1213,-3.1219,-3.1139,-3.134,-3.1005,-3.1069,-3.1463,-3.0986,-3.1003,-3.0884,-3.1216,-3.0893,-2.965,-2.8488,-2.7056,-2.5841,-2.4062,-2.1856,-2.3431,-2.7284,-3.3656,-3.3951,-3.4926,-3.3591,-3.2393,-3.1914,-3.0563,-3.0537,-2.9983,-3.0317,-3.0054,-3.0475,-2.9835,-3.025,-2.9891,-3.0307,-3.0132,-3.004,-2.9708,-3.014,-3.001,-3.0055,-2.9686,-2.9783,-2.9639,-2.9603,-2.9612,-2.9709,-2.9553,-2.9519,-2.9362,-2.9209,-2.912,-2.9285,-2.9184,-2.9085,-2.8849,-2.8888,-2.8626,-2.8636,-2.8534,-2.8364,-2.8286,-2.7913,-2.7822,-2.7916,-2.7776,-2.7386,-2.7018,-2.7035,-2.7208,-2.7057,-2.6659,-2.6259,-2.6154,-2.6242,-2.6348,-2.6227,-2.6001,-2.5918,-2.5958,-2.5845,-2.6119,-2.5917,-2.6017,-2.6409,-2.6849,-2.7109,-2.7655,-2.8062,-2.841,-2.8808,-2.9031,-2.9154,-2.9949,-3.0232,-3.0279,-3.0333,-3.0562,-3.0387,-3.0414,-3.042,-3.0868,-3.0715,-3.0562,-3.0814,-3.0709,-3.0493,-3.0609,-3.0436,-3.04,-3.0461,-3.0706,-3.044,-3.0304,-3.0264,-3.0469,-3.0311,-3.0062,-3.0194,-3.0399,-3.0281,-3.0277,-3.0491,-3.0282,-3.0142,-3.0355,-3.03,-3.0578,-3.0506,-3.0428,-3.0342,-3.0503,-3.0424,-3.0422,-3.0268,-3.0374,-3.0661,-3.0434,-3.0807,-3.0597,-3.0471,-3.0668,-3.065,-3.0593,-3.0568,-3.0603,-3.0637,-3.076,-3.0563,-3.0496,-3.071,-3.0458,-3.0475,-3.091,-3.0719,-3.0751,-3.05,-3.0521,-3.0796,-3.0534,-3.091,-3.0992,-3.0684,-3.0681,-3.0664,-3.0485,-3.0575,-3.0797,-3.0502,-3.0465,-3.071,-3.0911,-3.0785,-3.0666,-3.0585,-3.0699,-3.0665,-3.0683,-3.0694,-3.067,-3.082,-3.073,-3.063,-3.0885,-3.0574,-3.0339,-3.0477,-3.0725,-3.0715,-3.0533,-3.0443,-3.0367,-3.0438,-3.0343,-3.0052,-2.9887,-2.9943,-2.9913,-3.0309,-3.0009,-3.0026,-3.0041,-3.0283,-3.0218,-3.0244,-3.0327,-3.0371,-3.0426,-3.0654,-3.0705,-3.0695,-3.0701,-3.0648,-3.038,-3.054,-3.0793,-3.0737,-3.0776,-3.073,-3.0555,-3.0074,-2.93,-2.8075,-2.6635,-2.5195,-2.2845,-2.0825,-2.2137,-2.6299,-3.2472,-3.4771,-3.3519,-3.2817,-3.1704,-3.0437,-2.9672,-2.9813,-3.0194,-3.023,-2.9963,-3.0062,-2.9703,-2.9884,-2.9821,-2.9901,-2.9581,-2.976,-2.9531,-2.9642,-2.9636,-2.9684,-2.9289,-2.9324,-2.9247,-2.9316,-2.9394,-2.9207,-2.9241,-2.94,-2.9086,-2.9104,-2.8913,-2.8918,-2.8949,-2.8709,-2.8851,-2.8535,-2.8229,-2.8271,-2.8288,-2.8273,-2.7658,-2.77,-2.7899,-2.7712,-2.75,-2.6832,-2.6997,-2.7002,-2.6797,-2.6804,-2.6515,-2.6304,-2.6264,-2.618,-2.6153,-2.6115,-2.58,-2.5738,-2.5914,-2.5826,-2.5662,-2.5602,-2.6021,-2.6081,-2.6457,-2.7046,-2.7294,-2.7637,-2.8453,-2.8639,-2.8967,-2.8951,-2.9467,-2.9707,-2.9937,-3.0179,-3.018,-3.0172,-3.0264,-3.048,-3.0635,-3.0433,-3.0288,-3.0428,-3.0479,-3.0177,-3.0294,-3.0528,-3.0491,-3.0537,-3.0102,-3.0013,-3.0135,-3.0282,-3.0336,-3.0254,-2.9963,-2.9955,-3.0432,-3.0131,-3.0133,-3.0184,-2.9994,-2.9846,-2.9887,-3.0293,-3.0278,-3.0046,-3.0052,-3.0186,-3.0474,-3.0371,-3.0269,-3.0125,-3.0341,-3.0136,-3.0353,-3.0441,-3.0324,-3.0397,-3.0458,-3.0429,-3.042,-3.025,-3.02,-3.0426,-3.0719,-3.0299,-3.0223,-3.0263,-3.0534,-3.0676,-3.0605,-3.0281,-3.0351,-3.0533,-3.0389,-3.0635,-3.0317,-3.0443,-3.0523,-3.0382,-3.0347,-3.0249,-3.0429,-3.0299,-3.053,-3.0566,-3.0457,-3.047,-3.038,-3.0478,-3.0472,-3.0446,-3.0256,-3.0109,-3.0458,-3.0576,-3.0307,-3.026,-3.0249,-3.0167,-3.0435,-3.0551,-3.0334,-3.0252,-3.0253,-3.0148,-3.0229,-3.0304,-3.0283,-3.048,-3.0429,-3.0377,-2.9894,-3.0169,-3.0469,-3.0347,-3.0321,-3.0146,-3.0239,-3.0378,-3.0089,-3.01,-3.0019,-2.9694,-2.9672,-2.9852,-2.9591,-2.9736,-2.9532,-2.9528,-2.9634,-2.9856,-2.9866,-2.9921,-3.0224,-3.0117,-3.0282,-3.0404,-3.0377,-3.0402,-3.0401,-3.0421,-3.022,-3.0262,-3.0542,-3.0465,-3.0486,-3.0559,-3.0298,-2.9751,-2.9069,-2.7831,-2.6588,-2.4833,-2.2713,-2.0278,-2.1138,-2.5207,-3.1054,-3.4005,-3.2827,-3.2347,-3.1005,-2.9961,-2.9557,-2.956,-2.9647,-2.9756,-2.9575,-2.9495,-2.9219,-2.9297,-2.9621,-2.9241,-2.9229,-2.9339,-2.9195,-2.942,-2.922,-2.9256,-2.9114,-2.9068,-2.9074,-2.9071,-2.8758,-2.9048,-2.8814,-2.8972,-2.8749,-2.8593,-2.8492,-2.8602,-2.8663,-2.8503,-2.8278,-2.8083,-2.8261,-2.8007,-2.7813,-2.8003,-2.7654,-2.769,-2.7612,-2.7225,-2.6982,-2.7097,-2.6991,-2.6635,-2.6695,-2.6441,-2.6441,-2.6239,-2.6179,-2.6054,-2.5937,-2.565,-2.575,-2.5802,-2.5755,-2.5531,-2.5636,-2.5827,-2.5931,-2.5974,-2.6314,-2.6736,-2.7223,-2.7453,-2.821,-2.8455,-2.8617,-2.899,-2.944,-2.9608,-2.9662,-3.0038,-3.0173,-3.0397,-3.0556,-3.0595,-3.0369,-3.014,-3.0278,-3.0686,-3.0504,-3.0254,-3.033,-3.0116,-3.0506,-3.0379,-3.0286,-3.0247,-3.0244,-3.0223,-3.0427,-3.0275,-3.0404,-3.0276,-3.0098,-3.0223,-3.0406,-3.034,-3.0226,-3.0268,-3.0241,-3.021,-3.0139,-3.0408,-3.0237,-3.0324,-3.0302,-3.0163,-3.022,-3.0365,-3.0552,-3.0426,-3.0475,-3.0343,-3.0459,-3.0474,-3.0377,-3.0581,-3.0525,-3.0396,-3.0438,-3.0483,-3.0579,-3.054,-3.052,-3.0511,-3.0396,-3.0358,-3.0554,-3.0399,-3.037,-3.0614,-3.0651,-3.0584,-3.0573,-3.0433,-3.028,-3.0499,-3.0508,-3.0706,-3.0728,-3.0523,-3.0455,-3.0377,-3.0434,-3.0525,-3.0401,-3.0491,-3.0508,-3.047,-3.0439,-3.0334,-3.0338,-3.0506,-3.0668,-3.0531,-3.0479,-3.0397,-3.0404,-3.043,-3.0388,-3.0512,-3.0443,-3.0418,-3.0268,-3.03,-3.0281,-3.0148,-3.0321,-3.0499,-3.049,-3.0322,-3.0389,-3.0269,-3.0106,-2.9965,-3.0268,-3.0238,-2.999,-2.9981,-3.0034,-2.9779,-2.9758,-2.9724,-2.9375,-2.9304,-2.9396,-2.9477,-2.9422,-2.9403,-2.9249,-2.9426,-2.9451,-2.9528,-2.944,-2.9823,-3.0236,-3.0251,-3.0001,-2.9975,-2.9995,-3.0178,-3.0195,-3.0106,-3.0197,-3.0151,-3.0031,-3.0009,-3.0042,-2.9994,-2.9207,-2.7923,-2.6618,-2.5015,-2.2852,-2.0231,-2.0197,-2.404,-2.997,-3.3548,-3.2958,-3.2027,-3.101,-2.9683,-2.9422,-2.9203,-2.9267,-2.9093,-2.887,-2.9399,-2.9253,-2.9165,-2.9025,-2.9196,-2.8825,-2.8864,-2.9047,-2.8997,-2.8876,-2.9059,-2.9119,-2.8786,-2.8988,-2.8725,-2.8891,-2.8947,-2.8921,-2.8865,-2.8725,-2.8518,-2.8535,-2.8639,-2.8302,-2.8316,-2.8188,-2.8063,-2.8015,-2.8004,-2.7882,-2.7725,-2.7548,-2.7398,-2.726,-2.7235,-2.7146,-2.6986,-2.6774,-2.6631,-2.6444,-2.6436,-2.6484,-2.5924,-2.5897,-2.6005,-2.5758,-2.5778,-2.5606,-2.5444,-2.5527,-2.5592,-2.5575,-2.5532,-2.548,-2.55,-2.5885,-2.6403,-2.6842,-2.7059,-2.7291,-2.7782,-2.8189,-2.8318,-2.8944,-2.919,-2.936,-2.9834,-2.9795,-2.9857,-2.9917,-2.9979,-2.9939,-2.9918,-2.9969,-3.0014,-3.0141,-2.9967,-3,-2.9927,-2.9823,-2.9894,-3.0048,-2.9903,-2.9806,-2.9911,-2.9825,-3.0004,-2.9914,-2.9849,-2.9994,-2.9998,-2.9843,-2.9677,-2.9818,-2.9878,-2.991,-3.0017,-3.0102,-2.9989,-2.9898,-2.987,-3.0065,-2.9965,-2.9929,-3.0156,-3.0409,-3.0325,-3.0245,-3.019,-3.007,-3.0198,-3.0194,-3.0032,-3.0348,-3.0319,-3.045,-3.0478,-3.0331,-3.0429,-3.0368,-3.0452,-3.0584,-3.0543,-3.0346,-3.0305,-3.0288,-3.0709,-3.068,-3.0509,-3.0357,-3.0415,-3.0503,-3.0425,-3.0332,-3.0634,-3.0439,-3.0476,-3.0699,-3.0581,-3.064,-3.057,-3.0619,-3.0726,-3.0815,-3.0673,-3.0681,-3.072,-3.0911,-3.084,-3.0801,-3.0579,-3.0875,-3.1008,-3.1061,-3.1026,-3.103,-3.1028,-3.1118,-3.1139,-3.1,-3.095,-3.1118,-3.1057,-3.1117,-3.1143,-3.1105,-3.1104,-3.1023,-3.1054,-3.0909,-3.0856,-3.103,-3.0811,-3.0546,-3.0796,-3.045,-3.0249,-3.0205,-3.0225,-3.0126,-2.9974,-2.999,-3.0307,-3.0178,-3.0199,-3.0133,-3.0433,-3.0678,-3.062,-3.0529,-3.0899,-3.0913,-3.0844,-3.0873,-3.0813,-3.0726,-3.0573,-3.0744,-3.0852,-3.083,-3.0705,-3.0531,-2.9714,-2.8458,-2.71,-2.5676,-2.3299,-2.1142,-2.1328,-2.5134,-3.1279,-3.5,-3.3848,-3.2592,-3.1756,-3.0491,-2.9904,-2.9892,-2.9782,-2.9874,-2.9881,-2.9736,-2.9871,-2.9926,-2.9764,-2.9406,-2.9705,-2.9577,-2.9453,-2.9612,-2.973,-2.9346,-2.9285,-2.9536,-2.9435,-2.9404,-2.9367,-2.9182,-2.9089,-2.9091,-2.9194,-2.9111,-2.8854,-2.8792,-2.8959,-2.8741,-2.8287,-2.8451,-2.8264,-2.8483,-2.8441,-2.8135,-2.7929,-2.7732,-2.7688,-2.7616,-2.7567,-2.7285,-2.7228,-2.7162,-2.6977,-2.6915,-2.6719,-2.6649,-2.6396,-2.6302,-2.6262,-2.6244,-2.6307,-2.6208,-2.6056,-2.5889,-2.5852,-2.572,-2.6156,-2.6304,-2.6485,-2.6994,-2.74,-2.7741,-2.8085,-2.8347,-2.8826,-2.9233,-2.9635,-3.0028,-3.0146,-3.0282,-3.0522,-3.0462,-3.066,-3.0915,-3.0915,-3.0709,-3.0847,-3.071,-3.0684,-3.0912,-3.0867,-3.0873,-3.0921,-3.0771,-3.0734,-3.0853,-3.0614,-3.0432,-3.0672,-3.0853,-3.0757,-3.0738,-3.0738,-3.0776,-3.0781,-3.062,-3.0762,-3.0955,-3.0864,-3.0882,-3.0897,-3.0812,-3.0652,-3.0718,-3.1049,-3.1075,-3.0985,-3.1028,-3.0955,-3.1025,-3.0876,-3.1054,-3.0926,-3.0843,-3.1179,-3.1187,-3.0991,-3.1108,-3.117,-3.1149,-3.114,-3.103,-3.114,-3.1192,-3.0951,-3.1144,-3.1122,-3.1059,-3.0766,-3.1081,-3.1121,-3.1202,-3.1205,-3.108,-3.1224,-3.0956,-3.1031,-3.0977,-3.1057,-3.1051,-3.1125,-3.0903,-3.116,-3.1168,-3.1151,-3.1291,-3.1038,-3.0959,-3.0983,-3.1373,-3.1158,-3.0979,-3.1102,-3.0897,-3.0998,-3.0973,-3.0858,-3.0703,-3.0651,-3.0409,-3.0239,-3.0374,-3.0432,-3.0326,-3.0314,-3.0307,-3.025,-3.032,-3.046,-3.061,-3.0641,-3.105,-3.1239,-3.1083,-3.1033,-3.1057,-3.1172,-3.113,-3.1195,-3.1195,-3.1162,-3.0903,-3.0904,-3.1035,-3.1213,-3.0759,-2.9874,-2.8483,-2.7111,-2.5624,-2.3624,-2.225,-2.3965,-2.8145,-3.4441,-3.5567,-3.3811,-3.2882,-3.166,-3.0877,-3.0205,-3.0214,-3.0052,-3.0087,-2.976,-2.987,-2.9889,-2.9933,-2.9749,-2.9892,-2.9714,-2.9585,-2.9702,-2.9658,-2.954,-2.9812,-2.9512,-2.9465,-2.9371,-2.9402,-2.9589,-2.9548,-2.9202,-2.9034,-2.9089,-2.9484,-2.903,-2.9035,-2.8928,-2.8899,-2.8715,-2.8661,-2.8457,-2.8318,-2.8166,-2.8136,-2.8118,-2.8111,-2.777,-2.7522,-2.7349,-2.6984,-2.6977,-2.6933,-2.7006,-2.68,-2.6699,-2.6348,-2.6041,-2.6334,-2.6088,-2.6195,-2.6207,-2.5955,-2.5949,-2.5838,-2.5926,-2.6057,-2.6281,-2.6507,-2.6985,-2.7465,-2.7855,-2.8332,-2.838,-2.8518,-2.9111,-2.9632,-2.9977,-2.9869,-3.0157,-3.0311,-3.0408,-3.0617,-3.0586,-3.0488,-3.0551,-3.046,-3.0673,-3.0529,-3.0708,-3.0604,-3.0524,-3.0523,-3.0473,-3.06,-3.0466,-3.0558,-3.0646,-3.0455,-3.033,-3.0396,-3.0434,-3.0686,-3.0596,-3.0655,-3.064,-3.0472,-3.0703,-3.0686,-3.0556,-3.0265,-3.0657,-3.0767,-3.0615,-3.0572,-3.0456,-3.0732,-3.0643,-3.0583,-3.0693,-3.0937,-3.0951,-3.0892,-3.0897,-3.0626,-3.0517,-3.0747,-3.1013,-3.0796,-3.0876,-3.0663,-3.0707,-3.0709,-3.0739,-3.0796,-3.0777,-3.0978,-3.0898,-3.0731,-3.0716,-3.0746,-3.0853,-3.0843,-3.09,-3.0824,-3.0778,-3.0855,-3.0795,-3.0647,-3.0771,-3.0807,-3.0812,-3.0686,-3.0679,-3.0788,-3.0834,-3.06,-3.0532,-3.097,-3.0973,-3.0692,-3.0772,-3.0743,-3.0691,-3.0327,-3.033,-3.0247,-2.9985,-3.0208,-3.057,-3.0112,-2.9783,-2.9526,-2.9509,-2.969,-2.9968,-2.992,-3.0004,-3.0177,-3.0125,-3.0214,-3.0282,-3.0736,-3.0901,-3.0837,-3.0682,-3.0602,-3.0761,-3.0951,-3.088,-3.0798,-3.0863,-3.0909,-3.0871,-3.0765,-3.0726,-3.063,-2.9435,-2.8256,-2.6887,-2.5394,-2.3297,-2.1164,-2.2509,-2.6552,-3.2542,-3.4809,-3.3397,-3.2672,-3.1608,-3.0467,-2.9822,-2.979,-2.9701,-2.9775,-2.9562,-2.9672,-2.9474,-2.9579,-2.9478,-2.969,-2.9477,-2.942,-2.9144,-2.9465,-2.9543,-2.9375,-2.9457,-2.9231,-2.9281,-2.9161,-2.92,-2.9163,-2.9178,-2.9156,-2.8965,-2.8835,-2.8975,-2.8942,-2.8799,-2.8826,-2.854,-2.8314,-2.8015,-2.8341,-2.8109,-2.7957,-2.7859,-2.7612,-2.755,-2.7498,-2.7311,-2.7158,-2.6887,-2.6724,-2.6584,-2.6416,-2.6332,-2.63,-2.6028,-2.6009,-2.6036,-2.5729,-2.55,-2.5344,-2.5639,-2.5491,-2.5679,-2.5682,-2.58,-2.6066,-2.6297,-2.6978,-2.736,-2.7831,-2.8001,-2.8305,-2.8664,-2.9044,-2.9457,-2.9501,-2.9633,-3.0016,-3.0006,-3.0218,-3.0379,-3.0375,-3.0396,-3.0204,-3.0101,-3.0206,-3.0463,-3.0191,-3.0265,-3.0166,-3.0208,-3.023,-3.0147,-2.977,-3.0096,-3.0243,-2.9979,-3.0077,-3.0024,-2.9878,-2.9593,-2.995,-3.0055,-3.0222,-3.0114,-2.9952,-3.0053,-2.998,-2.9978,-3.0084,-3.0073,-3.0248,-3.0352,-3.0098,-3.0124,-3.0085,-3.0276,-3.0309,-3.0379,-3.0062,-3.0128,-3.032,-3.0455,-3.0334,-3.0348,-3.0417,-3.0435,-3.033,-3.0324,-3.0241,-3.0395,-3.0515,-3.0597,-3.0556,-3.0539,-3.0418,-3.0485,-3.0498,-3.0446,-3.0346,-3.0435,-3.0491,-3.0534,-3.0494,-3.0314,-3.0147,-2.9988,-3.0171,-3.0009,-2.9873,-2.9856,-2.989,-2.9472,-2.9378,-2.9532,-2.9579,-2.9524,-2.9475,-2.9837,-3.0046,-2.9993,-3.0174,-3.0107,-3.0598,-3.0494,-3.0546,-3.0555,-3.0539,-3.0593,-3.0698,-3.0661,-3.0534,-3.069,-3.0621,-3.0717,-3.0655,-3.0763,-3.0584,-3.0125,-2.8586,-2.7211,-2.6352,-2.4321,-2.1956,-2.1372,-2.4514,-3.0149,-3.4911,-3.4224,-3.3226,-3.2454,-3.1651,-3.0504,-2.993,-3.005,-2.9449,-2.9639,-2.9714,-3.0004,-2.982,-2.969,-2.9433,-2.9456,-2.9406,-2.9859,-2.9561,-2.9532,-2.9286,-2.9479,-2.9168,-2.9319,-2.9205,-2.9161,-2.924,-2.9303,-2.9212,-2.9109,-2.8994,-2.8998,-2.8814,-2.8754,-2.8573,-2.8528,-2.8358,-2.8164,-2.8259,-2.7917,-2.7877,-2.7893,-2.7829,-2.7699,-2.7504,-2.7287,-2.7104,-2.6935,-2.6837,-2.665,-2.6486,-2.6373,-2.617,-2.6144,-2.5898,-2.5675,-2.5829,-2.5819,-2.5596,-2.5591,-2.5598,-2.5537,-2.5591,-2.5947,-2.6148,-2.6375,-2.6862,-2.7247,-2.772,-2.8335,-2.8619,-2.8942,-2.9536,-2.9794,-2.9842,-3.0009,-3.0316,-3.034,-3.0446,-3.0536,-3.043,-3.0521,-3.0559,-3.0486,-3.0627,-3.03,-3.0371,-3.0501,-3.055,-3.0441,-3.0432,-3.0305,-3.0388,-3.0299,-3.0232,-3.0243,-3.0396,-3.0278,-3.0256,-3.0451,-3.0364,-3.0365,-3.0514,-3.0235,-3.0373,-3.0313,-3.0337,-3.0279,-3.0496,-3.0526,-3.0662,-3.0411,-3.0487,-3.0434,-3.0415,-3.0501,-3.0451,-3.047,-3.0559,-3.067,-3.0561,-3.0542,-3.0472,-3.052,-3.087,-3.0701,-3.0655,-3.0551,-3.0754,-3.0721,-3.0857,-3.0643,-3.0671,-3.0649,-3.0665,-3.0684,-3.0646,-3.0576,-3.0635,-3.0596,-3.0725,-3.0604,-3.0495,-3.0578,-3.0647,-3.0798,-3.0674,-3.0652,-3.0484,-3.0591,-3.062,-3.0586,-3.0544,-3.066,-3.0582,-3.0698,-3.0476,-3.0675,-3.0806,-3.0782,-3.0723,-3.0735,-3.0671,-3.0627,-3.035,-3.0311,-3.0223,-3.0235,-3.036,-3.0203,-3.0144,-3.0085,-2.9899,-2.9622,-2.9489,-2.9679,-2.9792,-2.9644,-2.9806,-2.9871,-3.0228,-3.0175,-3.034,-3.0543,-3.0543,-3.0624,-3.0593,-3.0395,-3.0491,-3.0809,-3.0853,-3.0904,-3.0651,-3.0744,-3.0588,-3.0791,-3.0774,-3.0648,-3.0245,-2.9146,-2.7605,-2.6379,-2.4498,-2.2299,-2.0745,-2.1568,-2.5534,-3.1593,-3.4876,-3.3804,-3.2553,-3.1871,-3.0534,-3.0021,-2.9632,-2.971,-2.9812,-2.9854,-2.9726,-2.9768,-2.9754,-2.9658,-2.9589,-2.9602,-2.9581,-2.9715,-2.9583,-2.9505,-2.9541,-2.9577,-2.9356,-2.9351,-2.9299,-2.9354,-2.9335,-2.9202,-2.9166,-2.9319,-2.917,-2.8941,-2.882,-2.8739,-2.8725,-2.8533,-2.8416,-2.8177,-2.807,-2.7957,-2.789,-2.8115,-2.7898,-2.7462,-2.7486,-2.7315,-2.7046,-2.7071,-2.6806,-2.6607,-2.6562,-2.6339,-2.61,-2.6094,-2.585,-2.579,-2.5858,-2.5615,-2.5564,-2.5655,-2.5752,-2.5434,-2.5488,-2.5686,-2.6001,-2.6327,-2.6778,-2.7153,-2.7633,-2.7995,-2.8318,-2.8605,-2.9071,-2.9346,-2.9629,-2.9881,-3.006,-2.9926,-2.9971,-3.0323,-3.0347,-3.031,-3.0283,-3.0142,-3.0212,-3.0265,-2.9992,-3.0026,-3.0139,-3.0011,-3.0102,-3.0083,-3.0077,-2.9968,-3.0015,-2.9995,-3.0092,-2.9996,-2.9881,-2.9931,-2.9984,-3.0069,-3.0084,-2.9996,-3.0007,-3.0037,-3.0476,-3.0256,-3.0095,-3.0215,-3.0203,-3.0196,-3.0406,-3.0299,-3.0414,-3.0425,-3.0435,-3.0399,-3.0387,-3.0347,-3.0269,-3.045,-3.042,-3.0218,-3.0174,-3.037,-3.0431,-3.0324,-3.0134,-3.0361,-3.0418,-3.0342,-3.033,-3.0194,-3.0269,-3.0354,-3.0333,-3.0258,-3.0336,-3.0235,-3.0174,-3.0183,-3.0366,-3.0427,-3.0335,-3.0365,-3.0327,-3.0313,-3.0216,-3.0187,-3.0203,-3.0326,-3.0186,-3.022,-3.0335,-3.03,-3.0271,-3.0256,-3.0282,-3.0198,-3.0184,-3.0211,-3.03,-3.0254,-2.9973,-3.0051,-3.0016,-2.9996,-3.0315,-3.037,-3.028,-3.02,-3.0165,-3.0337,-3.0266,-3.0062,-3.0199,-3.0267,-3.0276,-3.0179,-3.0014,-3.009,-3.0438,-3.0395,-3.0249,-3.0138,-2.9999,-2.994,-2.995,-2.9814,-2.9758,-2.9843,-2.9717,-2.9408,-2.9203,-2.9115,-2.9193,-2.9543,-2.9544,-2.9591,-2.9619,-2.9747,-2.9875,-3.0065,-3.0215,-3.0202,-3.039,-3.0438,-3.0543,-3.0637,-3.0551,-3.0574,-3.0565,-3.0627,-3.0645,-3.0577,-3.059,-3.0596,-3.0541,-3.0325,-2.9179,-2.771,-2.6338,-2.4521,-2.2248,-2.045,-2.2664,-2.4945,-3.0724,-3.4689,-3.3289,-3.2491,-3.1177,-3.0323,-3.0107,-2.9903,-2.9759,-2.9918,-2.9731,-2.9851,-2.9677,-2.9762,-2.9541,-2.9657,-2.9606,-2.9758,-2.9557,-2.9471,-2.9415,-2.945,-2.9373,-2.9342,-2.927,-2.9401,-2.9322,-2.9354,-2.922,-2.9234,-2.9138,-2.9165,-2.9023,-2.8945,-2.8709,-2.8741,-2.8665,-2.8534,-2.8333,-2.8221,-2.807,-2.7948,-2.8055,-2.8043,-2.775,-2.754,-2.7275,-2.7078,-2.7312,-2.7054,-2.6674,-2.6725,-2.6678,-2.6555,-2.6477,-2.6349,-2.6104,-2.6025,-2.6034,-2.5858,-2.5982,-2.5883,-2.5859,-2.6016,-2.6227,-2.6285,-2.6723,-2.7207,-2.7481,-2.7837,-2.8269,-2.8814,-2.9059,-2.926,-2.9435,-2.9751,-3.0006,-3.033,-3.0615,-3.0454,-3.0589,-3.0514,-3.076,-3.0723,-3.0626,-3.0778,-3.0705,-3.0683,-3.0701,-3.0603,-3.0715,-3.0492,-3.0496,-3.0717,-3.0708,-3.0614,-3.0473,-3.0391,-3.0596,-3.0559,-3.059,-3.0464,-3.0579,-3.0451,-3.0304,-3.0567,-3.0676,-3.062,-3.0624,-3.0559,-3.0632,-3.0733,-3.079,-3.0674,-3.065,-3.0769,-3.0822,-3.0862,-3.0808,-3.0766,-3.096,-3.0825,-3.0879,-3.0957,-3.0848,-3.0956,-3.0995,-3.0785,-3.101,-3.1108,-3.0944,-3.1033,-3.1072,-3.1106,-3.1128,-3.1127,-3.1102,-3.1065,-3.1024,-3.1117,-3.1305,-3.1205,-3.1137,-3.099,-3.1125,-3.1076,-3.1107,-3.1337,-3.1266,-3.1259,-3.1277,-3.128,-3.1245,-3.1258,-3.134,-3.1144,-3.1277,-3.1166,-3.1196,-3.1431,-3.1435,-3.1395,-3.1248,-3.138,-3.1507,-3.1398,-3.1349,-3.1398,-3.1324,-3.1375,-3.122,-3.1047,-3.1034,-3.1078,-3.1108,-3.118,-3.1142,-3.0729,-3.0443,-3.0346,-3.0491,-3.0646,-3.0638,-3.0727,-3.0916,-3.1007,-3.1041,-3.1291,-3.1378,-3.1614,-3.1677,-3.1604,-3.1596,-3.1655,-3.1745,-3.1856,-3.173,-3.1746,-3.172,-3.1803,-3.1897,-3.1864,-3.1645,-3.1369,-3.0375,-2.9015,-2.7619,-2.5751,-2.3792,-2.3126,-2.5483,-3.0162,-3.6144,-3.6965,-3.5365,-3.4214,-3.3125,-3.2425,-3.1328,-3.1022,-3.1011,-3.1029,-3.0932,-3.0902,-3.0824,-3.0839,-3.0728,-3.0828,-3.0628,-3.0666,-3.0581,-3.0581,-3.0316,-3.041,-3.0396,-3.0467,-3.0424,-3.035,-3.0225,-3.0193,-2.99,-2.9975,-2.9852,-2.9942,-2.9753,-2.9529,-2.9418,-2.943,-2.9238,-2.9112,-2.902,-2.906,-2.8912,-2.8789,-2.8524,-2.8374,-2.8295,-2.8113,-2.7886,-2.7795,-2.7685,-2.7561,-2.7367,-2.7117,-2.6991,-2.6874,-2.6745,-2.6686,-2.6594,-2.6394,-2.6427,-2.6425,-2.65,-2.6503,-2.6378,-2.6403,-2.659,-2.6949,-2.7342,-2.7573,-2.8079,-2.846,-2.9027,-2.9344,-2.9655,-3.0022,-3.0373,-3.0611,-3.0746,-3.0902,-3.0987,-3.1061,-3.1111,-3.1163,-3.1196,-3.122,-3.1216,-3.1203,-3.1267,-3.1113,-3.1106,-3.1148,-3.1211,-3.1174,-3.1044,-3.093,-3.0988,-3.0994,-3.0995,-3.0904,-3.0897,-3.0949,-3.1097,-3.1114,-3.1027,-3.1054,-3.0907,-3.0847,-3.0949,-3.098,-3.1012,-3.077,-3.0806,-3.1168,-3.126,-3.1258,-3.1135,-3.1196,-3.1328,-3.1263,-3.1299,-3.1244,-3.1334,-3.1302,-3.1322,-3.1268,-3.1272,-3.1284,-3.1383,-3.1313,-3.1338,-3.1295,-3.1196,-3.1237,-3.1424,-3.1299,-3.1377,-3.1282,-3.1378,-3.1442,-3.1392,-3.1382,-3.1467,-3.1399,-3.1391,-3.1294,-3.1098,-3.093,-3.1056,-3.1085,-3.0983,-3.0902,-3.067,-3.0643,-3.0412,-3.0361,-3.0655,-3.06,-3.0554,-3.0769,-3.0919,-3.0998,-3.1125,-3.1188,-3.1303,-3.1486,-3.1541,-3.1385,-3.145,-3.1566,-3.1674,-3.1554,-3.1454,-3.1447,-3.1582,-3.1613,-3.1631,-3.1731,-3.1426,-3.1021,-2.9759,-2.8291,-2.7293,-2.5614,-2.4393,-2.2438,-2.3445,-2.7004,-3.2921,-3.6516,-3.5173,-3.3731,-3.2695,-3.1677,-3.0927,-3.0724,-3.0716,-3.0879,-3.0442,-3.0388,-3.0486,-3.0447,-3.0063,-3.0153,-3.0088,-3.0471,-3.0348,-3.0148,-3.0001,-3.0184,-3.0088,-3.0224,-2.9875,-2.9896,-2.9966,-2.9861,-2.9611,-2.9723,-2.9652,-2.9549,-2.9536,-2.9448,-2.896,-2.8774,-2.8784,-2.899,-2.8957,-2.895,-2.8548,-2.8595,-2.8315,-2.812,-2.8069,-2.7863,-2.7637,-2.7186,-2.7034,-2.7141,-2.6821,-2.6672,-2.6495,-2.6467,-2.6353,-2.6218,-2.6362,-2.5984,-2.596,-2.5966,-2.5969,-2.5953,-2.608,-2.6174,-2.6444,-2.6644,-2.7181,-2.7718,-2.8367,-2.835,-2.9188,-2.9517,-2.9609,-3.0365,-3.045,-3.0692,-3.0832,-3.0903,-3.0934,-3.1061,-3.1175,-3.1133,-3.1096,-3.1136,-3.1206,-3.1174,-3.0992,-3.0853,-3.1222,-3.1395,-3.1181,-3.1064,-3.0833,-3.0783,-3.0952,-3.0756,-3.0768,-3.0834,-3.083,-3.0816,-3.0875,-3.0945,-3.0828,-3.0645,-3.0664,-3.0769,-3.0666,-3.0778,-3.0789,-3.0851,-3.0858,-3.0829,-3.0943,-3.0793,-3.0888,-3.0917,-3.0913,-3.0865,-3.0929,-3.0912,-3.1025,-3.0991,-3.0987,-3.0929,-3.0933,-3.1016,-3.1067,-3.098,-3.0975,-3.1067,-3.1141,-3.0991,-3.0954,-3.1014,-3.1123,-3.113,-3.1099,-3.1021,-3.1203,-3.1157,-3.1139,-3.1173,-3.1128,-3.1138,-3.1129,-3.1158,-3.1008,-3.1051,-3.1032,-3.1092,-3.1194,-3.1163,-3.1079,-3.1011,-3.1073,-3.103,-3.089,-3.0794,-3.0824,-3.0725,-2.9875,-2.881,-2.9743,-3.1429,-3.1465,-3.1751,-3.1336,-3.044,-3.0279,-3.1293,-3.0774,-3.034,-3.0198,-2.9915,-2.9819,-2.994,-3.0053,-2.9884,-3.0267,-3.0161,-3.0476,-3.0511,-3.08,-3.0712,-3.0974
