-11.996,-12.037,-12.029,-12.01,-12.001,-12.004,-12.012,-11.986,-11.975,-11.968,-11.969,-11.974,-11.925,-11.904,-11.951,-11.948,-11.931,-11.913,-11.902,-11.917,-11.947,-11.956,-11.953,-11.947,-11.968,-12.005,-12.023,-12.038,-12.055,-12.047,-12.053,-12.045,-12.029,-12.04,-12.058,-12.053,-12.035,-12.05,-12.066,-12.047,-12.044,-12.096,-12.105,-12.152,-12.175,-12.125,-12.002,-11.762,-11.484,-11.198,-11.189,-11.472,-11.556,-11.776,-12.05,-12.139,-12.213,-12.27,-12.271,-12.16,-12.098,-12.062,-12.065,-12.077,-12.065,-12.068,-12.076,-12.079,-12.047,-12.063,-12.064,-12.06,-12.069,-12.061,-12.042,-12.027,-12.031,-12.038,-12.025,-12.024,-12.019,-12.004,-11.999,-11.983,-11.967,-11.984,-11.99,-11.953,-11.936,-11.907,-11.89,-11.86,-11.845,-11.834,-11.819,-11.775,-11.755,-11.747,-11.734,-11.708,-11.675,-11.663,-11.639,-11.629,-11.611,-11.595,-11.593,-11.592,-11.602,-11.612,-11.633,-11.633,-11.681,-11.737,-11.775,-11.802,-11.825,-11.856,-11.911,-11.974,-11.997,-12.018,-12.05,-12.075,-12.091,-12.11,-12.125,-12.13,-12.137,-12.154,-12.168,-12.158,-12.165,-12.161,-12.159,-12.155,-12.157,-12.157,-12.16,-12.158,-12.201,-12.187,-12.176,-12.175,-12.189,-12.194,-12.183,-12.18,-12.183,-12.19,-12.184,-12.198,-12.19,-12.188,-12.199,-12.212,-12.2,-12.209,-12.189,-12.197,-12.218,-12.209,-12.221,-12.216,-12.21,-12.195,-12.187,-12.22,-12.194,-12.21,-12.211,-12.197,-12.192,-12.216,-12.225,-12.232,-12.229,-12.217,-12.219,-12.234,-12.246,-12.235,-12.228,-12.245,-12.271,-12.258,-12.267,-12.269,-12.272,-12.257,-12.27,-12.268,-12.279,-12.283,-12.273,-12.279,-12.284,-12.271,-12.272,-12.27,-12.263,-12.283,-12.277,-12.261,-12.248,-12.233,-12.235,-12.228,-12.216,-12.206,-12.222,-12.213,-12.189,-12.184,-12.191,-12.207,-12.2,-12.218,-12.24,-12.227,-12.233,-12.248,-12.273,-12.323,-12.318,-12.312,-12.304,-12.339,-12.338,-12.329,-12.327,-12.332,-12.33,-12.336,-12.335,-12.333,-12.344,-12.341,-12.362,-12.414,-12.461,-12.41,-12.26,-12.006,-11.725,-11.426,-11.405,-11.755,-11.894,-12.023,-12.342,-12.461,-12.484,-12.508,-12.496,-12.4,-12.332,-12.307,-12.306,-12.308,-12.298,-12.296,-12.284,-12.274,-12.278,-12.274,-12.261,-12.249,-12.253,-12.258,-12.241,-12.231,-12.226,-12.222,-12.227,-12.222,-12.202,-12.205,-12.188,-12.179,-12.171,-12.151,-12.14,-12.14,-12.115,-12.093,-12.066,-12.045,-12.029,-12.023,-11.991,-11.955,-11.939,-11.939,-11.921,-11.898,-11.869,-11.835,-11.815,-11.816,-11.797,-11.796,-11.795,-11.769,-11.771,-11.77,-11.77,-11.797,-11.831,-11.887,-11.923,-11.946,-11.991,-12.039,-12.073,-12.103,-12.156,-12.189,-12.21,-12.237,-12.259,-12.281,-12.286,-12.293,-12.309,-12.308,-12.311,-12.297,-12.311,-12.325,-12.324,-12.331,-12.337,-12.332,-12.317,-12.339,-12.328,-12.334,-12.338,-12.337,-12.326,-12.317,-12.316,-12.314,-12.319,-12.322,-12.333,-12.329,-12.312,-12.324,-12.328,-12.331,-12.324,-12.32,-12.323,-12.316,-12.307,-12.306,-12.312,-12.311,-12.307,-12.307,-12.307,-12.306,-12.305,-12.302,-12.308,-12.293,-12.317,-12.316,-12.318,-12.316,-12.314,-12.305,-12.314,-12.351,-12.356,-12.332,-12.335,-12.356,-12.354,-12.358,-12.361,-12.359,-12.356,-12.356,-12.366,-12.359,-12.365,-12.363,-12.36,-12.364,-12.35,-12.364,-12.371,-12.347,-12.346,-12.363,-12.364,-12.369,-12.367,-12.37,-12.355,-12.353,-12.392,-12.386,-12.378,-12.371,-12.387,-12.391,-12.387,-12.377,-12.377,-12.375,-12.397,-12.387,-12.393,-12.376,-12.374,-12.384,-12.379,-12.37,-12.363,-12.37,-12.345,-12.333,-12.337,-12.328,-12.33,-12.332,-12.34,-12.341,-12.354,-12.365,-12.363,-12.363,-12.366,-12.405,-12.418,-12.431,-12.433,-12.433,-12.434,-12.423,-12.422,-12.424,-12.42,-12.407,-12.403,-12.42,-12.421,-12.418,-12.413,-12.409,-12.464,-12.511,-12.535,-12.452,-12.268,-12.021,-11.743,-11.485,-11.6,-11.903,-12.05,-12.202,-12.465,-12.54,-12.55,-12.617,-12.554,-12.469,-12.389,-12.376,-12.369,-12.389,-12.367,-12.376,-12.348,-12.35,-12.371,-12.363,-12.359,-12.356,-12.336,-12.325,-12.313,-12.311,-12.307,-12.311,-12.298,-12.298,-12.288,-12.288,-12.279,-12.263,-12.248,-12.241,-12.222,-12.207,-12.192,-12.183,-12.168,-12.163,-12.128,-12.111,-12.105,-12.089,-12.066,-12.049,-12.027,-11.999,-11.961,-11.945,-11.944,-11.933,-11.921,-11.899,-11.889,-11.874,-11.883,-11.882,-11.898,-11.911,-11.939,-11.968,-12.011,-12.035,-12.07,-12.115,-12.164,-12.187,-12.223,-12.24,-12.262,-12.295,-12.309,-12.319,-12.323,-12.327,-12.326,-12.335,-12.349,-12.341,-12.339,-12.344,-12.328,-12.336,-12.331,-12.315,-12.31,-12.326,-12.336,-12.311,-12.316,-12.32,-12.296,-12.307,-12.309,-12.314,-12.307,-12.303,-12.305,-12.306,-12.29,-12.292,-12.298,-12.298,-12.295,-12.284,-12.262,-12.273,-12.283,-12.273,-12.266,-12.261,-12.266,-12.261,-12.267,-12.257,-12.26,-12.255,-12.251,-12.259,-12.253,-12.257,-12.256,-12.264,-12.266,-12.252,-12.261,-12.254,-12.27,-12.265,-12.267,-12.267,-12.262,-12.275,-12.275,-12.275,-12.279,-12.276,-12.279,-12.277,-12.287,-12.28,-12.287,-12.293,-12.285,-12.286,-12.281,-12.287,-12.296,-12.289,-12.282,-12.285,-12.289,-12.293,-12.296,-12.285,-12.297,-12.284,-12.291,-12.288,-12.291,-12.277,-12.271,-12.27,-12.268,-12.257,-12.259,-12.244,-12.228,-12.2,-12.199,-12.191,-12.198,-12.21,-12.196,-12.217,-12.227,-12.245,-12.244,-12.258,-12.272,-12.305,-12.302,-12.317,-12.302,-12.315,-12.308,-12.3,-12.306,-12.3,-12.3,-12.302,-12.307,-12.3,-12.289,-12.292,-12.299,-12.33,-12.37,-12.382,-12.343,-12.176,-11.899,-11.637,-11.401,-11.46,-11.741,-11.934,-12.095,-12.276,-12.254,-12.28,-12.39,-12.401,-12.332,-12.287,-12.239,-12.208,-12.21,-12.197,-12.205,-12.194,-12.197,-12.175,-12.17,-12.157,-12.153,-12.139,-12.13,-12.117,-12.119,-12.102,-12.09,-12.088,-12.088,-12.067,-12.062,-12.054,-12.041,-12.029,-12.011,-12.01,-11.99,-11.967,-11.958,-11.929,-11.912,-11.901,-11.88,-11.85,-11.818,-11.797,-11.786,-11.758,-11.734,-11.706,-11.682,-11.667,-11.663,-11.646,-11.639,-11.629,-11.63,-11.631,-11.625,-11.626,-11.643,-11.685,-11.718,-11.76,-11.794,-11.827,-11.874,-11.906,-11.948,-11.981,-11.996,-12.02,-12.034,-12.06,-12.077,-12.08,-12.095,-12.111,-12.104,-12.107,-12.113,-12.117,-12.12,-12.13,-12.13,-12.118,-12.117,-12.119,-12.113,-12.111,-12.104,-12.096,-12.091,-12.096,-12.091,-12.085,-12.079,-12.081,-12.08,-12.086,-12.08,-12.076,-12.069,-12.077,-12.074,-12.07,-12.066,-12.063,-12.063,-12.051,-12.043,-12.04,-12.036,-12.032,-12.033,-12.027,-12.022,-12.015,-12.013,-12.015,-12.014,-12.004,-11.995,-11.992,-11.996,-11.996,-11.989,-11.981,-11.974,-11.972,-11.97,-11.966,-11.958,-11.955,-11.945,-11.936,-11.933,-11.927,-11.92,-11.916,-11.901,-11.89,-11.874,-11.862,-11.846,-11.837,-11.821,-11.797,-11.773,-11.744,-11.734,-11.744,-11.721,-11.695,-11.658,-11.629,-11.644,-11.641,-11.632,-11.634,-11.643,-11.651,-11.631,-11.637,-11.655,-11.686,-11.695,-11.689,-11.683,-11.687,-11.688,-11.688,-11.69,-11.686,-11.692,-11.704,-11.702,-11.694,-11.709,-11.707,-11.709,-11.734,-11.783,-11.821,-11.774,-11.6,-11.346,-11.076,-10.838,-10.812,-11.114,-11.283,-11.44,-11.663,-11.823,-11.863,-11.924,-11.928,-11.824,-11.78,-11.758,-11.758,-11.748,-11.75,-11.762,-11.769,-11.752,-11.758,-11.73,-11.733,-11.743,-11.74,-11.73,-11.731,-11.737,-11.746,-11.72,-11.701,-11.693,-11.719,-11.711,-11.692,-11.681,-11.673,-11.663,-11.633,-11.638,-11.635,-11.629,-11.608,-11.585,-11.563,-11.563,-11.54,-11.499,-11.477,-11.46,-11.441,-11.427,-11.411,-11.406,-11.383,-11.377,-11.389,-11.379,-11.362,-11.366,-11.362,-11.36,-11.391,-11.387,-11.46,-11.538,-11.551,-11.61,-11.648,-11.693,-11.751,-11.788,-11.829,-11.854,-11.903,-11.939,-11.958,-11.941,-11.959,-12.007,-12.004,-12,-12.008,-11.994,-11.994,-11.998,-12.003,-12.021,-12.026,-12.017,-12.011,-12.017,-12.009,-12.019,-12.003,-11.986,-12.005,-12.011,-12.007,-11.988,-11.985,-11.973,-11.973,-11.993,-11.976,-11.962,-11.957,-11.961,-11.95,-11.945,-11.939,-11.941,-11.93,-11.924,-11.907,-11.915,-11.912,-11.906,-11.911,-11.907,-11.906,-11.894,-11.888,-11.898,-11.902,-11.891,-11.883,-11.89,-11.878,-11.875,-11.883,-11.896,-11.906,-11.909,-11.901,-11.892,-11.888,-11.892,-11.886,-11.888,-11.915,-11.906,-11.886,-11.879,-11.902,-11.902,-11.892,-11.862,-11.85,-11.855,-11.871,-11.873,-11.865,-11.864,-11.845,-11.835,-11.855,-11.902,-11.927,-11.925,-11.909,-11.894,-11.885,-11.887,-11.9,-11.893,-11.884,-11.877,-11.85,-11.852,-11.872,-11.873,-11.854,-11.842,-11.838,-11.809,-11.796,-11.806,-11.786,-11.79,-11.794,-11.795,-11.767,-11.742,-11.735,-11.747,-11.731,-11.752,-11.743,-11.735,-11.731,-11.722,-11.733,-11.737,-11.749,-11.757,-11.757,-11.743,-11.739,-11.735,-11.738,-11.729,-11.702,-11.708,-11.715,-11.698,-11.687,-11.684,-11.697,-11.692,-11.718,-11.756,-11.714,-11.574,-11.347,-11.077,-10.79,-10.699,-10.873,-11.104,-11.257,-11.455,-11.737,-11.8,-11.838,-11.811,-11.712,-11.655,-11.619,-11.614,-11.601,-11.603,-11.604,-11.603,-11.607,-11.582,-11.561,-11.562,-11.594,-11.57,-11.561,-11.561,-11.569,-11.563,-11.552,-11.556,-11.534,-11.529,-11.546,-11.539,-11.53,-11.505,-11.473,-11.469,-11.468,-11.443,-11.433,-11.419,-11.399,-11.371,-11.351,-11.334,-11.311,-11.291,-11.271,-11.249,-11.222,-11.199,-11.193,-11.185,-11.165,-11.148,-11.137,-11.127,-11.144,-11.144,-11.134,-11.135,-11.15,-11.178,-11.21,-11.263,-11.293,-11.349,-11.391,-11.428,-11.477,-11.506,-11.529,-11.559,-11.577,-11.608,-11.634,-11.647,-11.646,-11.655,-11.657,-11.664,-11.656,-11.675,-11.687,-11.698,-11.683,-11.697,-11.691,-11.69,-11.678,-11.697,-11.693,-11.682,-11.699,-11.687,-11.699,-11.687,-11.691,-11.685,-11.688,-11.693,-11.689,-11.679,-11.68,-11.682,-11.682,-11.69,-11.69,-11.697,-11.686,-11.672,-11.675,-11.675,-11.671,-11.664,-11.674,-11.69,-11.68,-11.675,-11.678,-11.678,-11.694,-11.678,-11.684,-11.689,-11.69,-11.689,-11.697,-11.691,-11.694,-11.719,-11.72,-11.718,-11.715,-11.719,-11.724,-11.722,-11.72,-11.722,-11.727,-11.739,-11.741,-11.729,-11.732,-11.725,-11.73,-11.73,-11.734,-11.733,-11.734,-11.74,-11.731,-11.727,-11.723,-11.712,-11.722,-11.745,-11.749,-11.746,-11.753,-11.741,-11.734,-11.743,-11.751,-11.743,-11.732,-11.755,-11.765,-11.754,-11.749,-11.753,-11.757,-11.753,-11.773,-11.761,-11.756,-11.759,-11.758,-11.768,-11.766,-11.765,-11.766,-11.777,-11.773,-11.763,-11.742,-11.766,-11.785,-11.778,-11.784,-11.782,-11.786,-11.783,-11.772,-11.786,-11.795,-11.785,-11.781,-11.802,-11.803,-11.794,-11.775,-11.772,-11.769,-11.772,-11.769,-11.744,-11.716,-11.706,-11.703,-11.724,-11.728,-11.728,-11.732,-11.765,-11.76,-11.748,-11.759,-11.793,-11.83,-11.825,-11.832,-11.824,-11.815,-11.817,-11.834,-11.833,-11.838,-11.829,-11.833,-11.842,-11.845,-11.834,-11.832,-11.844,-11.865,-11.909,-11.951,-11.9,-11.733,-11.484,-11.217,-10.938,-10.96,-11.292,-11.426,-11.553,-11.864,-11.963,-11.995,-12.017,-11.919,-11.86,-11.812,-11.797,-11.797,-11.786,-11.781,-11.775,-11.765,-11.759,-11.749,-11.744,-11.739,-11.732,-11.729,-11.724,-11.73,-11.712,-11.69,-11.705,-11.704,-11.694,-11.686,-11.658,-11.655,-11.66,-11.643,-11.628,-11.615,-11.616,-11.588,-11.564,-11.554,-11.533,-11.519,-11.509,-11.501,-11.472,-11.442,-11.425,-11.405,-11.388,-11.37,-11.352,-11.335,-11.328,-11.321,-11.307,-11.298,-11.284,-11.284,-11.291,-11.295,-11.308,-11.333,-11.374,-11.404,-11.447,-11.492,-11.535,-11.584,-11.628,-11.659,-11.673,-11.702,-11.721,-11.756,-11.782,-11.796,-11.807,-11.81,-11.816,-11.818,-11.842,-11.838,-11.836,-11.843,-11.847,-11.84,-11.842,-11.85,-11.843,-11.846,-11.849,-11.853,-11.857,-11.849,-11.853,-11.852,-11.857,-11.854,-11.854,-11.862,-11.853,-11.844,-11.842,-11.853,-11.828,-11.829,-11.855,-11.843,-11.832,-11.836,-11.832,-11.842,-11.841,-11.814,-11.817,-11.843,-11.847,-11.837,-11.836,-11.844,-11.856,-11.856,-11.851,-11.847,-11.86,-11.857,-11.846,-11.846,-11.854,-11.879,-11.88,-11.884,-11.859,-11.856,-11.89,-11.895,-11.887,-11.895,-11.902,-11.9,-11.899,-11.905,-11.9,-11.893,-11.903,-11.902,-11.912,-11.907,-11.904,-11.909,-11.91,-11.922,-11.928,-11.921,-11.921,-11.921,-11.922,-11.938,-11.937,-11.926,-11.929,-11.952,-11.955,-11.949,-11.948,-11.952,-11.964,-11.964,-11.96,-11.958,-11.977,-11.981,-11.983,-11.981,-11.981,-11.982,-11.98,-11.984,-11.996,-11.996,-11.998,-12.002,-12.001,-12.002,-12.013,-12.02,-12.02,-12.02,-12.022,-12.029,-12.03,-12.022,-12.029,-12.044,-12.028,-12.032,-12.024,-12.041,-12.049,-12.051,-12.042,-12.029,-12.044,-12.049,-12.057,-12.048,-12.05,-12.046,-12.051,-12.062,-12.052,-12.041,-12.054,-12.067,-12.074,-12.068,-12.066,-12.072,-12.066,-12.072,-12.071,-12.079,-12.083,-12.079,-12.083,-12.078,-12.076,-12.076,-12.073,-12.062,-12.058,-12.062,-12.04,-12.023,-12.005,-11.989,-12.01,-12.024,-12.032,-12.042,-12.04,-12.044,-12.041,-12.061,-12.094,-12.104,-12.107,-12.11,-12.104,-12.112,-12.121,-12.119,-12.108,-12.116,-12.118,-12.118,-12.117,-12.116,-12.116,-12.11,-12.124,-12.163,-12.213,-12.203,-12.083,-11.968,-11.725,-11.43,-11.197,-11.362,-11.634,-11.747,-11.882,-12.122,-12.198,-12.223,-12.265,-12.169,-12.129,-12.054,-12.048,-12.027,-12.034,-12.017,-12.026,-12.012,-12.015,-12,-11.995,-11.973,-11.974,-11.968,-11.962,-11.95,-11.95,-11.937,-11.935,-11.924,-11.914,-11.899,-11.899,-11.878,-11.869,-11.847,-11.837,-11.835,-11.816,-11.803,-11.774,-11.755,-11.741,-11.731,-11.713,-11.687,-11.663,-11.641,-11.618,-11.594,-11.571,-11.543,-11.524,-11.511,-11.495,-11.484,-11.475,-11.463,-11.456,-11.454,-11.443,-11.46,-11.471,-11.491,-11.524,-11.552,-11.586,-11.621,-11.663,-11.705,-11.744,-11.777,-11.802,-11.832,-11.867,-11.886,-11.889,-11.898,-11.898,-11.921,-11.933,-11.937,-11.932,-11.932,-11.936,-11.94,-11.93,-11.947,-11.945,-11.947,-11.935,-11.941,-11.94,-11.937,-11.928,-11.924,-11.925,-11.919,-11.913,-11.91,-11.916,-11.914,-11.896,-11.888,-11.887,-11.899,-11.887,-11.887,-11.867,-11.868,-11.861,-11.859,-11.859,-11.866,-11.859,-11.863,-11.858,-11.849,-11.852,-11.857,-11.848,-11.867,-11.857,-11.856,-11.852,-11.858,-11.858,-11.849,-11.861,-11.866,-11.874,-11.865,-11.857,-11.858,-11.856,-11.856,-11.867,-11.847,-11.842,-11.848,-11.858,-11.866,-11.858,-11.846,-11.844,-11.83,-11.856,-11.853,-11.832,-11.81,-11.817,-11.838,-11.826,-11.815,-11.812,-11.82,-11.819,-11.823,-11.821,-11.823,-11.809,-11.802,-11.815,-11.814,-11.806,-11.812,-11.827,-11.806,-11.793,-11.799,-11.793,-11.795,-11.793,-11.783,-11.8,-11.801,-11.785,-11.766,-11.797,-11.785,-11.774,-11.76,-11.755,-11.741,-11.731,-11.727,-11.717,-11.708,-11.717,-11.73,-11.729,-11.689,-11.693,-11.716,-11.735,-11.749,-11.768,-11.786,-11.783,-11.784,-11.779,-11.787,-11.772,-11.794,-11.815,-11.785,-11.772,-11.829,-11.838,-11.826,-11.815,-11.832,-11.907,-11.943,-11.919,-11.776,-11.494,-11.237,-11.011,-10.982,-11.268,-11.452,-11.594,-11.82,-11.883,-11.885,-11.972,-12.014,-11.93,-11.9,-11.868,-11.833,-11.825,-11.824,-11.841,-11.844,-11.83,-11.831,-11.821,-11.814,-11.808,-11.789,-11.806,-11.802,-11.8,-11.791,-11.772,-11.77,-11.738,-11.746,-11.768,-11.759,-11.747,-11.717,-11.709,-11.711,-11.705,-11.679,-11.668,-11.647,-11.632,-11.619,-11.596,-11.579,-11.574,-11.543,-11.528,-11.498,-11.467,-11.45,-11.438,-11.433,-11.411,-11.406,-11.396,-11.381,-11.372,-11.371,-11.377,-11.382,-11.396,-11.416,-11.46,-11.52,-11.543,-11.571,-11.625,-11.672,-11.702,-11.739,-11.781,-11.796,-11.815,-11.818,-11.839,-11.863,-11.874,-11.887,-11.883,-11.869,-11.883,-11.891,-11.894,-11.897,-11.902,-11.9,-11.881,-11.885,-11.901,-11.908,-11.905,-11.902,-11.885,-11.88,-11.885,-11.894,-11.881,-11.883,-11.885,-11.881,-11.858,-11.875,-11.889,-11.873,-11.863,-11.863,-11.855,-11.865,-11.862,-11.87,-11.87,-11.858,-11.861,-11.85,-11.84,-11.844,-11.859,-11.857,-11.85,-11.856,-11.849,-11.851,-11.859,-11.861,-11.852,-11.851,-11.88,-11.886,-11.88,-11.884,-11.883,-11.875,-11.883,-11.897,-11.889,-11.889,-11.887,-11.892,-11.869,-11.893,-11.915,-11.892,-11.897,-11.89,-11.899,-11.9,-11.897,-11.886,-11.899,-11.906,-11.922,-11.907,-11.9,-11.906,-11.919,-11.915,-11.904,-11.892,-11.899,-11.919,-11.93,-11.914,-11.904,-11.903,-11.909,-11.926,-11.923,-11.908,-11.912,-11.915,-11.929,-11.926,-11.928,-11.938,-11.94,-11.937,-11.941,-11.919,-11.919,-11.951,-11.957,-11.96,-11.946,-11.939,-11.929,-11.914,-11.919,-11.927,-11.921,-11.924,-11.926,-11.912,-11.927,-11.919,-11.912,-11.929,-11.939,-11.932,-11.937,-11.968,-12.001,-12.007,-12,-11.996,-12.005,-12.006,-12.021,-12.011,-12.004,-12.033,-12.007,-12.027,-12.037,-12.053,-12.09,-12.142,-12.142,-12.016,-11.768,-11.516,-11.256,-11.131,-11.419,-11.576,-11.695,-11.946,-12.12,-12.173,-12.198,-12.238,-12.147,-12.101,-12.028,-12.013,-12.004,-12.012,-12.009,-12.009,-12.008,-12.005,-11.987,-11.987,-11.987,-11.976,-11.962,-11.949,-11.956,-11.961,-11.95,-11.952,-11.945,-11.929,-11.919,-11.91,-11.906,-11.899,-11.891,-11.879,-11.857,-11.841,-11.824,-11.822,-11.809,-11.791,-11.769,-11.748,-11.727,-11.726,-11.713,-11.683,-11.666,-11.643,-11.632,-11.61,-11.589,-11.574,-11.572,-11.56,-11.555,-11.554,-11.554,-11.568,-11.586,-11.612,-11.649,-11.684,-11.702,-11.741,-11.794,-11.842,-11.873,-11.906,-11.935,-11.983,-12.012,-12.022,-12.044,-12.052,-12.069,-12.077,-12.092,-12.094,-12.109,-12.118,-12.111,-12.119,-12.135,-12.132,-12.132,-12.134,-12.129,-12.129,-12.142,-12.134,-12.144,-12.137,-12.14,-12.145,-12.139,-12.148,-12.141,-12.139,-12.167,-12.163,-12.156,-12.153,-12.153,-12.151,-12.157,-12.159,-12.146,-12.136,-12.146,-12.134,-12.135,-12.14,-12.139,-12.141,-12.134,-12.144,-12.15,-12.149,-12.153,-12.155,-12.157,-12.154,-12.151,-12.157,-12.165,-12.168,-12.167,-12.176,-12.177,-12.19,-12.185,-12.189,-12.188,-12.19,-12.183,-12.188,-12.2,-12.204,-12.197,-12.192,-12.199,-12.2,-12.206,-12.2,-12.201,-12.207,-12.205,-12.199,-12.214,-12.205,-12.207,-12.214,-12.21,-12.223,-12.222,-12.218,-12.225,-12.231,-12.229,-12.23,-12.232,-12.222,-12.22,-12.222,-12.236,-12.234,-12.225,-12.215,-12.243,-12.243,-12.24,-12.233,-12.217,-12.241,-12.26,-12.244,-12.241,-12.242,-12.248,-12.247,-12.239,-12.249,-12.261,-12.254,-12.252,-12.254,-12.247,-12.242,-12.249,-12.246,-12.254,-12.261,-12.255,-12.266,-12.255,-12.244,-12.249,-12.243,-12.236,-12.242,-12.221,-12.196,-12.205,-12.224,-12.213,-12.238,-12.217,-12.212,-12.207,-12.204,-12.214,-12.226,-12.245,-12.274,-12.277,-12.28,-12.282,-12.288,-12.284,-12.275,-12.281,-12.287,-12.29,-12.29,-12.293,-12.286,-12.297,-12.329,-12.378,-12.39,-12.285,-12.057,-11.81,-11.518,-11.335,-11.61,-11.805,-11.921,-11.935,-12.279,-12.411,-12.415,-12.48,-12.371,-12.327,-12.242,-12.257,-12.223,-12.243,-12.225,-12.243,-12.211,-12.218,-12.206,-12.215,-12.188,-12.19,-12.177,-12.186,-12.161,-12.172,-12.163,-12.158,-12.139,-12.133,-12.128,-12.122,-12.114,-12.105,-12.089,-12.091,-12.076,-12.057,-12.043,-12.035,-12.014,-11.995,-11.976,-11.97,-11.947,-11.936,-11.911,-11.885,-11.86,-11.842,-11.83,-11.813,-11.796,-11.777,-11.772,-11.768,-11.76,-11.752,-11.761,-11.77,-11.78,-11.806,-11.823,-11.853,-11.901,-11.938,-11.989,-12.027,-12.07,-12.102,-12.146,-12.174,-12.204,-12.214,-12.239,-12.254,-12.263,-12.281,-12.298,-12.291,-12.304,-12.315,-12.322,-12.313,-12.321,-12.323,-12.328,-12.333,-12.336,-12.338,-12.343,-12.339,-12.341,-12.349,-12.345,-12.334,-12.336,-12.348,-12.352,-12.344,-12.345,-12.341,-12.352,-12.342,-12.334,-12.329,-12.341,-12.343,-12.344,-12.339,-12.331,-12.333,-12.341,-12.343,-12.336,-12.312,-12.318,-12.335,-12.348,-12.336,-12.339,-12.341,-12.35,-12.34,-12.334,-12.346,-12.361,-12.356,-12.368,-12.358,-12.364,-12.382,-12.382,-12.371,-12.386,-12.397,-12.397,-12.39,-12.379,-12.381,-12.386,-12.386,-12.386,-12.38,-12.383,-12.391,-12.394,-12.391,-12.389,-12.395,-12.388,-12.386,-12.392,-12.389,-12.39,-12.39,-12.378,-12.383,-12.377,-12.39,-12.396,-12.394,-12.393,-12.394,-12.393,-12.394,-12.386,-12.391,-12.39,-12.395,-12.389,-12.393,-12.384,-12.385,-12.392,-12.384,-12.389,-12.39,-12.397,-12.401,-12.393,-12.391,-12.38,-12.396,-12.393,-12.391,-12.383,-12.382,-12.384,-12.385,-12.39,-12.388,-12.394,-12.388,-12.387,-12.39,-12.394,-12.38,-12.382,-12.39,-12.394,-12.392,-12.386,-12.391,-12.392,-12.394,-12.374,-12.384,-12.362,-12.346,-12.349,-12.348,-12.326,-12.325,-12.318,-12.32,-12.335,-12.318,-12.306,-12.304,-12.291,-12.313,-12.31,-12.319,-12.342,-12.349,-12.354,-12.347,-12.355,-12.346,-12.343,-12.344,-12.337,-12.337,-12.342,-12.337,-12.33,-12.344,-12.362,-12.402,-12.43,-12.354,-12.143,-11.89,-11.609,-11.381,-11.572,-11.749,-11.885,-12.122,-12.342,-12.392,-12.406,-12.463,-12.381,-12.326,-12.269,-12.267,-12.251,-12.234,-12.213,-12.223,-12.221,-12.218,-12.196,-12.198,-12.172,-12.171,-12.163,-12.15,-12.144,-12.139,-12.126,-12.109,-12.093,-12.096,-12.083,-12.075,-12.063,-12.051,-12.03,-12.024,-12.004,-11.987,-11.978,-11.957,-11.941,-11.926,-11.898,-11.879,-11.856,-11.827,-11.815,-11.792,-11.764,-11.742,-11.73,-11.732,-11.704,-11.686,-11.667,-11.647,-11.644,-11.634,-11.639,-11.634,-11.649,-11.663,-11.684,-11.705,-11.745,-11.779,-11.823,-11.847,-11.902,-11.936,-11.968,-11.983,-12.006,-12.034,-12.061,-12.064,-12.086,-12.107,-12.104,-12.115,-12.116,-12.115,-12.124,-12.126,-12.128,-12.119,-12.114,-12.13,-12.133,-12.121,-12.122,-12.12,-12.112,-12.108,-12.108,-12.108,-12.102,-12.098,-12.102,-12.103,-12.091,-12.079,-12.081,-12.07,-12.077,-12.071,-12.069,-12.061,-12.074,-12.065,-12.054,-12.049,-12.052,-12.04,-12.041,-12.042,-12.034,-12.039,-12.043,-12.04,-12.039,-12.036,-12.042,-12.048,-12.053,-12.042,-12.033,-12.039,-12.047,-12.045,-12.047,-12.046,-12.046,-12.045,-12.048,-12.051,-12.047,-12.043,-12.042,-12.039,-12.036,-12.04,-12.037,-12.03,-12.029,-12.027,-12.028,-12.02,-12.022,-12.023,-12.021,-12.018,-12.01,-12.012,-12.011,-12.012,-12.001,-12.006,-12.001,-12.003,-12.014,-12.002,-11.995,-11.994,-11.997,-11.989,-11.983,-11.989,-11.985,-11.987,-11.985,-11.983,-11.977,-11.966,-11.957,-11.953,-11.939,-11.933,-11.933,-11.932,-11.935,-11.938,-11.937,-11.928,-11.916,-11.924,-11.941,-11.954,-11.962,-11.981,-11.992,-11.993,-11.998,-11.997,-11.99,-11.993,-11.997,-12.001,-11.988,-11.991,-11.997,-11.999,-12.01,-12.048,-12.083,-12.071,-11.914,-11.642,-11.523,-11.245,-11.075,-11.305,-11.518,-11.702,-11.859,-12.014,-12.024,-12.08,-12.158,-12.095,-12.033,-11.981,-11.958,-11.95,-11.933,-11.944,-11.949,-11.95,-11.943,-11.932,-11.923,-11.913,-11.899,-11.9,-11.899,-11.885,-11.885,-11.877,-11.867,-11.859,-11.854,-11.849,-11.84,-11.839,-11.827,-11.817,-11.799,-11.803,-11.781,-11.767,-11.759,-11.75,-11.716,-11.705,-11.689,-11.664,-11.648,-11.627,-11.6,-11.574,-11.565,-11.54,-11.535,-11.514,-11.513,-11.505,-11.499,-11.489,-11.482,-11.485,-11.496,-11.513,-11.537,-11.573,-11.613,-11.659,-11.692,-11.727,-11.78,-11.828,-11.863,-11.896,-11.923,-11.948,-11.967,-11.986,-11.99,-11.996,-12.009,-12.019,-12.029,-12.028,-12.029,-12.038,-12.042,-12.045,-12.051,-12.048,-12.054,-12.057,-12.051,-12.045,-12.054,-12.052,-12.06,-12.063,-12.063,-12.061,-12.052,-12.06,-12.059,-12.056,-12.052,-12.052,-12.049,-12.05,-12.055,-12.051,-12.05,-12.048,-12.043,-12.038,-12.035,-12.038,-12.04,-12.041,-12.045,-12.042,-12.034,-12.041,-12.053,-12.053,-12.052,-12.045,-12.059,-12.069,-12.075,-12.083,-12.083,-12.085,-12.091,-12.094,-12.097,-12.093,-12.1,-12.105,-12.107,-12.114,-12.108,-12.109,-12.107,-12.12,-12.124,-12.119,-12.119,-12.126,-12.124,-12.131,-12.134,-12.129,-12.134,-12.139,-12.139,-12.133,-12.134,-12.14,-12.154,-12.15,-12.153,-12.157,-12.143,-12.155,-12.166,-12.168,-12.164,-12.157,-12.176,-12.172,-12.165,-12.17,-12.173,-12.174,-12.173,-12.173,-12.174,-12.177,-12.185,-12.18,-12.181,-12.182,-12.186,-12.189,-12.187,-12.189,-12.182,-12.155,-12.153,-12.164,-12.165,-12.16,-12.16,-12.156,-12.171,-12.174,-12.163,-12.146,-12.148,-12.16,-12.167,-12.173,-12.198,-12.223,-12.231,-12.231,-12.234,-12.227,-12.227,-12.243,-12.233,-12.235,-12.241,-12.235,-12.247,-12.255,-12.272,-12.312,-12.341,-12.298,-12.124,-11.875,-11.607,-11.345,-11.386,-11.698,-11.834,-11.956,-12.263,-12.353,-12.375,-12.413,-12.337,-12.281,-12.218,-12.208,-12.204,-12.205,-12.196,-12.195,-12.194,-12.193,-12.186,-12.186,-12.169,-12.163,-12.163,-12.159,-12.149,-12.143,-12.137,-12.134,-12.129,-12.126,-12.123,-12.115,-12.11,-12.103,-12.087,-12.08,-12.074,-12.058,-12.047,-12.031,-12.019,-12.002,-11.987,-11.967,-11.95,-11.927,-11.907,-11.896,-11.88,-11.858,-11.848,-11.828,-11.819,-11.807,-11.787,-11.776,-11.763,-11.763,-11.76,-11.772,-11.792,-11.804,-11.839,-11.871,-11.912,-11.956,-11.996,-12.044,-12.084,-12.112,-12.137,-12.171,-12.2,-12.229,-12.256,-12.268,-12.269,-12.284,-12.307,-12.314,-12.319,-12.326,-12.326,-12.333,-12.331,-12.336,-12.335,-12.336,-12.33,-12.335,-12.335,-12.337,-12.339,-12.348,-12.343,-12.343,-12.337,-12.34,-12.34,-12.342,-12.342,-12.335,-12.339,-12.341,-12.342,-12.338,-12.333,-12.335,-12.336,-12.337,-12.337,-12.337,-12.333,-12.323,-12.336,-12.331,-12.329,-12.333,-12.328,-12.338,-12.342,-12.342,-12.338,-12.341,-12.346,-12.348,-12.352,-12.355,-12.355,-12.358,-12.362,-12.365,-12.365,-12.362,-12.366,-12.369,-12.374,-12.372,-12.362,-12.379,-12.38,-12.378,-12.38,-12.372,-12.374,-12.372,-12.378,-12.373,-12.377,-12.375,-12.376,-12.377,-12.381,-12.38,-12.381,-12.382,-12.377,-12.384,-12.381,-12.373,-12.379,-12.388,-12.381,-12.381,-12.385,-12.39,-12.398,-12.394,-12.39,-12.384,-12.393,-12.393,-12.39,-12.389,-12.397,-12.387,-12.385,-12.382,-12.388,-12.389,-12.388,-12.39,-12.394,-12.387,-12.39,-12.387,-12.387,-12.39,-12.393,-12.389,-12.389,-12.388,-12.392,-12.389,-12.389,-12.391,-12.389,-12.385,-12.387,-12.385,-12.391,-12.386,-12.385,-12.394,-12.391,-12.381,-12.379,-12.376,-12.364,-12.368,-12.357,-12.339,-12.35,-12.351,-12.34,-12.352,-12.344,-12.342,-12.337,-12.34,-12.34,-12.34,-12.366,-12.4,-12.412,-12.411,-12.406,-12.399,-12.407,-12.411,-12.409,-12.41,-12.407,-12.413,-12.41,-12.409,-12.414,-12.435,-12.475,-12.505,-12.445,-12.27,-12.017,-11.761,-11.509,-11.464,-11.775,-11.93,-12.05,-12.281,-12.487,-12.529,-12.571,-12.54,-12.438,-12.394,-12.352,-12.349,-12.332,-12.346,-12.335,-12.337,-12.328,-12.336,-12.316,-12.32,-12.31,-12.3,-12.293,-12.294,-12.285,-12.281,-12.275,-12.269,-12.256,-12.257,-12.239,-12.232,-12.218,-12.217,-12.206,-12.197,-12.188,-12.183,-12.165,-12.157,-12.139,-12.118,-12.102,-12.08,-12.059,-12.044,-12.021,-12.001,-11.977,-11.966,-11.946,-11.928,-11.909,-11.897,-11.889,-11.88,-11.869,-11.868,-11.87,-11.87,-11.884,-11.901,-11.931,-11.969,-11.991,-12.034,-12.095,-12.136,-12.174,-12.213,-12.254,-12.277,-12.303,-12.318,-12.342,-12.363,-12.377,-12.387,-12.392,-12.398,-12.401,-12.407,-12.411,-12.407,-12.418,-12.419,-12.42,-12.409,-12.419,-12.421,-12.423,-12.42,-12.421,-12.414,-12.417,-12.417,-12.42,-12.42,-12.424,-12.416,-12.419,-12.406,-12.407,-12.416,-12.418,-12.417,-12.414,-12.413,-12.41,-12.404,-12.402,-12.396,-12.399,-12.396,-12.395,-12.396,-12.401,-12.396,-12.398,-12.398,-12.403,-12.399,-12.407,-12.407,-12.405,-12.407,-12.406,-12.414,-12.417,-12.42,-12.428,-12.426,-12.43,-12.425,-12.43,-12.435,-12.438,-12.438,-12.434,-12.436,-12.433,-12.438,-12.443,-12.439,-12.44,-12.439,-12.442,-12.443,-12.437,-12.435,-12.438,-12.437,-12.444,-12.444,-12.441,-12.444,-12.442,-12.446,-12.448,-12.449,-12.447,-12.451,-12.449,-12.458,-12.453,-12.452,-12.454,-12.449,-12.448,-12.453,-12.454,-12.45,-12.448,-12.452,-12.452,-12.455,-12.454,-12.464,-12.462,-12.464,-12.461,-12.459,-12.454,-12.465,-12.467,-12.461,-12.464,-12.464,-12.465,-12.476,-12.473,-12.466,-12.462,-12.47,-12.472,-12.473,-12.474,-12.475,-12.477,-12.477,-12.471,-12.477,-12.471,-12.473,-12.48,-12.481,-12.475,-12.476,-12.479,-12.476,-12.48,-12.474,-12.483,-12.489,-12.485,-12.477,-12.469,-12.455,-12.451,-12.457,-12.444,-12.426,-12.43,-12.433,-12.433,-12.444,-12.429,-12.417,-12.418,-12.439,-12.437,-12.446,-12.477,-12.49,-12.489,-12.495,-12.499,-12.496,-12.49,-12.492,-12.492,-12.497,-12.496,-12.496,-12.494,-12.492,-12.506,-12.528,-12.578,-12.596,-12.505,-12.28,-12.034,-11.748,-11.619,-11.62,-11.958,-12.1,-12.191,-12.496,-12.603,-12.63,-12.665,-12.604,-12.522,-12.472,-12.437,-12.435,-12.417,-12.428,-12.416,-12.426,-12.412,-12.414,-12.4,-12.402,-12.388,-12.386,-12.373,-12.368,-12.36,-12.37,-12.351,-12.349,-12.333,-12.331,-12.322,-12.313,-12.295,-12.289,-12.273,-12.267,-12.254,-12.256,-12.231,-12.213,-12.189,-12.18,-12.164,-12.139,-12.11,-12.093,-12.074,-12.055,-12.028,-12.008,-11.994,-11.977,-11.96,-11.947,-11.94,-11.933,-11.924,-11.922,-11.925,-11.926,-11.943,-11.968,-11.995,-12.028,-12.071,-12.114,-12.159,-12.197,-12.24,-12.269,-12.305,-12.337,-12.367,-12.386,-12.404,-12.411,-12.423,-12.433,-12.442,-12.443,-12.451,-12.449,-12.46,-12.461,-12.463,-12.459,-12.46,-12.461,-12.468,-12.466,-12.475,-12.467,-12.475,-12.463,-12.466,-12.469,-12.469,-12.466,-12.467,-12.461,-12.463,-12.453,-12.454,-12.456,-12.451,-12.448,-12.447,-12.444,-12.441,-12.441,-12.44,-12.432,-12.435,-12.433,-12.436,-12.431,-12.425,-12.422,-12.432,-12.432,-12.434,-12.432,-12.436,-12.434,-12.443,-12.445,-12.441,-12.445,-12.451,-12.456,-12.463,-12.457,-12.45,-12.464,-12.465,-12.464,-12.459,-12.455,-12.468,-12.477,-12.464,-12.465,-12.473,-12.47,-12.47,-12.476,-12.473,-12.471,-12.474,-12.474,-12.478,-12.47,-12.476,-12.485,-12.489,-12.484,-12.48,-12.474,-12.477,-12.483,-12.483,-12.476,-12.476,-12.479,-12.488,-12.493,-12.485,-12.477,-12.475,-12.486,-12.49,-12.488,-12.485,-12.483,-12.484,-12.484,-12.486,-12.498,-12.484,-12.484,-12.483,-12.484,-12.489,-12.486,-12.49,-12.492,-12.484,-12.491,-12.477,-12.485,-12.484,-12.481,-12.473,-12.473,-12.478,-12.474,-12.466,-12.477,-12.482,-12.47,-12.453,-12.466,-12.477,-12.483,-12.483,-12.484,-12.489,-12.491,-12.473,-12.487,-12.496,-12.491,-12.495,-12.49,-12.475,-12.473,-12.482,-12.488,-12.491,-12.48,-12.469,-12.467,-12.453,-12.446,-12.436,-12.427,-12.434,-12.434,-12.413,-12.413,-12.418,-12.406,-12.4,-12.403,-12.402,-12.398,-12.431,-12.459,-12.456,-12.452,-12.455,-12.452,-12.454,-12.451,-12.456,-12.447,-12.445,-12.442,-12.439,-12.427,-12.438,-12.485,-12.513,-12.541,-12.486,-12.306,-12.036,-11.772,-11.534,-11.64,-11.93,-12.078,-12.202,-12.4,-12.474,-12.471,-12.554,-12.512,-12.459,-12.41,-12.365,-12.341,-12.342,-12.333,-12.345,-12.329,-12.318,-12.312,-12.314,-12.289,-12.289,-12.277,-12.27,-12.258,-12.248,-12.246,-12.249,-12.224,-12.205,-12.208,-12.186,-12.173,-12.168,-12.172,-12.155,-12.14,-12.117,-12.098,-12.076,-12.065,-12.058,-12.03,-12.022,-11.995,-11.979,-11.957,-11.928,-11.888,-11.886,-11.867,-11.845,-11.839,-11.803,-11.771,-11.774,-11.773,-11.769,-11.764,-11.762,-11.771,-11.771,-11.821,-11.823,-11.852,-11.896,-11.933,-11.969,-12.012,-12.048,-12.084,-12.114,-12.132,-12.138,-12.161,-12.195,-12.223,-12.216,-12.212,-12.238,-12.247,-12.242,-12.26,-12.258,-12.249,-12.254,-12.254,-12.252,-12.247,-12.232,-12.237,-12.236,-12.237,-12.231,-12.229,-12.223,-12.217,-12.219,-12.205,-12.193,-12.199,-12.2,-12.191,-12.193,-12.194,-12.184,-12.177,-12.162,-12.163,-12.15,-12.168,-12.171,-12.162,-12.141,-12.146,-12.145,-12.144,-12.138,-12.136,-12.132,-12.133,-12.129,-12.144,-12.153,-12.137,-12.15,-12.152,-12.144,-12.143,-12.159,-12.149,-12.121,-12.135,-12.167,-12.147,-12.148,-12.132,-12.136,-12.144,-12.16,-12.154,-12.152,-12.155,-12.164,-12.151,-12.147,-12.134,-12.148,-12.159,-12.143,-12.128,-12.131,-12.141,-12.16,-12.171,-12.163,-12.161,-12.139,-12.145,-12.161,-12.163,-12.157,-12.164,-12.176,-12.162,-12.139,-12.152,-12.154,-12.163,-12.179,-12.169,-12.163,-12.16,-12.166,-12.164,-12.157,-12.149,-12.156,-12.133,-12.111,-12.123,-12.133,-12.145,-12.145,-12.125,-12.124,-12.115,-12.14,-12.137,-12.145,-12.19,-12.204,-12.194,-12.219,-12.221,-12.213,-12.214,-12.224,-12.22,-12.253,-12.249,-12.238,-12.239,-12.244,-12.26,-12.327,-12.356,-12.298,-12.163,-12.021,-11.796,-11.489,-11.352,-11.583,-11.812,-11.95,-12.137,-12.303,-12.293,-12.357,-12.444,-12.348,-12.305,-12.258,-12.252,-12.216,-12.216,-12.199,-12.219,-12.213,-12.22,-12.211,-12.211,-12.184,-12.188,-12.185,-12.183,-12.154,-12.145,-12.143,-12.151,-12.145,-12.131,-12.118,-12.108,-12.088,-12.096,-12.069,-12.058,-12.033,-12.044,-12.024,-11.997,-11.984,-11.978,-11.949,-11.922,-11.896,-11.877,-11.867,-11.84,-11.801,-11.776,-11.781,-11.753,-11.726,-11.743,-11.734,-11.713,-11.703,-11.695,-11.688,-11.706,-11.727,-11.752,-11.781,-11.819,-11.858,-11.904,-11.948,-11.985,-12.037,-12.061,-12.104,-12.118,-12.15,-12.155,-12.19,-12.198,-12.207,-12.207,-12.214,-12.22,-12.224,-12.222,-12.229,-12.243,-12.243,-12.227,-12.23,-12.246,-12.244,-12.232,-12.239,-12.238,-12.236,-12.23,-12.228,-12.244,-12.238,-12.223,-12.22,-12.214,-12.224,-12.228,-12.224,-12.212,-12.213,-12.207,-12.216,-12.196,-12.202,-12.209,-12.2,-12.204,-12.205,-12.2,-12.183,-12.183,-12.211,-12.195,-12.196,-12.193,-12.2,-12.199,-12.199,-12.187,-12.189,-12.187,-12.192,-12.196,-12.199,-12.206,-12.212,-12.206,-12.216,-12.217,-12.218,-12.218,-12.226,-12.229,-12.217,-12.223,-12.222,-12.23,-12.235,-12.237,-12.241,-12.248,-12.248,-12.236,-12.234,-12.236,-12.243,-12.258,-12.255,-12.253,-12.253,-12.251,-12.249,-12.248,-12.243,-12.253,-12.263,-12.263,-12.252,-12.259,-12.265,-12.261,-12.249,-12.26,-12.267,-12.27,-12.278,-12.266,-12.266,-12.258,-12.273,-12.285,-12.281,-12.283,-12.28,-12.278,-12.271,-12.266,-12.27,-12.274,-12.283,-12.279,-12.273,-12.277,-12.263,-12.259,-12.258,-12.25,-12.241,-12.247,-12.259,-12.253,-12.254,-12.251,-12.25,-12.269,-12.258,-12.26,-12.263,-12.3,-12.321,-12.333,-12.325,-12.326,-12.316,-12.315,-12.333,-12.34,-12.336,-12.338,-12.336,-12.34,-12.341,-12.345,-12.393,-12.445,-12.432,-12.282,-12.029,-11.785,-11.516,-11.417,-11.743,-11.89,-11.996,-12.286,-12.389,-12.457,-12.494,-12.495,-12.405,-12.352,-12.31,-12.287,-12.286,-12.291,-12.285,-12.276,-12.278,-12.274,-12.261,-12.249,-12.235,-12.239,-12.236,-12.234,-12.228,-12.216,-12.218,-12.196,-12.199,-12.209,-12.205,-12.182,-12.171,-12.158,-12.143,-12.136,-12.128,-12.111,-12.085,-12.073,-12.067,-12.048,-12.029,-12.011,-12,-11.975,-11.953,-11.912,-11.887,-11.891,-11.88,-11.858,-11.837,-11.822,-11.807,-11.803,-11.783,-11.782,-11.796,-11.808,-11.821,-11.844,-11.874,-11.896,-11.933,-11.986,-12.021,-12.06,-12.103,-12.141,-12.177,-12.215,-12.24,-12.25,-12.261,-12.288,-12.301,-12.317,-12.315,-12.323,-12.334,-12.332,-12.325,-12.324,-12.332,-12.335,-12.337,-12.325,-12.331,-12.343,-12.348,-12.348,-12.341,-12.333,-12.335,-12.332,-12.342,-12.333,-12.324,-12.327,-12.321,-12.321,-12.322,-12.322,-12.323,-12.315,-12.323,-12.309,-12.305,-12.309,-12.304,-12.298,-12.31,-12.316,-12.306,-12.297,-12.296,-12.292,-12.302,-12.297,-12.302,-12.299,-12.298,-12.309,-12.307,-12.302,-12.306,-12.306,-12.309,-12.303,-12.311,-12.32,-12.318,-12.314,-12.323,-12.323,-12.324,-12.332,-12.336,-12.318,-12.306,-12.312,-12.327,-12.339,-12.338,-12.337,-12.329,-12.321,-12.322,-12.33,-12.334,-12.33,-12.334,-12.332,-12.332,-12.324,-12.321,-12.325,-12.332,-12.337,-12.33,-12.336,-12.335,-12.337,-12.338,-12.331,-12.322,-12.324,-12.323,-12.349,-12.342,-12.337,-12.335,-12.328,-12.33,-12.343,-12.338,-12.336,-12.341,-12.344,-12.344,-12.344,-12.354,-12.347,-12.351,-12.343,-12.344,-12.338,-12.334,-12.361,-12.363,-12.35,-12.36,-12.356,-12.348,-12.347,-12.352,-12.353,-12.357,-12.348,-12.344,-12.349,-12.344,-12.331,-12.317,-12.324,-12.307,-12.307,-12.313,-12.312,-12.319,-12.322,-12.306,-12.297,-12.301,-12.305,-12.303,-12.323,-12.349,-12.377,-12.376,-12.377,-12.371,-12.369,-12.375,-12.369,-12.369,-12.375,-12.358,-12.358,-12.368,-12.377,-12.394,-12.418,-12.461,-12.461,-12.345,-12.108,-11.864,-11.714,-11.471,-11.528,-11.852,-11.96,-12.089,-12.396,-12.503,-12.516,-12.544,-12.452,-12.401,-12.332,-12.32,-12.3,-12.317,-12.31,-12.317,-12.307,-12.308,-12.3,-12.283,-12.278,-12.275,-12.267,-12.266,-12.255,-12.231,-12.23,-12.252,-12.232,-12.22,-12.221,-12.208,-12.185,-12.167,-12.165,-12.174,-12.155,-12.134,-12.11,-12.101,-12.101,-12.06,-12.022,-12.035,-12.02,-11.989,-11.959,-11.929,-11.915,-11.907,-11.901,-11.874,-11.847,-11.824,-11.803,-11.804,-11.814,-11.806,-11.795,-11.787,-11.799,-11.836,-11.859,-11.895,-11.935,-11.978,-12.031,-12.055,-12.103,-12.136,-12.174,-12.219,-12.244,-12.271,-12.301,-12.307,-12.319,-12.321,-12.331,-12.344,-12.349,-12.344,-12.343,-12.336,-12.373,-12.37,-12.373,-12.378,-12.373,-12.374,-12.374,-12.371,-12.378,-12.376,-12.365,-12.367,-12.38,-12.388,-12.365,-12.379,-12.378,-12.362,-12.365,-12.358,-12.363,-12.37,-12.354,-12.354,-12.363,-12.369,-12.355,-12.345,-12.353,-12.335,-12.35,-12.36,-12.359,-12.345,-12.352,-12.348,-12.354,-12.364,-12.351,-12.355,-12.346,-12.329,-12.355,-12.377,-12.379,-12.382,-12.376,-12.355,-12.375,-12.395,-12.389,-12.404,-12.399,-12.384,-12.393,-12.404,-12.409,-12.41,-12.404,-12.397,-12.395,-12.39,-12.409,-12.42,-12.41,-12.409,-12.41,-12.411,-12.404,-12.401,-12.401,-12.412,-12.413,-12.403,-12.402,-12.407,-12.406,-12.406,-12.405,-12.409,-12.418,-12.41,-12.408,-12.41,-12.407,-12.417,-12.405,-12.413,-12.428,-12.416,-12.408,-12.408,-12.408,-12.399,-12.414,-12.418,-12.418,-12.415,-12.403,-12.41,-12.416,-12.426,-12.421,-12.413,-12.41,-12.421,-12.418,-12.424,-12.414,-12.41,-12.412,-12.425,-12.421,-12.427,-12.426,-12.411,-12.417,-12.394,-12.417,-12.43,-12.424,-12.428,-12.411,-12.414,-12.421,-12.437,-12.428,-12.413,-12.401,-12.394,-12.398,-12.405,-12.39,-12.367,-12.38,-12.393,-12.358,-12.372,-12.39,-12.364,-12.345,-12.343,-12.351,-12.368,-12.399,-12.416,-12.418,-12.42,-12.427,-12.423,-12.407,-12.4,-12.404,-12.42,-12.411,-12.399,-12.406,-12.414,-12.421,-12.428,-12.465,-12.499,-12.45,-12.275,-12.014,-11.735,-11.477,-11.55,-11.854,-11.931,-12.091,-12.288,-12.438,-12.447,-12.504,-12.527,-12.428,-12.387,-12.317,-12.311,-12.297,-12.278,-12.275,-12.299,-12.281,-12.273,-12.244,-12.233,-12.24,-12.24,-12.231,-12.216,-12.2,-12.187,-12.173,-12.17,-12.175,-12.169,-12.161,-12.149,-12.128,-12.114,-12.102,-12.077,-12.059,-12.053,-12.041,-12.017,-12.006,-11.989,-11.973,-11.933,-11.903,-11.887,-11.872,-11.853,-11.839,-11.783,-11.756,-11.759,-11.728,-11.725,-11.71,-11.699,-11.686,-11.686,-11.695,-11.69,-11.695,-11.715,-11.744,-11.788,-11.825,-11.857,-11.888,-11.943,-11.984,-12.024,-12.047,-12.06,-12.091,-12.109,-12.13,-12.16,-12.174,-12.155,-12.164,-12.173,-12.181,-12.185,-12.193,-12.197,-12.203,-12.199,-12.188,-12.191,-12.196,-12.193,-12.19,-12.186,-12.193,-12.189,-12.189,-12.194,-12.189,-12.183,-12.165,-12.151,-12.16,-12.17,-12.163,-12.164,-12.154,-12.148,-12.15,-12.14,-12.15,-12.141,-12.138,-12.139,-12.129,-12.129,-12.127,-12.123,-12.111,-12.112,-12.112,-12.133,-12.136,-12.134,-12.123,-12.123,-12.128,-12.128,-12.126,-12.122,-12.12,-12.134,-12.133,-12.132,-12.123,-12.118,-12.127,-12.123,-12.132,-12.134,-12.125,-12.129,-12.135,-12.133,-12.127,-12.129,-12.132,-12.129,-12.118,-12.11,-12.116,-12.124,-12.111,-12.112,-12.103,-12.093,-12.099,-12.107,-12.108,-12.102,-12.092,-12.092,-12.088,-12.091,-12.093,-12.085,-12.094,-12.092,-12.081,-12.077,-12.062,-12.062,-12.093,-12.091,-12.071,-12.071,-12.071,-12.059,-12.051,-12.047,-12.039,-12.022,-12.025,-12.024,-12.021,-12.036,-12.028,-12.015,-12.023,-12.023,-12.023,-12.036,-12.067,-12.088,-12.097,-12.089,-12.083,-12.086,-12.091,-12.081,-12.084,-12.083,-12.094,-12.091,-12.096,-12.094,-12.095,-12.105,-12.158,-12.198,-12.167,-12.015,-11.747,-11.498,-11.234,-11.213,-11.523,-11.708,-11.81,-11.977,-12.123,-12.129,-12.174,-12.254,-12.211,-12.149,-12.099,-12.067,-12.054,-12.043,-12.046,-12.044,-12.058,-12.045,-12.046,-12.038,-12.02,-12.026,-12.025,-12.023,-12.016,-12.008,-11.987,-11.983,-11.976,-11.978,-11.981,-11.975,-11.969,-11.953,-11.941,-11.929,-11.905,-11.904,-11.892,-11.875,-11.864,-11.857,-11.835,-11.814,-11.789,-11.774,-11.743,-11.725,-11.71,-11.692,-11.676,-11.657,-11.64,-11.623,-11.608,-11.609,-11.605,-11.607,-11.608,-11.615,-11.639,-11.66,-11.697,-11.739,-11.782,-11.824,-11.874,-11.911,-11.939,-11.985,-12.012,-12.047,-12.078,-12.091,-12.111,-12.122,-12.139,-12.149,-12.146,-12.157,-12.163,-12.157,-12.16,-12.169,-12.166,-12.17,-12.18,-12.177,-12.182,-12.177,-12.167,-12.17,-12.172,-12.181,-12.178,-12.184,-12.178,-12.174,-12.167,-12.175,-12.169,-12.154,-12.163,-12.18,-12.165,-12.161,-12.164,-12.165,-12.153,-12.147,-12.153,-12.152,-12.146,-12.144,-12.139,-12.131,-12.131,-12.138,-12.135,-12.134,-12.137,-12.139,-12.135,-12.142,-12.154,-12.145,-12.151,-12.156,-12.161,-12.153,-12.165,-12.179,-12.185,-12.177,-12.18,-12.184,-12.181,-12.191,-12.194,-12.192,-12.181,-12.185,-12.202,-12.203,-12.199,-12.194,-12.19,-12.191,-12.194,-12.201
