2.2252,2.236,2.2063,2.2262,2.2519,2.2374,2.2214,2.2171,2.2257,2.2326,2.2317,2.2168,2.2044,2.2155,2.2324,2.2246,2.2365,2.2344,2.2255,2.2228,2.2288,2.2348,2.2404,2.2558,2.2785,2.3256,2.298,2.2466,2.2715,2.2859,2.3655,2.4075,2.3651,2.3531,2.3211,2.3257,2.3049,2.3203,2.2978,2.2726,2.2515,2.2693,2.254,2.2494,2.2508,2.2372,2.2615,2.2578,2.247,2.2478,2.2575,2.2379,2.2634,2.3002,2.2709,2.2326,2.2353,2.2157,2.2194,2.3102,2.4995,2.7313,2.9366,2.9885,2.8728,2.4658,1.977,1.6505,1.7796,1.9629,2.0377,2.149,2.2013,2.2508,2.2813,2.3195,2.3195,2.3224,2.2949,2.29,2.2669,2.3123,2.3155,2.2924,2.3014,2.3011,2.3211,2.34,2.3286,2.3448,2.3385,2.3396,2.3607,2.3446,2.3875,2.3937,2.3749,2.3562,2.3406,2.3529,2.368,2.397,2.4017,2.4364,2.4304,2.4138,2.4632,2.4516,2.4478,2.4657,2.5199,2.5286,2.5489,2.5993,2.6064,2.6024,2.6192,2.6296,2.6586,2.6877,2.7035,2.7225,2.7174,2.7346,2.7292,2.7512,2.7717,2.7827,2.7569,2.7332,2.7141,2.7115,2.6601,2.6271,2.5902,2.5428,2.4845,2.4411,2.4317,2.4201,2.3956,2.3372,2.3046,2.2974,2.2829,2.2773,2.2626,2.2627,2.2481,2.2452,2.2536,2.2626,2.2514,2.2409,2.2518,2.2637,2.2721,2.263,2.253,2.2457,2.2536,2.2488,2.2559,2.2472,2.2472,2.2476,2.2515,2.2691,2.2699,2.275,2.2841,2.2895,2.27,2.2518,2.2576,2.2815,2.278,2.2782,2.2728,2.2674,2.2772,2.3063,2.2812,2.2942,2.3135,2.2872,2.2432,2.2291,2.2324,2.2491,2.2586,2.2597,2.2652,2.2532,2.2492,2.2436,2.2489,2.2201,2.2246,2.2333,2.2552,2.2578,2.2228,2.2219,2.2542,2.2298,2.2461,2.2445,2.2474,2.2408,2.2573,2.2829,2.299,2.3077,2.2983,2.3073,2.3068,2.3403,2.3983,2.4052,2.3923,2.3601,2.3261,2.3297,2.3142,2.3144,2.3338,2.2938,2.2885,2.2971,2.312,2.3014,2.3021,2.2855,2.2787,2.2836,2.3198,2.3229,2.307,2.3063,2.3239,2.3224,2.3024,2.3187,2.323,2.3493,2.4819,2.6436,2.8325,3.0146,3.0194,2.816,2.39,1.9912,1.9069,2.0476,2.1155,2.1832,2.2569,2.3342,2.3507,2.3555,2.4008,2.4323,2.39,2.3993,2.4238,2.4114,2.4335,2.4562,2.463,2.4594,2.4711,2.4721,2.4533,2.454,2.4677,2.472,2.4687,2.4649,2.4775,2.4833,2.4797,2.4807,2.4916,2.4901,2.5061,2.5287,2.5123,2.5129,2.5158,2.5247,2.542,2.5803,2.6066,2.6018,2.6466,2.6567,2.6365,2.6668,2.6955,2.7096,2.7303,2.7334,2.7437,2.7741,2.8125,2.813,2.8324,2.851,2.858,2.8652,2.8717,2.8873,2.8934,2.8772,2.867,2.8537,2.8318,2.811,2.8169,2.7723,2.7469,2.7112,2.6931,2.6305,2.5528,2.535,2.538,2.5261,2.5085,2.5034,2.4863,2.4718,2.4505,2.4478,2.4269,2.4333,2.4359,2.4504,2.4494,2.4785,2.4714,2.452,2.4615,2.4383,2.442,2.4317,2.425,2.457,2.4518,2.4687,2.4733,2.481,2.4541,2.4513,2.4803,2.4856,2.4738,2.4627,2.4527,2.4846,2.4719,2.4762,2.4577,2.4804,2.5161,2.4799,2.4623,2.4674,2.479,2.4558,2.4314,2.4281,2.449,2.463,2.4551,2.4588,2.4568,2.4578,2.4297,2.4313,2.4519,2.4578,2.4862,2.5028,2.4827,2.4755,2.5156,2.5392,2.5569,2.5697,2.5487,2.5196,2.5025,2.4711,2.4769,2.4732,2.4595,2.4427,2.4354,2.4301,2.4253,2.4401,2.4347,2.4102,2.4111,2.4217,2.4182,2.4015,2.4087,2.4271,2.4347,2.4001,2.4313,2.4329,2.4146,2.4348,2.568,2.7602,2.9517,3.1429,3.1332,2.8567,2.6134,2.2215,1.9364,2.0337,2.1293,2.2068,2.2958,2.3642,2.3811,2.4226,2.4312,2.429,2.4346,2.4169,2.446,2.4709,2.4638,2.4522,2.4361,2.4721,2.472,2.4508,2.4465,2.4622,2.451,2.4619,2.4664,2.4734,2.4811,2.493,2.4841,2.4887,2.4967,2.4958,2.4888,2.4911,2.4889,2.4988,2.5115,2.5277,2.5299,2.5449,2.5619,2.578,2.5762,2.6145,2.6359,2.648,2.6543,2.667,2.7126,2.7222,2.7387,2.7443,2.7667,2.7727,2.7917,2.8105,2.818,2.8291,2.8377,2.8301,2.8183,2.7992,2.7859,2.7677,2.7349,2.6797,2.6424,2.5878,2.5438,2.5094,2.4627,2.4271,2.4042,2.383,2.3817,2.3656,2.3364,2.3049,2.3061,2.2946,2.2964,2.2876,2.2897,2.2675,2.2612,2.2656,2.2594,2.2496,2.2454,2.2306,2.228,2.2448,2.2574,2.2463,2.2304,2.2196,2.2298,2.2357,2.2638,2.2583,2.2561,2.2475,2.2464,2.2369,2.2479,2.2426,2.2328,2.2689,2.2623,2.2567,2.2427,2.2574,2.2813,2.2843,2.2599,2.259,2.2568,2.2751,2.2714,2.2887,2.2765,2.2602,2.2746,2.3016,2.2865,2.2755,2.2799,2.2947,2.2806,2.2598,2.2624,2.2947,2.2804,2.2712,2.2905,2.2812,2.2724,2.2568,2.2812,2.2932,2.279,2.2551,2.2639,2.2662,2.2716,2.2779,2.2674,2.2727,2.2752,2.2879,2.2938,2.2811,2.2703,2.266,2.2925,2.2839,2.2787,2.2812,2.3117,2.3393,2.3267,2.3159,2.3201,2.3402,2.3496,2.3373,2.3575,2.3868,2.353,2.3413,2.3237,2.3092,2.3293,2.2941,2.2949,2.2919,2.291,2.2803,2.272,2.2752,2.2822,2.2869,2.2706,2.2911,2.2821,2.2651,2.2823,2.2951,2.3037,2.3337,2.3116,2.2628,2.3094,2.4575,2.6311,2.8069,3.0112,3.0415,2.8594,2.4019,1.9122,1.7996,1.9041,2.0604,2.0933,2.1993,2.2711,2.276,2.3128,2.3373,2.3606,2.3629,2.3838,2.3937,2.4065,2.4017,2.4109,2.414,2.4096,2.426,2.4343,2.4519,2.4519,2.4524,2.461,2.4653,2.4599,2.4739,2.4538,2.4448,2.4651,2.4905,2.5071,2.491,2.4941,2.4834,2.5252,2.5585,2.5217,2.5239,2.5531,2.5702,2.5705,2.5906,2.6101,2.6547,2.6411,2.6429,2.6891,2.6872,2.7363,2.7458,2.7716,2.7959,2.8081,2.8251,2.8254,2.8434,2.8389,2.848,2.8622,2.8691,2.8441,2.8345,2.8124,2.7955,2.7749,2.7344,2.683,2.631,2.5786,2.5483,2.5266,2.4718,2.4415,2.4152,2.4016,2.3768,2.352,2.3272,2.3246,2.3082,2.3077,2.3204,2.3168,2.3059,2.2836,2.3083,2.319,2.3046,2.3092,2.3019,2.3188,2.3206,2.294,2.2974,2.2978,2.2797,2.2869,2.276,2.2673,2.2755,2.2695,2.2715,2.2663,2.2781,2.2697,2.2846,2.3031,2.2941,2.2895,2.2865,2.282,2.2887,2.3044,2.2863,2.2953,2.2888,2.2837,2.2893,2.2907,2.2892,2.2949,2.2976,2.3018,2.2855,2.2766,2.2919,2.2995,2.2924,2.2703,2.2708,2.2758,2.2908,2.2917,2.2713,2.2639,2.2755,2.2738,2.2715,2.2731,2.2714,2.2722,2.2822,2.2765,2.271,2.2803,2.2763,2.2626,2.2704,2.2644,2.2721,2.2826,2.2743,2.259,2.2601,2.2673,2.2646,2.256,2.259,2.2716,2.2668,2.2429,2.2518,2.2557,2.2512,2.2499,2.2687,2.255,2.2566,2.2665,2.2502,2.2644,2.2551,2.2554,2.2491,2.238,2.2442,2.2576,2.2792,2.2858,2.2829,2.2774,2.2782,2.2952,2.282,2.2912,2.3158,2.314,2.2798,2.2598,2.2507,2.2531,2.2346,2.2182,2.2271,2.2173,2.2061,2.1996,2.1988,2.1973,2.1938,2.194,2.1923,2.1926,2.1966,2.1966,2.1933,2.1969,2.2036,2.1905,2.1825,2.2343,2.4114,2.5926,2.7533,2.9266,2.8724,2.5825,2.0977,1.6557,1.7059,1.9004,1.9855,2.0681,2.0964,2.1557,2.1849,2.2189,2.2386,2.2474,2.2677,2.2804,2.2577,2.2555,2.2591,2.276,2.2821,2.2754,2.3038,2.3161,2.2986,2.3022,2.3018,2.3264,2.3253,2.3228,2.3358,2.3351,2.3321,2.3294,2.3282,2.3396,2.3396,2.3753,2.3913,2.3692,2.3873,2.4042,2.4232,2.4374,2.4531,2.4794,2.4908,2.4999,2.5314,2.5352,2.5511,2.5959,2.6126,2.6176,2.6498,2.6701,2.7004,2.7192,2.7246,2.7269,2.7552,2.7754,2.77,2.7472,2.7723,2.7747,2.7702,2.7763,2.7487,2.7068,2.6934,2.656,2.6252,2.5959,2.5467,2.514,2.4789,2.45,2.4262,2.4054,2.3939,2.3849,2.3898,2.3622,2.3624,2.3555,2.3346,2.3392,2.3634,2.3502,2.3461,2.3404,2.3334,2.3462,2.3483,2.3933,2.3785,2.3714,2.3717,2.3755,2.3596,2.3704,2.3656,2.378,2.3713,2.3807,2.3921,2.403,2.4072,2.3896,2.4071,2.3963,2.3932,2.4017,2.4059,2.4115,2.4242,2.4231,2.4372,2.43,2.4437,2.4361,2.4494,2.4439,2.4381,2.4428,2.4394,2.4484,2.4387,2.4186,2.4411,2.4373,2.4264,2.4331,2.4398,2.4147,2.4111,2.4304,2.4474,2.4388,2.4412,2.4558,2.4301,2.4355,2.4398,2.4394,2.4382,2.4589,2.4536,2.4531,2.4408,2.4451,2.4677,2.4689,2.4503,2.4934,2.5174,2.522,2.4965,2.4667,2.5028,2.5,2.5105,2.5397,2.5369,2.5364,2.5095,2.4757,2.4852,2.5003,2.4886,2.4709,2.4316,2.4335,2.4553,2.4288,2.4492,2.4675,2.453,2.4523,2.4778,2.4755,2.4553,2.4596,2.4577,2.4343,2.4306,2.4553,2.5406,2.6847,2.8662,3.0502,3.1316,3.1432,2.941,2.508,2.1141,2.0765,2.1997,2.2522,2.3133,2.3814,2.4456,2.4746,2.4647,2.4763,2.489,2.5232,2.5429,2.5276,2.5483,2.5602,2.5589,2.5435,2.5356,2.5469,2.5526,2.5641,2.5584,2.5525,2.5514,2.5686,2.5827,2.5952,2.588,2.5781,2.5717,2.5858,2.5838,2.5832,2.6056,2.6264,2.6341,2.6329,2.637,2.6448,2.6464,2.6447,2.6735,2.6949,2.7134,2.7369,2.7322,2.7368,2.7659,2.8038,2.8361,2.8521,2.8679,2.8555,2.8503,2.8627,2.8917,2.8956,2.9178,2.9251,2.9334,2.9197,2.9029,2.8904,2.8768,2.8459,2.8148,2.7874,2.7707,2.689,2.6193,2.5907,2.5743,2.5296,2.5064,2.5041,2.4774,2.4725,2.4592,2.4626,2.4498,2.4199,2.4008,2.404,2.3977,2.3861,2.3935,2.3929,2.3868,2.3965,2.4059,2.3761,2.3826,2.3911,2.3936,2.3733,2.4037,2.4081,2.3903,2.3938,2.412,2.4225,2.4085,2.394,2.4243,2.4117,2.3974,2.3933,2.4044,2.4317,2.4245,2.4222,2.4147,2.4107,2.4252,2.4248,2.4024,2.4114,2.4123,2.4278,2.4149,2.4023,2.4101,2.4193,2.4192,2.4253,2.4104,2.3718,2.3959,2.4274,2.398,2.4041,2.4213,2.4078,2.3874,2.3738,2.3779,2.3902,2.3996,2.4298,2.4415,2.4542,2.4419,2.4687,2.4637,2.4888,2.496,2.5203,2.4995,2.478,2.4713,2.4502,2.4484,2.4324,2.4161,2.4097,2.3987,2.4064,2.3938,2.3937,2.3923,2.4048,2.4055,2.3785,2.3809,2.3878,2.3985,2.408,2.4006,2.3846,2.3993,2.3837,2.3928,2.4887,2.645,2.8627,3.0478,3.1576,3.0265,2.8453,2.403,1.9489,1.9129,2.0599,2.1651,2.2283,2.3221,2.3639,2.4049,2.4213,2.4415,2.4424,2.4462,2.4418,2.4603,2.4567,2.4363,2.43,2.4622,2.4617,2.4641,2.474,2.4655,2.4585,2.4637,2.4578,2.4722,2.4642,2.4667,2.4892,2.4909,2.4822,2.5017,2.5063,2.508,2.4899,2.5154,2.536,2.5284,2.5423,2.5594,2.5538,2.5768,2.5867,2.5808,2.5903,2.5951,2.626,2.652,2.6796,2.6939,2.6889,2.7047,2.712,2.7316,2.7542,2.7727,2.774,2.7704,2.7754,2.7866,2.7815,2.7719,2.7518,2.751,2.6943,2.6653,2.629,2.5964,2.5463,2.4916,2.461,2.4124,2.3795,2.3427,2.3155,2.2866,2.2611,2.2545,2.2362,2.2216,2.2374,2.2152,2.1903,2.2088,2.2087,2.1861,2.1884,2.1859,2.1756,2.1718,2.1789,2.1825,2.1805,2.1782,2.1952,2.1963,2.2011,2.1979,2.1958,2.2046,2.218,2.2287,2.2376,2.2073,2.2192,2.2136,2.2271,2.2237,2.2398,2.24,2.2588,2.2455,2.26,2.2538,2.2509,2.2624,2.2658,2.2695,2.2627,2.2609,2.2552,2.2685,2.2737,2.2612,2.2632,2.2734,2.2968,2.265,2.2457,2.2389,2.2502,2.2609,2.2594,2.263,2.2486,2.2595,2.2518,2.2643,2.2587,2.2606,2.2676,2.2835,2.2697,2.2744,2.2877,2.3002,2.3302,2.3556,2.3486,2.3415,2.3565,2.398,2.4123,2.4047,2.3945,2.3778,2.357,2.3444,2.3396,2.3391,2.3249,2.3227,2.3246,2.3215,2.3047,2.3204,2.3213,2.3098,2.3105,2.3043,2.3068,2.3473,2.3253,2.3153,2.3294,2.3341,2.2898,2.2865,2.3088,2.4138,2.5881,2.6884,2.8862,3.054,3.0402,2.792,2.2926,1.8135,1.76,1.951,2.0543,2.1517,2.2577,2.3088,2.3389,2.3683,2.3655,2.3556,2.373,2.3762,2.3931,2.3944,2.3915,2.3873,2.3946,2.3957,2.4103,2.4271,2.4196,2.4305,2.4282,2.4296,2.4369,2.4348,2.446,2.457,2.4433,2.4533,2.47,2.4835,2.498,2.4944,2.4847,2.4933,2.5271,2.5321,2.529,2.5468,2.5638,2.5841,2.6101,2.6103,2.6324,2.6478,2.6664,2.7088,2.738,2.7496,2.7595,2.7975,2.8198,2.8418,2.8441,2.8595,2.8755,2.8858,2.8708,2.8899,2.9058,2.8824,2.8796,2.858,2.825,2.7774,2.7264,2.6829,2.6532,2.6195,2.5824,2.533,2.4876,2.4636,2.4455,2.4422,2.4382,2.4137,2.4123,2.3924,2.3848,2.377,2.3713,2.3709,2.3677,2.3769,2.3844,2.3876,2.3878,2.3762,2.3714,2.3711,2.3934,2.4116,2.4174,2.3873,2.3629,2.3613,2.3769,2.3855,2.3853,2.388,2.3931,2.402,2.4072,2.4159,2.4186,2.4144,2.4241,2.4283,2.4483,2.446,2.4415,2.4491,2.4452,2.4442,2.451,2.4424,2.4442,2.4415,2.4415,2.4671,2.4567,2.4354,2.4319,2.4633,2.4378,2.4412,2.4328,2.4475,2.4249,2.4261,2.4316,2.4245,2.4267,2.4258,2.4231,2.435,2.4196,2.4102,2.4219,2.4126,2.4263,2.439,2.4318,2.4395,2.4448,2.4263,2.4126,2.4355,2.4432,2.4302,2.4283,2.4253,2.4534,2.4328,2.4354,2.4335,2.4312,2.4266,2.4309,2.4555,2.4589,2.4459,2.4596,2.494,2.4891,2.4905,2.4902,2.511,2.5422,2.5532,2.5739,2.5817,2.5523,2.5309,2.5183,2.5102,2.5131,2.5007,2.4733,2.4537,2.4636,2.4641,2.4634,2.481,2.4892,2.4638,2.4434,2.4437,2.4679,2.4603,2.4658,2.502,2.487,2.4705,2.4618,2.4646,2.521,2.6818,2.855,3.0319,3.1945,3.1533,2.8966,2.4659,2.0233,2.0274,2.1966,2.2943,2.3781,2.4501,2.5036,2.5311,2.5478,2.5387,2.5586,2.5617,2.585,2.5855,2.5849,2.5916,2.6032,2.6191,2.612,2.6004,2.6104,2.5961,2.6218,2.6202,2.6248,2.6439,2.6678,2.6543,2.6264,2.6347,2.6773,2.681,2.6714,2.6767,2.6769,2.7008,2.7134,2.7112,2.7272,2.7435,2.7507,2.7696,2.7856,2.78,2.7849,2.8087,2.8233,2.8389,2.8596,2.8874,2.9037,2.9222,2.9328,2.9441,2.9499,2.9548,2.9747,2.9986,3.0178,3.0083,3.0098,3.0034,2.9938,2.985,2.9807,2.9638,2.9561,2.9283,2.8779,2.8103,2.7937,2.7539,2.7277,2.696,2.653,2.6273,2.6238,2.6249,2.5793,2.556,2.5262,2.5231,2.5161,2.5282,2.5313,2.5335,2.5063,2.5014,2.4929,2.5046,2.5109,2.5232,2.527,2.5459,2.5115,2.5067,2.4991,2.4909,2.5075,2.5231,2.5172,2.5255,2.5441,2.5471,2.5464,2.5525,2.5557,2.5517,2.5555,2.5344,2.5372,2.5315,2.5481,2.5492,2.5486,2.5528,2.557,2.5285,2.5403,2.5549,2.5519,2.5424,2.5557,2.5619,2.5479,2.5343,2.5368,2.549,2.5588,2.5488,2.5423,2.5685,2.555,2.5474,2.5512,2.5576,2.5844,2.5916,2.5964,2.621,2.5996,2.5941,2.611,2.6333,2.6503,2.6458,2.6083,2.5992,2.5842,2.5673,2.5554,2.5376,2.5389,2.542,2.5409,2.5076,2.4996,2.4948,2.4971,2.5039,2.4933,2.4904,2.5051,2.4918,2.5001,2.4899,2.4828,2.4883,2.4789,2.4651,2.4822,2.5747,2.7341,2.9251,3.0209,3.1761,3.1447,2.8511,2.4123,1.9973,2.0146,2.1391,2.2001,2.2566,2.3327,2.3776,2.3943,2.4086,2.4187,2.4303,2.4319,2.4575,2.4433,2.4292,2.4327,2.412,2.4185,2.4321,2.4237,2.4179,2.4359,2.4252,2.4416,2.4321,2.4167,2.421,2.4141,2.4113,2.4256,2.4318,2.431,2.4105,2.4104,2.4171,2.4151,2.4238,2.4464,2.4485,2.4371,2.4629,2.4693,2.4915,2.5037,2.4968,2.4876,2.5133,2.52,2.5649,2.584,2.5986,2.5981,2.5879,2.613,2.6118,2.616,2.6373,2.6357,2.6227,2.6027,2.6039,2.5947,2.5797,2.5556,2.5365,2.4771,2.437,2.3977,2.3637,2.334,2.3011,2.2673,2.2383,2.2177,2.1947,2.1736,2.1783,2.1645,2.1614,2.1699,2.1698,2.1694,2.1741,2.1733,2.1646,2.1717,2.1771,2.1776,2.1824,2.1848,2.1744,2.206,2.2168,2.214,2.2104,2.2212,2.208,2.2162,2.2465,2.235,2.2494,2.2644,2.2722,2.2575,2.2823,2.3113,2.2936,2.3111,2.3057,2.3225,2.3373,2.3445,2.3436,2.3431,2.3714,2.3872,2.3855,2.3804,2.3824,2.3792,2.3692,2.3971,2.3964,2.359,2.3825,2.3913,2.4052,2.4033,2.3965,2.4191,2.4139,2.4232,2.4206,2.4303,2.4289,2.4273,2.4409,2.4393,2.4448,2.4436,2.4428,2.4567,2.481,2.4925,2.4946,2.5137,2.5265,2.5199,2.5039,2.5408,2.5848,2.587,2.5496,2.5303,2.5203,2.5151,2.5032,2.4817,2.4852,2.4708,2.4736,2.4482,2.4518,2.4519,2.4382,2.4495,2.4439,2.413,2.4115,2.4473,2.4492,2.4132,2.3989,2.4097,2.4198,2.4166,2.4068,2.4755,2.5497,2.7243,2.8917,3.0528,3.0606,2.8585,2.4177,1.9744,1.7995,1.9485,2.0921,2.1773,2.2784,2.3061,2.3675,2.389,2.3941,2.3752,2.3911,2.3934,2.4162,2.4152,2.3986,2.3896,2.3942,2.4097,2.4175,2.4445,2.4506,2.4178,2.415,2.4171,2.4286,2.4397,2.432,2.4628,2.465,2.4582,2.4679,2.4739,2.4774,2.4808,2.4987,2.5015,2.5236,2.5207,2.5394,2.5611,2.5913,2.5959,2.5993,2.6076,2.6226,2.6484,2.6702,2.7031,2.7229,2.7531,2.7666,2.7535,2.7819,2.7969,2.8124,2.8199,2.837,2.8423,2.8565,2.8743,2.8584,2.863,2.8549,2.8197,2.7847,2.7605,2.7264,2.6809,2.6354,2.5956,2.5388,2.5096,2.4855,2.4733,2.4527,2.4229,2.4193,2.4082,2.3879,2.3764,2.3699,2.3789,2.3888,2.353,2.3402,2.3533,2.338,2.3546,2.3587,2.3647,2.3684,2.3712,2.359,2.3557,2.3665,2.3543,2.389,2.3726,2.3695,2.3713,2.3854,2.3909,2.3856,2.3926,2.4082,2.4056,2.4052,2.4005,2.4074,2.4169,2.4363,2.4291,2.4106,2.4224,2.4244,2.4296,2.4214,2.4297,2.4219,2.4253,2.4351,2.4353,2.419,2.4057,2.4185,2.4336,2.4212,2.429,2.4088,2.4304,2.4206,2.4409,2.4232,2.4065,2.4142,2.4134,2.4204,2.4233,2.4315,2.4226,2.4223,2.4184,2.4277,2.4277,2.4274,2.4402,2.4415,2.4393,2.4377,2.4178,2.4306,2.4357,2.4437,2.4467,2.4401,2.4247,2.4353,2.4385,2.4496,2.4451,2.4391,2.4561,2.4577,2.4425,2.4659,2.486,2.5021,2.5136,2.5017,2.5087,2.529,2.5766,2.588,2.5782,2.55,2.5268,2.5049,2.4955,2.4991,2.494,2.4989,2.4796,2.4524,2.454,2.4574,2.4597,2.4671,2.472,2.451,2.4528,2.4623,2.4665,2.4748,2.4611,2.4778,2.4847,2.4777,2.462,2.478,2.5688,2.7022,2.8888,3.0778,3.1697,3.051,2.7056,2.2175,1.8543,1.9995,2.1882,2.2647,2.3381,2.4273,2.4604,2.4813,2.5065,2.5012,2.5062,2.5112,2.5326,2.5291,2.545,2.5421,2.5563,2.5468,2.5404,2.5353,2.5608,2.5704,2.5949,2.5927,2.5736,2.5952,2.6048,2.5927,2.6125,2.6045,2.618,2.6195,2.6095,2.6219,2.6497,2.6631,2.6814,2.6891,2.7087,2.7144,2.7256,2.755,2.7663,2.7709,2.7747,2.7964,2.8193,2.8307,2.8669,2.8974,2.9122,2.91,2.9194,2.9306,2.9638,2.9666,2.9686,2.9842,2.9791,3.0052,3.0162,3.013,3.0008,2.9893,2.9903,2.9471,2.9064,2.8786,2.8479,2.8286,2.8103,2.7695,2.7366,2.6812,2.6491,2.6184,2.613,2.5949,2.5696,2.5589,2.5585,2.563,2.5363,2.5389,2.5345,2.5437,2.5397,2.5491,2.5178,2.5296,2.5313,2.5437,2.5395,2.5397,2.548,2.536,2.5364,2.5532,2.5539,2.5863,2.5745,2.5613,2.5629,2.5621,2.5816,2.5797,2.5855,2.5911,2.6063,2.6057,2.5937,2.6059,2.6249,2.6291,2.6158,2.6252,2.6163,2.6365,2.635,2.6418,2.6482,2.6555,2.6386,2.632,2.6221,2.6274,2.6184,2.6142,2.635,2.6316,2.6274,2.6328,2.6371,2.623,2.6305,2.6242,2.6174,2.6044,2.6042,2.6209,2.6305,2.6336,2.6263,2.6088,2.6128,2.6314,2.6347,2.6205,2.6304,2.6276,2.6253,2.6265,2.6192,2.6385,2.6521,2.6578,2.6549,2.6603,2.6685,2.6822,2.7014,2.7187,2.7353,2.7117,2.696,2.6748,2.654,2.6624,2.6554,2.6491,2.6322,2.6399,2.6448,2.6299,2.6191,2.6091,2.6086,2.6263,2.6321,2.6282,2.6469,2.6428,2.6277,2.6211,2.6377,2.6327,2.6503,2.6864,2.8319,3.0138,3.2096,3.3217,3.3098,3.1459,2.7166,2.3559,2.2122,2.349,2.4257,2.4685,2.5356,2.5877,2.6412,2.6525,2.6803,2.6813,2.6889,2.6801,2.7098,2.7054,2.6901,2.6805,2.6941,2.6909,2.6899,2.6778,2.7048,2.7084,2.7337,2.7134,2.711,2.694,2.691,2.7021,2.7139,2.7232,2.7293,2.7254,2.7338,2.7425,2.7596,2.7492,2.7519,2.7741,2.7851,2.7911,2.7872,2.8209,2.8173,2.8307,2.8519,2.8519,2.8743,2.8927,2.9313,2.9543,2.9397,2.9646,2.9738,2.9682,2.988,2.9984,3.003,3.0154,3.0142,3.0213,3.0336,3.0232,3.0189,2.997,2.9701,2.9327,2.8936,2.8533,2.8053,2.7534,2.7238,2.7106,2.6821,2.6314,2.594,2.573,2.5465,2.5515,2.547,2.5223,2.5122,2.5117,2.5061,2.4951,2.4821,2.4901,2.4811,2.4848,2.4785,2.4754,2.485,2.479,2.4616,2.4782,2.4463,2.4678,2.4781,2.4647,2.4526,2.4811,2.4798,2.4976,2.4897,2.4875,2.4952,2.5068,2.5019,2.5108,2.5007,2.5051,2.5031,2.5097,2.5025,2.5009,2.5159,2.5194,2.5184,2.5007,2.4932,2.4878,2.5097,2.4915,2.4742,2.4934,2.4869,2.485,2.4837,2.4677,2.4774,2.4784,2.4819,2.4649,2.4787,2.4719,2.4749,2.4636,2.479,2.4681,2.4706,2.4769,2.4963,2.4985,2.5098,2.515,2.5168,2.4994,2.5098,2.5598,2.5748,2.5856,2.5424,2.5176,2.5085,2.4935,2.5,2.4882,2.4677,2.448,2.4439,2.4438,2.4474,2.4437,2.4408,2.4467,2.4317,2.4176,2.4434,2.4387,2.447,2.4795,2.4431,2.4217,2.4186,2.4188,2.4335,2.5034,2.6563,2.8368,3.0232,3.1273,3.1335,2.9462,2.4875,2.0517,1.8898,2.0445,2.1791,2.2441,2.3361,2.4008,2.4301,2.4523,2.4699,2.4713,2.4976,2.4847,2.4868,2.5008,2.5076,2.5107,2.5116,2.4904,2.4981,2.5113,2.5148,2.5038,2.494,2.5254,2.5269,2.5318,2.536,2.5298,2.5162,2.5138,2.5283,2.5361,2.5463,2.5651,2.5692,2.5879,2.5954,2.6161,2.608,2.5972,2.6228,2.6439,2.6497,2.6851,2.6822,2.6993,2.7294,2.7553,2.7772,2.8134,2.8202,2.8264,2.8421,2.8512,2.8681,2.8778,2.8872,2.8967,2.9089,2.9293,2.9062,2.8831,2.8769,2.8542,2.8376,2.8019,2.7569,2.6939,2.6714,2.6472,2.6162,2.5588,2.5153,2.4707,2.4548,2.4461,2.4476,2.434,2.4228,2.3934,2.3981,2.3944,2.4008,2.3957,2.3962,2.366,2.3505,2.3656,2.3883,2.3715,2.3602,2.359,2.3665,2.37,2.3704,2.3666,2.3714,2.3693,2.346,2.3763,2.3692,2.3769,2.3788,2.3622,2.3844,2.3906,2.3836,2.3892,2.3758,2.376,2.3623,2.38,2.3761,2.3697,2.3967,2.3982,2.3903,2.3717,2.3834,2.3877,2.3979,2.3927,2.3706,2.377,2.3857,2.3697,2.3582,2.3555,2.3598,2.3713,2.3647,2.3433,2.3417,2.3556,2.344,2.3446,2.3338,2.3345,2.3384,2.3157,2.3248,2.3302,2.3025,2.3037,2.3069,2.2979,2.3034,2.2997,2.2738,2.285,2.2745,2.283,2.2977,2.2933,2.282,2.2658,2.2934,2.2946,2.3011,2.3194,2.3199,2.3402,2.3308,2.3666,2.3734,2.369,2.3953,2.3992,2.3782,2.3525,2.3437,2.3421,2.3362,2.3216,2.2879,2.2745,2.2733,2.272,2.2854,2.2843,2.2678,2.2644,2.271,2.2854,2.2747,2.2761,2.2886,2.2932,2.2936,2.2809,2.2684,2.2697,2.2933,2.3963,2.5854,2.7933,2.9941,3.0333,2.8809,2.7022,2.2377,1.7848,1.8254,1.9863,2.0894,2.172,2.2659,2.3118,2.3465,2.3547,2.3418,2.3591,2.3686,2.3548,2.3639,2.3658,2.377,2.3771,2.3982,2.4051,2.4125,2.4251,2.4232,2.4112,2.4086,2.4076,2.4157,2.4256,2.4361,2.4266,2.4079,2.4214,2.4402,2.4639,2.4683,2.4782,2.4645,2.47,2.4816,2.4923,2.5058,2.5125,2.5383,2.5523,2.5541,2.5844,2.5921,2.6189,2.6302,2.6494,2.6811,2.6933,2.7407,2.7298,2.7371,2.7635,2.792,2.806,2.8152,2.7956,2.7847,2.8071,2.8102,2.8049,2.7929,2.7627,2.748,2.7306,2.6817,2.6254,2.5872,2.5397,2.4997,2.4593,2.433,2.4053,2.3766,2.3706,2.3461,2.3302,2.3233,2.3329,2.324,2.3084,2.2941,2.2951,2.2809,2.3061,2.3066,2.2892,2.2905,2.2971,2.2751,2.2865,2.3019,2.3063,2.3066,2.313,2.3013,2.296,2.3012,2.3039,2.3143,2.3143,2.3056,2.3181,2.3032,2.3053,2.298,2.3168,2.3139,2.3207,2.3143,2.3103,2.3298,2.328,2.3178,2.312,2.3105,2.3229,2.3227,2.3147,2.3247,2.3198,2.334,2.3012,2.304,2.2882,2.2705,2.2946,2.3036,2.2988,2.2907,2.2785,2.2691,2.268,2.2777,2.2709,2.274,2.2725,2.2648,2.2627,2.2723,2.2723,2.2622,2.2627,2.2628,2.2611,2.2777,2.2667,2.2658,2.2643,2.2681,2.2806,2.2726,2.2613,2.2787,2.2769,2.2773,2.276,2.286,2.2755,2.2707,2.2558,2.2678,2.2735,2.2739,2.272,2.2895,2.3106,2.334,2.3213,2.312,2.3255,2.3441,2.3931,2.3934,2.4013,2.3859,2.3632,2.3442,2.3103,2.3028,2.3089,2.2871,2.2818,2.2782,2.257,2.2423,2.262,2.272,2.271,2.2558,2.2539,2.2669,2.2763,2.2887,2.2662,2.2573,2.2527,2.2451,2.2514,2.2563,2.3448,2.4984,2.7159,2.8969,2.9968,2.9051,2.5665,2.0636,1.683,1.7998,1.9715,2.0488,2.1704,2.2142,2.2512,2.2796,2.3049,2.3069,2.3191,2.3041,2.3086,2.341,2.3434,2.3166,2.3298,2.3472,2.3367,2.3371,2.35,2.3496,2.3801,2.3947,2.3776,2.3867,2.3878,2.3807,2.403,2.399,2.3892,2.417,2.4214,2.4186,2.4207,2.4362,2.4672,2.4759,2.4893,2.4999,2.5045,2.54,2.5237,2.5434,2.5844,2.6036,2.6042,2.6153,2.6313,2.6552,2.6933,2.703,2.7143,2.7169,2.7608,2.7793,2.7771,2.7658,2.7579,2.7692,2.7851,2.7802,2.7837,2.7832,2.7651,2.734,2.698,2.6578,2.6172,2.5696,2.5407,2.4946,2.4575,2.4433,2.4089,2.3822,2.3691,2.3403,2.3225,2.3239,2.3108,2.3292,2.33,2.284,2.2735,2.2846,2.2957,2.2821,2.2729,2.2942,2.2918,2.307,2.2949,2.2996,2.2875,2.2783,2.2916,2.297,2.3024,2.3021,2.2717,2.2777,2.2982,2.3098,2.3029,2.307,2.3193,2.3268,2.3113,2.3117,2.3151,2.322,2.309,2.3123,2.3201,2.3308,2.3095,2.3386,2.3371,2.3369,2.3384,2.3443,2.3357,2.3213,2.3322,2.3266,2.3258,2.338,2.3393,2.335,2.3449,2.3325,2.3357,2.3133,2.322,2.3286,2.3324,2.3291,2.3313,2.3489,2.3488,2.3275,2.3403,2.3352,2.3266,2.3373,2.3618,2.3748,2.3609,2.3298,2.3315,2.3676,2.373,2.3891,2.4131,2.4102,2.3985,2.4071,2.4546,2.4616,2.4616,2.4416,2.4213,2.4098,2.3931,2.391,2.3845,2.3836,2.3941,2.3751,2.3599,2.367,2.3665,2.3438,2.3402,2.3578,2.3392,2.3538,2.3729,2.3777,2.3714,2.3665,2.3742,2.3691,2.3645,2.395,2.5253,2.7115,2.8936,3.0561,3.0753,2.8859,2.4506,2.0534,1.9551,2.0235,2.1487,2.2113,2.2641,2.3446,2.3967,2.4304,2.4409,2.4422,2.4471,2.4471,2.4475,2.4732,2.4819,2.473,2.4813,2.4884,2.4913,2.4924,2.4953,2.4983,2.4748,2.4954,2.5028,2.4978,2.5043,2.5145,2.5185,2.5142,2.5287,2.5349,2.5468,2.5528,2.5771,2.5811,2.591,2.5917,2.6065,2.6086,2.6363,2.6395,2.6349,2.662,2.6871,2.6899,2.7116,2.7355,2.7629,2.7819,2.8004,2.8217,2.8366,2.8538,2.8326,2.8547,2.864,2.8826,2.8979,2.892,2.9111,2.906,2.8929,2.8822,2.8675,2.8431,2.8052,2.7601,2.7299,2.6752,2.6385,2.6173,2.5823,2.5683,2.5368,2.5043,2.4898,2.4713,2.4533,2.4544,2.4452,2.4369,2.4346,2.4189,2.421,2.4247,2.4145,2.4104,2.4133,2.425,2.4326,2.4284,2.4268,2.4306,2.4226,2.4127,2.4297,2.4523,2.4575,2.4696,2.4449,2.4638,2.4773,2.4709,2.4777,2.4871,2.491,2.5258,2.5221,2.5199,2.5317,2.5343,2.5417,2.5517,2.5645,2.5639,2.574,2.5711,2.57,2.572,2.5808,2.5762,2.5987,2.6073,2.6013,2.5875,2.5816,2.5994,2.6163,2.6271,2.6396,2.6561,2.6655,2.6487,2.6509,2.6683,2.6896,2.7255,2.7121,2.6795,2.6518,2.6497,2.6551,2.6389,2.622,2.6153,2.6063,2.5942,2.6009,2.5962,2.5896,2.5756,2.5744,2.5829,2.5978,2.5834,2.5653,2.5802,2.5751,2.5707,2.5684,2.575,2.5511,2.5633,2.5887,2.7234,2.8981,3.0933,3.2805,3.2749,3.0551,2.6071,2.1978,2.1306,2.2606,2.3129,2.394,2.4619,2.5127,2.5657,2.5848,2.5976,2.5852,2.6023,2.6104,2.6001,2.5916,2.5912,2.6029,2.602,2.603,2.6149,2.6159,2.5995,2.6005,2.6075,2.6097,2.6186,2.6124,2.6079,2.6173,2.6219,2.6084,2.6067,2.6158,2.6239,2.6435,2.636,2.6476,2.6703,2.6778,2.6717,2.6907,2.7306,2.7102,2.7247,2.7563,2.7545,2.7761,2.7833,2.8068,2.8242,2.8595,2.8781,2.8883,2.8826,2.9066,2.9184,2.929,2.9257,2.9163,2.9268,2.9421,2.9413,2.9194,2.9111,2.885,2.8478,2.8029,2.7591,2.7218,2.6709,2.6267,2.5875,2.5491,2.5293,2.5007,2.4753,2.4569,2.4432,2.4303,2.4309,2.4136,2.4008,2.3966,2.3828,2.3813,2.3808,2.3774,2.3896,2.3921,2.3785,2.3784,2.3819,2.3829,2.3833,2.3769,2.3699,2.3843,2.3936,2.3713,2.366,2.3891,2.3934,2.3904,2.3815,2.3892,2.4015,2.4018,2.4053,2.4175,2.4128,2.4094,2.4073,2.4086,2.4249,2.4127,2.4196,2.4111,2.411,2.4209,2.4312,2.4366,2.4035,2.3883,2.3908,2.3842,2.3941,2.3736,2.3913,2.387,2.392,2.3858,2.3971,2.4134,2.438,2.4403,2.4352,2.4263,2.4119,2.4245,2.463,2.4595,2.4678,2.4554,2.4342,2.4072,2.3789,2.3628,2.3581,2.3449,2.3299,2.3378,2.3343,2.3341,2.3155,2.3115,2.3169,2.3187,2.3294,2.3227,2.3155,2.318,2.324,2.3221,2.3092,2.3097,2.2989,2.3261,2.4102,2.5912,2.7804,2.9616,3.0746,2.9626,2.5833,2.1127,1.8668,1.7997,1.9433,2.0783,2.1611,2.2612,2.3047,2.3332,2.3463,2.3734,2.3704,2.3862,2.4009,2.3982,2.3904,2.3981,2.3953,2.414,2.4098,2.4248,2.4228,2.4186,2.4165,2.4189,2.4223,2.4336,2.443,2.4441,2.4392,2.4381,2.4354,2.4474,2.4623,2.4789,2.4905,2.4935,2.4895,2.5023,2.5172,2.5393,2.5414,2.5592,2.5734,2.5917,2.6025,2.6288,2.6389,2.6536,2.6689,2.706,2.7106,2.7287,2.7426,2.7803,2.785,2.8037,2.8202,2.8107,2.8189,2.8238,2.8256,2.8203,2.8076,2.7893,2.7654,2.7427,2.688,2.6416,2.5967,2.5731,2.5377,2.4586,2.4212,2.3956,2.3761,2.3636,2.3365,2.3172,2.3101,2.2942,2.2951,2.2937,2.2913,2.3108,2.2794,2.2527,2.2597,2.2625,2.2687,2.2702,2.2773,2.2511,2.2673,2.2629,2.2763,2.2718,2.2967,2.2767,2.2807,2.2795,2.2956,2.3137,2.3152,2.2924,2.2831,2.3059,2.3075,2.3039,2.3045,2.3092,2.3452,2.3395,2.3014,2.3163,2.3136,2.3036,2.3211,2.3141,2.3194,2.3299,2.3183,2.3088,2.3191,2.3166,2.3255,2.3116,2.3228,2.3311,2.3202,2.3159,2.3137,2.3133,2.3258,2.3235,2.3184,2.3178,2.3039,2.3058,2.329,2.3259,2.3172,2.3208,2.3214,2.3442,2.3558,2.3636,2.3593,2.3607,2.3681,2.3978,2.4352,2.4425,2.4403,2.4052,2.387,2.3681,2.374,2.3648,2.3612,2.3551,2.3212,2.3055,2.3051,2.3012,2.3098,2.3165,2.3156,2.3022,2.3037,2.319,2.33,2.3329,2.3334,2.3303,2.3343,2.3231,2.3227,2.3378,2.4486,2.6324,2.8482,3.0719,3.1061,3.0536,2.7387,2.2399,1.7865,1.8253,2.0189,2.1185,2.2178,2.3055,2.35,2.3416,2.3857,2.3877,2.4001,2.3996,2.403,2.4036,2.4098,2.4157,2.4243,2.4169,2.4235,2.4143,2.4415,2.4311,2.4358,2.4404,2.4322,2.4283,2.4347,2.4519,2.4727,2.4686,2.4705,2.477,2.492,2.524,2.5197,2.5164,2.5139,2.52,2.5331,2.5529,2.5623,2.5862,2.5922,2.6023,2.62,2.6376,2.6763,2.6839,2.7064,2.7194,2.7502,2.7705,2.7799,2.7977,2.8046,2.8317,2.8358,2.8344,2.8436,2.8589,2.8548,2.8501,2.8516,2.8398,2.7934,2.7641,2.7387,2.6823,2.6292,2.5884,2.5392,2.5077,2.4632,2.4337,2.4115,2.3952,2.3826,2.3596,2.3499,2.3435,2.3253,2.3329,2.3206,2.3138,2.3147,2.3065,2.3081,2.3068,2.3006,2.3035,2.3178,2.3167,2.3101,2.3042,2.2974,2.3146,2.3256,2.3148,2.3069,2.3203,2.3205,2.3218,2.3217,2.3241,2.3289,2.3417,2.3417,2.3397,2.3425,2.3511,2.351,2.3564,2.3572,2.3566,2.3644,2.3545,2.3528,2.3649,2.3587,2.3616,2.3891,2.3615,2.3448,2.342,2.3493,2.3623,2.358,2.3472,2.3388,2.3467,2.3383,2.3507,2.3603,2.3456,2.3379,2.3393,2.3408,2.3491,2.3453,2.343,2.345,2.3559,2.3514,2.3422,2.3446,2.3425,2.3444,2.3498,2.3334,2.3392,2.342,2.3887,2.4031,2.4126,2.4014,2.383,2.3828,2.4197,2.4628,2.4787,2.4814,2.4685,2.4311,2.4051,2.4087,2.4017,2.3914,2.3759,2.366,2.3527,2.3636,2.3674,2.367,2.361,2.3567,2.3703,2.379,2.355,2.3528,2.3577,2.3557,2.364,2.3633,2.3535,2.337,2.3714,2.5029,2.6742,2.8741,3.0833,3.093,2.8736,2.4044,1.9076,1.82,1.9727,2.1014,2.1833,2.272,2.324,2.3451,2.3685,2.3903,2.3792,2.3854,2.3849,2.3996,2.4036,2.4034,2.3972,2.3957,2.4029,2.4055,2.4093,2.4166,2.4084,2.4148,2.4099,2.4186,2.417,2.4114,2.4007,2.419,2.4452,2.4367,2.4295,2.4379,2.4765,2.4871,2.4793,2.4901,2.4964,2.5023,2.5233,2.5511,2.5759,2.5939,2.6044,2.628,2.6449,2.6617,2.6655,2.6905,2.7127,2.7378,2.7574,2.7782,2.7801,2.8076,2.8121,2.8305,2.8206,2.8273,2.831,2.8397,2.8424,2.8239,2.8143,2.8088,2.7691,2.7028,2.6859,2.6373,2.6041,2.5774,2.558,2.4966,2.4676,2.4355,2.4151,2.3912,2.3835,2.3737,2.3624,2.3691,2.3626,2.3547,2.348,2.3462,2.3517,2.3507,2.3546,2.3547,2.3484,2.3489,2.351,2.3684,2.3787,2.3671,2.3504,2.357,2.3447,2.3652,2.3797,2.3707,2.3556,2.3682,2.3669,2.3736,2.3698,2.3823,2.3846,2.3829,2.3972,2.3962,2.4027,2.4044,2.4028,2.391,2.3973,2.4071,2.41,2.3916,2.3903,2.3945,2.3898,2.3865,2.3915,2.4126,2.3956,2.366,2.3781,2.3753,2.3925,2.3851,2.401,2.388,2.3919,2.3837,2.3849,2.3946,2.3881,2.4055,2.416,2.4151,2.4429,2.4332,2.4206,2.4229,2.4523,2.5012,2.5235,2.4983,2.4785,2.4679,2.4532,2.438,2.4129,2.4053,2.4054,2.3867,2.369,2.3922,2.3856,2.3891,2.3787,2.3747,2.3861,2.3957,2.3957,2.4066,2.4017,2.3984,2.4009,2.3977,2.4074,2.3892,2.4002,2.4553,2.6268,2.8004,2.9696,3.1086,3.0712,2.7355,2.3005,1.9428,2.0217,2.1601,2.2086,2.2699,2.3288,2.3715,2.3674,2.414,2.4329,2.442,2.4433,2.4449,2.4257,2.4551,2.4539,2.4614,2.4542,2.4579,2.4691,2.4852,2.4712,2.4831,2.4931,2.49,2.4806,2.5033,2.4989,2.5041,2.5007,2.5283,2.543,2.5358,2.5411,2.5372,2.5518,2.5783,2.5881,2.6061,2.6065,2.624,2.6351,2.6401,2.6579,2.6772,2.6926,2.7201,2.754,2.7524,2.7503,2.7608,2.7925,2.8271,2.8366,2.8487,2.8524,2.854,2.8705,2.8846,2.8911,2.8854,2.895,2.8782,2.852,2.8392,2.8099,2.7909,2.7688,2.733,2.6731,2.6208,2.5827,2.5587,2.5422,2.5214,2.4925,2.4608,2.4528,2.4418,2.4317,2.4261,2.428,2.4078,2.4171,2.4007,2.3948,2.4011,2.3906,2.3842,2.3856,2.3965,2.4019,2.4062,2.3959,2.3967,2.3997,2.4042,2.4114,2.4291,2.4335,2.4337,2.4271,2.4337,2.4351,2.4269,2.436,2.4471,2.4578,2.4542,2.4519,2.4395,2.4439,2.4428,2.4393,2.4226,2.4176,2.4287,2.4302,2.4259,2.431,2.4383,2.4491,2.4581,2.4682,2.4629,2.4608,2.4546,2.4642,2.5082,2.5255,2.5288,2.528,2.5125,2.4824,2.4706,2.4719,2.4441,2.4273,2.4218,2.4171,2.4216,2.4084,2.3994,2.3964,2.3887,2.3952,2.3985,2.3969,2.404,2.385,2.3835,2.3836,2.3964,2.3989,2.3928,2.3755,2.3736,2.4092,2.5554,2.7296,2.9313,3.1266,3.1338,2.8831,2.4287,1.9883,1.9245,2.0576,2.1509,2.2151,2.2447,2.2978,2.342,2.3691,2.3949,2.4073,2.4187,2.4099,2.4088,2.4317,2.4258,2.4115,2.4097,2.4224,2.4337,2.431,2.426,2.4364,2.434,2.4415,2.4386,2.4381,2.4418,2.4599,2.4606,2.4705,2.4673,2.4681,2.4665,2.4749,2.4881,2.4894,2.4975,2.5117,2.5187,2.5448,2.5494,2.5637,2.5755,2.5964,2.6109,2.624,2.6443,2.6717,2.6855,2.7285,2.7382,2.7492,2.7626,2.7546,2.7805,2.7812,2.7998,2.8096,2.8179,2.8077,2.8063,2.7992,2.768,2.7451,2.714,2.7041,2.6529,2.5879,2.5412,2.5203,2.4806,2.4334,2.4122,2.3677,2.3556,2.3485,2.3503,2.3456,2.3305,2.3185,2.3154,2.3076,2.2912,2.2964,2.2984,2.293,2.2815,2.2822,2.2749,2.2688,2.2764,2.289,2.2827,2.2912,2.3053,2.2864,2.2856,2.2801,2.2957,2.2989,2.3074,2.3044,2.3058,2.3132,2.3143,2.306,2.3058,2.3184,2.3157,2.3184,2.3148,2.3178,2.3301,2.3162,2.3274,2.3284,2.3206,2.3174,2.3229,2.3284,2.3222,2.3219,2.3239,2.3246,2.337,2.3372,2.3367,2.3332,2.3104,2.3222,2.3174,2.3149,2.3188,2.3323,2.3495,2.3544,2.3664,2.3702,2.3689,2.3685,2.3921,2.426,2.4489,2.441,2.41,2.4059,2.398,2.3606,2.3587,2.3522,2.3384,2.3391,2.3316,2.3107,2.2967,2.2837,2.3017,2.2982,2.2979,2.2943,2.2995,2.3095,2.3127,2.312,2.3159,2.3038,2.2898,2.3008,2.2875,2.3327,2.4437,2.6094,2.8175,3.0386,3.0621,2.8618,2.399,1.9167,1.7661,1.9169,2.0301,2.1233,2.2104,2.2695,2.3049,2.3211,2.3417,2.3338,2.3416,2.3382,2.3386,2.3452,2.3538,2.3429,2.3601,2.3484,2.3506,2.363,2.3898,2.3723,2.3542,2.3527,2.3709,2.3727,2.3844,2.3831,2.3904,2.389,2.3866,2.4026,2.4014,2.4136,2.4211,2.4275,2.4369,2.4529,2.4605,2.4653,2.486,2.5062,2.5214,2.5487,2.5572,2.5629,2.5708,2.6066,2.6289,2.6489,2.653,2.6692,2.6854,2.6982,2.7115,2.7324,2.7414,2.7533,2.7635,2.7694,2.7639,2.7504,2.7233,2.6965,2.6765,2.6354,2.5931,2.5365,2.4853,2.453,2.4312,2.3924,2.3524,2.328,2.308,2.2812,2.2519,2.2557,2.2447,2.2401,2.243,2.2372,2.2275,2.2218,2.2081,2.2206,2.2224,2.2139,2.2028,2.2071,2.2172,2.2251,2.2387,2.2229,2.21,2.2076,2.2036,2.2066,2.2177,2.2167,2.2197,2.22,2.2269,2.2246,2.2198,2.2298,2.2433,2.2508,2.2432,2.2319,2.2362,2.235,2.242,2.2476,2.2585,2.2506,2.2474,2.2384,2.2525,2.2631,2.2554,2.2362,2.2384,2.2382,2.2497,2.2454,2.2409,2.2461,2.2379,2.2419,2.2499,2.2526,2.232,2.2302,2.2323,2.2416,2.2362,2.2387,2.2369,2.2354,2.2366,2.2421,2.2368,2.2461,2.2408,2.2326,2.2215,2.2294,2.2316,2.2291,2.2459,2.2514,2.2525,2.2335,2.2217,2.223,2.2266,2.2221,2.231,2.2328,2.2365,2.2312,2.2278,2.2285,2.2399,2.2464,2.2399,2.2305,2.2316,2.2277,2.23,2.2401,2.2403,2.2164,2.2209,2.243,2.2335,2.2169,2.2241,2.2218,2.2285,2.2242,2.2255,2.2268,2.2306,2.232,2.2277,2.2419,2.2379,2.2238,2.2241,2.2228,2.2228,2.2226,2.2407,2.2575,2.2526,2.256,2.2603,2.2582,2.2632,2.2885,2.3214,2.3298,2.3287,2.3063,2.2843,2.2789,2.2725,2.2756,2.271,2.2595,2.2429,2.2484,2.2472,2.2289,2.2395,2.255,2.2409,2.2327,2.2305,2.2453,2.2629,2.254,2.2406,2.2448,2.2391,2.2263,2.2544,2.356,2.5089,2.7144,2.919,2.9805,2.9418,2.7447,2.2699,1.7929,1.758,1.9364,2.0214,2.1218,2.2116,2.2377,2.2616,2.2845,2.2718,2.2808,2.2806,2.3014,2.3002,2.3118,2.2999,2.2992,2.3149,2.3233,2.3139,2.3149,2.3142,2.324,2.3139,2.316,2.3146,2.3253,2.3492,2.3457,2.3374,2.3445,2.3416,2.355,2.3673,2.3767,2.3846,2.407,2.4061,2.3984,2.4169,2.4288,2.4424,2.4636,2.4809,2.5018,2.5111,2.5197,2.5334,2.5645,2.5845,2.5981,2.6145,2.6289,2.6495,2.6645,2.7042,2.7136,2.7034,2.7026,2.7237,2.723,2.725,2.7455,2.7272,2.7139,2.6985,2.6682,2.6394,2.6,2.5743,2.5303,2.4806,2.4394,2.4078,2.3825,2.3579,2.3139,2.3107,2.2879,2.2801,2.2713,2.2652,2.2577,2.2543,2.2608,2.2514,2.2381,2.2452,2.2517,2.2421,2.2425,2.2551,2.2631,2.257,2.2381,2.2385,2.245,2.2362,2.2356,2.2419,2.248,2.257,2.2483,2.2501,2.259,2.2513,2.2556,2.2684,2.2622,2.2737,2.2787,2.2852,2.2783,2.2786,2.2846,2.2853,2.2908,2.3008,2.2983,2.3035,2.3031,2.2981,2.2918,2.2793,2.2845,2.2791,2.2818,2.2899,2.2923,2.2829,2.2703,2.2722,2.2734,2.2753,2.2684,2.2871,2.2842,2.2748,2.2674,2.2682,2.2724,2.2724,2.2711,2.2712,2.2745,2.2726,2.2684,2.2681,2.2691,2.2691,2.2718,2.2746,2.2759,2.2659,2.264,2.2595,2.2553,2.2643,2.2649,2.256,2.2569,2.2496,2.2622,2.2565,2.2642,2.264,2.265,2.2711,2.2676,2.2797,2.2701,2.2675,2.2705,2.2693,2.2706,2.2685,2.2756,2.2815,2.2786,2.2751,2.274,2.2833,2.2811,2.2817,2.2904,2.3088,2.2998,2.3056,2.3134,2.3309,2.328,2.3378,2.3751,2.3938,2.3936,2.3671,2.3667,2.3566,2.3349,2.3298,2.3343,2.321,2.3218,2.313,2.3216,2.3307,2.3186,2.3125,2.3153,2.3055,2.3072,2.2986,2.3069,2.3129,2.3158,2.297,2.2967,2.2981,2.3541,2.4654,2.5382,2.7248,2.9154,3.0216,2.9616,2.6697,2.2505,1.8704,1.9518,2.0632,2.131,2.2132,2.2838,2.3302,2.344,2.3561,2.3559,2.3678,2.3734,2.3792,2.3739,2.3976,2.3954,2.4094,2.399,2.4043,2.4166,2.4092,2.4196,2.4498,2.4421,2.4428,2.4421,2.435,2.4503,2.457,2.4561,2.4617,2.4695,2.4896,2.4916,2.5158,2.5203,2.5212,2.5311,2.5363,2.5506,2.5788,2.6051,2.6241,2.6156,2.627,2.6608,2.661,2.6834,2.7048,2.7272,2.7408,2.7544,2.7875,2.7992,2.8179,2.8132,2.8367,2.8614,2.8616,2.8599,2.8531,2.8538,2.8579,2.8421,2.836,2.8199,2.7921,2.7633,2.7264,2.6965,2.6531,2.6092,2.589,2.5447,2.5278,2.5032,2.4888,2.4565,2.4535,2.4504,2.4362,2.4328,2.4212,2.4158,2.4107,2.4059,2.3983,2.4055,2.4082,2.3895,2.3783,2.3836,2.3969,2.4001,2.3983,2.402,2.4012,2.4184,2.4207,2.4197,2.4184,2.4107,2.4172,2.4257,2.4398,2.4437,2.435,2.4363,2.4369,2.4429,2.4434,2.4477
