3.3099,3.322,3.3431,3.3434,3.3507,3.3699,3.3752,3.3624,3.3465,3.3462,3.3609,3.3869,3.3729,3.3626,3.3384,3.3558,3.3617,3.3692,3.378,3.3831,3.3701,3.381,3.4014,3.395,3.4018,3.4054,3.4137,3.4186,3.4247,3.4279,3.418,3.4159,3.4346,3.4366,3.4451,3.4109,3.426,3.4375,3.4351,3.4249,3.4393,3.432,3.3931,3.4079,3.4005,3.3939,3.4195,3.4069,3.4096,3.41,3.3961,3.3636,3.3824,3.4119,3.3418,3.3182,3.3503,3.3489,3.333,3.3389,3.328,3.354,3.3312,3.3581,3.3676,3.2984,3.3085,3.2995,3.3397,3.3523,3.3199,3.2715,3.3048,3.3284,3.3093,3.3043,3.296,3.3393,3.3205,3.2932,3.269,3.2819,3.294,3.3004,3.2794,3.2814,3.2832,3.28,3.2711,3.2956,3.3139,3.3061,3.2667,3.297,3.2876,3.2713,3.293,3.2991,3.2638,3.2437,3.2403,3.263,3.2918,3.2746,3.2652,3.272,3.2904,3.2972,3.293,3.2788,3.2891,3.3363,3.3262,3.3148,3.3511,3.3654,3.4028,3.3621,3.3614,3.3703,3.3874,3.3563,3.3598,3.3603,3.3264,3.2932,3.2876,3.2538,3.2648,3.2709,3.2603,3.2569,3.2624,3.23,3.2075,3.2185,3.2382,3.2297,3.2346,3.2536,3.2191,3.1861,3.1772,3.2087,3.3028,3.4334,3.6591,3.9488,4.2128,4.4104,4.4461,4.4284,4.3663,4.0973,3.6939,3.1667,2.9754,2.9905,3.0422,3.125,3.1329,3.1719,3.1741,3.1913,3.1815,3.2039,3.1915,3.2027,3.1849,3.2022,3.1935,3.2049,3.1982,3.1972,3.2087,3.2339,3.224,3.2279,3.1884,3.1815,3.1858,3.1923,3.2092,3.2241,3.1878,3.1859,3.1894,3.2074,3.2028,3.2089,3.1992,3.1971,3.1938,3.1886,3.2007,3.2051,3.2074,3.1988,3.2225,3.2136,3.1879,3.1878,3.1829,3.1976,3.2083,3.1989,3.1814,3.1658,3.1772,3.1906,3.191,3.1825,3.1824,3.1893,3.1888,3.1774,3.1979,3.1979,3.2011,3.1945,3.2054,3.197,3.2005,3.2128,3.2195,3.2056,3.2095,3.2228,3.2284,3.2152,3.2308,3.2404,3.2453,3.255,3.2691,3.2619,3.2758,3.2889,3.2858,3.3035,3.3107,3.2872,3.2952,3.2984,3.3033,3.2933,3.2842,3.2866,3.2927,3.2928,3.2908,3.2915,3.2942,3.2932,3.2883,3.2932,3.3115,3.3262,3.3251,3.3168,3.3148,3.3332,3.3487,3.331,3.3363,3.3631,3.384,3.3638,3.3476,3.3533,3.3627,3.3678,3.373,3.3757,3.3697,3.3754,3.3807,3.3683,3.3639,3.3596,3.3656,3.3604,3.3545,3.346,3.3368,3.3346,3.3309,3.3175,3.3166,3.3112,3.3159,3.3201,3.3117,3.3093,3.2976,3.3058,3.3034,3.302,3.2961,3.289,3.279,3.2923,3.2932,3.2746,3.2674,3.2808,3.2925,3.2827,3.2726,3.2683,3.2666,3.2756,3.2799,3.2817,3.2726,3.2653,3.2729,3.2765,3.2748,3.2685,3.2739,3.2811,3.2828,3.2831,3.2981,3.3096,3.3179,3.3329,3.3469,3.357,3.3654,3.3757,3.3858,3.3813,3.3855,3.3804,3.3783,3.3891,3.38,3.3701,3.3547,3.3374,3.3209,3.3047,3.288,3.2712,3.2564,3.2542,3.255,3.2475,3.2356,3.2383,3.2421,3.2427,3.2437,3.2425,3.2392,3.242,3.245,3.2285,3.2198,3.2607,3.3867,3.6169,3.904,4.1832,4.4065,4.4873,4.4341,4.3411,4.0556,3.5973,3.0929,2.9828,3.0001,3.0554,3.1242,3.1479,3.1913,3.1952,3.211,3.1972,3.213,3.2135,3.2208,3.2107,3.2195,3.2168,3.2316,3.2396,3.2502,3.2266,3.2237,3.2233,3.228,3.2309,3.2314,3.2324,3.232,3.2398,3.2362,3.2298,3.2326,3.2405,3.2414,3.2413,3.2378,3.2369,3.2349,3.2392,3.2456,3.2366,3.2446,3.2417,3.2473,3.2374,3.2378,3.2355,3.2361,3.2403,3.2424,3.235,3.2329,3.2311,3.2355,3.2384,3.2327,3.2319,3.2293,3.2417,3.2508,3.2401,3.2418,3.2527,3.2629,3.2634,3.2583,3.2553,3.2534,3.2603,3.2638,3.2723,3.2628,3.2691,3.2724,3.2805,3.2853,3.2905,3.2981,3.3185,3.3159,3.3257,3.3238,3.3398,3.348,3.3544,3.3566,3.3562,3.3546,3.3502,3.3596,3.3573,3.3504,3.3442,3.3418,3.3437,3.3446,3.3447,3.3405,3.3504,3.3532,3.3544,3.3488,3.3565,3.365,3.3751,3.3764,3.3802,3.381,3.3818,3.3987,3.404,3.4075,3.4079,3.4118,3.4221,3.4305,3.4317,3.4196,3.4265,3.4359,3.4299,3.4288,3.4237,3.4258,3.4254,3.4253,3.4265,3.4176,3.4106,3.411,3.4084,3.404,3.3937,3.3882,3.389,3.3865,3.3832,3.3759,3.3785,3.3748,3.3824,3.3795,3.3632,3.3652,3.3678,3.3705,3.3638,3.3603,3.3534,3.3618,3.3659,3.3613,3.3592,3.3559,3.3504,3.3621,3.3576,3.3597,3.3495,3.3491,3.3586,3.3539,3.3555,3.3511,3.3499,3.3547,3.3554,3.3524,3.3489,3.3451,3.3517,3.3498,3.354,3.3515,3.3479,3.3477,3.3539,3.3501,3.3449,3.3484,3.3506,3.3562,3.3568,3.3545,3.3593,3.3741,3.3927,3.3999,3.4103,3.4216,3.4299,3.4479,3.4687,3.4704,3.4552,3.4642,3.4703,3.4705,3.4662,3.4684,3.4558,3.4575,3.4373,3.408,3.3897,3.373,3.3616,3.3529,3.3485,3.3369,3.3376,3.336,3.3415,3.3389,3.3286,3.3299,3.3333,3.3336,3.3262,3.3208,3.3128,3.3306,3.4226,3.5905,3.8511,4.135,4.4027,4.5041,4.5757,4.5219,4.4186,4.1476,3.6944,3.2224,3.0621,3.1235,3.1746,3.2465,3.2619,3.2889,3.285,3.3072,3.3003,3.3119,3.2916,3.3111,3.3047,3.3251,3.3174,3.3234,3.3118,3.327,3.3246,3.3386,3.3344,3.3369,3.3291,3.3411,3.3342,3.3373,3.3262,3.3343,3.334,3.3426,3.3335,3.3346,3.3304,3.3419,3.3388,3.3421,3.3345,3.3388,3.3332,3.3434,3.3447,3.335,3.3357,3.3337,3.3433,3.3427,3.3373,3.3353,3.3454,3.341,3.3405,3.3268,3.3346,3.3317,3.3336,3.3295,3.3329,3.3311,3.3398,3.3455,3.3523,3.3492,3.3529,3.3524,3.3646,3.3664,3.3607,3.3544,3.3607,3.3678,3.3747,3.3671,3.3755,3.3768,3.3867,3.3899,3.4028,3.396,3.4161,3.4232,3.4411,3.4443,3.4442,3.4418,3.4542,3.4499,3.4535,3.4446,3.4482,3.4436,3.4426,3.4449,3.4449,3.4494,3.461,3.4551,3.4543,3.4499,3.4467,3.4519,3.4614,3.4666,3.4653,3.4716,3.4831,3.4902,3.4903,3.4881,3.4907,3.4953,3.5032,3.5061,3.5044,3.5039,3.5074,3.5134,3.5125,3.5113,3.5099,3.5073,3.5154,3.507,3.4967,3.4908,3.4953,3.4895,3.4858,3.4775,3.4711,3.4687,3.4719,3.469,3.4694,3.4488,3.4448,3.4432,3.4456,3.4441,3.4371,3.4355,3.4371,3.4318,3.4321,3.4221,3.4201,3.4186,3.4294,3.4241,3.4203,3.4176,3.4185,3.4219,3.4149,3.4101,3.4044,3.409,3.4099,3.4124,3.4042,3.3998,3.4054,3.4263,3.4304,3.4499,3.4532,3.4593,3.4782,3.4895,3.494,3.5194,3.5176,3.5184,3.5242,3.52,3.5081,3.5132,3.5118,3.5055,3.4921,3.4799,3.4615,3.4318,3.4163,3.4086,3.3875,3.3889,3.3838,3.3809,3.378,3.3732,3.3723,3.3767,3.3766,3.3768,3.3674,3.3674,3.367,3.3667,3.3533,3.3611,3.4517,3.6029,3.8728,4.1467,4.4032,4.5798,4.5914,4.5343,4.3439,4.009,3.465,3.1362,3.1077,3.151,3.2284,3.2769,3.3045,3.3258,3.3232,3.3294,3.3291,3.3326,3.3409,3.3484,3.3464,3.346,3.3488,3.3561,3.3494,3.3524,3.3544,3.3546,3.3563,3.3576,3.3541,3.3524,3.3553,3.3584,3.3608,3.367,3.3528,3.3519,3.3598,3.3599,3.3624,3.344,3.3559,3.3568,3.3657,3.3591,3.3611,3.3591,3.3552,3.3563,3.3542,3.3475,3.3558,3.3565,3.3577,3.3606,3.356,3.3424,3.3391,3.3471,3.3445,3.3442,3.3413,3.3457,3.3457,3.3444,3.3493,3.3606,3.358,3.3612,3.3603,3.3598,3.3671,3.3598,3.3601,3.3722,3.3777,3.3718,3.374,3.3808,3.3916,3.3991,3.4,3.4032,3.4173,3.4271,3.4335,3.4374,3.4473,3.4522,3.4666,3.4642,3.4569,3.4577,3.4621,3.4593,3.4559,3.4492,3.4534,3.4572,3.4586,3.4529,3.4416,3.4431,3.4573,3.4686,3.4696,3.4624,3.4719,3.4729,3.4899,3.4926,3.4952,3.4921,3.4918,3.5085,3.5104,3.5145,3.5094,3.5138,3.5193,3.5256,3.5315,3.5283,3.5248,3.5255,3.5188,3.5171,3.5158,3.5188,3.5265,3.5194,3.5062,3.4937,3.4928,3.4857,3.4893,3.4802,3.4761,3.4703,3.4766,3.4825,3.469,3.4549,3.4551,3.4544,3.4499,3.4496,3.443,3.4434,3.4419,3.453,3.4579,3.4646,3.4711,3.4756,3.4791,3.4954,3.5076,3.5037,3.5349,3.5448,3.5289,3.5401,3.537,3.545,3.5534,3.5401,3.5281,3.5018,3.4971,3.4685,3.4366,3.4208,3.4001,3.3987,3.3922,3.3917,3.3897,3.3862,3.381,3.3816,3.3818,3.3843,3.3701,3.372,3.3774,3.3767,3.3734,3.3572,3.36,3.4146,3.5415,3.7587,4.0489,4.3295,4.4461,4.5902,4.5948,4.5149,4.3005,3.9225,3.375,3.124,3.1221,3.1517,3.2406,3.2763,3.3193,3.3122,3.3344,3.3247,3.3498,3.3348,3.3445,3.3417,3.3524,3.3438,3.3535,3.3452,3.3484,3.3451,3.3603,3.3577,3.3604,3.3458,3.3526,3.3561,3.3648,3.3603,3.3573,3.3551,3.3609,3.3617,3.3634,3.3521,3.3614,3.3594,3.3676,3.3669,3.3639,3.3578,3.3624,3.3638,3.3641,3.3612,3.3577,3.3548,3.3594,3.3551,3.3463,3.348,3.3531,3.3599,3.3536,3.3466,3.3499,3.3513,3.3521,3.3548,3.3522,3.3485,3.3502,3.3663,3.3692,3.371,3.3633,3.3691,3.371,3.3768,3.3711,3.3772,3.3785,3.3865,3.3853,3.3904,3.3967,3.4,3.4059,3.4181,3.426,3.4272,3.4327,3.4486,3.4537,3.4684,3.4556,3.4518,3.452,3.4576,3.4534,3.4446,3.4419,3.4518,3.4543,3.4586,3.4412,3.4395,3.4462,3.4538,3.4524,3.4528,3.456,3.4627,3.4676,3.4772,3.4723,3.4833,3.4887,3.5025,3.5016,3.4994,3.5034,3.5124,3.5245,3.5247,3.5248,3.5163,3.5157,3.5198,3.5179,3.5168,3.5088,3.5104,3.5106,3.509,3.5076,3.5004,3.4911,3.4932,3.4849,3.4815,3.4704,3.4758,3.4683,3.4652,3.4601,3.4474,3.4476,3.449,3.4496,3.4545,3.4455,3.4379,3.4314,3.4353,3.43,3.4284,3.4271,3.4335,3.432,3.4282,3.423,3.4208,3.4214,3.416,3.4149,3.413,3.4128,3.4041,3.418,3.4101,3.4074,3.4058,3.4058,3.4108,3.4084,3.4154,3.4252,3.4333,3.4511,3.4579,3.471,3.4767,3.4883,3.5141,3.5192,3.5133,3.5126,3.5146,3.5124,3.5169,3.5215,3.5014,3.4967,3.4878,3.469,3.4491,3.4295,3.404,3.3989,3.3855,3.3833,3.3751,3.3731,3.3692,3.3725,3.3687,3.3627,3.3583,3.3603,3.3643,3.364,3.3499,3.341,3.3414,3.3893,3.5069,3.7151,3.9938,4.2808,4.5119,4.6089,4.5503,4.4664,4.1808,3.7452,3.2389,3.0844,3.0929,3.1483,3.2287,3.2545,3.2939,3.2937,3.3138,3.3119,3.3231,3.3139,3.3148,3.3176,3.3293,3.3229,3.3352,3.3225,3.3298,3.3308,3.3349,3.3271,3.3259,3.3301,3.3319,3.3361,3.3342,3.3289,3.3321,3.3313,3.34,3.3391,3.3338,3.3277,3.3352,3.3447,3.3446,3.334,3.3378,3.3273,3.3415,3.3397,3.3318,3.325,3.3286,3.3335,3.3304,3.3243,3.3256,3.3261,3.3239,3.3215,3.3219,3.3154,3.3164,3.3188,3.3255,3.3186,3.3143,3.3173,3.3321,3.3325,3.3344,3.3303,3.337,3.3369,3.3452,3.3419,3.3347,3.342,3.3443,3.354,3.3625,3.3555,3.3565,3.3755,3.3844,3.3871,3.3856,3.4026,3.4112,3.4192,3.4286,3.4258,3.4262,3.4291,3.4296,3.4342,3.4324,3.4282,3.426,3.4344,3.4346,3.4343,3.4311,3.4331,3.4415,3.4424,3.4392,3.4374,3.4348,3.4437,3.4428,3.4449,3.4414,3.4539,3.4526,3.4637,3.466,3.4609,3.4643,3.4757,3.4754,3.4797,3.4697,3.4746,3.4781,3.486,3.4844,3.4733,3.4736,3.4775,3.4733,3.4653,3.4611,3.4568,3.4582,3.4568,3.4538,3.4406,3.4384,3.4337,3.4302,3.4218,3.4193,3.4114,3.4084,3.4055,3.4064,3.3938,3.396,3.3941,3.3941,3.3919,3.388,3.3865,3.3813,3.3863,3.3784,3.3812,3.374,3.3738,3.3641,3.3641,3.3652,3.3545,3.3511,3.3606,3.3598,3.3664,3.3611,3.3559,3.3539,3.351,3.3559,3.3523,3.3499,3.3458,3.347,3.3485,3.3487,3.3404,3.3437,3.3439,3.3491,3.3433,3.3431,3.3487,3.3487,3.3428,3.3418,3.3408,3.3399,3.3442,3.3403,3.335,3.3316,3.3309,3.3369,3.3476,3.3647,3.371,3.3725,3.3922,3.4036,3.4113,3.4156,3.436,3.4523,3.4333,3.4307,3.4278,3.4359,3.4468,3.4346,3.4269,3.4181,3.4035,3.3844,3.3641,3.3482,3.3239,3.3159,3.3182,3.316,3.3035,3.2957,3.3012,3.2993,3.2972,3.2934,3.2825,3.2797,3.2891,3.2814,3.2806,3.2871,3.3645,3.5167,3.7772,4.052,4.3102,4.4893,4.5015,4.4533,4.2829,3.9467,3.4224,3.0709,3.0325,3.0783,3.1532,3.1909,3.223,3.2446,3.2464,3.2458,3.24,3.2422,3.2494,3.2547,3.2521,3.2482,3.2522,3.257,3.2577,3.2595,3.2463,3.2519,3.2579,3.2588,3.2554,3.2474,3.2563,3.2601,3.2613,3.2546,3.2502,3.2539,3.2563,3.2615,3.2508,3.2465,3.2527,3.2527,3.254,3.2584,3.257,3.2602,3.2407,3.248,3.2446,3.2396,3.247,3.2479,3.243,3.2426,3.2383,3.2311,3.2308,3.2341,3.2279,3.2267,3.221,3.222,3.233,3.2373,3.2422,3.2361,3.2341,3.241,3.2448,3.2462,3.242,3.2447,3.2482,3.2495,3.2532,3.2542,3.2522,3.2594,3.272,3.2744,3.2642,3.2727,3.2847,3.2998,3.3094,3.3111,3.3195,3.3182,3.3308,3.3365,3.3314,3.3373,3.335,3.3367,3.3385,3.3311,3.3369,3.3279,3.3346,3.3317,3.3307,3.3284,3.3351,3.3396,3.3463,3.3431,3.3414,3.3477,3.3615,3.3768,3.383,3.3765,3.3699,3.3857,3.3881,3.3843,3.385,3.3908,3.3996,3.3996,3.4029,3.3915,3.3975,3.3959,3.394,3.3873,3.3832,3.387,3.3852,3.3815,3.3769,3.3638,3.3606,3.3598,3.3579,3.3551,3.3471,3.3423,3.3401,3.336,3.3322,3.3331,3.3242,3.3189,3.316,3.3166,3.3122,3.3078,3.3136,3.3186,3.3299,3.3359,3.3465,3.3549,3.3708,3.3769,3.3793,3.3813,3.407,3.4145,3.4017,3.4051,3.3962,3.4055,3.4094,3.4031,3.3943,3.375,3.364,3.3425,3.3085,3.2918,3.2746,3.2675,3.2658,3.2571,3.2539,3.2586,3.25,3.2494,3.2549,3.256,3.2497,3.2448,3.2517,3.2451,3.238,3.2266,3.2259,3.2866,3.415,3.6359,3.9124,4.192,4.4005,4.4848,4.4685,4.3975,4.1777,3.8132,3.2525,3.0038,2.9954,3.0249,3.1093,3.1537,3.1904,3.1954,3.208,3.2106,3.228,3.2189,3.2246,3.222,3.2267,3.2282,3.2349,3.2291,3.2264,3.2268,3.2399,3.2384,3.2431,3.232,3.2353,3.2322,3.2412,3.241,3.2399,3.2391,3.2497,3.2452,3.2427,3.2388,3.2471,3.2546,3.2509,3.2497,3.2484,3.2509,3.2457,3.2532,3.251,3.2469,3.2428,3.2399,3.2509,3.2504,3.2436,3.2356,3.2352,3.2393,3.2404,3.2329,3.2406,3.2342,3.2419,3.2408,3.2465,3.2432,3.2447,3.2527,3.2515,3.255,3.2445,3.2491,3.2579,3.2646,3.2588,3.2558,3.26,3.2747,3.2807,3.2836,3.2774,3.2956,3.304,3.3135,3.3143,3.3158,3.3221,3.3343,3.3441,3.3489,3.344,3.3509,3.3514,3.3529,3.3481,3.3302,3.3335,3.3364,3.3423,3.3344,3.3267,3.3344,3.3413,3.3455,3.3446,3.3469,3.3473,3.3536,3.3625,3.3682,3.3698,3.3801,3.3777,3.3852,3.3931,3.394,3.3938,3.406,3.4131,3.4178,3.4173,3.4156,3.4174,3.4256,3.4203,3.417,3.4066,3.4097,3.4114,3.4115,3.4054,3.3954,3.3915,3.3942,3.3891,3.379,3.3682,3.368,3.3691,3.3642,3.3565,3.3534,3.3448,3.3469,3.3481,3.3468,3.3428,3.3378,3.3392,3.3404,3.3389,3.3318,3.327,3.325,3.3343,3.3302,3.33,3.3198,3.3155,3.3207,3.3249,3.3154,3.3158,3.3153,3.3227,3.316,3.3166,3.3101,3.3097,3.3168,3.3099,3.3078,3.3076,3.3051,3.3152,3.3089,3.3083,3.3017,3.3039,3.308,3.3053,3.3069,3.3054,3.3025,3.3093,3.3087,3.3069,3.3048,3.3089,3.3072,3.311,3.3089,3.3043,3.2978,3.3045,3.3089,3.3069,3.3036,3.3029,3.3053,3.3058,3.3092,3.3066,3.3053,3.3028,3.3053,3.3078,3.31,3.3063,3.3029,3.3071,3.3083,3.3008,3.3046,3.3088,3.3129,3.3053,3.3069,3.3086,3.3082,3.3114,3.3124,3.3129,3.3092,3.3027,3.3181,3.3153,3.3136,3.3092,3.3084,3.3202,3.3173,3.3138,3.3081,3.3122,3.318,3.3164,3.3169,3.3095,3.3072,3.3161,3.3213,3.3308,3.3414,3.3592,3.3729,3.3815,3.3895,3.3943,3.4062,3.4127,3.4339,3.4334,3.4286,3.4255,3.4316,3.4326,3.4166,3.4057,3.3794,3.3648,3.3587,3.3471,3.3206,3.3157,3.3106,3.3066,3.3063,3.3032,3.2958,3.2942,3.297,3.2952,3.2925,3.2874,3.2796,3.2776,3.2902,3.3872,3.5605,3.8228,4.119,4.3699,4.4988,4.4662,4.4132,4.212,4.0444,3.6049,3.1475,3.0526,3.1078,3.1833,3.2046,3.2345,3.2403,3.2502,3.2538,3.2563,3.2458,3.258,3.2531,3.2678,3.259,3.2583,3.254,3.2629,3.2686,3.2644,3.2554,3.2593,3.2573,3.2669,3.2627,3.2569,3.2549,3.2613,3.2636,3.2624,3.2607,3.2584,3.259,3.2701,3.2652,3.2637,3.2614,3.2647,3.2721,3.2698,3.2683,3.2566,3.2564,3.2637,3.2646,3.2665,3.2524,3.2569,3.2574,3.2556,3.2572,3.248,3.2583,3.255,3.2584,3.2597,3.2522,3.2537,3.2628,3.26,3.2623,3.2652,3.2639,3.2694,3.2778,3.2743,3.274,3.2725,3.2789,3.2857,3.2809,3.2829,3.2871,3.2969,3.3045,3.3055,3.3072,3.3115,3.3195,3.323,3.3335,3.3467,3.3497,3.3598,3.3727,3.3724,3.3757,3.3691,3.3747,3.3843,3.3919,3.39,3.3832,3.3857,3.3984,3.3959,3.3992,3.3968,3.4007,3.4117,3.4151,3.4172,3.4207,3.4204,3.4285,3.4332,3.4406,3.4371,3.4445,3.4454,3.4518,3.4549,3.4503,3.4503,3.4519,3.4532,3.4565,3.4492,3.4452,3.4454,3.4485,3.4477,3.4445,3.4363,3.4308,3.4308,3.4289,3.422,3.4156,3.4149,3.4157,3.4072,3.3992,3.3896,3.3848,3.39,3.3783,3.3755,3.3693,3.3669,3.3724,3.3694,3.3631,3.3547,3.3536,3.3504,3.3537,3.3528,3.3458,3.341,3.3467,3.3475,3.3456,3.3364,3.3355,3.3414,3.3315,3.3408,3.3339,3.3255,3.334,3.3396,3.3311,3.3245,3.3232,3.3257,3.3241,3.3308,3.3286,3.3251,3.3223,3.3291,3.3303,3.3191,3.3224,3.3255,3.3277,3.3217,3.3123,3.3183,3.3145,3.3169,3.324,3.3261,3.3162,3.316,3.3158,3.3176,3.3149,3.3204,3.3152,3.3114,3.311,3.3148,3.3103,3.3142,3.3138,3.3109,3.3124,3.3092,3.31,3.3129,3.3196,3.3175,3.3092,3.3083,3.3078,3.3126,3.3134,3.307,3.3089,3.306,3.3133,3.3236,3.3321,3.3414,3.3559,3.3671,3.3743,3.3865,3.3958,3.4074,3.415,3.4232,3.419,3.4139,3.4175,3.4281,3.4235,3.4059,3.3826,3.3563,3.3457,3.3321,3.3135,3.3038,3.2996,3.3042,3.2906,3.2829,3.2885,3.2878,3.29,3.2821,3.2767,3.273,3.2697,3.262,3.2667,3.2902,3.392,3.5719,3.8513,4.1362,4.3769,4.4936,4.4536,4.4029,4.1783,3.7958,3.2634,3.0409,3.0323,3.067,3.1537,3.1811,3.2225,3.2265,3.2373,3.2365,3.2361,3.2278,3.2421,3.2451,3.2528,3.2424,3.2451,3.2432,3.2506,3.2485,3.2459,3.2373,3.2448,3.2434,3.2478,3.2397,3.2363,3.2294,3.2405,3.2444,3.2503,3.2368,3.2359,3.2383,3.2441,3.2418,3.2332,3.2401,3.2474,3.2398,3.2374,3.2276,3.2346,3.2431,3.2372,3.2346,3.2219,3.2283,3.23,3.2307,3.2333,3.2295,3.227,3.2163,3.2224,3.217,3.2112,3.2131,3.2148,3.2195,3.2196,3.2156,3.2211,3.2243,3.2275,3.2404,3.2369,3.2291,3.2216,3.2311,3.2406,3.2461,3.2326,3.2364,3.2533,3.2549,3.2533,3.2597,3.2663,3.282,3.2878,3.2994,3.2984,3.3075,3.3182,3.3223,3.3218,3.3191,3.3238,3.3232,3.321,3.3246,3.3129,3.3132,3.3198,3.3283,3.3178,3.3182,3.324,3.3284,3.3356,3.3388,3.3367,3.3427,3.3509,3.3539,3.3638,3.3655,3.3739,3.3696,3.3699,3.3735,3.3781,3.3892,3.3856,3.3943,3.3928,3.3852,3.3918,3.3909,3.3936,3.3913,3.3815,3.3718,3.3619,3.3662,3.3672,3.3624,3.3473,3.3438,3.3375,3.3401,3.3383,3.325,3.3229,3.3318,3.3192,3.3149,3.3125,3.3126,3.312,3.3066,3.3053,3.2951,3.2943,3.2917,3.2994,3.2954,3.2869,3.2839,3.2856,3.2943,3.2814,3.2752,3.2833,3.2801,3.286,3.273,3.2735,3.2779,3.2751,3.2757,3.2752,3.2661,3.2699,3.2705,3.2724,3.2698,3.2669,3.2642,3.2684,3.275,3.2694,3.2663,3.2665,3.2662,3.2748,3.29,3.2908,3.3055,3.3135,3.3296,3.338,3.3527,3.3614,3.3649,3.3717,3.3759,3.3722,3.3679,3.3737,3.3749,3.3703,3.3586,3.3398,3.3092,3.2883,3.2783,3.2681,3.2497,3.2517,3.2448,3.2432,3.2413,3.2295,3.2361,3.2388,3.2442,3.2406,3.2364,3.2307,3.224,3.2238,3.2288,3.3023,3.4504,3.6966,3.9842,4.2508,4.4232,4.4387,4.3778,4.2207,3.8996,3.3585,3.012,2.9856,2.9905,3.0601,3.1236,3.1544,3.1812,3.1921,3.1976,3.2016,3.1951,3.1956,3.2058,3.2028,3.2096,3.2085,3.2114,3.2169,3.2119,3.2134,3.2052,3.2075,3.2196,3.215,3.2186,3.2134,3.2148,3.2122,3.2122,3.2143,3.2107,3.2126,3.2159,3.2191,3.22,3.2143,3.2139,3.2193,3.2212,3.225,3.2175,3.2152,3.213,3.2122,3.2102,3.2137,3.2076,3.2065,3.2124,3.206,3.2054,3.2034,3.1999,3.2058,3.2018,3.199,3.2004,3.2023,3.2062,3.2062,3.2055,3.2065,3.2082,3.2114,3.2149,3.2158,3.2094,3.2121,3.2228,3.2215,3.2298,3.2295,3.2267,3.2386,3.2483,3.2518,3.2496,3.2538,3.265,3.279,3.2863,3.2906,3.296,3.301,3.3145,3.3132,3.3074,3.3071,3.3016,3.3084,3.3003,3.3007,3.298,3.2979,3.2982,3.3018,3.2983,3.2979,3.3055,3.3142,3.3168,3.3217,3.3236,3.3237,3.3381,3.3365,3.3365,3.3367,3.3504,3.3598,3.3623,3.3593,3.3614,3.3628,3.3683,3.3774,3.3744,3.3701,3.3679,3.3733,3.3749,3.3696,3.3573,3.36,3.3614,3.3586,3.3558,3.3411,3.3389,3.3339,3.3322,3.3295,3.3185,3.3163,3.3087,3.3108,3.3103,3.2983,3.297,3.2949,3.2914,3.2866,3.2775,3.2786,3.2805,3.29,3.2807,3.2814,3.2672,3.2654,3.2735,3.27,3.2683,3.2618,3.2621,3.2629,3.2628,3.2627,3.2558,3.2575,3.2598,3.2623,3.2613,3.2527,3.2503,3.2547,3.2647,3.2553,3.242,3.2472,3.2537,3.2571,3.2577,3.2435,3.2466,3.2494,3.2517,3.2515,3.2484,3.2458,3.2499,3.2505,3.2557,3.2398,3.2445,3.2469,3.2568,3.255,3.2442,3.2445,3.2438,3.2573,3.2511,3.2454,3.2428,3.2478,3.2506,3.2508,3.2465,3.2473,3.2629,3.2775,3.2919,3.2999,3.2987,3.3095,3.3317,3.3398,3.3415,3.3467,3.3548,3.3609,3.356,3.3596,3.3534,3.3507,3.3443,3.3192,3.2962,3.2761,3.2676,3.2534,3.2427,3.2343,3.2246,3.2195,3.228,3.227,3.2256,3.2169,3.2188,3.215,3.2183,3.211,3.196,3.1874,3.2181,3.3376,3.5289,3.8065,4.0865,4.3262,4.4494,4.4058,4.3332,4.2243,3.9054,3.4139,3.0328,2.9596,3.0216,3.08,3.1298,3.1552,3.1734,3.1711,3.1768,3.1813,3.1816,3.1781,3.181,3.1837,3.1899,3.1875,3.1863,3.1775,3.1847,3.1953,3.1907,3.1815,3.1782,3.1777,3.1815,3.1939,3.1857,3.1784,3.181,3.1886,3.1907,3.1892,3.1823,3.1779,3.1866,3.186,3.188,3.178,3.1787,3.1848,3.1944,3.1946,3.1827,3.1864,3.1781,3.1886,3.1848,3.1852,3.1771,3.1742,3.1824,3.1796,3.176,3.1688,3.1707,3.1783,3.1764,3.1762,3.1769,3.1746,3.1835,3.1881,3.1811,3.1842,3.1873,3.1921,3.1945,3.1905,3.1893,3.1925,3.1978,3.2064,3.2024,3.1992,3.213,3.2208,3.2209,3.2291,3.2319,3.2429,3.2489,3.2608,3.2686,3.2622,3.2741,3.2822,3.2879,3.2842,3.2749,3.2797,3.2766,3.2815,3.2808,3.2773,3.283,3.2787,3.2884,3.2889,3.2867,3.2934,3.295,3.2955,3.2997,3.3036,3.2993,3.3119,3.3224,3.3263,3.3265,3.3275,3.3343,3.3402,3.3423,3.3391,3.3439,3.346,3.3496,3.3469,3.3427,3.3394,3.3384,3.337,3.3371,3.3344,3.3216,3.3224,3.3141,3.315,3.3158,3.3037,3.2986,3.2997,3.292,3.2866,3.2766,3.2763,3.2734,3.2747,3.2645,3.2615,3.2565,3.259,3.2642,3.2601,3.2535,3.2469,3.2445,3.2451,3.2526,3.2456,3.2424,3.2384,3.2444,3.2375,3.2291,3.2299,3.2354,3.2358,3.2341,3.2296,3.2248,3.2253,3.2276,3.229,3.2294,3.2166,3.2217,3.2322,3.2242,3.2237,3.2134,3.2183,3.2221,3.2183,3.2207,3.2179,3.2134,3.221,3.2248,3.2231,3.219,3.2171,3.218,3.2225,3.2179,3.2111,3.2164,3.2201,3.2192,3.2194,3.2192,3.2259,3.2375,3.2386,3.2341,3.2251,3.2372,3.2344,3.2268,3.2212,3.2347,3.2343,3.2617,3.2842,3.2848,3.2929,3.3168,3.3456,3.3151,3.3029,3.3307,3.3283,3.3232,3.3261,3.3403,3.3606,3.359,3.3239,3.3122,3.2989,3.2639,3.2737,3.2912,3.2536,3.2604,3.2643,3.2304,3.1716,3.2091,3.2179,3.1797,3.169,3.1702,3.177,3.1914,3.1926,3.1646,3.1752,3.2821,3.4395,3.6929,3.8638,4.1339,4.3752,4.4408,4.4215,4.3616,4.0454,3.458,3.0341,2.9449,2.9692,2.9994,3.1404,3.1653,3.1197,3.1194,3.1276,3.1166,3.1395,3.1016,3.1231,3.1331,3.1578,3.1244,3.125,3.1487,3.1707,3.1606,3.1815,3.0921,3.1104,3.1325,3.1373,3.1306,3.1427,3.1223,3.153,3.1423,3.1526,3.1555,3.151,3.147,3.14,3.1069,3.1141,3.1194,3.0929,3.1323,3.1257,3.1174,3.1105,3.1269,3.147,3.149,3.0974,3.0883,3.1583,3.1228,3.0451,3.1447,3.1548,3.1177,3.0936,3.1554,3.1358,3.0684,3.121,3.1361,3.0656,3.0753,3.1423,3.149,3.084,3.1004,3.1352,3.1375,3.1638,3.1308,3.1109,3.146,3.1261,3.1107,3.1051,3.1549,3.1464,3.1163,3.1856,3.1643,3.1134,3.1693,3.2101,3.2296,3.163,3.1616,3.2219,3.2605,3.2162,3.1618,3.1962,3.1852,3.1993,3.1866,3.1682,3.2048,3.2375,3.2152,3.2377,3.2385,3.1543,3.2032,3.2463,3.2662,3.1998,3.2228,3.2072,3.207,3.2311,3.2732,3.2708,3.2595,3.2585,3.2516,3.2676,3.2551,3.2509,3.2781,3.2922,3.2734,3.2899,3.2593,3.2645,3.2847,3.2326,3.223,3.247,3.2525,3.2416,3.2364,3.2093,3.272,3.2817,3.1661,3.1618,3.172,3.1872,3.2002,3.1941,3.2113,3.1896,3.1792,3.1896,3.1881,3.1814,3.1891,3.2,3.1651,3.1666,3.1769,3.1869,3.1749,3.1581,3.2111,3.2208,3.1978,3.182,3.2643,3.2688,3.1764,3.2137,3.2563,3.2782,3.2567,3.2857,3.3347,3.2749,3.2206,3.268,3.2534,3.2623,3.2241,3.1743,3.1783,3.1694,3.1438,3.1501,3.146,3.1496,3.1549,3.1658,3.1064,3.1165,3.1299,3.1277,3.1228,3.1286,3.149,3.1198,3.0937,3.1108,3.1357,3.2233,3.388,3.7243,4.0554,4.1657,4.2824,4.3164,4.3007,4.198,3.8553,3.2884,2.8937,2.9081,2.9255,2.9507,3.0177,3.0874,3.1114,3.1078,3.118,3.1075,3.0968,3.0909,3.106,3.0944,3.082,3.1273,3.15,3.1216,3.1284,3.1439,3.1248,3.0939,3.0976,3.131,3.1343,3.1274,3.124,3.1215,3.1021,3.1079,3.1206,3.1201,3.1452,3.1327,3.1001,3.1362,3.1687,3.122,3.1081,3.103,3.1114,3.149,3.1311,3.1099,3.1245,3.1148,3.1324,3.127,3.1149,3.0925,3.1171,3.1425,3.1147,3.0938,3.0806,3.0876,3.0976,3.1245,3.1354,3.1044,3.117,3.1078,3.1117,3.129,3.145,3.1251,3.1068,3.1383,3.1482,3.1375,3.1468,3.1363,3.1342,3.1789,3.1912,3.1631,3.1595,3.1678,3.1732,3.1922,3.2136,3.2288,3.2115,3.2204,3.2295,3.2189,3.2179,3.2205,3.2161,3.2228,3.2232,3.2269,3.2162,3.208,3.2258,3.2125,3.1901,3.2133,3.2327,3.225,3.2368,3.2412,3.2455,3.2616,3.2541,3.2513,3.2599,3.2786,3.3106,3.2905,3.266,3.2918,3.3584,3.3304,3.2775,3.2583,3.2749,3.2889,3.2877,3.3004,3.3424,3.3333,3.2461,3.2761,3.2942,3.2721,3.2824,3.278,3.2792,3.2789,3.3069,3.3142,3.301,3.3324,3.3571,3.3603,3.3482,3.3606,3.3865,3.3656,3.3418,3.3396,3.3657,3.3291,3.2928,3.3158,3.3041,3.2543,3.2429,3.2214,3.2221,3.2393,3.1846,3.1636,3.1659,3.1687,3.173,3.1607,3.1845,3.1959,3.1833,3.1964,3.1898,3.1765,3.1771,3.1406,3.1206,3.1571,3.2649,3.4337,3.7147,4.0115,4.2695,4.4201,4.4298,4.3903,4.2154,3.8938,3.3884,2.9871,2.95,2.958,3.0034,3.0716,3.1033,3.1227,3.1118,3.137,3.1559,3.1422,3.1233,3.1426,3.1335,3.1421,3.1536,3.1507,3.1497,3.1597,3.1781,3.2009,3.1777,3.1874,3.1792,3.1317,3.1441,3.1677,3.1553,3.1534,3.1423,3.1472,3.153,3.1698,3.1681,3.1601,3.1511,3.1739,3.1698,3.1734,3.1642,3.1762,3.1702,3.1931,3.1983,3.1575,3.1752,3.1729,3.1334,3.1446,3.1487,3.1685,3.1908,3.164,3.1637,3.1759,3.1504,3.1415,3.172,3.1717,3.1594,3.1518,3.1666,3.1868,3.2066,3.1974,3.1896,3.1706,3.2034,3.1971,3.176,3.1946,3.215,3.2192,3.2068,3.2133,3.2359,3.2512,3.2701,3.2872,3.2943,3.2513,3.2509,3.2783,3.2729,3.2576,3.2753,3.2813,3.2661,3.2643,3.2663,3.2446,3.254,3.2672,3.2687,3.2753,3.2715,3.2776,3.2827,3.2799,3.2808,3.2791,3.2871,3.2898,3.2987,3.3156,3.3034,3.3131,3.3337,3.3307,3.3225,3.3273,3.3424,3.3404,3.3293,3.3376,3.3495,3.3465,3.3466,3.3513,3.3516,3.3433,3.3366,3.3407,3.3458,3.3428,3.3366,3.3339,3.324,3.3062,3.2997,3.3003,3.2889,3.2924,3.2872,3.2873,3.286,3.2815,3.2907,3.2936,3.2821,3.2674,3.2752,3.2902,3.3114,3.3179,3.3241,3.3464,3.3397,3.3347,3.3552,3.3623,3.3605,3.3704,3.3668,3.3542,3.3719,3.396,3.3757,3.3503,3.3514,3.3508,3.2805,3.2483,3.2547,3.2529,3.243,3.2291,3.2221,3.225,3.2327,3.223,3.2134,3.2232,3.2307,3.2146,3.2013,3.2099,3.2284,3.2206,3.2072,3.1837,3.2336,3.3888,3.6387,3.9407,4.2173,4.3968,4.451,4.4006,4.2662,3.9356,3.4159,3.0118,2.9728,3.0102,3.0542,3.0977,3.1394,3.1664,3.17,3.1736,3.182,3.1731,3.1679,3.1908,3.2009,3.1832,3.1739,3.1951,3.1889,3.197,3.2016,3.2081,3.2211,3.2047,3.1745,3.179,3.1764,3.187,3.1901,3.1962,3.1975,3.1935,3.1934,3.1988,3.2079,3.2167,3.2084,3.1907,3.1875,3.2177,3.218,3.2071,3.194,3.1896,3.1886,3.1976,3.1861,3.2006,3.2068,3.1944,3.1745,3.1735,3.1794,3.1809,3.1889,3.1999,3.2005,3.1848,3.1717,3.1874,3.2011,3.2114,3.203,3.2112,3.2202,3.227,3.2194,3.2037,3.2231,3.2345,3.2352,3.2165,3.2276,3.2513,3.2471,3.2291,3.2669,3.2877,3.2854,3.2976,3.3009,3.2918,3.3051,3.3039,3.3313,3.331,3.3039,3.3035,3.2816,3.2929,3.2992,3.2985,3.3049,3.3057,3.2987,3.2926,3.3023,3.3183,3.3115,3.3058,3.3095,3.3078,3.3237,3.3224,3.3238,3.335,3.3326,3.3466,3.3474,3.3399,3.3367,3.3357,3.3593,3.3701,3.3563,3.3437,3.3608,3.3653,3.3488,3.3546,3.3645,3.3602,3.3607,3.3349,3.3412,3.3568,3.3522,3.3402,3.326,3.3205,3.3255,3.3234,3.3067,3.2967,3.2958,3.314,3.3187,3.2859,3.295,3.3055,3.2809,3.2626,3.2821,3.3041,3.2854,3.2516,3.2597,3.2779,3.27,3.2663,3.272,3.2717,3.2553,3.2504,3.2478,3.2821,3.299,3.2514,3.2525,3.2641,3.2557,3.2668,3.2766,3.24,3.2218,3.232,3.2464,3.26,3.2688,3.2497,3.2265,3.2567,3.2708,3.2767,3.2545,3.2318,3.25,3.2679,3.2651,3.255,3.258,3.2717,3.2754,3.2694,3.2545,3.2407,3.2448,3.2584,3.2409,3.2447,3.2752,3.2586,3.2377,3.2296,3.2506,3.2434,3.2496,3.259,3.2361,3.2352,3.2491,3.2462,3.2364,3.2523,3.249,3.256,3.235,3.2273,3.243,3.237,3.2374,3.2386,3.2394,3.2485,3.2417,3.2326,3.2394,3.2489,3.2616,3.2446,3.224,3.2297,3.2195,3.2263,3.2291,3.2246,3.2295,3.2355,3.2375,3.2375,3.2339,3.2515,3.2604,3.275,3.2878,3.2929,3.2971,3.3185,3.3227,3.3337,3.3315,3.3371,3.3333,3.3417,3.3475,3.3425,3.3235,3.2954,3.2947,3.2975,3.2728,3.2172,3.2138,3.2129,3.2135,3.1955,3.1993,3.2277,3.2143,3.2009,3.2111,3.1965,3.1856,3.1808,3.1882,3.1879,3.2453,3.3755,3.5492,3.8473,4.1238,4.317,4.3913,4.3686,4.3488,4.1614,3.7826,3.2576,2.9787,2.9701,3.04,3.084,3.1048,3.1797,3.1916,3.1489,3.1253,3.1335,3.1395,3.1711,3.171,3.1569,3.1569,3.1568,3.1553,3.1493,3.1797,3.1862,3.1412,3.1539,3.1521,3.1563,3.1485,3.1515,3.1447,3.1672,3.1554,3.1376,3.1459,3.1618,3.1588,3.1635,3.1609,3.1577,3.1539,3.1272,3.1371,3.1419,3.1472,3.1449,3.1671,3.1511,3.1339,3.1381,3.1429,3.1376,3.1575,3.1467,3.109,3.1162,3.1217,3.1398,3.1297,3.1155,3.1341,3.1346,3.1471,3.1516,3.1369,3.1303,3.138,3.1602,3.1654,3.1354,3.1349,3.1505,3.1578,3.141,3.1551,3.1669,3.1565,3.1579,3.1667,3.1866,3.2148,3.2228,3.2017,3.1974,3.1981,3.2079,3.2367,3.2682,3.2518,3.2247,3.256,3.2792,3.2553,3.2798,3.2816,3.257,3.2509,3.2339,3.2515,3.2778,3.2678,3.2564,3.2596,3.2426,3.2545,3.2779,3.2716,3.301,3.3115,3.3182,3.3067,3.3016,3.3215,3.3229,3.32,3.2822,3.3186,3.3352,3.3117,3.2948,3.2964,3.3048,3.3179,3.3303,3.3184,3.2783,3.2913,3.3244,3.3316,3.2922,3.2883,3.2796,3.2631,3.2681,3.2598,3.2604,3.2608,3.2543,3.2415,3.2487,3.2364,3.2376,3.2358,3.2433,3.2819,3.2379,3.1785,3.2065,3.216,3.2166,3.2149,3.2187,3.1942,3.1958,3.1973,3.1885,3.2032,3.204,3.2025,3.196,3.1825,3.1951,3.2001,3.2235,3.2281,3.179,3.1558,3.1717,3.2036,3.2008,3.188,3.2007,3.2321,3.2514,3.2405,3.2417,3.2713,3.2878,3.3202,3.311,3.2826,3.2786,3.2816,3.2894,3.3115,3.3085,3.2774,3.258,3.2479,3.2335,3.2189,3.1975,3.1848,3.1751,3.1727,3.1665,3.1625,3.1732,3.1828,3.1672,3.1503,3.1397,3.1424,3.156,3.1867,3.1694,3.129,3.1438,3.189,3.2702,3.4305,3.7252,4.0162,4.2569,4.3911,4.3645,4.2834,4.0419,3.613,3.0674,2.9184,2.92,2.9588,3.0169,3.0559,3.1191,3.1226,3.1227,3.1027,3.1327,3.1321,3.1478,3.1296,3.1535,3.1313,3.1321,3.12,3.1291,3.13,3.1448,3.1424,3.148,3.1302,3.1518,3.1576,3.1542,3.1396,3.1319,3.1307,3.1499,3.155,3.1597,3.1436,3.1476,3.1399,3.1436,3.1368,3.1387,3.139,3.1444,3.1402,3.1425,3.1341,3.1369,3.1431,3.1515,3.1469,3.1366,3.1275,3.1197,3.1298,3.1371,3.142,3.1192,3.1116,3.1206,3.1251,3.129,3.1282,3.1271,3.14,3.1278,3.1357,3.143,3.1458,3.1405,3.1449,3.1368,3.1379,3.1447,3.1604,3.1577,3.161,3.1551,3.1615,3.1705,3.1827,3.1895,3.2027,3.216,3.2154,3.2101,3.2255,3.2263,3.2266,3.2291,3.2405,3.2487,3.2319,3.2176,3.2262,3.2278,3.2292,3.2231,3.2337,3.227,3.2416,3.239,3.2359,3.2389,3.2486,3.2685,3.2665,3.2491,3.2631,3.2686,3.2933,3.3029,3.2949,3.2916,3.2956,3.3161,3.3244,3.3271,3.3092,3.3082,3.334,3.3292,3.3319,3.3408,3.3221,3.2905,3.2988,3.3112,3.3059,3.3067,3.2961,3.3082,3.3047,3.2817,3.2797,3.2763,3.2816,3.2808,3.2724,3.263,3.2529,3.2437,3.2526,3.254,3.2649,3.263,3.2447,3.2416,3.2387,3.2368,3.2486,3.2529,3.2459,3.2325,3.2341,3.2431,3.2308,3.2211,3.2261,3.2303,3.2398,3.2475,3.2245,3.2058,3.2086,3.2382,3.2537,3.247,3.2235,3.1997,3.2081,3.2253,3.2208,3.2148,3.2404,3.2813,3.2887,3.2658,3.2724,3.2954,3.314,3.3197,3.3283,3.3551,3.3398,3.3035,3.3282,3.3373,3.3404,3.3037,3.2898,3.2939,3.2827,3.2699,3.2174,3.2049,3.2115,3.2129,3.1989,3.2032,3.1928,3.1935,3.2129,3.2037,3.1871,3.204,3.2063,3.1858,3.1714,3.1609,3.1536,3.2129,3.3406,3.5261,3.808,4.0905,4.3247,4.4365,4.3907,4.3013,4.0159,3.5835,3.0867,2.9313,2.958,3.0225,3.1043,3.121,3.1343,3.1374,3.1355,3.133,3.1528,3.1564,3.1696,3.1584,3.1641,3.1651,3.1626,3.1606,3.1631,3.1562,3.1607,3.1681,3.1801,3.1666,3.1713,3.1827,3.1905,3.1647,3.1647,3.1695,3.1598,3.1698,3.1705,3.1728,3.1779,3.1767,3.1794,3.1744,3.1749,3.1737,3.1697,3.1807,3.1781,3.1709,3.1828,3.1872,3.1901,3.1727,3.1614,3.1535,3.1485,3.1577,3.1736,3.1655,3.1671,3.1618,3.1582,3.1516,3.1643,3.1677,3.1605,3.1674,3.1809,3.173,3.1721,3.1953,3.1956,3.1824,3.1749,3.1697,3.1814,3.2035,3.2028,3.1928,3.1949,3.2162,3.2184,3.2287,3.2225,3.2371,3.2528,3.2613,3.2586,3.2659,3.2703,3.2714,3.2824,3.3082,3.293,3.2577,3.2625,3.2717,3.262,3.2627,3.2553,3.2745,3.2813,3.278,3.2756,3.3051,3.2948,3.2622,3.2766,3.2925,3.3101,3.3109,3.3096,3.3195,3.3183,3.3268,3.3318,3.3339,3.3268,3.3452,3.3495,3.3234,3.3405,3.3547,3.3572,3.34,3.3361,3.3353,3.3436,3.3445,3.3307,3.3252,3.313,3.3125,3.3107,3.3211,3.3072,3.303,3.2967,3.2918,3.2811,3.2836,3.2801,3.2782,3.2861,3.2792,3.2819,3.284,3.2805,3.2779,3.271,3.2583,3.2567,3.2541,3.2623,3.273,3.2826,3.2752,3.2574,3.2353,3.2489,3.2583,3.2359,3.251,3.285,3.2558,3.2345,3.2383,3.2336,3.2518,3.2495,3.2259,3.2307,3.2242,3.2474,3.2563,3.2454,3.2399,3.2451,3.2532,3.2536,3.2441,3.2273,3.2324,3.2487,3.2488,3.2593,3.259,3.2471,3.2399,3.251,3.2385,3.2377,3.2353,3.2505,3.2843,3.3078,3.2997,3.2841,3.302,3.3318,3.3326,3.3451,3.3487,3.3534,3.3736,3.3557,3.3576,3.3546,3.3488,3.3469,3.3281,3.3125,3.2875,3.2691,3.2639,3.2555,3.2415,3.2257,3.225,3.2281,3.2423,3.233,3.209,3.2006,3.2052,3.2119,3.2137,3.2072,3.1856,3.1856,3.2485,3.3614,3.5514,3.8539,4.1519,4.3628,4.4367,4.4182,4.3645,4.1708,3.8264,3.3151,3.0083,2.9642,3.0135,3.0838,3.1181,3.148,3.1655,3.1661,3.1574,3.1575,3.1545,3.1632,3.1664,3.1921,3.1897,3.1712,3.1647,3.172,3.1777,3.1851,3.1828,3.1867,3.188,3.1737,3.1694,3.1787,3.1769,3.1708,3.1654,3.1746,3.1749,3.1703,3.169,3.1713,3.1773,3.175,3.1765,3.1702,3.1721,3.1705,3.1698,3.1698,3.1729,3.1767,3.1782,3.1687,3.1674,3.1702,3.1689,3.1671,3.1624,3.1698,3.1725,3.1552,3.1472,3.1523,3.1481,3.1435,3.1536,3.1735,3.1663,3.1766,3.1585,3.1685,3.183,3.1737,3.1754,3.1774,3.167,3.1627,3.1785,3.1831,3.1905,3.2023,3.2048,3.2137,3.2267,3.2264,3.2311,3.2388,3.2538,3.2556,3.2554,3.2605,3.2713,3.2846,3.2796,3.2618,3.263,3.2636,3.2805,3.278,3.2573,3.2565,3.2737,3.2903,3.2922,3.2918,3.2692,3.2611,3.2897,3.3014,3.2901,3.2877,3.31,3.3043,3.3044,3.3121,3.3208,3.324,3.3546,3.3474,3.3337,3.3395,3.3313,3.3368,3.3271,3.3231,3.3329,3.3321,3.3382,3.3357,3.3346,3.3186,3.2916,3.3254,3.3359,3.3024,3.289,3.2887,3.2965,3.2982,3.2903,3.2892,3.273,3.2635,3.2629,3.2667,3.2646,3.2681,3.2484,3.2569,3.2752,3.2597,3.2551,3.2447,3.2426,3.2566,3.2603,3.2695,3.2841,3.2897,3.2832,3.2964,3.3273,3.3154,3.3391,3.3655,3.3526,3.3467,3.351,3.3483,3.3516,3.3497,3.3334,3.3317,3.3224,3.2972,3.2577,3.2409,3.2353,3.2276,3.2097,3.2037,3.2079,3.2093,3.2124,3.1903,3.184,3.1824,3.1896,3.208,3.2114,3.1921,3.1711,3.1655,3.1644,3.1807,3.2752,3.4546,3.7362,4.0212,4.2724,4.4105,4.4004,4.3429,4.1079,3.7428,3.1672,2.9776,2.9269,2.9231,3.0233,3.0679,3.1389,3.1396,3.139,3.135,3.1396,3.1409,3.1692,3.1599,3.1702,3.1532,3.1589,3.155,3.1649,3.161,3.1732,3.1653,3.1805,3.1809,3.1707,3.1533,3.1608,3.1562,3.1809,3.1721,3.1707,3.1628,3.1629,3.1669,3.1768,3.1724,3.1653,3.1639,3.1711,3.1742,3.1713,3.1722,3.1608,3.1695,3.178,3.1738,3.1555,3.1527,3.1573,3.1671,3.1778,3.1813,3.1569,3.1426,3.1371,3.1453,3.157,3.147,3.1402,3.1474,3.1561,3.1589,3.1601,3.1626,3.1747,3.1638,3.1687,3.1723,3.1605,3.1736,3.1867,3.1907,3.1865,3.1793,3.1883,3.2043,3.2162,3.2205,3.2122,3.2174,3.2441,3.2672,3.2742,3.2757,3.2474,3.2515,3.2779,3.2723,3.2368,3.2462,3.2528,3.2644,3.2593,3.2462,3.2518,3.261,3.2623,3.264,3.2527,3.2582,3.2668,3.2646,3.2689,3.2813,3.2813,3.2985,3.3073,3.3162,3.3028,3.2994,3.316,3.334,3.3286,3.3289,3.3198,3.316,3.3319,3.3379,3.3356,3.3271,3.3208,3.3277,3.3291,3.3264,3.3313,3.3243,3.3096,3.2927,3.2975,3.2897,3.285,3.2931,3.2913,3.2977,3.2974,3.3083,3.3183,3.3172,3.3205,3.3378,3.3454,3.3595,3.372,3.3563,3.3555,3.3609,3.3685,3.3783,3.3751,3.3457,3.3217,3.3183,3.303,3.2759,3.2546,3.2245,3.2059,3.2172,3.2194,3.2071,3.2028,3.1898,3.1952,3.1959,3.2014,3.1936,3.1857,3.1896,3.1888,3.1913,3.1841,3.183,3.1761,3.2352,3.3563,3.5806,3.8651,4.1635,4.3814,4.4474,4.3576,4.2165,3.9228,3.4089,3.1255,2.9617,2.9252,2.9917,3.0593,3.1015,3.1207,3.1549,3.1571,3.1568,3.1397,3.1429,3.1565,3.1828,3.1757,3.17,3.1543,3.1637,3.1651,3.1672,3.1624,3.1709,3.1693,3.1714,3.1723,3.1795,3.1866,3.1772,3.1736,3.1711,3.1709,3.1754,3.171,3.177,3.177,3.1753,3.1754,3.1764,3.1711,3.1739,3.1801,3.172,3.1706,3.1793,3.1787,3.1767,3.1746,3.1597,3.1663,3.1725,3.1731,3.165,3.155,3.1593,3.1654,3.1678,3.1621,3.1547,3.1636,3.1702,3.1835,3.1899,3.182,3.1766,3.1821,3.1865,3.1947,3.1855,3.1849,3.201,3.2076,3.1994,3.2204,3.2178,3.2228,3.2235,3.2381,3.2572,3.2579,3.2466,3.2677,3.2696,3.2775,3.2743,3.2814,3.2908,3.2811,3.2672,3.2692,3.2846,3.2744,3.2521,3.2682,3.2575,3.2659,3.2754,3.2676,3.2676,3.266,3.274,3.2767,3.2803,3.2874,3.2937,3.3066,3.3177,3.3262,3.3136,3.3173,3.3166,3.3278,3.3461,3.3387,3.3324,3.3348,3.3462,3.3575,3.3531,3.3288,3.3301,3.3388,3.3386,3.3335,3.3234,3.312,3.3086,3.3169,3.3092,3.3038,3.297,3.2877,3.298,3.2814,3.2812,3.2705,3.2682,3.272,3.2713,3.266,3.2585,3.2542,3.2548,3.2579,3.2543,3.2451,3.2395,3.2437,3.2436,3.2432,3.2314,3.2329,3.2379,3.239,3.234,3.2237,3.22,3.2276,3.2292,3.2218,3.2196,3.2201,3.223,3.2277,3.2242,3.2204,3.2218,3.223,3.2287,3.221,3.2233,3.2255,3.2206
