5.7578,5.7366,5.7442,5.7435,5.7295,5.7085,5.6876,5.6796,5.6818,5.6733,5.6655,5.6949,5.6577,5.6701,5.6862,5.6615,5.653,5.6563,5.6646,5.6753,5.663,5.6607,5.6637,5.659,5.6934,5.6706,5.6485,5.668,5.6486,5.6669,5.6698,5.6688,5.6895,5.7328,5.8119,5.9238,6.0497,6.2331,6.3417,6.21,5.8427,5.5658,5.5013,5.5062,5.5195,5.6142,5.6625,5.7283,5.7174,5.7182,5.7033,5.6918,5.6866,5.7244,5.7164,5.6925,5.6899,5.7104,5.7158,5.7174,5.7209,5.7246,5.7364,5.7251,5.7337,5.7355,5.7229,5.7083,5.7363,5.7614,5.7529,5.7373,5.738,5.7574,5.774,5.7798,5.7731,5.765,5.7828,5.7773,5.7793,5.7828,5.8062,5.7895,5.8377,5.8522,5.831,5.8571,5.8427,5.8728,5.8866,5.8618,5.8745,5.8939,5.9169,5.9135,5.891,5.8959,5.9057,5.9094,5.9234,5.8905,5.8697,5.8524,5.8524,5.8196,5.7965,5.7871,5.7725,5.7593,5.7624,5.7421,5.7185,5.7066,5.7186,5.7089,5.7201,5.7045,5.6823,5.685,5.7057,5.6884,5.6905,5.7024,5.7033,5.6965,5.699,5.6931,5.6631,5.6922,5.7295,5.7083,5.693,5.6952,5.6855,5.7175,5.6916,5.7103,5.7099,5.7144,5.7221,5.6964,5.7179,5.7286,5.713,5.7062,5.7094,5.7035,5.6959,5.6878,5.7063,5.7357,5.696,5.7028,5.7152,5.7206,5.7258,5.7208,5.7264,5.7508,5.7769,5.7814,5.8028,5.7529,5.7201,5.7556,5.779,5.7811,5.7535,5.7469,5.7536,5.7428,5.7214,5.7157,5.7207,5.6965,5.6961,5.6803,5.6599,5.6622,5.6633,5.6658,5.6781,5.6685,5.6739,5.6744,5.6796,5.6835,5.6509,5.6539,5.6579,5.649,5.6754,5.6757,5.6652,5.6513,5.6555,5.6844,5.6704,5.6686,5.6915,5.721,5.8317,5.949,6.078,6.243,6.3497,6.1481,5.7959,5.5181,5.4611,5.5063,5.5437,5.6386,5.7108,5.7102,5.6992,5.7016,5.7014,5.7085,5.6753,5.7167,5.7099,5.7002,5.7094,5.7048,5.7203,5.7156,5.7252,5.7072,5.723,5.7232,5.7188,5.7525,5.7232,5.7139,5.7392,5.7519,5.7569,5.7554,5.7179,5.7513,5.7562,5.7616,5.7228,5.7599,5.7724,5.7647,5.7842,5.8079,5.7834,5.794,5.8181,5.8246,5.8321,5.8446,5.8531,5.874,5.8681,5.8908,5.8921,5.8903,5.9128,5.9224,5.9049,5.9227,5.9295,5.8995,5.9051,5.8773,5.8593,5.8557,5.833,5.8188,5.8158,5.7806,5.7781,5.7599,5.7692,5.7394,5.7401,5.7178,5.688,5.7152,5.6991,5.6886,5.6906,5.6922,5.6982,5.6872,5.6789,5.6879,5.6938,5.6951,5.6913,5.6953,5.689,5.6892,5.6873,5.6807,5.6984,5.7016,5.7107,5.6963,5.6964,5.7066,5.684,5.671,5.6941,5.6975,5.7055,5.6965,5.698,5.7167,5.7079,5.6916,5.678,5.6595,5.6886,5.7043,5.6942,5.6579,5.6967,5.6897,5.6765,5.6891,5.6663,5.6972,5.7097,5.7064,5.7298,5.7305,5.7428,5.7495,5.7605,5.7348,5.7257,5.7235,5.7461,5.7692,5.7495,5.7412,5.7267,5.7286,5.7207,5.704,5.7109,5.6863,5.6453,5.6482,5.6594,5.6447,5.6522,5.6398,5.6684,5.6699,5.6489,5.6492,5.6497,5.6404,5.6289,5.648,5.6537,5.6435,5.6655,5.677,5.6624,5.6306,5.6568,5.6689,5.6788,5.6841,5.7035,5.7494,5.8465,6.0282,6.1586,6.3359,6.3718,6.1461,5.7943,5.5099,5.4624,5.4644,5.5216,5.6565,5.7019,5.6986,5.7091,5.7038,5.6894,5.7043,5.711,5.7309,5.7041,5.7009,5.7192,5.7246,5.7165,5.7246,5.708,5.7134,5.7201,5.7262,5.7026,5.7013,5.7213,5.7319,5.7343,5.7265,5.73,5.7424,5.7462,5.7454,5.7196,5.7378,5.7529,5.7645,5.7472,5.7576,5.7693,5.7816,5.792,5.8079,5.8089,5.8057,5.8278,5.83,5.8124,5.8305,5.843,5.8601,5.8829,5.8806,5.8601,5.8722,5.8869,5.9035,5.8935,5.8813,5.9069,5.8851,5.902,5.8561,5.8252,5.796,5.8001,5.7682,5.7505,5.7558,5.722,5.7371,5.7297,5.6954,5.6863,5.6889,5.6815,5.6871,5.6906,5.6821,5.6955,5.6694,5.6768,5.6831,5.6715,5.6536,5.6643,5.6928,5.6839,5.686,5.6657,5.6612,5.6782,5.6973,5.6882,5.677,5.6916,5.6749,5.6742,5.6855,5.6803,5.6594,5.6857,5.6942,5.7013,5.6849,5.6522,5.6818,5.6627,5.6918,5.6746,5.6791,5.6741,5.6882,5.6477,5.6932,5.6839,5.6587,5.6944,5.6913,5.6862,5.6508,5.6898,5.7173,5.7421,5.7197,5.7295,5.7469,5.756,5.7393,5.7209,5.7351,5.7292,5.7703,5.7617,5.7313,5.7077,5.7154,5.7161,5.673,5.6597,5.6503,5.6405,5.6398,5.6694,5.6477,5.6661,5.65,5.654,5.6396,5.6546,5.6458,5.6505,5.6261,5.6675,5.6607,5.6476,5.6586,5.6413,5.6704,5.6569,5.6431,5.6422,5.6875,5.6735,5.6945,5.6823,5.7251,5.8205,5.9813,6.1405,6.3056,6.3658,6.0683,5.7127,5.4791,5.4425,5.4741,5.5414,5.6599,5.7171,5.7303,5.685,5.6937,5.7152,5.711,5.719,5.7111,5.6803,5.7276,5.7204,5.7133,5.7269,5.7117,5.7272,5.7233,5.7292,5.7157,5.7181,5.7144,5.731,5.7345,5.7489,5.7402,5.7159,5.7474,5.7754,5.7568,5.7606,5.7534,5.7847,5.7931,5.7971,5.7849,5.7945,5.8072,5.8109,5.8082,5.8312,5.8631,5.8719,5.8477,5.8677,5.8804,5.8874,5.8896,5.9005,5.9049,5.8993,5.9307,5.9178,5.9373,5.9271,5.9158,5.9233,5.9417,5.8924,5.8864,5.8524,5.8273,5.8306,5.8218,5.7746,5.7672,5.757,5.7596,5.7527,5.7202,5.7067,5.6973,5.7252,5.6998,5.7235,5.6983,5.7146,5.7067,5.6991,5.6996,5.7012,5.6863,5.6904,5.6929,5.699,5.698,5.7041,5.706,5.696,5.7226,5.7119,5.6972,5.6895,5.7057,5.7123,5.7147,5.6896,5.7194,5.6946,5.7183,5.7311,5.7078,5.6828,5.6976,5.7266,5.7354,5.7013,5.6944,5.7119,5.7131,5.7327,5.7168,5.7236,5.7386,5.7604,5.7752,5.7581,5.7631,5.7553,5.7438,5.7583,5.7702,5.7663,5.7532,5.7543,5.762,5.7352,5.7176,5.7006,5.7025,5.6715,5.6712,5.6614,5.6599,5.673,5.6814,5.6705,5.6435,5.6574,5.6608,5.6468,5.642,5.6627,5.6504,5.6432,5.6393,5.6453,5.667,5.6604,5.6523,5.6558,5.6643,5.6462,5.6423,5.6785,5.7393,5.8253,5.9487,6.0679,6.2395,6.3243,6.1032,5.7586,5.5247,5.4838,5.4984,5.5137,5.5745,5.6483,5.6875,5.7077,5.7118,5.6971,5.6759,5.678,5.6999,5.7281,5.703,5.7043,5.6969,5.7072,5.703,5.6907,5.6984,5.7173,5.722,5.7068,5.7132,5.7106,5.7252,5.7233,5.7088,5.7232,5.7188,5.7205,5.7514,5.7317,5.7387,5.7454,5.7653,5.7642,5.7754,5.7693,5.7669,5.7913,5.7939,5.8191,5.8254,5.8055,5.8109,5.8391,5.8546,5.8681,5.8621,5.867,5.897,5.8739,5.882,5.9005,5.8731,5.9058,5.9002,5.8725,5.858,5.8301,5.8369,5.8427,5.8175,5.7982,5.7727,5.7681,5.7587,5.7353,5.7212,5.7122,5.6824,5.692,5.7002,5.6748,5.6696,5.6733,5.6923,5.6781,5.6824,5.6623,5.6571,5.6722,5.6695,5.6639,5.6677,5.6608,5.6704,5.6634,5.6796,5.67,5.6615,5.6731,5.6884,5.6805,5.6617,5.6611,5.6814,5.6934,5.6765,5.6567,5.687,5.6803,5.6885,5.7002,5.6817,5.6732,5.672,5.695,5.7017,5.7277,5.7195,5.7257,5.7392,5.7449,5.7244,5.7169,5.7269,5.7525,5.7524,5.7567,5.7216,5.7152,5.7153,5.6902,5.6847,5.6756,5.6684,5.6547,5.6607,5.6463,5.6535,5.6432,5.6273,5.6351,5.6306,5.6406,5.6237,5.648,5.638,5.6438,5.6407,5.6198,5.6107,5.6522,5.6399,5.6421,5.6304,5.6347,5.6549,5.6634,5.6507,5.68,5.764,5.9108,6.0594,6.2095,6.285,6.141,5.828,5.5207,5.4666,5.4408,5.5086,5.5748,5.6432,5.6785,5.6818,5.6661,5.6707,5.6881,5.6754,5.689,5.6724,5.6887,5.6831,5.691,5.6833,5.6966,5.6911,5.7,5.7105,5.6934,5.6807,5.7241,5.7075,5.7198,5.7009,5.7082,5.7022,5.7286,5.7159,5.7348,5.7341,5.7255,5.7738,5.7608,5.7444,5.7587,5.7676,5.7827,5.8022,5.7969,5.8056,5.8249,5.8242,5.8096,5.8373,5.8393,5.8474,5.8651,5.8708,5.8649,5.8783,5.8778,5.9041,5.8968,5.9065,5.8681,5.8812,5.8768,5.8769,5.8373,5.8098,5.804,5.8039,5.7717,5.7549,5.745,5.7206,5.7245,5.7232,5.698,5.6915,5.6907,5.6967,5.6838,5.6774,5.6707,5.6693,5.6733,5.6808,5.6837,5.67,5.6758,5.6834,5.6747,5.6663,5.6686,5.642,5.6856,5.697,5.698,5.6661,5.6637,5.689,5.6768,5.6966,5.6901,5.6765,5.6951,5.68,5.6944,5.6714,5.6651,5.7023,5.6754,5.6889,5.6953,5.6982,5.7056,5.7365,5.7457,5.7719,5.7503,5.7664,5.7751,5.7853,5.7668,5.7583,5.7866,5.7775,5.7663,5.748,5.6934,5.6886,5.6855,5.6664,5.658,5.6858,5.6654,5.6588,5.6584,5.6458,5.6623,5.6492,5.6498,5.6689,5.6534,5.6445,5.658,5.6582,5.664,5.6607,5.6489,5.6555,5.6809,5.6602,5.6553,5.6552,5.6816,5.6747,5.7312,5.7869,5.8657,6.0342,6.1938,6.3553,6.264,5.9476,5.5972,5.4755,5.495,5.519,5.59,5.6663,5.7181,5.7128,5.7321,5.7263,5.7029,5.705,5.6996,5.7183,5.7228,5.7115,5.7066,5.7092,5.7273,5.7523,5.7264,5.7177,5.7309,5.7461,5.7528,5.7454,5.7382,5.745,5.7619,5.7498,5.7623,5.7375,5.7531,5.7678,5.7924,5.815,5.7964,5.8015,5.8079,5.8117,5.8212,5.798,5.8194,5.8505,5.8658,5.8643,5.8875,5.8892,5.9054,5.885,5.8943,5.8886,5.9332,5.9472,5.9347,5.9425,5.9319,5.9462,5.953,5.9432,5.922,5.907,5.8774,5.8582,5.8569,5.8335,5.823,5.8144,5.7677,5.7584,5.7582,5.7597,5.7488,5.7342,5.7461,5.722,5.7199,5.7256,5.7436,5.727,5.735,5.7154,5.7054,5.7068,5.7116,5.7319,5.7318,5.7077,5.7129,5.7187,5.7115,5.7194,5.7283,5.7245,5.7192,5.7254,5.7383,5.7322,5.7319,5.7411,5.7365,5.7418,5.7308,5.7366,5.7437,5.7438,5.7368,5.7225,5.7328,5.7401,5.7308,5.7296,5.7379,5.7326,5.722,5.7332,5.7365,5.7215,5.7228,5.7431,5.7384,5.798,5.8186,5.7897,5.7935,5.8003,5.7901,5.7872,5.7976,5.8089,5.7985,5.8073,5.8158,5.8012,5.7769,5.7617,5.7402,5.7295,5.7086,5.7146,5.7222,5.714,5.6997,5.6955,5.6838,5.7111,5.7023,5.6965,5.7066,5.6867,5.6919,5.7064,5.6999,5.6993,5.6939,5.7202,5.7143,5.7073,5.6987,5.7114,5.7194,5.7506,5.762,5.8125,5.9275,6.074,6.2315,6.3889,6.3502,6.023,5.6819,5.5245,5.5276,5.5301,5.5795,5.6793,5.7723,5.7665,5.7521,5.763,5.7566,5.7639,5.7807,5.7573,5.7547,5.7568,5.7805,5.7772,5.7659,5.7547,5.7563,5.7852,5.7869,5.7891,5.7809,5.7747,5.8031,5.792,5.798,5.7839,5.7896,5.825,5.8087,5.8138,5.7989,5.806,5.8252,5.8289,5.8221,5.8455,5.874,5.8664,5.8709,5.8627,5.8765,5.88,5.8924,5.9184,5.9237,5.9252,5.9228,5.9378,5.9635,5.9674,5.9849,5.97,5.9746,5.9885,5.9859,5.9763,5.9522,5.9589,5.9328,5.9296,5.9104,5.8909,5.865,5.8563,5.8338,5.8196,5.7988,5.8031,5.8029,5.7892,5.777,5.7662,5.7627,5.765,5.7628,5.7662,5.7614,5.7633,5.7694,5.7731,5.7647,5.7578,5.7653,5.7606,5.7655,5.7741,5.776,5.7609,5.7691,5.7887,5.7812,5.7661,5.7638,5.7643,5.781,5.7691,5.7678,5.7663,5.7753,5.7673,5.7713,5.769,5.7603,5.7624,5.7761,5.7708,5.7775,5.7617,5.7537,5.7754,5.7625,5.7639,5.7436,5.7515,5.757,5.7715,5.8025,5.8033,5.8269,5.839,5.8459,5.8248,5.8399,5.8193,5.7997,5.8377,5.8503,5.8539,5.8257,5.8224,5.7964,5.7806,5.771,5.7496,5.7406,5.7445,5.746,5.7309,5.7181,5.7293,5.7337,5.7207,5.7283,5.7317,5.7248,5.722,5.7327,5.7269,5.7108,5.7266,5.7379,5.7435,5.7289,5.7136,5.7324,5.7246,5.7478,5.7435,5.7851,5.8668,5.9859,6.0672,6.2146,6.3678,6.4128,6.1746,5.8116,5.5461,5.5168,5.5659,5.6367,5.7212,5.7726,5.7983,5.7893,5.7915,5.7764,5.79,5.7704,5.7845,5.786,5.7919,5.7897,5.7714,5.7851,5.798,5.7979,5.8084,5.7958,5.8073,5.8014,5.8256,5.7848,5.8027,5.8098,5.8344,5.8458,5.8316,5.8375,5.8307,5.8438,5.8603,5.8721,5.8505,5.8638,5.8729,5.874,5.8915,5.8998,5.8958,5.9182,5.9228,5.9497,5.9488,5.9561,5.9596,5.9811,6.0071,5.9969,5.9954,5.9969,6.0211,6.0234,6.0385,6.0307,6.0119,5.9869,6.0046,5.9782,5.9657,5.9345,5.9097,5.9021,5.8905,5.8693,5.8412,5.8478,5.833,5.8249,5.7993,5.8035,5.8014,5.7991,5.8081,5.7855,5.7755,5.7828,5.7905,5.7847,5.7861,5.7709,5.7687,5.7729,5.7711,5.7769,5.7896,5.7811,5.801,5.8075,5.7953,5.7796,5.7911,5.7997,5.8089,5.798,5.7958,5.7839,5.7879,5.7995,5.787,5.8142,5.7993,5.8073,5.8088,5.8013,5.7971,5.7868,5.8063,5.7991,5.7934,5.797,5.7803,5.809,5.8012,5.7966,5.7775,5.7983,5.8346,5.8503,5.8755,5.8641,5.8467,5.8678,5.8506,5.841,5.8673,5.8591,5.8684,5.8783,5.8502,5.8199,5.8087,5.7936,5.7822,5.7854,5.7812,5.7523,5.7702,5.7541,5.7483,5.7711,5.7547,5.7548,5.7639,5.7562,5.7761,5.7526,5.7572,5.7567,5.7582,5.7686,5.7465,5.7545,5.7651,5.7688,5.7732,5.7554,5.7742,5.8253,5.8765,5.9982,6.1284,6.2754,6.4371,6.3815,6.0457,5.7165,5.6003,5.5803,5.6154,5.6847,5.7457,5.8033,5.8185,5.8216,5.8146,5.8102,5.7823,5.808,5.7917,5.8008,5.8059,5.8111,5.8035,5.8139,5.8123,5.8232,5.8248,5.8125,5.8289,5.8193,5.8185,5.8346,5.8222,5.8399,5.8464,5.8468,5.8333,5.8336,5.8422,5.8643,5.8679,5.8672,5.8555,5.8847,5.8714,5.8722,5.8964,5.886,5.9115,5.9232,5.9338,5.9244,5.9497,5.9545,5.9649,5.9855,5.9734,6.0014,6.0009,6.0158,6.0077,6.0082,6.0188,6.0167,6.0253,5.9954,6.0076,5.9606,5.952,5.9395,5.9188,5.8914,5.8801,5.8536,5.8617,5.8407,5.8192,5.8184,5.7972,5.8125,5.7879,5.8036,5.7852,5.7773,5.7928,5.7782,5.7799,5.8017,5.7855,5.7906,5.7745,5.7816,5.7791,5.7686,5.7909,5.7887,5.798,5.7817,5.7825,5.7791,5.7966,5.7866,5.7981,5.7901,5.7985,5.799,5.8005,5.8033,5.7686,5.7855,5.7934,5.8108,5.8149,5.8169,5.8436,5.8474,5.8843,5.8882,5.8697,5.8665,5.8788,5.8752,5.8702,5.8648,5.8789,5.8683,5.8657,5.8465,5.7992,5.8003,5.7873,5.7894,5.7989,5.7731,5.7616,5.7625,5.7656,5.7738,5.7672,5.7456,5.7609,5.7577,5.773,5.7683,5.7699,5.7608,5.7714,5.7485,5.7546,5.7575,5.7432,5.771,5.7479,5.7678,5.7954,5.7914,5.8142,5.9045,6.0338,6.1718,6.3371,6.4249,6.253,5.9458,5.6581,5.5918,5.6321,5.6356,5.7056,5.7745,5.8109,5.7966,5.8217,5.8185,5.8087,5.8043,5.8087,5.8222,5.8189,5.7993,5.8192,5.81,5.8282,5.8381,5.8265,5.8247,5.8208,5.8239,5.8319,5.842,5.823,5.8417,5.8497,5.8587,5.869,5.8563,5.8801,5.8817,5.8643,5.8499,5.8635,5.8798,5.896,5.9069,5.8943,5.9034,5.9135,5.9152,5.9346,5.9549,5.9386,5.9641,5.9785,5.9941,5.9901,5.9863,5.9965,6.0006,5.9985,6.0245,6.0377,6.0095,6.0009,6.0245,5.99,5.9744,5.9459,5.9473,5.9328,5.9249,5.8984,5.8771,5.8566,5.8578,5.8371,5.8203,5.821,5.8198,5.8062,5.822,5.7991,5.7934,5.8165,5.8079,5.8072,5.8019,5.7831,5.7922,5.8165,5.8113,5.7972,5.7825,5.8056,5.8373,5.8262,5.7989,5.8011,5.8104,5.8076,5.8148,5.8156,5.7993,5.8039,5.8176,5.8141,5.8139,5.8073,5.8027,5.812,5.82,5.8234,5.8262,5.8235,5.8618,5.8827,5.8856,5.8784,5.9004,5.905,5.9247,5.9217,5.8975,5.8797,5.9093,5.9081,5.8918,5.8859,5.855,5.8226,5.8216,5.8121,5.8045,5.7975,5.7962,5.8116,5.7904,5.8084,5.778,5.787,5.7919,5.7944,5.7848,5.7842,5.7707,5.7833,5.7827,5.7868,5.7912,5.7841,5.7921,5.8052,5.8045,5.7914,5.7986,5.8453,5.8749,5.9563,6.091,6.2282,6.3276,6.4721,6.4438,6.0939,5.7474,5.6357,5.6299,5.6444,5.7354,5.7952,5.8343,5.8578,5.8481,5.8297,5.8438,5.8541,5.8502,5.8478,5.8427,5.8525,5.8537,5.8761,5.8519,5.85,5.858,5.8709,5.8828,5.8693,5.8827,5.8815,5.8922,5.8853,5.8893,5.8993,5.8967,5.888,5.8945,5.9195,5.9215,5.9075,5.9178,5.9266,5.9516,5.9496,5.9481,5.9544,5.961,5.9929,5.9916,5.9934,6.012,6.0391,6.0449,6.0595,6.0576,6.0478,6.0695,6.0803,6.085,6.0874,6.0871,6.0879,6.0927,6.0766,6.0613,6.0429,6.0387,6.045,6.0187,5.9976,5.9657,5.9478,5.9374,5.9285,5.9093,5.9033,5.895,5.8945,5.9017,5.8862,5.8714,5.876,5.8789,5.8748,5.884,5.887,5.8716,5.8957,5.8998,5.8927,5.8756,5.882,5.8785,5.8811,5.8853,5.8849,5.8884,5.8809,5.8927,5.8736,5.8818,5.8941,5.8869,5.8945,5.8839,5.8916,5.8899,5.9039,5.8979,5.9056,5.9074,5.8908,5.9024,5.8953,5.9069,5.8949,5.8963,5.8942,5.8854,5.9111,5.9157,5.9096,5.9004,5.9102,5.8996,5.9062,5.9447,5.9633,5.9745,5.9678,5.9718,5.9648,5.963,5.9643,5.9614,5.9769,5.9635,5.9624,5.949,5.9292,5.9197,5.8871,5.8611,5.8539,5.8792,5.8851,5.8794,5.87,5.8534,5.8633,5.8721,5.8646,5.8425,5.8403,5.8663,5.8522,5.856,5.8451,5.8348,5.8422,5.843,5.8555,5.8437,5.8456,5.8641,5.8801,5.8855,5.9115,6.0109,6.1268,6.2892,6.4404,6.5196,6.3529,5.9972,5.704,5.6525,5.6447,5.7095,5.8021,5.8945,5.8947,5.8772,5.8862,5.8938,5.9049,5.8945,5.8946,5.8786,5.8936,5.9084,5.9078,5.8918,5.8966,5.8971,5.9279,5.9118,5.9089,5.9027,5.9131,5.9153,5.9355,5.9295,5.9073,5.9132,5.9415,5.9319,5.9369,5.9415,5.9319,5.9489,5.9678,5.9641,5.963,5.9753,6.0014,6.0094,6.0044,6.008,6.0342,6.0445,6.0686,6.0701,6.0696,6.068,6.0721,6.0935,6.0951,6.1058,6.1131,6.1269,6.1328,6.1332,6.124,6.1249,6.1166,6.0919,6.0563,6.0475,6.0216,5.9999,5.9838,5.9809,5.9403,5.9362,5.9299,5.9084,5.9185,5.9221,5.9065,5.8992,5.906,5.9071,5.8842,5.8735,5.8744,5.9069,5.8965,5.8938,5.8698,5.8806,5.8784,5.8829,5.8949,5.8686,5.8757,5.8929,5.9042,5.8903,5.8859,5.8799,5.8874,5.88,5.8828,5.8848,5.8834,5.8867,5.8996,5.8856,5.8791,5.8784,5.8893,5.8835,5.8778,5.8739,5.8732,5.8918,5.8873,5.8672,5.8865,5.8588,5.8719,5.8776,5.8774,5.8783,5.8734,5.8706,5.8962,5.9394,5.9195,5.9128,5.9065,5.9006,5.9001,5.9036,5.9306,5.9438,5.9528,5.9635,5.9488,5.9348,5.9392,5.9529,5.9375,5.9406,5.9581,5.9557,5.9634,5.9437,5.9288,5.8837,5.8599,5.856,5.846,5.8528,5.8259,5.8243,5.8343,5.843,5.8409,5.8241,5.8227,5.8483,5.8606,5.8276,5.8324,5.8416,5.8251,5.8243,5.8289,5.8287,5.8123,5.8385,5.8318,5.8532,5.8438,5.8717,5.8934,5.9665,6.0971,6.2383,6.401,6.532,6.3616,6.0233,5.6959,5.6236,5.6538,5.6847,5.7902,5.8649,5.895,5.8708,5.8616,5.878,5.8605,5.8577,5.8643,5.8619,5.8773,5.8465,5.8752,5.8763,5.8678,5.8715,5.8813,5.8593,5.8781,5.8967,5.8841,5.8833,5.8904,5.8915,5.9025,5.9005,5.9008,5.9054,5.9009,5.9025,5.9528,5.9104,5.9042,5.9126,5.9554,5.9339,5.9402,5.9351,5.9752,5.9956,5.9877,5.996,5.9964,5.9843,6.0194,6.042,6.027,6.0454,6.0629,6.0729,6.0738,6.0652,6.0639,6.0675,6.0585,6.0853,6.0486,6.0413,6.0045,5.9939,5.9853,5.995,5.937,5.9056,5.898,5.9004,5.9063,5.8551,5.8474,5.8478,5.8413,5.8343,5.8305,5.8181,5.8286,5.8491,5.823,5.8217,5.8321,5.8194,5.8206,5.8226,5.8207,5.8344,5.8046,5.8016,5.8212,5.8545,5.8329,5.8216,5.8188,5.8144,5.8322,5.8209,5.8249,5.8164,5.8416,5.8419,5.8244,5.815,5.8286,5.825,5.8414,5.8096,5.8107,5.8011,5.8195,5.8266,5.8331,5.7984,5.7904,5.7971,5.8056,5.8017,5.8132,5.8306,5.826,5.7986,5.7806,5.7953,5.7818,5.7853,5.786,5.7874,5.7805,5.8205,5.8547,5.8474,5.8397,5.8753,5.8501,5.8336,5.8297,5.8359,5.8489,5.8569,5.854,5.8784,5.8126,5.7986,5.7894,5.7666,5.7817,5.7626,5.7497,5.7389,5.7558,5.7575,5.7519,5.7568,5.7155,5.7083,5.7301,5.7392,5.7546,5.7252,5.7143,5.7317,5.7408,5.7443,5.7448,5.7278,5.7344,5.7415,5.7304,5.7344,5.76,5.8047,5.8887,6.0234,6.1502,6.2502,6.4284,6.4037,6.0892,5.7308,5.5358,5.5442,5.5827,5.6448,5.7491,5.7924,5.7861,5.7974,5.7972,5.8004,5.7856,5.7979,5.8374,5.7956,5.7899,5.8064,5.807,5.8083,5.8006,5.8054,5.7976,5.8306,5.8127,5.8065,5.8148,5.8331,5.8015,5.8284,5.8342,5.8239,5.856,5.8358,5.8334,5.8553,5.8596,5.8378,5.8337,5.865,5.8923,5.9148,5.896,5.8809,5.93,5.9394,5.9264,5.9366,5.9602,5.9395,5.9681,5.9927,5.9768,5.9837,5.9814,6.0002,6.0303,6.0261,5.9994,6.0077,6.0161,6.0068,5.9726,5.9694,5.9232,5.9296,5.9418,5.868,5.8301,5.8442,5.8157,5.8229,5.8056,5.7798,5.7691,5.7978,5.7609,5.7714,5.7672,5.7691,5.7808,5.7261,5.7556,5.7505,5.7423,5.7512,5.7729,5.7738,5.7458,5.7792,5.7636,5.7531,5.7837,5.7884,5.772,5.7791,5.7605,5.782,5.7935,5.773,5.7684,5.8042,5.7854,5.818,5.7817,5.7726,5.8053,5.7914,5.8244,5.802,5.7985,5.7884,5.7941,5.7926,5.8021,5.7957,5.8337,5.8148,5.8485,5.8387,5.8622,5.8434,5.8419,5.8568,5.8365,5.8545,5.8691,5.8338,5.8635,5.8512,5.8205,5.8086,5.7996,5.7905,5.7904,5.7605,5.759,5.7744,5.7531,5.7117,5.7342,5.7395,5.762,5.7582,5.728,5.7376,5.7471,5.7329,5.7624,5.7352,5.7222,5.7428,5.7358,5.7361,5.7457,5.7255,5.7377,5.7396,5.7424,5.7987,5.7833,5.8599,6.0099,6.1293,6.298,6.4144,6.2234,5.9233,5.6528,5.5721,5.572,5.631,5.6881,5.7475,5.7784,5.7666,5.823,5.762,5.7675,5.7678,5.777,5.764,5.7668,5.7838,5.7918,5.7757,5.7792,5.7764,5.8088,5.8106,5.778,5.765,5.7896,5.8317,5.8209,5.8105,5.8073,5.8069,5.8048,5.8204,5.8319,5.8334,5.8494,5.8299,5.8237,5.8515,5.8588,5.8363,5.8785,5.9075,5.8679,5.8819,5.8958,5.9229,5.9285,5.9599,5.9474,5.946,5.9564,5.9783,5.9468,5.9712,5.9974,5.9817,6.0523,5.9806,5.9412,6.0349,6.008,5.9702,5.9652,5.9204,5.896,5.8812,5.8807,5.8698,5.8323,5.8194,5.8306,5.8199,5.8316,5.8341,5.7967,5.7923,5.7881,5.8195,5.8184,5.8026,5.7714,5.8095,5.7956,5.798,5.7978,5.8019,5.8232,5.7931,5.8314,5.8092,5.8063,5.8416,5.8019,5.8313,5.8057,5.8128,5.8294,5.8558,5.8391,5.8379,5.8145,5.8375,5.8358,5.8475,5.846,5.835,5.8882,5.8938,5.8929,5.9013,5.9387,5.9428,5.9319,5.9716,5.9715,5.915,5.9193,5.9422,5.941,5.9451,5.8891,5.8904,5.8881,5.8768,5.8372,5.832,5.8269,5.8394,5.817,5.8425,5.8476,5.8143,5.8162,5.8334,5.841,5.8164,5.8276,5.818,5.8344,5.8163,5.8153,5.8156,5.8355,5.8392,5.8349,5.803,5.8147,5.8505,5.8395,5.8718,5.9481,6.0932,6.2213,6.3645,6.5106,6.4782,6.1588,5.81,5.6625,5.6287,5.6678,5.7103,5.793,5.8441,5.8534,5.8621,5.8691,5.8365,5.883,5.8704,5.8578,5.891,5.8813,5.859,5.8762,5.8692,5.872,5.8856,5.9126,5.9123,5.8974,5.8649,5.8793,5.9306,5.9194,5.8958,5.8888,5.914,5.9394,5.9175,5.9353,5.9124,5.9354,5.952,5.9445,5.9547,6.0108,5.9863,5.9906,5.98,6.0153,5.9939,6.007,6.0602,6.0577,6.064,6.0547,6.0627,6.0716,6.1021,6.1023,6.1012,6.1077,6.1435,6.1,6.0974,6.1095,6.0806,6.0688,6.0677,6.0392,6.0345,6.0166,5.9871,5.9528,5.9418,5.9609,5.9355,5.9228,5.9181,5.9253,5.8945,5.894,5.8855,5.8913,5.9169,5.9188,5.9244,5.922,5.8834,5.895,5.8997,5.8906,5.8885,5.8899,5.9095,5.8932,5.8757,5.8942,5.9121,5.8828,5.9237,5.8843,5.877,5.9054,5.9201,5.9167,5.9148,5.9375,5.9068,5.9026,5.8931,5.8929,5.9015,5.9005,5.9199,5.9185,5.9639,5.9749,5.963,5.9912,5.9785,5.9875,5.9897,5.9886,5.9986,6.0054,6.022,5.9843,5.9818,5.9595,5.9283,5.9156,5.8885,5.8894,5.9024,5.9059,5.8915,5.8896,5.8755,5.8689,5.8963,5.8795,5.8802,5.9054,5.8965,5.8845,5.8618,5.8617,5.8621,5.874,5.8591,5.8399,5.8343,5.8292,5.8536,5.8356,5.8397,5.8707,5.908,5.9996,6.1443,6.2845,6.4467,6.4843,6.2525,5.893,5.6657,5.6446,5.6257,5.6566,5.7589,5.8247,5.8584,5.8327,5.8392,5.8395,5.8612,5.8564,5.8484,5.8434,5.8679,5.88,5.8864,5.843,5.8345,5.8688,5.8752,5.8746,5.8765,5.8476,5.8653,5.8949,5.8992,5.8857,5.9001,5.8967,5.9043,5.8779,5.8788,5.878,5.9186,5.9195,5.9326,5.9291,5.9406,5.9534,5.9639,5.9711,5.9683,5.9523,5.9822,5.9964,6.0174,6.0258,6.0208,6.0623,6.0284,6.0611,6.0695,6.0673,6.0458,6.0874,6.0936,6.1099,6.0523,6.0402,6.0521,5.9989,5.976,5.9886,5.9942,5.9549,5.9372,5.9228,5.8937,5.8712,5.8622,5.9162,5.8482,5.8364,5.8599,5.8843,5.8487,5.8146,5.8292,5.8503,5.8551,5.841,5.8465,5.8414,5.8387,5.854,5.8384,5.8292,5.8623,5.8191,5.8408,5.8726,5.8845,5.8494,5.8139,5.8073,5.8367,5.8698,5.8506,5.8564,5.8281,5.858,5.8505,5.8327,5.8234,5.8248,5.8236,5.8627,5.8766,5.8338,5.8064,5.825,5.8552,5.837,5.8081,5.8106,5.8531,5.839,5.8197,5.8257,5.82,5.8341,5.8384,5.8704,5.8767,5.91,5.8916,5.912,5.9332,5.8863,5.8705,5.8766,5.9064,5.9286,5.8932,5.8919,5.8758,5.8579,5.8297,5.8229,5.79,5.7988,5.8073,5.8005,5.7876,5.7808,5.7927,5.7967,5.7927,5.8141,5.768,5.739,5.7781,5.7827,5.7732,5.7635,5.7826,5.7756,5.7969,5.7812,5.7808,5.7919,5.7915,5.7798,5.8014,5.8236,5.9,6.0214,6.154,6.3411,6.4979,6.399,6.0422,5.7161,5.6097,5.5765,5.6271,5.7336,5.8257,5.8322,5.8284,5.8302,5.7982,5.8406,5.8346,5.8339,5.8196,5.7969,5.8367,5.8376,5.8352,5.81,5.8315,5.8452,5.8467,5.855,5.8705,5.8335,5.8522,5.8453,5.862,5.8753,5.835,5.8369,5.8914,5.8904,5.857,5.8495,5.879,5.8846,5.8917,5.89,5.903,5.9094,5.9381,5.9269,5.9056,5.9584,5.9386,5.9793,5.9781,5.9749,5.9908,6.0264,6.027,6.011,6.0088,6.0126,6.0444,6.0396,6.055,6.0349,6.0205,5.9898,5.9974,6.021,5.9795,5.9514,5.9304,5.9065,5.9012,5.8671,5.8618,5.8354,5.8515,5.8307,5.8236,5.7848,5.7961,5.8152,5.8076,5.8066,5.8029,5.7696,5.7815,5.7878,5.7743,5.7672,5.7749,5.7891,5.8005,5.8126,5.7773,5.7785,5.7696,5.7885,5.784,5.7717,5.8138,5.772,5.7741,5.7834,5.7702,5.7708,5.7948,5.7861,5.7663,5.7817,5.7981,5.7718,5.7809,5.7919,5.7621,5.7693,5.7714,5.7727,5.7854,5.8142,5.7812,5.7831,5.7666,5.8095,5.8335,5.8411,5.8441,5.8634,5.8494,5.8492,5.8391,5.8218,5.8362,5.8729,5.8318,5.8506,5.8179,5.7868,5.7643,5.7569,5.7408,5.749,5.737,5.7238,5.7441,5.7265,5.6984,5.7178,5.721,5.7547,5.7064,5.7214,5.7023,5.6988,5.7291,5.6902,5.6974,5.7004,5.6987,5.7086,5.7258,5.7157,5.6937,5.7108,5.7404,5.7694,5.8487,5.9907,6.1199,6.2828,6.4247,6.1813,5.834,5.586,5.543,5.5402,5.542,5.6378,5.723,5.767,5.7613,5.739,5.7106,5.7362,5.7424,5.7431,5.7444,5.7618,5.7314,5.729,5.7519,5.7719,5.7336,5.7381,5.7529,5.7685,5.7632,5.7594,5.7582,5.7956,5.7925,5.7661,5.7572,5.7706,5.7881,5.7816,5.8037,5.7996,5.7796,5.7978,5.8104,5.791,5.8288,5.8474,5.8408,5.8314,5.8393,5.845,5.8782,5.892,5.8938,5.9047,5.9153,5.9012,5.9165,5.9347,5.9417,5.9428,5.9486,5.9556,5.9598,5.9433,5.9078,5.8935,5.9253,5.8773,5.9079,5.8203,5.811,5.805,5.7969,5.7978,5.7628,5.7262,5.7402,5.7538,5.7075,5.7084,5.7096,5.7232,5.7141,5.7172,5.7227,5.7025,5.6926,5.7259,5.6976,5.6949,5.7028,5.7108,5.7266,5.72,5.705,5.6952,5.7116,5.6898,5.7063,5.7155,5.6781,5.7057,5.7272,5.6909,5.7068,5.7028,5.7053,5.7059,5.7009,5.7317,5.7636,5.7628,5.7818,5.7886,5.7817,5.7835,5.7547,5.8068,5.8237,5.7963,5.7983,5.7932,5.7802,5.7666,5.7279,5.7002,5.6977,5.718,5.6871,5.6827,5.6841,5.6792,5.6661,5.7052,5.7225,5.6234,5.6513,5.6459,5.6554,5.6634,5.6669,5.6555,5.6527,5.6577,5.6459,5.6626,5.6829,5.6381,5.6374,5.6402,5.6465,5.6745,5.688,5.7902,5.8243,5.9157,6.0716,6.2341,6.3097,6.0942,5.7754,5.5052,5.4832,5.4626,5.5188,5.6082,5.7038,5.6752,5.6385,5.6762,5.6935,5.6546,5.6702,5.695,5.6588,5.6737,5.6615,5.6844,5.6584,5.6827,5.6851,5.6836,5.6877,5.6973,5.6762,5.7073,5.6908,5.6948,5.728,5.7017,5.6992,5.7101,5.6914,5.7214,5.7144,5.7316,5.7301,5.7285,5.7177,5.7314,5.745,5.7694,5.7422,5.7922,5.7785,5.7942,5.7984,5.805,5.8421,5.8385,5.8216,5.8362,5.8503,5.8648,5.8608,5.8828,5.8763,5.8799,5.8654,5.8448,5.8368,5.8583,5.8111,5.7837,5.7829,5.7657,5.7187,5.7217,5.704,5.6855,5.6902,5.6681,5.6467,5.6348,5.6386,5.6396,5.6435,5.6184,5.6699,5.601,5.6211,5.6458,5.6404,5.6077,5.6261,5.6288,5.6362,5.6207,5.6184,5.6259,5.6335,5.6371,5.6232,5.6217,5.6254,5.6569,5.6128,5.617,5.6267,5.6408,5.632,5.6331,5.6385,5.6232,5.6186,5.6553,5.6827,5.6703,5.6947,5.6973,5.7249,5.7023,5.7655,5.7268,5.6822,5.7106,5.7282,5.7452,5.7239,5.671,5.6724,5.6689,5.6551,5.6417,5.6112,5.5853,5.5957,5.6002,5.5911,5.5757,5.6104,5.6056,5.5793,5.6076,5.5788,5.5827,5.5694,5.5743,5.606,5.6028,5.6021,5.5917,5.5825,5.5924,5.5898,5.593,5.6011,5.6161,5.6484,5.6723,5.7742,5.9031,6.0662,6.2533,6.2877,5.9821,5.6039,5.4499,5.4082,5.4139,5.4272,5.5264,5.6163,5.633,5.6504,5.6401,5.6344,5.6324,5.628,5.615,5.6448,5.6393,5.6524,5.6451,5.6672,5.6589,5.6301,5.6357,5.6414,5.6233,5.6635,5.6384,5.645,5.6801,5.6526,5.648,5.6548,5.6717,5.6974,5.6737,5.6671,5.6752,5.6839,5.7109,5.7092,5.7076,5.717,5.7116,5.7307,5.7435,5.7415,5.7709,5.7687,5.7849,5.793,5.8389,5.8086,5.797,5.8338,5.8464,5.8509,5.857,5.8573,5.8811,5.8776,5.8416,5.8091,5.8174,5.8135,5.8084,5.7874,5.7646,5.7245,5.7637,5.7001,5.6735,5.6827,5.6682,5.651,5.6412,5.6489,5.6588,5.6378,5.66,5.6406,5.6323,5.6282,5.6192,5.6419,5.649,5.6354,5.6544,5.6173,5.6249,5.645,5.6431,5.6254,5.5968,5.6247,5.6391,5.6348,5.6228,5.6336,5.6391,5.6433,5.6509,5.6485,5.6562,5.6315,5.6142,5.6509,5.6638,5.6455,5.6212,5.6427,5.6395,5.6508,5.6276,5.6473,5.6678,5.6838,5.6562,5.7015,5.7349,5.7192,5.7203,5.7319,5.7336,5.7065,5.6953,5.6989,5.7246,5.7175,5.6917,5.6774,5.6666,5.6591,5.6314,5.6127,5.6089,5.6175,5.6328,5.6053,5.5758,5.6013,5.6419,5.6107,5.5855,5.5988,5.598,5.5909,5.5746,5.5944,5.5942,5.5951,5.5851,5.6037,5.5917,5.5672,5.5997,5.6187,5.6486,5.6516,5.6684,5.7752,5.9123,6.0695,6.2235,6.2931,5.9914,5.6436,5.4897,5.4043,5.3873,5.4545,5.5568,5.6497,5.6582,5.6244,5.671,5.6488,5.6326,5.636,5.6354,5.6676,5.647,5.657,5.6454,5.648,5.6657,5.664,5.678,5.6636,5.6654,5.6674,5.6767,5.7109,5.7178,5.6911,5.7124,5.6661,5.6736,5.6993,5.7104,5.7111,5.6873,5.7183,5.7291,5.7349,5.7215,5.7372,5.7568,5.7565,5.764,5.7682,5.7912,5.8079,5.7943,5.8499,5.8443,5.8437,5.8449,5.8606,5.8923,5.864,5.8576,5.8516,5.8799,5.877,5.8685,5.8455,5.8437,5.8335,5.8323,5.8133,5.7852,5.7784,5.7399,5.7245,5.7219,5.704,5.6923,5.6838,5.6752,5.6683,5.6597,5.6445,5.6743,5.6632,5.6553,5.6366,5.6299,5.6319,5.6588,5.6249,5.6498,5.6458,5.6423,5.651,5.6551,5.6459,5.6398,5.6596,5.6666,5.6665,5.6534,5.6598,5.6396,5.6483,5.66,5.6452,5.646,5.668,5.6659,5.6445,5.647,5.6359,5.6532,5.6635,5.656,5.6389,5.6285,5.6509,5.6494,5.657,5.6448,5.6515,5.6522,5.6536,5.6188,5.6651,5.6792,5.6184,5.6366,5.6722,5.6958,5.7178,5.7155,5.7322,5.7218,5.7121,5.7104,5.7092,5.7158,5.7247,5.744,5.7266,5.6961,5.7081,5.6722,5.6189,5.6047,5.6335,5.647,5.6201,5.6123,5.6303,5.6218,5.6186,5.6146,5.6082,5.6152,5.6016,5.6143,5.6096,5.6213,5.5892,5.5895,5.6505,5.6191,5.6034,5.6257,5.5947,5.6294,5.6408,5.6078,5.6401,5.6597,5.7416,5.888,6.026,6.1775,6.3104,6.1723,5.8327,5.5042,5.3753,5.4058,5.4872,5.5586,5.6439,5.6693,5.6533,5.6576,5.6674,5.6718,5.6525,5.6573,5.6531,5.6711,5.6637,5.6779,5.657,5.671,5.686,5.7186,5.6836,5.6896,5.6966,5.6873,5.7049,5.6775,5.694,5.699,5.7154,5.7082,5.7262,5.7269,5.7013,5.7111,5.7491,5.7305,5.7466,5.7621,5.7427,5.7634,5.7796,5.8006,5.7914,5.8022,5.8125,5.8086,5.827,5.8319,5.8488,5.8619,5.8769,5.8518,5.8777,5.8783,5.92,5.8847,5.8855,5.897,5.8831,5.8669,5.8711,5.8989,5.8128,5.7859,5.7807,5.7711,5.7602,5.7382,5.713,5.709,5.7291,5.7146,5.7109,5.7145,5.6653,5.6692,5.6554,5.6678,5.6687,5.6644,5.6578,5.6797,5.6589,5.6572,5.6624,5.6579,5.6629,5.6469,5.6633,5.6681,5.6741,5.6658,5.6915,5.6661,5.6752,5.6793,5.6713,5.6724,5.6912,5.6688,5.6558,5.6939,5.6747,5.6548,5.6622,5.6818,5.6776,5.6761,5.6672,5.67,5.677,5.6769,5.6589,5.698,5.6795,5.6846,5.6764,5.6551,5.6466,5.6783,5.6787,5.6435,5.675,5.671,5.6709,5.6785,5.6628,5.6533,5.6654,5.6821,5.6717,5.6999,5.7482,5.7333,5.7222,5.7303,5.7581,5.7422,5.7325,5.7272,5.7546,5.7304,5.72,5.7254,5.7031,5.6848,5.699,5.6751,5.6441,5.6581,5.6388,5.6469,5.6602,5.6401,5.6329,5.637,5.6297,5.6477,5.6733,5.6302,5.6151,5.6384,5.6657,5.6467,5.623,5.6428,5.65,5.6143,5.629,5.6331,5.6241,5.6359,5.6495,5.6969,5.7313,5.8231,5.9646,6.1191,6.2717,6.3333,6.0399,5.6803,5.4585,5.4479,5.4606,5.5509,5.6436,5.6704,5.7015,5.7144,5.6724,5.6644,5.6824,5.6992,5.7104,5.6783,5.6941,5.6794,5.7077,5.7053,5.6934,5.7072,5.6953,5.7356,5.7343,5.7373,5.7217,5.7247,5.7309,5.7263,5.737,5.7174,5.7274,5.7288,5.761,5.7716,5.766,5.7468,5.7602,5.7777,5.7636,5.7717,5.8187,5.8102,5.8139,5.8348,5.8331,5.8322,5.8523,5.8879,5.8861,5.903,5.9067,5.9087,5.9168,5.9076,5.9181,5.9515,5.9458,5.9221,5.9559,5.9288,5.9165,5.9023,5.8867,5.8774,5.8419,5.8339,5.8218,5.796,5.7679,5.7597,5.7504,5.7445,5.7368,5.733,5.7038,5.7198,5.7051,5.7104,5.7117,5.6977,5.7106,5.7134,5.7098,5.7084,5.6897,5.6945,5.7067,5.7004,5.6998,5.6894,5.6905,5.6938,5.7206,5.7225,5.6864,5.7239,5.7025,5.6876,5.7126,5.7041,5.7164,5.6939,5.7035,5.7184,5.7185,5.7046,5.7088,5.7102,5.7081,5.694,5.713,5.7079,5.7059,5.6648,5.7178,5.7074,5.6624,5.6843,5.7302,5.6923,5.6513,5.6681,5.7013,5.7093,5.6819,5.694,5.7071,5.7242,5.7398,5.7354,5.7372,5.7503,5.7499,5.7291,5.7625,5.7599,5.7595,5.7587,5.7443,5.7318,5.7298,5.7158,5.7103,5.6998,5.6528,5.6711,5.6562,5.6566,5.6686,5.665,5.6605,5.6629,5.6542,5.6554,5.656,5.6769,5.6448,5.6299,5.6714,5.6855,5.6535,5.6531,5.6624,5.6572,5.6802,5.6547,5.6538,5.6779,5.7069,5.7459,5.8335,5.9399,6.0885,6.1822,6.3126,6.3249,6.018,5.6968,5.5066,5.4812,5.516,5.5623,5.6426,5.7186,5.7119,5.7219,5.7205,5.7354,5.7127,5.7231,5.7192,5.7131,5.7223,5.7364,5.7359,5.7415,5.756,5.7095,5.7138,5.7408,5.751,5.7442,5.7476,5.7413,5.7429,5.7419,5.7463,5.7738,5.7432,5.7594,5.7729,5.7685,5.7618,5.7693,5.7851,5.813,5.8061,5.8083,5.7933,5.8293,5.8592,5.8479,5.8513,5.8621,5.858,5.8731,5.897,5.8928,5.8886,5.9107,5.9268,5.9475,5.938,5.9252,5.9379,5.9421,5.937,5.9359,5.914,5.8816,5.884,5.8955,5.8453,5.8013,5.7981,5.7871,5.7768,5.7391,5.7291,5.7118,5.7257,5.7186,5.7139,5.7088,5.709,5.7031,5.7102,5.7182,5.7041,5.6992,5.7034,5.7115,5.7121,5.6916,5.6992,5.7143,5.6969,5.7254,5.7325,5.688,5.7203,5.7336,5.7256,5.7043,5.7068,5.7131,5.7083,5.6984,5.7245,5.6933,5.728,5.7172,5.7017,5.7066,5.716,5.6949,5.7119,5.7277,5.6894,5.7055,5.7141,5.7376,5.7477,5.7647,5.7563,5.7501,5.7772,5.8112,5.741,5.7327,5.7706,5.7686,5.7939,5.7825,5.7728,5.7275,5.7378,5.743,5.7289,5.7085,5.6691,5.6778,5.6724,5.6912,5.6751,5.6809,5.6922,5.6633,5.69,5.6609,5.6509,5.6948,5.676,5.6825,5.679,5.671,5.6774,5.6878,5.6773,5.6745,5.6652,5.6951,5.7024,5.6865,5.7176,5.7554,5.7526,5.8579,5.9364,6.085,6.249,6.3686,6.2147,5.881,5.5572,5.481,5.4842,5.5279,5.6178,5.6555,5.6888,5.7414,5.7125,5.724,5.7285,5.6963,5.7219,5.6809,5.7051,5.7153,5.7189,5.6978,5.7003,5.7077,5.7314,5.7116,5.7228,5.6734,5.7235,5.7243,5.7178,5.7215,5.7377,5.7627,5.7684,5.7513,5.7405,5.7347,5.755,5.7507,5.7588,5.7901,5.7818,5.8264,5.8251,5.7695,5.7793,5.8009,5.8016,5.8029,5.8173,5.8296,5.8666,5.8631,5.871,5.8862,5.8778,5.8611,5.8888,5.8903,5.9248,5.8971,5.8873,5.8819,5.8781,5.8587,5.8296,5.8023,5.8204,5.7707,5.7591,5.7436,5.7291,5.7164,5.7198,5.7265,5.6801,5.6831,5.6743,5.6908,5.699,5.6749,5.6563,5.6797,5.679,5.692,5.6774,5.6747,5.6745,5.6927,5.7177,5.6784,5.6558,5.6843,5.6869,5.712,5.685,5.6736,5.6902,5.7205,5.6964,5.7056,5.6856,5.6884,5.7042,5.717,5.6942,5.7181,5.693,5.7071,5.7174,5.6816,5.6841,5.6949,5.6989,5.7414,5.709,5.693,5.6802,5.6879,5.6993,5.7089,5.7003,5.7111,5.758,5.7866,5.7803,5.7875,5.7697,5.7506,5.7644,5.7598,5.7813,5.776,5.7613,5.7499,5.7441,5.6992,5.6887,5.689,5.664,5.667,5.6581,5.6527,5.6454,5.653,5.6497,5.6639,5.6459,5.6277,5.6431,5.7005,5.6711,5.6416,5.6368,5.6277,5.642,5.6365,5.633,5.6302,5.6266,5.6108,5.6239,5.6538,5.6911,5.7586,5.8851,6.0282,6.2097,6.3541,6.1971,5.807,5.4903,5.4134,5.4231,5.4783,5.5945,5.6591,5.6771,5.663,5.6961,5.6518,5.6822,5.6689,5.6594,5.6651,5.6842,5.6682,5.6555,5.6538,5.6451,5.6534,5.6916,5.653,5.692,5.6728,5.6888,5.71,5.6805,5.667,5.6659,5.6768,5.698,5.7101,5.6707,5.6795,5.7099,5.7276,5.7153,5.7115,5.7301,5.7188,5.7491,5.7564,5.7357,5.7217,5.7767,5.7683,5.8181,5.8179,5.799,5.8078,5.8235,5.8475,5.8257,5.8343,5.8544,5.8898,5.8555,5.8715,5.861,5.8551,5.8432,5.8193,5.8115,5.7944,5.773,5.7501,5.723,5.716,5.6976,5.6938,5.7383,5.7175,5.6695,5.6885,5.662,5.6705,5.6776,5.6788,5.6581,5.6982,5.7135,5.716,5.7042,5.7088,5.6881,5.7082,5.7499,5.7308,5.6906,5.6914,5.7114,5.7595,5.7651,5.7309,5.7128,5.7566,5.7436,5.7347,5.7357,5.7453,5.7399,5.7401,5.7487,5.7586,5.7465,5.7353,5.7857,5.7924,5.7453,5.7228,5.7602,5.76,5.7655,5.7788,5.756,5.7881,5.8155,5.8219,5.8316,5.8202,5.8345,5.8348,5.8351,5.8199,5.8314,5.8365,5.833,5.8412,5.8157,5.8062,5.8028,5.7475,5.757,5.754,5.7283,5.7242,5.7136,5.7046,5.7464,5.739,5.7353,5.7247,5.7235,5.7215,5.7248,5.7272,5.7316,5.7321,5.7318,5.7122,5.707,5.7201,5.7401,5.715,5.729,5.7144,5.7755,5.7862,5.8202,5.9287,6.0499,6.2057,6.39,6.3895,6.0491,5.7349,5.5896,5.5923,5.5798,5.6235,5.6583,5.7461,5.7585,5.7645,5.7753,5.7849,5.7571,5.7578,5.7754,5.7732,5.7779,5.7682,5.7869,5.7986,5.8098,5.7563,5.8034,5.809,5.8018,5.8218,5.8045,5.8017,5.8373,5.8198,5.8259,5.8195,5.8104,5.8155,5.8263,5.8606,5.8659,5.8433,5.8334,5.86,5.8489,5.8703,5.8495,5.866,5.8406,5.8947,5.8904,5.861,5.8895,5.912,5.8943,5.9046,5.9124,5.9243,5.9444,5.9882,5.9909,5.9706,5.9445,5.9804,6.0119,5.9729,5.9604,5.9245,5.9145,5.9129,5.9035,5.8839,5.8356,5.8101,5.8173,5.7777,5.7454,5.7457,5.7508,5.7435,5.7233,5.7458,5.6973,5.7183,5.7318,5.7123,5.7217,5.7043,5.7105,5.7045,5.689,5.6683,5.6792,5.6842,5.7221,5.7244,5.7001,5.6728,5.6789,5.6938,5.7171,5.7096,5.6673,5.681,5.7314,5.7072,5.6872,5.6758,5.7039,5.7346,5.7048,5.7109,5.7229,5.7384,5.782,5.7902,5.8018,5.763,5.7935,5.8419,5.8241,5.7943,5.7984,5.8254,5.7835,5.7752,5.7659,5.733,5.7238,5.7008,5.7308,5.7051,5.7064,5.6815,5.6967,5.6761,5.6756,5.6817,5.6573,5.6744,5.6773,5.6842,5.7104,5.672,5.6619,5.6642,5.6651,5.6743,5.6622,5.6761,5.6714,5.672,5.6614,5.6489,5.6489,5.7426,5.7858,5.9116,6.05,6.176,6.3238,6.1858,5.8599,5.5617,5.4807,5.4648,5.5226,5.5624,5.606,5.6869,5.6828,5.682,5.6987,5.6727,5.6627,5.6886,5.6839,5.6867,5.7064,5.6573,5.6522,5.6703,5.6904,5.69,5.679,5.6981,5.6869,5.7061,5.7127,5.7036,5.7199,5.7158,5.7356,5.7526,5.7173,5.7087,5.7101,5.7614,5.7646,5.7606,5.7345,5.7585,5.7906,5.792,5.777,5.7861,5.814,5.8086,5.8246,5.8613,5.8344,5.861,5.8701,5.9103,5.8989,5.8902,5.8827,5.9077,5.9074,5.9239,5.8989,5.909,5.9181,5.8793,5.864,5.866,5.8367,5.8264,5.8015,5.7791,5.7834,5.7514,5.7683,5.7506,5.7316,5.7209,5.7234,5.7288,5.7051,5.7137,5.7006,5.7066,5.7314,5.7158,5.7205,5.72,5.7032,5.722,5.7186,5.7169,5.6993,5.7081,5.7243,5.7434,5.7469,5.7382,5.7274,5.7196,5.7348,5.7383,5.7451,5.7241,5.7154,5.7249,5.7763,5.7213,5.7119,5.7432,5.7588,5.756
