0.18798,0.22468,0.22988,0.21192,0.209,0.22467,0.22644,0.2057,0.18431,0.21758,0.22889,0.21553,0.22729,0.24008,0.25847,0.26548,0.26584,0.27814,0.27897,0.29797,0.3037,0.32231,0.35008,0.36454,0.36828,0.37262,0.37748,0.38777,0.39506,0.41862,0.44392,0.45539,0.44894,0.43316,0.45352,0.45535,0.44842,0.45594,0.46929,0.48386,0.48523,0.47156,0.45364,0.44334,0.41361,0.40625,0.39883,0.3663,0.34022,0.32052,0.28015,0.24843,0.23428,0.22544,0.21169,0.19213,0.18553,0.17321,0.18119,0.17118,0.17185,0.17228,0.16234,0.1801,0.17442,0.17214,0.17915,0.17294,0.13567,0.12964,0.14173,0.13502,0.15338,0.15143,0.15856,0.15417,0.16459,0.16058,0.16237,0.16053,0.16409,0.17195,0.19231,0.18727,0.19971,0.19958,0.18838,0.1466,0.13858,0.14493,0.13225,0.13423,0.1361,0.14391,0.13284,0.14413,0.14732,0.16131,0.14966,0.10956,0.10638,0.11453,0.12581,0.13731,0.1341,0.13424,0.14398,0.15235,0.14347,0.1202,0.11879,0.11851,0.13198,0.13542,0.13382,0.12747,0.12467,0.12311,0.11916,0.10909,0.10995,0.11506,0.12465,0.1156,0.11095,0.11467,0.11561,0.1151,0.12199,0.13883,0.15036,0.16119,0.16384,0.15199,0.17181,0.17869,0.17237,0.1818,0.17065,0.15555,0.16874,0.17462,0.16686,0.14862,0.14993,0.15203,0.1399,0.11257,0.090901,0.073862,0.062453,0.1096,0.13444,0.09701,0.10734,0.10143,0.073532,0.078344,0.11875,0.23849,0.44981,0.7288,0.97206,1.1168,0.83297,0.4473,0.32878,0.22771,0.099328,-0.036195,-0.060097,-0.016025,0.091777,0.13398,0.11034,0.12371,0.11345,0.095394,0.10528,0.10574,0.11064,0.13664,0.10375,0.11654,0.10138,0.098808,0.092893,0.1084,0.1141,0.12009,0.11791,0.12632,0.12963,0.12672,0.12581,0.13578,0.14266,0.15511,0.15904,0.15285,0.15625,0.16985,0.17038,0.18906,0.20046,0.20222,0.20231,0.21855,0.23644,0.2413,0.25838,0.29126,0.30367,0.2807,0.25549,0.28492,0.29175,0.29884,0.31204,0.31154,0.3278,0.3367,0.34017,0.34245,0.35073,0.36466,0.36047,0.36326,0.36575,0.34931,0.32345,0.31301,0.3012,0.283,0.24716,0.23454,0.22906,0.19869,0.18039,0.14692,0.13769,0.11625,0.095319,0.10596,0.09714,0.089137,0.087556,0.071469,0.071331,0.076027,0.074236,0.069627,0.067521,0.066752,0.054056,0.073474,0.085114,0.075797,0.080184,0.073921,0.079901,0.068282,0.08488,0.095207,0.090671,0.087784,0.093193,0.092545,0.099234,0.097617,0.10269,0.12085,0.12327,0.092337,0.08743,0.08105,0.07336,0.071825,0.07516,0.076801,0.088485,0.080152,0.08211,0.079341,0.064455,0.05952,0.060105,0.059743,0.061776,0.065115,0.064369,0.056959,0.056774,0.053208,0.06377,0.0589,0.068931,0.079624,0.10411,0.10615,0.091496,0.096048,0.090962,0.11149,0.12559,0.1135,0.10668,0.11178,0.10854,0.1211,0.1385,0.12682,0.082111,0.057852,0.049774,0.04994,0.055712,0.060953,0.067114,0.063994,0.062257,0.061936,0.0569,0.051427,0.045897,0.030797,0.039977,0.10473,0.24495,0.43497,0.69212,0.89465,1.0328,0.74383,0.35998,0.20987,0.12161,0.0078131,-0.12806,-0.099789,-0.041437,0.076348,0.093864,0.10558,0.12064,0.087656,0.068532,0.065488,0.071727,0.059366,0.057283,0.064353,0.06706,0.074918,0.068586,0.07397,0.078388,0.091092,0.089897,0.089874,0.10401,0.10252,0.10103,0.12129,0.11996,0.12959,0.11752,0.11711,0.12868,0.13709,0.15464,0.17197,0.18212,0.17112,0.18811,0.18984,0.1901,0.20668,0.23354,0.24646,0.25645,0.26312,0.25999,0.26887,0.28079,0.30503,0.30265,0.30064,0.31696,0.32299,0.33545,0.34593,0.34877,0.33065,0.32806,0.335,0.33613,0.33872,0.31798,0.30612,0.29629,0.27808,0.23335,0.21568,0.20434,0.17359,0.15166,0.13083,0.12312,0.11209,0.11052,0.10833,0.096644,0.08444,0.076719,0.073082,0.067939,0.05929,0.064541,0.059857,0.057982,0.062967,0.059691,0.060324,0.066326,0.087215,0.088595,0.085626,0.068879,0.086991,0.097436,0.089102,0.083483,0.087776,0.078155,0.094553,0.096974,0.090051,0.095306,0.10515,0.09464,0.092379,0.099043,0.089442,0.089926,0.081784,0.084198,0.085728,0.085126,0.083609,0.077634,0.081102,0.084014,0.064278,0.069219,0.072633,0.098538,0.10386,0.11051,0.12154,0.1193,0.1234,0.14607,0.12481,0.11538,0.10861,0.097977,0.12061,0.13161,0.11772,0.10354,0.095523,0.085251,0.076477,0.078151,0.079299,0.089826,0.084219,0.080221,0.068346,0.061461,0.064986,0.07712,0.05688,0.034549,0.076063,0.11383,0.2483,0.46085,0.72868,0.96458,1.1004,0.7745,0.35029,0.19774,0.096556,-0.020423,-0.10265,-0.049136,0.055372,0.10554,0.088117,0.090641,0.080212,0.082876,0.077357,0.089278,0.09818,0.092811,0.082492,0.087766,0.088869,0.086948,0.088548,0.10232,0.11408,0.13028,0.12754,0.11931,0.11634,0.13272,0.12359,0.12894,0.14118,0.1518,0.13816,0.14365,0.16858,0.17771,0.17768,0.18562,0.20624,0.19892,0.22352,0.23393,0.24342,0.24289,0.26354,0.29306,0.30397,0.30045,0.31023,0.3103,0.32371,0.34743,0.34522,0.34706,0.35207,0.36522,0.37406,0.38165,0.38046,0.39636,0.39834,0.39347,0.37979,0.35384,0.34275,0.32671,0.31111,0.29054,0.26562,0.23663,0.206,0.20131,0.18347,0.16413,0.14094,0.13123,0.12715,0.13824,0.12285,0.096212,0.10029,0.10522,0.11328,0.1025,0.087923,0.099762,0.10236,0.096275,0.094116,0.10641,0.12295,0.11051,0.11493,0.1127,0.10305,0.10282,0.10445,0.12445,0.13739,0.12161,0.12267,0.12412,0.1345,0.12349,0.14152,0.14289,0.11822,0.12798,0.1373,0.12733,0.12961,0.1354,0.12914,0.11745,0.11304,0.10925,0.11294,0.11673,0.12565,0.12917,0.10729,0.11284,0.10894,0.10938,0.11707,0.097727,0.11346,0.11674,0.10711,0.1139,0.1151,0.12024,0.12114,0.12694,0.13246,0.11659,0.14302,0.15783,0.16104,0.16908,0.16502,0.15763,0.17315,0.18079,0.18031,0.17392,0.18015,0.19332,0.17938,0.18597,0.18314,0.15001,0.12385,0.11711,0.12433,0.11846,0.10419,0.11118,0.10995,0.11636,0.11697,0.11995,0.12685,0.13025,0.10854,0.095125,0.16646,0.29923,0.49902,0.8016,1.0802,1.2099,0.85432,0.60184,0.33851,0.15346,0.040606,-0.025519,0.02029,0.12406,0.18495,0.15421,0.16097,0.13413,0.16753,0.12218,0.1433,0.12575,0.15044,0.14557,0.14792,0.14475,0.16249,0.14358,0.15651,0.15009,0.16157,0.15702,0.18436,0.17189,0.18391,0.17529,0.18963,0.18651,0.20235,0.20303,0.20474,0.22364,0.23434,0.23463,0.24564,0.26162,0.27424,0.28409,0.29651,0.2851,0.30632,0.31041,0.32969,0.35196,0.36976,0.37369,0.36982,0.38877,0.39385,0.41882,0.43002,0.42993,0.44186,0.46091,0.44786,0.45895,0.45847,0.46662,0.47009,0.47032,0.45937,0.43572,0.42569,0.40787,0.369,0.34536,0.31902,0.30763,0.27409,0.25426,0.22616,0.22926,0.23078,0.20538,0.17427,0.18443,0.16679,0.16682,0.16471,0.17109,0.16478,0.16681,0.15482,0.17215,0.16756,0.15792,0.17639,0.17027,0.15392,0.17,0.16781,0.17185,0.16321,0.16957,0.1762,0.17162,0.1708,0.17234,0.16753,0.18348,0.17954,0.18158,0.18092,0.16654,0.17039,0.17977,0.17487,0.17252,0.16839,0.17152,0.15876,0.15331,0.15165,0.16956,0.16072,0.1662,0.15057,0.14701,0.16227,0.16145,0.15795,0.1497,0.14657,0.15047,0.14273,0.13645,0.139,0.14149,0.14921,0.14185,0.13289,0.14623,0.15731,0.14599,0.15201,0.16945,0.17716,0.17525,0.17291,0.18636,0.18856,0.18547,0.20302,0.20593,0.20556,0.20847,0.20526,0.20508,0.19673,0.19613,0.19769,0.18002,0.1646,0.12871,0.13288,0.14228,0.13559,0.12613,0.13967,0.13499,0.13371,0.14101,0.15018,0.13047,0.11434,0.13342,0.21835,0.34607,0.55846,0.85843,1.1324,1.1672,0.76398,0.37577,0.22788,0.093943,-0.018215,-0.028944,0.022982,0.14123,0.1675,0.1491,0.15446,0.13961,0.14305,0.13109,0.14285,0.13541,0.14633,0.16274,0.16202,0.14416,0.15398,0.15636,0.16097,0.15303,0.17856,0.18007,0.18418,0.18194,0.17743,0.1823,0.20024,0.18348,0.19385,0.19708,0.20333,0.21148,0.22136,0.22506,0.22957,0.23983,0.25797,0.2736,0.27852,0.2916,0.3088,0.32849,0.33968,0.32977,0.33543,0.34163,0.35039,0.36092,0.38071,0.39763,0.39407,0.40172,0.41193,0.42145,0.44205,0.44249,0.42448,0.42856,0.43602,0.46146,0.45643,0.43901,0.41097,0.39087,0.36847,0.31511,0.31618,0.31495,0.28495,0.23825,0.21327,0.20385,0.20316,0.19102,0.16796,0.15162,0.14771,0.14892,0.12785,0.13549,0.13891,0.14949,0.14337,0.1351,0.14825,0.16006,0.14992,0.15399,0.14573,0.14194,0.12201,0.14073,0.14301,0.14039,0.1491,0.1495,0.15495,0.1561,0.14151,0.16444,0.16473,0.16672,0.17674,0.15898,0.14706,0.14879,0.15892,0.15451,0.15448,0.15144,0.17782,0.18301,0.12636,0.11731,0.12421,0.13791,0.15183,0.14432,0.14724,0.15812,0.15522,0.13573,0.11361,0.12476,0.14086,0.12848,0.12456,0.11835,0.11968,0.11607,0.15731,0.18528,0.15377,0.14459,0.19051,0.18763,0.1408,0.12549,0.1769,0.18741,0.19353,0.2017,0.1808,0.11987,0.15435,0.15944,0.19831,0.21576,0.20343,0.20478,0.20377,0.18909,0.12847,0.11977,0.11646,0.11821,0.11204,0.13122,0.15747,0.16784,0.12415,0.1307,0.12964,0.10645,0.12318,0.11265,0.1094,0.19018,0.32335,0.54218,0.80722,1.0446,1.1229,0.76088,0.41984,0.3364,0.23687,0.038565,-0.074031,-0.025798,0.054462,0.13797,0.16654,0.15487,0.10572,0.15058,0.15512,0.11748,0.1208,0.16732,0.13872,0.15276,0.1585,0.13228,0.10781,0.13006,0.14786,0.14637,0.11921,0.16702,0.18218,0.16069,0.17097,0.18569,0.21541,0.22303,0.19084,0.17863,0.13024,0.16704,0.2319,0.24471,0.25809,0.22513,0.22225,0.26658,0.28359,0.23722,0.26628,0.31863,0.31602,0.32301,0.33165,0.28983,0.29978,0.33911,0.338,0.33891,0.34637,0.36164,0.37771,0.37899,0.40329,0.37677,0.38382,0.43714,0.36618,0.33955,0.32033,0.32493,0.32481,0.33168,0.29928,0.24218,0.24416,0.22453,0.22631,0.17316,0.14051,0.13872,0.16418,0.13515,0.10495,0.098187,0.11283,0.14272,0.11975,0.08194,0.094824,0.075253,0.08298,0.089564,0.10965,0.08761,0.09256,0.08972,0.10565,0.1322,0.099061,0.0934,0.1115,0.086945,0.11999,0.1214,0.11331,0.11448,0.092236,0.11585,0.12902,0.14681,0.10484,0.09145,0.10787,0.098374,0.11431,0.098892,0.1046,0.14816,0.15529,0.073857,0.078994,0.070616,0.080142,0.09306,0.080919,0.058424,0.084184,0.10642,0.07894,0.13034,0.12614,0.12118,0.13027,0.13915,0.13716,0.10953,0.15227,0.15747,0.11332,0.12622,0.12999,0.10975,0.092658,0.10813,0.078962,0.067578,0.045117,0.05425,0.068401,0.071822,0.087504,0.086401,0.063354,0.084747,0.06154,0.057324,0.035428,0.079239,0.19574,0.32372,0.58026,0.83869,1.0383,0.95732,0.52464,0.24646,0.16768,0.050572,-0.076958,-0.10655,-0.063017,-0.0084379,0.084878,0.072377,0.053946,0.09559,0.11939,0.066433,0.040558,0.060698,0.051618,0.055216,0.069115,0.078208,0.067394,0.072232,0.062498,0.087096,0.12652,0.099133,0.084142,0.084161,0.11436,0.11192,0.086884,0.093244,0.11152,0.11267,0.11842,0.13152,0.13103,0.13327,0.1507,0.1617,0.16831,0.21084,0.22987,0.21471,0.24222,0.23397,0.22498,0.23181,0.2485,0.25316,0.2588,0.2508,0.27907,0.29397,0.28995,0.29955,0.299,0.31277,0.30809,0.31168,0.31159,0.32297,0.31276,0.31054,0.28859,0.26591,0.26923,0.26081,0.22124,0.1906,0.2113,0.20287,0.16106,0.12671,0.09197,0.0578,0.048142,0.052476,0.0482,0.052586,0.05343,0.050576,0.017406,0.017818,0.027336,0.02829,0.034672,0.030281,0.013255,0.023142,0.041947,0.036528,0.039284,0.069177,0.076984,0.061695,0.030715,0.036633,0.069922,0.045104,0.03181,0.03671,0.057412,0.068355,0.06079,0.063558,0.070062,0.077037,0.055167,0.052855,0.06104,0.060456,0.066487,0.057698,0.038242,0.059239,0.058014,0.05179,0.071786,0.087554,0.078337,0.068594,0.0547,0.05229,0.088796,0.098089,0.078162,0.08254,0.092438,0.091959,0.083462,0.086341,0.079098,0.065821,0.069463,0.060986,0.041518,0.019489,0.024876,0.025148,0.044171,0.036426,0.026799,0.034307,0.040583,0.029809,0.029503,0.029511,0.0027816,0.048297,0.12861,0.27274,0.52517,0.79684,1.041,0.98601,0.53434,0.22814,0.12726,-0.0016873,-0.11312,-0.10929,-0.048327,0.025277,0.041228,0.035334,0.033629,0.038781,0.046267,0.046759,0.047821,0.033519,0.046717,0.050198,0.048354,0.049328,0.059362,0.058206,0.03993,0.05457,0.052296,0.067334,0.09066,0.10658,0.094876,0.096119,0.0953,0.085071,0.091507,0.077237,0.11233,0.10344,0.10483,0.12804,0.12124,0.1373,0.15914,0.15502,0.16396,0.18636,0.20437,0.22334,0.24771,0.2612,0.26592,0.26841,0.2684,0.26223,0.26631,0.27292,0.29511,0.30726,0.32896,0.32705,0.32535,0.31739,0.31836,0.32314,0.32134,0.31869,0.3046,0.27871,0.23984,0.21694,0.19107,0.1777,0.17764,0.15687,0.11911,0.10239,0.095121,0.082953,0.07283,0.053264,0.064234,0.074965,0.065771,0.041468,0.040077,0.032469,0.047354,0.037876,0.036799,0.030965,0.035839,0.042311,0.056152,0.05016,0.055228,0.06116,0.059822,0.069513,0.063132,0.062348,0.059046,0.060718,0.079073,0.085823,0.058155,0.050606,0.061412,0.086743,0.092652,0.043592,0.051836,0.078895,0.079054,0.077884,0.052156,0.052585,0.045296,0.056728,0.079075,0.06358,0.065766,0.06568,0.042655,0.040274,0.045837,0.062448,0.058602,0.040401,0.048389,0.056923,0.047013,0.048266,0.063595,0.077127,0.089018,0.07044,0.068889,0.065519,0.051295,0.045648,0.058187,0.080356,0.12178,0.10742,0.084267,0.10544,0.11103,0.12271,0.1161,0.12696,0.12177,0.1288,0.12292,0.12942,0.12389,0.10377,0.093089,0.087365,0.068264,0.05845,0.0398,0.066251,0.066804,0.040944,0.039986,0.053241,0.056508,0.05645,0.029272,0.036679,0.087006,0.21383,0.42825,0.58072,0.8649,1.1439,1.0637,0.62463,0.2731,0.12433,-0.01457,-0.058337,-0.03889,0.10052,0.12529,0.10234,0.092369,0.077598,0.071871,0.087684,0.087818,0.077361,0.070788,0.083834,0.10102,0.092652,0.093277,0.087086,0.082163,0.099225,0.11068,0.12639,0.13713,0.13196,0.13093,0.13254,0.13683,0.13839,0.15627,0.15907,0.15394,0.16633,0.17007,0.17178,0.18727,0.20562,0.20515,0.22651,0.24839,0.24717,0.26649,0.2638,0.27102,0.29143,0.32791,0.35515,0.34639,0.33744,0.34369,0.36633,0.36824,0.36937,0.38035,0.38703,0.40815,0.41036,0.4006,0.40734,0.417,0.41983,0.41012,0.40602,0.39044,0.36505,0.34022,0.3029,0.28835,0.26302,0.24171,0.20673,0.18038,0.1838,0.18324,0.17073,0.14465,0.13745,0.15909,0.14873,0.13823,0.10149,0.099207,0.10928,0.12597,0.13774,0.15104,0.12453,0.1235,0.12953,0.12572,0.11409,0.1387,0.14657,0.13486,0.13457,0.11847,0.12584,0.13163,0.12635,0.13201,0.1418,0.13206,0.12931,0.12951,0.14191,0.14047,0.13035,0.14421,0.14659,0.1538,0.14677,0.12906,0.11778,0.12734,0.13112,0.10943,0.11354,0.10529,0.11052,0.13956,0.13795,0.1127,0.11873,0.11446,0.1057,0.1137,0.11739,0.11423,0.11403,0.11987,0.11576,0.13133,0.13912,0.13963,0.13672,0.12369,0.12672,0.10943,0.11539,0.12242,0.11222,0.11091,0.1055,0.12126,0.11713,0.12461,0.13695,0.14905,0.12906,0.11937,0.13367,0.15136,0.15831,0.16424,0.1651,0.17939,0.1661,0.16436,0.17674,0.17856,0.19293,0.17855,0.1705,0.18379,0.18557,0.15871,0.13203,0.11993,0.12437,0.11722,0.12725,0.11133,0.092862,0.10317,0.10699,0.11992,0.11356,0.11218,0.098672,0.071171,0.074327,0.14174,0.25269,0.48327,0.8225,1.1265,1.2527,0.85265,0.4058,0.24152,0.087181,0.0028955,0.013082,0.082224,0.1475,0.15133,0.13969,0.12566,0.11164,0.10135,0.12307,0.14076,0.12739,0.13842,0.13938,0.13571,0.1477,0.13937,0.12284,0.13515,0.15975,0.16213,0.1448,0.15195,0.15889,0.17169,0.19434,0.18092,0.15617,0.16638,0.19218,0.19361,0.18228,0.19878,0.20851,0.21315,0.22994,0.23955,0.24719,0.27201,0.27527,0.28376,0.29449,0.32678,0.35212,0.34316,0.31376,0.31575,0.34248,0.35514,0.37317,0.37605,0.39338,0.39246,0.39028,0.3931,0.41979,0.41111,0.41313,0.39925,0.40911,0.40326,0.38608,0.37254,0.37735,0.35656,0.32422,0.28848,0.28115,0.26392,0.22802,0.21493,0.20737,0.16942,0.14722,0.13953,0.14409,0.14079,0.13226,0.12339,0.12495,0.12905,0.13489,0.12661,0.11974,0.12305,0.12522,0.1205,0.12142,0.12763,0.1348,0.14233,0.12952,0.13049,0.13309,0.14999,0.13241,0.12723,0.12108,0.137,0.1399,0.14273,0.14093,0.15175,0.15247,0.15288,0.15128,0.13714,0.14227,0.12829,0.13405,0.12259,0.1413,0.13315,0.14067,0.14173,0.13373,0.13329,0.12843,0.12419,0.11201,0.1145,0.10927,0.10017,0.11114,0.12428,0.11677,0.10511,0.12132,0.12481,0.11422,0.12514,0.11537,0.12485,0.12279,0.10994,0.10755,0.11626,0.12541,0.11685,0.10705,0.11794,0.12937,0.11825,0.10745,0.12305,0.12052,0.10758,0.13061,0.13756,0.13162,0.15216,0.1577,0.15987,0.16104,0.15598,0.15856,0.18783,0.17079,0.15699,0.16927,0.18693,0.18754,0.18249,0.16782,0.15082,0.12417,0.11485,0.096078,0.10521,0.11272,0.12095,0.11326,0.11503,0.10715,0.10181,0.11075,0.11392,0.098892,0.11539,0.18597,0.32276,0.52872,0.79134,0.91704,1.1114,0.96447,0.54947,0.329,0.2298,0.116,-0.054505,-0.053632,-0.0091231,0.12544,0.13716,0.10773,0.12456,0.12135,0.11914,0.11365,0.113,0.12152,0.12306,0.12706,0.12362,0.11582,0.12129,0.11775,0.13747,0.14804,0.14458,0.12827,0.13159,0.14747,0.14562,0.16477,0.15764,0.15956,0.17183,0.17585,0.18676,0.19813,0.2023,0.21046,0.20455,0.20227,0.21568,0.22875,0.24179,0.25225,0.27669,0.29435,0.27275,0.29038,0.30074,0.30589,0.32566,0.34377,0.33762,0.34855,0.35843,0.37381,0.37277,0.35656,0.38144,0.38431,0.37166,0.37617,0.38777,0.37842,0.38026,0.36681,0.33951,0.33944,0.32289,0.2968,0.26395,0.23823,0.22061,0.19927,0.18153,0.17379,0.1694,0.16979,0.14866,0.13595,0.12558,0.1128,0.11286,0.10895,0.11146,0.11482,0.11891,0.11617,0.11288,0.11799,0.13424,0.13823,0.1287,0.12951,0.12572,0.136,0.12642,0.12506,0.14683,0.14953,0.14351,0.16259,0.16226,0.16284,0.15013,0.14414,0.15907,0.1393,0.15727,0.15115,0.17329,0.16649,0.14706,0.13725,0.13925,0.13965,0.14665,0.14235,0.13616,0.13578,0.1319,0.13775,0.13206,0.12326,0.11554,0.11308,0.12699,0.12072,0.12908,0.129,0.12457,0.13409,0.14856,0.14152,0.14013,0.14446,0.15726,0.14632,0.11851,0.13675,0.13206,0.11435,0.11153,0.11102,0.11171,0.11948,0.12336,0.14386,0.15659,0.16181,0.17709,0.18156,0.19194,0.21533,0.22159,0.2081,0.21196,0.20247,0.19473,0.20916,0.17998,0.1731,0.16844,0.1693,0.13903,0.13031,0.12944,0.13489,0.12533,0.12509,0.12628,0.12859,0.13451,0.16676,0.15514,0.11552,0.12119,0.16209,0.21582,0.36051,0.56331,0.84328,1.0975,1.1877,0.83714,0.42595,0.26852,0.14434,0.02841,-5.5806e-05,0.049301,0.15634,0.19339,0.1676,0.15596,0.13838,0.15741,0.1529,0.16159,0.15898,0.17327,0.15608,0.1714,0.18022,0.18469,0.16681,0.17113,0.18647,0.18524,0.16116,0.1905,0.19575,0.19169,0.19585,0.21526,0.22948,0.23698,0.22989,0.24459,0.24003,0.22779,0.23653,0.2596,0.2792,0.2933,0.29286,0.29896,0.3032,0.32333,0.33459,0.34121,0.34722,0.38422,0.40414,0.39489,0.41124,0.41733,0.41455,0.42886,0.45548,0.45045,0.44814,0.45588,0.44332,0.461,0.46212,0.4665,0.45351,0.45224,0.43699,0.415,0.40189,0.37044,0.36414,0.33747,0.30024,0.28956,0.28153,0.26607,0.24878,0.21427,0.19483,0.20204,0.20192,0.18093,0.2091,0.19763,0.17742,0.1619,0.1579,0.17512,0.17992,0.16911,0.19102,0.18973,0.16883,0.1859,0.19798,0.1938,0.19065,0.18436,0.1774,0.18675,0.21155,0.21257,0.20993,0.20885,0.1953,0.20525,0.2133,0.20754,0.21901,0.21547,0.19527,0.21271,0.22976,0.1819,0.1681,0.16964,0.18686,0.19181,0.1979,0.18114,0.18493,0.18748,0.19563,0.18742,0.18766,0.1915,0.18408,0.17579,0.17812,0.17025,0.16882,0.17406,0.18114,0.17229,0.17223,0.17408,0.16461,0.16139,0.18473,0.20678,0.2021,0.17154,0.14589,0.17279,0.17767,0.1675,0.16269,0.18617,0.18087,0.16461,0.15768,0.17995,0.22003,0.20938,0.19459,0.19562,0.20489,0.20962,0.21971,0.24859,0.23036,0.20965,0.22585,0.24489,0.22746,0.21538,0.20498,0.19547,0.17349,0.15911,0.13459,0.14996,0.16172,0.15646,0.14188,0.13176,0.14589,0.15708,0.16619,0.15337,0.1275,0.10213,0.16049,0.28516,0.4655,0.76055,1.0724,1.2533,1.0003,0.5518,0.34079,0.17686,0.03774,0.014349,0.046967,0.11916,0.19201,0.19429,0.15266,0.13712,0.14022,0.14561,0.13985,0.13315,0.16844,0.17335,0.16238,0.16178,0.17583,0.16186,0.15063,0.1642,0.16706,0.17508,0.18134,0.18929,0.19614,0.19666,0.19502,0.21794,0.23716,0.20277,0.19135,0.23568,0.21657,0.19789,0.21766,0.24326,0.24876,0.2517,0.26552,0.28007,0.27877,0.30302,0.3288,0.32645,0.30594,0.32046,0.3494,0.34389,0.35966,0.39092,0.39542,0.40926,0.40159,0.39721,0.40368,0.39997,0.42654,0.42723,0.43018,0.41111,0.3943,0.38365,0.3911,0.38895,0.36612,0.35116,0.31863,0.28596,0.25976,0.25723,0.25407,0.20825,0.18477,0.17869,0.14621,0.13042,0.14545,0.1495,0.13062,0.10783,0.10888,0.11714,0.11791,0.12291,0.13252,0.15372,0.15326,0.12008,0.137,0.1344,0.10154,0.14022,0.1364,0.13838,0.13443,0.11598,0.12437,0.13546,0.14809,0.1459,0.14668,0.15937,0.18372,0.19025,0.16264,0.14617,0.1375,0.14217,0.12648,0.11913,0.1294,0.12694,0.12658,0.12528,0.11225,0.11949,0.11903,0.12132,0.12251,0.12096,0.12496,0.14649,0.14395,0.13298,0.11547,0.11369,0.13288,0.11611,0.098431,0.095074,0.10068,0.10454,0.11453,0.12451,0.15772,0.16828,0.13427,0.1355,0.16009,0.16678,0.19998,0.19454,0.16929,0.1751,0.15286,0.13704,0.17718,0.17911,0.16527,0.14976,0.13024,0.10332,0.12563,0.13688,0.096054,0.086103,0.094763,0.1256,0.14544,0.11187,0.11892,0.1124,0.094407,0.0913,0.10353,0.18919,0.31722,0.53348,0.78718,1.0016,1.0747,0.72686,0.39121,0.26886,0.14992,0.021992,-0.091607,-0.044255,0.041636,0.14575,0.14737,0.11267,0.10439,0.099183,0.10708,0.12049,0.11209,0.11806,0.1214,0.13227,0.11551,0.10329,0.12023,0.12246,0.13683,0.13435,0.12691,0.14071,0.1443,0.15309,0.15524,0.1779,0.19086,0.15849,0.16238,0.15151,0.17226,0.17892,0.1923,0.2373,0.23125,0.20771,0.23278,0.25373,0.25485,0.25086,0.2646,0.29403,0.30625,0.29691,0.30801,0.3311,0.35577,0.34814,0.35457,0.35721,0.3556,0.34529,0.35529,0.36536,0.37584,0.37173,0.39216,0.40582,0.40079,0.392,0.39584,0.354,0.32618,0.3285,0.28845,0.26235,0.26207,0.25166,0.19079,0.18392,0.15794,0.1494,0.1672,0.15523,0.13856,0.1298,0.1054,0.10164,0.11811,0.11914,0.11875,0.12978,0.11108,0.12825,0.14372,0.1384,0.11025,0.11062,0.11955,0.13002,0.13938,0.12954,0.14122,0.15311,0.13919,0.13162,0.14511,0.15289,0.16068,0.13842,0.15384,0.1816,0.17548,0.15845,0.15231,0.15777,0.16656,0.15211,0.13293,0.13153,0.14301,0.12799,0.14584,0.16506,0.13828,0.12075,0.1251,0.12861,0.12767,0.12311,0.12345,0.12378,0.12544,0.13258,0.14924,0.14679,0.15392,0.16983,0.18908,0.18882,0.1928,0.19709,0.20379,0.19607,0.19049,0.18889,0.19132,0.21174,0.21331,0.17758,0.17209,0.14684,0.12886,0.1399,0.13173,0.12691,0.12136,0.12782,0.13925,0.135,0.13018,0.14027,0.14151,0.15311,0.12027,0.14045,0.23202,0.38154,0.61323,0.88839,1.1095,1.1342,0.75629,0.39353,0.26635,0.15351,0.0022764,-0.021547,0.013964,0.10425,0.189,0.18389,0.17768,0.17461,0.18288,0.18388,0.14137,0.1489,0.19786,0.18397,0.16653,0.15596,0.17066,0.17824,0.19357,0.18692,0.18774,0.19836,0.20759,0.22858,0.24126,0.23077,0.24612,0.2504,0.21983,0.22839,0.24176,0.2557,0.2718,0.28359,0.29152,0.28512,0.2803,0.3065,0.32611,0.34685,0.36048,0.35723,0.36765,0.3869,0.38458,0.39344,0.42438,0.42717,0.4363,0.4393,0.47891,0.46873,0.43674,0.46052,0.48911,0.51903,0.49293,0.4825,0.46237,0.47624,0.47645,0.46195,0.43673,0.42697,0.4208,0.38911,0.36374,0.34352,0.3068,0.28092,0.27771,0.24428,0.25287,0.23646,0.20796,0.22159,0.22702,0.22055,0.21468,0.19288,0.23137,0.23377,0.1959,0.17986,0.19559,0.21654,0.21254,0.21261,0.23617,0.24175,0.22788,0.21224,0.21534,0.22393,0.21603,0.22186,0.23717,0.23399,0.2416,0.24474,0.23491,0.24746,0.27228,0.23901,0.25056,0.24549,0.23665,0.24488,0.23129,0.24677,0.24355,0.22415,0.22653,0.21895,0.21409,0.23041,0.23919,0.23216,0.23118,0.23262,0.23229,0.22561,0.21889,0.22028,0.22754,0.23362,0.23299,0.23477,0.25098,0.27032,0.27858,0.27726,0.30433,0.30265,0.29471,0.30972,0.2764,0.28687,0.2921,0.29827,0.28227,0.28434,0.27304,0.25877,0.24427,0.22216,0.23175,0.23774,0.2477,0.25882,0.24648,0.2385,0.23333,0.21899,0.2254,0.21262,0.206,0.22189,0.27138,0.39488,0.60263,0.76114,1.0855,1.3525,1.1781,0.76186,0.4778,0.32308,0.15732,0.084742,0.085657,0.24827,0.28876,0.26688,0.24935,0.25279,0.26524,0.2547,0.25324,0.25751,0.26152,0.27158,0.29792,0.27837,0.24905,0.25786,0.26698,0.26701,0.28132,0.28517,0.27507,0.2934,0.30316,0.3117,0.31241,0.3017,0.3233,0.3142,0.32347,0.34265,0.34626,0.35304,0.36671,0.3674,0.36761,0.38734,0.42915,0.43926,0.44389,0.45874,0.47485,0.49651,0.51096,0.47087,0.49475,0.50947,0.51832,0.54274,0.53929,0.55237,0.55349,0.56058,0.57188,0.56624,0.57954,0.58437,0.58168,0.58666,0.563,0.55385,0.53367,0.51966,0.50051,0.46743,0.43847,0.41002,0.38212,0.34311,0.32483,0.3252,0.29508,0.28299,0.28359,0.29561,0.27796,0.25129,0.2582,0.25798,0.25214,0.26175,0.26466,0.27923,0.28037,0.25393,0.26763,0.2622,0.25523,0.26632,0.25925,0.26204,0.27841,0.28891,0.28122,0.27121,0.2713,0.26733,0.27121,0.28147,0.28793,0.27132,0.28585,0.28749,0.29787,0.28235,0.26212,0.2581,0.27445,0.27447,0.26008,0.25124,0.26007,0.2677,0.26109,0.2546,0.25371,0.25304,0.25379,0.25294,0.23361,0.25105,0.24365,0.2295,0.23977,0.25479,0.23767,0.24369,0.23444,0.26169,0.25846,0.24034,0.25342,0.25713,0.26629,0.27736,0.28945,0.28064,0.28526,0.30365,0.30254,0.29748,0.27825,0.27954,0.29394,0.2863,0.26592,0.2593,0.25148,0.23338,0.235,0.23321,0.22993,0.22497,0.2131,0.22252,0.22215,0.21722,0.22057,0.20917,0.20045,0.184,0.22417,0.31666,0.47973,0.73125,1.035,1.2461,1.1465,0.76277,0.45768,0.3356,0.19136,0.11798,0.055123,0.092101,0.20323,0.24746,0.24441,0.22818,0.22478,0.22111,0.21629,0.23318,0.25266,0.23813,0.22481,0.24818,0.24005,0.225,0.24089,0.24342,0.2704,0.27672,0.2603,0.24451,0.25973,0.25621,0.25962,0.26283,0.27257,0.27484,0.2821,0.27705,0.29638,0.30382,0.28894,0.3052,0.31194,0.3227,0.34227,0.35103,0.36414,0.35676,0.38054,0.38999,0.40021,0.41776,0.43716,0.45561,0.43375,0.43821,0.44825,0.46749,0.47072,0.46495,0.47853,0.48113,0.50318,0.50073,0.49387,0.50614,0.50313,0.49032,0.48056,0.44238,0.41591,0.39582,0.37991,0.36128,0.33773,0.319,0.30488,0.29879,0.26071,0.24274,0.22477,0.20549,0.21257,0.2377,0.25564,0.21871,0.19004,0.19471,0.21792,0.217,0.20802,0.20786,0.19534,0.18126,0.18798,0.20678,0.21134,0.22088,0.22639,0.20808,0.20611,0.21523,0.2191,0.21627,0.21846,0.23057,0.21976,0.2276,0.23892,0.23884,0.22432,0.22638,0.21526,0.22696,0.23576,0.22501,0.23309,0.23295,0.20187,0.20355,0.20262,0.19127,0.16918,0.1802,0.19343,0.19267,0.19775,0.19906,0.19742,0.18622,0.18714,0.19039,0.18807,0.21012,0.22038,0.22515,0.22226,0.23331,0.25568,0.267,0.25653,0.24301,0.2152,0.24332,0.25813,0.25749,0.24247,0.23195,0.22976,0.20696,0.19821,0.17483,0.17497,0.18021,0.16948,0.1794,0.18964,0.16665,0.18612,0.20111,0.1984,0.15927,0.19376,0.26644,0.38608,0.5884,0.86621,0.99725,1.1755,1.0654,0.64512,0.37951,0.27584,0.17879,0.025763,-0.0014042,0.060273,0.1942,0.20662,0.19679,0.18004,0.18134,0.19544,0.20367,0.19143,0.18427,0.19675,0.19911,0.19351,0.19602,0.19598,0.2147,0.22394,0.22616,0.22093,0.20042,0.20208,0.23025,0.23441,0.23684,0.22943,0.23835,0.24524,0.24853,0.26371,0.26042,0.26864,0.27067,0.28944,0.29602,0.30434,0.32552,0.33678,0.3521,0.3785,0.40052,0.39392,0.38371,0.39903,0.40567,0.39305,0.42056,0.43451,0.42393,0.44871,0.46003,0.46367,0.46243,0.46582,0.47609,0.48928,0.46465,0.44333,0.45014,0.44302,0.42867,0.40866,0.38322,0.35763,0.345,0.32679,0.30459,0.31853,0.28605,0.23332,0.21076,0.21303,0.20606,0.2082,0.19501,0.19177,0.17829,0.17797,0.19427,0.17629,0.17157,0.17552,0.1716,0.18537,0.20487,0.20579,0.18207,0.21005,0.23176,0.20511,0.18776,0.19649,0.1996,0.20402,0.19963,0.21594,0.21505,0.20398,0.22118,0.21547,0.21315,0.22183,0.21387,0.21532,0.21318,0.21527,0.21745,0.20879,0.18512,0.17954,0.19953,0.19651,0.18798,0.18744,0.20052,0.21153,0.2102,0.19889,0.17734,0.17752,0.20385,0.20635,0.19347,0.18062,0.18271,0.19869,0.21102,0.21185,0.22654,0.23818,0.25905,0.25595,0.26466,0.25603,0.2352,0.22997,0.22862,0.24753,0.25654,0.26053,0.24811,0.23275,0.20288,0.19737,0.19204,0.20038,0.20286,0.19601,0.20552,0.22386,0.21517,0.18487,0.18275,0.17092,0.17859,0.18236,0.21446,0.31893,0.48192,0.73638,1.0443,1.2764,1.1203,0.68755,0.41536,0.24252,0.10277,0.068467,0.11218,0.2471,0.26393,0.22824,0.23057,0.22513,0.22277,0.19804,0.21951,0.19195,0.20987,0.21898,0.23935,0.24079,0.23217,0.23353,0.24808,0.25116,0.26473,0.25343,0.26558,0.26684,0.25877,0.28443,0.28469,0.2865,0.28256,0.27999,0.27985,0.30119,0.30967,0.31138,0.31839,0.33686,0.35101,0.35798,0.36786,0.40529,0.40529,0.3994,0.42719,0.4208,0.44562,0.4744,0.46681,0.46357,0.48707,0.49069,0.51388,0.54178,0.53887,0.51712,0.51041,0.53431,0.54481,0.57002,0.54086,0.52843,0.51462,0.51027,0.5024,0.47111,0.44863,0.41203,0.40899,0.40247,0.36336,0.33484,0.31355,0.30704,0.29269,0.29136,0.2703,0.2666,0.2256,0.23198,0.27744,0.26205,0.24248,0.23612,0.23762,0.23498,0.22644,0.21952,0.23567,0.24092,0.25465,0.24315,0.23843,0.25052,0.27331,0.25592,0.24872,0.25764,0.25059,0.25101,0.24743,0.23742,0.25206,0.25078,0.26974,0.27887,0.27938,0.25255,0.23845,0.2346,0.23036,0.23411,0.23545,0.22257,0.22825,0.23162,0.22539,0.21802,0.22446,0.21992,0.21579,0.21476,0.21637,0.21356,0.22398,0.23984,0.22231,0.22104,0.2143,0.20751,0.19077,0.21413,0.22828,0.2139,0.20177,0.1896,0.2023,0.20971,0.22006,0.21251,0.19502,0.21,0.21113,0.23133,0.23085,0.25473,0.25126,0.25892,0.27392,0.28234,0.26419,0.25844,0.24328,0.26422,0.28665,0.26569,0.24999,0.25183,0.22866,0.20278,0.20868,0.20188,0.19016,0.1955,0.20025,0.20215,0.22436,0.222,0.21799,0.20357,0.18236,0.17399,0.20591,0.29152,0.44797,0.68761,0.99585,1.2746,1.2356,0.8177,0.46006,0.31196,0.17284,0.053684,0.069103,0.13675,0.2358,0.24347,0.22829,0.22008,0.2133,0.21997,0.221,0.21111,0.19359,0.21879,0.24001,0.22262,0.22923,0.23058,0.2278,0.23076,0.22343,0.2503,0.24396,0.25341,0.24564,0.24441,0.24257,0.25917,0.25733,0.27604,0.26839,0.27428,0.27433,0.29255,0.29563,0.31534,0.30819,0.32159,0.33059,0.33961,0.34397,0.38468,0.41294,0.40164,0.39932,0.41668,0.42844,0.43242,0.42592,0.42894,0.43327,0.43963,0.46683,0.46353,0.47127,0.47956,0.49729,0.4932,0.49624,0.48589,0.48966,0.49439,0.48931,0.44658,0.42833,0.4053,0.39041,0.37622,0.34573,0.32053,0.30107,0.29413,0.28054,0.26206,0.25827,0.24308,0.21024,0.19909,0.1937,0.19638,0.19957,0.18932,0.20626,0.20693,0.19446,0.19557,0.20354,0.21699,0.20775,0.20775,0.2214,0.20465,0.21806,0.22797,0.22094,0.21059,0.24221,0.23474,0.21202,0.21908,0.22592,0.22498,0.22011,0.22818,0.22332,0.23374,0.23167,0.24165,0.24062,0.23937,0.24323,0.20699,0.21851,0.22508,0.19853,0.1906,0.19909,0.20634,0.22088,0.22185,0.24959,0.2038,0.20093,0.22052,0.20278,0.18348,0.17709,0.18827,0.21973,0.18896,0.16815,0.19883,0.2107,0.22444,0.23785,0.23998,0.22587,0.24101,0.24989,0.27368,0.22959,0.21568,0.23655,0.26819,0.26367,0.25323,0.25941,0.23526,0.18948,0.18368,0.19893,0.18769,0.16706,0.20272,0.23008,0.2016,0.22264,0.24654,0.19486,0.17572,0.18207,0.21224,0.29209,0.44593,0.70372,0.92056,1.0511,1.1899,0.9815,0.59819,0.38434,0.31048,0.22804,0.048986,0.061332,0.11248,0.24944,0.22392,0.20886,0.27888,0.26788,0.18965,0.20009,0.23682,0.25178,0.20851,0.23149,0.22645,0.21425,0.24651,0.20929,0.19843,0.24068,0.31135,0.26587,0.23543,0.2452,0.24409,0.27126,0.23354,0.29548,0.29171,0.27165,0.28069,0.28335,0.31446,0.31189,0.30011,0.26576,0.34137,0.35059,0.36521,0.40834,0.3767,0.32356,0.36276,0.40134,0.42452,0.42375,0.43275,0.44443,0.46593,0.41422,0.45099,0.49529,0.47413,0.4563,0.43251,0.45872,0.45893,0.44262,0.47705,0.46163,0.42821,0.43026,0.40343,0.39613,0.38,0.33822,0.30874,0.31816,0.31971,0.25117,0.2578,0.21571,0.19895,0.20097,0.17386,0.16846,0.19325,0.18665,0.19471,0.19339,0.19772,0.17258,0.17492,0.15752,0.17679,0.18916,0.15327,0.17235,0.18984,0.17871,0.20633,0.19621,0.21126,0.21675,0.17211,0.19689,0.20941,0.19516,0.20489,0.20705,0.20249,0.2176,0.20154,0.20877,0.19708,0.20632,0.21339,0.19189,0.17587,0.19703,0.17584,0.18657,0.16726,0.17168,0.20653,0.19881,0.20001,0.15462,0.17137,0.17548,0.15451,0.16507,0.17121,0.20726,0.21553,0.20485,0.20945,0.2234,0.23067,0.22315,0.1941,0.20162,0.21781,0.21801,0.22639,0.21273,0.20771,0.16936,0.15739,0.1436,0.13272,0.14296,0.13654,0.17278,0.17873,0.15591,0.1425,0.14343,0.14403,0.15586,0.1423,0.2092,0.38066,0.48231,0.69953,0.97929,1.166,0.97835,0.53848,0.32634,0.24394,0.094373,-0.035183,-0.0033702,0.075809,0.19449,0.19343,0.14426,0.13645,0.15177,0.15069,0.15435,0.16447,0.18103,0.15279,0.1473,0.14827,0.15113,0.16566,0.17874,0.18414,0.17262,0.16956,0.17725,0.1929,0.18705,0.17318,0.19743,0.20909,0.19692,0.20338,0.23172,0.2134,0.21434,0.22342,0.21721,0.23816,0.24104,0.24431,0.24879,0.26841,0.30948,0.34381,0.31419,0.31988,0.33707,0.34304,0.35533,0.3487,0.36626,0.38947,0.40971,0.39447,0.3834,0.4022,0.44609,0.44764,0.42052,0.40151,0.40114,0.41263,0.40261,0.37746,0.38407,0.39247,0.3484,0.28567,0.25917,0.23782,0.21406,0.2102,0.20483,0.19398,0.18785,0.17435,0.16097,0.15547,0.15483,0.14414,0.13094,0.13656,0.13765,0.10913,0.11653,0.12124,0.13112,0.13684,0.15804,0.13463,0.11717,0.11767,0.12116,0.14354,0.14312,0.13594,0.14516,0.15435,0.15925,0.20207,0.19512,0.14699,0.14085,0.14187,0.14199,0.13761,0.15265,0.1621,0.14591,0.16275,0.16981,0.15469,0.15458,0.15366,0.14724,0.14201,0.12457,0.13911,0.13572,0.13214,0.12257,0.14616,0.14255,0.13817,0.13867,0.15685,0.15834,0.16906,0.16241,0.18349,0.21385,0.19817,0.15988,0.17121,0.16719,0.17129,0.18763,0.18335,0.1646,0.17429,0.15802,0.14952,0.12505,0.12093,0.12486,0.11266,0.1153,0.13262,0.13114,0.1391,0.15206,0.16025,0.11869,0.10594,0.13056,0.2189,0.37932,0.58121,0.86609,1.1063,1.1278,0.73054,0.36481,0.22684,0.10431,0.0039252,-0.0058874,0.099788,0.21239,0.19888,0.15452,0.1483,0.13476,0.12734,0.13689,0.17225,0.1427,0.14992,0.16483,0.15684,0.15893,0.16168,0.14953,0.16019,0.16527,0.17922,0.17735,0.18151,0.1823,0.19165,0.20013,0.20346,0.22405,0.23304,0.2321,0.21792,0.22993,0.25333,0.25624,0.24797,0.25885,0.28926,0.32738,0.32069,0.33795,0.32442,0.33242,0.33696,0.35107,0.3792,0.3906,0.40829,0.40977,0.40735,0.42608,0.44283,0.43652,0.45174,0.45746,0.4603,0.4701,0.47412,0.4862,0.49174,0.49038,0.45558,0.41798,0.40508,0.38202,0.36466,0.31429,0.29686,0.29544,0.27784,0.27598,0.23217,0.21864,0.19786,0.20647,0.18475,0.1749,0.16861,0.18305,0.17775,0.19043,0.17743,0.19108,0.17466,0.16188,0.17457,0.17563,0.18407,0.17979,0.19255,0.19037,0.18325,0.19246,0.22133,0.23606,0.18339,0.1795,0.20421,0.18819,0.1872,0.18968,0.19675,0.20986,0.23481,0.21006,0.2035,0.2109,0.19188,0.19022,0.1849,0.1967,0.1959,0.18795,0.20163,0.1949,0.19254,0.21824,0.22668,0.18134,0.16388,0.18536,0.18517,0.17901,0.17534,0.17114,0.1979,0.20587,0.19234,0.21606,0.21973,0.20636,0.18399,0.17838,0.18337,0.1837,0.17988,0.19086,0.19273,0.17585,0.17146,0.19017,0.19905,0.21641,0.22909,0.22118,0.22355,0.24436,0.25174,0.23431,0.23458,0.22051,0.22903,0.24354,0.25223,0.2476,0.23532,0.23339,0.20781,0.18312,0.16868,0.17588,0.18494,0.18414,0.19757,0.18616,0.19357,0.19122,0.16611,0.15775,0.18194,0.19519,0.29233,0.47256,0.75645,1.0694,1.305,1.1479,0.6908,0.42186,0.23954,0.090239,0.057602,0.097205,0.24824,0.27024,0.24472,0.24169,0.21555,0.20651,0.21376,0.20871,0.21159,0.21224,0.20294,0.22872,0.21957,0.21809,0.22379,0.2313,0.22476,0.24228,0.23175,0.2273,0.23214,0.25383,0.26518,0.24555,0.24383,0.24917,0.25025,0.26582,0.27828,0.29764,0.28732,0.27609,0.31307,0.31783,0.32787,0.33212,0.33256,0.36508,0.38163,0.3899,0.39727,0.413,0.42594,0.43502,0.42523,0.43688,0.46254,0.46394,0.4774,0.49992,0.49165,0.51248,0.52215,0.50273,0.49271,0.51672,0.49836,0.49662,0.52079,0.4942,0.4551,0.44281,0.39728,0.3589,0.35084,0.32146,0.30563,0.29281,0.28973,0.26557,0.26054,0.25311,0.24328,0.21341,0.2016,0.20552,0.21543,0.23025,0.24046,0.24907,0.22536,0.22441,0.20204,0.18643,0.21078,0.20782,0.21389,0.21238,0.22979,0.24397,0.22964,0.25061,0.24137,0.21014,0.23854,0.22937,0.23119,0.25301,0.24058,0.24908,0.24555,0.22583,0.23925,0.23504,0.23025,0.23206,0.20884,0.21505,0.21405,0.22463,0.21044,0.22809,0.23006,0.22932,0.24646,0.22373,0.20564,0.19776,0.21052,0.23058,0.224,0.20222,0.20856,0.20359,0.20804,0.19668,0.19723,0.20407,0.20296,0.20512,0.21632,0.20984,0.19626,0.20527,0.20683,0.19084,0.21984,0.2471,0.26596,0.25125,0.23611,0.23517,0.22669,0.22962,0.23837,0.25589,0.26036,0.25428,0.24716,0.23204,0.18729,0.18902,0.20806,0.20349,0.20871,0.2086,0.20848,0.21198,0.18516,0.18874,0.17577,0.16286,0.19026,0.2512,0.38424,0.57975,0.85715,0.98098,1.1817,1.1089,0.68622,0.42136,0.31674,0.2138,0.062273,0.035988,0.088965,0.21835,0.24286,0.21597,0.22521,0.21276,0.20086,0.21964,0.21534,0.21373,0.22831,0.22556,0.20787,0.19792,0.2097,0.22512,0.23717,0.22172,0.23678,0.22779,0.22352,0.22346,0.22435,0.2412,0.25529,0.24514,0.2571,0.27407,0.27856,0.28775,0.26818,0.26835,0.27862,0.28687,0.31209,0.32826,0.33424,0.35907,0.38696,0.37753,0.37525,0.39066,0.40958,0.39487,0.38259,0.3994,0.42134,0.44188,0.44016,0.45613,0.44875,0.43562,0.45399,0.45557,0.45717,0.46754,0.46633,0.45341,0.47266,0.47322,0.41929,0.39156,0.37544,0.34957,0.3303,0.31066,0.27876,0.26674,0.24216,0.25198,0.25843,0.254,0.21305,0.19712,0.19251,0.17194,0.17184,0.18213,0.18037,0.18752,0.19149,0.18706,0.1752,0.1929,0.18866,0.19268,0.18934,0.19325,0.18766,0.1996,0.20159,0.19645,0.19744,0.22309,0.21947,0.20853,0.21105,0.22245,0.21357,0.20126,0.21253,0.20264,0.20542,0.18296,0.18458,0.19168,0.19635,0.1942,0.17936,0.18461,0.19087,0.18497,0.17782,0.16819,0.17199,0.18656,0.17598,0.16201,0.16505,0.16502,0.16409,0.16574,0.18557,0.17495,0.16221,0.17143,0.19022,0.20532,0.21253,0.19771,0.21488,0.21815,0.21573,0.20656,0.20465,0.21089,0.22367,0.20978,0.20598,0.19704,0.18804,0.1661,0.16181,0.15946,0.15911,0.1618,0.15676,0.16071,0.15366,0.16261,0.16805,0.16742,0.15449,0.1575,0.13364,0.16133,0.27668,0.45671,0.71586,0.95442,1.152,1.0196,0.57477,0.32415,0.2512,0.14281,0.0035134,0.00015159,0.054608,0.15507,0.17619,0.16427,0.15918,0.13754,0.15068,0.15073,0.15487,0.14597,0.15033,0.16374,0.19576,0.17671,0.15494,0.1578,0.15873,0.15545,0.15674,0.1682,0.18234,0.17899,0.21839,0.21424,0.18674,0.19889,0.19773,0.20275,0.20253,0.21233,0.21556,0.20748,0.22461,0.23271,0.25038,0.2509,0.27534,0.28099,0.30804,0.31192,0.32488,0.33063,0.3336,0.34001,0.34857,0.35007,0.37605,0.39885,0.40676,0.40713,0.39529,0.39642,0.40922,0.40721,0.41173,0.41422,0.40698,0.39754,0.3659,0.37234,0.35754,0.32958,0.31002,0.29994,0.28184,0.24966,0.23581,0.21235,0.19498,0.187,0.16932,0.15281,0.12557,0.12444,0.1296,0.14238,0.14017,0.15313,0.14338,0.11596,0.11535,0.121,0.1169,0.12982,0.13538,0.12853,0.11989,0.12822,0.14156,0.15901,0.14937,0.14079,0.1281,0.1463,0.13569,0.14794,0.15938,0.14445,0.14498,0.15904,0.16599,0.17068,0.16839,0.16023,0.14498,0.15425,0.14472,0.12406,0.13144,0.12032,0.11437,0.1322,0.1418,0.14778,0.14342,0.11661,0.11848,0.13855,0.12177,0.1018,0.1076,0.1126,0.1222,0.13588,0.16427,0.12936,0.11576,0.11379,0.10707,0.10767,0.11594,0.13893,0.14305,0.13864,0.1551,0.16835,0.15751,0.15113,0.14834,0.14831,0.15033,0.17555,0.18116,0.17139,0.17509,0.16929,0.16924,0.14298,0.12405,0.13879,0.10154,0.11093,0.13341,0.10905,0.096969,0.090966,0.10395,0.12399,0.10335,0.079819,0.095633,0.17586,0.3174,0.42263,0.71906,1.0285,1.229,0.97278,0.49002,0.2697,0.13045,0.025545,-0.0064012,0.016261,0.16535,0.17664,0.12071,0.13798,0.1202,0.11652,0.10356,0.12851,0.13083,0.15476,0.14089,0.11402,0.11665,0.11997,0.11856,0.13221,0.13249,0.17783,0.16775,0.17602,0.16741,0.15398,0.12444,0.13636,0.14918,0.17629,0.17209,0.18685,0.18255,0.18778,0.2045,0.19847,0.22355,0.24863,0.23625,0.26082,0.27531,0.28098,0.29142,0.32008,0.31102,0.31666,0.33252,0.31946,0.32679,0.36684,0.37232,0.36089,0.3882,0.38813,0.40599,0.41812,0.43197,0.42087,0.41909,0.43625,0.4416,0.38939,0.37174,0.36318,0.35565,0.33781,0.29685,0.25522,0.25491,0.23911,0.18607,0.16274,0.15237,0.15281,0.15418,0.12834,0.12756,0.11557,0.13469,0.12736,0.11101,0.075877,0.099414,0.10092,0.097397,0.095345,0.10516,0.10081,0.087706,0.1086,0.1081,0.11811,0.1389,0.13003,0.098071,0.11166,0.13274,0.13225,0.12902,0.11719,0.10627,0.1078,0.11488,0.11295,0.10855,0.11567,0.11755,0.10346,0.10881,0.11378,0.10364,0.094694,0.1124,0.10513,0.081343,0.086659,0.087971,0.091174,0.097205,0.099571,0.087934,0.075398,0.08024,0.075649,0.077211,0.067271,0.084287,0.11392,0.092183,0.094863,0.11271,0.083695,0.072659,0.086789,0.12144,0.11129,0.11732,0.1251,0.13385,0.13232,0.11683,0.11723,0.11789,0.14645,0.15137,0.12347,0.12579,0.13213,0.12306,0.081831,0.058618,0.073052,0.06223,0.05053,0.057068,0.06868,0.064728,0.079878,0.092436,0.096079,0.055967,0.049941,0.13247,0.2788,0.51239,0.80397,1.0292,1.0596,0.67281,0.34033,0.2433,0.086101,-0.067545,-0.11188,-0.077433,0.0050494,0.11772,0.093621,0.058562,0.068169,0.091216,0.079828,0.073234,0.096029,0.10003,0.077888,0.065782,0.084478,0.07994,0.062592,0.068397,0.096211,0.096734,0.095375,0.10137,0.12583,0.12314,0.10647,0.11538,0.11591,0.11268,0.13177,0.13122,0.14802,0.13374,0.15544,0.15604,0.1764,0.16916,0.16045,0.19887,0.2087,0.23112,0.22765,0.22144,0.22993,0.25948,0.27652,0.25982,0.29053,0.28809,0.28401,0.30598,0.29155,0.3064,0.30842,0.30974,0.32904,0.34243,0.33121,0.33802,0.33491,0.30673,0.30566,0.28272,0.25371,0.24785,0.24815,0.22884,0.21239,0.18559,0.13138,0.12862,0.11061,0.10352,0.10525,0.11348,0.075195,0.052677,0.040446,0.0423,0.054043,0.040527,0.037501,0.046522,0.052053,0.049619,0.057446,0.051332,0.066308,0.070675,0.048037,0.072802,0.089679,0.085572,0.083838,0.060597,0.066601,0.066393,0.074495,0.091664,0.098123,0.079463,0.070571,0.083238,0.075996,0.053399,0.061791,0.067025,0.073264,0.073201,0.070785,0.066875,0.061737,0.061751,0.064001,0.044413,0.046968,0.049735,0.050369,0.067655,0.068313,0.079275,0.081355,0.10913,0.094618,0.088679,0.090472,0.096299,0.097938,0.10456,0.10586,0.088384,0.092929,0.076597,0.053135,0.054225,0.051766,0.041054,0.032967,0.025342,0.037623,0.048662,0.040437,0.033496,0.055476,0.06833,0.054918,0.051072,0.05323,0.08535,0.19859,0.38862,0.64224,0.8824,1.0387,0.78382,0.35975,0.19792,0.1279,0.0038174,-0.12363,-0.12106,-0.09878,0.0052143,0.07883,0.068476,0.066993,0.071696,0.046128,0.019347,0.045699,0.056203,0.070669,0.074397,0.06592
