1.4015,1.4113,1.4236,1.4039,1.3975,1.3931,1.3944,1.4137,1.398,1.3895,1.3799,1.4159,1.4261,1.4175,1.4093,1.4005,1.409,1.4096,1.4015,1.4047,1.3866,1.3824,1.4061,1.3997,1.3948,1.3877,1.3873,1.405,1.3938,1.387,1.3931,1.381,1.388,1.3892,1.391,1.3842,1.3797,1.3819,1.3977,1.3902,1.384,1.3804,1.368,1.3891,1.3738,1.3792,1.3771,1.3699,1.3781,1.3912,1.3913,1.3781,1.3657,1.3828,1.3803,1.37,1.3713,1.364,1.3692,1.3784,1.3784,1.3775,1.3717,1.3709,1.3839,1.3873,1.3845,1.3686,1.3797,1.3835,1.3935,1.3708,1.3773,1.3764,1.3871,1.3833,1.3788,1.3537,1.3383,1.3788,1.3717,1.3753,1.3767,1.368,1.3693,1.3604,1.3815,1.3766,1.3596,1.3747,1.3757,1.3652,1.3758,1.3708,1.3775,1.3845,1.3779,1.381,1.3862,1.3968,1.4355,1.4374,1.4055,1.4168,1.4348,1.4552,1.4566,1.4416,1.4503,1.4587,1.4286,1.4186,1.3974,1.3586,1.3407,1.3617,1.3501,1.3519,1.3499,1.3418,1.3427,1.3581,1.3572,1.3387,1.3455,1.3539,1.3636,1.3629,1.3477,1.3189,1.2722,1.2136,1.2006,1.2206,1.3645,1.7116,2.1688,2.3716,2.6272,2.7854,2.9099,2.5642,1.9331,1.3943,1.0757,0.96009,0.85545,0.89302,0.91925,1.0537,1.1597,1.2978,1.3157,1.3533,1.3402,1.3598,1.3554,1.3641,1.3734,1.364,1.3658,1.3832,1.3817,1.3926,1.373,1.3747,1.379,1.3974,1.3924,1.3755,1.3827,1.3856,1.3839,1.4099,1.3907,1.3948,1.3906,1.4096,1.4044,1.4027,1.3945,1.3898,1.3982,1.3969,1.4012,1.4034,1.4128,1.4152,1.4204,1.4109,1.3976,1.4012,1.4138,1.4169,1.4283,1.4113,1.4129,1.4089,1.4309,1.4365,1.4058,1.4149,1.4304,1.4494,1.4473,1.4303,1.4405,1.4441,1.4616,1.4577,1.4576,1.4601,1.4793,1.4921,1.4898,1.483,1.4804,1.493,1.5032,1.5051,1.4983,1.487,1.4927,1.4941,1.4901,1.4737,1.467,1.4418,1.4539,1.4527,1.4472,1.431,1.4237,1.4301,1.4319,1.4265,1.4207,1.4135,1.4054,1.4229,1.4222,1.4038,1.4166,1.4171,1.4292,1.417,1.4233,1.4098,1.4047,1.4217,1.4256,1.4342,1.4255,1.4242,1.4391,1.4277,1.4229,1.407,1.4215,1.4229,1.4268,1.42,1.4095,1.4029,1.4164,1.4106,1.4177,1.3991,1.3998,1.4055,1.4205,1.4177,1.3961,1.3927,1.406,1.4151,1.4172,1.3971,1.3931,1.3892,1.4138,1.4021,1.4017,1.3973,1.3943,1.402,1.3978,1.3819,1.389,1.3923,1.3922,1.4037,1.3826,1.3682,1.3737,1.3875,1.3982,1.3932,1.3706,1.3771,1.3761,1.3894,1.3857,1.3819,1.388,1.3777,1.384,1.4036,1.3606,1.3708,1.3837,1.3907,1.4062,1.4103,1.4321,1.4429,1.4315,1.4287,1.4428,1.4332,1.4436,1.4767,1.4594,1.466,1.446,1.4289,1.4227,1.4275,1.386,1.3504,1.35,1.3643,1.3428,1.3586,1.3522,1.3445,1.3447,1.3634,1.3437,1.3547,1.35,1.3624,1.36,1.354,1.3386,1.2663,1.2039,1.2125,1.2494,1.3848,1.7384,2.1728,2.5599,2.7269,2.8216,3.008,2.5797,1.9533,1.3948,1.0578,0.93413,0.8323,0.8867,0.99128,1.144,1.2303,1.3237,1.3456,1.3632,1.3482,1.3424,1.343,1.363,1.3703,1.3912,1.3805,1.3811,1.3786,1.3901,1.3993,1.3929,1.3761,1.3938,1.403,1.4012,1.3936,1.3931,1.3833,1.4042,1.3929,1.3968,1.3899,1.3908,1.3955,1.3975,1.3983,1.3961,1.3854,1.4066,1.4174,1.4018,1.3972,1.3964,1.4023,1.4059,1.4083,1.3967,1.4011,1.4077,1.4129,1.4054,1.4058,1.4091,1.4178,1.4239,1.4183,1.3982,1.4034,1.4329,1.4338,1.4264,1.4399,1.443,1.4305,1.4438,1.4554,1.4481,1.4494,1.4601,1.4769,1.4813,1.4758,1.4754,1.4759,1.4748,1.4816,1.4694,1.4477,1.452,1.4549,1.4563,1.4406,1.4182,1.4189,1.4147,1.4217,1.4189,1.4134,1.4108,1.4082,1.4129,1.4062,1.4036,1.3896,1.3914,1.4216,1.4135,1.4115,1.4116,1.391,1.4014,1.4123,1.4123,1.3948,1.3902,1.3935,1.3853,1.406,1.3872,1.3868,1.4119,1.4054,1.3972,1.3878,1.383,1.3825,1.3919,1.4001,1.3889,1.3864,1.3811,1.3981,1.3858,1.3904,1.3754,1.3678,1.3855,1.3898,1.3856,1.3842,1.3738,1.3855,1.3815,1.3797,1.3763,1.3646,1.3708,1.3722,1.3839,1.3701,1.3703,1.3774,1.3728,1.3776,1.3608,1.361,1.3667,1.3717,1.3771,1.3569,1.3654,1.369,1.3732,1.3756,1.3783,1.367,1.3722,1.3788,1.3821,1.3758,1.3562,1.3598,1.3782,1.3839,1.3588,1.3573,1.3702,1.3729,1.3661,1.3656,1.3678,1.3649,1.3543,1.3793,1.3718,1.3642,1.3577,1.3604,1.3567,1.3699,1.3499,1.3506,1.3709,1.3682,1.3751,1.3514,1.3432,1.3592,1.3629,1.4059,1.4182,1.4046,1.3827,1.4224,1.4258,1.4242,1.425,1.4329,1.4473,1.4242,1.4137,1.378,1.3775,1.3657,1.3394,1.3262,1.3205,1.3144,1.3247,1.3205,1.3218,1.3176,1.3174,1.3286,1.3356,1.3134,1.3172,1.31,1.32,1.3202,1.2811,1.1768,1.1426,1.1623,1.2794,1.5189,1.9405,2.3673,2.6644,2.8569,3.035,2.8427,2.1974,1.5977,1.1568,0.96108,0.85787,0.80709,0.91143,1.0625,1.1956,1.2893,1.3164,1.3048,1.3316,1.3361,1.328,1.3236,1.3407,1.3445,1.3545,1.3506,1.356,1.3516,1.3515,1.3588,1.371,1.3591,1.3484,1.3594,1.3741,1.3684,1.3418,1.3783,1.3733,1.3865,1.3713,1.3612,1.3702,1.3576,1.3702,1.3722,1.3864,1.361,1.3614,1.3775,1.3827,1.3769,1.371,1.3775,1.39,1.3832,1.3914,1.3774,1.388,1.3927,1.4045,1.4036,1.381,1.3894,1.3877,1.4058,1.4038,1.3974,1.4175,1.4095,1.4257,1.4342,1.4217,1.4163,1.4356,1.4505,1.4344,1.4641,1.4477,1.4609,1.4805,1.4815,1.4762,1.4685,1.4756,1.4801,1.4919,1.4665,1.4414,1.458,1.4456,1.458,1.4399,1.4192,1.4187,1.4169,1.4306,1.4173,1.4142,1.4182,1.4149,1.408,1.413,1.4237,1.391,1.4012,1.4175,1.4324,1.4056,1.3984,1.4049,1.4135,1.3936,1.3965,1.4107,1.3937,1.3903,1.4174,1.4072,1.3964,1.3913,1.3914,1.387,1.4002,1.3901,1.3807,1.3804,1.3886,1.3928,1.3922,1.373,1.3644,1.3819,1.4028,1.3807,1.372,1.3705,1.3734,1.3911,1.366,1.3642,1.3708,1.3785,1.3802,1.3777,1.3648,1.3562,1.3823,1.3727,1.364,1.3516,1.366,1.3688,1.3718,1.3755,1.3568,1.3608,1.3796,1.3675,1.3699,1.3488,1.3605,1.3716,1.3711,1.3704,1.3571,1.3598,1.3579,1.3765,1.3699,1.353,1.3495,1.3639,1.3718,1.3725,1.3566,1.3621,1.3517,1.3764,1.3673,1.3697,1.353,1.3445,1.3629,1.3868,1.3672,1.3561,1.3701,1.3634,1.377,1.3744,1.3555,1.3623,1.3599,1.3751,1.3653,1.3583,1.3575,1.3576,1.3746,1.3712,1.3566,1.3645,1.3583,1.377,1.3671,1.3646,1.3691,1.3702,1.383,1.395,1.4058,1.4117,1.3928,1.4141,1.4287,1.4293,1.4236,1.4299,1.4405,1.4537,1.4484,1.4057,1.3857,1.3892,1.358,1.337,1.3267,1.3281,1.3214,1.3353,1.3236,1.3175,1.3244,1.3235,1.3317,1.3325,1.3256,1.3256,1.3307,1.335,1.3227,1.2502,1.1813,1.1651,1.2078,1.3578,1.6938,2.119,2.4863,2.6944,2.8848,2.7828,2.2157,1.6101,1.1877,1.001,0.89766,0.86375,0.87521,0.95933,1.0385,1.1529,1.259,1.3147,1.3379,1.3373,1.3543,1.3395,1.3497,1.3421,1.3662,1.3718,1.3721,1.348,1.3699,1.3643,1.3868,1.3681,1.3639,1.3544,1.379,1.3869,1.3845,1.3706,1.3722,1.3825,1.3924,1.3789,1.3664,1.3784,1.3874,1.3861,1.3866,1.387,1.3881,1.3933,1.404,1.3972,1.3871,1.3898,1.3869,1.4059,1.3974,1.3887,1.4043,1.4032,1.4037,1.4086,1.3964,1.4033,1.4013,1.4135,1.4139,1.4025,1.4074,1.4155,1.4177,1.4181,1.4369,1.4336,1.4354,1.4437,1.4482,1.4498,1.443,1.4495,1.4643,1.4788,1.4725,1.4644,1.4664,1.4834,1.4747,1.4919,1.4687,1.4419,1.4554,1.4525,1.4445,1.4361,1.4236,1.4125,1.4354,1.4151,1.4211,1.4114,1.3854,1.4102,1.3988,1.4042,1.3806,1.3757,1.4128,1.3975,1.3948,1.3823,1.3855,1.4126,1.4021,1.3946,1.3936,1.3879,1.4002,1.4031,1.4029,1.3966,1.3887,1.3979,1.3978,1.403,1.388,1.3863,1.393,1.3958,1.3942,1.3824,1.3784,1.407,1.4048,1.3966,1.3919,1.38,1.3837,1.3977,1.3787,1.3748,1.3712,1.3724,1.3845,1.3802,1.3727,1.375,1.3553,1.3814,1.3763,1.3831,1.3603,1.3679,1.3793,1.3728,1.3618,1.3681,1.3718,1.3667,1.3752,1.3655,1.3674,1.3616,1.3565,1.3572,1.3629,1.3657,1.3719,1.3601,1.3696,1.3607,1.3566,1.3483,1.3518,1.3661,1.3672,1.3588,1.3507,1.3463,1.3634,1.3441,1.372,1.359,1.3518,1.3625,1.3636,1.3908,1.3883,1.4095,1.4215,1.3939,1.4141,1.4199,1.4264,1.4182,1.4305,1.4455,1.4444,1.4036,1.3777,1.4113,1.3898,1.3328,1.3236,1.3257,1.3371,1.3465,1.316,1.3286,1.325,1.3403,1.3461,1.3348,1.3128,1.3228,1.3281,1.3288,1.3227,1.2974,1.2251,1.1701,1.1842,1.2457,1.4055,1.8293,2.2642,2.5646,2.731,2.9701,2.684,2.0658,1.7881,1.2702,1.0127,0.89572,0.83128,0.89783,1.0043,1.1448,1.269,1.3194,1.3398,1.3298,1.3249,1.3437,1.3451,1.3764,1.3689,1.3468,1.3488,1.359,1.3584,1.3699,1.375,1.3237,1.3888,1.3654,1.367,1.3812,1.3467,1.38,1.3685,1.3634,1.4053,1.3713,1.3338,1.3863,1.3719,1.4064,1.3871,1.3724,1.3837,1.4091,1.4027,1.3878,1.4153,1.4117,1.4121,1.4198,1.4071,1.4148,1.4096,1.4404,1.434,1.4498,1.4501,1.4765,1.4911,1.5022,1.4882,1.469,1.4656,1.524,1.5618,1.5589,1.547,1.5602,1.5784,1.6419,1.6753,1.6544,1.6462,1.6386,1.6356,1.6388,1.6266,1.6075,1.6125,1.6273,1.6245,1.6278,1.6045,1.6176,1.6558,1.6331,1.5993,1.616,1.6071,1.5837,1.5621,1.5706,1.5203,1.5203,1.5316,1.5184,1.5112,1.504,1.4728,1.4682,1.4979,1.4915,1.4906,1.4598,1.4795,1.466,1.4569,1.4663,1.4851,1.4571,1.4512,1.458,1.4567,1.4394,1.4399,1.4424,1.457,1.4136,1.4313,1.4195,1.4722,1.4606,1.4051,1.3974,1.4423,1.4307,1.4311,1.4404,1.4278,1.4134,1.4226,1.42,1.4477,1.4129,1.4057,1.4278,1.4166,1.4128,1.4176,1.4013,1.3975,1.4193,1.4111,1.4156,1.434,1.426,1.425,1.4168,1.3881,1.4048,1.4429,1.4219,1.3993,1.3968,1.4205,1.3933,1.4068,1.4186,1.4046,1.4033,1.4109,1.4115,1.4069,1.4035,1.3911,1.3956,1.4116,1.4116,1.4045,1.3891,1.3756,1.4187,1.3944,1.4132,1.3762,1.4174,1.3956,1.4101,1.3967,1.3794,1.3981,1.3943,1.3893,1.4013,1.387,1.381,1.3769,1.4006,1.3983,1.3949,1.376,1.388,1.4163,1.3992,1.3579,1.3863,1.3852,1.3836,1.375,1.3759,1.3813,1.3714,1.3813,1.384,1.4018,1.3857,1.4071,1.4171,1.4345,1.4493,1.4394,1.4378,1.4555,1.4692,1.4561,1.433,1.455,1.4091,1.3987,1.4062,1.3785,1.3135,1.336,1.3594,1.3541,1.3364,1.32,1.3408,1.3469,1.3454,1.3328,1.3173,1.3652,1.3497,1.3124,1.3321,1.279,1.1942,1.1737,1.1866,1.2104,1.3821,1.7517,2.2023,2.5776,2.7335,3.0041,2.7904,2.1755,1.5718,1.1107,0.94755,0.81407,0.81607,0.93179,1.0891,1.2095,1.2967,1.2966,1.316,1.2917,1.3124,1.3257,1.3107,1.3516,1.337,1.3138,1.3486,1.3312,1.3499,1.3418,1.3349,1.3181,1.3296,1.3366,1.3647,1.3615,1.3563,1.3498,1.3491,1.3617,1.3522,1.3168,1.3373,1.3564,1.3682,1.3604,1.3501,1.3711,1.3571,1.3649,1.3818,1.3477,1.3497,1.3428,1.3722,1.3819,1.3671,1.3496,1.3743,1.3767,1.3842,1.3834,1.3587,1.3544,1.4002,1.3823,1.3869,1.3832,1.3723,1.3738,1.3765,1.4115,1.405,1.3936,1.4284,1.4155,1.4237,1.4203,1.4132,1.4338,1.4318,1.4555,1.4504,1.4441,1.4212,1.4339,1.4551,1.4676,1.424,1.4251,1.4165,1.4143,1.4114,1.4245,1.3911,1.3964,1.3692,1.3624,1.3631,1.3765,1.3757,1.3715,1.3791,1.3637,1.3466,1.365,1.3613,1.3733,1.3697,1.3613,1.3518,1.3541,1.3624,1.3498,1.3455,1.3639,1.3675,1.3495,1.3784,1.3674,1.3459,1.3687,1.3681,1.3504,1.3335,1.3742,1.3538,1.3708,1.3683,1.3538,1.3494,1.3538,1.3607,1.3541,1.3275,1.3315,1.3361,1.3884,1.3655,1.356,1.3568,1.3355,1.3626,1.3481,1.3299,1.3429,1.3461,1.355,1.3691,1.3444,1.3037,1.3494,1.3356,1.3354,1.3125,1.2995,1.3199,1.3408,1.3208,1.3278,1.3239,1.3077,1.317,1.3056,1.3174,1.3175,1.3037,1.2837,1.3371,1.3077,1.3196,1.3269,1.3361,1.3499,1.3373,1.3188,1.3068,1.3122,1.3296,1.3542,1.33,1.3171,1.3266,1.3371,1.3457,1.3283,1.3149,1.35,1.3666,1.3359,1.341,1.3307,1.3536,1.3403,1.3391,1.3725,1.3706,1.3813,1.4106,1.3837,1.3989,1.3854,1.408,1.403,1.4486,1.4513,1.397,1.3942,1.4055,1.3952,1.3564,1.319,1.3157,1.333,1.4652,1.4606,1.3042,1.3032,1.2806,1.2949,1.3093,1.3194,1.3194,1.3277,1.3416,1.2772,1.2502,1.2067,1.1643,1.1459,1.1599,1.3364,1.6873,2.1416,2.4811,2.5822,2.745,2.8582,2.4263,1.782,1.2732,1.035,0.89641,0.80292,0.8337,0.87277,1.0169,1.1152,1.192,1.2663,1.3247,1.3155,1.301,1.2792,1.2963,1.3238,1.3555,1.339,1.3278,1.3287,1.3762,1.3995,1.3943,1.368,1.3991,1.3981,1.3916,1.4172,1.386,1.3842,1.4138,1.4074,1.398,1.3864,1.3828,1.3533,1.4055,1.4175,1.3938,1.3889,1.3532,1.3946,1.4121,1.4001,1.3593,1.3804,1.4033,1.4331,1.3888,1.3848,1.3994,1.4028,1.3969,1.4151,1.4165,1.385,1.3985,1.4119,1.3976,1.3648,1.3733,1.4181,1.4518,1.4251,1.4394,1.3647,1.3794,1.4436,1.4503,1.4724,1.4447,1.4526,1.4564,1.4509,1.4711,1.4831,1.4479,1.4844,1.4749,1.4755,1.4655,1.456,1.4361,1.4246,1.4352,1.3902,1.4057,1.4238,1.4072,1.3703,1.355,1.3885,1.4072,1.4176,1.3816,1.3691,1.3619,1.3795,1.3942,1.3977,1.3845,1.347,1.3451,1.3979,1.3979,1.375,1.3515,1.3238,1.3888,1.3833,1.3709,1.3857,1.3782,1.4055,1.401,1.366,1.3376,1.3334,1.3809,1.4161,1.3744,1.3486,1.3419,1.3658,1.3649,1.3776,1.3436,1.3241,1.3015,1.3363,1.3506,1.3623,1.3518,1.3744,1.3614,1.3396,1.3034,1.3227,1.3384,1.3417,1.3326,1.3158,1.3347,1.3458,1.3975,1.4167,1.3685,1.3622,1.3637,1.4054,1.4166,1.4231,1.4334,1.4289,1.4596,1.3997,1.3603,1.3818,1.3483,1.356,1.3463,1.3193,1.2807,1.238,1.3081,1.316,1.292,1.2794,1.274,1.2654,1.3178,1.2712,1.2602,1.267,1.2916,1.3106,1.2936,1.2106,1.1339,1.1327,1.1637,1.2955,1.5725,2.0124,2.4138,2.6226,2.8173,2.8563,2.3232,1.6787,1.1936,0.93191,0.87829,0.78631,0.80564,0.89628,1.0051,1.0997,1.2007,1.2594,1.3185,1.2971,1.3398,1.2791,1.2423,1.3589,1.3824,1.3238,1.3393,1.3447,1.3434,1.3356,1.3711,1.4244,1.434,1.4522,1.4554,1.4892,1.4722,1.4309,1.4527,1.4313,1.4339,1.4547,1.4359,1.443,1.4266,1.4315,1.3718,1.3917,1.4408,1.4758,1.4475,1.4329,1.4422,1.4126,1.403,1.4197,1.4484,1.4239,1.4217,1.426,1.4425,1.4488,1.4581,1.4716,1.4586,1.4521,1.4592,1.4339,1.443,1.4505,1.4744,1.4662,1.4599,1.4676,1.4495,1.4605,1.4801,1.4597,1.4865,1.4671,1.4917,1.4703,1.4857,1.4683,1.4522,1.456,1.4634,1.4486,1.4164,1.4113,1.4448,1.4287,1.3947,1.3929,1.3831,1.4133,1.3898,1.3642,1.3671,1.3253,1.3408,1.3685,1.3761,1.3534,1.3578,1.3493,1.342,1.3565,1.3843,1.4003,1.3759,1.3839,1.3527,1.3452,1.3572,1.3677,1.3489,1.3672,1.3678,1.3729,1.3331,1.374,1.3624,1.3693,1.3112,1.3437,1.3796,1.3504,1.3565,1.3775,1.3283,1.372,1.3632,1.3373,1.3203,1.3216,1.3245,1.3557,1.3441,1.3268,1.3082,1.314,1.3409,1.354,1.3358,1.3287,1.3334,1.3427,1.315,1.2791,1.3397,1.3642,1.3537,1.3554,1.3299,1.3334,1.3404,1.3506,1.3998,1.3954,1.3659,1.4032,1.4227,1.4265,1.4064,1.3993,1.385,1.3676,1.3933,1.4005,1.345,1.363,1.3198,1.2892,1.2901,1.2833,1.2887,1.264,1.3064,1.293,1.3137,1.2542,1.281,1.2515,1.3064,1.3103,1.2862,1.293,1.3089,1.262,1.1759,1.1357,1.1377,1.1949,1.3789,1.7865,2.2531,2.5815,2.6996,2.9478,2.6244,1.9811,1.3969,1.0081,0.85112,0.79553,0.78902,0.83514,0.94686,1.0653,1.2209,1.2737,1.2681,1.2464,1.283,1.2619,1.2383,1.2547,1.2965,1.2864,1.3216,1.2875,1.2907,1.2793,1.315,1.3004,1.3156,1.2897,1.2905,1.3347,1.3138,1.3146,1.3316,1.2883,1.3296,1.3362,1.3481,1.3218,1.3204,1.3242,1.3244,1.3396,1.3216,1.3095,1.3535,1.3421,1.3374,1.3447,1.3631,1.342,1.3459,1.3513,1.3327,1.3053,1.2901,1.3835,1.334,1.3173,1.3322,1.3124,1.3346,1.3644,1.3722,1.3437,1.3371,1.3635,1.3433,1.3579,1.3588,1.3294,1.3663,1.3833,1.3841,1.3689,1.4028,1.3762,1.3821,1.3823,1.3643,1.4014,1.4159,1.394,1.3769,1.3595,1.3213,1.3542,1.3641,1.3711,1.3537,1.3208,1.304,1.3331,1.3271,1.3328,1.3468,1.3403,1.3351,1.3426,1.2948,1.303,1.3217,1.345,1.3507,1.328,1.3007,1.3214,1.3301,1.3177,1.3091,1.3201,1.3207,1.3242,1.3536,1.3178,1.3116,1.3082,1.3076,1.3244,1.323,1.309,1.3081,1.3048,1.314,1.3171,1.2635,1.31,1.3036,1.3184,1.3333,1.3034,1.2785,1.3027,1.3026,1.3117,1.3265,1.295,1.2784,1.2988,1.2922,1.3014,1.3044,1.2723,1.2872,1.3069,1.2986,1.292,1.2862,1.2794,1.2917,1.31,1.2931,1.2837,1.3045,1.2937,1.2889,1.2933,1.3025,1.2748,1.3243,1.3281,1.3022,1.3003,1.3118,1.3079,1.2937,1.294,1.2705,1.3083,1.329,1.346,1.3638,1.3397,1.3692,1.3773,1.3585,1.3765,1.3946,1.4041,1.4075,1.3908,1.4004,1.3681,1.3545,1.362,1.3236,1.2858,1.2808,1.2968,1.2995,1.3019,1.3024,1.2916,1.2601,1.2956,1.2769,1.2927,1.2613,1.2644,1.296,1.3135,1.2903,1.2719,1.1703,1.1,1.1198,1.1618,1.2951,1.5666,1.9847,2.4233,2.649,2.8472,2.8819,2.3449,1.7103,1.1952,0.96287,0.83758,0.77811,0.82192,0.93598,1.0866,1.1861,1.2724,1.2726,1.3036,1.2902,1.2888,1.2923,1.3017,1.3295,1.3079,1.3141,1.32,1.3047,1.341,1.3176,1.3233,1.3218,1.3344,1.2942,1.3454,1.3544,1.3228,1.3379,1.3436,1.3634,1.3212,1.3315,1.3491,1.3629,1.3526,1.3442,1.324,1.3344,1.3461,1.3579,1.3489,1.3369,1.3452,1.375,1.3716,1.3441,1.3402,1.3558,1.352,1.373,1.3542,1.3857,1.3446,1.3547,1.3812,1.3739,1.3484,1.3607,1.3551,1.3999,1.3904,1.3429,1.3902,1.3911,1.3976,1.4033,1.4034,1.4083,1.4253,1.4278,1.4309,1.4175,1.4301,1.4399,1.4265,1.4629,1.4349,1.4097,1.4132,1.3956,1.4125,1.4224,1.3663,1.3707,1.3534,1.3579,1.3506,1.3629,1.3506,1.3483,1.3633,1.3648,1.3533,1.336,1.3578,1.3597,1.3431,1.3447,1.3399,1.337,1.3499,1.3627,1.3579,1.3235,1.3319,1.3297,1.3404,1.351,1.339,1.3672,1.3411,1.3314,1.3416,1.3433,1.3333,1.3336,1.343,1.3424,1.3259,1.3415,1.343,1.3232,1.3129,1.3104,1.3243,1.3238,1.3408,1.3403,1.359,1.2876,1.3083,1.3373,1.3561,1.326,1.3205,1.3307,1.334,1.3126,1.3224,1.3167,1.2769,1.3002,1.3147,1.3197,1.3267,1.3032,1.291,1.3297,1.3462,1.3289,1.3118,1.3155,1.3298,1.3351,1.3384,1.3423,1.3481,1.35,1.3309,1.3867,1.3827,1.3919,1.3862,1.3922,1.3987,1.4006,1.3906,1.3381,1.3764,1.3486,1.2882,1.2777,1.2672,1.2766,1.2973,1.2497,1.2795,1.2705,1.2925,1.3104,1.2633,1.2728,1.2546,1.2958,1.3008,1.2946,1.2786,1.2262,1.1593,1.1255,1.1275,1.1971,1.4398,1.8575,2.2895,2.5478,2.6875,2.852,2.4849,1.8451,1.3115,0.95877,0.85461,0.77194,0.80099,0.81757,0.91007,1.0177,1.1403,1.2244,1.2815,1.2795,1.2857,1.2553,1.284,1.2697,1.3142,1.3055,1.2976,1.2896,1.3158,1.2763,1.289,1.2967,1.2996,1.3007,1.3295,1.3075,1.3028,1.3316,1.2865,1.308,1.3166,1.3015,1.3259,1.3232,1.3089,1.3064,1.2927,1.3284,1.3323,1.335,1.3225,1.3171,1.2893,1.3281,1.3438,1.3124,1.2989,1.3305,1.315,1.331,1.3345,1.3029,1.2984,1.3679,1.3552,1.3221,1.3544,1.3616,1.3643,1.3503,1.3304,1.3614,1.3521,1.372,1.3625,1.3869,1.3487,1.3716,1.3863,1.4012,1.3994,1.3836,1.3998,1.4358,1.4055,1.4251,1.3812,1.3824,1.3921,1.3875,1.3837,1.3692,1.3681,1.3672,1.358,1.3287,1.3186,1.3556,1.3196,1.3255,1.3417,1.3462,1.3325,1.3271,1.3254,1.3336,1.3285,1.3077,1.3254,1.3329,1.3355,1.3207,1.3214,1.3023,1.3203,1.3184,1.3322,1.3381,1.331,1.3122,1.3457,1.3209,1.3109,1.3249,1.3309,1.327,1.3495,1.3061,1.2914,1.3055,1.3135,1.3245,1.2968,1.2806,1.3251,1.329,1.3428,1.3117,1.3014,1.2898,1.3199,1.3092,1.3103,1.3028,1.2988,1.3179,1.3057,1.3049,1.2761,1.3017,1.2921,1.295,1.2926,1.2922,1.2875,1.2842,1.3102,1.3159,1.2777,1.2955,1.2857,1.2822,1.3143,1.2901,1.2905,1.2918,1.2953,1.3019,1.2709,1.2589,1.2973,1.2886,1.2931,1.2977,1.2714,1.2897,1.3138,1.2875,1.2938,1.2789,1.2919,1.301,1.2784,1.2739,1.2657,1.2924,1.3034,1.292,1.2639,1.2536,1.2547,1.2918,1.3033,1.2786,1.2717,1.2686,1.2968,1.2961,1.3486,1.3293,1.3118,1.3173,1.3572,1.3579,1.3487,1.3369,1.3589,1.386,1.3444,1.3295,1.3063,1.3252,1.3139,1.2642,1.2675,1.2597,1.2326,1.2272,1.2081,1.2967,1.2738,1.2601,1.2754,1.2612,1.2582,1.2369,1.2529,1.2449,1.229,1.1741,1.1043,1.0965,1.1139,1.2625,1.5587,1.9648,2.3848,2.6032,2.852,2.8795,2.3085,1.6572,1.1479,0.92212,0.81909,0.75345,0.80705,0.92008,1.0208,1.1452,1.2585,1.2472,1.2627,1.2647,1.2761,1.2629,1.2758,1.2564,1.2953,1.2857,1.2956,1.2909,1.3101,1.3239,1.3206,1.306,1.2847,1.3301,1.3487,1.3338,1.3281,1.3111,1.318,1.2953,1.3206,1.3381,1.3195,1.3089,1.2924,1.3104,1.3158,1.3189,1.3282,1.3308,1.3416,1.3369,1.3157,1.3198,1.3229,1.333,1.3238,1.3381,1.3194,1.341,1.3444,1.3448,1.3433,1.3145,1.3288,1.3504,1.3601,1.3552,1.3486,1.3511,1.3687,1.4169,1.4514,1.4599,1.4285,1.3869,1.3525,1.4359,1.3665,1.3582,1.4049,1.4385,1.4638,1.3799,1.3822,1.3762,1.4065,1.4,1.376,1.3822,1.3777,1.3852,1.3694,1.3887,1.3925,1.3406,1.3571,1.3775,1.3604,1.3685,1.3698,1.3483,1.3429,1.3509,1.3177,1.3426,1.3397,1.3303,1.3261,1.2838,1.3181,1.3235,1.3083,1.3061,1.2919,1.312,1.2787,1.2898,1.2875,1.2764,1.2739,1.2937,1.2626,1.2532,1.2689,1.2688,1.271,1.2699,1.262,1.2707,1.2268,1.2424,1.2554,1.2567,1.2568,1.23,1.2321,1.2404,1.2337,1.2475,1.2431,1.2214,1.2493,1.2369,1.2327,1.2365,1.2402,1.2381,1.2395,1.2516,1.2543,1.2419,1.24,1.2387,1.247,1.2493,1.2448,1.254,1.277,1.2739,1.2729,1.222,1.2613,1.2947,1.2496,1.2426,1.2325,1.2451,1.2738,1.2865,1.2838,1.2931,1.2868,1.2554,1.2521,1.248,1.2639,1.2286,1.2554,1.2567,1.2549,1.2411,1.234,1.2365,1.23,1.2279,1.2213,1.2281,1.2097,1.2451,1.2401,1.2178,1.2179,1.2259,1.2375,1.2569,1.2408,1.2005,1.2256,1.2331,1.2376,1.2542,1.2249,1.238,1.2466,1.2424,1.2442,1.2187,1.233,1.245,1.2212,1.2259,1.2378,1.2183,1.2177,1.2648,1.2419,1.2355,1.2355,1.2386,1.2411,1.2221,1.2413,1.2456,1.2776,1.3021,1.2899,1.2615,1.3025,1.3275,1.326,1.3176,1.3165,1.3197,1.3013,1.2963,1.2861,1.2665,1.2462,1.2183,1.2236,1.2261,1.2476,1.2198,1.2505,1.219,1.1941,1.2159,1.1966,1.2129,1.2331,1.2369,1.2045,1.2154,1.1896,1.1207,1.0544,1.0704,1.0828,1.3453,1.5368,1.976,2.388,2.6242,2.9298,2.5577,1.9496,1.3442,0.975,0.83238,0.7618,0.74117,0.78862,0.89967,1.0303,1.1615,1.2144,1.2329,1.236,1.2177,1.2162,1.2526,1.2692,1.2841,1.2695,1.265,1.2707,1.3094,1.3089,1.2724,1.2901,1.2826,1.3189,1.312,1.3168,1.3132,1.2848,1.3033,1.2885,1.3024,1.296,1.2786,1.2808,1.2936,1.3279,1.3075,1.2796,1.3028,1.3086,1.3022,1.2909,1.2845,1.3037,1.3076,1.3076,1.2959,1.2987,1.3018,1.3063,1.3089,1.3012,1.2979,1.3075,1.3198,1.3243,1.3198,1.3268,1.3237,1.331,1.3298,1.3224,1.3233,1.3336,1.3342,1.3344,1.3424,1.3676,1.3655,1.384,1.3729,1.3915,1.3598,1.3596,1.3867,1.3957,1.3836,1.3623,1.3761,1.373,1.3711,1.3736,1.3633,1.3529,1.3571,1.346,1.3675,1.3353,1.3335,1.3374,1.3388,1.3236,1.325,1.3113,1.3339,1.3398,1.3538,1.3004,1.3225,1.3384,1.3434,1.3265,1.3226,1.3004,1.299,1.3231,1.323,1.3104,1.3023,1.2994,1.3154,1.3083,1.3144,1.3004,1.2959,1.3153,1.297,1.288,1.273,1.2773,1.2927,1.2976,1.2994,1.2871,1.277,1.2822,1.2889,1.271,1.3008,1.2738,1.2672,1.2974,1.2823,1.2713,1.268,1.2751,1.2884,1.2821,1.2702,1.2684,1.2661,1.2729,1.267,1.2752,1.2777,1.266,1.2887,1.3012,1.2869,1.2863,1.2708,1.3032,1.308,1.2894,1.259,1.2566,1.2811,1.2795,1.274,1.2674,1.2591,1.2655,1.2883,1.2769,1.2688,1.268,1.2746,1.2838,1.2811,1.3014,1.2858,1.3158,1.3401,1.3432,1.311,1.3293,1.3445,1.3738,1.3526,1.355,1.3453,1.3533,1.3499,1.3187,1.3229,1.2865,1.2293,1.2375,1.2605,1.2523,1.2422,1.2407,1.251,1.2584,1.2475,1.2327,1.2418,1.2578,1.259,1.2659,1.2502,1.2464,1.2226,1.1617,1.1194,1.0963,1.1519,1.3623,1.7707,2.1943,2.4479,2.6095,2.7855,2.5138,1.9295,1.3432,0.99793,0.85937,0.81411,0.77807,0.78466,0.86308,0.98234,1.1235,1.2055,1.2541,1.2409,1.2568,1.2476,1.2561,1.2558,1.2902,1.2842,1.3166,1.3123,1.3396,1.3015,1.3059,1.3091,1.3325,1.3385,1.3233,1.3299,1.3169,1.328,1.3237,1.3129,1.3229,1.3231,1.3258,1.3168,1.3197,1.3135,1.3082,1.3222,1.3307,1.3289,1.3165,1.3175,1.3236,1.3255,1.3313,1.3259,1.3176,1.3236,1.3205,1.3407,1.3165,1.3246,1.3123,1.3286,1.3266,1.3296,1.318,1.331,1.3586,1.3455,1.338,1.3408,1.334,1.3737,1.3791,1.3679,1.3595,1.3715,1.3863,1.3822,1.3769,1.3784,1.3864,1.3951,1.3901,1.3846,1.3662,1.3652,1.3721,1.38,1.3892,1.3482,1.3256,1.3405,1.3321,1.313,1.3153,1.3105,1.3078,1.3116,1.3189,1.3013,1.2843,1.2963,1.3056,1.2921,1.2801,1.2998,1.2993,1.3038,1.2962,1.2884,1.292,1.3068,1.3109,1.3178,1.3075,1.3161,1.3022,1.3148,1.3146,1.3147,1.3079,1.2917,1.3271,1.3194,1.3171,1.3012,1.3045,1.3109,1.3227,1.328,1.3032,1.3013,1.3106,1.31,1.2974,1.2964,1.2925,1.2896,1.2922,1.29,1.2901,1.2925,1.2994,1.2951,1.2793,1.2704,1.294,1.3043,1.2967,1.2876,1.2893,1.2933,1.2802,1.3054,1.2852,1.3121,1.3262,1.3378,1.3391,1.3411,1.3459,1.3556,1.38,1.401,1.3775,1.3565,1.3529,1.3556,1.3396,1.3412,1.3459,1.3231,1.2978,1.2679,1.2813,1.2674,1.2655,1.2405,1.2576,1.2651,1.2716,1.2611,1.2674,1.2642,1.2724,1.2849,1.2612,1.2574,1.2567,1.2146,1.1572,1.1075,1.1117,1.1928,1.4285,1.8569,2.2885,2.5568,2.7004,2.9091,2.4825,1.824,1.2824,0.95396,0.8447,0.77197,0.79548,0.81845,0.97758,1.1073,1.2192,1.248,1.2614,1.2668,1.2714,1.2692,1.2799,1.2708,1.2805,1.2709,1.2991,1.2955,1.2999,1.2797,1.3067,1.3068,1.317,1.3156,1.3118,1.3175,1.31,1.3069,1.3086,1.3024,1.3187,1.3143,1.3169,1.3251,1.3209,1.3178,1.3164,1.3188,1.3404,1.3245,1.3282,1.336,1.3427,1.3448,1.3297,1.3343,1.329,1.3396,1.3504,1.3426,1.3171,1.3374,1.3497,1.3447,1.3594,1.371,1.367,1.3567,1.38,1.3871,1.3628,1.3582,1.3746,1.3803,1.386,1.3866,1.3821,1.3987,1.4087,1.4145,1.396,1.404,1.4197,1.3987,1.4128,1.3983,1.4056,1.3845,1.3968,1.3892,1.3641,1.3666,1.3587,1.3566,1.3427,1.3572,1.3414,1.3452,1.3385,1.3236,1.3409,1.3289,1.3108,1.3379,1.3338,1.3322,1.3157,1.3091,1.3246,1.3278,1.3182,1.3164,1.2998,1.3137,1.3292,1.3348,1.3127,1.3105,1.3136,1.326,1.3101,1.3195,1.3109,1.3117,1.3106,1.3157,1.3116,1.3021,1.3207,1.327,1.299,1.2947,1.3055,1.2904,1.31,1.3004,1.3088,1.2938,1.2894,1.3139,1.3043,1.302,1.2805,1.2966,1.2859,1.2956,1.2832,1.2954,1.2896,1.3182,1.3108,1.3163,1.3065,1.3002,1.3027,1.3202,1.3077,1.3031,1.3015,1.3268,1.3452,1.3628,1.3422,1.3662,1.3681,1.362,1.3939,1.4011,1.3838,1.3863,1.4006,1.3916,1.3821,1.3451,1.3349,1.3439,1.3236,1.287,1.2681,1.2846,1.2964,1.2911,1.2696,1.2775,1.2802,1.2814,1.2937,1.2652,1.28,1.2665,1.2823,1.3145,1.3104,1.2494,1.1831,1.1397,1.1637,1.2108,1.4117,1.8346,2.2832,2.5867,2.7332,3.0069,2.6811,2.0039,1.4533,1.0425,0.90393,0.82095,0.7918,0.82984,1.0102,1.121,1.2203,1.2631,1.2759,1.258,1.3049,1.2841,1.2976,1.2926,1.304,1.2924,1.2842,1.2818,1.2827,1.2797,1.3163,1.2879,1.3222,1.3087,1.3268,1.3204,1.3098,1.298,1.3059,1.3162,1.319,1.3078,1.3032,1.2968,1.3048,1.3404,1.3078,1.303,1.3215,1.3085,1.3394,1.3253,1.3127,1.3173,1.3112,1.3291,1.3332,1.3226,1.3214,1.3335,1.3216,1.3692,1.3305,1.3364,1.3358,1.3272,1.3463,1.359,1.3481,1.3495,1.371,1.375,1.3506,1.3589,1.3834,1.3838,1.4057,1.4161,1.3985,1.3957,1.4167,1.4215,1.4035,1.4039,1.4071,1.4066,1.4201,1.3974,1.3814,1.379,1.4001,1.3642,1.3608,1.3444,1.3422,1.369,1.3489,1.3453,1.3227,1.3265,1.3214,1.3386,1.3223,1.3233,1.3666,1.359,1.3813,1.3551,1.3591,1.3378,1.3439,1.3695,1.3458,1.36,1.3522,1.3462,1.3274,1.358,1.3413,1.3435,1.3503,1.3566,1.3497,1.3269,1.3438,1.3493,1.3708,1.3582,1.3261,1.3375,1.3295,1.3583,1.3436,1.3552,1.3558,1.3509,1.3382,1.3198,1.3207,1.3361,1.33,1.3282,1.317,1.3354,1.3204,1.3186,1.3151,1.3395,1.3478,1.3342,1.3108,1.3117,1.3091,1.3061,1.3082,1.3062,1.3407,1.3155,1.3152,1.2987,1.3274,1.3376,1.3598,1.3447,1.329,1.3249,1.3191,1.3392,1.3288,1.3475,1.3286,1.3161,1.3287,1.3254,1.3026,1.3042,1.3264,1.3367,1.3613,1.3672,1.3768,1.3671,1.3551,1.3878,1.3869,1.3681,1.4062,1.3864,1.4213,1.4152,1.3775,1.3851,1.3414,1.3416,1.307,1.2954,1.2647,1.2715,1.2724,1.3067,1.2865,1.2594,1.2746,1.2738,1.2737,1.2766,1.2815,1.3107,1.3103,1.308,1.2991,1.216,1.1373,1.1315,1.1535,1.2796,1.6083,2.057,2.4422,2.6542,2.8111,2.7842,2.2272,1.6135,1.1675,0.97886,0.83955,0.79285,0.8202,0.84289,0.97526,1.0966,1.1825,1.2263,1.2786,1.2794,1.2883,1.2297,1.2598,1.3065,1.3292,1.3004,1.2801,1.2957,1.3076,1.3269,1.322,1.2951,1.3126,1.3323,1.3652,1.3576,1.385,1.3706,1.3721,1.3765,1.3507,1.3912,1.3863,1.3968,1.4094,1.4168,1.4196,1.4455,1.4435,1.4419,1.422,1.4178,1.4392,1.403,1.4135,1.4225,1.4042,1.393,1.4121,1.395,1.406,1.4048,1.3924,1.3807,1.4161,1.3896,1.443,1.4045,1.393,1.3932,1.4173,1.4339,1.4106,1.3836,1.4146,1.412,1.4096,1.4211,1.4073,1.4364,1.4662,1.4378,1.4419,1.432,1.4277,1.4363,1.4159,1.4362,1.3894,1.4009,1.3955,1.3878,1.3581,1.3296,1.3775,1.3944,1.3502,1.3491,1.3184,1.3329,1.3397,1.3492,1.35,1.3389,1.3367,1.3187,1.3353,1.3301,1.3149,1.3234,1.3527,1.3653,1.3281,1.3327,1.3217,1.3423,1.3443,1.3445,1.3461,1.3218,1.3369,1.337,1.344,1.3622,1.3215,1.3071,1.3458,1.3419,1.3241,1.3365,1.3365,1.352,1.3662,1.3318,1.3278,1.341,1.3589,1.3543,1.3247,1.3332,1.3046,1.316,1.3452,1.3239,1.3104,1.2975,1.3074,1.3239,1.3164,1.3198,1.3018,1.2969,1.2727,1.3059,1.3163,1.2916,1.306,1.3105,1.2965,1.2998,1.2951,1.2897,1.3023,1.2873,1.2838,1.2885,1.2841,1.2803,1.2841,1.3095,1.3015,1.2947,1.2876,1.3103,1.3388,1.3439,1.3292,1.343,1.3664,1.3716,1.3858,1.3763,1.372,1.3657,1.3359,1.3242,1.3152,1.2983,1.2772,1.241,1.2501,1.2478,1.2169,1.263,1.3069,1.2572,1.2533,1.2695,1.2715,1.2645,1.2569,1.2652,1.2545,1.253,1.2038,1.1404,1.0908,1.1183,1.2235,1.3258,1.6641,2.0728,2.432,2.6087,2.88,2.7693,2.1537,1.5637,1.0736,0.93939,0.81193,0.78328,0.80743,0.93047,1.1188,1.1929,1.2656,1.2501,1.2506,1.2545,1.2541,1.2905,1.2815,1.2631,1.2782,1.321,1.2899,1.2853,1.2887,1.2757,1.2842,1.303,1.2876,1.2785,1.2908,1.297,1.2989,1.3018,1.2904,1.2725,1.3041,1.3501,1.3088,1.2996,1.2986,1.3063,1.3048,1.314,1.2954,1.2915,1.29,1.3234,1.3144,1.3023,1.2645,1.2809,1.332,1.3401,1.3495,1.3393,1.3037,1.3013,1.3142,1.3204,1.3411,1.2998,1.305,1.328,1.2969,1.3328,1.3621,1.3596,1.3485,1.3142,1.3205,1.345,1.3798,1.3822,1.3925,1.3881,1.4137,1.356,1.3936,1.3509,1.3683,1.3727,1.4067,1.3654,1.3633,1.3772,1.3465,1.3479,1.3726,1.3156,1.3103,1.3069,1.3329,1.3333,1.3107,1.3131,1.3171,1.3012,1.3133,1.3409,1.3155,1.2989,1.3199,1.3436,1.3139,1.2853,1.2729,1.3077,1.3316,1.318,1.302,1.2863,1.3113,1.3359,1.3377,1.323,1.3056,1.2948,1.3147,1.3256,1.2945,1.2937,1.3177,1.3157,1.3208,1.3112,1.2794,1.2784,1.2979,1.3246,1.3162,1.2879,1.2482,1.2678,1.3308,1.2943,1.2878,1.3136,1.2792,1.2999,1.2894,1.2726,1.2804,1.2611,1.2824,1.2879,1.286,1.2901,1.2837,1.2993,1.2822,1.2737,1.2257,1.2397,1.2541,1.3378,1.3147,1.2702,1.2715,1.2857,1.2399,1.304,1.3173,1.2823,1.2871,1.289,1.2854,1.2901,1.2727,1.2662,1.2984,1.3012,1.2664,1.2589,1.2825,1.2928,1.3012,1.2796,1.2591,1.2722,1.2916,1.2831,1.2811,1.2684,1.286,1.2955,1.285,1.2816,1.2736,1.2936,1.2763,1.2894,1.3022,1.2986,1.2801,1.2843,1.2611,1.2834,1.331,1.3267,1.3467,1.3391,1.3322,1.3491,1.3461,1.3673,1.396,1.3717,1.3337,1.3429,1.3438,1.3465,1.3224,1.2079,1.2337,1.2539,1.2789,1.2547,1.2607,1.2789,1.2699,1.2555,1.247,1.2802,1.2654,1.2655,1.2299,1.2471,1.2647,1.1775,1.1018,1.0873,1.1006,1.1771,1.3546,1.7441,2.1521,2.5326,2.725,2.9726,2.6558,2.0046,1.4174,1.0181,0.85501,0.74402,0.79903,0.86995,1.0157,1.119,1.2298,1.2371,1.2223,1.2807,1.293,1.251,1.2628,1.2565,1.2747,1.2891,1.2706,1.2843,1.3099,1.2996,1.285,1.2406,1.302,1.2671,1.3101,1.2973,1.2539,1.2782,1.3105,1.28,1.2927,1.2938,1.2718,1.3005,1.2857,1.3071,1.2869,1.2921,1.3275,1.3013,1.2914,1.2707,1.2724,1.2681,1.3037,1.295,1.3044,1.311,1.2987,1.3259,1.2989,1.307,1.3017,1.3049,1.3308,1.3253,1.3186,1.3071,1.294,1.3288,1.3445,1.3402,1.3399,1.3324,1.3433,1.3437,1.3568,1.3416,1.3751,1.3719,1.3751,1.3837,1.3744,1.3651,1.3948,1.4052,1.4163,1.3927,1.3594,1.385,1.3661,1.3597,1.3717,1.3244,1.3424,1.3269,1.3223,1.3609,1.2934,1.3516,1.3541,1.3222,1.3378,1.3079,1.2888,1.3236,1.3372,1.3304,1.3273,1.3159,1.3278,1.301,1.2885,1.2917,1.3293,1.3222,1.3113,1.3225,1.2881,1.2636,1.3203,1.3083,1.3034,1.2965,1.268,1.2852,1.3007,1.3056,1.2692,1.2704,1.2569,1.3098,1.3097,1.2872,1.2765,1.3051,1.2716,1.2727,1.2915,1.2889,1.2822,1.2923,1.265,1.2853,1.2716,1.2508,1.2975,1.2753,1.2647,1.2668,1.2685,1.2985,1.2828,1.2519,1.2549,1.2844,1.2941,1.2796,1.283,1.2576,1.2533,1.2811,1.2851,1.2778,1.2529,1.2409,1.2754,1.2398,1.2678,1.3012,1.2966,1.284,1.2535,1.3173,1.2878,1.2734,1.2562,1.3031,1.2785,1.2654,1.2775,1.2515,1.2659,1.2761,1.2433,1.259,1.276,1.28,1.301,1.2668,1.2882,1.2554,1.2561,1.2853,1.2784,1.2679,1.2513,1.2491,1.2737,1.2631,1.2531,1.2675,1.2834,1.2913,1.3292,1.3106,1.3011,1.2989,1.3203,1.3449,1.335,1.3295,1.3082,1.3406,1.3644,1.3594,1.3127,1.2934,1.2782,1.2579,1.236,1.2314,1.2316,1.2463,1.2331,1.2673,1.2275,1.2373,1.2293,1.2621,1.2655,1.2164,1.243,1.2422,1.2515,1.2171,1.1353,1.0759,1.0864,1.1814,1.4523,1.8536,2.2385,2.5237,2.6938,2.8513,2.4227,1.7817,1.2424,0.97117,0.86448,0.748,0.77179,0.8265,0.93121,1.0119,1.1353,1.2095,1.2623,1.2273,1.2413,1.2687,1.2832,1.2509,1.2837,1.2944,1.2966,1.2522,1.2908,1.2692,1.2873,1.3217,1.3057,1.2766,1.2951,1.2852,1.3078,1.3017,1.2874,1.294,1.3122,1.3061,1.3175,1.2817,1.2985,1.3223,1.3147,1.2785,1.3016,1.287,1.2861,1.3173,1.3402,1.3177,1.3208,1.3145,1.2855,1.3124,1.2991,1.2919,1.3285,1.2884,1.3043,1.2809,1.3039,1.2915,1.2811,1.3255,1.3194,1.3083,1.3,1.3375,1.3163,1.3104,1.3094,1.315,1.3398,1.3459,1.3503,1.3251,1.3124,1.3837,1.3912,1.3651,1.3561,1.3773,1.3749,1.3721,1.334,1.3244,1.3438,1.3581,1.3408,1.3479,1.3255,1.3135,1.2899,1.3073,1.3247,1.2975,1.2812,1.3012,1.299,1.2888,1.2768,1.3012,1.2856,1.3019,1.2762,1.3007,1.2752,1.3066,1.2935,1.2998,1.2869,1.2892,1.2817,1.2601,1.2806,1.3218,1.2974,1.2944,1.3065,1.2894,1.2599,1.2691,1.2914,1.302,1.2985,1.2805,1.283,1.2888,1.2975,1.2747,1.2854,1.2674,1.2705,1.2803,1.2643,1.2734,1.2724,1.2569,1.2741,1.2681,1.2647,1.2447,1.2426,1.2724,1.2657,1.2561,1.2142,1.2189,1.2297,1.2696,1.2701,1.2215,1.2532,1.2697,1.2881,1.2841,1.2652,1.2615,1.2581,1.2632,1.2737,1.2509,1.2573,1.2532,1.2622,1.2637,1.2443,1.2395,1.248,1.2254,1.2532,1.2762,1.2617,1.2423,1.2632,1.2515,1.2554,1.2545,1.2412,1.2503,1.2616,1.2365,1.2384,1.2667,1.254,1.2583,1.2568,1.2357,1.2474,1.2502,1.2805,1.3186,1.3203,1.2924,1.3156,1.3377,1.326,1.3385,1.3268,1.3161,1.3222,1.3065,1.3007,1.2931,1.2685,1.2459,1.2291,1.2311,1.2045,1.2349,1.2384,1.2602,1.2547,1.2195,1.244,1.2238,1.2401,1.2315,1.2175,1.2509,1.2024,1.1348,1.0684,1.0648,1.1092,1.2742,1.6807,1.8912,2.3122,2.5817,2.7624,2.9115,2.4206,1.8018,1.2068,0.9095,0.8189,0.73511,0.78532,0.89041,1.0215,1.1716,1.2418,1.2247,1.2198,1.2253,1.2507,1.2603,1.283,1.2698,1.254,1.2731,1.2679,1.282,1.2583,1.2657,1.2706,1.2774,1.2967,1.2729,1.2593,1.2842,1.2738,1.2743,1.2741,1.3065,1.3059,1.3074,1.3005,1.2806,1.2904,1.2734,1.2906,1.2928,1.2861,1.2877,1.3009,1.3096,1.3028,1.2843,1.2791,1.2651,1.3386,1.3235,1.3237,1.2938,1.2972,1.3054,1.3059,1.3024,1.3153,1.2955,1.313,1.3323,1.309,1.3186,1.3139,1.3064,1.3215,1.3437,1.3368,1.3383,1.319,1.3743,1.3864,1.3513,1.3541,1.3739,1.3884,1.3733,1.3703,1.3766,1.3607,1.3561,1.356,1.3541,1.3108,1.2876,1.3621,1.3711,1.3263,1.2923,1.2948,1.3487,1.3151,1.321,1.3063,1.3024,1.2926,1.3023,1.3066,1.2951,1.2702,1.3118,1.3182,1.3222,1.2989,1.3007,1.299,1.3007,1.3176,1.3041,1.2869,1.3182,1.3079,1.3073,1.3199,1.2963,1.2823,1.2857,1.2877,1.2959,1.2964,1.3198,1.3065,1.3,1.2859,1.2919,1.3016,1.2872,1.2978,1.2759,1.2671,1.2962,1.2776,1.2749,1.3013,1.2626,1.2605,1.2622,1.2939,1.3003,1.2934,1.2796,1.2777,1.2825,1.2686,1.2795,1.2995,1.2874,1.2843,1.3004,1.2716,1.2704,1.2595,1.2595,1.2656,1.2669,1.2882,1.276,1.2841,1.2925,1.2809,1.2684,1.2837,1.2793,1.287,1.2818,1.2558,1.2494,1.2682,1.2884,1.2752,1.2432,1.2535,1.2585,1.2379,1.2865,1.2507,1.2763,1.2769,1.2661,1.2854,1.2448,1.2517,1.2505,1.2866,1.2881,1.2669,1.2547,1.2541,1.2478,1.2998,1.3183,1.3391,1.3295,1.3177,1.3325,1.354,1.3527,1.3477,1.3613,1.3513,1.323,1.3416,1.3242,1.3254,1.321,1.2675,1.2121,1.231,1.2308,1.2563,1.2899,1.2765,1.2473,1.2526,1.2676,1.2514,1.2576,1.2256,1.222,1.2483,1.2548,1.1692,1.0954,1.081,1.1217,1.2311,1.5257,1.9605,2.3628,2.6055,2.6709,2.9579,2.625,1.9903,1.4111,1.0122,0.89782,0.72375,0.76142,0.87184,1.0148,1.1097,1.2035,1.2394,1.2323,1.2641,1.2724,1.2679,1.2475,1.2445,1.2723,1.2558,1.2694,1.262,1.279,1.3084,1.2957,1.276,1.2634,1.2789,1.285,1.2632,1.3132,1.2697,1.2805,1.2945,1.3055,1.302,1.2877,1.2776,1.3072,1.2892,1.2866,1.2784,1.2898,1.3074,1.309,1.3044,1.3148,1.2851,1.2864,1.3206,1.3179,1.3077,1.3169,1.3263,1.3403,1.327,1.302,1.301,1.3118,1.3381,1.3365,1.3698,1.3513,1.3436,1.3585,1.3554,1.3328,1.3508,1.3755,1.3812,1.3822,1.3843,1.3974,1.3922,1.414,1.4047,1.4026,1.3972,1.3903,1.3973,1.3959,1.4073,1.379,1.3819,1.387,1.3954,1.3752,1.3492,1.3651,1.3464,1.3468,1.3294,1.3235,1.324,1.318,1.3477,1.3349,1.3278,1.2926,1.2719,1.3405,1.3417,1.3184,1.335,1.324,1.3344,1.3253,1.3083,1.2928,1.3062,1.3387,1.3305,1.3231,1.3078,1.2939,1.3345,1.3223,1.3203,1.3062,1.3117,1.3051,1.3063,1.3013,1.2715,1.2712,1.2812,1.2807,1.3249,1.3,1.2998,1.3201,1.3064,1.3119,1.304,1.2959,1.2875,1.2948,1.295,1.2972,1.2871,1.2801,1.2928,1.3075,1.3037,1.2608,1.2562,1.2633,1.2887,1.302,1.2821,1.2898,1.2885,1.3151,1.3126,1.2783,1.2847,1.2866,1.2941,1.3037,1.3003,1.2843,1.2855,1.2851,1.2962,1.2621,1.2955,1.3038,1.3401,1.3452,1.3551,1.3488,1.3424,1.3543,1.3615,1.3454,1.3406,1.329,1.3171,1.282,1.3167,1.283,1.252,1.2526,1.247,1.2951,1.2407,1.2337,1.2354,1.2396,1.2764
