2.5204,2.4986,2.5175,2.5036,2.5311,2.4924,2.5253,2.5432,2.5766,2.5565,2.5489,2.5972,2.6077,2.6075,2.6273,2.6201,2.6202,2.6697,2.6953,2.6997,2.6416,2.7333,2.7384,2.7238,2.7521,2.7309,2.7385,2.6786,2.6664,2.674,2.6395,2.6242,2.6379,2.5938,2.5402,2.4996,2.5597,2.5726,2.5106,2.5215,2.5095,2.4735,2.4919,2.524,2.4685,2.4817,2.4886,2.4737,2.4988,2.5324,2.4778,2.4789,2.4934,2.496,2.5058,2.5065,2.4992,2.4797,2.5052,2.4917,2.5056,2.5143,2.4727,2.5374,2.482,2.5083,2.4738,2.5259,2.5203,2.4966,2.4825,2.4782,2.5062,2.4696,2.4764,2.5387,2.5144,2.5034,2.48,2.5385,2.452,2.4932,2.5097,2.4834,2.5456,2.4825,2.5264,2.4829,2.5584,2.5639,2.5629,2.5571,2.6127,2.6161,2.6055,2.5839,2.6494,2.6168,2.6488,2.5316,2.5173,2.5059,2.4983,2.4846,2.4598,2.4918,2.4672,2.4568,2.4952,2.4662,2.4887,2.4743,2.4702,2.449,2.4678,2.4333,2.4686,2.5105,2.498,2.3783,2.2298,2.2787,2.3863,2.6705,3.036,3.5274,3.9291,4.1679,4.0939,3.6774,3.2087,2.8534,2.7249,2.6526,2.5341,2.4957,2.4948,2.4757,2.482,2.5421,2.47,2.4801,2.4771,2.4742,2.47,2.5105,2.4468,2.4498,2.4963,2.4845,2.5241,2.5177,2.4812,2.5051,2.4929,2.5107,2.4749,2.4944,2.497,2.4836,2.5375,2.5236,2.5257,2.5211,2.5314,2.5413,2.5324,2.5757,2.58,2.5767,2.5869,2.5885,2.5908,2.5984,2.662,2.6475,2.6453,2.6429,2.6898,2.6914,2.7376,2.7536,2.7635,2.7708,2.7632,2.7773,2.7622,2.7309,2.7488,2.7503,2.6745,2.6986,2.6402,2.6413,2.6769,2.6434,2.6111,2.553,2.5667,2.5604,2.5397,2.5378,2.4976,2.5692,2.5229,2.5171,2.5396,2.53,2.5279,2.5303,2.5365,2.5586,2.5148,2.4985,2.5267,2.5283,2.5321,2.5312,2.5406,2.5228,2.5045,2.5457,2.5341,2.5067,2.5359,2.5315,2.5115,2.5104,2.5506,2.459,2.5836,2.5462,2.5106,2.5292,2.5576,2.5364,2.5351,2.5379,2.5292,2.5261,2.5502,2.5302,2.5005,2.5257,2.5166,2.5724,2.5072,2.5119,2.536,2.541,2.5319,2.5425,2.528,2.5428,2.5144,2.4907,2.558,2.5655,2.5417,2.5523,2.531,2.563,2.5802,2.6179,2.5969,2.6734,2.6406,2.6478,2.6455,2.6504,2.6321,2.6361,2.5943,2.5746,2.5902,2.4894,2.4948,2.5466,2.494,2.5335,2.5759,2.5303,2.5325,2.4903,2.5017,2.4744,2.4746,2.5252,2.542,2.523,2.5192,2.4718,2.4061,2.3226,2.323,2.3605,2.5917,2.9366,3.373,3.752,4.0402,4.0657,3.8514,3.323,2.9601,2.7025,2.6314,2.6188,2.5901,2.5621,2.4845,2.5408,2.5352,2.5377,2.5161,2.4625,2.4964,2.5288,2.5119,2.4878,2.4934,2.5306,2.5365,2.5031,2.5384,2.4732,2.4944,2.551,2.5176,2.5256,2.5472,2.5201,2.5142,2.5665,2.5762,2.5942,2.5199,2.5961,2.5707,2.6047,2.5762,2.609,2.5904,2.6167,2.6174,2.6223,2.6309,2.6739,2.6714,2.7048,2.7274,2.7316,2.7356,2.7547,2.7677,2.8291,2.7888,2.8023,2.7921,2.7877,2.8047,2.7976,2.7857,2.7524,2.7102,2.7116,2.7428,2.6534,2.6142,2.6386,2.6294,2.6179,2.6041,2.565,2.558,2.5452,2.5536,2.5616,2.5538,2.569,2.5275,2.536,2.5469,2.524,2.5347,2.5594,2.5449,2.5263,2.5888,2.5446,2.5853,2.5109,2.5419,2.533,2.553,2.61,2.6024,2.5372,2.5208,2.561,2.5754,2.6049,2.554,2.5545,2.5643,2.5365,2.5455,2.5644,2.5977,2.5691,2.5823,2.5685,2.6143,2.5627,2.5766,2.6068,2.612,2.618,2.6785,2.68,2.6425,2.6561,2.6796,2.6889,2.6679,2.6061,2.5602,2.5562,2.5764,2.5851,2.5559,2.5408,2.5296,2.514,2.4978,2.4868,2.5296,2.5246,2.5496,2.5459,2.5333,2.5058,2.547,2.5213,2.4887,2.4756,2.405,2.3567,2.3539,2.5329,2.8483,3.2832,3.7472,4.0593,4.1058,4.0554,3.718,3.2215,2.8385,2.7081,2.6648,2.6222,2.5957,2.5678,2.5381,2.5127,2.5596,2.5298,2.5221,2.504,2.5389,2.5261,2.5228,2.5044,2.5568,2.556,2.5334,2.5661,2.5254,2.5004,2.5657,2.5433,2.5696,2.5468,2.5292,2.5555,2.5438,2.5823,2.5823,2.5765,2.602,2.5867,2.5623,2.6316,2.6296,2.6205,2.6253,2.666,2.6409,2.6386,2.6652,2.7206,2.6979,2.7156,2.7229,2.7642,2.7794,2.7906,2.7972,2.7801,2.8003,2.8255,2.8142,2.7955,2.7972,2.7882,2.765,2.7569,2.7065,2.7166,2.6806,2.632,2.6167,2.6288,2.6352,2.5843,2.5794,2.5606,2.5714,2.5857,2.5678,2.5855,2.5833,2.5503,2.5212,2.5732,2.5309,2.5677,2.5922,2.578,2.5296,2.5473,2.5575,2.5588,2.5497,2.5728,2.5216,2.57,2.5682,2.5915,2.5538,2.5567,2.542,2.5726,2.5567,2.6002,2.6001,2.6018,2.5559,2.5471,2.5566,2.5817,2.5534,2.5571,2.5765,2.5732,2.5803,2.5429,2.5923,2.5278,2.5565,2.5738,2.619,2.5745,2.6088,2.5767,2.5628,2.6033,2.6346,2.6908,2.6746,2.6803,2.6708,2.6293,2.7149,2.6617,2.676,2.5851,2.5525,2.5295,2.5536,2.5595,2.5206,2.5204,2.5148,2.5472,2.5123,2.537,2.5074,2.5717,2.5235,2.5059,2.5534,2.5367,2.5194,2.499,2.4227,2.3606,2.3248,2.4346,2.7718,3.1395,3.6301,4.0033,4.1897,4.1125,3.7218,3.4246,3.0127,2.7099,2.6904,2.5936,2.6131,2.5746,2.5709,2.5336,2.5249,2.5303,2.5033,2.4887,2.5376,2.4971,2.5221,2.5048,2.5304,2.5295,2.5358,2.5161,2.5075,2.572,2.5287,2.5106,2.5321,2.5626,2.5675,2.5606,2.5599,2.5289,2.5554,2.5333,2.5666,2.5278,2.5992,2.5795,2.6122,2.5815,2.607,2.6227,2.6134,2.6207,2.6719,2.7005,2.6958,2.6912,2.6871,2.6905,2.7306,2.7689,2.8085,2.8071,2.7905,2.7853,2.774,2.8159,2.8022,2.7879,2.7703,2.7767,2.7121,2.7083,2.6552,2.6475,2.6053,2.6182,2.6014,2.5799,2.5771,2.5545,2.5702,2.5445,2.5475,2.5793,2.5372,2.578,2.5511,2.544,2.5414,2.555,2.5591,2.5486,2.5442,2.5575,2.566,2.5567,2.529,2.5671,2.5183,2.5621,2.5573,2.5474,2.5572,2.5691,2.5749,2.5436,2.5266,2.5395,2.5456,2.5658,2.5528,2.5452,2.5828,2.5856,2.5448,2.5426,2.5711,2.5304,2.571,2.5788,2.5385,2.5459,2.5557,2.5532,2.5353,2.5203,2.5758,2.5313,2.5311,2.556,2.5506,2.558,2.5635,2.5523,2.5649,2.5587,2.5132,2.5262,2.5269,2.5668,2.5686,2.5651,2.5564,2.5586,2.6025,2.604,2.5559,2.5811,2.6006,2.6155,2.6339,2.6338,2.6774,2.6318,2.6355,2.6406,2.6439,2.6295,2.5806,2.5754,2.5522,2.5427,2.5173,2.5237,2.5523,2.5392,2.5089,2.5242,2.4359,2.5378,2.5106,2.5211,2.5146,2.4977,2.4824,2.5108,2.4741,2.3507,2.3777,2.3782,2.5564,2.8303,3.27,3.7842,4.1347,4.1845,4.0177,3.5399,3.0406,2.7703,2.699,2.6284,2.5893,2.5523,2.5102,2.5298,2.5191,2.5236,2.4998,2.4956,2.5354,2.5221,2.4588,2.4965,2.4901,2.4978,2.5166,2.5047,2.5119,2.4906,2.5003,2.5099,2.4965,2.507,2.5071,2.5357,2.5458,2.5241,2.5273,2.513,2.5257,2.5799,2.5532,2.5837,2.5622,2.5519,2.5995,2.596,2.5942,2.6011,2.5957,2.6061,2.6715,2.6558,2.6921,2.6761,2.7196,2.7139,2.6794,2.7995,2.812,2.7579,2.7989,2.8306,2.7943,2.7711,2.7516,2.7609,2.7237,2.6952,2.7278,2.6979,2.6478,2.6522,2.5876,2.5824,2.5831,2.5815,2.5977,2.5526,2.5534,2.4782,2.5343,2.5392,2.5997,2.5732,2.5326,2.5115,2.5332,2.5455,2.5293,2.5423,2.5132,2.5182,2.5003,2.5659,2.525,2.544,2.5388,2.5258,2.5563,2.5828,2.5446,2.4974,2.5367,2.4994,2.5723,2.5515,2.5471,2.5645,2.5249,2.5148,2.5388,2.5354,2.4983,2.5152,2.54,2.5351,2.5292,2.511,2.5384,2.5248,2.4871,2.506,2.5381,2.5031,2.4917,2.5249,2.5083,2.4797,2.51,2.5191,2.5141,2.5154,2.5304,2.5594,2.5313,2.5282,2.5228,2.5111,2.5148,2.5349,2.4907,2.5345,2.5357,2.5287,2.5239,2.5205,2.5197,2.5301,2.5334,2.5537,2.5658,2.5628,2.5464,2.5495,2.5757,2.5917,2.6342,2.6319,2.6467,2.6684,2.624,2.5832,2.5701,2.5694,2.5331,2.5479,2.5015,2.4862,2.496,2.4989,2.5137,2.4895,2.4397,2.4726,2.4776,2.5073,2.5071,2.4795,2.4823,2.4926,2.4897,2.4831,2.3866,2.303,2.3389,2.485,2.8089,3.1932,3.6864,4.0339,4.1606,4.1611,3.881,3.3479,2.8924,2.6806,2.6016,2.585,2.5697,2.5196,2.5194,2.4505,2.4781,2.5114,2.4834,2.4664,2.5137,2.4819,2.5137,2.4757,2.4898,2.4911,2.46,2.4846,2.4893,2.4982,2.4911,2.4847,2.526,2.497,2.4823,2.5256,2.5254,2.5301,2.5324,2.5152,2.5123,2.5365,2.573,2.5509,2.5411,2.5491,2.5583,2.5752,2.5561,2.6401,2.6161,2.6597,2.6458,2.654,2.7066,2.6794,2.7295,2.7234,2.7588,2.7705,2.7691,2.7797,2.7845,2.7875,2.7881,2.8087,2.7356,2.7453,2.7281,2.7209,2.6879,2.6771,2.6188,2.6136,2.6225,2.5509,2.5536,2.5831,2.5745,2.543,2.5445,2.5099,2.5338,2.4964,2.5486,2.5528,2.5489,2.5324,2.502,2.5228,2.5445,2.515,2.5127,2.53,2.4915,2.5263,2.5402,2.5358,2.5336,2.5247,2.5337,2.5247,2.5185,2.502,2.5295,2.5254,2.5498,2.5174,2.4971,2.5265,2.526,2.5275,2.5366,2.5187,2.526,2.5266,2.5124,2.5122,2.5154,2.5167,2.4691,2.5236,2.5359,2.4966,2.5565,2.5563,2.546,2.4891,2.5056,2.5391,2.4756,2.477,2.5122,2.5221,2.5118,2.494,2.4688,2.515,2.5273,2.4941,2.5311,2.5214,2.5018,2.5716,2.5461,2.5572,2.5393,2.5449,2.5706,2.6134,2.6134,2.6493,2.6136,2.621,2.6462,2.6217,2.5589,2.5128,2.5398,2.5428,2.5139,2.5039,2.4854,2.4969,2.4771,2.4708,2.4599,2.5276,2.4876,2.4853,2.5331,2.4699,2.5076,2.4815,2.4703,2.455,2.3971,2.3059,2.2834,2.4449,2.7435,3.1847,3.6546,4.028,4.1492,4.0808,3.8725,3.353,2.9318,2.7262,2.6382,2.5807,2.5607,2.5279,2.4546,2.5317,2.5441,2.5415,2.5007,2.5064,2.4591,2.4868,2.4941,2.5012,2.4686,2.5058,2.4727,2.4878,2.5085,2.4877,2.5217,2.4956,2.5118,2.5436,2.5556,2.5238,2.5274,2.5096,2.5412,2.5535,2.5748,2.5103,2.5668,2.5567,2.6103,2.61,2.5781,2.5912,2.5995,2.6164,2.6391,2.6425,2.6454,2.6725,2.7318,2.7304,2.7281,2.7606,2.7744,2.7562,2.7959,2.796,2.7828,2.8177,2.8386,2.7699,2.7619,2.7606,2.7465,2.7054,2.6781,2.6435,2.6623,2.6253,2.5829,2.6015,2.567,2.5633,2.5453,2.5829,2.546,2.5433,2.5519,2.5502,2.5025,2.5471,2.5444,2.5672,2.4869,2.54,2.5436,2.5183,2.5484,2.5444,2.5318,2.5335,2.5603,2.5215,2.5459,2.5499,2.5587,2.5384,2.5411,2.5583,2.5147,2.5307,2.5287,2.5265,2.5493,2.5485,2.5512,2.5366,2.5345,2.5086,2.53,2.5576,2.5838,2.5326,2.5486,2.5323,2.5387,2.5136,2.5353,2.5364,2.5336,2.5816,2.5408,2.5297,2.5454,2.5423,2.5264,2.5226,2.5181,2.5215,2.5267,2.5042,2.5793,2.5232,2.5414,2.5367,2.532,2.5776,2.5562,2.5517,2.59,2.5981,2.5847,2.5991,2.6299,2.6218,2.6071,2.6453,2.6119,2.7044,2.6195,2.6434,2.5904,2.5362,2.5049,2.5499,2.5126,2.5401,2.5361,2.5156,2.4991,2.5178,2.5017,2.466,2.5185,2.4997,2.5316,2.481,2.5158,2.5132,2.4857,2.4157,2.3348,2.3231,2.4187,2.6825,3.0632,3.4877,3.8939,4.0921,4.0787,3.6527,3.1254,2.9312,2.7453,2.6955,2.6321,2.5207,2.5644,2.5271,2.5507,2.5255,2.5108,2.4824,2.5092,2.5163,2.4989,2.5102,2.5036,2.5059,2.524,2.5142,2.5227,2.5472,2.524,2.5194,2.5172,2.5122,2.538,2.5089,2.5359,2.5552,2.5163,2.5469,2.5848,2.5848,2.5538,2.5572,2.5813,2.5667,2.6154,2.5995,2.6168,2.6214,2.5911,2.6349,2.6805,2.6452,2.7099,2.7128,2.7201,2.7308,2.7803,2.7627,2.7568,2.836,2.8021,2.8473,2.8065,2.8006,2.759,2.7796,2.7968,2.7049,2.712,2.7064,2.6671,2.6652,2.6206,2.618,2.5895,2.5366,2.5522,2.6106,2.5855,2.547,2.5587,2.5483,2.521,2.5433,2.5327,2.5379,2.5333,2.5278,2.5004,2.538,2.507,2.5149,2.4871,2.5485,2.5621,2.536,2.5218,2.5275,2.5842,2.5392,2.536,2.5489,2.5545,2.5074,2.5046,2.5763,2.543,2.5357,2.5661,2.5454,2.5479,2.5476,2.5283,2.5144,2.5216,2.5796,2.6121,2.5592,2.561,2.5153,2.6069,2.5751,2.6123,2.571,2.621,2.6431,2.6402,2.6665,2.6387,2.619,2.6425,2.6669,2.5547,2.5443,2.5445,2.5387,2.5122,2.5271,2.5214,2.4845,2.508,2.5257,2.5306,2.4751,2.4905,2.5043,2.5102,2.4827,2.4817,2.4836,2.5178,2.4691,2.3242,2.3533,2.4188,2.6723,3.0805,3.4837,3.787,4.075,4.0633,3.7086,3.1735,2.8432,2.7343,2.6304,2.5799,2.56,2.5278,2.5236,2.5336,2.5326,2.5115,2.5075,2.5215,2.5066,2.5069,2.5521,2.5475,2.5272,2.5335,2.4932,2.5152,2.5051,2.5127,2.5357,2.5018,2.5693,2.5597,2.5259,2.5298,2.5561,2.5533,2.5843,2.5526,2.5775,2.6254,2.5653,2.6039,2.5786,2.5804,2.6402,2.633,2.6441,2.6797,2.6673,2.6829,2.6588,2.7207,2.7343,2.7437,2.7913,2.7938,2.7521,2.8291,2.813,2.7774,2.8356,2.8206,2.8665,2.8326,2.7987,2.7557,2.7708,2.71,2.7184,2.6095,2.6619,2.6416,2.6432,2.5947,2.5892,2.5936,2.5721,2.5563,2.5674,2.5638,2.5836,2.5851,2.5733,2.5736,2.5681,2.5871,2.5337,2.5618,2.5743,2.5333,2.556,2.5707,2.5745,2.5702,2.561,2.5627,2.5501,2.5751,2.5772,2.6008,2.5649,2.5823,2.5401,2.5525,2.5945,2.5956,2.581,2.5884,2.6243,2.6339,2.5956,2.6327,2.6068,2.6035,2.6332,2.6395,2.6955,2.6629,2.7086,2.7022,2.6763,2.672,2.6484,2.6803,2.6475,2.6343,2.563,2.5672,2.5207,2.5755,2.5585,2.5695,2.5762,2.5805,2.5601,2.5302,2.5278,2.5208,2.5327,2.5633,2.5764,2.5333,2.5188,2.4781,2.3364,2.3686,2.4779,2.716,3.13,3.5869,4.007,4.2206,4.1514,3.9956,3.493,3.018,2.7674,2.7038,2.6739,2.6238,2.5869,2.5665,2.5792,2.5687,2.5559,2.5083,2.5177,2.5663,2.5513,2.5583,2.539,2.5441,2.5517,2.532,2.5671,2.5498,2.5709,2.5696,2.5487,2.5648,2.6018,2.5345,2.556,2.614,2.6072,2.5985,2.5862,2.5928,2.5903,2.5929,2.5987,2.6077,2.6874,2.6293,2.6206,2.6303,2.6741,2.6999,2.7024,2.6989,2.7662,2.772,2.7813,2.7607,2.768,2.8079,2.8074,2.8348,2.84,2.8167,2.8338,2.8395,2.8351,2.7945,2.7902,2.7427,2.7428,2.6762,2.661,2.6961,2.6436,2.64,2.6154,2.5911,2.6048,2.6052,2.58,2.6468,2.6152,2.5822,2.5976,2.5969,2.6091,2.5807,2.6043,2.5582,2.5575,2.5584,2.5843,2.5826,2.5573,2.5614,2.604,2.599,2.6065,2.5946,2.5984,2.5554,2.6042,2.6336,2.5967,2.5813,2.5546,2.6048,2.6206,2.6308,2.6184,2.6493,2.6301,2.6144,2.646,2.6876,2.6712,2.7329,2.6869,2.7096,2.7039,2.6859,2.6592,2.7057,2.679,2.629,2.6169,2.5962,2.6123,2.5896,2.5759,2.5794,2.5587,2.5713,2.5725,2.5867,2.5489,2.5484,2.5515,2.5565,2.5788,2.5482,2.55,2.5271,2.4315,2.4052,2.3894,2.5423,2.8476,3.0384,3.503,3.9201,4.2407,4.1819,3.9156,3.3518,2.9325,2.7697,2.6515,2.6296,2.6194,2.6318,2.5907,2.5785,2.5582,2.5419,2.5123,2.6151,2.5458,2.5928,2.5383,2.5436,2.537,2.5515,2.5579,2.539,2.5637,2.5867,2.585,2.5579,2.566,2.571,2.5928,2.5645,2.5975,2.6155,2.6011,2.5894,2.5767,2.5703,2.5931,2.5886,2.5898,2.5983,2.6617,2.6721,2.6936,2.6988,2.6868,2.6817,2.7187,2.7522,2.7556,2.8024,2.7932,2.7935,2.7491,2.797,2.8185,2.7999,2.8435,2.8061,2.8211,2.7908,2.8044,2.7649,2.7152,2.757,2.7144,2.6873,2.6655,2.5883,2.6542,2.5681,2.5919,2.6051,2.583,2.612,2.5698,2.5764,2.5943,2.5905,2.5627,2.6109,2.5598,2.5686,2.5789,2.6146,2.559,2.5881,2.5763,2.5722,2.5663,2.57,2.5742,2.5963,2.5925,2.5586,2.549,2.5556,2.5762,2.549,2.5755,2.5735,2.5637,2.5693,2.5985,2.6158,2.5894,2.548,2.5675,2.5324,2.5601,2.5765,2.5816,2.569,2.5702,2.5824,2.57,2.5636,2.5681,2.5983,2.5708,2.6352,2.589,2.5991,2.6279,2.6522,2.6461,2.6399,2.6726,2.6953,2.714,2.6819,2.6707,2.6335,2.5892,2.545,2.607,2.554,2.5458,2.5605,2.5287,2.5217,2.5266,2.5052,2.569,2.5586,2.5689,2.565,2.4944,2.4904,2.5292,2.5583,2.494,2.4048,2.3652,2.3603,2.4998,2.8362,3.0649,3.4956,3.9312,4.2015,4.1949,3.8734,3.364,2.934,2.7692,2.6554,2.6232,2.5877,2.5802,2.5443,2.5686,2.5214,2.5435,2.5317,2.5224,2.517,2.5695,2.566,2.5497,2.5383,2.5316,2.517,2.525,2.5444,2.573,2.5597,2.5423,2.5428,2.5585,2.5577,2.5194,2.5835,2.5568,2.5874,2.5761,2.5613,2.5762,2.5802,2.5844,2.6114,2.6488,2.6246,2.6486,2.6325,2.663,2.6481,2.6773,2.6782,2.7037,2.773,2.7796,2.7567,2.7696,2.7799,2.7743,2.8121,2.8008,2.8191,2.8585,2.8389,2.7933,2.7968,2.7615,2.7587,2.7077,2.7524,2.6732,2.6126,2.6337,2.6232,2.6369,2.5851,2.6225,2.5781,2.575,2.5869,2.5551,2.5618,2.5681,2.5929,2.5568,2.5786,2.5879,2.5911,2.5742,2.5595,2.5931,2.5649,2.5807,2.55,2.5579,2.6232,2.5362,2.5133,2.586,2.6108,2.5897,2.595,2.5533,2.558,2.5679,2.5621,2.5683,2.6109,2.5865,2.5789,2.5523,2.5726,2.5726,2.5669,2.5251,2.5452,2.5687,2.5895,2.5667,2.5568,2.5591,2.5279,2.5213,2.5568,2.5743,2.5852,2.5726,2.5849,2.6021,2.5722,2.6351,2.6259,2.6463,2.6446,2.6639,2.6818,2.6646,2.6881,2.6815,2.675,2.5636,2.5658,2.5972,2.5416,2.5379,2.551,2.5297,2.555,2.553,2.5162,2.523,2.5454,2.5146,2.53,2.5175,2.5128,2.5157,2.5254,2.4965,2.4825,2.3846,2.3461,2.3464,2.391,2.7314,3.0755,3.5706,3.9221,4.1489,4.0535,3.7309,3.165,2.8457,2.7183,2.6427,2.6248,2.5583,2.5564,2.5506,2.5249,2.5291,2.5185,2.5336,2.5241,2.5148,2.5143,2.575,2.5013,2.5406,2.4988,2.5327,2.5856,2.5039,2.5689,2.5691,2.5458,2.5276,2.5756,2.5725,2.5241,2.5433,2.5513,2.5257,2.5815,2.5584,2.5736,2.594,2.6115,2.5779,2.619,2.6232,2.6486,2.6212,2.6571,2.6622,2.7006,2.6982,2.6815,2.7425,2.7389,2.714,2.8123,2.8076,2.807,2.792,2.8048,2.809,2.8189,2.8216,2.7718,2.7737,2.7634,2.7163,2.7223,2.6939,2.6595,2.6294,2.5943,2.5999,2.5969,2.6149,2.5772,2.549,2.5577,2.5634,2.5373,2.5428,2.5673,2.5878,2.5853,2.5831,2.521,2.5172,2.583,2.5639,2.5694,2.5272,2.5289,2.5642,2.535,2.5279,2.5643,2.5572,2.5517,2.5808,2.5154,2.5977,2.5733,2.5361,2.5562,2.5682,2.5567,2.6082,2.5348,2.5162,2.5797,2.558,2.6139,2.545,2.5849,2.5504,2.5403,2.5587,2.5524,2.5786,2.5324,2.5936,2.5907,2.5679,2.595,2.6235,2.5919,2.6591,2.6436,2.6613,2.6602,2.6625,2.6651,2.6675,2.6466,2.5637,2.607,2.547,2.5308,2.5404,2.5428,2.5348,2.5528,2.5296,2.5172,2.5334,2.5011,2.5036,2.5123,2.5371,2.5195,2.5536,2.519,2.5259,2.4875,2.4342,2.3418,2.3212,2.3792,2.6351,2.8864,3.348,3.7797,4.0754,4.0949,3.8626,3.3521,2.8978,2.7365,2.695,2.6148,2.5499,2.5962,2.5485,2.5703,2.5336,2.5082,2.4904,2.4799,2.4895,2.5548,2.5498,2.5209,2.4974,2.4759,2.5328,2.5313,2.5402,2.5243,2.5205,2.5323,2.5411,2.5823,2.565,2.5827,2.5156,2.5678,2.557,2.566,2.5344,2.6,2.5664,2.5184,2.5919,2.5991,2.6293,2.6283,2.6523,2.6507,2.6696,2.6679,2.7041,2.7008,2.7262,2.7624,2.7454,2.7796,2.7624,2.8033,2.8154,2.8518,2.802,2.8025,2.8104,2.7624,2.7711,2.7427,2.7158,2.6891,2.6792,2.6659,2.6175,2.6273,2.5907,2.5794,2.5991,2.5537,2.5774,2.5988,2.5448,2.5089,2.5215,2.5558,2.5661,2.52,2.5384,2.5392,2.5384,2.5459,2.5239,2.5675,2.5447,2.5553,2.4977,2.5098,2.5517,2.5522,2.5679,2.5375,2.5271,2.5325,2.5311,2.5349,2.5095,2.536,2.5462,2.5717,2.5652,2.5732,2.54,2.5553,2.5327,2.5707,2.542,2.5378,2.5787,2.5184,2.5366,2.5367,2.5555,2.5796,2.5809,2.5828,2.5948,2.581,2.5912,2.6549,2.6619,2.6485,2.6533,2.6701,2.6378,2.6592,2.5899,2.5697,2.5843,2.5655,2.5138,2.4877,2.5277,2.4987,2.4807,2.518,2.5424,2.5136,2.4956,2.4853,2.5375,2.4663,2.4906,2.5295,2.5267,2.4871,2.4505,2.338,2.3239,2.3124,2.5718,2.899,3.1062,3.5349,3.9018,4.1029,4.1022,3.6736,3.1872,2.8688,2.7056,2.6224,2.5547,2.5069,2.5472,2.5523,2.5294,2.509,2.4815,2.528,2.4838,2.5117,2.5161,2.5198,2.5154,2.517,2.4946,2.4897,2.5018,2.4816,2.5225,2.5106,2.5333,2.5223,2.5168,2.5332,2.5703,2.5448,2.4756,2.5272,2.6165,2.5585,2.5684,2.5846,2.5626,2.5515,2.6054,2.5712,2.5799,2.6114,2.644,2.667,2.6648,2.7127,2.7017,2.6874,2.7351,2.7301,2.7556,2.773,2.7729,2.7701,2.751,2.765,2.7942,2.8022,2.7349,2.7223,2.7029,2.6764,2.668,2.649,2.5927,2.6087,2.5752,2.5762,2.57,2.5545,2.546,2.5422,2.5255,2.5182,2.5511,2.5454,2.4975,2.5165,2.499,2.5185,2.5842,2.5438,2.5269,2.4992,2.4921,2.5063,2.4939,2.5259,2.5397,2.4965,2.526,2.535,2.5266,2.4823,2.5163,2.5056,2.5518,2.5394,2.5417,2.5463,2.5155,2.5286,2.484,2.5755,2.5339,2.5423,2.5189,2.5219,2.5749,2.5422,2.5612,2.5561,2.5763,2.5673,2.5731,2.588,2.5981,2.6397,2.6181,2.6493,2.6186,2.6357,2.6001,2.6069,2.5852,2.5636,2.5126,2.5055,2.5334,2.4828,2.5017,2.5136,2.4722,2.4441,2.5237,2.4864,2.4981,2.4782,2.4928,2.4853,2.4376,2.4927,2.517,2.4781,2.3731,2.3032,2.3253,2.4601,2.722,3.116,3.5473,3.9603,4.16,4.0433,3.622,3.1235,2.9558,2.701,2.6016,2.5737,2.5335,2.5787,2.4937,2.5221,2.4617,2.4724,2.4605,2.4358,2.539,2.4874,2.4875,2.48,2.4704,2.5098,2.5133,2.4904,2.4682,2.4602,2.467,2.53,2.5182,2.4983,2.4977,2.5186,2.5018,2.4928,2.4786,2.5408,2.5474,2.5523,2.5364,2.5587,2.5863,2.5916,2.5752,2.5627,2.5651,2.5821,2.6166,2.6473,2.6295,2.6623,2.6915,2.6866,2.7157,2.6989,2.7335,2.7552,2.7558,2.7898,2.7983,2.765,2.7292,2.717,2.7232,2.6822,2.6577,2.6181,2.5976,2.5834,2.6026,2.5751,2.5493,2.5471,2.5147,2.5237,2.4917,2.5048,2.51,2.5219,2.5126,2.4835,2.507,2.5034,2.5137,2.5237,2.475,2.4784,2.4989,2.4777,2.5081,2.4994,2.5154,2.5009,2.4674,2.4973,2.4718,2.5062,2.4879,2.4884,2.5183,2.5319,2.5003,2.4909,2.4928,2.5052,2.5175,2.5081,2.4932,2.499,2.5194,2.5034,2.4853,2.5067,2.4857,2.5225,2.549,2.5262,2.5251,2.5305,2.5585,2.5576,2.5724,2.5905,2.5765,2.6031,2.6096,2.5805,2.5969,2.6121,2.6042,2.5691,2.5265,2.489,2.4877,2.4347,2.4666,2.4715,2.5221,2.4582,2.4534,2.4932,2.4605,2.449,2.456,2.4532,2.459,2.4398,2.4531,2.4552,2.4524,2.4285,2.3417,2.2826,2.267,2.4368,2.7429,3.1513,3.5577,3.9302,4.1184,3.9837,3.5754,3.0155,2.7404,2.5973,2.5553,2.5234,2.5114,2.4792,2.4797,2.4921,2.4625,2.4613,2.4602,2.443,2.4653,2.4835,2.437,2.4547,2.471,2.4652,2.4662,2.4169,2.4203,2.5029,2.4883,2.5159,2.5059,2.4591,2.4756,2.465,2.4772,2.472,2.4998,2.4755,2.4561,2.5294,2.5492,2.5239,2.536,2.5339,2.5302,2.5056,2.5498,2.5918,2.5867,2.6134,2.6365,2.6051,2.6454,2.6424,2.633,2.7007,2.7023,2.6943,2.6847,2.7179,2.744,2.7079,2.7155,2.6796,2.6363,2.6184,2.6241,2.6143,2.5786,2.5889,2.579,2.5385,2.5402,2.5089,2.4679,2.5071,2.4841,2.4502,2.4846,2.4871,2.4683,2.5139,2.435,2.446,2.474,2.4617,2.4722,2.4863,2.4578,2.445,2.4413,2.4349,2.4716,2.4904,2.469,2.4557,2.462,2.4793,2.4671,2.4715,2.458,2.4814,2.4636,2.4675,2.4658,2.4661,2.4819,2.4555,2.4638,2.4732,2.4689,2.4624,2.4437,2.448,2.4766,2.4918,2.4917,2.4544,2.446,2.4409,2.465,2.4612,2.4757,2.4699,2.4436,2.4672,2.4673,2.4589,2.4542,2.4735,2.4372,2.4569,2.4471,2.4497,2.4699,2.4903,2.4016,2.4501,2.4437,2.4773,2.4662,2.427,2.4298,2.4538,2.5075,2.4653,2.4794,2.5086,2.5011,2.5087,2.5248,2.5175,2.5227,2.5517,2.5643,2.5258,2.5414,2.5397,2.5562,2.5781,2.4916,2.4718,2.4653,2.4383,2.4212,2.4293,2.4596,2.4306,2.4244,2.4346,2.4103,2.4243,2.4413,2.449,2.4308,2.4248,2.4492,2.4242,2.4131,2.3932,2.3196,2.2876,2.2958,2.4378,2.6803,3.0842,3.5397,3.9093,4.0922,3.9782,3.5821,3.2555,2.8998,2.6543,2.5759,2.4991,2.4712,2.4328,2.4919,2.4524,2.4286,2.4173,2.4356,2.4129,2.4157,2.4122,2.4464,2.4463,2.44,2.4283,2.4287,2.4206,2.4511,2.4525,2.4304,2.4194,2.448,2.4425,2.5232,2.5405,2.4816,2.5118,2.4801,2.4247,2.4661,2.4605,2.4611,2.4487,2.4973,2.492,2.5078,2.5111,2.5541,2.542,2.5344,2.552,2.5853,2.6003,2.6344,2.6521,2.6093,2.6434,2.6677,2.6756,2.7447,2.6724,2.7071,2.7547,2.7509,2.7197,2.6961,2.6758,2.6572,2.6609,2.6343,2.57,2.5119,2.5671,2.5835,2.5904,2.563,2.5395,2.4974,2.5291,2.4754,2.4391,2.4193,2.4674,2.4932,2.4747,2.4275,2.4319,2.4313,2.4476,2.4563,2.4852,2.4904,2.4758,2.437,2.4731,2.4884,2.4798,2.4872,2.4454,2.4599,2.4824,2.4861,2.4476,2.4988,2.4914,2.4924,2.4705,2.5282,2.5072,2.4601,2.4571,2.5214,2.5373,2.4573,2.422,2.4271,2.4372,2.464,2.4869,2.4627,2.454,2.4641,2.4736,2.4471,2.4417,2.457,2.4839,2.5025,2.4949,2.4554,2.4751,2.4485,2.4484,2.4566,2.488,2.4494,2.4578,2.4689,2.4276,2.4623,2.482,2.4506,2.4295,2.462,2.4506,2.4611,2.478,2.4663,2.5168,2.5401,2.5286,2.491,2.5285,2.5231,2.5542,2.5922,2.5645,2.55,2.5783,2.5369,2.4965,2.4895,2.4803,2.4628,2.4501,2.434,2.4089,2.4023,2.4175,2.4751,2.4515,2.412,2.4019,2.4005,2.411,2.4343,2.4605,2.4319,2.4092,2.3971,2.3224,2.2399,2.2064,2.3684,2.6678,3.0423,3.4965,3.8682,4.0123,4.0466,3.8508,3.3449,2.9228,2.6549,2.569,2.5037,2.5042,2.4979,2.4813,2.4097,2.4097,2.378,2.4441,2.4353,2.4318,2.4455,2.4036,2.4106,2.4336,2.4556,2.4377,2.4553,2.49,2.4632,2.4277,2.4684,2.4593,2.5314,2.5986,2.5426,2.4314,2.3694,2.5529,2.5673,2.4256,2.3583,2.3623,2.3644,2.3943,2.4811,2.454,2.4866,2.5058,2.5186,2.5385,2.546,2.5428,2.5668,2.589,2.6162,2.638,2.686,2.6491,2.6635,2.6865,2.6665,2.674,2.6876,2.7039,2.7015,2.6858,2.658,2.6785,2.6826,2.6327,2.5747,2.5217,2.5362,2.5553,2.5456,2.5192,2.4264,2.3768,2.4211,2.4448,2.4299,2.4314,2.4203,2.4399,2.4474,2.4368,2.4658,2.4142,2.4373,2.4611,2.4798,2.4481,2.438,2.4392,2.4083,2.397,2.4514,2.4379,2.4597,2.4088,2.4252,2.4633,2.4448,2.4218,2.4445,2.4235,2.4383,2.445,2.4493,2.4163,2.4209,2.4668,2.4683,2.433,2.4518,2.4424,2.4091,2.4014,2.431,2.448,2.4368,2.4409,2.4357,2.4224,2.4164,2.4141,2.421,2.4285,2.4353,2.4245,2.4184,2.4431,2.4125,2.4454,2.4223,2.4222,2.4172,2.4192,2.4239,2.4181,2.4469,2.4149,2.4163,2.3943,2.365,2.4052,2.4069,2.4274,2.4158,2.4218,2.4007,2.4115,2.4009,2.406,2.4394,2.4491,2.4521,2.4377,2.4914,2.4685,2.4431,2.4853,2.4846,2.5053,2.5011,2.4933,2.5097,2.5114,2.4968,2.4685,2.4717,2.4712,2.4041,2.3912,2.404,2.4085,2.4243,2.4069,2.4033,2.4078,2.3833,2.3918,2.3953,2.3642,2.3367,2.3798,2.39,2.4026,2.3828,2.3157,2.2049,2.2052,2.3234,2.6264,2.9872,3.3948,3.8171,4.0645,4.0505,3.6967,3.136,2.7428,2.5766,2.4972,2.4452,2.427,2.4393,2.4455,2.4089,2.3727,2.3837,2.3762,2.4157,2.4274,2.4274,2.4175,2.3722,2.3972,2.4326,2.3997,2.3994,2.4237,2.4173,2.3973,2.3881,2.3793,2.4361,2.4501,2.4434,2.446,2.4751,2.3917,2.4137,2.4564,2.4449,2.4729,2.4708,2.463,2.4813,2.4958,2.4766,2.4736,2.4724,2.5252,2.5263,2.5291,2.5719,2.5875,2.6067,2.6182,2.6354,2.6695,2.6499,2.6622,2.6892,2.7154,2.7272,2.7049,2.6969,2.7261,2.6952,2.6351,2.6346,2.594,2.5491,2.54,2.5132,2.526,2.4997,2.4641,2.4739,2.4745,2.431,2.4635,2.473,2.4659,2.4263,2.4109,2.4325,2.4463,2.4716,2.4377,2.4205,2.4111,2.4093,2.417,2.4288,2.4579,2.4471,2.4417,2.4372,2.4455,2.4438,2.406,2.4155,2.4635,2.4488,2.4697,2.4762,2.4474,2.4258,2.4335,2.4397,2.426,2.4315,2.427,2.4145,2.4195,2.4375,2.4405,2.4276,2.4691,2.434,2.4779,2.4449,2.4683,2.4403,2.42,2.4475,2.4575,2.4596,2.407,2.4091,2.386,2.4242,2.4137,2.4297,2.438,2.4453,2.4414,2.4646,2.4625,2.4219,2.4263,2.4284,2.4101,2.4022,2.4046,2.4248,2.4077,2.4448,2.4179,2.3999,2.4325,2.4829,2.4758,2.4841,2.4642,2.4413,2.4461,2.4506,2.4416,2.497,2.5231,2.5473,2.5631,2.5238,2.5126,2.5038,2.4853,2.5232,2.4707,2.4556,2.4477,2.4189,2.4383,2.4355,2.4152,2.3954,2.4241,2.4219,2.3992,2.3912,2.3808,2.4115,2.4053,2.4331,2.4123,2.3879,2.3843,2.3232,2.2325,2.2347,2.3397,2.5992,3.028,3.2573,3.6596,4.0195,4.0267,3.8098,3.2684,2.8371,2.6426,2.5314,2.4795,2.486,2.4485,2.4348,2.4173,2.4009,2.3998,2.3893,2.3934,2.4038,2.3855,2.4057,2.4227,2.4528,2.4366,2.3973,2.372,2.444,2.4394,2.409,2.4328,2.4385,2.4062,2.4008,2.4095,2.4057,2.4488,2.436,2.458,2.4622,2.5142,2.4903,2.4657,2.4917,2.4704,2.4831,2.509,2.5086,2.5002,2.5349,2.5455,2.5663,2.5689,2.5763,2.6263,2.6178,2.6717,2.6168,2.6546,2.6776,2.6783,2.7101,2.7178,2.6676,2.6873,2.6859,2.7083,2.6853,2.6184,2.5886,2.5627,2.5948,2.5463,2.5096,2.4621,2.429,2.4899,2.4414,2.4798,2.4466,2.4362,2.4559,2.4466,2.4209,2.4244,2.4368,2.4063,2.4228,2.4437,2.4415,2.451,2.4786,2.4491,2.4482,2.438,2.4619,2.4598,2.4408,2.4444,2.4512,2.461,2.4371,2.4348,2.461,2.4618,2.4378,2.4322,2.4591,2.4476,2.4685,2.4876,2.4598,2.451,2.4354,2.4411,2.4845,2.4528,2.4269,2.4303,2.4497,2.4558,2.4381,2.4283,2.4394,2.4456,2.4202,2.4608,2.4465,2.4244,2.4661,2.4618,2.4444,2.4667,2.4779,2.4552,2.462,2.4421,2.4638,2.4271,2.4194,2.5048,2.4539,2.4865,2.5112,2.482,2.4958,2.4853,2.4906,2.5078,2.5325,2.5656,2.5649,2.5595,2.5138,2.5561,2.5391,2.5059,2.4821,2.458,2.4709,2.4761,2.4519,2.4067,2.4336,2.4573,2.4321,2.4348,2.4364,2.4195,2.412,2.3976,2.432,2.4266,2.4587,2.4003,2.3485,2.2328,2.2479,2.3034,2.5682,2.9465,3.3622,3.82,4.0209,4.0717,3.9522,3.4592,2.9991,2.702,2.551,2.4896,2.4892,2.4737,2.4793,2.4415,2.4232,2.4287,2.3991,2.3952,2.422,2.4355,2.397,2.4029,2.4159,2.4153,2.4384,2.4577,2.3907,2.4486,2.4597,2.4406,2.4212,2.4315,2.4804,2.5004,2.4587,2.4446,2.4414,2.4581,2.4585,2.5246,2.4895,2.4656,2.4949,2.4805,2.4803,2.5031,2.4954,2.5087,2.5467,2.5979,2.5947,2.5701,2.6427,2.65,2.6582,2.7149,2.6847,2.7148,2.7175,2.7171,2.7476,2.7998,2.7506,2.7208,2.7498,2.7412,2.7326,2.6509,2.6142,2.6213,2.6153,2.5784,2.5408,2.5333,2.4971,2.4709,2.5246,2.4857,2.4605,2.4768,2.474,2.4918,2.4558,2.4487,2.5084,2.4851,2.4495,2.4582,2.4374,2.4438,2.489,2.4579,2.4517,2.4525,2.4616,2.4542,2.4198,2.428,2.4696,2.4826,2.469,2.4592,2.4632,2.4458,2.4686,2.4394,2.4734,2.4867,2.4464,2.4323,2.4246,2.4329,2.4474,2.4529,2.4695,2.4456,2.4343,2.419,2.423,2.4392,2.4753,2.4518,2.4458,2.4676,2.4329,2.3969,2.4344,2.4328,2.4547,2.4193,2.4133,2.4412,2.405,2.4338,2.425,2.4744,2.5158,2.4905,2.4482,2.4717,2.5106,2.4899,2.5116,2.5556,2.5614,2.5631,2.5337,2.5145,2.5079,2.5061,2.4498,2.4634,2.4295,2.4278,2.4149,2.4047,2.4046,2.4328,2.4423,2.4315,2.3878,2.3794,2.4026,2.427,2.4281,2.4076,2.4219,2.3826,2.3315,2.2424,2.2029,2.247,2.546,2.9512,3.3896,3.7924,4.0497,4.0137,3.6388,3.1282,2.7383,2.619,2.5439,2.4914,2.4704,2.4757,2.4437,2.4409,2.3852,2.4128,2.421,2.4348,2.4101,2.4152,2.3808,2.4072,2.382,2.3943,2.4371,2.4232,2.4274,2.4301,2.433,2.3848,2.3766,2.4334,2.4195,2.4447,2.4644,2.4764,2.4793,2.4494,2.4612,2.4722,2.4477,2.4269,2.462,2.4964,2.5168,2.5206,2.528,2.5254,2.5182,2.5614,2.5617,2.5504,2.6086,2.6343,2.6663,2.6931,2.6676,2.6776,2.6922,2.6816,2.6721,2.7036,2.6929,2.6351,2.6793,2.6558,2.6347,2.6395,2.5856,2.5626,2.5774,2.558,2.5172,2.5071,2.5312,2.4545,2.4568,2.4481,2.4549,2.4754,2.4594,2.4248,2.4405,2.4298,2.4422,2.4412,2.4352,2.4143,2.4442,2.447,2.4677,2.4385,2.4309,2.4684,2.487,2.4503,2.4536,2.4405,2.4384,2.454,2.4588,2.4663,2.4583,2.4235,2.4247,2.4479,2.4527,2.4589,2.4322,2.4424,2.4499,2.4447,2.4451,2.4309,2.4576,2.4105,2.4262,2.4136,2.4468,2.449,2.4689,2.4396,2.4109,2.4547,2.4455,2.4902,2.481,2.4728,2.4646,2.4729,2.4936,2.5135,2.5368,2.5509,2.5713,2.5774,2.5578,2.5536,2.4923,2.467,2.4678,2.4399,2.433,2.3899,2.4122,2.3959,2.4259,2.4274,2.4274,2.3998,2.3629,2.3762,2.3611,2.4137,2.4129,2.4228,2.4025,2.3578,2.2546,2.2307,2.2257,2.4635,2.8108,3.2516,3.7026,3.9823,4.0248,3.7404,3.243,2.8503,2.6205,2.6005,2.5467,2.4715,2.4641,2.4106,2.3843,2.4206,2.425,2.3859,2.4134,2.3788,2.4066,2.3909,2.3922,2.4153,2.4146,2.4469,2.4068,2.4072,2.3891,2.3868,2.4133,2.4154,2.4153,2.4174,2.4218,2.4412,2.4533,2.4458,2.4443,2.4756,2.4596,2.4621,2.472,2.4748,2.4832,2.4752,2.5136,2.5755,2.552,2.5294,2.5224,2.5687,2.5954,2.6182,2.5831,2.5809,2.6189,2.6394,2.6514,2.6415,2.6903,2.7102,2.6899,2.7177,2.7189,2.6701,2.6269,2.6604,2.625,2.6004,2.5867,2.5766,2.5093,2.4885,2.4975,2.4642,2.4786,2.4699,2.4773,2.4523,2.4684,2.4394,2.4366,2.4511,2.469,2.4724,2.4676,2.3807,2.4019,2.4506,2.4661,2.498,2.4698,2.4337,2.4137,2.4252,2.4729,2.4347,2.4477,2.4643,2.4566,2.493,2.4688,2.4517,2.4236,2.455,2.4775,2.4341,2.4296,2.4255,2.4435,2.4625,2.461,2.4386,2.4513,2.4593,2.4459,2.4514,2.4441,2.4708,2.461,2.4787,2.4763,2.5108,2.4833,2.4949,2.5679,2.5695,2.5623,2.562,2.5622,2.579,2.5454,2.5147,2.4994,2.4518,2.4487,2.4427,2.451,2.4027,2.4362,2.4202,2.4486,2.407,2.4062,2.3993,2.415,2.3936,2.4205,2.4303,2.41,2.4228,2.358,2.2504,2.2182,2.2858,2.4937,2.8217,3.2735,3.7058,4.0092,4.0292,3.7685,3.2487,2.8228,2.6981,2.5422,2.4774,2.4509,2.4266,2.4735,2.502,2.464,2.427,2.4088,2.4351,2.4,2.419,2.3789,2.3532,2.4337,2.4356,2.4293,2.414,2.395,2.4446,2.4245,2.4427,2.4273,2.4489,2.4313,2.3951,2.4121,2.4761,2.4659,2.4752,2.4652,2.4776,2.4905,2.4952,2.4825,2.4964,2.4807,2.5135,2.5096,2.5424,2.5471,2.5835,2.5994,2.5903,2.5998,2.5993,2.6456,2.6587,2.7145,2.6899,2.6573,2.6588,2.6861,2.7023,2.6984,2.7006,2.7111,2.6704,2.6208,2.6091,2.5695,2.5753,2.568,2.5395,2.5005,2.4768,2.4946,2.4806,2.4822,2.4609,2.4825,2.4643,2.4758,2.4528,2.4449,2.4219,2.4264,2.4283,2.4365,2.4961,2.5275,2.5068,2.4531,2.4182,2.4422,2.4315,2.4542,2.4634,2.423,2.4518,2.4843,2.4737,2.4755,2.4579,2.4241,2.4285,2.4607,2.4692,2.4633,2.487,2.5073,2.5025,2.5354,2.5162,2.512,2.5205,2.5571,2.5273,2.5674,2.6076,2.587,2.5506,2.5172,2.5104,2.4691,2.4905,2.4406,2.4328,2.4641,2.4303,2.4214,2.4434,2.4348,2.402,2.3775,2.4007,2.4355,2.4308,2.4239,2.4272,2.4006,2.3994,2.4101,2.2938,2.2497,2.2648,2.4192,2.7513,3.1592,3.5865,3.8645,3.9443,3.7983,3.3045,2.8746,2.6598,2.6051,2.5604,2.4924,2.465,2.4408,2.4527,2.4394,2.4482,2.4272,2.4086,2.4319,2.4241,2.3994,2.4264,2.4362,2.422,2.4124,2.4347,2.4317,2.4442,2.408,2.4704,2.4929,2.4712,2.452,2.4451,2.4425,2.4779,2.4618,2.4931,2.4827,2.4839,2.4813,2.477,2.4968,2.5304,2.5368,2.5125,2.5326,2.5471,2.5549,2.5838,2.5732,2.5835,2.6294,2.6295,2.651,2.669,2.6817,2.7093,2.6988,2.6759,2.7117,2.7028,2.693,2.7246,2.697,2.6604,2.6309,2.6222,2.6137,2.5521,2.5274,2.503,2.5273,2.4991,2.5211,2.5068,2.4644,2.4923,2.495,2.4797,2.4517,2.4665,2.4409,2.4686,2.4858,2.488,2.4751,2.4506,2.4647,2.4628,2.4516,2.4673,2.4839,2.4869,2.4905,2.4666,2.4783,2.4835,2.5017,2.5046,2.5614,2.5433,2.5197,2.5279,2.5424,2.5754,2.5682,2.5702,2.6052,2.608,2.5892,2.5816,2.5907,2.5703,2.5087,2.4961,2.4785,2.4583,2.4723,2.4565,2.467,2.4799,2.4421,2.4441,2.4386,2.4404,2.4245,2.4273,2.4309,2.4624,2.4668,2.4505,2.385,2.3138,2.2542,2.2631,2.466,2.793,3.2718,3.6697,3.9369,4.0099,3.8205,3.3425,2.8894,2.6758,2.583,2.5265,2.4918,2.5016,2.4795,2.4911,2.4722,2.4357,2.4307,2.4346,2.4255,2.4461,2.4442,2.4483,2.4219,2.4323,2.4364,2.4612,2.4503,2.4386,2.4517,2.4622,2.4564,2.4634,2.4472,2.4751,2.4732,2.4831,2.476,2.4623,2.5007,2.515,2.514,2.5588,2.5475,2.5246,2.5085,2.5406,2.5724,2.5611,2.5628,2.5871,2.5876,2.6006,2.6391,2.6537,2.6708,2.6804,2.6917,2.6504,2.6678,2.7082,2.7287,2.7035,2.6859,2.664,2.6825,2.6419,2.6009,2.5994,2.5951,2.5685,2.5405,2.52,2.5388,2.5087,2.4861,2.5204,2.5251,2.4817,2.4637,2.4731,2.4881,2.4804,2.4715,2.497,2.4721,2.4709,2.5119,2.4766,2.4899,2.465,2.4963,2.4993,2.4908,2.5109,2.5079,2.5088,2.557,2.5728,2.5801,2.5196,2.5283,2.597,2.592,2.5875,2.5942,2.6158,2.5901,2.5963,2.5942,2.5878,2.5314,2.5019,2.5326,2.5146,2.5022,2.4932,2.4683,2.4625,2.4558,2.4384,2.4596,2.4511,2.4913,2.4555,2.4187,2.4401,2.452,2.4509,2.4585,2.3671,2.3042,2.3019,2.3357,2.5561,2.96,3.4208,3.8806,4.0445,4.1809,3.8517,3.2716,2.8919,2.71,2.6102,2.5295,2.5332,2.4831,2.4931,2.4807,2.4727,2.4389,2.4696,2.4596,2.4613,2.4339,2.4621,2.4897,2.4769,2.4554,2.4415,2.428,2.4655,2.467,2.4888,2.4797,2.4795,2.4586,2.4833,2.492,2.4889,2.4853,2.485,2.4835,2.5016,2.515,2.5401,2.5393,2.5282,2.5248,2.5411,2.533,2.5606,2.5623,2.5603,2.6168,2.6496,2.5818,2.6102,2.643,2.6898,2.7009,2.6752,2.6638,2.6571,2.6751,2.6718,2.6892,2.6987,2.6898,2.668,2.6203,2.5886,2.601,2.6051,2.5508,2.5264,2.501,2.4986,2.5021,2.4952,2.4509,2.4599,2.4537,2.4322,2.4482,2.4407,2.4375,2.4236,2.4259,2.4447,2.4214,2.4505,2.4446,2.4345,2.415,2.4039,2.4332,2.444,2.4628,2.4509,2.4749,2.4971,2.4767,2.4685,2.5225,2.4908,2.5224,2.5147,2.5245,2.5258,2.5501,2.5427,2.5324,2.5371,2.5071,2.5162,2.4781,2.4406,2.4432,2.4094,2.4587,2.4375,2.4751,2.4516,2.413,2.4084,2.4464,2.4349,2.4477,2.449,2.413,2.4219,2.4508,2.3591,2.2618,2.2641,2.3586,2.661,3.096,3.6038,4.0206,4.1979,4.0689,3.648,3.3715,2.9583,2.7134,2.6583,2.5461,2.5334,2.5374,2.5156,2.5339,2.5254,2.4883,2.4929,2.4853,2.4902,2.5016,2.4984,2.4853,2.4982,2.4712,2.4774,2.4713,2.4695,2.4767,2.5182,2.4807,2.5031,2.4858,2.4896,2.494,2.5036,2.4763,2.5225,2.5063,2.5069,2.4874,2.5115,2.5133,2.5343,2.536,2.5195,2.4946,2.5471,2.5814,2.6007,2.6061,2.5998,2.6061,2.6596,2.6689,2.6902,2.6369,2.6276,2.671,2.6767,2.6955,2.6744,2.664,2.6609,2.6563,2.6335,2.6231,2.5837,2.5756,2.5723,2.5466,2.5125,2.5008,2.4988,2.481,2.4511,2.5058,2.4854,2.4705,2.4575,2.5011,2.4865,2.4903,2.4821,2.473,2.4654,2.4636,2.4747,2.4551,2.5017,2.5287,2.5319,2.515,2.5157,2.5387,2.5683,2.5982,2.6152,2.5646,2.5509,2.5786,2.568,2.6021,2.5865,2.6046,2.6321,2.5959,2.5987,2.5918,2.6073,2.6207,2.5666,2.4964,2.4801,2.5097,2.504,2.4489,2.4352,2.4655,2.514,2.5014,2.4673,2.4327,2.4454,2.4502,2.4761,2.4932,2.4582,2.4009,2.3728,2.3172,2.2664,2.2705,2.4385,2.7717,3.2061,3.6983,4.0705,4.1683,3.9407,3.4542,3.0058,2.733,2.6455,2.5423,2.4812,2.4943,2.4569,2.4288,2.4388,2.4805,2.4665,2.4895,2.4758,2.521,2.5277,2.5603,2.5579,2.5675,2.529,2.5222,2.5572,2.5663,2.5021,2.5361,2.5607,2.5301,2.5088,2.4998,2.4871,2.4786,2.4819,2.5045,2.5037,2.547,2.5545,2.5529,2.5345,2.5639,2.5744,2.5638,2.5976,2.6725,2.653,2.6131,2.5966,2.6217,2.6197,2.6236,2.6679,2.6906,2.692,2.7042,2.6888,2.693,2.6798,2.6657,2.6887,2.6938,2.6627,2.6175,2.6259,2.6424,2.6365,2.581,2.5526,2.5276,2.5058,2.5142,2.5224,2.5241,2.5402,2.5101,2.4991,2.4617,2.4692,2.4857,2.502,2.5195,2.5224,2.4718,2.4683,2.4844,2.4828,2.5033,2.4832,2.4795,2.5195,2.5289,2.5234,2.4856,2.4858,2.4975,2.5183,2.5416,2.5599,2.5125,2.5631,2.5806,2.5752,2.5897,2.6209,2.6217,2.5797,2.5897,2.5789,2.5757,2.5718,2.5608,2.5115,2.4823,2.4727,2.4912,2.5223,2.5142,2.4657,2.4513,2.4717,2.4678,2.4645,2.4625,2.4665,2.4603,2.4835,2.4755,2.4254,2.3268,2.2483,2.267,2.3243,2.5644
