3.2503,3.3974,3.6542,3.4222,2.8335,2.2849,1.847,1.7205,1.6094,1.603,1.7037,1.8306,1.9682,2.0547,2.0546,2.0563,2.0503,2.0757,2.051,2.0797,2.0457,2.0791,2.0729,2.0789,2.0813,2.0807,2.0768,2.0862,2.078,2.103,2.093,2.1056,2.102,2.0959,2.0916,2.0866,2.0738,2.0978,2.1125,2.0983,2.0968,2.0867,2.0908,2.118,2.0918,2.098,2.1025,2.0939,2.1055,2.0923,2.1078,2.0878,2.0911,2.0922,2.0997,2.1099,2.1117,2.1095,2.1111,2.1217,2.1156,2.088,2.0943,2.1175,2.1333,2.1196,2.1354,2.1271,2.1375,2.1542,2.1389,2.1331,2.143,2.1512,2.1571,2.1619,2.1597,2.1747,2.1651,2.1622,2.1684,2.1722,2.1706,2.1664,2.1649,2.1314,2.1346,2.1171,2.1136,2.1179,2.1272,2.1155,2.1195,2.1086,2.0971,2.0989,2.111,2.0928,2.0657,2.0904,2.097,2.0809,2.1008,2.0931,2.0931,2.1023,2.0989,2.09,2.0897,2.1051,2.0866,2.0944,2.0774,2.0896,2.1128,2.0935,2.1017,2.1018,2.1085,2.0967,2.1016,2.0917,2.0646,2.0937,2.0919,2.0966,2.0991,2.0957,2.0927,2.0944,2.0969,2.0905,2.0853,2.0897,2.0784,2.0635,2.0856,2.089,2.0661,2.085,2.0813,2.0756,2.0789,2.0733,2.0836,2.074,2.0764,2.0747,2.0701,2.071,2.0764,2.0957,2.0995,2.0781,2.0567,2.075,2.091,2.0842,2.072,2.0712,2.0732,2.0817,2.0757,2.061,2.0759,2.079,2.0839,2.0806,2.0624,2.0605,2.0747,2.0715,2.0849,2.078,2.0784,2.0643,2.0809,2.0918,2.0869,2.0646,2.0761,2.0816,2.0772,2.0867,2.0725,2.0624,2.0632,2.0886,2.0853,2.0714,2.08,2.0704,2.0706,2.0694,2.0777,2.0807,2.1076,2.1261,2.1255,2.1228,2.1221,2.1311,2.1671,2.1641,2.1551,2.1663,2.1586,2.1512,2.1078,2.1125,2.0994,2.0555,2.0317,2.0512,2.0513,2.0336,2.0412,2.039,2.0408,2.057,2.0358,2.041,2.0499,2.0473,2.0514,2.0494,2.0393,1.9902,1.9008,1.8903,1.9191,1.9779,2.193,2.6052,3.0033,3.2867,3.4074,3.6279,3.2869,2.6267,2.1104,1.7735,1.6844,1.586,1.6053,1.6753,1.8188,1.9464,2.0395,2.0289,2.0417,2.0417,2.0423,2.0586,2.055,2.0595,2.0854,2.0691,2.0825,2.0655,2.0885,2.0791,2.0798,2.0795,2.087,2.0868,2.0652,2.0882,2.093,2.0866,2.0911,2.0944,2.0938,2.0972,2.1031,2.0959,2.0888,2.0904,2.09,2.1047,2.0881,2.1022,2.0837,2.0883,2.1101,2.0826,2.1051,2.098,2.0945,2.0958,2.0879,2.1052,2.1079,2.0986,2.12,2.129,2.125,2.1144,2.1269,2.1049,2.1296,2.1313,2.1296,2.142,2.1356,2.1474,2.1544,2.1632,2.1549,2.1548,2.15,2.1769,2.1842,2.1812,2.1716,2.182,2.1722,2.1772,2.1724,2.1636,2.1593,2.1507,2.1368,2.1223,2.1171,2.1236,2.1092,2.1278,2.1006,2.1045,2.095,2.0966,2.0898,2.0927,2.0771,2.0869,2.1134,2.1044,2.0861,2.1041,2.0895,2.0859,2.0984,2.0976,2.093,2.0848,2.0867,2.1089,2.0893,2.0996,2.1083,2.0873,2.1014,2.0965,2.0856,2.0934,2.111,2.0988,2.0949,2.0996,2.0957,2.0868,2.103,2.1037,2.088,2.0971,2.0993,2.101,2.1056,2.0902,2.106,2.0895,2.102,2.0913,2.0751,2.0948,2.0889,2.0972,2.1032,2.0793,2.0949,2.0982,2.0856,2.0997,2.0889,2.0857,2.1048,2.0995,2.0912,2.0919,2.0908,2.0981,2.0946,2.0967,2.0982,2.0755,2.1011,2.1286,2.1472,2.1465,2.1471,2.1393,2.1523,2.1791,2.1766,2.1683,2.1969,2.1784,2.1719,2.1521,2.1399,2.141,2.1176,2.0721,2.0744,2.0746,2.0691,2.0811,2.061,2.0782,2.0661,2.0666,2.0784,2.0855,2.0898,2.0863,2.0759,2.0665,2.0796,2.0465,1.9858,1.9318,1.9303,1.994,2.1902,2.5932,2.9815,3.2712,3.4069,3.5787,3.2808,2.6799,2.1449,1.8062,1.7293,1.6402,1.5983,1.6179,1.7243,1.8672,1.9938,2.0306,2.063,2.0714,2.0816,2.0636,2.0726,2.083,2.0867,2.099,2.0848,2.0962,2.1015,2.1039,2.099,2.1067,2.1095,2.1056,2.1212,2.1108,2.1074,2.1047,2.1139,2.1162,2.1148,2.1131,2.1282,2.1171,2.119,2.1204,2.1268,2.1172,2.1151,2.1133,2.1301,2.1266,2.1363,2.1239,2.1344,2.13,2.1452,2.1373,2.1477,2.1241,2.122,2.1519,2.1585,2.145,2.1488,2.1527,2.1506,2.1568,2.1568,2.1533,2.1628,2.1745,2.1761,2.1625,2.1657,2.1795,2.2038,2.2003,2.1902,2.1976,2.1915,2.2188,2.2146,2.2156,2.1939,2.1878,2.1792,2.178,2.1749,2.1574,2.1613,2.154,2.1444,2.1327,2.1433,2.1323,2.1217,2.1258,2.1154,2.1045,2.097,2.1182,2.1018,2.1174,2.1016,2.1076,2.0968,2.1071,2.1046,2.1121,2.1006,2.1213,2.1304,2.1185,2.1044,2.1209,2.1272,2.1317,2.1277,2.1335,2.1197,2.1166,2.1344,2.1287,2.1235,2.1291,2.1271,2.1246,2.136,2.135,2.0924,2.1315,2.129,2.1159,2.139,2.1107,2.1202,2.101,2.1079,2.1191,2.1073,2.1082,2.101,2.1001,2.1078,2.1045,2.1075,2.1015,2.0997,2.1026,2.093,2.108,2.0829,2.0801,2.0931,2.0989,2.0858,2.1008,2.093,2.086,2.0998,2.1052,2.0882,2.0819,2.0754,2.0945,2.0972,2.097,2.0934,2.0915,2.098,2.0806,2.0858,2.0869,2.0934,2.0998,2.0989,2.1102,2.1218,2.1298,2.1497,2.136,2.1603,2.1687,2.1694,2.1697,2.177,2.1553,2.1539,2.1373,2.1315,2.1161,2.0816,2.0588,2.0583,2.0614,2.0671,2.047,2.049,2.0676,2.0453,2.0594,2.0403,2.0647,2.063,2.0536,2.0651,2.042,2.0405,2.0019,1.9438,1.9146,1.9345,2.0247,2.2811,2.6824,3.0949,3.3539,3.4998,3.6382,3.1465,2.5342,2.0081,1.7289,1.6442,1.5793,1.5879,1.6978,1.8458,1.9525,2.0464,2.051,2.0662,2.0561,2.0674,2.0662,2.0803,2.0766,2.0882,2.0669,2.1195,2.0888,2.0968,2.0747,2.0974,2.0818,2.111,2.0919,2.12,2.1066,2.1094,2.1099,2.118,2.0941,2.102,2.1049,2.1284,2.0916,2.098,2.1025,2.1085,2.0988,2.1276,2.1147,2.1033,2.1191,2.0952,2.0909,2.1126,2.125,2.1125,2.1206,2.1113,2.1069,2.1034,2.1024,2.1199,2.1293,2.11,2.1264,2.1217,2.135,2.129,2.129,2.1287,2.1491,2.1222,2.1496,2.1605,2.1545,2.1614,2.179,2.1816,2.1875,2.1668,2.1789,2.1783,2.1831,2.157,2.1693,2.1727,2.1716,2.169,2.1506,2.1386,2.1319,2.1306,2.1348,2.1392,2.12,2.1201,2.1079,2.1096,2.1263,2.1139,2.1032,2.1006,2.1195,2.1097,2.1132,2.0967,2.1025,2.1031,2.1375,2.1241,2.119,2.113,2.1017,2.1362,2.1159,2.1128,2.1216,2.1343,2.1234,2.1014,2.1118,2.1177,2.0955,2.1183,2.11,2.1084,2.1013,2.0968,2.1169,2.0953,2.0934,2.1065,2.1169,2.1113,2.1063,2.1072,2.0931,2.0905,2.095,2.1016,2.1023,2.0808,2.0868,2.0858,2.1011,2.0857,2.0846,2.0918,2.0904,2.0922,2.1001,2.0786,2.0792,2.0732,2.0812,2.0878,2.0852,2.0858,2.0825,2.0934,2.095,2.0753,2.0729,2.0736,2.0863,2.0766,2.0836,2.0614,2.0748,2.0704,2.0727,2.0877,2.059,2.075,2.0756,2.0817,2.0723,2.0728,2.0811,2.075,2.0688,2.0563,2.0584,2.0755,2.0838,2.0868,2.0787,2.0792,2.0686,2.0622,2.0703,2.069,2.0408,2.0623,2.0801,2.0703,2.0654,2.049,2.0483,2.0572,2.0615,2.0678,2.068,2.0672,2.0704,2.061,2.0505,2.0627,2.0481,2.049,2.0658,2.0715,2.0697,2.0618,2.0736,2.0711,2.0603,2.0692,2.0794,2.0965,2.0965,2.1127,2.1109,2.1145,2.1446,2.119,2.1358,2.1382,2.1168,2.1167,2.1173,2.1156,2.1026,2.0465,2.0334,2.0393,2.0307,2.0271,2.028,2.0358,2.0412,2.0425,2.0318,2.0389,2.0343,2.0312,2.0285,2.0404,2.0296,1.9965,1.929,1.8956,1.893,1.97,2.1779,2.566,3.0049,3.2801,3.4052,3.5905,3.216,2.5988,2.0901,1.8865,1.731,1.5739,1.5819,1.6106,1.7261,1.8367,1.9525,2.0036,2.0494,2.0274,2.0366,2.0327,2.041,2.0458,2.0563,2.0522,2.0597,2.0445,2.0593,2.0502,2.044,2.0535,2.0537,2.0708,2.0581,2.0462,2.0808,2.0818,2.0785,2.0712,2.0737,2.0775,2.09,2.0738,2.0723,2.0796,2.0658,2.0631,2.0819,2.0791,2.0707,2.0841,2.0865,2.0673,2.0824,2.0853,2.083,2.0871,2.0904,2.111,2.101,2.0927,2.1015,2.0856,2.0979,2.0853,2.1009,2.1044,2.1006,2.1012,2.109,2.1056,2.1042,2.1107,2.1147,2.1472,2.1396,2.1243,2.1344,2.1368,2.1452,2.1765,2.1601,2.1514,2.1485,2.173,2.1612,2.1391,2.1407,2.1443,2.1451,2.1376,2.1243,2.1386,2.1043,2.1199,2.1173,2.1061,2.1035,2.0978,2.1142,2.101,2.0979,2.0858,2.0879,2.0978,2.1096,2.1139,2.1028,2.1009,2.1011,2.1048,2.0923,2.0817,2.104,2.1149,2.1132,2.1032,2.0905,2.1123,2.104,2.1033,2.1107,2.0918,2.0903,2.0865,2.1069,2.1122,2.0896,2.1094,2.0965,2.0887,2.1039,2.0909,2.0871,2.0915,2.0935,2.0942,2.0815,2.0776,2.1045,2.0785,2.0873,2.0915,2.0825,2.0766,2.0833,2.098,2.0804,2.0714,2.0675,2.0778,2.0784,2.0723,2.0809,2.0801,2.0755,2.0832,2.0851,2.07,2.0722,2.0917,2.0881,2.0821,2.0571,2.0682,2.0701,2.0834,2.0687,2.076,2.0659,2.0697,2.0718,2.0858,2.0732,2.072,2.0678,2.0711,2.0733,2.0834,2.0669,2.055,2.0854,2.0798,2.0767,2.0874,2.1102,2.1362,2.1259,2.121,2.1432,2.1439,2.1517,2.1635,2.1633,2.1627,2.1349,2.1266,2.1263,2.1083,2.0588,2.0508,2.0529,2.0458,2.0597,2.0522,2.0523,2.0417,2.0425,2.0306,2.0546,2.0486,2.055,2.0619,2.0599,2.0593,2.047,1.9689,1.9169,1.9062,1.9468,2.059,2.3772,2.795,2.9915,3.2599,3.3984,3.6085,3.262,2.6326,2.1098,1.7596,1.6666,1.5574,1.5833,1.6863,1.8408,1.9282,2.0276,2.0327,2.0514,2.0213,2.0455,2.0394,2.0671,2.0426,2.0499,2.0496,2.0744,2.074,2.0834,2.058,2.0643,2.0665,2.0878,2.081,2.0856,2.0694,2.0853,2.082,2.0998,2.0784,2.0912,2.0814,2.0714,2.083,2.0919,2.0706,2.0896,2.0808,2.0902,2.0835,2.0783,2.0817,2.0794,2.0871,2.0899,2.0824,2.0911,2.0971,2.0977,2.0859,2.084,2.0952,2.0864,2.0932,2.122,2.1084,2.1127,2.099,2.1297,2.1326,2.1219,2.1053,2.1127,2.1472,2.1308,2.1524,2.1401,2.1509,2.1732,2.1597,2.151,2.1537,2.1457,2.1527,2.1485,2.1796,2.1669,2.1527,2.1374,2.1536,2.1251,2.1202,2.1069,2.1146,2.1123,2.1204,2.0901,2.1024,2.0914,2.1024,2.0839,2.0864,2.0821,2.0884,2.0782,2.0934,2.081,2.1,2.0919,2.1099,2.0952,2.0943,2.0834,2.0938,2.1177,2.0951,2.0958,2.0945,2.1052,2.1056,2.1001,2.112,2.0904,2.0948,2.0828,2.0923,2.0901,2.0814,2.0921,2.1065,2.1049,2.1021,2.0984,2.0972,2.0783,2.0851,2.0859,2.0702,2.0915,2.1006,2.1064,2.1043,2.0837,2.0822,2.0694,2.0865,2.0832,2.0728,2.0735,2.0754,2.0773,2.1009,2.0817,2.0701,2.0834,2.0875,2.091,2.0774,2.0746,2.075,2.0687,2.0808,2.0782,2.0645,2.075,2.0819,2.0723,2.0878,2.0583,2.063,2.0668,2.0728,2.0819,2.0548,2.0711,2.0644,2.0584,2.0701,2.0627,2.0604,2.0719,2.0734,2.0835,2.0698,2.0696,2.0637,2.081,2.0685,2.0585,2.0705,2.0589,2.0733,2.0746,2.0748,2.0702,2.0693,2.0904,2.0847,2.0893,2.0876,2.1188,2.1148,2.125,2.1179,2.1219,2.1296,2.1526,2.1725,2.1718,2.1304,2.1236,2.1157,2.0972,2.0947,2.0464,2.021,2.0463,2.04,2.0353,2.038,2.0513,2.0187,2.035,2.0305,2.0388,2.0329,2.0367,2.0421,2.0439,2.0094,1.9594,1.9095,1.8737,1.8879,2.0274,2.3129,2.7232,2.947,3.2545,3.4067,3.6451,3.3411,2.708,2.1576,1.77,1.6474,1.5141,1.5811,1.6701,1.8339,1.9232,1.9997,2.0051,2.0233,2.0208,2.0328,2.0266,2.0431,2.0381,2.0603,2.0335,2.0593,2.0363,2.0722,2.0486,2.08,2.0434,2.0579,2.0738,2.0756,2.0703,2.0776,2.0607,2.08,2.0862,2.062,2.0782,2.0834,2.0545,2.0655,2.0728,2.0695,2.0681,2.0666,2.0776,2.057,2.0447,2.0775,2.0772,2.0681,2.0863,2.0715,2.0717,2.0644,2.0794,2.0726,2.0821,2.0714,2.0782,2.0925,2.0914,2.0925,2.1058,2.0999,2.0998,2.1065,2.1079,2.1122,2.1149,2.1344,2.1396,2.1205,2.1227,2.1359,2.1507,2.148,2.1537,2.129,2.1472,2.1426,2.148,2.1398,2.1255,2.1127,2.1125,2.1014,2.1102,2.0984,2.0967,2.0772,2.0909,2.0891,2.0681,2.0731,2.0688,2.0716,2.0809,2.0711,2.0577,2.0742,2.0739,2.0683,2.0587,2.0607,2.0754,2.0766,2.0823,2.064,2.0703,2.0536,2.0689,2.0752,2.0597,2.0572,2.058,2.0588,2.0595,2.0613,2.0584,2.0625,2.0507,2.0482,2.0754,2.0507,2.0442,2.0547,2.0651,2.0564,2.0385,2.0369,2.037,2.064,2.056,2.0523,2.0348,2.0476,2.0546,2.046,2.0442,2.0498,2.036,2.0434,2.0515,2.0468,2.0347,2.0426,2.0393,2.03,2.0384,2.0358,2.0307,2.0382,2.0415,2.0269,2.0273,2.0158,2.0366,2.0152,2.015,2.0439,2.0291,2.036,2.0192,2.0405,2.0276,2.0289,2.0489,2.0339,2.0317,2.017,2.025,2.0291,2.0341,2.0293,2.0291,2.0179,2.0167,2.0382,2.0337,2.0416,2.0225,2.0225,2.0421,2.0427,2.036,2.0369,2.0456,2.0549,2.0584,2.0569,2.0881,2.0858,2.089,2.0771,2.1036,2.1077,2.0961,2.1198,2.1193,2.1303,2.1195,2.0942,2.07,2.078,2.0147,2,1.9994,2.015,2.0224,2.028,2.0108,2.0026,2.0204,2.0293,2.0155,2.0194,2.0296,2.0166,2.0292,1.9892,1.9707,1.9242,1.8768,1.8979,1.9521,2.1759,2.5897,2.9884,3.2518,3.375,3.5042,3.3566,2.815,2.2475,1.8546,1.6766,1.5612,1.5393,1.5754,1.7002,1.8145,1.9058,1.9713,2.0177,2.0266,2.006,2.0258,2.0274,2.0235,2.0441,2.0465,2.0444,2.0486,2.0423,2.0497,2.0464,2.0508,2.0618,2.0584,2.0591,2.0425,2.0558,2.0552,2.0455,2.0676,2.0709,2.0647,2.0558,2.0737,2.0654,2.0642,2.0762,2.0712,2.0687,2.0641,2.0756,2.073,2.0571,2.071,2.0598,2.0808,2.0867,2.0773,2.082,2.0801,2.0868,2.0913,2.0882,2.0817,2.0769,2.0903,2.0976,2.0869,2.0955,2.0741,2.1093,2.1221,2.1233,2.1118,2.1069,2.1321,2.134,2.1299,2.1402,2.1399,2.1505,2.1523,2.144,2.1489,2.1404,2.1211,2.1534,2.1597,2.1211,2.1404,2.114,2.1131,2.1171,2.0742,2.084,2.1049,2.0898,2.0788,2.0616,2.0743,2.0731,2.0719,2.0627,2.0528,2.0685,2.0785,2.0636,2.0699,2.0791,2.0634,2.0926,2.0959,2.0812,2.0791,2.0755,2.0759,2.0688,2.0862,2.0847,2.0691,2.0753,2.0917,2.0673,2.0948,2.0756,2.0702,2.0673,2.0861,2.067,2.0555,2.078,2.0864,2.0708,2.0775,2.0631,2.0658,2.0646,2.0615,2.0604,2.0445,2.055,2.0642,2.0672,2.064,2.0441,2.0515,2.0533,2.0563,2.0551,2.0421,2.0641,2.0602,2.0551,2.039,2.0472,2.0588,2.032,2.0417,2.0581,2.0475,2.0495,2.053,2.0552,2.0466,2.0554,2.0545,2.0362,2.046,2.0482,2.0488,2.0464,2.0349,2.0548,2.0844,2.1185,2.0934,2.0839,2.0994,2.1152,2.1364,2.1256,2.1432,2.1339,2.1347,2.1184,2.1061,2.0885,2.0788,2.0526,2.0169,2.0305,2.0157,2.0211,2.0116,2.0156,2.0037,2.0217,1.9965,2.0199,2.0278,2.0329,2.0097,2.0114,2.0207,2.0072,1.954,1.8642,1.8722,1.908,2.0398,2.3621,2.767,3.1473,3.3073,3.5311,3.4601,2.8775,2.3109,1.8539,1.6622,1.5682,1.5348,1.5709,1.6652,1.8228,1.9384,1.9936,1.9995,2.0062,2.0101,2.0183,2.0245,2.0311,2.0102,2.031,2.0408,2.034,2.04,2.0325,2.043,2.0438,2.0357,2.0287,2.0337,2.0438,2.0569,2.0578,2.0478,2.0466,2.0482,2.0514,2.0249,2.0377,2.0556,2.0384,2.0462,2.0396,2.0446,2.0549,2.0382,2.0524,2.0627,2.0588,2.0567,2.0587,2.0579,2.05,2.0603,2.0671,2.066,2.0677,2.0735,2.0541,2.0706,2.0724,2.0816,2.0765,2.0814,2.0691,2.0639,2.1007,2.0996,2.109,2.0948,2.1032,2.1184,2.1209,2.1223,2.1251,2.1423,2.122,2.1132,2.1302,2.123,2.1134,2.1141,2.1342,2.1222,2.0898,2.0988,2.0927,2.0814,2.0837,2.0611,2.0582,2.0647,2.0714,2.0654,2.0598,2.0645,2.0507,2.0567,2.0566,2.058,2.0612,2.0599,2.0529,2.0578,2.0514,2.0592,2.036,2.0515,2.0542,2.0693,2.0527,2.0496,2.0351,2.0398,2.0534,2.05,2.06,2.0327,2.0406,2.0391,2.0372,2.0443,2.0409,2.0546,2.0549,2.0499,2.0426,2.0231,2.0337,2.0375,2.0406,2.028,2.0287,2.0467,2.0452,2.0374,2.0242,2.0369,2.0393,2.0382,2.0306,2.0231,2.0133,2.0292,2.0283,2.0487,2.0297,2.0334,2.0209,2.0325,2.026,2.0253,2.0288,2.0177,2.0438,2.0363,2.0119,2.0113,2.0356,2.0314,2.0377,2.0227,2.0137,2.0041,2.0413,2.0237,2.0166,2.0266,2.0211,2.0268,2.012,2.0406,2.0305,2.0075,2.0387,2.0378,2.0599,2.0566,2.0757,2.082,2.0688,2.0945,2.1143,2.1086,2.1105,2.1063,2.1091,2.1136,2.0755,2.0615,2.0745,2.0308,1.9915,1.9936,2.0033,1.9957,2.003,1.9928,2.0004,1.9914,1.9933,1.9968,2.008,1.9936,1.988,1.9808,2.0129,1.9888,1.9197,1.8468,1.8607,1.8941,2.0094,2.3133,2.7194,3.126,3.3109,3.5373,3.4782,2.9132,2.3413,2.047,1.7265,1.5899,1.5241,1.5286,1.6842,1.8023,1.9406,1.9764,2.0039,2.0009,1.9874,1.9911,2.028,2.0091,2.0255,2.0216,2.0126,2.0201,2.0288,2.0287,2.0295,2.0084,2.0375,2.0336,2.0402,2.0409,2.0319,2.0375,2.012,2.0327,2.0371,2.0329,2.0325,2.0187,2.0315,2.0363,2.0279,2.0351,2.0344,2.026,2.0462,2.0237,2.0267,2.0269,2.0415,2.0457,2.0364,2.0425,2.0508,2.0379,2.037,2.0422,2.0333,2.0531,2.058,2.072,2.0692,2.0441,2.0436,2.0655,2.0775,2.0906,2.0864,2.08,2.0875,2.0954,2.0997,2.1102,2.0973,2.1066,2.1101,2.1348,2.1259,2.1172,2.1131,2.1273,2.1321,2.1353,2.0982,2.1052,2.0717,2.0941,2.0947,2.0596,2.0527,2.0633,2.0653,2.062,2.0506,2.0595,2.0325,2.051,2.0394,2.0354,2.0458,2.0347,2.0565,2.0493,2.0429,2.0418,2.047,2.0534,2.0597,2.0403,2.0392,2.0378,2.0331,2.0426,2.0664,2.0406,2.0411,2.0421,2.0221,2.0324,2.0371,2.043,2.0374,2.0501,2.0357,2.035,2.0212,2.0369,2.0478,2.0392,2.0185,2.0223,2.0502,2.0195,2.0209,2.01,2.0278,2.0294,2.0358,2.0268,2.0145,2.011,2.0081,2.0282,2.0252,2.0269,2.0177,2.0096,2.0239,2.0248,2.0284,2.0092,2.0112,2.0149,2.0119,2.0275,2.011,2.0239,2.0305,2.0156,2.0075,2.03,2.018,2.0192,2.0221,2.0238,2.0058,2.0206,2.0015,2.0257,2.0189,2.0034,2.0225,2.0028,2.019,2.0235,2.0063,2.0115,1.9971,2.009,2.0146,2.0319,2.0147,2.0035,2.0454,2.0667,2.0714,2.0473,2.0532,2.0814,2.0916,2.0927,2.0922,2.0966,2.1036,2.0861,2.0859,2.047,2.0444,2.023,2.0095,2.0073,1.9977,1.9921,2.0088,1.9958,2.0017,1.995,1.9948,1.9939,2.01,1.9997,2.001,2.0058,1.9862,1.9974,1.9537,1.8413,1.8568,1.8721,1.9232,2.1454,2.5516,2.9348,3.2203,3.3581,3.5226,3.1386,2.5264,2.0127,1.7076,1.5961,1.5062,1.5285,1.595,1.7346,1.8525,1.9556,1.9782,1.981,1.974,2.0094,2.011,2.0077,2.0024,1.9966,2.0189,2.0259,2.0125,2.0323,2.0273,2.0218,2.0059,2.0239,2.0311,2.0444,2.0402,2.0403,2.0444,2.0408,2.0324,2.0363,2.0226,2.0354,2.0393,2.0453,2.036,2.0395,2.0481,2.0376,2.0404,2.0472,2.0382,2.0476,2.0416,2.0464,2.054,2.0624,2.0523,2.0524,2.0485,2.0504,2.056,2.0662,2.0581,2.0596,2.0605,2.0561,2.0677,2.0776,2.0765,2.076,2.0857,2.1073,2.091,2.0964,2.0931,2.1032,2.1117,2.1283,2.1232,2.1215,2.1254,2.1225,2.1333,2.135,2.1328,2.1267,2.1131,2.0987,2.1007,2.0827,2.1044,2.0986,2.0981,2.0637,2.0715,2.0692,2.0638,2.0687,2.0616,2.0574,2.0604,2.0621,2.0381,2.0519,2.0606,2.0657,2.0572,2.0641,2.0612,2.0652,2.056,2.0609,2.0616,2.058,2.0677,2.0577,2.0632,2.0572,2.0626,2.0511,2.0513,2.0591,2.0682,2.0579,2.061,2.0512,2.0584,2.0468,2.0728,2.0619,2.0337,2.0494,2.0464,2.0435,2.0399,2.0447,2.0462,2.0561,2.0324,2.0294,2.0463,2.0463,2.0568,2.0478,2.0438,2.0366,2.0412,2.0418,2.0281,2.0241,2.0467,2.0401,2.0463,2.0244,2.0153,2.0159,2.0251,2.0561,2.0373,2.0352,2.0272,2.0327,2.0407,2.0521,2.045,2.0399,2.0307,2.0453,2.0789,2.0792,2.0971,2.0796,2.0867,2.1011,2.1078,2.1161,2.1209,2.1153,2.1308,2.1121,2.0844,2.0764,2.0513,2.02,2.0211,2.0083,2.0015,1.993,1.9999,2.0086,2.0087,1.9997,1.987,2.0116,2.0128,1.9909,1.9954,2.0024,2.0117,2.0018,1.9489,1.8722,1.8473,1.8819,1.9544,2.2108,2.6176,3.0162,3.2409,3.3867,3.5197,3.0641,2.4424,2.1797,1.7989,1.638,1.5268,1.5204,1.5878,1.7195,1.8517,1.9265,1.9794,2.0031,1.9995,1.9956,2.0022,2.0136,2.0125,2.0202,2.0319,2.0129,2.0141,2.0253,2.0285,2.0204,2.0112,2.0084,2.0405,2.0246,2.0279,2.0402,2.0423,2.0332,2.0231,2.0451,2.0355,2.0162,2.0373,2.0352,2.0337,2.0318,2.0269,2.0293,2.0401,2.052,2.041,2.0359,2.0418,2.0269,2.0485,2.0681,2.0468,2.0428,2.0627,2.0528,2.07,2.0689,2.056,2.0633,2.0708,2.0602,2.0727,2.0705,2.0629,2.0903,2.09,2.0727,2.0903,2.0974,2.0949,2.1111,2.1189,2.1055,2.129,2.1354,2.1178,2.1288,2.1232,2.1198,2.1052,2.1159,2.1208,2.095,2.0867,2.085,2.0828,2.0806,2.0792,2.0609,2.0485,2.0598,2.0603,2.0432,2.0523,2.0601,2.0535,2.0649,2.058,2.052,2.0569,2.0419,2.0521,2.0488,2.054,2.0597,2.0563,2.0547,2.0615,2.0646,2.0706,2.0609,2.0502,2.0551,2.0683,2.0742,2.0778,2.0584,2.0467,2.051,2.0552,2.0549,2.069,2.0671,2.0615,2.0662,2.0689,2.0578,2.044,2.059,2.0472,2.0583,2.0544,2.0485,2.0495,2.0613,2.0468,2.0544,2.0512,2.0342,2.0282,2.0343,2.0495,2.0328,2.0558,2.0441,2.0374,2.0489,2.0387,2.0404,2.0146,2.031,2.053,2.0474,2.0341,2.0316,2.0177,2.0264,2.0249,2.0354,2.0447,2.0388,2.0517,2.0421,2.0317,2.0395,2.0225,2.0217,2.0503,2.0348,2.0259,2.0159,2.0429,2.0267,2.024,2.0443,2.0321,2.0423,2.0445,2.0357,2.0441,2.027,2.0267,2.0414,2.0258,2.041,2.0249,2.0383,2.0317,2.0344,2.0448,2.0645,2.0951,2.0754,2.0872,2.105,2.0998,2.1102,2.1115,2.1354,2.1222,2.1123,2.0871,2.08,2.0728,2.0584,2.0161,2.0014,1.986,2.004,2.0229,2.0057,2.0216,1.9976,2.016,1.9936,1.997,1.9999,1.9879,1.9979,2.0275,2.009,1.9533,1.8906,1.8561,1.8541,1.9409,2.1547,2.5335,2.953,3.2643,3.4252,3.6205,3.2092,2.5821,2.0605,1.7281,1.6688,1.5363,1.5169,1.5892,1.7436,1.8662,1.9513,1.9724,1.9948,2.0159,1.9962,1.998,2.0323,2.0254,2.0284,2.0242,2.0172,1.9998,2.0434,2.0267,2.0291,2.0321,2.0432,2.038,2.0509,2.0528,2.0342,2.0325,2.0395,2.0439,2.0512,2.0339,2.0402,2.0344,2.0471,2.0493,2.0505,2.06,2.0452,2.0494,2.0596,2.0404,2.0522,2.0577,2.0658,2.0685,2.0627,2.0458,2.0556,2.061,2.067,2.0564,2.0759,2.0637,2.0558,2.0883,2.0742,2.0671,2.0685,2.0842,2.0783,2.0932,2.0836,2.0843,2.1064,2.1047,2.1181,2.0975,2.1044,2.1331,2.1119,2.1311,2.1262,2.131,2.12,2.1366,2.1298,2.1152,2.1029,2.1199,2.1055,2.1128,2.0906,2.0793,2.0717,2.0765,2.0769,2.0812,2.0697,2.0771,2.0654,2.0748,2.0702,2.0686,2.0602,2.0739,2.0678,2.076,2.0619,2.0798,2.086,2.0848,2.0767,2.0668,2.0798,2.074,2.0704,2.0777,2.0676,2.0576,2.082,2.0705,2.0595,2.068,2.0689,2.0645,2.0481,2.0638,2.0676,2.0687,2.0726,2.0613,2.0599,2.0599,2.066,2.0635,2.065,2.0622,2.0689,2.0449,2.058,2.0656,2.0509,2.0334,2.0412,2.0555,2.0603,2.0518,2.0499,2.0436,2.0531,2.0434,2.0533,2.0441,2.0391,2.0297,2.048,2.0465,2.0377,2.0436,2.0473,2.0469,2.0478,2.0356,2.0434,2.0401,2.0414,2.0422,2.0298,2.038,2.0395,2.039,2.0399,2.0366,2.0388,2.0436,2.034,2.0637,2.042,2.0237,2.0387,2.038,2.0542,2.0333,2.0378,2.0297,2.0139,2.0191,2.0587,2.0334,2.0337,2.0251,2.0348,2.0459,2.0506,2.0476,2.0613,2.0813,2.0583,2.0561,2.0847,2.1142,2.117,2.1174,2.099,2.0952,2.1065,2.1147,2.0935,2.0788,2.0558,2.0117,1.9972,2.0139,2.0161,1.9989,1.9989,2.0135,2.0167,2.0129,2.0042,2.0064,2.0049,2.0195,1.9985,1.9972,1.9995,1.9669,1.8976,1.8673,1.8873,1.9322,2.1859,2.5933,3.0015,3.2692,3.3722,3.52,3.1172,2.5009,1.9967,1.7249,1.6176,1.5399,1.5611,1.5763,1.6702,1.7991,1.9156,1.9758,2.0086,1.9961,2.0058,1.9988,2.0291,2.022,2.0373,2.0219,2.0181,2.0192,2.0283,2.0249,2.0381,2.0404,2.0457,2.0349,2.0276,2.0272,2.06,2.0394,2.0321,2.0466,2.0422,2.0487,2.0314,2.038,2.0455,2.022,2.0404,2.0522,2.044,2.0399,2.0428,2.0325,2.0475,2.053,2.0422,2.0505,2.0502,2.0489,2.056,2.0397,2.034,2.0384,2.0666,2.0765,2.0684,2.0649,2.0638,2.0712,2.0729,2.0904,2.0958,2.0847,2.0707,2.09,2.0902,2.1072,2.0945,2.0946,2.1258,2.1292,2.1221,2.1271,2.1218,2.1261,2.1141,2.1208,2.1181,2.1135,2.1171,2.1109,2.1089,2.1098,2.0904,2.0749,2.0673,2.0683,2.0666,2.0645,2.0688,2.0517,2.0447,2.0617,2.0506,2.043,2.0559,2.0534,2.0465,2.0557,2.0626,2.0616,2.0475,2.0728,2.0483,2.0496,2.0578,2.0709,2.0612,2.0375,2.0382,2.0513,2.0772,2.0634,2.0621,2.0415,2.0635,2.0593,2.059,2.0462,2.0522,2.0722,2.0611,2.0648,2.0425,2.0529,2.0416,2.0633,2.063,2.0376,2.0683,2.0547,2.0449,2.0493,2.0344,2.0344,2.0353,2.0671,2.0374,2.0449,2.0419,2.0262,2.0261,2.0453,2.0398,2.033,2.0374,2.0355,2.0487,2.0345,2.0216,2.0299,2.0426,2.0494,2.0385,2.0347,2.0561,2.0701,2.0921,2.1175,2.0742,2.0725,2.0936,2.1097,2.0935,2.104,2.1213,2.0911,2.1041,2.1106,2.0986,2.0705,2.0294,2.0165,2.0175,2.0117,2.0082,1.9849,2.0136,1.9868,1.9866,2.004,2.0093,2.023,2.021,2.0131,2.0162,2.0091,2.0077,1.964,1.8831,1.8546,1.8582,1.9464,2.2191,2.6306,3.0078,3.2617,3.384,3.5272,3.3612,2.7912,2.2419,1.8325,1.6578,1.5597,1.5154,1.5742,1.7027,1.8537,1.9579,1.9912,1.9844,1.9855,1.9994,2.0113,2.0101,2.0231,2.0321,2.0226,2.0409,2.0331,2.0237,2.0344,2.0296,2.0366,2.0354,2.0323,2.0281,2.0546,2.0519,2.0472,2.024,2.0378,2.046,2.0464,2.0474,2.0378,2.0516,2.0361,2.0481,2.061,2.0478,2.0459,2.0416,2.0495,2.0561,2.0446,2.046,2.048,2.0599,2.0269,2.048,2.0483,2.0744,2.0708,2.0669,2.0548,2.0501,2.0637,2.0643,2.0536,2.0972,2.0771,2.0717,2.0854,2.0931,2.0915,2.0947,2.1077,2.1034,2.1171,2.1183,2.1121,2.1305,2.1275,2.1273,2.1348,2.1179,2.105,2.1049,2.11,2.1076,2.091,2.0724,2.0763,2.0715,2.0585,2.0506,2.0505,2.0481,2.045,2.0449,2.0429,2.0428,2.0475,2.0552,2.0554,2.0314,2.0333,2.0311,2.06,2.0578,2.0471,2.0252,2.0427,2.0298,2.0463,2.0337,2.0286,2.0384,2.0492,2.0383,2.0414,2.0326,2.018,2.0388,2.0439,2.0498,2.0372,2.034,2.0382,2.0455,2.0174,2.0448,2.0456,2.028,2.0409,2.0342,2.0408,2.0389,2.0227,2.0396,2.0239,2.0135,2.0282,2.0307,2.0359,2.0188,2.0244,2.0185,2.0218,2.0259,2.0143,2.0285,2.0229,2.0143,2.0292,2.0094,2.0143,2.0215,2.0229,2.01,2.0114,2.0073,2.0328,2.0248,2.0004,2.0352,2.0241,2.013,2.0169,1.9842,2.0107,2.0199,2.0058,2.0197,2.0104,2.0323,2.0514,2.0571,2.0636,2.0522,2.06,2.0732,2.0837,2.0984,2.0941,2.1102,2.1122,2.097,2.0805,2.067,2.0365,2.0378,1.9951,1.9911,2.0017,1.9777,1.9973,2.0065,2.0068,1.9848,1.9944,1.994,2.0109,2.0042,2.0161,1.9898,2.0005,2.0116,1.9668,1.8854,1.8286,1.8617,1.9379,2.1523,2.5328,2.9561,3.2322,3.3772,3.6111,3.2214,2.5908,2.3175,1.8715,1.6467,1.543,1.512,1.5964,1.7064,1.837,1.9495,1.9961,1.9913,1.983,1.9957,2.0018,1.9812,2.0138,2.0237,2.0208,2.0107,2.0189,2.0205,2.0279,2.058,2.0429,2.0326,2.0326,2.0432,2.0292,2.0412,2.0546,2.0354,2.0415,2.0383,2.0391,2.0417,2.043,2.0505,2.0364,2.0379,2.0428,2.046,2.0409,2.0493,2.041,2.0277,2.0351,2.0358,2.0468,2.0415,2.0288,2.0461,2.03,2.0389,2.0535,2.052,2.0531,2.0449,2.0533,2.062,2.0555,2.0656,2.064,2.0872,2.0917,2.0904,2.0826,2.0787,2.0851,2.0883,2.0973,2.1052,2.1095,2.1309,2.1221,2.1131,2.1195,2.1113,2.1019,2.0981,2.1057,2.092,2.1056,2.1006,2.0673,2.0758,2.0647,2.0608,2.0468,2.0528,2.0647,2.0582,2.0544,2.0555,2.044,2.0475,2.0467,2.0252,2.041,2.0576,2.0463,2.0451,2.0463,2.0454,2.062,2.0467,2.0487,2.041,2.0228,2.0355,2.0525,2.0501,2.0568,2.0566,2.055,2.0621,2.0589,2.0269,2.027,2.0383,2.03,2.0314,2.0388,2.0306,2.0199,2.0395,2.04,2.0159,2.0342,2.0292,2.0359,2.0375,2.0211,2.0124,2.0255,2.0353,2.0279,2.0194,2.0137,2.0144,2.0157,2.0185,2.0202,2.0107,2.0189,2.0241,2.0183,2.018,2.0115,2.016,2.0331,2.0131,2.0247,2.0261,2.0214,2.0157,2.0234,2.0243,2.0057,1.9933,2.0077,2.0125,2.0175,2.0186,1.999,2.0081,2.0277,2.0198,1.9885,2.009,2.023,2.021,2.0265,2.0028,2.0196,2.0131,2.0196,2.0128,2.0068,2.0063,2.0021,2.0195,2.0235,2.0145,2.0116,2.0138,2.0094,2.013,2.0136,2.0118,2.0103,2.0291,2.0347,2.0527,2.0804,2.0667,2.074,2.0804,2.0698,2.0842,2.1042,2.1122,2.1071,2.1118,2.0854,2.0601,2.0559,2.0236,2.0058,2.0013,2.0021,1.9986,1.9996,1.9891,1.9906,1.9876,1.9814,1.9885,1.9959,1.9923,1.9954,2.0152,2.0168,1.9783,1.9308,1.853,1.8555,1.8694,2.0178,2.2962,2.698,3.0972,3.2951,3.5125,3.5129,2.9598,2.6282,2.1042,1.7434,1.6224,1.5031,1.5421,1.6019,1.7839,1.8884,1.97,1.9728,1.9962,1.9835,2.0106,1.9719,2.0016,2.0037,2.0129,2.0092,2.0262,2.0052,2.02,2.0235,2.0181,2.0118,2.0476,2.0275,2.0419,2.0145,2.0385,2.0229,2.0403,2.0368,2.042,2.0339,2.0357,2.0322,2.0319,2.0348,2.0506,2.0213,2.0445,2.0504,2.0502,2.0423,2.0367,2.0513,2.0487,2.0102,2.0498,2.0425,2.0467,2.078,2.0525,2.0456,2.0484,2.0548,2.0349,2.0565,2.0676,2.0708,2.0731,2.0713,2.0808,2.079,2.0746,2.0803,2.0728,2.0924,2.0948,2.1001,2.0822,2.1017,2.1226,2.118,2.1027,2.1034,2.1115,2.1155,2.1052,2.1014,2.0896,2.08,2.0873,2.0868,2.0753,2.0644,2.0425,2.0549,2.0508,2.0702,2.0594,2.0501,2.0358,2.0734,2.0339,2.0222,2.0245,2.0397,2.0698,2.0709,2.0567,2.0573,2.0494,2.0527,2.0469,2.0702,2.0556,2.0495,2.0514,2.0643,2.0559,2.0563,2.057,2.0532,2.0602,2.0582,2.048,2.0385,2.0306,2.0451,2.047,2.048,2.0557,2.0595,2.0657,2.0451,2.0388,2.0469,2.0377,2.0447,2.0294,2.0165,2.0326,2.0412,2.0421,2.0397,2.0429,2.0239,2.0335,2.0364,2.0453,2.0376,2.0119,2.027,2.0292,2.0507,2.0166,2.0386,2.0142,2.0328,2.0429,2.0417,2.0818,2.0845,2.0979,2.083,2.0758,2.0624,2.1102,2.1234,2.1152,2.1128,2.1056,2.1057,2.0878,2.0606,2.0438,2.0231,1.9992,1.9996,2.0161,2.0088,1.9911,2.0014,1.9969,2.0001,2.0031,1.9863,1.9966,1.9932,2.0045,2.0071,1.997,1.9934,1.9679,1.9062,1.8595,1.8653,1.9021,2.1067,2.5196,2.9516,3.2223,3.3435,3.4528,3.4347,2.9094,2.2963,1.858,1.65,1.57,1.516,1.5545,1.623,1.7708,1.8671,1.9607,1.9919,1.9732,1.9784,1.9945,1.9925,2.0184,2.0129,2.0084,2.0067,2.0338,2.0415,2.0382,2.0115,2.0307,2.0461,2.0533,2.0363,2.0269,2.0256,2.0444,2.0353,2.0415,2.0226,2.0271,2.0395,2.0441,2.0423,2.0131,2.0522,2.0419,2.0565,2.0582,2.0371,2.0508,2.0582,2.0655,2.0532,2.0406,2.0674,2.0664,2.0647,2.0762,2.0547,2.071,2.0673,2.0799,2.084,2.0705,2.0685,2.0757,2.0972,2.1318,2.0865,2.089,2.0877,2.1065,2.1175,2.128,2.1344,2.132,2.1453,2.1385,2.122,2.1288,2.1236,2.1236,2.1452,2.1274,2.1264,2.1046,2.1067,2.1081,2.0911,2.0713,2.0716,2.0689,2.068,2.0508,2.0424,2.0478,2.0298,2.039,2.0437,2.0291,2.0332,2.0428,2.0519,2.0418,2.0454,2.0348,2.0419,2.0515,2.0515,2.0457,2.0356,2.0402,2.0706,2.0348,2.0493,2.0396,2.0436,2.0568,2.0507,2.0511,2.0347,2.0352,2.0367,2.0458,2.0387,2.0361,2.0446,2.0504,2.0441,2.0446,2.0393,2.0168,2.0387,2.0464,2.0506,2.0503,2.0556,2.053,2.0824,2.0927,2.0788,2.0755,2.0723,2.0982,2.11,2.1382,2.1393,2.1451,2.1306,2.0952,2.0902,2.0856,2.0545,2.0161,2.0072,1.9997,1.9988,1.9886,1.9872,1.9985,1.9892,1.9997,2.0028,1.9969,2.0107,2.0026,1.9872,1.985,2.0001,2.0133,1.9803,1.9008,1.8465,1.8565,1.8893,2.0561,2.4203,2.8345,3.1607,3.2696,3.3862,3.4702,3.0417,2.4476,1.9549,1.6928,1.5821,1.5171,1.5489,1.6118,1.7517,1.8858,1.9571,1.9905,1.9973,2.0065,2.016,2.0053,1.9965,2.0076,2.0298,2.0249,2.0246,2.0269,2.0264,2.0342,2.0408,2.045,2.0437,2.0416,2.0311,2.0428,2.0467,2.0373,2.0432,2.0487,2.0571,2.0397,2.0238,2.0264,2.0482,2.0437,2.0502,2.053,2.0418,2.0602,2.0529,2.0561,2.0497,2.0374,2.0764,2.0626,2.0492,2.049,2.0549,2.0638,2.0645,2.0595,2.0541,2.0717,2.0563,2.0685,2.093,2.07,2.0854,2.0895,2.0974,2.0949,2.0797,2.1005,2.0971,2.1213,2.1251,2.1156,2.1323,2.1154,2.1309,2.1311,2.1199,2.1161,2.093,2.0938,2.1065,2.0812,2.0818,2.0697,2.0667,2.0614,2.0598,2.0511,2.0333,2.0431,2.0435,2.0443,2.0233,2.0237,2.0127,2.0272,2.0263,2.0101,2.0186,2.0256,2.0378,2.039,2.0256,2.0308,2.0368,2.0352,2.0429,2.0258,2.0302,2.0369,2.0397,2.0463,2.0255,2.0204,2.0345,2.0354,2.0295,2.0246,2.0253,2.0486,2.0406,2.0164,2.0242,2.0207,2.0256,2.0335,2.0277,2.0177,2.0254,2.0139,2.0285,2.0153,2.0118,2.0148,1.9977,2.024,2.0198,2.0136,2.005,2.017,2.0411,2.0452,2.0593,2.0591,2.0622,2.0697,2.0547,2.0679,2.0929,2.1046,2.1097,2.1254,2.0992,2.0808,2.0743,2.0418,2.0547,2.0371,1.9848,1.9912,1.9818,1.9845,1.9804,1.9847,1.9632,1.9579,1.9888,1.9752,1.9679,1.9809,1.9737,1.9928,1.985,1.9688,1.9722,1.9301,1.8749,1.8393,1.8293,1.868,2.0624,2.4586,2.8743,3.1867,3.3151,3.5531,3.254,2.6399,2.0914,1.7059,1.6018,1.4903,1.4868,1.5303,1.6653,1.7993,1.9062,1.9501,1.9861,1.9662,1.9743,1.9724,1.9944,1.9948,1.9934,1.9777,1.9874,2.0001,2.0039,1.9968,2.0027,1.991,1.9998,2.0264,2.0266,2.0175,2.0213,2.0065,2.0078,2.0126,1.9957,2.0146,2.0233,2.0129,2.0225,2.0207,2.0131,2.0037,2.0142,2.0251,2.0135,2.0163,2.0086,2.0213,2.0267,2.0265,2.0227,2.0148,2.0238,2.0137,2.0258,2.0309,2.0184,2.0297,2.0422,2.0302,2.012,2.0469,2.0559,2.0509,2.054,2.0567,2.0464,2.0603,2.0792,2.0684,2.0622,2.0827,2.0942,2.1059,2.0876,2.0731,2.1196,2.1007,2.0964,2.0955,2.0794,2.0652,2.0741,2.0687,2.0692,2.0534,2.0426,2.0445,2.0491,2.0624,2.0345,2.0279,2.0323,2.034,2.0325,2.0457,2.0265,2.0202,2.0287,2.0399,2.031,2.0167,2.0283,2.0424,2.0433,2.0458,2.0268,2.021,2.0309,2.0403,2.0459,2.0261,2.0265,2.0285,2.0273,2.0155,2.0095,2.0255,2.0231,2.0295,2.0181,2.0178,2.0223,2.0268,2.0231,2.0228,2.0201,2.0077,2.004,2.0147,2.0154,2.0103,2.0057,2.0193,2.0131,1.9996,2.0224,1.9975,2.0051,2.0117,2.0024,2.0121,2.0003,2.0037,2.0006,2.0055,2.0142,2.0043,1.9953,1.9841,2.0125,2.0145,1.9901,2.0057,1.9971,2.0027,1.9947,2.0069,1.9929,2.0111,2.0116,2.0258,2.036,2.0443,2.0365,2.0634,2.0618,2.0624,2.0906,2.0951,2.1075,2.0908,2.0784,2.0696,2.0577,2.0512,2.0464,1.9983,1.9856,1.9772,1.9898,1.9894,1.9786,1.966,1.969,1.9769,2.006,2.0014,1.9841,1.9872,1.9973,2.0108,1.9959,1.9877,1.9577,1.9139,1.8538,1.825,1.8637,2.0263,2.3732,2.5999,2.9848,3.2618,3.3813,3.6133,3.1794,2.5442,2.0096,1.7068,1.5912,1.507,1.5563,1.6726,1.7972,1.905,1.977,1.9866,2.0031,1.9689,1.9917,1.982,2.0022,2.0122,1.9953,2.0136,2.0169,2.0188,2.0151,1.9912,2.0026,2.0117,2.0224,2.0162,2.0302,2.0239,2.0247,2.0266,2.023,2.0239,2.0279,2.0195,2.0282,2.0288,2.0133,2.0115,2.0223,2.0156,2.0182,2.0322,2.0368,2.0151,2.02,2.0294,2.031,2.0302,2.025,2.0298,2.0385,2.0437,2.027,2.013,2.0329,2.0417,2.0446,2.0389,2.0537,2.0344,2.0705,2.0591,2.0472,2.0562,2.0712,2.0745,2.0906,2.0804,2.0923,2.1033,2.1117,2.1112,2.1155,2.1034,2.1028,2.1266,2.1189,2.1305,2.105,2.1017,2.0982,2.0837,2.0879,2.0721,2.0532,2.0681,2.0695,2.075,2.0594,2.0577,2.0532,2.0462,2.054,2.0395,2.038,2.0521,2.0457,2.0525,2.0405,2.0537,2.0396,2.0493,2.0423,2.0381,2.0424,2.0556,2.0362,2.0496,2.0295,2.0075,2.0013,2.0305,2.024,2.0178,2.0259,2.0168,2.034,2.0373,2.0169,2.0208,1.997,2.0158,2.0138,2.0128,2.0119,2.0076,2.0073,2.0117,2.0171,2.0189,2.0139,1.9876,1.9954,2.0072,1.9903,1.9907,2.0191,2.0213,2.0041,1.9978,1.9862,2.0103,2.0167,2.0124,2.0074,2.0012,2.0064,2.0225,2.0091,2.0033,2.0203,1.9875,2.0058,1.9997,2.0109,1.9965,1.9988,1.9968,2.001,2.0121,1.9979,1.9878,2.0139,1.998,2.0009,2.0366,2.0617,2.0604,2.0493,2.0444,2.0532,2.0725,2.0853,2.0995,2.0992,2.0888,2.0681,2.0649,2.0641,2.0422,2.0221,1.9822,1.9827,1.9972,1.9783,1.9905,1.9723,1.9632,1.9625,1.9759,1.9882,1.9799,1.9843,1.9758,1.9869,1.9869,1.9779,1.9674,1.9258,1.8443,1.8301,1.8534,1.9361,2.2438,2.6636,3.0373,3.2276,3.3826,3.4343,3.1473,2.5866,2.0414,1.7236,1.6037,1.512,1.5228,1.559,1.6525,1.7871,1.8988,1.962,1.9668,1.9707,1.9868,1.9955,1.995,1.985,2.0008,2.0049,2.0137,2.0222,1.9874,1.9927,2.0052,2.0281,2.0506,2.032,2.0149,2.0284,2.045,2.0309,2.0321,2.0331,2.0191,2.0291,2.0365,2.0312,2.028,2.051,2.0291,2.0447,2.0393,2.0294,2.038,2.0146,2.0512,2.0592,2.0525,2.0537,2.0406,2.0511,2.058,2.049,2.0548,2.0552,2.0601,2.0653,2.0502,2.0587,2.0441,2.059,2.0613,2.0682,2.0636,2.0735,2.0803,2.089,2.0774,2.0831,2.1059,2.1249,2.1119,2.1282,2.1153,2.118,2.1282,2.131,2.1238,2.1199,2.1203,2.1187,2.1089,2.1025,2.0575,2.0836,2.0812,2.071,2.0697,2.0501,2.0572,2.0587,2.062,2.0582,2.0512,2.0343,2.0448,2.0471,2.0437,2.0562,2.0486,2.0471,2.0526,2.0418,2.0383,2.0415,2.0462,2.0416,2.038,2.0414,2.0515,2.0433,2.0538,2.0388,2.0296,2.0356,2.0628,2.0494,2.051,2.0434,2.0253,2.0265,2.0456,2.0313,2.0275,2.0389,2.019,2.0081,2.0111,2.0238,2.0144,2.0091,1.9972,1.9929,2.0085,2.002,1.9971,2.0062,2.0043,2.0145,2.0073,2.0082,2.0223,2.0345,2.0499,2.0465,2.0456,2.0407,2.0624,2.0868,2.1118,2.0807,2.0748,2.0851,2.0747,2.064,2.0432,2.0243,2.0235,1.9993,1.9655,1.9728,1.9741,1.9611,1.9574,1.9628,1.9608,1.9647,1.9672,1.9792,1.9634,1.9688,1.9666,1.9561,1.9691,1.9508,1.9193,1.8631,1.8077,1.8334,1.9023,2.1089,2.5352,2.911,3.1993,3.3328,3.4945,3.0962,2.5149,1.9966,1.666,1.5754,1.4779,1.5022,1.5235,1.6603,1.772,1.8978,1.945,1.9501,1.9492,1.9532,1.9546,1.967,1.956,1.9862,1.9828,1.9764,1.9719,1.9841,2.0002,1.9835,1.9916,1.9984,1.9847,2.012,2.0038,2.0176,1.9959,1.9953,2.0042,1.993,2.0096,1.9983,1.9967,2.0027,2.0072,1.9861,1.9908,1.9867,2.0014,2.0122,1.9928,1.9934,1.9877,1.9884,1.9879,1.9949,1.9907,2.0048,1.9986,2.0015,1.9917,1.9925,2.0208,2.0041,2.0149,2.0191,1.9984,2.0101,2.0046,2.0256,2.0484,2.0458,2.0399,2.0377,2.0349,2.0365,2.0535,2.0612,2.0596,2.0777,2.0713,2.0622,2.069,2.0558,2.0648,2.0579,2.0374,2.0292,2.0009,2.0216,2.0218,1.9974,1.9977,1.9917,2.0057,2.0004,1.9857,1.9739,1.9871,1.9881,1.992,2.0022,1.9787,1.9834,2.0056,1.9955,1.9967,2.0032,2.0085,2.0037,2.0189,1.9967,2.017,2.0003,1.9946,2.0039,1.9969,1.9936,1.9858,1.9958,1.9929,1.9841,1.9742,1.9789,1.9715,1.9843,1.9617,1.9603,1.9603,1.9645,1.9394,1.9365,1.9288,1.9088,1.9093,1.9131,1.892,1.8979,1.9077,1.9031,1.9109,1.9055,1.92,1.8931,1.9236,1.9392,1.9442,1.9506,1.9463,1.9598,1.9766,2.0125,2.0079,2.0305,2.0177,2.0019,2.0179,2.0523,2.0804,2.0523,2.056,2.0452,2.0185,2.013,2.0019,1.9817,1.9811,1.9267,1.9197,1.9149,1.9065,1.8839,1.9175,1.9151,1.9105,1.9058,1.9076,1.9162,1.918,1.9067,1.9104,1.914,1.93,1.9304,1.8759,1.804,1.7606,1.7998,1.8217,1.9451,2.2683,2.673,3.0438,3.2457,3.4799,3.3853,2.7885,2.2265,1.7403,1.55,1.444,1.4085,1.5116,1.6421,1.7727,1.8669,1.883,1.8878,1.9005,1.9034,1.926,1.9181,1.917,1.9278,1.9001,1.9149,1.9075,1.9032,1.9201,1.9116,1.943,1.9236,1.8952,1.92,1.9326,1.9115,1.9322,1.9274,1.9279,1.9075,1.9233,1.9246,1.916,1.9317,1.9229,1.9141,1.9176,1.9247,1.9156,1.9113,1.9063,1.921,1.9175,1.9335,1.9164,1.9219,1.9139,1.9138,1.9161,1.9389,1.9504,1.9093,1.9187,1.9176,1.9192,1.9246,1.9123,1.9107,1.9258,1.9268,1.9219,1.9119,1.9154,1.9416,1.9285,1.9658,1.9684,1.9766,1.9608,1.9632,1.9748,1.9802,1.9875
