-5.9868,-5.9908,-5.9927,-5.9869,-5.9778,-5.9809,-5.9907,-5.9908,-5.9878,-5.9803,-5.989,-5.9915,-5.9954,-6.0028,-5.9965,-6.0034,-6.0101,-6.0144,-6.0208,-6.0194,-6.0161,-6.03,-6.0391,-6.0352,-6.0341,-6.0317,-6.0402,-6.0498,-6.0499,-6.0539,-6.0522,-6.0496,-6.0572,-6.0575,-6.0541,-6.0596,-6.0613,-6.0664,-6.0668,-6.0634,-6.0656,-6.0609,-6.0674,-6.0685,-6.0703,-6.0722,-6.0703,-6.0739,-6.0793,-6.0788,-6.0754,-6.0739,-6.0798,-6.0889,-6.0852,-6.0769,-6.0837,-6.0892,-6.0888,-6.0883,-6.0852,-6.086,-6.0982,-6.095,-6.0923,-6.0923,-6.0922,-6.0955,-6.1025,-6.0983,-6.0995,-6.1014,-6.1068,-6.1136,-6.1075,-6.1008,-6.1098,-6.1173,-6.118,-6.1155,-6.1211,-6.1275,-6.1182,-6.1237,-6.1204,-6.1206,-6.1202,-6.1248,-6.1266,-6.1299,-6.1313,-6.1305,-6.1254,-6.1272,-6.133,-6.1332,-6.1274,-6.1202,-6.1204,-6.1112,-6.0966,-6.0992,-6.1004,-6.0991,-6.0757,-6.0601,-6.0394,-6.0259,-6.0403,-6.0514,-6.0538,-6.0684,-6.0748,-6.0775,-6.0879,-6.1092,-6.1378,-6.15,-6.1562,-6.1593,-6.1638,-6.1654,-6.1641,-6.1658,-6.1709,-6.1671,-6.165,-6.168,-6.1682,-6.1695,-6.169,-6.1774,-6.2063,-6.2496,-6.2756,-6.1866,-5.9725,-5.7227,-5.4519,-5.2671,-5.5154,-5.7542,-5.8556,-5.9079,-6.1807,-6.3189,-6.3076,-6.345,-6.2554,-6.2185,-6.1489,-6.1453,-6.1214,-6.1335,-6.1163,-6.1228,-6.1038,-6.1023,-6.0901,-6.0956,-6.0895,-6.0836,-6.0626,-6.0649,-6.0572,-6.0644,-6.0505,-6.0481,-6.0349,-6.0309,-6.027,-6.0206,-6.0004,-5.9934,-5.9873,-5.985,-5.9724,-5.9659,-5.9518,-5.9399,-5.9263,-5.9129,-5.8969,-5.8731,-5.8627,-5.8477,-5.8257,-5.8026,-5.7769,-5.7517,-5.7341,-5.7109,-5.691,-5.6726,-5.6551,-5.6447,-5.6353,-5.631,-5.6288,-5.6266,-5.6367,-5.6536,-5.6831,-5.7088,-5.7308,-5.7648,-5.8152,-5.8564,-5.9033,-5.9346,-5.9782,-6.0154,-6.0497,-6.0657,-6.0922,-6.1055,-6.1286,-6.139,-6.143,-6.1426,-6.1536,-6.1662,-6.1729,-6.168,-6.1696,-6.1694,-6.1748,-6.1751,-6.177,-6.1686,-6.1775,-6.1758,-6.1795,-6.1804,-6.1769,-6.1701,-6.1773,-6.1746,-6.1774,-6.169,-6.1657,-6.1691,-6.1714,-6.1653,-6.1635,-6.1616,-6.1571,-6.1576,-6.1506,-6.1558,-6.1456,-6.1465,-6.1516,-6.1499,-6.1488,-6.1502,-6.1515,-6.1514,-6.1505,-6.155,-6.1587,-6.1522,-6.1574,-6.1571,-6.1606,-6.1605,-6.1678,-6.1726,-6.1795,-6.1814,-6.1757,-6.1742,-6.1912,-6.1888,-6.1941,-6.1909,-6.1861,-6.1883,-6.1941,-6.1921,-6.1952,-6.191,-6.1962,-6.1888,-6.193,-6.1921,-6.1863,-6.1908,-6.194,-6.1946,-6.1968,-6.1971,-6.1903,-6.1998,-6.2046,-6.2045,-6.2036,-6.2025,-6.2083,-6.2154,-6.2145,-6.2035,-6.2097,-6.2127,-6.2124,-6.2161,-6.2177,-6.2115,-6.216,-6.2204,-6.2122,-6.218,-6.216,-6.2177,-6.2206,-6.2221,-6.2173,-6.2202,-6.2194,-6.223,-6.229,-6.2237,-6.2183,-6.2283,-6.2292,-6.2317,-6.229,-6.2291,-6.2264,-6.227,-6.2275,-6.2314,-6.2287,-6.2353,-6.2371,-6.2341,-6.2322,-6.2296,-6.2256,-6.2353,-6.2383,-6.2364,-6.2268,-6.2339,-6.2334,-6.2374,-6.232,-6.2332,-6.2343,-6.2362,-6.2406,-6.2419,-6.2342,-6.2325,-6.2367,-6.2423,-6.2397,-6.2404,-6.2342,-6.2363,-6.2323,-6.2247,-6.2185,-6.1969,-6.2099,-6.2131,-6.1949,-6.1807,-6.1569,-6.1436,-6.1452,-6.1597,-6.1593,-6.1728,-6.1806,-6.19,-6.1953,-6.2067,-6.2287,-6.2539,-6.2687,-6.2683,-6.2638,-6.2663,-6.2719,-6.2752,-6.2728,-6.2715,-6.2724,-6.2707,-6.2761,-6.2763,-6.2803,-6.2785,-6.2888,-6.3304,-6.371,-6.3557,-6.2207,-5.9744,-5.7398,-5.4753,-5.4042,-5.7764,-5.9243,-6.0142,-6.123,-6.3731,-6.4271,-6.4312,-6.4409,-6.337,-6.3165,-6.2445,-6.2496,-6.2239,-6.2472,-6.2224,-6.2274,-6.2039,-6.2116,-6.2077,-6.203,-6.1837,-6.186,-6.1749,-6.1846,-6.1696,-6.1689,-6.151,-6.1553,-6.1453,-6.1348,-6.1193,-6.1149,-6.1085,-6.1114,-6.094,-6.0907,-6.0709,-6.0706,-6.0627,-6.0519,-6.0359,-6.0208,-5.9981,-5.9918,-5.9717,-5.9528,-5.9253,-5.9058,-5.882,-5.8614,-5.8403,-5.8149,-5.7971,-5.7822,-5.7724,-5.7541,-5.7424,-5.7461,-5.7446,-5.7433,-5.7572,-5.7687,-5.7992,-5.8175,-5.8488,-5.8938,-5.9353,-5.9776,-6.0174,-6.0654,-6.1038,-6.1361,-6.1673,-6.1921,-6.2227,-6.2339,-6.2496,-6.261,-6.2717,-6.2823,-6.2881,-6.2879,-6.2939,-6.2914,-6.2948,-6.2963,-6.3026,-6.2942,-6.3029,-6.3,-6.3032,-6.2966,-6.3013,-6.2925,-6.2973,-6.2949,-6.2908,-6.28,-6.2847,-6.2802,-6.2827,-6.2834,-6.2784,-6.2803,-6.2807,-6.2731,-6.2727,-6.2679,-6.2696,-6.2589,-6.2725,-6.266,-6.2579,-6.2514,-6.26,-6.2626,-6.2596,-6.2617,-6.2561,-6.2621,-6.2676,-6.2667,-6.2681,-6.2654,-6.2642,-6.2726,-6.2799,-6.2797,-6.2847,-6.2811,-6.287,-6.2874,-6.2908,-6.2907,-6.291,-6.2998,-6.3002,-6.2954,-6.2912,-6.2983,-6.2994,-6.2988,-6.3009,-6.3009,-6.2952,-6.2959,-6.3014,-6.3075,-6.3024,-6.2995,-6.3054,-6.3044,-6.3022,-6.301,-6.303,-6.3025,-6.3051,-6.3044,-6.3008,-6.3057,-6.3002,-6.3076,-6.3048,-6.3016,-6.2987,-6.302,-6.299,-6.2965,-6.2953,-6.2947,-6.2985,-6.3029,-6.2977,-6.2938,-6.2967,-6.2944,-6.2998,-6.2999,-6.2993,-6.296,-6.2923,-6.297,-6.2997,-6.2954,-6.293,-6.2945,-6.2952,-6.2984,-6.2928,-6.2904,-6.2925,-6.296,-6.2914,-6.2909,-6.2904,-6.2832,-6.2871,-6.2852,-6.2877,-6.2778,-6.2816,-6.2858,-6.2807,-6.2819,-6.2759,-6.2771,-6.2758,-6.2813,-6.2861,-6.2822,-6.2757,-6.2783,-6.2753,-6.2834,-6.2778,-6.2786,-6.2742,-6.2733,-6.2778,-6.2592,-6.2542,-6.2514,-6.2501,-6.2324,-6.2352,-6.2306,-6.2121,-6.1977,-6.1774,-6.1607,-6.17,-6.1759,-6.1677,-6.184,-6.1976,-6.1935,-6.1973,-6.2185,-6.2455,-6.2637,-6.2624,-6.2619,-6.2574,-6.2676,-6.2651,-6.2627,-6.2506,-6.2619,-6.2613,-6.2641,-6.2549,-6.255,-6.2505,-6.2603,-6.2785,-6.3118,-6.3481,-6.3204,-6.1549,-5.8942,-5.6425,-5.3971,-5.4401,-5.7783,-5.9119,-5.9663,-6.1317,-6.3119,-6.31,-6.3584,-6.3627,-6.2783,-6.2406,-6.1816,-6.1761,-6.1581,-6.1541,-6.1478,-6.1403,-6.1366,-6.1329,-6.1164,-6.11,-6.0948,-6.0928,-6.0868,-6.0807,-6.063,-6.0637,-6.0615,-6.052,-6.0432,-6.0275,-6.0072,-6.0015,-5.9946,-5.9791,-5.9621,-5.947,-5.9382,-5.9203,-5.898,-5.8808,-5.8662,-5.8454,-5.831,-5.8113,-5.7891,-5.7635,-5.7425,-5.7214,-5.6811,-5.6552,-5.6334,-5.6064,-5.5855,-5.566,-5.5503,-5.5329,-5.5219,-5.5201,-5.5152,-5.5113,-5.5259,-5.5376,-5.5562,-5.5729,-5.6146,-5.6554,-5.6838,-5.7422,-5.7628,-5.8099,-5.8316,-5.8625,-5.8923,-5.9163,-5.9255,-5.9416,-5.9439,-5.9662,-5.9689,-5.9712,-5.9777,-5.9765,-5.9777,-5.9873,-5.9826,-5.9836,-5.9816,-5.9772,-5.9705,-5.9657,-5.9616,-5.9654,-5.9648,-5.9539,-5.956,-5.9492,-5.94,-5.9376,-5.9409,-5.937,-5.9237,-5.9246,-5.9183,-5.9162,-5.9085,-5.9033,-5.9025,-5.8907,-5.895,-5.8965,-5.8892,-5.8806,-5.8788,-5.8733,-5.8782,-5.8721,-5.8738,-5.8716,-5.8757,-5.8698,-5.8759,-5.8614,-5.8661,-5.8674,-5.8736,-5.8666,-5.8635,-5.8654,-5.8719,-5.8699,-5.8683,-5.8674,-5.8618,-5.8603,-5.8598,-5.8592,-5.8551,-5.8581,-5.8578,-5.861,-5.8571,-5.8438,-5.8465,-5.8522,-5.8537,-5.8551,-5.8446,-5.8486,-5.8485,-5.844,-5.8429,-5.8468,-5.838,-5.8344,-5.8444,-5.8359,-5.8314,-5.8242,-5.8275,-5.8345,-5.8368,-5.8299,-5.8291,-5.8266,-5.8297,-5.828,-5.8256,-5.825,-5.8205,-5.8233,-5.8247,-5.8167,-5.8162,-5.8175,-5.8212,-5.8217,-5.8213,-5.8181,-5.8143,-5.8276,-5.8215,-5.823,-5.8171,-5.8094,-5.8096,-5.8066,-5.8001,-5.787,-5.7744,-5.781,-5.7706,-5.7535,-5.7373,-5.7145,-5.7126,-5.7297,-5.7261,-5.7216,-5.7389,-5.7532,-5.756,-5.7629,-5.7775,-5.8101,-5.8095,-5.8229,-5.8303,-5.8349,-5.829,-5.8354,-5.8373,-5.8268,-5.8388,-5.8306,-5.8309,-5.8297,-5.8381,-5.8326,-5.8432,-5.8608,-5.9187,-5.9332,-5.8625,-5.6499,-5.5035,-5.2792,-5.0123,-4.9865,-5.3013,-5.4748,-5.5751,-5.83,-5.8937,-5.8999,-5.968,-5.9579,-5.8867,-5.8485,-5.8005,-5.7914,-5.7841,-5.7901,-5.7771,-5.7695,-5.7621,-5.7631,-5.757,-5.7532,-5.7339,-5.7307,-5.7273,-5.7312,-5.7226,-5.7155,-5.7014,-5.6966,-5.6831,-5.6866,-5.6733,-5.6591,-5.651,-5.6471,-5.6315,-5.6185,-5.6107,-5.6048,-5.5965,-5.5831,-5.5689,-5.5518,-5.5327,-5.5145,-5.4937,-5.4779,-5.451,-5.4312,-5.4057,-5.3881,-5.3639,-5.3516,-5.3314,-5.3181,-5.3049,-5.3016,-5.2905,-5.2871,-5.2923,-5.2997,-5.3174,-5.3361,-5.3715,-5.4046,-5.4541,-5.5019,-5.5406,-5.5734,-5.6225,-5.6662,-5.6959,-5.7313,-5.7529,-5.773,-5.7913,-5.8111,-5.8228,-5.8251,-5.8308,-5.8374,-5.8487,-5.85,-5.8504,-5.8508,-5.8565,-5.8561,-5.8619,-5.8629,-5.86,-5.8642,-5.8705,-5.8577,-5.8646,-5.8632,-5.8606,-5.8651,-5.8656,-5.8579,-5.854,-5.8509,-5.8609,-5.8493,-5.8465,-5.8417,-5.8405,-5.8433,-5.8501,-5.8431,-5.8397,-5.8361,-5.8377,-5.8349,-5.8331,-5.8286,-5.8339,-5.8264,-5.8319,-5.8328,-5.8369,-5.8372,-5.8469,-5.8428,-5.8503,-5.8424,-5.8404,-5.8583,-5.8622,-5.8609,-5.8632,-5.86,-5.863,-5.8749,-5.8714,-5.8716,-5.8663,-5.8793,-5.8759,-5.8769,-5.8789,-5.8758,-5.88,-5.883,-5.8881,-5.8815,-5.8827,-5.8865,-5.8909,-5.8908,-5.8924,-5.8923,-5.8941,-5.8985,-5.9006,-5.9002,-5.8957,-5.8975,-5.9115,-5.91,-5.9063,-5.9126,-5.9039,-5.9184,-5.9151,-5.9155,-5.9143,-5.9185,-5.9183,-5.9252,-5.9232,-5.9227,-5.9275,-5.9346,-5.9322,-5.9356,-5.9272,-5.9307,-5.9376,-5.9387,-5.9401,-5.938,-5.9368,-5.9437,-5.9469,-5.9456,-5.9427,-5.9384,-5.9458,-5.9459,-5.9465,-5.9482,-5.9501,-5.9504,-5.9474,-5.9545,-5.9517,-5.9511,-5.9514,-5.956,-5.9588,-5.9484,-5.9386,-5.9315,-5.9197,-5.9259,-5.9261,-5.9131,-5.8979,-5.8815,-5.8604,-5.8649,-5.8707,-5.87,-5.8925,-5.9001,-5.9072,-5.9049,-5.918,-5.9436,-5.9589,-5.979,-5.986,-5.9886,-5.9906,-5.9965,-5.9963,-5.9874,-5.9929,-5.9942,-5.9927,-5.9898,-5.9915,-5.9913,-5.9904,-6.0101,-6.0409,-6.0838,-6.0699,-5.9404,-5.8213,-5.5682,-5.2984,-5.0875,-5.0914,-5.4533,-5.6653,-5.8073,-6.0587,-6.1061,-6.1409,-6.141,-6.0427,-6.0094,-5.9613,-5.954,-5.9446,-5.9373,-5.9272,-5.9223,-5.9202,-5.9231,-5.9234,-5.9125,-5.9004,-5.9048,-5.8935,-5.8907,-5.8769,-5.8758,-5.8752,-5.8701,-5.8612,-5.8496,-5.843,-5.8352,-5.8223,-5.8157,-5.803,-5.7928,-5.7892,-5.7825,-5.7646,-5.7515,-5.7429,-5.7231,-5.7162,-5.6962,-5.6679,-5.6431,-5.6169,-5.6016,-5.5808,-5.5518,-5.5335,-5.5115,-5.4894,-5.4757,-5.4646,-5.4481,-5.4474,-5.4439,-5.4383,-5.4387,-5.4418,-5.4538,-5.484,-5.5187,-5.553,-5.5908,-5.6351,-5.688,-5.7341,-5.7692,-5.8006,-5.8364,-5.8601,-5.8875,-5.9091,-5.9226,-5.9418,-5.9437,-5.9589,-5.9642,-5.9657,-5.9817,-5.9787,-5.9846,-5.9838,-5.9807,-5.9845,-5.9774,-5.9867,-5.9857,-5.9861,-5.9867,-5.9915,-5.993,-5.9932,-5.9846,-5.9914,-5.9869,-5.9916,-5.9859,-5.9857,-5.9796,-5.9758,-5.979,-5.9728,-5.9746,-5.9702,-5.9641,-5.9678,-5.9606,-5.9665,-5.9606,-5.9565,-5.9599,-5.9634,-5.9586,-5.9658,-5.9633,-5.9642,-5.9676,-5.9677,-5.975,-5.9731,-5.9736,-5.9765,-5.9809,-5.9851,-5.9918,-5.9912,-5.9981,-6.003,-5.9975,-5.9997,-6.0091,-6.0073,-6.0057,-6.0006,-6.0026,-6.0108,-6.0086,-6.0028,-6.01,-6.0158,-6.0107,-6.0136,-6.0183,-6.0194,-6.0187,-6.019,-6.0248,-6.0239,-6.0261,-6.0254,-6.0191,-6.0227,-6.034,-6.0268,-6.0305,-6.0297,-6.0316,-6.0339,-6.0349,-6.0382,-6.0317,-6.0354,-6.0347,-6.0367,-6.0336,-6.0327,-6.0363,-6.0383,-6.0395,-6.0318,-6.0407,-6.0406,-6.0447,-6.0427,-6.0445,-6.0443,-6.0496,-6.0491,-6.0469,-6.0497,-6.052,-6.0491,-6.0532,-6.05,-6.0553,-6.0487,-6.0576,-6.0615,-6.0547,-6.0564,-6.0503,-6.0569,-6.0628,-6.0658,-6.0566,-6.054,-6.0563,-6.0603,-6.0612,-6.0659,-6.0632,-6.0644,-6.0605,-6.0651,-6.0679,-6.0649,-6.0619,-6.0651,-6.0724,-6.063,-6.065,-6.0587,-6.0676,-6.069,-6.0725,-6.0692,-6.0657,-6.0595,-6.0543,-6.0495,-6.0302,-6.0347,-6.0373,-6.0203,-5.9988,-5.9767,-5.9691,-5.9916,-5.9916,-5.9993,-6.0114,-6.0204,-6.018,-6.0232,-6.0531,-6.0685,-6.0843,-6.0945,-6.1027,-6.1119,-6.1103,-6.1081,-6.1114,-6.114,-6.1165,-6.1142,-6.1129,-6.112,-6.1206,-6.1224,-6.1261,-6.1561,-6.1984,-6.2159,-6.1316,-6.0357,-5.7885,-5.5301,-5.2722,-5.2624,-5.629,-5.751,-5.8498,-6.1404,-6.2575,-6.252,-6.2864,-6.2173,-6.1683,-6.1187,-6.0949,-6.0806,-6.0722,-6.071,-6.0642,-6.06,-6.0529,-6.0526,-6.0455,-6.0418,-6.0365,-6.0323,-6.0174,-6.0108,-6.0086,-6.0154,-5.9985,-5.9871,-5.9768,-5.9719,-5.9656,-5.9502,-5.9408,-5.9268,-5.9249,-5.9162,-5.9138,-5.9002,-5.8763,-5.8785,-5.8646,-5.8407,-5.8268,-5.8088,-5.7818,-5.7657,-5.7396,-5.7139,-5.6885,-5.667,-5.6474,-5.6298,-5.6028,-5.5915,-5.5839,-5.5727,-5.5695,-5.5697,-5.5638,-5.5642,-5.5809,-5.6028,-5.6284,-5.6572,-5.6929,-5.7381,-5.7898,-5.831,-5.8722,-5.9056,-5.9414,-5.9719,-5.9921,-6.0179,-6.0431,-6.0589,-6.0672,-6.0771,-6.0829,-6.0892,-6.0927,-6.0989,-6.1032,-6.1031,-6.0954,-6.0997,-6.1085,-6.1094,-6.1097,-6.1088,-6.1123,-6.1073,-6.1046,-6.1057,-6.101,-6.0964,-6.0943,-6.0939,-6.0916,-6.0879,-6.0829,-6.0816,-6.0759,-6.07,-6.0705,-6.0703,-6.0623,-6.0577,-6.0582,-6.0528,-6.0536,-6.0523,-6.0434,-6.0369,-6.033,-6.0345,-6.0385,-6.0412,-6.0419,-6.0418,-6.0445,-6.0438,-6.049,-6.0518,-6.0495,-6.0533,-6.0539,-6.0617,-6.067,-6.0676,-6.0619,-6.0693,-6.0775,-6.0728,-6.0699,-6.0742,-6.0747,-6.0738,-6.0659,-6.0608,-6.0676,-6.0682,-6.0764,-6.0789,-6.0704,-6.0675,-6.0599,-6.0659,-6.0737,-6.0754,-6.0707,-6.0753,-6.0711,-6.0747,-6.0801,-6.0748,-6.0722,-6.0717,-6.0751,-6.0748,-6.0662,-6.0623,-6.0821,-6.0784,-6.0745,-6.0753,-6.0737,-6.0703,-6.0755,-6.0738,-6.0675,-6.0651,-6.0696,-6.0811,-6.0745,-6.0689,-6.0725,-6.077,-6.0772,-6.0778,-6.0733,-6.0648,-6.0649,-6.075,-6.0732,-6.0686,-6.0594,-6.0613,-6.0621,-6.0609,-6.0612,-6.0609,-6.0621,-6.0672,-6.0631,-6.0623,-6.0553,-6.0605,-6.0646,-6.0631,-6.0628,-6.0575,-6.0501,-6.0551,-6.0653,-6.0578,-6.0587,-6.0593,-6.0571,-6.0609,-6.0549,-6.0541,-6.059,-6.0572,-6.0589,-6.0602,-6.0551,-6.0484,-6.0505,-6.0511,-6.0374,-6.0309,-6.0253,-6.0143,-6.0195,-6.0075,-5.9833,-5.9704,-5.9511,-5.9427,-5.9642,-5.957,-5.9654,-5.976,-5.9771,-5.9781,-5.9878,-5.997,-6.0263,-6.0403,-6.0513,-6.0473,-6.0489,-6.0531,-6.0459,-6.0496,-6.0449,-6.0373,-6.0368,-6.0409,-6.0417,-6.0361,-6.0365,-6.0446,-6.0785,-6.1218,-6.1305,-5.9953,-5.881,-5.627,-5.3623,-5.1638,-5.3095,-5.5825,-5.7006,-5.8401,-6.0568,-6.0948,-6.1013,-6.1671,-6.0987,-6.0549,-5.9859,-5.9718,-5.9428,-5.9583,-5.9452,-5.9424,-5.9248,-5.9247,-5.9021,-5.908,-5.8947,-5.8977,-5.8848,-5.8798,-5.8681,-5.8624,-5.8535,-5.8392,-5.8389,-5.847,-5.8188,-5.7982,-5.7736,-5.7907,-5.775,-5.76,-5.7432,-5.7356,-5.7194,-5.7063,-5.6957,-5.6769,-5.6568,-5.6396,-5.6172,-5.5995,-5.5642,-5.5386,-5.5069,-5.4975,-5.4662,-5.4434,-5.4256,-5.4124,-5.4044,-5.3779,-5.3698,-5.3561,-5.3558,-5.3548,-5.3646,-5.3697,-5.3908,-5.4144,-5.461,-5.4972,-5.5412,-5.5739,-5.6146,-5.6501,-5.6897,-5.7117,-5.7483,-5.7653,-5.7987,-5.8151,-5.8243,-5.8231,-5.8333,-5.8454,-5.8509,-5.8508,-5.8551,-5.8567,-5.8601,-5.8616,-5.8648,-5.8646,-5.8609,-5.8628,-5.8595,-5.8588,-5.8603,-5.8525,-5.8512,-5.853,-5.8452,-5.8362,-5.8462,-5.8369,-5.8402,-5.8384,-5.8326,-5.8322,-5.8251,-5.8192,-5.8207,-5.8142,-5.8182,-5.8053,-5.8074,-5.7989,-5.7978,-5.7924,-5.7887,-5.7938,-5.8035,-5.7994,-5.7937,-5.7919,-5.7936,-5.8009,-5.8049,-5.7994,-5.7956,-5.7961,-5.8035,-5.8037,-5.8017,-5.8016,-5.799,-5.8023,-5.801,-5.8043,-5.8012,-5.8006,-5.7961,-5.8022,-5.801,-5.7967,-5.8057,-5.8072,-5.8004,-5.8,-5.7967,-5.7992,-5.7982,-5.7944,-5.8009,-5.7936,-5.7922,-5.7999,-5.7986,-5.7989,-5.7947,-5.7906,-5.8014,-5.8021,-5.7998,-5.7971,-5.7894,-5.8029,-5.7973,-5.7946,-5.7919,-5.797,-5.7863,-5.7975,-5.7989,-5.794,-5.7907,-5.7973,-5.7979,-5.7927,-5.7991,-5.7971,-5.7944,-5.7928,-5.8029,-5.7991,-5.7899,-5.7909,-5.7878,-5.7773,-5.7632,-5.7562,-5.7564,-5.7641,-5.7445,-5.7259,-5.7087,-5.69,-5.7024,-5.7146,-5.708,-5.7083,-5.7235,-5.7353,-5.7357,-5.7361,-5.7575,-5.7824,-5.8021,-5.8146,-5.8144,-5.8089,-5.8015,-5.8143,-5.8142,-5.8115,-5.8112,-5.807,-5.8133,-5.8189,-5.8158,-5.8083,-5.8262,-5.8627,-5.8873,-5.9241,-5.8748,-5.7132,-5.441,-5.1825,-4.9598,-5.0252,-5.3382,-5.4988,-5.6079,-5.8473,-5.8999,-5.913,-5.9839,-5.9153,-5.8627,-5.8062,-5.7917,-5.7732,-5.7758,-5.7672,-5.7663,-5.7603,-5.7521,-5.7517,-5.7512,-5.7475,-5.7321,-5.7251,-5.7284,-5.7255,-5.7167,-5.7018,-5.6914,-5.6939,-5.693,-5.6743,-5.6724,-5.6537,-5.6516,-5.6465,-5.6356,-5.6254,-5.619,-5.6062,-5.599,-5.579,-5.5666,-5.5515,-5.5373,-5.5162,-5.493,-5.4764,-5.4461,-5.4277,-5.4092,-5.3852,-5.3596,-5.343,-5.3295,-5.3176,-5.3039,-5.3006,-5.2881,-5.2848,-5.2926,-5.3114,-5.3221,-5.3498,-5.38,-5.428,-5.4699,-5.5161,-5.5551,-5.6007,-5.6454,-5.6892,-5.7226,-5.7444,-5.7588,-5.7847,-5.8129,-5.8222,-5.83,-5.8443,-5.8523,-5.8611,-5.8657,-5.8654,-5.8745,-5.8804,-5.8914,-5.8918,-5.8855,-5.888,-5.8947,-5.895,-5.8943,-5.8882,-5.8882,-5.8918,-5.9004,-5.8997,-5.8946,-5.8927,-5.8962,-5.8975,-5.8976,-5.8946,-5.8865,-5.8804,-5.8835,-5.8775,-5.8826,-5.8775,-5.8732,-5.8725,-5.8739,-5.8656,-5.8607,-5.8639,-5.8627,-5.8703,-5.8647,-5.8662,-5.8593,-5.8636,-5.878,-5.8741,-5.8691,-5.874,-5.8775,-5.8878,-5.8894,-5.8825,-5.8821,-5.8896,-5.8935,-5.8957,-5.9004,-5.9001,-5.8948,-5.9054,-5.8988,-5.9023,-5.9046,-5.8971,-5.9038,-5.9125,-5.9056,-5.9038,-5.9081,-5.9175,-5.9155,-5.9135,-5.9101,-5.909,-5.9149,-5.917,-5.9175,-5.916,-5.921,-5.9232,-5.9229,-5.9216,-5.9231,-5.9235,-5.9181,-5.9246,-5.9266,-5.9172,-5.9183,-5.9232,-5.9241,-5.918,-5.915,-5.9141,-5.9212,-5.9181,-5.9299,-5.9266,-5.92,-5.9136,-5.9181,-5.918,-5.9177,-5.9192,-5.9172,-5.9217,-5.9209,-5.9221,-5.9178,-5.9225,-5.9275,-5.927,-5.9287,-5.9205,-5.9267,-5.9287,-5.9337,-5.9333,-5.9353,-5.9317,-5.9326,-5.934,-5.9303,-5.9331,-5.933,-5.9363,-5.9343,-5.9313,-5.9103,-5.9038,-5.897,-5.9024,-5.9042,-5.8827,-5.8667,-5.8615,-5.8351,-5.8534,-5.855,-5.8456,-5.8624,-5.8782,-5.8858,-5.8796,-5.8973,-5.9164,-5.9608,-5.9525,-5.9635,-5.9716,-5.9618,-5.9754,-5.9718,-5.9729,-5.9707,-5.9679,-5.977,-5.9783,-5.9764,-5.9741,-5.9707,-5.9924,-6.0199,-6.0626,-6.056,-5.9355,-5.699,-5.4569,-5.1933,-5.0758,-5.4298,-5.5971,-5.6938,-5.9511,-6.0954,-6.1063,-6.1453,-6.0979,-6.0378,-6.0042,-5.9407,-5.9421,-5.9231,-5.933,-5.9206,-5.9167,-5.9107,-5.9198,-5.9017,-5.9004,-5.8865,-5.8837,-5.8803,-5.8798,-5.8627,-5.8613,-5.8504,-5.8513,-5.8444,-5.843,-5.8273,-5.8184,-5.8117,-5.8026,-5.7897,-5.7839,-5.7719,-5.77,-5.7515,-5.7474,-5.7267,-5.7103,-5.6945,-5.6816,-5.658,-5.6282,-5.6059,-5.589,-5.5785,-5.5526,-5.5327,-5.5064,-5.492,-5.479,-5.4613,-5.4472,-5.4335,-5.4326,-5.4311,-5.4422,-5.4457,-5.4643,-5.4879,-5.5254,-5.5686,-5.6048,-5.6493,-5.6975,-5.7263,-5.7566,-5.7947,-5.8281,-5.8562,-5.8783,-5.9059,-5.9213,-5.9353,-5.945,-5.9559,-5.9624,-5.9754,-5.9729,-5.9733,-5.9783,-5.9912,-5.985,-5.9831,-5.9811,-5.9918,-5.991,-5.9943,-5.9904,-5.9948,-5.9914,-5.9905,-5.988,-5.9871,-5.9858,-5.9889,-5.9902,-5.993,-5.9827,-5.9751,-5.983,-5.9816,-5.9714,-5.9755,-5.9752,-5.9752,-5.9706,-5.9714,-5.9667,-5.9657,-5.9654,-5.973,-5.9669,-5.9665,-5.9643,-5.967,-5.9701,-5.9756,-5.9701,-5.9712,-5.9773,-5.9862,-5.9873,-5.9833,-5.9844,-5.9915,-5.9866,-5.9876,-5.9981,-6.0008,-6.0002,-5.9989,-6.004,-6.0034,-6.0069,-6.0039,-6.0108,-6.0127,-6.0065,-6.0085,-6.0102,-6.0149,-6.0162,-6.0136,-6.0113,-6.0163,-6.0156,-6.0216,-6.0203,-6.0171,-6.0194,-6.0221,-6.026,-6.0252,-6.0184,-6.0181,-6.026,-6.0207,-6.023,-6.0266,-6.0337,-6.0244,-6.0316,-6.0241,-6.0258,-6.0331,-6.0285,-6.0322,-6.0321,-6.0274,-6.0272,-6.0281,-6.0314,-6.0414,-6.0378,-6.0345,-6.0354,-6.038,-6.0391,-6.0367,-6.0353,-6.0343,-6.039,-6.0389,-6.0407,-6.0362,-6.036,-6.0376,-6.0449,-6.0411,-6.0427,-6.0391,-6.0453,-6.0464,-6.0428,-6.0422,-6.0461,-6.0477,-6.0506,-6.0478,-6.0378,-6.04,-6.0504,-6.0508,-6.0504,-6.0468,-6.0493,-6.0488,-6.052,-6.0461,-6.0412,-6.0364,-6.0234,-6.0206,-6.0148,-6.0159,-6.0023,-5.9822,-5.9651,-5.9491,-5.9524,-5.9675,-5.9641,-5.9785,-5.9937,-5.9916,-5.992,-5.994,-6.021,-6.0582,-6.0666,-6.0702,-6.0668,-6.0691,-6.0773,-6.079,-6.0727,-6.0696,-6.0722,-6.0776,-6.082,-6.0767,-6.0808,-6.0823,-6.1005,-6.1278,-6.1726,-6.1794,-6.1229,-5.9401,-5.6746,-5.431,-5.1974,-5.3287,-5.6433,-5.7644,-5.8844,-6.158,-6.219,-6.2396,-6.2457,-6.1535,-6.1096,-6.0627,-6.0601,-6.0381,-6.0407,-6.027,-6.029,-6.0198,-6.0206,-6.0133,-6.0043,-5.9946,-5.9957,-5.9866,-5.9774,-5.9661,-5.9663,-5.9586,-5.9544,-5.9496,-5.9424,-5.926,-5.9265,-5.9144,-5.9034,-5.8922,-5.8857,-5.8752,-5.8697,-5.859,-5.8487,-5.83,-5.8165,-5.8066,-5.7829,-5.7665,-5.7438,-5.7171,-5.7011,-5.6833,-5.656,-5.6305,-5.6093,-5.5925,-5.5749,-5.5705,-5.5627,-5.5466,-5.5416,-5.5404,-5.5349,-5.5416,-5.5444,-5.576,-5.6026,-5.6354,-5.6725,-5.7227,-5.7732,-5.8112,-5.8521,-5.8857,-5.9212,-5.9496,-5.9706,-5.9963,-6.0083,-6.0179,-6.0332,-6.0476,-6.0596,-6.0624,-6.0612,-6.0675,-6.0743,-6.0775,-6.0704,-6.0754,-6.0763,-6.0799,-6.077,-6.0777,-6.0756,-6.0702,-6.0691,-6.067,-6.0673,-6.066,-6.0676,-6.0598,-6.0578,-6.0575,-6.049,-6.0461,-6.0416,-6.0388,-6.0334,-6.0355,-6.0298,-6.0288,-6.0237,-6.0214,-6.0165,-6.0098,-6.0139,-6.0126,-6.0124,-6.0091,-6.0028,-6.0041,-6.0053,-6.0106,-6.0021,-6.001,-5.999,-6.0084,-6.0067,-6.0082,-6.0039,-6.0069,-6.0142,-6.0158,-6.0139,-6.016,-6.0173,-6.0123,-6.0121,-6.0072,-5.9962,-5.9992,-6.0046,-6.0041,-5.9897,-5.9959,-5.9885,-5.9869,-5.9807,-5.9878,-5.989,-5.9833,-5.9879,-5.9903,-5.9901,-5.984,-5.982,-5.992,-5.992,-5.9864,-5.9863,-5.9803,-5.9881,-5.9885,-5.995,-5.9892,-5.9877,-5.9804,-5.9845,-5.9889,-5.9782,-5.9781,-5.9816,-5.9824,-5.9866,-5.9709,-5.9744,-5.9781,-5.9817,-5.9806,-5.9839,-5.9777,-5.9739,-5.9776,-5.99,-5.9742,-5.972,-5.9685,-5.974,-5.9774,-5.9761,-5.9653,-5.9696,-5.9748,-5.9773,-5.9754,-5.9629,-5.9668,-5.9646,-5.9693,-5.9565,-5.9614,-5.9618,-5.9617,-5.9676,-5.9591,-5.962,-5.9494,-5.9529,-5.9504,-5.9368,-5.9244,-5.9071,-5.912,-5.9017,-5.8826,-5.8668,-5.8447,-5.8317,-5.8351,-5.8523,-5.8524,-5.8433,-5.8508,-5.8695,-5.8708,-5.876,-5.9037,-5.921,-5.9278,-5.9297,-5.9242,-5.9229,-5.9174,-5.9139,-5.9135,-5.9182,-5.915,-5.9094,-5.9112,-5.9067,-5.9118,-5.9012,-5.9126,-5.9392,-5.9809,-5.9955,-5.8904,-5.652,-5.4049,-5.1205,-4.9921,-5.2914,-5.4761,-5.6125,-5.7977,-5.9234,-5.9046,-5.9591,-6.007,-5.963,-5.9157,-5.8585,-5.8305,-5.8022,-5.8064,-5.7954,-5.7981,-5.7713,-5.7724,-5.7616,-5.7587,-5.7396,-5.7383,-5.7182,-5.7262,-5.7086,-5.712,-5.6933,-5.6889,-5.6796,-5.6774,-5.6628,-5.6508,-5.6359,-5.6234,-5.6174,-5.6116,-5.587,-5.5696,-5.5619,-5.5481,-5.5284,-5.5185,-5.4952,-5.478,-5.4537,-5.4347,-5.4081,-5.3925,-5.3699,-5.3525,-5.3346,-5.3026,-5.2816,-5.2617,-5.2506,-5.2413,-5.2286,-5.2155,-5.2087,-5.2081,-5.2243,-5.2366,-5.2608,-5.2937,-5.3336,-5.3729,-5.4132,-5.4455,-5.4705,-5.5182,-5.5539,-5.5772,-5.6106,-5.6298,-5.6576,-5.6768,-5.6871,-5.6908,-5.696,-5.7093,-5.7188,-5.7151,-5.7237,-5.7158,-5.7245,-5.7306,-5.7332,-5.7282,-5.7272,-5.7258,-5.7351,-5.7345,-5.7353,-5.7187,-5.7208,-5.7287,-5.7289,-5.7184,-5.7139,-5.7157,-5.7191,-5.7208,-5.7112,-5.7006,-5.7025,-5.704,-5.7043,-5.694,-5.6949,-5.6886,-5.689,-5.6827,-5.6898,-5.6801,-5.678,-5.6816,-5.6794,-5.6775,-5.6774,-5.6708,-5.6812,-5.6917,-5.6837,-5.6884,-5.6888,-5.6937,-5.7015,-5.7017,-5.6987,-5.6988,-5.6995,-5.7057,-5.7079,-5.7019,-5.703,-5.7085,-5.7059,-5.712,-5.708,-5.7096,-5.7121,-5.7192,-5.7221,-5.7168,-5.7099,-5.7123,-5.7209,-5.7175,-5.7191,-5.7167,-5.7154,-5.7207,-5.7223,-5.7169,-5.7194,-5.723,-5.7206,-5.7241,-5.7252,-5.7271,-5.7216,-5.7307,-5.7298,-5.7287,-5.7236,-5.7221,-5.7299,-5.7333,-5.726,-5.7225,-5.7242,-5.7285,-5.7295,-5.7368,-5.7316,-5.7275,-5.7264,-5.7342,-5.7331,-5.7213,-5.7145,-5.7108,-5.6971,-5.696,-5.6931,-5.687,-5.6726,-5.6634,-5.6356,-5.6239,-5.632,-5.6362,-5.6366,-5.6459,-5.6618,-5.66,-5.6701,-5.6787,-5.7005,-5.7275,-5.7445,-5.7387,-5.7429,-5.7415,-5.7478,-5.7438,-5.7429,-5.7417,-5.7551,-5.75,-5.7446,-5.7405,-5.7414,-5.7493,-5.7574,-5.7837,-5.829,-5.8391,-5.7304,-5.4967,-5.25,-4.975,-4.8299,-5.1456,-5.3334,-5.4516,-5.666,-5.8349,-5.8524,-5.8666,-5.9156,-5.8234,-5.7774,-5.723,-5.708,-5.6898,-5.6932,-5.6863,-5.6876,-5.6767,-5.6761,-5.6691,-5.6617,-5.6623,-5.6585,-5.6439,-5.6364,-5.6336,-5.6304,-5.6257,-5.6173,-5.6013,-5.5945,-5.5886,-5.582,-5.5702,-5.5564,-5.5467,-5.5371,-5.5306,-5.5171,-5.5076,-5.4907,-5.4798,-5.4612,-5.4467,-5.4221,-5.3978,-5.3772,-5.3691,-5.3452,-5.3147,-5.2937,-5.2739,-5.2586,-5.2351,-5.2186,-5.2031,-5.1881,-5.1841,-5.1796,-5.18,-5.1778,-5.1966,-5.2236,-5.255,-5.2876,-5.3302,-5.3748,-5.4009,-5.4496,-5.4942,-5.5279,-5.5665,-5.6023,-5.6312,-5.6528,-5.6749,-5.6858,-5.7059,-5.7155,-5.7255,-5.7305,-5.7357,-5.7411,-5.7465,-5.7491,-5.7523,-5.7543,-5.7536,-5.7556,-5.7609,-5.7679,-5.7649,-5.7597,-5.764,-5.7645,-5.7613,-5.7562,-5.7601,-5.7618,-5.7628,-5.7535,-5.7483,-5.7519,-5.7512,-5.7439,-5.7424,-5.7403,-5.7394,-5.7399,-5.738,-5.7402,-5.7377,-5.7292,-5.732,-5.734,-5.7341,-5.7313,-5.7281,-5.7329,-5.7282,-5.7365,-5.7371,-5.737,-5.7396,-5.7386,-5.7441,-5.7484,-5.7453,-5.745,-5.7517,-5.7604,-5.7558,-5.7583,-5.76,-5.7669,-5.7691,-5.7688,-5.7711,-5.7694,-5.773,-5.7798,-5.7763,-5.7687,-5.7708,-5.7763,-5.7759,-5.7742,-5.7836,-5.7782,-5.7813,-5.7811,-5.7834,-5.7827,-5.7826,-5.7857,-5.7884,-5.7926,-5.7913,-5.7856,-5.7921,-5.8002,-5.7916,-5.7952,-5.7962,-5.7988,-5.7943,-5.8007,-5.7928,-5.7905,-5.7974,-5.7978,-5.8005,-5.7981,-5.7942,-5.7915,-5.806,-5.8032,-5.8005,-5.7956,-5.7991,-5.8014,-5.7977,-5.7974,-5.8023,-5.8039,-5.7978,-5.805,-5.8008,-5.8018,-5.7987,-5.8,-5.809,-5.8073,-5.7981,-5.8047,-5.8033,-5.8055,-5.8066,-5.8078,-5.8081,-5.8041,-5.8052,-5.8063,-5.8024,-5.7989,-5.7991,-5.8083,-5.8054,-5.8016,-5.8001,-5.7995,-5.8081,-5.8038,-5.7982,-5.7885,-5.7804,-5.7744,-5.7708,-5.7706,-5.7549,-5.7421,-5.724,-5.709,-5.71,-5.7166,-5.7228,-5.7336,-5.7485,-5.7499,-5.7471,-5.7534,-5.777,-5.8037,-5.8147,-5.8195,-5.818,-5.8265,-5.83,-5.8298,-5.8288,-5.826,-5.8346,-5.8346,-5.832,-5.8297,-5.8265,-5.8333,-5.845,-5.8785,-5.9086,-5.9272,-5.8702,-5.6896,-5.4312,-5.1746,-4.9398,-5.0665,-5.3803,-5.4862,-5.6068,-5.8972,-5.9656,-5.9837,-5.9992,-5.8979,-5.8623,-5.8097,-5.8028,-5.7838,-5.7904,-5.7775,-5.7742,-5.768,-5.7703,-5.7581,-5.756,-5.7503,-5.7394,-5.734,-5.7298,-5.7207,-5.7144,-5.7085,-5.7078,-5.6901,-5.6864,-5.673,-5.6738,-5.6669,-5.6635,-5.6487,-5.638,-5.6288,-5.6246,-5.6031,-5.5947,-5.5738,-5.5664,-5.5427,-5.5262,-5.5062,-5.4833,-5.4659,-5.4422,-5.4184,-5.3933,-5.3678,-5.3471,-5.3343,-5.3148,-5.3075,-5.2888,-5.278,-5.2712,-5.2672,-5.2648,-5.2715,-5.2808,-5.3013,-5.3345,-5.3722,-5.4014,-5.4582,-5.4992,-5.5457,-5.581,-5.617,-5.654,-5.6884,-5.7148,-5.7258,-5.7393,-5.7557,-5.7748,-5.7886,-5.7947,-5.7956,-5.8026,-5.8155,-5.8154,-5.819,-5.8123,-5.8121,-5.8168,-5.8265,-5.8237,-5.8265,-5.8183,-5.829,-5.8276,-5.8278,-5.8258,-5.8233,-5.8226,-5.8277,-5.8237,-5.8226,-5.814,-5.8148,-5.8201,-5.8198,-5.8146,-5.8101,-5.8103,-5.8123,-5.8131,-5.8065,-5.8049,-5.8018,-5.8061,-5.8067,-5.8079,-5.8036,-5.8032,-5.8051,-5.8137,-5.8127,-5.8123,-5.8162,-5.8193,-5.8225,-5.8191,-5.822,-5.8188,-5.8277,-5.8313,-5.8315,-5.8256,-5.8363,-5.8412,-5.8409,-5.8454,-5.8381,-5.8416,-5.8409,-5.8462,-5.8451,-5.8413,-5.8448,-5.8453,-5.8475,-5.848,-5.8497,-5.8457,-5.8484,-5.8518,-5.8547,-5.852,-5.856,-5.8534,-5.8559,-5.8575,-5.8569,-5.8608,-5.8608,-5.8642,-5.8607,-5.8613,-5.8588,-5.8581,-5.8672,-5.8673,-5.8642,-5.8649,-5.8631,-5.8672,-5.8716,-5.8711,-5.872,-5.8733,-5.876,-5.8781,-5.8702,-5.8736,-5.8742,-5.8825,-5.8843,-5.8847,-5.8815,-5.882,-5.8776,-5.8822,-5.8876,-5.8847,-5.8877,-5.8905,-5.8886,-5.8832,-5.8864,-5.8874,-5.8882,-5.8893,-5.8865,-5.8927,-5.8916,-5.895,-5.894,-5.8915,-5.8954,-5.894,-5.8901,-5.8941,-5.8988,-5.9038,-5.9001,-5.9035,-5.9006,-5.9028,-5.9023,-5.9019,-5.9047,-5.9085,-5.9103,-5.9111,-5.9067,-5.9055,-5.9104,-5.9141,-5.9141,-5.9089,-5.9051,-5.9091,-5.9137,-5.9099,-5.9034,-5.8986,-5.8885,-5.8766,-5.8798,-5.8781,-5.8592,-5.8527,-5.8406,-5.8167,-5.8124,-5.8279,-5.8268,-5.8424,-5.8562,-5.8584,-5.8555,-5.8741,-5.9022,-5.9305,-5.9411,-5.9447,-5.945,-5.9509,-5.9562,-5.9488,-5.9468,-5.9452,-5.9516,-5.9537,-5.9577,-5.9551,-5.9576,-5.9615,-5.9693,-5.9954,-6.0405,-6.0557,-5.9851,-5.7825,-5.5286,-5.2742,-5.061,-5.2815,-5.5505,-5.6533,-5.8035,-5.9731,-6.1035,-6.1055,-6.1458,-6.0707,-6.0055,-5.9611,-5.9436,-5.9303,-5.9238,-5.9203,-5.9094,-5.9079,-5.9051,-5.9029,-5.8923,-5.8867,-5.8822,-5.8774,-5.8663,-5.8645,-5.8615,-5.8522,-5.8453,-5.8403,-5.829,-5.829,-5.823,-5.8148,-5.8076,-5.8028,-5.7893,-5.783,-5.7806,-5.768,-5.7488,-5.7386,-5.7353,-5.7092,-5.6959,-5.6739,-5.6585,-5.6484,-5.6267,-5.6009,-5.5755,-5.556,-5.5349,-5.5219,-5.4968,-5.4815,-5.4681,-5.4576,-5.4482,-5.4465,-5.4516,-5.4577,-5.4674,-5.4892,-5.5179,-5.5555,-5.571,-5.6172,-5.6611,-5.7141,-5.7463,-5.781,-5.8206,-5.855,-5.8867,-5.91,-5.9275,-5.9448,-5.965,-5.9766,-5.9808,-5.9878,-5.9919,-5.9993,-6.0048,-6.002,-6.0044,-6.0104,-6.0066,-6.0082,-6.0101,-6.0067,-6.0063,-6.0111,-6.0167,-6.0078,-6.0115,-6.0019,-6.0021,-6.003,-6.0084,-6.0019,-5.9948,-5.9958,-5.9904,-5.9919,-5.9875,-5.9859,-5.983,-5.9856,-5.9831,-5.9817,-5.976,-5.9705,-5.974,-5.9736,-5.9768,-5.9623,-5.9786,-5.9819,-5.9819,-5.9809,-5.9765,-5.9814,-5.9891,-5.9939,-5.9964,-5.9946,-5.9901,-5.9953,-6.0029,-6.0024,-6.0019,-5.9979,-6.0063,-6.0082,-6.0128,-6.0112,-6.0043,-6.0043,-6.0111,-6.0083,-6.0026,-6.0064,-6.0045,-6.0069,-6.0081,-6.0075,-6.0077,-6.0134,-6.0125,-6.0137,-6.012,-6.0088,-6.0106,-6.0128,-6.0169,-6.019,-6.0198,-6.0163,-6.0169,-6.021,-6.0219,-6.0188,-6.0146,-6.021,-6.0152,-6.0137,-6.0152,-6.01,-6.0155,-6.0193,-6.013,-6.0112,-6.013,-6.0132,-6.0189,-6.0151,-6.0129,-6.0042,-6.008,-6.0115,-6.0146,-6.0064,-6.0073,-6.008,-6.0138,-6.0152,-6.0109,-6.0069,-6.006,-6.0077,-6.0081,-6.0083,-6.0032,-6.0066,-6.0116,-6.0154,-6.0063,-6.0058,-6.0013,-6.0093,-6.0054,-6.0102,-6.0034,-6.0033,-6.0052,-6.0019,-6.001,-5.9998,-5.9966,-6.0003,-5.9932,-5.9952,-5.9913,-5.9891,-5.9913,-5.9989,-5.988,-5.9823,-5.9939,-5.98,-5.9812,-5.9719,-5.9666,-5.9644,-5.9546,-5.9569,-5.9583,-5.9503,-5.932,-5.9094,-5.89,-5.8776,-5.8904,-5.8933,-5.8878,-5.8991,-5.9263,-5.9222,-5.9185,-5.9445,-5.9745,-5.9879,-5.9887,-5.9897,-5.9848,-5.9857,-5.9981,-5.9839,-5.9891,-5.9843,-5.9866,-5.9957,-5.9851,-5.9779,-5.9828,-5.9868,-6.0147,-6.0506,-6.0786,-6.0074,-5.8104,-5.5648,-5.2851,-5.0795,-5.2745,-5.5432,-5.5966,-5.7261,-5.9362,-6.0462,-6.0308,-6.1082,-6.0871,-6.0124,-5.9711,-5.9327,-5.913,-5.9051,-5.9012,-5.8993,-5.8869,-5.8856,-5.8781,-5.8685,-5.8615,-5.856,-5.8573,-5.8442,-5.8394,-5.8315,-5.8165,-5.821,-5.8148,-5.8075,-5.7964,-5.7742,-5.7692,-5.7662,-5.747,-5.7388,-5.7181,-5.7124,-5.7036,-5.6777,-5.6636,-5.6434,-5.6299,-5.6243,-5.6004,-5.5796,-5.5555,-5.5276,-5.5036,-5.4783,-5.4464,-5.418,-5.3956,-5.3841,-5.3643,-5.3472,-5.3264,-5.3187,-5.3122,-5.3177,-5.3218,-5.3225,-5.334,-5.3575,-5.3826,-5.4165,-5.4551,-5.4932,-5.5354,-5.5733,-5.6204,-5.6402,-5.6713,-5.69,-5.7205,-5.7312,-5.7505,-5.7684,-5.7765,-5.7826,-5.8001,-5.7885,-5.7953,-5.7939,-5.7992,-5.7925,-5.7961,-5.7957,-5.8044,-5.8022,-5.7993,-5.7915,-5.7904,-5.7947,-5.7992,-5.7944,-5.7909,-5.7808,-5.7739,-5.7799,-5.7761,-5.7749,-5.764,-5.7652,-5.7666,-5.7735,-5.7651,-5.7601,-5.7612,-5.7566,-5.7522,-5.7432,-5.7438,-5.7464,-5.7492,-5.7439,-5.7435,-5.7364,-5.7464,-5.752,-5.7471,-5.742,-5.7388,-5.7339,-5.7346,-5.7458,-5.7425,-5.7495,-5.7334,-5.7399,-5.7477,-5.7527,-5.7431,-5.7375,-5.7395,-5.7486,-5.7436,-5.7453,-5.7448,-5.7475,-5.7464,-5.7462,-5.7423,-5.7407,-5.7373,-5.7301,-5.744,-5.7487,-5.7395,-5.7334,-5.7414,-5.7403,-5.739,-5.7464,-5.7413,-5.744,-5.7385,-5.7358,-5.7397,-5.7313,-5.7352,-5.7427,-5.7354,-5.7324,-5.7289,-5.7377,-5.7437,-5.7423,-5.7307,-5.737,-5.7336,-5.7351,-5.7455,-5.7426,-5.735,-5.7383,-5.7455,-5.7399,-5.7368,-5.7401,-5.742,-5.7396,-5.7339,-5.7271,-5.7154,-5.7053,-5.7078,-5.7092,-5.705,-5.6903,-5.6734,-5.6624,-5.6432,-5.6399,-5.6513,-5.6499,-5.6543,-5.6696,-5.6759,-5.6779,-5.6863,-5.7176,-5.7473,-5.7482,-5.7616,-5.7537,-5.7584,-5.7688,-5.7638,-5.7644,-5.7571,-5.7667,-5.7701,-5.7648,-5.7529,-5.7536,-5.7633,-5.7752,-5.8156,-5.8604,-5.8743,-5.7729,-5.548,-5.4129,-5.1629,-4.9257,-4.9821,-5.2976,-5.4723,-5.5629,-5.8165,-5.8578,-5.8814,-5.9492,-5.8918,-5.8271,-5.7841,-5.7551,-5.7492,-5.7394,-5.7346,-5.7189,-5.7276,-5.719,-5.7168,-5.7012,-5.7074,-5.6957,-5.696,-5.6833,-5.6743,-5.6702,-5.6653,-5.6599,-5.6592,-5.647,-5.6359,-5.629,-5.6201,-5.6078,-5.5938,-5.5823,-5.5717,-5.565,-5.556,-5.5463,-5.532,-5.5182,-5.5004,-5.4872,-5.4664,-5.4378,-5.4248,-5.3983,-5.3747,-5.3506,-5.332,-5.3094,-5.2939,-5.2819,-5.2658,-5.245,-5.2438,-5.2378,-5.2287,-5.2313,-5.2522,-5.2563,-5.2789,-5.3269,-5.3657,-5.4045,-5.4438,-5.4986,-5.5405,-5.5815,-5.6108,-5.6466,-5.6816,-5.7125,-5.7206,-5.7466,-5.7525,-5.7696,-5.7824,-5.799,-5.7939,-5.7873,-5.8024,-5.8105,-5.8147,-5.817,-5.8187,-5.8173,-5.8199,-5.823,-5.8206,-5.8231,-5.8285,-5.8242,-5.8237,-5.8261,-5.8263,-5.8235,-5.8247,-5.8354,-5.8245,-5.8207,-5.8209,-5.8173,-5.8157,-5.8167,-5.8107,-5.818,-5.8219,-5.8134,-5.8077,-5.8132,-5.8063,-5.8093,-5.8084,-5.8002,-5.8047,-5.8076,-5.8047,-5.8084,-5.8117,-5.8099,-5.8151,-5.8215,-5.8222,-5.8272,-5.8307,-5.8294,-5.8332,-5.8331,-5.8353,-5.8476,-5.8417,-5.8404,-5.8461,-5.8451,-5.8512,-5.8496,-5.852,-5.8527,-5.8558,-5.8538,-5.8487,-5.8572,-5.8606,-5.8594,-5.8565,-5.8614,-5.8528,-5.858,-5.865,-5.862,-5.8637,-5.8606,-5.8675,-5.8645,-5.8693,-5.8631,-5.8609,-5.8707,-5.8744,-5.8751,-5.8765,-5.8743,-5.8717,-5.8729,-5.8692,-5.8738,-5.8716,-5.8789,-5.8846,-5.8832,-5.8739,-5.8816,-5.8814,-5.8863,-5.8852,-5.8815,-5.8859,-5.8903,-5.8911,-5.8902,-5.8907,-5.8889,-5.8879,-5.8938,-5.9012,-5.8925,-5.8956,-5.8991,-5.8971,-5.9012,-5.9051,-5.9037,-5.9044,-5.9059,-5.9102,-5.9082,-5.9061,-5.9035,-5.9102,-5.9143,-5.9069,-5.8955,-5.8874,-5.8707,-5.8836,-5.8806,-5.8679,-5.8501,-5.8326,-5.8085,-5.8228,-5.8291,-5.8213,-5.8433,-5.8585,-5.8648,-5.8631,-5.8688,-5.8859,-5.9214,-5.93,-5.9417,-5.9357,-5.9412,-5.95,-5.9478,-5.9417,-5.947,-5.9529,-5.9561,-5.9507,-5.9475,-5.9538,-5.9533,-5.9706,-6.0065,-6.05,-6.0456,-5.958,-5.74,-5.4944,-5.232,-5.04,-5.3134,-5.5379,-5.6419,-5.8302,-6.0426,-6.0797,-6.1187,-6.1129,-6.009,-5.9782,-5.9243,-5.9288,-5.9139,-5.9153,-5.8962,-5.9038,-5.8899,-5.8964,-5.8874,-5.89,-5.8816,-5.8707,-5.8619,-5.8663,-5.8476,-5.8483,-5.84,-5.8459,-5.8252,-5.8199,-5.8017,-5.8027,-5.7978,-5.7881,-5.7645,-5.7637,-5.7566,-5.7553,-5.7458,-5.7296,-5.7082,-5.6899,-5.6821,-5.664,-5.637,-5.6229,-5.5915,-5.5702,-5.5451,-5.526,-5.5034,-5.4765,-5.4656,-5.4477,-5.4319,-5.4274,-5.4192,-5.4063,-5.4043,-5.415,-5.4161,-5.4346,-5.4573,-5.4897,-5.5299,-5.572,-5.6205,-5.6602,-5.7064,-5.7422,-5.784,-5.8134,-5.842,-5.867,-5.8866,-5.8914,-5.9148,-5.9216,-5.941,-5.9398,-5.9461,-5.9475,-5.9575,-5.9627,-5.962,-5.9655,-5.9677,-5.9599,-5.9639,-5.9701,-5.9718,-5.9664,-5.9647,-5.9742,-5.9666,-5.9615,-5.9586,-5.9568,-5.9631,-5.9667,-5.9623,-5.9589,-5.9518,-5.9441,-5.954,-5.9487,-5.9435,-5.9364,-5.9472,-5.9427,-5.9408,-5.9345,-5.938,-5.9338,-5.9414,-5.9372,-5.9349,-5.9357,-5.934,-5.9332,-5.9398,-5.9428,-5.949,-5.9443,-5.9498,-5.952,-5.9569,-5.9537,-5.9573,-5.9604,-5.9621,-5.9606,-5.9646,-5.959,-5.9631,-5.9679,-5.9747,-5.9627,-5.9637,-5.9674,-5.9742,-5.973,-5.9691,-5.9666,-5.9752,-5.981,-5.9731,-5.9735,-5.9813,-5.9794,-5.9865,-5.9894,-5.9789,-5.9801,-5.9853,-5.9852,-5.9875,-5.9877,-5.9887,-5.9911,-5.9933,-5.9907,-5.9835,-5.9846,-5.9847,-5.988,-5.9869,-5.9905,-5.9857,-5.9912,-5.9898,-5.9952,-5.9889,-5.9835,-5.9895,-5.997,-5.9954,-5.9953,-5.993,-5.9868,-5.9909,-6.0005,-6.0013,-5.9981,-5.9946,-6.0031,-6.0029,-6.0024,-5.9947,-5.9982,-6.0019,-6.0051,-6.0045,-6.007,-6.007,-6.0091,-6.011,-6.0052,-6.0101,-6.0132,-6.0044,-6.011,-6.0136,-6.0124,-6.0128,-6.0157,-6.0205,-6.0163,-6.0123,-6.0196,-6.0034,-6.015,-6.0168,-6.011,-6.0149,-6.0247,-6.0229,-6.0171,-6.0133,-5.9957,-5.9884,-5.9745,-5.9859,-5.9819,-5.9557,-5.9274,-5.9178,-5.9179,-5.9346,-5.933,-5.9349,-5.9468,-5.9566,-5.9665,-5.9641,-5.992,-6.0047,-6.0286,-6.0373,-6.0359,-6.0356,-6.0438,-6.0488,-6.0472,-6.0474,-6.042,-6.0484,-6.0462,-6.0444,-6.0518,-6.0441,-6.0549,-6.084,-6.1279,-6.143,-6.0464,-5.84,-5.7119,-5.4836,-5.2084,-5.1986,-5.5483,-5.6878,-5.7686,-6.0692,-6.1767,-6.1876,-6.2122,-6.145,-6.0771,-6.0408,-6.0075,-6.0081,-5.9981,-5.9952,-5.9792,-5.9825,-5.976,-5.9809,-5.9669,-5.9678,-5.9559,-5.9521,-5.9434,-5.9469,-5.9342,-5.9331,-5.9247,-5.9236,-5.9153,-5.9078,-5.893,-5.8881,-5.8823,-5.8784,-5.8622,-5.8585,-5.8514,-5.8433,-5.8364,-5.8289,-5.8063,-5.7834,-5.7669,-5.7537,-5.7345,-5.7051,-5.6811,-5.6662,-5.6451,-5.6157,-5.595,-5.5696,-5.5539,-5.5371,-5.5237,-5.513,-5.5077,-5.5008,-5.5028,-5.5114,-5.5154,-5.5281,-5.5631,-5.5949,-5.6303,-5.673,-5.7213,-5.7637,-5.8086,-5.8455,-5.8796,-5.9127,-5.9438,-5.9662,-5.9896,-6.0019,-6.0065,-6.0171,-6.0354,-6.0399,-6.0476,-6.0471,-6.0451,-6.0589,-6.0613,-6.0602,-6.0595,-6.0625,-6.062,-6.0618,-6.0608,-6.0592,-6.0606,-6.062,-6.0622,-6.0682,-6.0661,-6.0577,-6.0616,-6.0577,-6.0491,-6.0475,-6.0485,-6.0453,-6.0447,-6.0464,-6.0418,-6.0327,-6.0302,-6.0317,-6.0329,-6.0282,-6.0292,-6.0291,-6.0339,-6.0311,-6.0281,-6.0265,-6.0289,-6.0337,-6.0337,-6.041,-6.0353,-6.0341,-6.0508,-6.0519,-6.0489,-6.0482,-6.0535,-6.0526,-6.0632,-6.0561,-6.0605,-6.0662,-6.0697,-6.0714,-6.0713,-6.0688,-6.0699,-6.0683,-6.0738,-6.0758,-6.0792,-6.0744,-6.0754,-6.0835,-6.0837,-6.0807,-6.0796,-6.0832,-6.0898,-6.0896,-6.0841,-6.0897,-6.0934,-6.1,-6.0967,-6.0978,-6.0951,-6.1,-6.1034,-6.1003,-6.0993,-6.1014,-6.1,-6.1033,-6.1085,-6.1091,-6.1081,-6.1084,-6.1107,-6.1132,-6.1102,-6.1149,-6.1119,-6.1152,-6.114,-6.1175,-6.111,-6.1165,-6.1176,-6.1189,-6.1168,-6.1198,-6.1189,-6.119,-6.1222,-6.1233,-6.1228,-6.1155,-6.1217,-6.1275,-6.1222,-6.1213,-6.1207,-6.1229,-6.1235,-6.1231,-6.1276,-6.1224,-6.1288,-6.131,-6.132,-6.1345,-6.1332,-6.1324,-6.1407,-6.1432,-6.1331,-6.1342,-6.1317,-6.145,-6.1396,-6.1399,-6.1342,-6.1367,-6.1436,-6.1413,-6.1385,-6.1353,-6.1343,-6.1255,-6.1213,-6.1113,-6.1081,-6.108,-6.0876,-6.0699,-6.0552,-6.0309,-6.0404,-6.0548,-6.0572,-6.0654,-6.0706,-6.0751,-6.079,-6.0978,-6.1124,-6.1389,-6.1483,-6.1494,-6.1535,-6.1496,-6.1474,-6.1485,-6.1506,-6.1511,-6.1508,-6.1467,-6.148,-6.1417,-6.1453,-6.1501,-6.1665,-6.204,-6.2476,-6.2142,-6.1542,-5.9338,-5.6794,-5.4209,-5.2465,-5.5258,-5.7356,-5.8455,-6.02,-6.2341,-6.254,-6.2929,-6.2796,-6.1912,-6.1546,-6.1044,-6.1062,-6.0777,-6.0876,-6.0765,-6.0851,-6.073,-6.0709,-6.0503,-6.0504,-6.0347,-6.0366,-6.0244,-6.0179,-6.0021,-6.0133,-6.0026,-5.9973,-5.9753,-5.9672,-5.9599,-5.9477,-5.9274,-5.9246,-5.9113,-5.9083,-5.8966,-5.8851,-5.875,-5.8648,-5.8495,-5.8329,-5.8138,-5.7932,-5.7668,-5.7449,-5.7274,-5.6997,-5.6717,-5.6497,-5.6274,-5.6111,-5.5894,-5.5613,-5.5459,-5.5413,-5.5383,-5.5165,-5.5124,-5.517,-5.5275,-5.542,-5.559,-5.59,-5.614,-5.6568,-5.7086,-5.7391,-5.782,-5.8224,-5.8643,-5.8884,-5.9265,-5.946,-5.9652,-5.9706,-5.9876,-6.0066,-6.0123,-6.0171,-6.0221,-6.0233,-6.0287,-6.025,-6.0179,-6.0192,-6.0247,-6.018,-6.02,-6.0166,-6.0112,-6.0061,-6.0201,-6.0145,-6.0002,-6.0004,-6.0041,-6.0064,-6.0071,-5.9848,-5.9939,-5.9936,-5.9884,-5.9824,-5.9776,-5.975,-5.9738,-5.9754,-5.9794,-5.9708,-5.957,-5.9664,-5.965,-5.9601,-5.9505,-5.9521,-5.9524,-5.9562,-5.9566,-5.9517,-5.95,-5.9416,-5.9441,-5.9505,-5.9516,-5.9472,-5.9435,-5.9455,-5.9409,-5.9509,-5.9473,-5.9462,-5.9492,-5.945,-5.9467,-5.94,-5.9408,-5.9461,-5.9491,-5.9465,-5.9458,-5.9364,-5.938,-5.9358,-5.9333,-5.9267,-5.923,-5.9245,-5.9261,-5.9218,-5.9198,-5.9134,-5.9093,-5.9114,-5.9101,-5.9097,-5.9077,-5.9028,-5.9077,-5.9066,-5.8993,-5.8941,-5.8922,-5.8981,-5.895,-5.8943,-5.8874,-5.891,-5.8919,-5.8863,-5.8874,-5.8861,-5.8862,-5.8898,-5.8815,-5.8867,-5.8795,-5.8821,-5.8824,-5.8834,-5.8822,-5.8755,-5.8786,-5.8866,-5.8837,-5.8793,-5.8724,-5.8605,-5.8531,-5.8499,-5.8361,-5.8376,-5.8322,-5.8204,-5.8149,-5.7863,-5.775,-5.7808,-5.7877,-5.7883,-5.792,-5.8111,-5.82,-5.8175,-5.8377,-5.8603,-5.8781,-5.8867,-5.8885,-5.8878,-5.8937,-5.8929,-5.8866,-5.8845,-5.8914,-5.8917,-5.8798,-5.8794,-5.8862,-5.8837,-5.8873,-5.8962,-5.9252,-5.9734,-5.9856,-5.8786,-5.6386,-5.3851,-5.1044,-4.9966,-5.2856,-5.4927,-5.6328,-5.8216,-5.9429,-5.9301,-5.9994,-6.0353,-5.9786,-5.9328,-5.88,-5.8585,-5.8382,-5.8393,-5.8231,-5.8382,-5.8241,-5.8213,-5.8043,-5.8091,-5.8019,-5.8006,-5.7858,-5.78,-5.7802,-5.7821,-5.7646,-5.7636,-5.75,-5.7537,-5.7401,-5.7395,-5.7202,-5.7097,-5.6911,-5.6898,-5.68,-5.6728,-5.657,-5.6417,-5.6254,-5.6132,-5.594,-5.5681,-5.5513,-5.5352,-5.5172,-5.5092,-5.4845,-5.4559,-5.4386,-5.4241,-5.4037,-5.3791,-5.3683,-5.3587,-5.3517,-5.3463,-5.3436,-5.3511,-5.3637,-5.3863,-5.4163,-5.4455,-5.4897,-5.5279,-5.5831,-5.6053,-5.6479,-5.6837,-5.7185,-5.7625,-5.787,-5.8153,-5.8299,-5.854,-5.8684,-5.8784,-5.8915,-5.8932,-5.8923,-5.9017,-5.9123,-5.9069,-5.912,-5.9112,-5.9168,-5.9228,-5.924,-5.92,-5.9221,-5.9183,-5.9257,-5.9241,-5.9193,-5.914,-5.9198,-5.9183,-5.9243,-5.9162,-5.9106,-5.9044,-5.9136,-5.9106,-5.9079,-5.9078,-5.9095,-5.9101,-5.9077,-5.9066,-5.9058,-5.8998,-5.9056,-5.9029,-5.9055,-5.9071,-5.9063,-5.9067,-5.9109,-5.9104,-5.9103,-5.9117,-5.9253
