-3.086,-3.0729,-3.0662,-3.0752,-3.0688,-3.0695,-3.0605,-3.0591,-3.0474,-3.0658,-3.0579,-3.0636,-3.0507,-3.0632,-3.0464,-3.0483,-3.0447,-3.0391,-3.0373,-3.0441,-3.0225,-3.0169,-3.016,-3.0129,-2.9977,-2.9914,-2.9801,-2.9745,-2.9525,-2.938,-2.9367,-2.9221,-2.9195,-2.9011,-2.8707,-2.856,-2.8394,-2.8193,-2.8101,-2.7816,-2.7609,-2.7492,-2.7292,-2.7109,-2.6887,-2.6713,-2.6602,-2.6461,-2.6368,-2.6293,-2.621,-2.614,-2.6068,-2.6137,-2.6149,-2.6202,-2.6356,-2.6655,-2.6963,-2.7301,-2.7701,-2.8074,-2.8411,-2.881,-2.92,-2.9515,-2.9827,-2.9903,-3.0112,-3.0319,-3.0337,-3.0415,-3.0541,-3.0596,-3.0723,-3.0768,-3.071,-3.0664,-3.0651,-3.0578,-3.072,-3.0654,-3.0675,-3.0665,-3.0498,-3.0495,-3.0497,-3.0387,-3.0384,-3.031,-3.0288,-3.0205,-3.0158,-3.0234,-3.0168,-3.0217,-3.0136,-2.998,-3.0117,-3.0083,-3.0105,-3.0035,-3.003,-3.0035,-3.0075,-3.0088,-3.0235,-3.0075,-3.0203,-3.0184,-3.0136,-3.023,-3.017,-3.0171,-3.0266,-3.0206,-3.0252,-3.0289,-3.0308,-3.0345,-3.0307,-3.0253,-3.0355,-3.0345,-3.0288,-3.0319,-3.0424,-3.0439,-3.0311,-3.0364,-3.0312,-3.0314,-3.0435,-3.0507,-3.0298,-3.0336,-3.0288,-3.0314,-3.0354,-3.0389,-3.045,-3.0307,-3.0313,-3.0395,-3.0322,-3.043,-3.0496,-3.0398,-3.047,-3.0433,-3.0381,-3.0451,-3.0455,-3.0383,-3.0333,-3.0436,-3.0353,-3.0337,-3.0452,-3.0311,-3.0207,-3.0238,-3.0242,-3.0268,-3.0247,-3.0075,-2.9917,-2.9832,-2.9684,-2.9763,-2.9837,-3.0002,-2.9987,-3.0047,-3.0096,-3.017,-3.0369,-3.0442,-3.0454,-3.0526,-3.0365,-3.0415,-3.0354,-3.034,-3.0414,-3.0403,-3.0468,-3.0415,-3.045,-3.0439,-3.0415,-3.0541,-3.005,-2.8578,-2.6644,-2.4771,-2.2917,-2.2803,-2.554,-3.031,-3.4903,-3.4831,-3.3511,-3.2717,-3.1994,-3.1245,-3.0707,-3.0502,-3.0341,-3.0217,-3.0199,-3.0206,-3.0127,-3.0015,-2.9997,-3.0037,-2.9976,-3.0057,-3.0011,-2.9982,-2.9953,-2.9838,-2.9714,-2.9761,-2.9679,-2.972,-2.9677,-2.9763,-2.9665,-2.9613,-2.9482,-2.9572,-2.9465,-2.9417,-2.9439,-2.946,-2.9312,-2.9271,-2.9209,-2.9194,-2.9044,-2.899,-2.8818,-2.8608,-2.8666,-2.8477,-2.8241,-2.8089,-2.7997,-2.7765,-2.7621,-2.7349,-2.7223,-2.6972,-2.6704,-2.6517,-2.6349,-2.6173,-2.6083,-2.5959,-2.5762,-2.5713,-2.5656,-2.5682,-2.5563,-2.5593,-2.5644,-2.5841,-2.6226,-2.6532,-2.6696,-2.7212,-2.7621,-2.7939,-2.8404,-2.8856,-2.9242,-2.9349,-2.9725,-2.9917,-3.0032,-3.0236,-3.0296,-3.0433,-3.0518,-3.0531,-3.0653,-3.0708,-3.0651,-3.071,-3.0784,-3.0684,-3.0709,-3.0699,-3.0606,-3.0655,-3.0675,-3.0584,-3.0536,-3.0537,-3.048,-3.0461,-3.036,-3.0419,-3.0215,-3.0212,-3.0325,-3.0198,-3.0187,-3.0178,-3.0131,-3.018,-3.0058,-3.0124,-3.0155,-3.0097,-3.0135,-2.9984,-3.0075,-3.0098,-3.0164,-3.0107,-3.017,-3.006,-3.0038,-3.0009,-3.0075,-3.0191,-3.0214,-3.0211,-3.0172,-3.015,-3.0062,-3.0186,-3.0236,-3.0216,-3.0256,-3.0246,-3.0164,-3.0242,-3.0201,-3.0204,-3.0143,-3.0188,-3.0197,-3.0074,-3.0146,-3.0098,-3.0218,-3.0174,-3.0269,-3.0133,-3.0281,-3.001,-3.0062,-3.0026,-3.0077,-3.016,-3.0258,-3.0245,-3.0048,-3.001,-3.0201,-3.0124,-3.0046,-2.9944,-2.9733,-3.0013,-3.0146,-3.0186,-3.0015,-2.9958,-2.9743,-2.9808,-2.9931,-3.0047,-2.9831,-2.9845,-2.951,-2.938,-2.9267,-2.9316,-2.948,-2.9206,-2.9266,-2.9204,-2.9103,-2.9085,-2.8617,-2.8649,-2.8735,-2.8686,-2.87,-2.8641,-2.8921,-2.9091,-2.908,-2.9009,-2.9195,-2.9409,-2.9395,-2.9516,-2.9723,-2.9656,-2.9583,-2.9647,-2.9706,-2.9876,-2.9821,-2.9684,-2.9417,-2.9397,-2.9571,-2.9799,-2.9982,-2.9883,-2.8075,-2.575,-2.391,-2.2067,-2.2861,-2.6154,-3.158,-3.5911,-3.5059,-3.3244,-3.2369,-3.1337,-3.0523,-3.0139,-2.9894,-2.9677,-3.0045,-3.0159,-3.0142,-2.9854,-2.9772,-2.9814,-2.9959,-2.9913,-2.9863,-2.9944,-2.99,-2.982,-2.9575,-2.942,-2.9791,-2.9913,-2.9923,-2.9844,-2.9753,-2.9477,-2.9496,-2.9425,-2.955,-2.9494,-2.9407,-2.9201,-2.9102,-2.9129,-2.9211,-2.9275,-2.9336,-2.8912,-2.8665,-2.8548,-2.8454,-2.8533,-2.848,-2.8414,-2.8074,-2.7665,-2.7488,-2.7275,-2.7108,-2.6829,-2.6596,-2.6752,-2.6592,-2.6134,-2.5634,-2.5474,-2.5368,-2.558,-2.542,-2.5161,-2.4998,-2.5063,-2.4971,-2.5217,-2.5583,-2.5929,-2.6094,-2.6472,-2.6524,-2.703,-2.7609,-2.7946,-2.8245,-2.8843,-2.9319,-2.969,-2.9701,-2.9758,-2.9794,-3.0036,-3.0206,-3.0323,-3.0239,-3.0124,-3.0541,-3.0585,-3.0616,-3.0488,-3.04,-3.0565,-3.0676,-3.0692,-3.0738,-3.0665,-3.0395,-3.0349,-3.0337,-3.0166,-3.0214,-3.0344,-3.0119,-3.0193,-3.0188,-3.0422,-3.0065,-2.972,-2.9998,-3.0424,-3.0547,-3.0348,-3.0006,-2.9902,-3.002,-3.0039,-3.0165,-3.0257,-3.0036,-2.9948,-2.9925,-3,-3.0155,-2.9899,-3.0079,-3.0097,-3.0137,-3.0044,-2.9976,-2.9977,-3.0121,-3.0145,-3.0254,-3.0075,-3.0083,-3.0219,-3.0183,-3.0169,-3.0223,-3.0393,-3.0641,-3.0257,-3.0041,-2.9802,-2.9977,-3.0201,-3.0266,-3.0334,-3.0106,-3.0516,-3.0533,-3.0532,-3.0223,-3.0157,-3.0331,-3.0391,-3.0467,-3.0212,-3.0206,-3.0169,-2.9851,-3.0023,-3.019,-3.0342,-3.0433,-3.0486,-3.0388,-3.0388,-3.0318,-3.0225,-3.0278,-3.0258,-3.0333,-3.0479,-3.0375,-3.0369,-3.0265,-3.0305,-3.0461,-3.0409,-3.0491,-3.0342,-3.0269,-3.012,-2.9918,-2.9683,-2.9747,-2.9997,-3.0258,-3.0242,-3.0099,-3,-2.9751,-2.9487,-2.9729,-3.0012,-3.0041,-2.9957,-3,-3.0181,-3.0334,-3.0428,-3.0186,-2.9998,-3.0221,-3.0133,-3.046,-3.0445,-3.0683,-3.0673,-3.071,-3.0526,-3.0371,-3.0351,-3.0402,-3.0458,-2.9854,-2.8132,-2.6044,-2.4335,-2.265,-2.3082,-2.5744,-3.0982,-3.5545,-3.5804,-3.4123,-3.2694,-3.1842,-3.1048,-3.0676,-3.0332,-3.0031,-2.9808,-2.995,-3.0038,-2.997,-2.9914,-2.9717,-2.9741,-2.956,-2.9683,-2.9628,-2.9167,-2.8586,-2.8446,-2.8635,-2.9263,-2.9747,-2.9911,-2.9873,-2.9508,-2.9246,-2.9161,-2.9325,-2.8786,-2.8679,-2.8598,-2.8474,-2.8556,-2.8374,-2.785,-2.784,-2.7938,-2.7929,-2.7767,-2.7619,-2.7796,-2.775,-2.7279,-2.7096,-2.7117,-2.6862,-2.6632,-2.6202,-2.6024,-2.6011,-2.5778,-2.5466,-2.5336,-2.5081,-2.4941,-2.4828,-2.4571,-2.4574,-2.4611,-2.4514,-2.4383,-2.4377,-2.4432,-2.4248,-2.439,-2.4599,-2.4847,-2.5213,-2.6001,-2.6432,-2.706,-2.7456,-2.7929,-2.83,-2.8635,-2.895,-2.9112,-2.9541,-2.9687,-2.9694,-2.9664,-2.9743,-2.988,-3.0177,-3.0133,-3.0372,-3.0522,-3.0269,-3.0526,-3.0629,-3.062,-3.0301,-3.0605,-3.0828,-3.0749,-3.0613,-3.0561,-3.0638,-3.0631,-3.0482,-3.031,-3.0276,-3.0499,-3.07,-3.0672,-3.0594,-3.0364,-3.0446,-3.0701,-3.056,-3.0424,-3.0454,-3.0299,-3.0075,-3.0148,-3.0575,-3.075,-3.0874,-3.0885,-3.1106,-3.0661,-3.0446,-3.08,-3.0855,-3.0808,-3.0649,-3.0856,-3.0904,-3.0858,-3.0506,-3.0491,-3.0784,-3.0937,-3.0696,-3.0702,-3.0833,-3.0527,-3.0474,-3.0629,-3.079,-3.1028,-3.0843,-3.0667,-3.0651,-3.0882,-3.0919,-3.0767,-3.057,-3.0582,-3.0792,-3.085,-3.0985,-3.0777,-3.1006,-3.0998,-3.1015,-3.0766,-3.0883,-3.0944,-3.0813,-3.084,-3.0909,-3.0697,-3.0429,-3.0426,-3.0202,-3.0696,-3.1074,-3.1069,-3.0983,-3.1066,-3.1204,-3.121,-3.1218,-3.1475,-3.1491,-3.1564,-3.155,-3.1563,-3.1705,-3.1711,-3.1913,-3.1855,-3.1833,-3.1827,-3.1795,-3.1894,-3.1991,-3.2058,-3.1618,-3.0285,-2.9143,-2.7317,-2.5253,-2.4907,-2.7927,-3.2581,-3.6597,-3.6728,-3.5132,-3.425,-3.3725,-3.3489,-3.2648,-3.2319,-3.2214,-3.2167,-3.1969,-3.1904,-3.1789,-3.1883,-3.169,-3.1721,-3.1569,-3.1668,-3.1543,-3.1535,-3.1425,-3.1466,-3.1383,-3.1314,-3.1194,-3.1207,-3.1208,-3.1183,-3.1137,-3.1024,-3.0896,-3.0805,-3.0738,-3.0603,-3.044,-3.0478,-3.0462,-3.0267,-3.0185,-3.0069,-2.9858,-2.9822,-2.974,-2.9577,-2.9442,-2.9225,-2.9078,-2.8839,-2.8607,-2.8453,-2.8375,-2.8019,-2.7834,-2.7628,-2.7398,-2.7137,-2.7036,-2.6878,-2.679,-2.6668,-2.6596,-2.6458,-2.6424,-2.6464,-2.6502,-2.6494,-2.6734,-2.6886,-2.7275,-2.7601,-2.805,-2.851,-2.9019,-2.9461,-2.9983,-3.0322,-3.0652,-3.0957,-3.1175,-3.1453,-3.1555,-3.155,-3.1627,-3.1837,-3.1963,-3.2023,-3.203,-3.2058,-3.1967,-3.2043,-3.1947,-3.1812,-3.1995,-3.1889,-3.2003,-3.1805,-3.1666,-3.1673,-3.1666,-3.1523,-3.1459,-3.146,-3.1441,-3.1368,-3.1229,-3.1217,-3.1338,-3.1137,-3.1116,-3.1107,-3.1039,-3.1074,-3.101,-3.0984,-3.0997,-3.1084,-3.0951,-3.091,-3.0907,-3.0952,-3.0948,-3.089,-3.0852,-3.0806,-3.0743,-3.0778,-3.0716,-3.0707,-3.063,-3.0504,-3.046,-3.0631,-3.0638,-3.0461,-3.0415,-3.0544,-3.041,-3.0364,-3.0305,-3.0273,-3.0182,-3.0101,-3.0109,-2.9968,-3.001,-2.9914,-2.9852,-2.9632,-2.9549,-2.9408,-2.9487,-2.9601,-2.9529,-2.9681,-2.9684,-2.9825,-2.9977,-3.0123,-3.0148,-3.0151,-3.0114,-3.011,-3.0246,-3.0324,-3.029,-3.0226,-3.0128,-3.0062,-3.0156,-3.0121,-3.0227,-3.0282,-3.0238,-3.0032,-2.9118,-2.735,-2.5329,-2.3053,-2.2199,-2.4198,-2.6369,-3.1311,-3.5969,-3.5077,-3.3526,-3.2492,-3.1498,-3.0753,-3.0341,-3.0175,-3.0036,-3.0067,-3.0095,-2.9983,-2.9877,-2.9798,-2.9857,-2.9827,-2.9789,-2.9729,-2.9738,-2.9825,-2.9757,-2.9611,-2.9585,-2.954,-2.9514,-2.9447,-2.9379,-2.9388,-2.9316,-2.9306,-2.9239,-2.9233,-2.9182,-2.9033,-2.909,-2.9022,-2.8934,-2.8919,-2.8834,-2.8711,-2.85,-2.8528,-2.8288,-2.8192,-2.8067,-2.7944,-2.768,-2.7352,-2.7148,-2.6947,-2.6693,-2.6425,-2.6119,-2.5916,-2.569,-2.5406,-2.5248,-2.5068,-2.4917,-2.5045,-2.4827,-2.4686,-2.4614,-2.457,-2.4691,-2.4881,-2.5025,-2.5334,-2.5896,-2.6398,-2.6837,-2.7324,-2.768,-2.8181,-2.8485,-2.8868,-2.9153,-2.9294,-2.9338,-2.9572,-2.9701,-2.9715,-2.981,-2.9926,-3.0004,-2.9975,-3.0065,-3.0211,-3.0187,-3.0252,-3.0326,-3.0343,-3.0252,-3.0313,-3.0237,-3.0312,-3.0136,-3.0224,-3.0316,-3.0183,-3.0229,-3.0158,-3.0115,-3.004,-3.0057,-2.9948,-2.9979,-2.9913,-2.9864,-2.9838,-2.9797,-2.9705,-2.9749,-2.9785,-2.9651,-2.9687,-2.9677,-2.9719,-2.9647,-2.9609,-2.9682,-2.9708,-2.9689,-2.9635,-2.9697,-2.9663,-2.97,-2.9716,-2.9741,-2.9779,-2.9827,-2.9854,-2.9661,-2.9738,-2.9695,-2.9669,-2.9696,-2.9782,-2.984,-2.966,-2.9653,-2.9667,-2.9688,-2.9619,-2.9747,-2.9594,-2.9673,-2.9594,-2.9596,-2.962,-2.9664,-2.9615,-2.9644,-2.9591,-2.9586,-2.9608,-2.9626,-2.9615,-2.9637,-2.9586,-2.9632,-2.9729,-2.9648,-2.9612,-2.9682,-2.9515,-2.9523,-2.9553,-2.9624,-2.9612,-2.9527,-2.9641,-2.969,-2.9631,-2.9641,-2.9629,-2.9617,-2.9563,-2.9594,-2.9601,-2.9633,-2.9715,-2.96,-2.9626,-2.9582,-2.9472,-2.9418,-2.9397,-2.9416,-2.9355,-2.9281,-2.9193,-2.8975,-2.8853,-2.909,-2.9179,-2.9119,-2.9147,-2.9211,-2.9188,-2.9439,-2.9437,-2.9581,-2.9651,-2.9553,-2.9503,-2.9549,-2.9571,-2.9509,-2.9468,-2.9408,-2.9484,-2.9418,-2.9484,-2.9524,-2.9576,-2.9386,-2.8253,-2.7284,-2.5515,-2.3545,-2.1812,-2.2159,-2.5175,-3.0288,-3.4918,-3.4166,-3.2376,-3.1565,-3.0531,-2.9801,-2.9604,-2.9385,-2.9276,-2.9341,-2.925,-2.9096,-2.9072,-2.9026,-2.9051,-2.8984,-2.8984,-2.902,-2.8978,-2.888,-2.8888,-2.8721,-2.8721,-2.8829,-2.8744,-2.869,-2.8652,-2.8607,-2.8631,-2.8505,-2.8465,-2.8481,-2.844,-2.8417,-2.8363,-2.8333,-2.8205,-2.8117,-2.8096,-2.793,-2.7892,-2.7754,-2.7689,-2.7524,-2.736,-2.7112,-2.6993,-2.6873,-2.6617,-2.6536,-2.6231,-2.5889,-2.5742,-2.5617,-2.5422,-2.5262,-2.4982,-2.4804,-2.4715,-2.4547,-2.4436,-2.4373,-2.4304,-2.4176,-2.4089,-2.4089,-2.4219,-2.4454,-2.4799,-2.5115,-2.554,-2.5883,-2.6306,-2.656,-2.6972,-2.7365,-2.7699,-2.8116,-2.8346,-2.8625,-2.8725,-2.8873,-2.9018,-2.9151,-2.9148,-2.9122,-2.9288,-2.9412,-2.9394,-2.9543,-2.9452,-2.9449,-2.9436,-2.9423,-2.9489,-2.9378,-2.9443,-2.941,-2.9365,-2.9284,-2.9327,-2.938,-2.9303,-2.9339,-2.9264,-2.9248,-2.9206,-2.917,-2.9033,-2.9066,-2.91,-2.8969,-2.9076,-2.906,-2.906,-2.9112,-2.9058,-2.9068,-2.8976,-2.9088,-2.9033,-2.9088,-2.9081,-2.9014,-2.9048,-2.9137,-2.9104,-2.9205,-2.9081,-2.9129,-2.9179,-2.919,-2.9184,-2.9145,-2.9194,-2.9267,-2.9231,-2.9151,-2.9344,-2.9223,-2.9265,-2.919,-2.9263,-2.9193,-2.9177,-2.9136,-2.9306,-2.92,-2.9193,-2.9201,-2.9209,-2.9239,-2.9164,-2.9165,-2.9202,-2.923,-2.9152,-2.9197,-2.9252,-2.9242,-2.9173,-2.922,-2.9151,-2.9345,-2.9265,-2.9309,-2.9239,-2.9253,-2.9189,-2.9227,-2.9241,-2.9208,-2.9151,-2.9115,-2.9272,-2.9239,-2.9245,-2.9153,-2.9192,-2.9186,-2.9265,-2.9217,-2.9177,-2.9118,-2.9112,-2.9167,-2.926,-2.919,-2.9241,-2.913,-2.9196,-2.9203,-2.9191,-2.9174,-2.9182,-2.9156,-2.9191,-2.917,-2.9116,-2.9137,-2.9097,-2.9097,-2.9013,-2.9007,-2.8906,-2.8938,-2.8875,-2.8758,-2.8628,-2.8447,-2.8556,-2.8759,-2.8729,-2.8684,-2.8774,-2.8844,-2.895,-2.9036,-2.9063,-2.9148,-2.9206,-2.9162,-2.9132,-2.9154,-2.9142,-2.9185,-2.918,-2.9071,-2.9126,-2.9128,-2.912,-2.9279,-2.9145,-2.8917,-2.7651,-2.5752,-2.397,-2.1992,-2.1752,-2.3759,-2.8519,-3.3446,-3.4489,-3.2617,-3.1456,-3.0691,-2.9776,-2.9304,-2.9168,-2.9052,-2.9037,-2.9039,-2.8904,-2.8988,-2.8802,-2.8776,-2.8787,-2.8831,-2.8811,-2.8843,-2.8734,-2.872,-2.8659,-2.8619,-2.8588,-2.8642,-2.8584,-2.861,-2.8507,-2.8544,-2.8538,-2.85,-2.8343,-2.8341,-2.8356,-2.8353,-2.8163,-2.8136,-2.8101,-2.8025,-2.791,-2.7849,-2.7761,-2.7591,-2.7447,-2.7344,-2.7216,-2.7009,-2.697,-2.672,-2.6481,-2.6246,-2.6,-2.5933,-2.5755,-2.5601,-2.5359,-2.5112,-2.504,-2.5007,-2.4931,-2.4779,-2.4599,-2.4534,-2.4493,-2.4429,-2.4389,-2.4515,-2.4768,-2.4816,-2.5109,-2.556,-2.6076,-2.6303,-2.662,-2.7074,-2.7504,-2.7895,-2.8293,-2.8639,-2.8908,-2.9182,-2.9302,-2.9613,-2.96,-2.9643,-2.9737,-2.9873,-2.9992,-3.0071,-3.0199,-3.0189,-3.0263,-3.027,-3.0285,-3.0323,-3.0306,-3.0117,-3.0141,-3.0317,-3.0203,-3.0229,-3.0176,-3.0143,-3.0246,-3.0135,-3.014,-3.0141,-3.0125,-3.0097,-3.0191,-2.9975,-3.0057,-3.0078,-3.0132,-3.0209,-3.0158,-3.0176,-3.0215,-3.0206,-3.0163,-3.0277,-3.0289,-3.0315,-3.0336,-3.0284,-3.0414,-3.04,-3.0419,-3.043,-3.0445,-3.0451,-3.0485,-3.0509,-3.0527,-3.059,-3.0486,-3.0528,-3.0622,-3.0572,-3.0674,-3.0668,-3.0642,-3.0687,-3.0738,-3.0711,-3.0706,-3.0673,-3.0809,-3.0766,-3.0646,-3.064,-3.0748,-3.079,-3.0807,-3.0813,-3.0817,-3.0763,-3.0756,-3.0816,-3.078,-3.0802,-3.0806,-3.083,-3.0751,-3.0686,-3.0722,-3.0778,-3.0813,-3.0798,-3.0693,-3.0718,-3.064,-3.0664,-3.0845,-3.0819,-3.076,-3.0832,-3.0685,-3.0668,-3.0818,-3.0755,-3.0675,-3.066,-3.0683,-3.0716,-3.079,-3.0659,-3.062,-3.067,-3.0502,-3.0408,-3.0175,-3.023,-3.016,-3.0063,-3.0241,-3.0343,-3.0267,-3.033,-3.0266,-3.041,-3.0454,-3.0533,-3.0585,-3.062,-3.0625,-3.0531,-3.0567,-3.056,-3.0649,-3.0441,-3.0375,-3.044,-3.049,-3.0445,-3.0618,-3.0536,-3.0184,-2.8878,-2.6971,-2.5439,-2.3818,-2.3525,-2.5728,-3.0044,-3.3979,-3.4387,-3.2982,-3.2299,-3.1724,-3.1037,-3.0595,-3.0355,-3.0139,-3.0029,-2.9881,-2.9759,-2.9748,-2.9587,-2.9511,-2.9444,-2.9481,-2.9416,-2.9346,-2.9291,-2.9317,-2.9264,-2.9231,-2.9191,-2.9101,-2.9025,-2.901,-2.9034,-2.8993,-2.8869,-2.8896,-2.8827,-2.8736,-2.8644,-2.8549,-2.8409,-2.8395,-2.8401,-2.8308,-2.8165,-2.8004,-2.7933,-2.7849,-2.7788,-2.7607,-2.7424,-2.7345,-2.7162,-2.6974,-2.6789,-2.6667,-2.6497,-2.6239,-2.6134,-2.5877,-2.575,-2.5577,-2.538,-2.5328,-2.5205,-2.5059,-2.4989,-2.4901,-2.4975,-2.488,-2.4963,-2.4962,-2.506,-2.5136,-2.5528,-2.5756,-2.6217,-2.6644,-2.7036,-2.7455,-2.7873,-2.8201,-2.8531,-2.875,-2.8998,-2.9263,-2.9372,-2.9616,-2.9691,-2.9864,-2.9925,-2.9982,-3.0055,-3.0109,-3.0104,-3.0072,-3.0066,-3.008,-3.0106,-3.0051,-2.9979,-2.9931,-2.9961,-2.9873,-2.9828,-2.9787,-2.985,-2.9785,-2.9754,-2.9748,-2.973,-2.974,-2.9667,-2.9684,-2.9563,-2.959,-2.9676,-2.9709,-2.9697,-2.9687,-2.9717,-2.9767,-2.9727,-2.9804,-2.9789,-2.9858,-2.9886,-2.994,-2.9921,-2.9916,-2.9997,-2.9938,-2.9889,-2.9994,-2.9955,-2.9932,-2.996,-3.0043,-3.006,-2.9976,-2.9997,-3.0077,-3.0073,-3.0085,-3.0101,-3.0098,-3.0006,-3.0023,-3.0055,-3.0064,-3.0073,-3.0038,-3.0114,-3.0094,-3.0057,-3.0021,-3.0038,-3.0131,-3.0094,-3.0039,-3.0139,-3.0126,-3.0125,-3.0106,-3.0079,-3.0205,-3.0143,-3.0163,-3.0168,-3.018,-3.0109,-3.0124,-3.01,-3.0026,-2.9933,-2.9872,-2.9983,-2.9861,-2.9753,-2.9606,-2.9556,-2.9472,-2.9391,-2.9523,-2.9727,-2.9695,-2.971,-2.9813,-2.987,-2.9939,-3.0041,-3.0088,-3.0118,-3.0108,-3.0061,-3.0098,-3.0109,-3.0081,-3,-2.9969,-2.9998,-2.996,-2.9927,-3.0009,-2.9977,-2.9719,-2.8166,-2.6301,-2.45,-2.2464,-2.2385,-2.332,-2.7155,-3.23,-3.5538,-3.4281,-3.2581,-3.1967,-3.0823,-3.0193,-2.9796,-2.975,-2.9467,-2.9607,-2.9514,-2.9484,-2.926,-2.9304,-2.9189,-2.9224,-2.9217,-2.9246,-2.9018,-2.9086,-2.8932,-2.8869,-2.881,-2.8783,-2.8779,-2.8794,-2.8708,-2.8738,-2.8539,-2.8525,-2.855,-2.8501,-2.8439,-2.837,-2.8244,-2.8318,-2.8228,-2.8177,-2.8103,-2.8066,-2.7857,-2.7799,-2.7677,-2.7504,-2.7438,-2.7188,-2.7051,-2.6899,-2.6751,-2.6412,-2.6203,-2.5945,-2.5719,-2.5394,-2.521,-2.5076,-2.4811,-2.4756,-2.4613,-2.4425,-2.4329,-2.4304,-2.4245,-2.4296,-2.4261,-2.423,-2.4399,-2.4711,-2.5053,-2.55,-2.5932,-2.6394,-2.6833,-2.7251,-2.7684,-2.7911,-2.8368,-2.8396,-2.8744,-2.893,-2.9037,-2.9095,-2.9251,-2.9269,-2.9404,-2.9403,-2.9465,-2.9461,-2.9619,-2.9565,-2.9541,-2.9594,-2.9556,-2.9529,-2.9491,-2.9444,-2.9421,-2.9386,-2.9439,-2.9419,-2.9487,-2.9326,-2.933,-2.9306,-2.9241,-2.9228,-2.9216,-2.921,-2.9147,-2.9103,-2.9104,-2.9032,-2.893,-2.892,-2.8973,-2.8928,-2.8895,-2.883,-2.8919,-2.8899,-2.8955,-2.8946,-2.8914,-2.8963,-2.8938,-2.8989,-2.8923,-2.8971,-2.8971,-2.8986,-2.9062,-2.8935,-2.8971,-2.899,-2.894,-2.893,-2.8959,-2.8992,-2.8963,-2.8909,-2.8911,-2.8884,-2.8956,-2.8898,-2.8898,-2.888,-2.8841,-2.8839,-2.8814,-2.8891,-2.893,-2.8837,-2.8897,-2.8924,-2.8877,-2.8846,-2.8864,-2.8958,-2.887,-2.8984,-2.8898,-2.8898,-2.8942,-2.8968,-2.8927,-2.8875,-2.8915,-2.8845,-2.8912,-2.8903,-2.8921,-2.8912,-2.8891,-2.8903,-2.8795,-2.8875,-2.8756,-2.8742,-2.8662,-2.8643,-2.8573,-2.8624,-2.839,-2.8424,-2.8149,-2.8049,-2.8244,-2.8402,-2.8407,-2.8551,-2.8631,-2.868,-2.8785,-2.8827,-2.8873,-2.887,-2.8981,-2.8982,-2.8921,-2.8943,-2.8975,-2.9027,-2.8987,-2.8863,-2.8951,-2.8924,-2.8947,-2.9029,-2.8709,-2.7554,-2.5683,-2.3619,-2.165,-2.1093,-2.3191,-2.8034,-3.3033,-3.4725,-3.3635,-3.1908,-3.101,-3.0066,-2.9233,-2.9089,-2.88,-2.8744,-2.8578,-2.8768,-2.8594,-2.8457,-2.851,-2.842,-2.8478,-2.8496,-2.8433,-2.8415,-2.8393,-2.8405,-2.8371,-2.8372,-2.82,-2.8281,-2.8184,-2.8093,-2.8154,-2.8044,-2.8043,-2.7952,-2.7906,-2.7823,-2.7699,-2.7713,-2.772,-2.7709,-2.7469,-2.7414,-2.7389,-2.731,-2.7219,-2.7002,-2.6947,-2.6828,-2.6722,-2.6419,-2.6225,-2.6082,-2.5873,-2.5626,-2.539,-2.5145,-2.4944,-2.4657,-2.4536,-2.4366,-2.425,-2.4043,-2.3858,-2.3819,-2.3736,-2.3663,-2.3514,-2.3624,-2.3595,-2.3777,-2.3991,-2.4218,-2.4722,-2.5073,-2.5509,-2.6049,-2.6439,-2.6833,-2.7306,-2.7576,-2.7927,-2.8171,-2.8329,-2.8372,-2.8557,-2.8689,-2.8757,-2.8824,-2.8839,-2.8836,-2.8971,-2.8993,-2.9033,-2.9058,-2.9122,-2.9056,-2.8994,-2.8977,-2.8985,-2.8976,-2.8881,-2.8945,-2.8909,-2.8904,-2.8906,-2.8824,-2.8796,-2.8728,-2.8699,-2.8731,-2.8675,-2.8645,-2.8552,-2.8495,-2.8594,-2.8534,-2.8627,-2.8664,-2.8653,-2.8597,-2.86,-2.8522,-2.8644,-2.8516,-2.8632,-2.8631,-2.8638,-2.8666,-2.8659,-2.8714,-2.8767,-2.8775,-2.8834,-2.8755,-2.8732,-2.883,-2.885,-2.8811,-2.8819,-2.8865,-2.8859,-2.8864,-2.8816,-2.8833,-2.8829,-2.8868,-2.8893,-2.8859,-2.8962,-2.8906,-2.892,-2.8906,-2.8912,-2.9,-2.9014,-2.89,-2.892,-2.9011,-2.9007,-2.9065,-2.9083,-2.9123,-2.9043,-2.9096,-2.9027,-2.9031,-2.9054,-2.9151,-2.9122,-2.9186,-2.922,-2.9251,-2.9245,-2.9224,-2.919,-2.9187,-2.9184,-2.9252,-2.9308,-2.9396,-2.9372,-2.9367,-2.9369,-2.94,-2.9333,-2.9417,-2.9401,-2.9412,-2.9396,-2.9421,-2.938,-2.9334,-2.9173,-2.9168,-2.9107,-2.9145,-2.8949,-2.8994,-2.8831,-2.8821,-2.9054,-2.918,-2.926,-2.9265,-2.9342,-2.9308,-2.9494,-2.9634,-2.9638,-2.9733,-2.9698,-2.9619,-2.966,-2.9652,-2.9699,-2.9672,-2.9641,-2.9733,-2.9711,-2.9751,-2.971,-2.9678,-2.9062,-2.8209,-2.6446,-2.4549,-2.3019,-2.2445,-2.4441,-2.8662,-3.3344,-3.4621,-3.3225,-3.2237,-3.1609,-3.0751,-3.0335,-2.9867,-2.9732,-2.9713,-2.971,-2.9575,-2.9646,-2.9562,-2.9508,-2.9516,-2.9524,-2.9473,-2.9518,-2.94,-2.945,-2.9393,-2.9367,-2.9408,-2.9401,-2.9475,-2.9444,-2.9384,-2.9341,-2.9207,-2.9086,-2.9068,-2.9122,-2.899,-2.899,-2.8861,-2.8822,-2.8756,-2.8647,-2.8554,-2.8399,-2.8281,-2.8193,-2.8119,-2.7982,-2.7792,-2.7691,-2.7517,-2.7289,-2.7135,-2.6981,-2.6796,-2.6654,-2.6418,-2.6304,-2.6064,-2.5757,-2.5681,-2.5508,-2.5431,-2.5365,-2.5275,-2.5195,-2.5136,-2.5067,-2.5058,-2.5167,-2.5246,-2.5363,-2.5584,-2.587,-2.6289,-2.6478,-2.689,-2.7268,-2.767,-2.8094,-2.8407,-2.8697,-2.8936,-2.9108,-2.9207,-2.9438,-2.9531,-2.9656,-2.9673,-2.9697,-2.9761,-2.9787,-2.9922,-2.9822,-2.9848,-2.9862,-2.9836,-2.9805,-2.9816,-2.9725,-2.9658,-2.9611,-2.9657,-2.9607,-2.9554,-2.9542,-2.9411,-2.9273,-2.9359,-2.9245,-2.9265,-2.9193,-2.9173,-2.9182,-2.9169,-2.9064,-2.911,-2.9083,-2.9029,-2.9051,-2.9069,-2.9086,-2.9071,-2.9134,-2.9101,-2.9122,-2.9132,-2.8954,-2.9004,-2.8978,-2.9118,-2.9035,-2.9004,-2.9014,-2.8982,-2.8983,-2.8999,-2.896,-2.8867,-2.8919,-2.8916,-2.8866,-2.8914,-2.891,-2.894,-2.8904,-2.8856,-2.8908,-2.894,-2.8929,-2.8819,-2.8894,-2.8929,-2.891,-2.8912,-2.8926,-2.8856,-2.8913,-2.8883,-2.8906,-2.8988,-2.8948,-2.8944,-2.8967,-2.8909,-2.8836,-2.8828,-2.8727,-2.8666,-2.8689,-2.8602,-2.8535,-2.8467,-2.8324,-2.8357,-2.8449,-2.8519,-2.8597,-2.8655,-2.8753,-2.8741,-2.8952,-2.9037,-2.9116,-2.9013,-2.9026,-2.9046,-2.9108,-2.9071,-2.9022,-2.9012,-2.8966,-2.8991,-2.8967,-2.8985,-2.903,-2.906,-2.8985,-2.818,-2.6375,-2.4376,-2.2547,-2.1472,-2.293,-2.6904,-3.1357,-3.4001,-3.2781,-3.1701,-3.1219,-3.0312,-2.9703,-2.9178,-2.9043,-2.8883,-2.894,-2.8762,-2.8869,-2.8677,-2.8721,-2.8582,-2.8617,-2.8607,-2.8552,-2.8575,-2.8515,-2.8472,-2.847,-2.8384,-2.8415,-2.8258,-2.8293,-2.8289,-2.82,-2.8176,-2.8198,-2.8099,-2.8227,-2.8091,-2.7992,-2.7919,-2.7985,-2.7933,-2.7764,-2.7692,-2.765,-2.756,-2.7448,-2.741,-2.7232,-2.713,-2.6985,-2.681,-2.6618,-2.632,-2.6194,-2.6023,-2.5904,-2.5659,-2.5412,-2.5259,-2.4918,-2.4799,-2.4622,-2.4474,-2.4326,-2.4315,-2.4138,-2.4122,-2.4034,-2.4056,-2.4123,-2.4318,-2.4554,-2.4833,-2.5082,-2.5636,-2.6074,-2.6479,-2.6897,-2.7249,-2.7679,-2.8023,-2.818,-2.837,-2.8498,-2.867,-2.8848,-2.8989,-2.9145,-2.9153,-2.9209,-2.9193,-2.926,-2.9357,-2.9336,-2.926,-2.926,-2.9282,-2.9344,-2.9319,-2.9325,-2.9302,-2.9168,-2.9165,-2.9113,-2.9063,-2.8976,-2.8955,-2.8785,-2.8863,-2.8803,-2.8836,-2.8803,-2.8793,-2.8765,-2.8797,-2.8696,-2.8667,-2.8727,-2.8736,-2.8716,-2.8774,-2.8837,-2.8735,-2.8743,-2.8773,-2.8799,-2.8811,-2.8865,-2.8762,-2.8831,-2.8814,-2.882,-2.8808,-2.8805,-2.8836,-2.8832,-2.8841,-2.8811,-2.8886,-2.8898,-2.8888,-2.8863,-2.8839,-2.8835,-2.8778,-2.8698,-2.879,-2.8788,-2.8824,-2.8764,-2.8773,-2.8744,-2.8775,-2.8794,-2.8752,-2.8792,-2.8844,-2.8834,-2.8789,-2.8781,-2.8828,-2.8729,-2.8829,-2.8772,-2.8836,-2.8813,-2.8798,-2.8787,-2.8838,-2.8806,-2.862,-2.8561,-2.8543,-2.8554,-2.8594,-2.8434,-2.8189,-2.8143,-2.8012,-2.8143,-2.8341,-2.8334,-2.8383,-2.8431,-2.8495,-2.8697,-2.8757,-2.8899,-2.8919,-2.8879,-2.8903,-2.8902,-2.891,-2.8903,-2.888,-2.8861,-2.8755,-2.8722,-2.8758,-2.8795,-2.8913,-2.8909,-2.8381,-2.682,-2.4851,-2.3035,-2.1062,-2.1534,-2.4659,-2.9851,-3.4435,-3.3831,-3.1954,-3.1447,-3.0759,-2.9715,-2.9094,-2.8885,-2.8615,-2.864,-2.8654,-2.8597,-2.8565,-2.856,-2.848,-2.8488,-2.8322,-2.841,-2.837,-2.8325,-2.8231,-2.822,-2.8178,-2.8189,-2.8068,-2.81,-2.8005,-2.7885,-2.7932,-2.7971,-2.7868,-2.7901,-2.78,-2.7786,-2.772,-2.7597,-2.749,-2.7444,-2.741,-2.7387,-2.7207,-2.7123,-2.7119,-2.6972,-2.6773,-2.6616,-2.6479,-2.6292,-2.615,-2.5953,-2.5714,-2.5445,-2.522,-2.4992,-2.479,-2.457,-2.4313,-2.4163,-2.3986,-2.389,-2.3788,-2.377,-2.3627,-2.3554,-2.3532,-2.3541,-2.3618,-2.383,-2.399,-2.4407,-2.4844,-2.5229,-2.5813,-2.619,-2.6579,-2.6949,-2.7343,-2.7674,-2.7855,-2.8071,-2.8258,-2.8256,-2.8442,-2.85,-2.8533,-2.8649,-2.8712,-2.8728,-2.8757,-2.8804,-2.889,-2.882,-2.8939,-2.8854,-2.8943,-2.8882,-2.8889,-2.875,-2.8765,-2.8763,-2.8696,-2.8653,-2.8709,-2.8665,-2.8606,-2.8585,-2.8504,-2.8527,-2.8579,-2.8478,-2.8418,-2.8479,-2.8373,-2.836,-2.8502,-2.85,-2.8411,-2.8458,-2.8456,-2.8417,-2.8434,-2.8416,-2.8482,-2.8492,-2.8577,-2.845,-2.8541,-2.852,-2.8519,-2.8494,-2.8523,-2.8538,-2.8543,-2.8651,-2.865,-2.8593,-2.8562,-2.8577,-2.8691,-2.8651,-2.8615,-2.8642,-2.8579,-2.8603,-2.87,-2.8635,-2.8644,-2.8622,-2.8612,-2.8638,-2.8615,-2.8655,-2.8632,-2.8672,-2.8608,-2.8636,-2.861,-2.8651,-2.8682,-2.8653,-2.8597,-2.8647,-2.8693,-2.8707,-2.8483,-2.8363,-2.8408,-2.8358,-2.8463,-2.8345,-2.8225,-2.8174,-2.7847,-2.7784,-2.7956,-2.8119,-2.8276,-2.8254,-2.8233,-2.8421,-2.8551,-2.8594,-2.8601,-2.8657,-2.8667,-2.869,-2.8694,-2.8693,-2.8712,-2.8627,-2.8594,-2.865,-2.8604,-2.8648,-2.8715,-2.8794,-2.8787,-2.7764,-2.5871,-2.3901,-2.1853,-2.08,-2.2544,-2.4485,-2.9556,-3.448,-3.3913,-3.2135,-3.0985,-3.0093,-2.9237,-2.8927,-2.8744,-2.8628,-2.8496,-2.8617,-2.8464,-2.8485,-2.8363,-2.8389,-2.8351,-2.8379,-2.8293,-2.8349,-2.8253,-2.8277,-2.8209,-2.8149,-2.8118,-2.8124,-2.8028,-2.8055,-2.7995,-2.7994,-2.7914,-2.7912,-2.787,-2.7756,-2.776,-2.7696,-2.7645,-2.7591,-2.7447,-2.7388,-2.7328,-2.7086,-2.7032,-2.6956,-2.6753,-2.6685,-2.6547,-2.6302,-2.6165,-2.6004,-2.5777,-2.5548,-2.5288,-2.4969,-2.4834,-2.4629,-2.4427,-2.4257,-2.4079,-2.3969,-2.3821,-2.3718,-2.3686,-2.3668,-2.3586,-2.3598,-2.3526,-2.3768,-2.3957,-2.4287,-2.4679,-2.5068,-2.5571,-2.6041,-2.6576,-2.7015,-2.7483,-2.7668,-2.7945,-2.7988,-2.8206,-2.8424,-2.8725,-2.8763,-2.8961,-2.8942,-2.9125,-2.9143,-2.9172,-2.9195,-2.9334,-2.9405,-2.9462,-2.9484,-2.9448,-2.9434,-2.9429,-2.9475,-2.9431,-2.9452,-2.9513,-2.9482,-2.9423,-2.9425,-2.9372,-2.9385,-2.9487,-2.9436,-2.9397,-2.9394,-2.9394,-2.9389,-2.9243,-2.9318,-2.9417,-2.9443,-2.9412,-2.9425,-2.9387,-2.9442,-2.9489,-2.9498,-2.9549,-2.9574,-2.965,-2.96,-2.9598,-2.9712,-2.9696,-2.9697,-2.9732,-2.9777,-2.9803,-2.989,-2.9801,-2.99,-2.9935,-2.9921,-2.9988,-2.9919,-3.0034,-2.9951,-2.9951,-2.9955,-3.0002,-3.0047,-3.0004,-3.0004,-3.0001,-2.9992,-3.0024,-3.0021,-3.0084,-3.0045,-3.0106,-3.0008,-2.9992,-2.9989,-2.9963,-2.9997,-3.002,-3.0069,-3.0066,-2.9968,-2.9742,-2.9791,-2.9854,-2.9878,-2.9717,-2.9612,-2.9576,-2.9414,-2.9237,-2.9357,-2.9643,-2.9736,-2.9835,-2.9805,-2.9799,-2.9938,-2.999,-3.0084,-3.0252,-3.0282,-3.0207,-3.0263,-3.0298,-3.029,-3.0279,-3.0338,-3.0233,-3.0327,-3.0318,-3.0251,-3.0433,-3.0276,-2.9534,-2.783,-2.6771,-2.5122,-2.3304,-2.3145,-2.5777,-3.0515,-3.4764,-3.4864,-3.33,-3.2604,-3.2019,-3.1577,-3.0811,-3.0665,-3.0217,-3.014,-3.0126,-3.0097,-2.9991,-3.0012,-2.9953,-3.0018,-2.9934,-2.9917,-2.9753,-2.9804,-2.9776,-2.978,-2.9798,-2.9867,-2.9738,-2.9705,-2.9693,-2.9575,-2.9468,-2.9584,-2.9435,-2.9387,-2.9397,-2.9235,-2.9195,-2.9119,-2.9048,-2.8944,-2.88,-2.867,-2.8498,-2.8469,-2.8383,-2.8168,-2.8137,-2.7962,-2.773,-2.7467,-2.7373,-2.7098,-2.6936,-2.6616,-2.6282,-2.6184,-2.6122,-2.5939,-2.5712,-2.5583,-2.5334,-2.5261,-2.5125,-2.5006,-2.4899,-2.4896,-2.4982,-2.4881,-2.5001,-2.5118,-2.538,-2.5731,-2.5985,-2.6452,-2.6893,-2.7208,-2.7422,-2.7789,-2.82,-2.8447,-2.8693,-2.8826,-2.8975,-2.9255,-2.9485,-2.944,-2.9553,-2.9508,-2.9539,-2.9561,-2.9507,-2.9545,-2.9576,-2.9663,-2.9691,-2.9655,-2.9615,-2.9493,-2.9501,-2.9414,-2.9348,-2.9361,-2.9324,-2.9371,-2.9268,-2.9286,-2.9321,-2.9257,-2.9337,-2.9286,-2.928,-2.9334,-2.9373,-2.9275,-2.9302,-2.926,-2.9262,-2.9332,-2.9331,-2.9388,-2.946,-2.9448,-2.9452,-2.9386,-2.9397,-2.9494,-2.9566,-2.9554,-2.9604,-2.9633,-2.9573,-2.9562,-2.9581,-2.9581,-2.9662,-2.9681,-2.9658,-2.9796,-2.9699,-2.9777,-2.9753,-2.9692,-2.9722,-2.9687,-2.9431,-2.9278,-2.9324,-2.9387,-2.9353,-2.9217,-2.8928,-2.8914,-2.8865,-2.8833,-2.9149,-2.924,-2.9353,-2.9406,-2.9406,-2.9553,-2.9655,-2.9716,-2.9884,-2.9868,-2.9883,-2.9872,-2.9932,-2.9954,-2.9995,-3.0025,-2.9979,-2.9939,-3.0047,-3.0023,-3.0012,-3.009,-3.0089,-2.9733,-2.8417,-2.6344,-2.4398,-2.2405,-2.2223,-2.5167,-3.0172,-3.4802,-3.4949,-3.3439,-3.2529,-3.1691,-3.0837,-3.0384,-3.0177,-2.9852,-2.9814,-2.9754,-2.9787,-2.9635,-2.9676,-2.9684,-2.9642,-2.9547,-2.9508,-2.9497,-2.9439,-2.9344,-2.9322,-2.9247,-2.9344,-2.9196,-2.9171,-2.9154,-2.908,-2.8977,-2.9038,-2.8944,-2.8899,-2.8941,-2.885,-2.881,-2.8794,-2.8704,-2.8689,-2.8644,-2.8476,-2.8329,-2.8295,-2.8167,-2.8039,-2.7808,-2.778,-2.7535,-2.728,-2.7084,-2.6944,-2.677,-2.6529,-2.6283,-2.5974,-2.5826,-2.5627,-2.5489,-2.5313,-2.511,-2.4993,-2.4883,-2.4758,-2.4797,-2.4664,-2.4817,-2.4915,-2.5195,-2.5385,-2.5836,-2.6319,-2.6779,-2.6962,-2.7437,-2.7874,-2.8217,-2.8335,-2.8818,-2.9115,-2.9256,-2.9394,-2.9533,-2.9724,-2.9809,-2.9819,-2.9923,-2.987,-2.9934,-2.9929,-3.0024,-3.0122,-3.0081,-3.0148,-3.012,-3.0013,-2.9985,-3.0036,-3.0099,-3.0026,-2.9973,-2.996,-2.9832,-2.9903,-2.9851,-2.9851,-2.9773,-2.9792,-2.9912,-2.9813,-2.9701,-2.9734,-2.9689,-2.9703,-2.9652,-2.9682,-2.9698,-2.9676,-2.9602,-2.9682,-2.9618,-2.958,-2.9614,-2.9675,-2.961,-2.9657,-2.9706,-2.9607,-2.9546,-2.9684,-2.9704,-2.9513,-2.9581,-2.9591,-2.9553,-2.962,-2.9725,-2.969,-2.9646,-2.9661,-2.9689,-2.9681,-2.9744,-2.9578,-2.961,-2.9659,-2.95,-2.959,-2.9598,-2.9656,-2.9726,-2.9718,-2.9621,-2.9512,-2.9574,-2.9637,-2.9653,-2.9565,-2.9581,-2.9618,-2.9632,-2.9592,-2.9594,-2.9524,-2.937,-2.9283,-2.9196,-2.9219,-2.9247,-2.9228,-2.8908,-2.8792,-2.8661,-2.8658,-2.8868,-2.9072,-2.9251,-2.9237,-2.9243,-2.9358,-2.9455,-2.9644,-2.9663,-2.9647,-2.972,-2.9679,-2.9703,-2.9779,-2.9756,-2.9669,-2.9772,-2.9722,-2.9747,-2.969,-2.9789,-2.9847,-2.9973,-2.9448,-2.7921,-2.601,-2.3898,-2.1863,-2.213,-2.5381,-3.055,-3.5361,-3.4821,-3.2948,-3.2042,-3.107,-3.0416,-3.0054,-2.9834,-2.9665,-2.9663,-2.9621,-2.9646,-2.9589,-2.9576,-2.9511,-2.9543,-2.9406,-2.9446,-2.9365,-2.9363,-2.9414,-2.9288,-2.9126,-2.9187,-2.9148,-2.9147,-2.9115,-2.9029,-2.8973,-2.9049,-2.8959,-2.889,-2.886,-2.8738,-2.8744,-2.8654,-2.8577,-2.8594,-2.842,-2.8268,-2.8125,-2.8037,-2.8014,-2.7813,-2.7609,-2.7367,-2.7235,-2.7069,-2.6935,-2.6733,-2.6509,-2.6289,-2.6063,-2.5747,-2.5536,-2.5307,-2.5166,-2.5012,-2.4799,-2.4656,-2.4573,-2.4427,-2.4246,-2.4311,-2.4237,-2.4267,-2.4446,-2.4707,-2.4848,-2.5312,-2.5726,-2.6089,-2.6591,-2.7082,-2.7523,-2.7877,-2.8234,-2.8511,-2.8743,-2.8912,-2.8996,-2.9181,-2.9346,-2.9261,-2.9374,-2.943,-2.9529,-2.9519,-2.9568,-2.9502,-2.9576,-2.9549,-2.9705,-2.9565,-2.9656,-2.9627,-2.9603,-2.9529,-2.9504,-2.9489,-2.9496,-2.9474,-2.9425,-2.9444,-2.9395,-2.9396,-2.9389,-2.93,-2.936,-2.9328,-2.9279,-2.9296,-2.9248,-2.9251,-2.9297,-2.9238,-2.9108,-2.9155,-2.9276,-2.9253,-2.921,-2.9174,-2.9168,-2.9238,-2.9151,-2.9203,-2.9279,-2.9321,-2.9301,-2.9325,-2.9249,-2.9278,-2.9179,-2.9243,-2.9306,-2.9332,-2.9356,-2.9274,-2.9287,-2.9324,-2.9277,-2.9226,-2.9269,-2.9218,-2.9211,-2.9214,-2.9282,-2.931,-2.9256,-2.9314,-2.9252,-2.9325,-2.9255,-2.9376,-2.9233,-2.926,-2.9254,-2.9209,-2.9192,-2.929,-2.9337,-2.9313,-2.9378,-2.9337,-2.9277,-2.9319,-2.9342,-2.9399,-2.9333,-2.9358,-2.9383,-2.936,-2.9344,-2.9374,-2.936,-2.944,-2.9325,-2.9355,-2.9323,-2.9327,-2.931,-2.935,-2.9256,-2.9285,-2.9333,-2.9312,-2.9292,-2.9305,-2.9296,-2.9303,-2.9346,-2.9346,-2.9474,-2.9412,-2.9499,-2.9361,-2.9385,-2.9399,-2.9279,-2.9263,-2.94,-2.9312,-2.9339,-2.9378,-2.9338,-2.939,-2.935,-2.9337,-2.9359,-2.9287,-2.925,-2.9294,-2.913,-2.9135,-2.9132,-2.9023,-2.8866,-2.8776,-2.8732,-2.8701,-2.878,-2.8839,-2.8867,-2.8994,-2.914,-2.9109,-2.9198,-2.9226,-2.9311,-2.9338,-2.9413,-2.9375,-2.9421,-2.9398,-2.9346,-2.9326,-2.926,-2.9254,-2.932,-2.9283,-2.9412,-2.9393,-2.8958,-2.7212,-2.5334,-2.348,-2.1693,-2.1577,-2.2918,-2.6907,-3.1741,-3.4544,-3.3259,-3.1784,-3.1298,-3.0142,-2.9761,-2.953,-2.9328,-2.92,-2.9297,-2.9228,-2.924,-2.9075,-2.9094,-2.91,-2.9193,-2.9114,-2.9136,-2.9036,-2.9056,-2.9052,-2.9088,-2.8954,-2.8992,-2.894,-2.8979,-2.8902,-2.8847,-2.8843,-2.8827,-2.884,-2.884,-2.8694,-2.8665,-2.8611,-2.8545,-2.8468,-2.8535,-2.8347,-2.8278,-2.8198,-2.8092,-2.8006,-2.7785,-2.7747,-2.7541,-2.7379,-2.729,-2.7045,-2.6768,-2.6686,-2.6498,-2.6359,-2.6109,-2.5906,-2.5731,-2.5719,-2.5457,-2.545,-2.5216,-2.5115,-2.5119,-2.5099,-2.503,-2.4989,-2.5116,-2.5099,-2.5313,-2.554,-2.5741,-2.6137,-2.6683,-2.7044,-2.7382,-2.7795,-2.8166,-2.8433,-2.8654,-2.9042,-2.9264,-2.9447,-2.9574,-2.9731,-2.9766,-2.9923,-2.9914,-3.0063,-3.0028,-3.0153,-3.0021,-3.0147,-3.0186,-3.0092,-3.0166,-3.0185,-3.0225,-3.0286,-3.0206,-3.0205,-3.025,-3.0112,-3.0066,-3.0192,-3.0198,-3.0138,-3.004,-3.0168,-3.0147,-3.0071,-3.0082,-3.0014,-3.0014,-3.0088,-3.0141,-3.007,-3.0054,-3.0117,-3.0135,-3.0189,-3.0227,-3.0209,-3.0286,-3.0348,-3.0368,-3.0361,-3.0403,-3.0451,-3.0484,-3.0528,-3.0503,-3.048,-3.0391,-3.0436,-3.0475,-3.057,-3.0612,-3.0659,-3.0688,-3.0609,-3.0557,-3.0508,-3.0564,-3.0621,-3.0616,-3.0535,-3.056,-3.0605,-3.059,-3.0537,-3.054,-3.0629,-3.0569,-3.0602,-3.0652,-3.0611,-3.0775,-3.0777,-3.0654,-3.0538,-3.0623,-3.0685,-3.0669,-3.0584,-3.0537,-3.0619,-3.0548,-3.064,-3.0651,-3.0677,-3.0638,-3.0662,-3.0617,-3.0647,-3.0622,-3.0694,-3.0591,-3.0577,-3.0627,-3.0614,-3.0502,-3.056,-3.0672,-3.0533,-3.0551,-3.052,-3.0598,-3.0441,-3.0552,-3.0589,-3.0516,-3.0533,-3.0593,-3.0424,-3.0337,-3.0361,-3.0385,-3.0301,-3.0279,-3.0196,-2.9949,-3.0034,-2.9903,-2.9888,-3.0112,-3.0169,-3.0075,-3.0161,-3.024,-3.0307,-3.0477,-3.0538,-3.0546,-3.0519,-3.0496,-3.047,-3.0535,-3.0476,-3.0509,-3.0414,-3.0381,-3.043,-3.0459,-3.0387,-3.0613,-3.0515,-3,-2.8384,-2.6644,-2.4893,-2.329,-2.3686,-2.6625,-3.1047,-3.4811,-3.3977,-3.2765,-3.2475,-3.1835,-3.1287,-3.0721,-3.038,-3.0162,-3.0017,-2.9935,-2.996,-2.9808,-2.9769,-2.9722,-2.9594,-2.9581,-2.9537,-2.9493,-2.9563,-2.9625,-2.9446,-2.9441,-2.9464,-2.9356,-2.9222,-2.9304,-2.9162,-2.913,-2.9168,-2.9156,-2.9166,-2.9021,-2.8888,-2.8832,-2.8804,-2.8759,-2.8698,-2.8529,-2.8467,-2.8308,-2.8267,-2.8146,-2.8132,-2.7961,-2.7838,-2.7601,-2.7506,-2.7326,-2.7163,-2.6912,-2.6701,-2.6452,-2.6333,-2.6191,-2.6003,-2.5791,-2.5641,-2.5299,-2.5426,-2.5303,-2.5253,-2.5113,-2.5095,-2.5113,-2.5037,-2.5048,-2.5099,-2.5334,-2.5694,-2.5982,-2.6331,-2.6661,-2.7142,-2.7472,-2.7953,-2.8334,-2.8611,-2.8822,-2.9169,-2.9313,-2.9486,-2.9767,-2.9766,-2.9801,-2.9907,-2.9934,-3.003,-2.9959,-3.0036,-3.0061,-3.0121,-3.0043,-2.996,-2.9989,-2.9995,-2.9983,-3.002,-2.9912,-2.9779,-2.9828,-2.9842,-2.9891,-2.9927,-2.9821,-2.979,-2.9806,-2.9666,-2.9674,-2.9748,-2.9798,-2.9759,-2.9797,-2.9716,-2.9753,-2.9699,-2.9783,-2.9895,-2.9865,-2.9907,-2.9783,-2.9913,-2.9929,-2.9862,-2.9995,-2.9984,-2.9967,-2.9971,-3.0028,-3.0021,-3.0037,-2.9977,-3.0012,-2.9971,-3.0057,-3.0098,-3.0086,-2.9951,-3.0006,-3.0059,-3.0045,-3.009,-3.0027,-2.9964,-2.9917,-2.9948,-2.9983,-3.0046,-3.0079,-3.0049,-3.0072,-3.0034,-3.0094,-3.0031,-3.0071,-3,-3.0103,-3.005,-2.9987,-3.0075,-3.0144,-3.0091,-3.0093,-3.0067,-2.9957,-3.0022,-3.0113,-3.0081,-3.0037,-3.0047,-3.0094,-3.0023,-2.9993,-2.998,-3.0104,-3.0091,-3.0061,-2.9929,-3.002,-3.0111,-3.0156,-3.0022,-2.9838,-2.9764,-2.9795,-2.991,-2.9892,-2.9838,-2.9735,-2.9576,-2.9382,-2.936,-2.9495,-2.9658,-2.973,-2.9749,-2.9767,-2.9756,-2.9912,-3.0005,-3.0042,-3.0208,-3.0117,-3.0089,-3.0057,-3.0159,-2.9997,-2.9998,-2.9942,-2.9985,-3.0086,-2.9985,-3.0111,-3.0076,-2.9697,-2.8321,-2.6451,-2.4456,-2.2446,-2.22,-2.4362,-2.9235,-3.1682,-3.4989,-3.4258,-3.2665,-3.2246,-3.0983,-3.0587,-3.0046,-2.9978,-2.9727,-2.9964,-2.9647,-2.9852,-2.9595,-2.9786,-2.9526,-2.9743,-2.949,-2.9627,-2.9554,-2.9645,-2.9491,-2.9536,-2.9328,-2.9454,-2.9217,-2.929,-2.9274,-2.9258,-2.9206,-2.9267,-2.9153,-2.9183,-2.9064,-2.894,-2.9,-2.8982,-2.8841,-2.8831,-2.8684,-2.8625,-2.8626,-2.8461,-2.8313,-2.8221,-2.8074,-2.7978,-2.7795,-2.759,-2.7249,-2.7077,-2.6992,-2.6753,-2.6454,-2.6144,-2.6035,-2.5874,-2.5787,-2.5473,-2.538,-2.535,-2.5265,-2.5117,-2.5083,-2.4895,-2.4869,-2.4926,-2.5153,-2.5346,-2.558,-2.5885,-2.6472,-2.6807,-2.7225,-2.7569,-2.8061,-2.8537,-2.8835,-2.8992,-2.9233,-2.9299,-2.9495,-2.9584,-2.9863,-2.982,-2.9885,-2.9903,-3.008,-3.0015,-3.0187,-3.0096,-3.0191,-3.0272,-3.0159,-3.0111,-3.0101,-3.0103,-3.0128,-3.0037,-3.0022,-3.0069,-3.0034,-2.9941,-2.9851,-2.984,-2.9892,-2.976,-2.9744,-2.9818,-2.9613,-2.9643,-2.9693,-2.9649,-2.9632,-2.9482,-2.9509,-2.9611,-2.9528,-2.9577,-2.9586,-2.9587,-2.9642,-2.9613,-2.9563,-2.9541,-2.9599,-2.972,-2.9684,-2.9647,-2.9708,-2.9634,-2.9685,-2.9747,-2.9846,-2.9717,-2.9662,-2.9791,-2.9826,-2.9816,-2.9818,-2.9819,-2.9801,-2.9804,-2.9847,-2.9763,-2.9843,-2.9809,-2.9769,-2.9804,-2.9831,-2.992,-2.985,-2.98,-2.9768,-2.9854,-2.987,-2.9851,-2.9799,-2.9835,-2.9776,-2.9766,-2.9758,-2.9715,-2.9754,-2.9856,-2.9855,-2.981,-2.9877,-2.984,-2.9798,-2.9855,-2.9861,-2.9903,-2.9811,-2.9805,-2.9859,-2.9805,-2.9824,-2.9887,-2.9841,-2.9878,-2.9761,-2.9828,-2.9767,-2.9775,-2.9842,-2.978,-2.9775,-2.9792,-2.9813,-2.9597,-2.943,-2.9509,-2.949,-2.9486,-2.9354,-2.9173,-2.911,-2.8907,-2.8908,-2.8995,-2.9178,-2.9307,-2.9331,-2.9402,-2.9422,-2.9648,-2.9658,-2.9678,-2.9761,-2.9761,-2.9766,-2.9748,-2.972,-2.9637,-2.9623,-2.9721,-2.975,-2.9782,-2.9792,-2.9805,-2.9885,-2.9704,-2.8791,-2.7078,-2.4964,-2.2895,-2.2019,-2.3391,-2.7529,-3.2777,-3.548,-3.3787,-3.2304,-3.1734,-3.0516,-3.0134,-2.9872,-2.9693,-2.962,-2.9677,-2.9526,-2.9481,-2.9444,-2.9497,-2.9469,-2.9489,-2.9419,-2.9362,-2.9311,-2.9311,-2.9188,-2.9179,-2.9128,-2.917,-2.9171,-2.9169,-2.8997,-2.8986,-2.8999,-2.9025,-2.8953,-2.8956,-2.8832,-2.8799,-2.8745,-2.865,-2.8553,-2.8597,-2.8489,-2.8321,-2.8236,-2.8092,-2.8024,-2.7956,-2.776,-2.7574,-2.7386,-2.725,-2.7121,-2.6945,-2.6749,-2.6451,-2.6222,-2.5986,-2.5817,-2.5564,-2.535,-2.5167,-2.5136,-2.4927,-2.4841,-2.4643,-2.4609,-2.4557,-2.4627,-2.4704,-2.4732,-2.4877,-2.517,-2.5387,-2.567,-2.6207,-2.6678,-2.7051,-2.7426,-2.7846,-2.826,-2.8569,-2.8838,-2.8993,-2.9095,-2.9273,-2.9416,-2.9555,-2.9691,-2.972,-2.9792,-2.9832,-2.9918,-2.9891,-2.9913,-2.9925,-3.0033,-3.0008,-3.001,-2.9979,-2.9938,-2.9922,-2.9908,-2.9877,-2.9863,-2.9765,-2.977,-2.9785,-2.9796,-2.9719,-2.9731,-2.9742,-2.9597,-2.9653,-2.9583,-2.9578,-2.9623,-2.9624,-2.9634,-2.9648,-2.9704,-2.9687,-2.9724,-2.9784,-2.9724,-2.9743,-2.9832,-2.9932,-2.9844,-2.9814,-2.9915,-3.0042,-3.0044,-3.0033,-2.9937,-2.9992,-3.0125,-3.0072,-3.0161,-3.012,-3.0196,-3.0263,-3.0232,-3.0223,-3.0252,-3.0401,-3.0416,-3.045,-3.0361,-3.037,-3.0386,-3.0392,-3.0485,-3.0512,-3.0472,-3.0474,-3.0409,-3.0438,-3.0572,-3.0577,-3.0488,-3.0558,-3.059,-3.0616,-3.063,-3.0509,-3.055,-3.0668,-3.0628,-3.066,-3.0629,-3.0655,-3.0723,-3.067,-3.0662,-3.0595,-3.0642,-3.0748,-3.0773,-3.0695,-3.0624,-3.0694,-3.0768,-3.0751,-3.0764,-3.0761,-3.0737,-3.0733,-3.0727,-3.0715,-3.0719,-3.0575,-3.0482,-3.045,-3.0616,-3.0541,-3.053,-3.0184,-3.0228,-3.0081,-2.9916,-3.0101,-3.0215,-3.0273,-3.0223,-3.031,-3.0492,-3.0615,-3.0638,-3.0652,-3.0698,-3.0612,-3.0693,-3.0763,-3.0714,-3.0763,-3.0605,-3.0637,-3.0642,-3.0645,-3.0776,-3.0807,-3.0797,-3.0123,-2.8408,-2.6663,-2.4966,-2.3463,-2.4224,-2.7444,-3.1915,-3.5676,-3.4886,-3.4116,-3.3257,-3.2604,-3.1965,-3.1391,-3.1149,-3.0804,-3.0789,-3.0772,-3.0769,-3.061,-3.0639,-3.0507,-3.0579,-3.0536,-3.0644,-3.0451,-3.0603,-3.0469,-3.053,-3.0466,-3.0554,-3.0474,-3.043,-3.0427,-3.0498,-3.0365,-3.0315,-3.0186,-3.0193,-3.0243,-3.017,-3,-3.0038,-2.9876,-2.9859,-2.9769,-2.9591,-2.9476,-2.9399,-2.9284,-2.9248,-2.9131,-2.904,-2.8975,-2.8713,-2.8413,-2.8158,-2.8008,-2.7903,-2.7704,-2.742,-2.722,-2.7071,-2.6924,-2.6783,-2.6578,-2.6428,-2.6334,-2.6174,-2.614,-2.607,-2.6111,-2.6058,-2.6152,-2.6112,-2.6282,-2.6531,-2.6732,-2.7135,-2.7435,-2.7868,-2.8354,-2.8676,-2.9008,-2.9322,-2.9595,-2.9752,-2.9878,-3.0097,-3.0198,-3.0309,-3.0352,-3.0428,-3.054,-3.0619,-3.0591,-3.0545,-3.0548,-3.0494,-3.0471,-3.0445,-3.0503,-3.0292,-3.0335,-3.0224,-3.0288,-3.0111,-3.0073,-3.0108,-3.0008,-2.9981,-3.0042,-3.0043,-2.9868,-2.9834,-2.9771,-2.9665,-2.977,-2.9726,-2.9725,-2.9707,-2.9738,-2.9759,-2.978,-2.9794,-2.9692,-2.9741,-2.9772,-2.9852,-2.9873,-2.9884,-2.9972,-2.9943,-3.0049,-2.9975,-3.0038,-3.0031,-3.008,-3.0081,-2.9956,-2.9951,-3.0046,-3.0117,-3.0037,-3.0026,-3.0056,-3.0013,-3.0003,-3.007,-3.012,-3.0063,-3.0146,-3.0127,-3.0061,-3.0217,-3.0242,-3.0192,-3.0217,-3.014,-3.0137,-3.0151,-3.0217,-3.0214,-3.0254,-3.03,-3.0184,-3.017,-3.0122,-3.0108,-2.9972,-2.9976,-2.9981,-2.9902,-2.9848,-2.9815,-2.953,-2.9546,-2.9776,-2.9797,-2.984,-2.9831,-2.9885,-2.998,-3.0119,-3.0173,-3.0338,-3.0221,-3.0371,-3.0304,-3.0221,-3.0269,-3.0295,-3.0259,-3.0266,-3.0162,-3.0142,-3.0183,-3.0227,-3.0292,-3.0241,-2.9867,-2.8191,-2.6247,-2.4511,-2.2714,-2.3009,-2.5928,-3.0616,-3.2998,-3.512,-3.4112,-3.2781,-3.2318,-3.1315,-3.0784,-3.0248,-3.0293,-3.0013,-3.0055,-2.9862,-3.0055,-2.9797,-2.9938,-2.9693,-2.9796,-2.9637,-2.9729,-2.9559,-2.9689,-2.956,-2.9593,-2.9509,-2.9607,-2.9447,-2.9421,-2.9375,-2.9374,-2.9248,-2.9229,-2.9157,-2.9283,-2.91,-2.9132,-2.8866,-2.8937,-2.8719,-2.8776,-2.8671,-2.8756,-2.8673,-2.8467,-2.837,-2.8235,-2.808,-2.7921,-2.7687,-2.7521,-2.7283,-2.7213,-2.6906,-2.6707,-2.6408,-2.6167,-2.6066,-2.5816,-2.5678
