1.1001,1.104,1.1267,1.1388,1.1292,1.1141,1.1341,1.148,1.1284,1.097,1.0426,1.0424,1.0241,1.0743,1.01,0.98631,1.0077,1.0424,1.0258,1.0344,1.0386,1.0116,1.0078,1.0228,1.0475,1.0137,0.96595,0.89874,0.86622,0.8694,0.91619,1.0853,1.4506,1.87,2.2494,2.4021,2.6215,2.433,1.804,1.2284,0.79658,0.60461,0.48018,0.53479,0.57649,0.71198,0.81931,0.95488,1.0118,0.98946,1.0142,0.98229,1.0442,1.0086,1.0201,1.016,1.0408,1.0027,1.0365,1.043,1.0454,1.0425,1.0283,1.0575,1.0393,1.0132,1.0102,1.081,1.079,1.0674,1.0507,1.0567,1.0055,1.0431,1.0748,1.0691,1.073,1.0494,1.0947,1.0349,1.0844,1.0704,1.045,1.0823,1.0761,1.0318,1.1161,1.0971,1.0628,1.0892,1.1127,1.1075,1.0998,1.118,1.0676,1.1025,1.1231,1.0859,1.115,1.1275,1.1516,1.1282,1.1599,1.1577,1.1343,1.1727,1.2057,1.2007,1.1727,1.1761,1.1621,1.203,1.2088,1.1722,1.1389,1.2105,1.185,1.1403,1.1531,1.1462,1.1377,1.1587,1.1086,1.1034,1.1046,1.1221,1.1073,1.0673,1.0441,1.1526,1.1214,1.0802,1.0932,1.0681,1.0882,1.0937,1.1207,1.0802,1.0769,1.0885,1.101,1.0965,1.081,1.0788,1.097,1.0762,1.0877,1.0974,1.0864,1.0887,1.0743,1.0557,1.0954,1.1265,1.0981,1.0756,1.0832,1.1078,1.1035,1.0421,1.0716,1.0509,1.0893,1.1085,1.0528,1.0347,1.1015,1.073,1.0677,1.0628,1.0708,1.1023,1.0887,1.0832,1.0494,1.0727,1.066,1.0838,1.0587,1.0411,1.0749,1.0527,1.0897,1.0931,1.0731,1.0752,1.0379,1.08,1.0695,1.0861,1.0645,1.0691,1.072,1.0348,1.0875,1.0418,1.0702,1.0582,1.0745,1.0853,1.0741,1.0747,1.0798,1.0869,1.0673,1.0712,1.046,1.0695,1.0723,1.0692,1.0761,1.0616,1.0599,1.0764,1.061,1.0423,1.0782,1.0725,1.0981,1.046,1.0717,1.0977,1.0821,1.1084,1.091,1.1457,1.0872,1.1535,1.1548,1.1092,1.1147,1.1858,1.1473,1.1199,1.1319,1.12,1.0627,1.0286,1.0613,1.0511,1.0412,1.034,1.035,1.0735,1.0537,1.0393,1.0356,1.0297,1.0336,1.0394,1.0387,1.0429,0.95044,0.93784,0.878,0.89925,0.9662,1.255,1.6597,2.0525,2.3649,2.5491,2.7503,2.3008,1.6427,1.0416,0.70691,0.59176,0.49042,0.63423,0.69364,0.89366,0.9867,1.0216,1.033,1.0472,1.0372,1.042,1.0234,1.0118,1.0576,1.0793,1.0298,1.0742,1.0629,1.0893,1.0724,1.0503,1.0814,1.0971,1.0587,1.0519,1.0767,1.0719,1.082,1.0698,1.0984,1.0743,1.0671,1.091,1.0961,1.0729,1.086,1.1133,1.0732,1.0803,1.1439,1.0892,1.0863,1.077,1.1169,1.1213,1.0881,1.091,1.1065,1.1142,1.1191,1.0806,1.1129,1.1344,1.1515,1.0903,1.1398,1.1114,1.1711,1.1308,1.162,1.1703,1.1114,1.1503,1.1843,1.2275,1.1463,1.1968,1.2171,1.2067,1.2104,1.2118,1.2267,1.1901,1.1831,1.1483,1.2302,1.1891,1.1931,1.139,1.1526,1.204,1.1885,1.1149,1.1572,1.1062,1.1675,1.1278,1.0807,1.088,1.1342,1.0978,1.1208,1.1052,1.1311,1.1311,1.1058,1.1173,1.0887,1.1471,1.1095,1.1018,1.086,1.1201,1.1572,1.1521,1.1032,1.0799,1.1393,1.1259,1.1027,1.1206,1.1019,1.1419,1.1219,1.0925,1.1289,1.1574,1.1049,1.0954,1.0831,1.1137,1.1393,1.1224,1.0783,1.0812,1.0618,1.0871,1.1072,1.0832,1.0797,1.0606,1.1297,1.1173,1.0813,1.1062,1.0712,1.0678,1.0931,1.0646,1.0304,1.075,1.0748,1.026,0.98043,1.0994,1.0705,1.0998,1.0526,1.0221,1.0659,1.0667,1.0557,1.0767,1.0796,1.056,1.0358,1.0549,1.0038,1.0504,1.0376,1.0403,1.0555,1.0659,1.0249,1.0106,1.0837,1.0632,1.0587,1.0284,1.0097,1.0044,1.0511,1.0889,1.0435,1.0307,1.0117,1.0126,1.0845,1.0502,1.0434,1.0352,1.0407,1.06,1.0315,1.0335,0.99919,1.0791,1.071,1.0549,1.0349,1.0121,1.0243,1.0613,1.0892,1.0619,1.0068,1.0196,1.0764,1.0877,1.0814,1.0969,1.071,1.0843,1.1048,1.0875,1.1124,1.1227,1.113,1.1452,1.154,1.1237,1.1002,1.0668,1.0627,1.0279,1.0055,0.99895,1.0422,1.0311,1.0337,1.0367,1.0275,0.99077,1.0321,1.0279,1.0211,1.0043,0.95369,0.99519,0.91453,0.88186,0.89837,0.97807,1.278,1.6752,2.08,2.3196,2.5061,2.6139,2.1179,1.4556,0.92569,0.68118,0.58322,0.51844,0.55444,0.61384,0.76569,0.88608,0.99473,1.0001,1.018,1.0276,1.0332,1.0146,1.016,1.0597,1.0526,1.0758,1.0359,1.0514,1.0632,1.0314,1.0408,1.068,1.0785,1.0995,1.0991,1.056,1.06,1.0513,1.0492,1.0125,1.0558,1.0652,1.0864,1.1185,1.0916,1.0741,1.0935,1.046,1.0942,1.0898,1.0869,1.0847,1.0946,1.0898,1.0909,1.0984,1.1182,1.1111,1.1094,1.0967,1.0996,1.0926,1.1164,1.1295,1.1135,1.1213,1.1126,1.166,1.1288,1.1374,1.1538,1.151,1.1963,1.1519,1.1874,1.1642,1.167,1.2144,1.2333,1.2089,1.1867,1.1894,1.181,1.2107,1.1841,1.1849,1.173,1.1442,1.1882,1.1815,1.1442,1.1222,1.1111,1.1247,1.1203,1.1127,1.0999,1.1227,1.1032,1.1101,1.0781,1.0733,1.0889,1.1409,1.1112,1.0855,1.0337,1.1508,1.1478,1.1149,1.1139,1.0801,1.1437,1.1185,1.1048,1.1183,1.1014,1.1019,1.1448,1.1155,1.1269,1.0979,1.1102,1.1076,1.1257,1.1194,1.121,1.0974,1.0991,1.101,1.1223,1.1304,1.1278,1.0907,1.0536,1.1092,1.0933,1.0748,1.0907,1.1039,1.0982,1.0981,1.1092,1.0624,1.0992,1.0785,1.0916,1.0419,1.0682,1.1437,1.0952,1.0598,1.0423,1.0496,1.1073,1.1027,1.0754,1.0887,1.0879,1.0657,1.0652,1.0862,1.071,1.0659,1.1051,1.0937,1.0715,1.076,1.0964,1.0689,1.0427,1.0648,1.0519,1.1016,1.0895,1.1445,1.1006,1.1334,1.1236,1.1395,1.1353,1.1697,1.1415,1.1573,1.1529,1.1574,1.1257,1.1222,1.1205,1.0806,1.0817,1.0524,1.0734,1.057,1.0402,1.0486,1.0614,1.0493,1.0503,1.0402,1.0727,1.0779,1.0384,1.0537,1.0763,0.97386,0.93249,0.90056,0.93372,1.0088,1.2763,1.7023,2.088,2.3964,2.5593,2.7304,2.2113,1.5278,0.98631,0.72512,0.63651,0.5351,0.57681,0.69524,0.76428,0.87569,1.0169,1.0556,1.025,1.053,1.0755,1.0457,1.0639,1.0254,1.0747,1.0874,1.0901,1.0629,1.0829,1.0784,1.0943,1.0862,1.0904,1.0608,1.0655,1.0673,1.082,1.0909,1.1206,1.0978,1.0623,1.0851,1.1131,1.0856,1.0857,1.0934,1.1051,1.1126,1.097,1.0789,1.1056,1.1066,1.1406,1.0977,1.0956,1.0946,1.1225,1.1072,1.1157,1.1265,1.1111,1.1314,1.1267,1.1616,1.1369,1.1594,1.1364,1.1628,1.1871,1.18,1.1738,1.1606,1.1894,1.1964,1.1959,1.1807,1.1564,1.2261,1.2174,1.1994,1.1889,1.2471,1.2285,1.2057,1.204,1.1648,1.1749,1.1467,1.1681,1.1545,1.1305,1.1241,1.1277,1.1496,1.1332,1.1146,1.1181,1.0941,1.1176,1.1357,1.1301,1.1078,1.1093,1.1045,1.0825,1.1089,1.1385,1.1105,1.1355,1.1398,1.0955,1.1088,1.1179,1.107,1.108,1.0891,1.0795,1.1283,1.1327,1.1268,1.1101,1.0983,1.1046,1.1069,1.1035,1.1104,1.0819,1.063,1.0884,1.1325,1.1103,1.1286,1.0759,1.1061,1.0933,1.0747,1.0974,1.0849,1.0991,1.1133,1.0801,1.0781,1.0732,1.0651,1.0808,1.0735,1.0756,1.0678,1.0938,1.1037,1.0925,1.091,1.0944,1.0544,1.0693,1.0928,1.0837,1.0476,1.0881,1.0856,1.0773,1.0898,1.0652,1.0627,1.093,1.0698,1.0483,1.0639,1.097,1.097,1.0782,1.0666,1.0754,1.0825,1.0799,1.0841,1.0892,1.0685,1.0487,1.0741,1.0917,1.0939,1.1031,1.1088,1.1422,1.097,1.127,1.1286,1.1764,1.1881,1.155,1.1878,1.126,1.1498,1.1122,1.1104,1.0981,1.0353,1.049,1.0204,1.0546,1.0443,1.0659,1.0579,1.0271,1.059,1.0379,1.0447,1.0576,1.0647,1.0728,1.0378,0.96197,0.8797,0.89504,0.92454,1.0893,1.4248,1.6385,2.0526,2.3403,2.5884,2.802,2.297,1.6426,1.0316,0.73811,0.62119,0.49661,0.60433,0.74625,0.8938,0.99031,1.0334,1.0334,1.0353,1.0203,1.0679,1.0471,1.0543,1.0623,1.0699,1.061,1.0882,1.0548,1.0696,1.0693,1.0578,1.1222,1.0842,1.0424,1.0713,1.0658,1.0853,1.0825,1.0928,1.08,1.1006,1.1047,1.1169,1.1027,1.1083,1.0994,1.0832,1.0736,1.0991,1.0981,1.1169,1.1254,1.1044,1.117,1.1056,1.1605,1.0993,1.1132,1.1305,1.1099,1.1287,1.1526,1.1397,1.1293,1.1335,1.1423,1.1628,1.1874,1.1648,1.1782,1.1846,1.1965,1.1995,1.2102,1.1985,1.2019,1.223,1.239,1.2252,1.2278,1.212,1.2264,1.2295,1.2177,1.1921,1.1862,1.1897,1.1825,1.1592,1.1552,1.1678,1.1484,1.146,1.1134,1.1324,1.1307,1.125,1.1263,1.1287,1.1025,1.0819,1.1273,1.1107,1.0929,1.123,1.099,1.091,1.1083,1.103,1.0979,1.0768,1.1277,1.1045,1.0935,1.0644,1.1002,1.1217,1.1109,1.0778,1.0552,1.099,1.0616,1.1167,1.0823,1.0889,1.0519,1.0141,1.0672,1.0727,1.0813,1.0534,1.0529,1.0772,1.0569,1.0211,1.0621,1.0602,1.0625,1.0354,1.043,1.0352,1.068,1.0553,1.0351,1.0296,1.0333,1.0214,1.0533,1.0489,1.0228,1.0573,1.0121,1.0242,1.0318,1.0643,1.0344,1.0499,1.0411,1.0436,1.0045,1.0524,1.0435,1.0326,1.0435,1.038,1.0305,1.0121,1.0224,1.0581,1.0371,1.0115,1.0073,1.04,1.0576,1.0381,1.0387,1.0067,1.0092,1.0521,1.0265,1.0001,1.0471,1.0234,1.0223,1.0332,1.0133,1.0047,1.0415,1.0655,1.0943,1.0673,1.0392,1.0823,1.094,1.0993,1.0735,1.1038,1.1165,1.0939,1.0639,1.0353,1.0377,1.0173,1.0124,1.0187,1.0223,0.99038,0.9768,0.98875,0.96791,0.99199,0.98994,1.0207,0.99934,0.99421,1.0263,0.96886,0.96075,0.85401,0.8402,0.8623,0.98374,1.2473,1.6734,2.0396,2.3144,2.3661,2.564,2.329,1.7,1.1131,0.70379,0.61762,0.45193,0.48616,0.54954,0.64057,0.78348,0.90865,0.94869,0.98177,0.96605,1.0134,0.98156,0.9966,0.97179,0.9979,1.004,0.97042,0.98369,1.0244,1.0259,1.0229,1.0335,1.0187,1.0125,1.0203,1.0388,1.0119,1.0258,1.0165,1.0457,1.0166,0.99075,1.0373,1.0385,1.0194,1.0385,1.0453,1.0484,1.0405,1.0481,1.0729,1.0363,1.0426,1.0656,1.0452,1.0609,1.0311,1.0759,1.0839,1.0875,1.1039,1.0478,1.09,1.0958,1.1095,1.1261,1.1041,1.1146,1.1349,1.1131,1.1357,1.1285,1.1536,1.1762,1.1568,1.1776,1.1558,1.1525,1.1683,1.1694,1.2022,1.1992,1.1476,1.1639,1.1628,1.1595,1.1293,1.0836,1.1269,1.1493,1.1327,1.1004,1.0876,1.0759,1.0569,1.0725,1.0997,1.0845,1.0547,1.0547,1.0683,1.0796,1.0517,1.0869,1.0353,1.0772,1.0713,1.0647,1.0703,1.0582,1.0521,1.0684,1.0743,1.0428,1.0667,1.058,1.0605,1.0472,1.0725,1.072,1.0596,1.0622,1.036,1.0548,1.0351,1.0486,1.0772,1.069,1.0531,1.0241,1.0396,1.0691,1.0588,1.027,1.0074,1.0278,1.0537,1.0565,1.0429,0.99946,0.99945,1.0497,1.0444,0.98463,1.0045,1.0439,1.0148,1.0323,1.0127,1.0067,1.0431,1.0315,1.0331,1.0052,1.002,1.0041,1.0095,1.0317,0.9986,1.0007,1.0264,1.0157,1.0218,1.0348,1.0138,1.0219,0.99394,1.0094,1.0423,1.0339,1.0017,1.0205,1.0276,1.0592,1.0659,1.0378,1.0778,1.0696,1.0808,1.0904,1.0876,1.084,1.1032,1.0642,1.0727,1.0745,1.0249,0.96392,0.97209,1.022,0.99262,0.95741,0.97096,0.98397,0.9572,1.0048,0.99889,0.9983,1.0202,0.96437,0.9855,0.96216,0.93598,0.86123,0.84482,0.83213,0.89372,1.0738,1.2973,1.6989,2.0904,2.3295,2.5918,2.6297,2.0461,1.3901,0.8605,0.61265,0.4763,0.41347,0.56427,0.6801,0.79841,0.89157,0.95247,0.97539,0.98006,0.96565,1.0008,0.97375,1.0004,0.98463,0.95964,0.98033,1.0127,0.96531,0.96026,1.0125,1.0173,1.0125,1.0057,0.98017,1.0242,0.97883,1.0318,0.99402,0.99035,1.0276,1.0109,1.0153,1.0046,1.0073,0.99277,1.0109,1.0085,1.0185,1.0433,1.0368,1.0083,1.0222,1.0303,1.021,1.0259,1.0365,1.067,1.07,1.0453,1.0153,1.0384,1.0623,1.0526,1.0478,1.061,1.0931,1.0875,1.0983,1.0639,1.1344,1.1063,1.0844,1.1202,1.1217,1.1435,1.1439,1.1197,1.1505,1.1443,1.1299,1.1376,1.1516,1.1465,1.1439,1.1009,1.0986,1.1303,1.1304,1.099,1.0861,1.0803,1.076,1.0748,1.0671,1.0547,1.0538,1.0279,1.0739,1.0547,1.0256,1.0288,1.0464,1.0878,1.0551,1.0566,1.0551,1.0277,1.0218,1.073,1.0487,1.0424,1.0583,1.0275,1.047,1.0584,1.0442,1.0518,1.0444,1.0567,1.0496,1.0051,1.0303,1.0497,1.0407,1.0645,1.0354,1.0471,1.0365,1.0252,1.0358,1.0323,1.015,1.0286,1.027,1.0615,1.0403,1.0325,1.0276,1.0071,0.99148,1.0093,1.0227,1.0097,1.037,1.058,1.0456,1.0079,1.0252,1.0115,1.0244,1.0362,1.0275,1.0187,1.028,1.0134,1.0008,1.027,1.0419,1.0269,1.0462,1.0145,1.021,1.0252,1.0103,1.0023,1.0146,1.0242,1.0315,1.012,1.0349,1.0375,1.0289,1.0218,1.0376,1.0315,1.0231,1.0095,1.0545,1.0252,1.0196,1.0823,1.0449,1.0193,0.99361,1.0033,1.087,1.0723,1.0354,1.0332,1.0287,1.0388,1.0375,1.0235,1.0471,1.0469,1.0516,1.0576,1.0511,1.0405,1.0606,1.0326,1.0644,1.082,1.0586,1.0937,1.113,1.0819,1.0783,1.1154,1.1492,1.1429,1.1402,1.136,1.1032,1.1071,1.1026,1.1119,1.0732,1.0199,1.0046,1.0359,1.0347,1.0631,1.0537,1.0152,1.0001,1.0496,1.0224,0.98515,1.0327,1.0256,1.0041,1.0215,0.95581,0.85959,0.84124,0.88628,1.0235,1.3115,1.7007,2.1589,2.42,2.6596,2.6617,2.1025,1.4433,1.1302,0.77245,0.61235,0.51461,0.52784,0.70645,0.80711,0.93939,1.0002,0.97135,1.0179,1.0287,1.0197,0.97379,1.0464,1.0416,1.0501,1.0397,1.0147,1.0396,1.0126,1.0341,1.0187,1.0213,1.0441,1.0919,1.0488,1.056,1.0124,1.0449,1.0192,1.0265,1.0473,1.0697,1.0366,1.05,1.0428,1.0697,1.0526,1.0485,1.0384,1.0429,1.0514,1.0402,1.0641,1.0756,1.0572,1.0829,1.059,1.0592,1.051,1.0798,1.0902,1.0731,1.0724,1.0731,1.0795,1.1072,1.1041,1.1054,1.117,1.0997,1.1094,1.1262,1.1391,1.1371,1.1252,1.1402,1.1762,1.1499,1.1546,1.1704,1.1558,1.1647,1.1554,1.1652,1.1637,1.1239,1.1632,1.1313,1.1185,1.0958,1.1133,1.1098,1.0722,1.0688,1.0816,1.0575,1.0765,1.0724,1.0438,1.0546,1.088,1.0609,1.0652,1.0712,1.0658,1.0463,1.0751,1.0687,1.0445,1.034,1.0516,1.0534,1.0564,1.0602,1.0218,1.0214,1.0317,1.0412,1.0376,1.0248,1.0617,1.0743,1.0361,1.0544,1.0285,1.0235,1.0433,1.0383,1.0412,1.0212,1.0302,1.022,1.0232,1.0167,1.0302,1.041,1.0146,1.022,1.0072,1.0004,1.0404,1.0206,1.0598,1.0176,1.0266,1.0315,0.99422,0.99854,1.0087,1.0104,1.0326,1.0282,1.0329,0.99931,0.99495,1.0221,1.0269,1.0367,1.0339,1.0288,0.98557,1.0087,1.0181,1.0293,1.0139,1.0305,1.0154,1.0062,1.0082,1.0272,0.9994,0.97226,0.99843,1.0266,1.0365,0.99972,1.0198,1.0177,1.0228,1.0091,0.98573,1.0041,1.0153,1.0412,1.0269,0.99885,1.0131,0.98925,1.0048,1.0194,0.99054,1.0159,1.024,1.0118,1.0126,1.0322,1.0061,0.99569,1.0027,1.0302,1.0203,1.0107,0.99236,0.99477,1.0009,0.97874,1.0258,1.0549,1.0544,1.0967,1.057,1.0332,1.0632,1.0806,1.0925,1.1018,1.0706,1.1031,1.0935,1.0537,1.046,1.046,1.0195,1.0159,0.99025,0.99492,0.99374,0.97966,1.0046,0.9946,1.0041,0.99228,0.99443,1.0023,0.97222,0.99652,0.98913,0.92843,0.8606,0.8307,0.89606,1.0073,1.3071,1.7299,2.1073,2.3536,2.5284,2.4776,1.8847,1.3198,0.8488,0.60578,0.49089,0.46892,0.51745,0.54632,0.71671,0.85352,0.91724,0.94235,0.97139,0.97392,0.99701,1.0198,1.0153,1.031,1.047,1.0545,1.063,1.081,1.1114,1.1363,1.1459,1.1385,1.177,1.2085,1.1987,1.2174,1.2611,1.2547,1.2361,1.2189,1.229,1.2579,1.2755,1.2509,1.2727,1.235,1.2491,1.2737,1.2609,1.2504,1.2341,1.2027,1.1883,1.2176,1.2176,1.253,1.23,1.2347,1.2471,1.2187,1.2503,1.2782,1.2626,1.2779,1.3093,1.3065,1.3118,1.3022,1.3438,1.3657,1.317,1.3094,1.3354,1.3213,1.3302,1.3552,1.3807,1.3305,1.3566,1.301,1.3279,1.3235,1.2976,1.3199,1.2916,1.304,1.2897,1.2259,1.2173,1.2475,1.2074,1.2283,1.1844,1.1797,1.1865,1.2041,1.1956,1.159,1.1576,1.1631,1.1835,1.2053,1.1308,1.1206,1.1662,1.1467,1.1498,1.1795,1.1791,1.1648,1.1343,1.164,1.1616,1.149,1.1617,1.1457,1.1664,1.1476,1.1251,1.1376,1.1353,1.1545,1.2034,1.1193,1.1351,1.131,1.1373,1.1379,1.1259,1.1197,1.0943,1.1366,1.1196,1.1274,1.1379,1.0994,1.0952,1.1264,1.0984,1.1106,1.1021,1.1092,1.1145,1.1189,1.0768,1.0911,1.1059,1.1153,1.1344,1.0971,1.0937,1.1117,1.1139,1.1254,1.113,1.1083,1.1024,1.1196,1.106,1.0912,1.1013,1.1312,1.109,1.0914,1.1058,1.0945,1.1346,1.1105,1.1042,1.1074,1.0994,1.108,1.107,1.0885,1.0935,1.1134,1.1098,1.131,1.1076,1.0974,1.0667,1.0612,1.0907,1.1278,1.1854,1.0452,1.0641,1.0866,1.0822,1.1004,1.0903,1.12,1.1502,1.1622,1.1529,1.1625,1.2082,1.2187,1.2135,1.2639,1.2625,1.2737,1.2968,1.2272,1.2079,1.2074,1.1731,1.1717,1.1834,1.1701,1.2021,1.1993,1.2088,1.2198,1.2137,1.2198,1.1808,1.1675,1.1774,1.1953,1.2083,1.165,1.019,1.0226,1.0477,1.1692,1.4142,1.8551,2.2849,2.5165,2.7577,2.7579,2.1912,1.5647,1.0354,0.72956,0.66762,0.57934,0.62939,0.71188,0.87223,0.97787,1.0628,1.0388,1.0734,1.0886,1.0873,1.062,1.0796,1.1041,1.0793,1.0564,1.0671,1.1063,1.1019,1.0818,1.0824,1.0846,1.0421,1.0864,1.1101,1.0802,1.0572,1.0675,1.0926,1.097,1.0893,1.112,1.0446,1.0803,1.0969,1.0891,1.1187,1.0808,1.0903,1.0903,1.1237,1.1228,1.09,1.1048,1.1064,1.103,1.1118,1.1057,1.1076,1.1221,1.123,1.1061,1.1056,1.1197,1.139,1.1394,1.1027,1.1443,1.1739,1.1674,1.1709,1.1458,1.183,1.1651,1.1723,1.1705,1.1809,1.1892,1.1982,1.2016,1.2082,1.1819,1.163,1.164,1.1741,1.1643,1.1607,1.1777,1.1202,1.1255,1.1294,1.115,1.1022,1.0841,1.1118,1.0918,1.1098,1.0898,1.0668,1.0915,1.087,1.1127,1.0637,1.0843,1.0918,1.0936,1.0766,1.0883,1.0552,1.0882,1.0628,1.1029,1.0963,1.0683,1.0947,1.0877,1.0863,1.0938,1.083,1.0424,1.0359,1.0421,1.0935,1.0854,1.0754,1.0961,1.0556,1.0759,1.0609,1.0611,1.0746,1.1078,1.071,1.0372,1.0538,1.0488,1.0671,1.0636,1.0754,1.0202,1.0604,1.0572,1.0482,1.0673,1.0747,1.0421,1.0795,1.0793,1.0374,1.0665,1.0334,1.0721,1.0611,1.0389,1.0464,1.0321,1.0323,1.0767,1.07,1.0229,1.0417,1.0448,1.0553,1.0524,1.0645,1.0419,1.0653,1.0717,1.0498,1.0243,1.0206,1.0361,1.0682,1.0593,1.0395,1.0529,1.0113,1.026,1.0639,1.0614,1.0106,1.0176,1.0556,1.047,1.0284,1.0324,1.0307,1.0268,1.0524,1.0515,1.0651,1.0389,1.042,1.0299,1.0211,1.0145,1.0305,1.066,1.036,1.0553,1.0367,1.0705,1.1167,1.1029,1.065,1.0911,1.1023,1.0941,1.1238,1.143,1.1247,1.1111,1.0698,1.089,1.0788,1.0387,1.0115,1.0167,1.022,1.0294,1.043,1.0169,1.0237,1.0055,1.0387,1.015,1.0067,1.0094,1.0595,0.97952,0.89718,0.87193,0.84714,0.92892,1.1508,1.3394,1.7495,2.1501,2.3754,2.6317,2.6697,2.096,1.4742,0.96888,0.63704,0.56732,0.48303,0.57381,0.67433,0.84772,0.95462,1.0031,1.005,1.001,1.0124,1.0356,1.0302,0.98443,1.0057,1.0415,1.0342,1.0501,1.0336,1.0511,1.0534,1.049,0.99993,1.0183,1.0277,1.0342,1.0386,1.0455,1.0169,1.0721,1.0251,1.0272,1.0547,1.0282,1.0289,1.0615,1.0629,1.0322,1.0537,1.0555,1.0645,1.0703,1.0628,1.0654,1.0951,1.0697,1.0645,1.0553,1.0533,1.0581,1.0785,1.1108,1.091,1.0626,1.0697,1.0938,1.1498,1.1153,1.1254,1.0912,1.1152,1.1541,1.1376,1.1391,1.1463,1.1507,1.1831,1.1744,1.1522,1.1722,1.1902,1.1726,1.1836,1.1865,1.1547,1.159,1.1746,1.1652,1.1374,1.1377,1.1412,1.128,1.1487,1.0942,1.1197,1.0938,1.0782,1.1147,1.0969,1.0915,1.096,1.0835,1.0929,1.0919,1.0787,1.0745,1.0827,1.1096,1.1142,1.0628,1.0622,1.0525,1.0911,1.0793,1.0716,1.0422,1.0882,1.0707,1.0663,1.0778,1.0649,1.0388,1.0316,1.0514,1.0344,1.0813,1.0487,1.0459,1.0594,1.0761,1.0648,1.0152,1.0226,1.0766,1.0663,1.0362,1.0182,1.0356,1.0449,1.0424,1.0309,1.046,1.0526,1.0445,1.0209,1.0358,1.015,1.0377,1.0135,1.042,1.0228,1.0176,1.0294,1.0098,1.0403,1.0275,1.0015,1.0437,1.023,1.0114,1.0019,1.0342,1.0068,1.0224,1.0267,1.0007,1.0225,1.0196,1.0081,1.038,1.024,1.0555,1.0665,1.0711,1.0735,1.0484,1.0823,1.0947,1.1283,1.1104,1.0948,1.1312,1.0708,1.0252,1.0165,1.0312,0.99935,0.98665,0.966,1.0012,1.0417,0.99076,0.97802,0.9707,0.98241,0.97895,1.006,0.9891,0.97895,0.97535,0.97845,0.90708,0.83137,0.82638,0.87211,0.92474,1.1096,1.5391,1.8519,2.2016,2.3834,2.5846,2.2884,1.6557,1.0875,0.69257,0.55683,0.42614,0.48691,0.53809,0.6881,0.80983,0.92835,0.92299,0.95052,0.94186,0.97611,0.97109,0.95909,0.94111,0.98525,0.98412,0.9744,0.99952,0.95807,0.98051,1.0014,0.97189,1.0096,0.99773,1.0016,0.99158,0.97239,0.96952,0.995,1.0101,1.0275,1.0259,1.0098,0.99039,1.0061,0.99393,1.008,0.98919,0.99815,1.0116,1.0186,1.0195,1.0216,1.019,1.0305,1.0134,1.0266,1.0341,1.0248,1.0243,1.0318,1.0561,1.034,1.0627,1.0827,1.0598,1.0628,1.0829,1.0572,1.0875,1.0961,1.1152,1.1082,1.1108,1.0939,1.1116,1.1534,1.1458,1.1082,1.1158,1.1325,1.1425,1.1496,1.111,1.0716,1.0834,1.0733,1.0799,1.0701,1.0466,1.0234,1.0405,1.0429,1.0121,1.0182,1.0094,1.0074,1.0016,1.0171,1.0221,1.0033,1.0129,0.9896,0.99943,1.0027,1.0193,0.99715,1.0018,0.99657,1.0351,1.0061,1.0028,1.0151,1.0036,0.98393,1.0001,1.0135,0.97421,1.0013,1.0079,1.0222,1.0044,0.99833,1.0193,1.0164,1.0146,0.9838,0.99984,1.0001,0.99099,0.99105,0.97513,1.0181,1.0082,0.99133,0.97052,0.964,0.99295,0.98888,0.97754,0.97526,0.97963,0.96772,0.99021,0.97432,0.97135,0.98853,0.97201,0.98815,0.96593,0.96554,0.96937,0.97588,0.98235,0.96821,0.95873,0.97416,0.96962,0.96815,0.97607,0.96265,0.96957,0.96646,0.99618,1.0158,1.0314,1.0309,0.98353,1.0355,1.0489,1.0221,1.0873,1.06,1.0661,1.0637,1.005,0.96882,1.0149,0.99816,0.95181,0.93831,0.9324,0.95657,0.9451,0.93923,0.94205,0.93734,0.9297,0.95878,0.96141,0.94016,0.94755,0.99094,0.9133,0.87748,0.77741,0.76668,0.81984,0.99294,1.3587,1.7424,2.1218,2.3224,2.4482,2.6512,2.2016,1.5228,0.94607,0.59044,0.49841,0.39401,0.47757,0.5862,0.74862,0.83544,0.92758,0.93955,0.92374,0.9081,0.94178,0.90274,0.91379,0.93887,0.95852,0.95034,0.93345,0.95325,0.943,0.94027,0.94812,0.94552,0.97801,0.94474,0.95614,0.96044,0.95666,0.97366,0.96509,0.96712,0.98736,0.94089,0.9779,0.96841,0.97016,0.95479,0.95328,0.97716,0.93721,0.98145,0.99242,1.0021,0.99572,0.99601,0.97961,0.99549,1.0101,1.0179,0.98776,1.0099,1.0186,1.0103,0.99787,0.99389,1.055,1.042,1.0293,1.0651,1.043,1.0494,1.0545,1.0691,1.0834,1.0777,1.0883,1.1179,1.1005,1.1082,1.1182,1.1072,1.0948,1.1101,1.1332,1.1334,1.0758,1.085,1.062,1.0827,1.0457,1.0787,1.0691,1.0497,1.0394,1.051,1.0254,1.0309,1.0067,1.0055,1.0551,1.0575,1.0123,0.99509,1.0297,1.0518,1.026,1.0292,1.0321,1.0397,1.048,1.023,1.0221,1.018,1.0194,1.0684,1.0217,1.0105,1.0332,0.97057,1.0096,1.0153,0.98328,1.0124,1.0569,1.0894,1.0004,0.93136,0.96977,0.9834,0.98021,1.0014,1.0107,0.95351,0.99294,0.99303,0.99234,0.98999,0.97253,0.99408,1.0101,1.0002,1.0014,0.98605,0.98477,0.99915,1.0079,0.98735,0.97072,0.95785,0.98911,0.98234,0.99271,0.97581,0.976,0.99495,1.0046,0.97776,0.95466,0.97604,0.99657,1.0098,1.023,1.0332,1.053,1.0362,1.0186,1.0411,1.0546,1.0456,1.0544,1.0538,1.0489,1.075,1.0516,1.0256,1.0148,0.94357,0.95484,0.93262,0.9242,0.94483,0.96184,0.95297,0.95866,0.97181,0.96722,0.93823,0.92134,0.91457,0.92807,0.96258,0.94617,0.87583,0.82353,0.78324,0.79745,0.93815,1.2565,1.6897,2.1063,2.2804,2.5643,2.5421,1.9073,1.2968,0.78082,0.55555,0.47722,0.42589,0.49344,0.56435,0.71027,0.85166,0.91562,0.94145,0.93494,0.90396,0.95949,0.9372,0.92289,0.936,0.9622,0.96107,0.97646,0.97121,0.96957,0.9377,0.96181,0.97787,0.98092,0.97587,0.93989,0.96666,0.95791,0.97151,0.96755,0.96873,0.97941,0.97248,0.98554,0.97468,0.9721,0.9954,1.0026,1.0045,0.97827,1.0009,1.0189,1.0229,0.96698,0.99315,1.0052,0.99664,1.0346,1.0226,0.98304,1.0123,1.0131,1.0299,1.033,1.0218,1.0345,1.0482,1.0809,1.0552,1.0515,1.0723,1.0859,1.0848,1.0821,1.111,1.0926,1.1257,1.1208,1.1165,1.1211,1.1059,1.0948,1.11,1.131,1.1056,1.0881,1.0743,1.0769,1.0516,1.0531,1.0821,1.0565,1.0438,1.0446,1.042,1.0187,1.0196,1.0284,1.058,1.0189,1.0382,1.0061,1.0276,1.0498,1.0349,1.0011,1.0231,1.0121,1.0445,1.0166,1.0177,1.0406,1.0165,1.0147,1.012,1.002,1.0078,1.0114,1.0097,1.027,0.99959,0.99567,1.0076,1.007,0.98538,1.0093,0.99011,1.002,0.99801,1.0078,1.0029,0.98605,0.98191,0.98497,1.0059,0.97929,0.98502,0.98159,0.99013,0.97891,0.99688,0.97665,0.95202,0.97701,1.0278,1.0004,0.97797,1.0148,1.0211,1.0377,1.0299,1.0333,1.056,1.0718,1.094,1.1071,1.07,1.0622,1.0499,1.0184,1.0102,1.0265,0.957,0.966,0.95729,0.95498,0.91629,0.88193,0.97746,0.93633,0.9384,0.93474,0.9416,0.95273,0.96102,0.9535,0.94226,0.92562,0.89774,0.81892,0.81047,0.83415,0.87449,1.1462,1.5748,2.0253,2.2628,2.3955,2.5339,2.0335,1.4035,0.87144,0.59684,0.48568,0.39461,0.44176,0.51283,0.70839,0.75237,0.87196,0.91195,0.921,0.91046,0.93232,0.92182,0.93571,0.88718,0.91152,0.94677,0.95042,0.94754,0.93735,0.93118,0.97435,0.94581,0.96564,0.97918,0.94512,0.93484,0.94729,0.92909,0.98732,0.98898,0.99079,0.9733,0.96356,0.97348,0.98613,0.96075,0.98987,0.9643,1.0058,0.97948,0.98498,0.98159,0.9472,1.0069,1.0019,1.0175,0.97922,1.0132,0.99127,1.0134,0.99401,0.99073,1.0195,1.0113,1.0335,1.0425,1.039,1.0086,1.0545,1.0698,1.071,1.0948,1.0526,1.0899,1.0713,1.1029,1.0978,1.1156,1.1111,1.1282,1.1178,1.0919,1.0845,1.0886,1.0926,1.05,1.0549,1.0491,1.046,1.0557,1.0368,0.99897,0.99926,1.0079,1.0123,0.99441,0.99353,1.0186,0.97855,0.99159,1.0295,0.96924,0.99383,1.0093,1.012,1.0099,0.99135,0.97372,1.0071,1.0226,1.0181,0.99393,0.96119,0.98306,1.0057,1.0021,0.99345,1.0069,0.99976,0.97363,0.98936,0.99042,0.9755,1.0001,1.0068,1.0031,0.97495,0.97818,0.96978,0.98486,0.98138,0.99041,0.95978,0.94458,0.98051,0.98623,0.98918,0.97244,0.93966,0.95217,0.99049,1.0194,1.0041,1.0235,1.0146,1.0167,1.0042,1.0255,1.0445,1.0812,1.0705,1.0657,1.047,1.0299,1.0177,0.9974,1.022,0.94257,0.93312,0.95152,0.92828,0.93461,0.94519,0.93122,0.94066,0.94447,0.93838,0.93036,0.93887,0.93383,0.94519,0.94182,0.93691,0.88672,0.80854,0.77452,0.80038,0.83732,0.8787,1.1284,1.5791,1.9956,2.2667,2.4213,2.56,2.0686,1.3915,0.83394,0.55698,0.46362,0.36068,0.47079,0.56971,0.73161,0.84181,0.91089,0.89501,0.89814,0.89683,0.9048,0.90254,0.94996,0.90648,0.95997,0.9161,0.93886,0.92429,0.95332,0.9655,0.93822,0.95908,0.96515,0.96586,0.95873,0.94257,0.94091,0.93982,0.94251,0.97609,0.97348,0.96449,0.96416,0.96715,0.96145,0.98918,0.9562,0.964,0.96644,0.98586,0.9603,0.95951,0.98482,0.99625,1.0071,0.99726,0.97803,0.94918,0.98638,1.0227,1.021,1.0052,1.0036,1.0055,1.0053,1.0105,1.0287,1.0273,1.0188,1.0548,1.0702,1.0621,1.0539,1.0734,1.0736,1.068,1.0781,1.1134,1.1217,1.1051,1.1167,1.0987,1.0664,1.1015,1.0677,1.0897,1.0646,1.0207,1.043,1.0308,1.0512,1.0338,0.99884,1.0125,0.98414,1.0331,1.0169,1.0241,1.0287,0.99857,1.0249,1.0071,1.0031,1.0178,0.98532,1.0264,1.0151,0.99444,0.98651,0.98604,0.97088,0.99752,1.0056,1.0003,1.0123,0.99779,0.99598,0.99777,0.97896,0.98281,1.012,1.0067,1.0202,0.99018,0.98474,0.99272,1.0121,1.0009,0.97653,0.98873,0.99176,0.99546,1.0103,0.98617,0.95534,0.97985,0.99788,0.97206,0.98152,0.96469,0.99491,1.0204,1.0204,0.99114,1.0036,0.99622,0.99719,1.0017,0.98216,0.99742,0.97399,0.98921,0.99479,0.99335,0.9876,0.99355,0.96425,0.98445,0.99476,0.97903,0.95444,0.97646,1.0166,1.0088,0.98637,0.96525,0.97301,0.97926,0.98538,0.94456,0.96758,0.96376,0.99079,0.97941,0.97977,0.99472,0.99103,0.97571,1.0079,0.96958,0.98809,1.0172,1.0318,1.0487,1.0442,1.0464,1.0254,1.0532,1.0643,1.0733,1.0191,1.0241,1.0235,1.003,0.94734,0.94111,0.94775,0.94704,0.95469,0.97202,0.91993,0.92756,0.93017,0.94277,0.95713,0.9711,0.95362,0.90943,0.95473,0.92925,0.87753,0.80379,0.78897,0.83066,0.91592,1.1457,1.5801,2.0014,2.2727,2.4904,2.6355,2.0848,1.438,0.90358,0.71311,0.55615,0.40652,0.42107,0.54082,0.72632,0.81213,0.92424,0.92511,0.92935,0.91918,0.95482,0.93409,0.93487,0.949,0.97041,0.90525,0.96206,0.9655,0.9619,0.97217,0.99562,0.96478,0.95782,0.95653,0.98488,0.97038,0.99477,0.95557,0.96663,0.98886,0.97768,0.96132,0.95856,0.98559,0.96484,1.0026,0.99904,1,1.0252,0.99816,0.98889,0.97847,0.993,1.0007,0.99286,1.0092,1.0172,0.99833,1.0079,1.0216,1.0274,1.055,0.99036,0.99816,1.0091,1.0175,1.0044,1.0185,1.0519,1.0518,1.0838,1.0876,1.0791,1.0536,1.0583,1.0923,1.1153,1.1078,1.0968,1.1122,1.1421,1.1398,1.1094,1.0961,1.1196,1.1142,1.1034,1.0888,1.081,1.083,1.086,1.0498,1.0755,1.0527,1.0658,1.0624,1.0536,1.0677,1.0386,1.0285,1.0403,1.0706,1.0319,1.0619,1.0223,1.0324,1.0303,1.0471,1.051,1.0227,1.035,1.0287,1.0257,1.0292,1.0089,1.0383,1.0424,1.0383,1.062,1.0192,0.97482,1.0099,1.0155,1.0001,1.014,1.0153,1.0138,1.0348,1.013,1.0136,1.0013,0.99857,1.0066,0.99551,1.0247,1.0155,0.99314,1.014,1.0048,0.99761,0.99147,0.99818,0.99868,1.0001,0.98399,1.0216,1.0226,1.0002,1.0101,1.0006,0.98076,0.98374,0.99392,1.0133,0.9985,0.99452,0.9778,1.0184,0.98971,0.97778,1.0076,0.99658,0.98458,0.99699,1.0005,1.0031,0.99672,0.98838,0.9975,1.0182,0.96654,0.97133,0.98662,0.98085,0.98458,0.96431,0.98177,1.0147,0.99167,0.98234,1.0025,0.97405,0.99544,0.98832,0.97526,0.97106,0.95876,0.98676,0.99909,0.98678,0.99549,0.99059,0.97695,0.95691,0.99605,0.98094,0.97219,0.97699,0.99278,0.9677,0.97476,0.95064,0.9704,0.9647,0.98267,0.98516,0.96155,0.97494,0.99221,0.97348,0.95692,0.99914,1.0221,1.0186,1.021,1.0174,1.0129,1.0084,1.0502,1.0619,1.0503,1.0721,1.0343,1.0273,1.0246,0.98977,0.98497,0.95265,0.94948,0.94953,0.94612,0.95407,0.96216,0.96974,0.96485,0.93668,0.93951,0.96028,0.95179,0.9626,0.94688,0.90941,0.84576,0.78649,0.77991,0.8377,1.039,1.4148,1.8266,2.1802,2.3378,2.5559,2.3005,1.6623,1.3665,0.85504,0.60649,0.45715,0.4268,0.47133,0.54792,0.7196,0.80714,0.88309,0.89544,0.93905,0.94279,0.92388,0.89254,0.93405,0.97324,0.96576,0.96523,0.96077,0.9698,0.94513,0.92388,0.98382,0.95399,0.95378,0.96758,0.96983,0.97125,0.9534,1.0012,0.96621,0.94536,0.96906,0.96761,0.96975,0.97649,0.98867,1.0019,0.95869,1.0011,1.0017,0.99721,1.0076,0.98046,0.97649,0.98964,1.0097,0.98792,1.0073,1.0056,1.0245,0.98045,1.0019,0.9929,1.0318,0.98917,1.0292,1.0291,1.0322,1.045,1.0443,1.0662,1.0753,1.0635,1.0439,1.0535,1.0865,1.1085,1.0831,1.0946,1.1061,1.1355,1.1228,1.1408,1.0849,1.0865,1.0942,1.1102,1.0931,1.0757,1.078,1.0401,1.0518,1.0485,1.0576,1.0507,1.0221,1.0063,1.0193,1.0438,1.0286,0.99518,1.0187,0.99246,1.0037,1.0091,1.0279,1.0267,1.0428,1.0306,0.99092,0.99543,1.0112,1.0172,1.0104,1.0173,1.0246,1.0117,0.99876,1.0164,1.0468,1.0424,0.98753,1.0216,0.97188,0.98418,0.99183,1.0215,1.0386,1.0086,0.99805,0.98327,1.0151,1.0098,1.0226,1.0054,0.99711,0.99819,0.97871,0.9825,0.99666,1.0039,1.0143,1.0121,0.99577,0.97833,0.97406,0.99904,0.99277,0.97869,0.98461,0.99601,0.99625,0.99391,0.97527,0.99989,1.0126,0.98282,0.9916,0.97682,0.97715,0.98582,0.96246,0.99358,1.005,0.99459,0.98681,0.95868,0.95607,1.0074,0.9802,0.98086,0.99433,0.9851,0.98525,1.0099,0.98464,0.95699,0.9651,0.96656,0.99172,1.0035,1.0049,1.0241,1.0233,1.0186,1.0448,1.0332,1.0635,1.089,1.0873,1.0574,1.0711,1.0518,1.0339,1.0204,1.0276,0.98973,0.97085,0.94644,0.94892,0.96937,0.94123,0.96199,0.98541,0.95203,0.95156,0.95205,0.95988,0.98092,0.98058,0.95112,0.90433,0.84347,0.78533,0.83441,0.93252,1.1333,1.5222,1.9356,2.2429,2.4154,2.6257,2.2131,1.5663,0.98305,0.65631,0.51597,0.40912,0.45436,0.55532,0.7409,0.82333,0.8946,0.89663,0.93935,0.92684,0.96395,0.9564,0.96377,0.9579,0.96744,0.98459,0.95695,0.95518,0.94873,0.97425,0.96964,0.96562,0.98421,0.98515,1.0021,0.98772,1.0021,0.97173,0.95158,0.9797,1.0279,0.96622,0.99163,0.96744,0.99707,1.0089,0.99629,0.99645,0.99751,1.0025,1.0127,1.0059,0.99353,0.99551,1.0132,1.0001,1.0007,1.0251,1.0288,1.0267,1.0063,1.0616,1.0786,0.97933,0.99298,1.0273,1.0489,1.0348,1.05,1.0497,1.074,1.0997,1.0676,1.0789,1.0924,1.0827,1.1009,1.1116,1.0972,1.1082,1.1043,1.1113,1.0987,1.0959,1.0851,1.0881,1.0844,1.0599,1.0569,1.0415,1.0416,1.0473,1.0357,1.0034,1.0278,1.016,1.0258,1.0177,0.98785,1.0012,1.0113,1.0206,1.0005,1.0027,0.9931,1.0211,1.0281,1.0275,0.99897,1.0029,1.011,1.0194,0.98381,1.0053,0.99751,0.99971,0.98351,0.99527,1.0081,1.0106,1.0052,0.98989,0.9672,1.0064,1.0174,0.97856,1.0122,1.0064,0.99836,0.98769,0.97925,1.0183,0.9854,0.99708,0.96269,0.95077,0.99102,1.0146,0.99576,0.98789,0.97011,0.97551,0.95503,0.97926,0.97937,0.96276,0.95305,0.96862,0.98417,0.97671,0.97272,0.97485,0.98163,0.99469,0.9831,0.96598,0.95471,0.94801,0.96513,0.98441,0.96939,0.96266,0.98323,1.0088,0.96585,0.93871,0.95192,0.97693,0.98108,0.96489,0.98089,0.95157,0.94906,0.9722,0.9619,0.95365,0.96301,0.96255,0.96402,0.95548,0.96422,0.95451,0.97042,0.95086,0.95168,0.95042,0.96497,0.95726,0.95799,1.0066,1.0145,1.0144,1.0052,1.0089,1.0296,1.0701,1.029,1.029,1.027,1.0715,1.0717,1.0239,1.0166,0.99716,0.97613,0.93178,0.9173,0.89958,0.93409,0.93745,0.9299,0.93325,0.94192,0.97464,0.98156,0.91559,0.91372,0.93054,0.93103,0.87682,0.78621,0.75104,0.79723,0.88444,1.1323,1.5141,1.9576,2.2437,2.4662,2.6594,2.1848,1.5246,0.95217,0.61572,0.50755,0.38048,0.47626,0.60098,0.76901,0.89418,0.92661,0.91738,0.89874,0.91018,0.93049,0.93766,0.96498,0.9283,0.9321,0.93637,0.95473,0.97846,0.96641,0.94389,0.95344,0.97954,0.95707,0.93933,0.98868,0.97425,1.0067,0.98338,0.96494,0.9473,0.98393,0.98903,0.99979,0.97288,0.99283,0.96216,0.99124,1.0053,0.98433,0.99683,0.97985,0.99599,1.0066,1.0085,0.99068,1.0204,1.0268,1.0065,1.0028,1.0121,1.0159,1.0162,1.0148,1.0185,1.0177,1.0193,1.0292,1.0703,1.0413,1.0483,1.061,1.051,1.0829,1.0968,1.0757,1.0923,1.1042,1.1262,1.1091,1.1176,1.1395,1.1158,1.1012,1.1027,1.0924,1.1199,1.0969,1.0581,1.0653,1.0494,1.0544,1.033,1.0369,1.0604,1.0717,1.0152,1.0262,1.0376,1.0603,1.0702,1.0236,1.0161,1.0169,1.0382,1.0473,1.0276,1.0005,1.043,1.042,1.0235,0.99324,1.0471,1.0401,1.0333,1.0319,1.0274,1.0409,1.0125,1.0243,1.0271,1.0188,1.0395,1.0078,1.0151,1.0158,1.0064,0.99268,0.98482,1.0244,1.0201,1.0195,1.0116,1.012,1.0179,1.0096,1.0142,0.9939,1.0046,1.0186,1.0038,0.9682,0.99928,0.99138,0.97038,0.96837,0.98136,0.97637,0.98027,0.99475,1.0065,1.0115,0.98404,0.97554,1.0029,0.98881,0.98347,0.94526,0.98133,0.96547,0.9798,0.97824,1.0098,0.97877,0.94103,0.95369,0.96691,0.98927,0.97127,0.98225,0.9445,0.97739,0.96393,0.96585,0.98612,0.97079,0.97707,0.95995,0.94543,0.95309,0.95671,0.9698,0.97099,0.95752,0.9636,0.98456,0.97251,0.96048,0.94003,0.97288,1.0323,1.0169,1.0145,0.98829,1.0263,1.0132,1.042,1.0423,1.0368,1.0267,1.0363,1.0313,1.0124,0.99825,0.93457,0.90052,0.92629,0.94928,0.95547,0.9154,0.90273,0.94287,0.98609,0.9434,0.93561,0.94839,0.93272,0.93324,0.91968,0.89001,0.81333,0.77423,0.80721,0.84097,1.0109,1.4152,1.8194,2.1812,2.3078,2.526,2.2596,1.6404,1.0471,0.67389,0.50862,0.40224,0.41079,0.49301,0.64937,0.74028,0.85619,0.88481,0.91808,0.91076,0.91919,0.90815,0.90018,0.89386,0.93836,0.93186,0.91132,0.94628,0.94505,0.97285,0.94277,0.92501,0.93733,0.94306,0.96005,0.94549,0.92174,0.97024,0.95976,0.98472,0.95956,0.94644,0.95995,0.97949,0.96983,0.98178,0.99816,0.94864,0.95791,0.97998,0.9714,0.98682,0.9833,0.98455,0.9795,0.99688,0.99039,0.99333,0.97154,1.0094,1.0133,0.9991,1.0069,1.0209,1.0196,1.041,1.0267,1.0513,1.041,1.0631,1.0287,1.0782,1.0684,1.0859,1.064,1.0718,1.0806,1.0796,1.1117,1.0997,1.1067,1.124,1.1181,1.091,1.0965,1.0886,1.0842,1.0664,1.0523,1.0487,1.0567,1.0591,1.0386,1.0106,1.0272,1.0195,0.99322,0.9911,0.99039,0.98579,1.0331,1.0276,1.0011,1.0068,1.0086,1.0137,1.0173,1.009,1.0091,0.99051,0.98705,1.025,1.0048,0.96656,1.034,1.014,1.0311,0.99655,1.019,0.99997,0.99244,0.98689,1.0149,1.002,1.0066,1.0236,1.0122,0.99805,0.96257,0.99854,1.007,1.0243,1.0099,0.98251,0.98275,0.98775,0.97327,0.99347,0.99668,0.99127,0.98014,0.97146,0.97985,0.98614,0.99362,0.97111,0.97441,0.98085,0.99869,0.95536,0.95805,0.9965,0.97873,1.013,0.98431,0.96413,0.97437,1.011,1.0404,1.0464,1.0278,0.9945,1.0139,1.021,1.0721,1.0676,1.1009,1.0236,1.0557,1.0298,1.0072,1.0098,1.0495,0.97176,0.94663,0.94925,0.95196,0.9585,0.97115,0.93503,0.93744,0.94817,0.95268,0.97589,0.95708,0.94121,0.9403,0.96164,0.92612,0.87258,0.80181,0.80484,0.85059,1.0867,1.4681,1.8448,2.1756,2.3362,2.5802,2.2939,1.6134,1.0279,0.66055,0.58522,0.47673,0.43191,0.44921,0.58794,0.71965,0.88104,0.924,0.89474,0.9257,0.91854,0.95115,0.97431,0.95739,0.94294,0.95387,0.99607,0.96062,0.94695,0.94736,0.97158,0.99772,1.0069,0.95436,0.98012,0.98925,0.98163,0.97324,1.0158,0.98962,0.98639,0.97464,0.98549,0.96917,1.0114,1.0197,0.9794,0.98879,0.99623,0.9936,1.0215,0.9905,0.99939,1.0392,1.025,0.99181,1.0204,1.0275,1.0239,1.0416,1.0427,1.0337,1.0296,1.0358,1.0407,1.0516,1.0699,1.0463,1.0587,1.0932,1.056,1.0567,1.1165,1.1176,1.0884,1.0952,1.1119,1.0995,1.1161,1.1175,1.1255,1.0933,1.1239,1.1061,1.0782,1.0952,1.0797,1.0874,1.0812,1.0287,1.0104,1.0101,1.0119,1.0382,1.0408,1.0212,0.98728,1.0251,1.0104,1.0044,1.0025,0.98844,1.0109,0.97485,0.98848,1.0027,1.0024,1.02,1.0013,1.028,0.98129,0.99472,1.0057,0.99735,1.006,1.0001,1.0143,1.0236,1.0073,0.98833,0.98484,0.99662,1.004,0.99689,0.9918,0.99072,1.002,0.99411,0.98621,0.96988,0.97681,0.98145,0.99499,0.9965,0.97652,0.99096,0.95989,0.98717,0.98756,0.99596,0.99049,0.96115,0.94155,0.98405,0.98585,0.9662,0.96077,0.95735,0.97341,0.99775,0.95549,0.93959,0.94549,0.98325,0.98355,0.99807,0.98113,0.9692,0.99228,1.0148,1.0455,1.0134,1.0104,1.0414,1.0676,1.0625,1.0446,1.0085,1.0405,1.0502,1.0211,1.0195,0.98171,0.95892,0.93374,0.92881,0.94255,0.94232,0.90795,0.91303,0.95938,0.94874,0.90544,0.92814,0.94106,0.9575,0.93754,0.93877,0.89897,0.82657,0.76477,0.78109,0.84584,1.0322,1.224,1.637,2.0787,2.2842,2.5341,2.5699,1.9598,1.3406,0.80925,0.55798,0.45001,0.36819,0.5077,0.64906,0.80802,0.88547,0.94245,0.88898,0.93109,0.8903,0.90791,0.90979,0.92545,0.92033,0.96096,0.94884,0.9601,0.94658,0.9269,0.9425,0.8989,0.96009,0.98469,0.94953,0.94873,0.94824,0.96409,0.95589,0.9813,0.94188,0.95848,0.97465,0.95293,0.96654,0.97064,0.9423,0.95333,0.98016,0.98423,0.97228,0.98329,0.97909,0.96991,0.97406,0.98392,1.0071,0.96018,0.99043,1.0032,0.98994,0.98787,0.97675,1.0023,0.98891,1.0252,1.0083,1.0057,1.0149,1.0377,1.0388,1.0568,1.0314,1.0598,1.0712,1.0773,1.0761,1.0645,1.0833,1.0921,1.0999,1.0608,1.0608,1.0863,1.0933,1.0657,1.0576,1.0511,1.0159,0.99726,1.0428,1.0035,1.0119,1.0108,0.9919,1.0157,0.99789,1.0113,1.0017,1.0065,1.0137,0.96245,0.97217,0.98508,0.99341,0.99935,1.0063,0.99808,0.99819,0.99899,0.99748,0.97581,1.0067,0.9762,0.97021,0.99205,1.0116,0.96217,0.96715,0.9847,0.97245,1.0047,0.97693,0.98771,0.98061,0.97752,0.9593,0.95162,0.9758,0.97644,0.97866,0.98725,0.94997,0.95941,0.96759,0.96919,0.96904,0.98349,0.95062,0.93578,0.96254,0.9746,0.96669,0.95293,0.93415,0.96441,0.94282,0.97663,0.948,0.9327,0.96753,0.95506,0.95968,0.96091,0.94283,0.92634,0.96224,0.94756,0.98637,0.97575,0.94876,0.93773,0.9677,0.95722,0.95169,0.90823,0.97624,0.935,0.93597,0.94337,0.96236,0.95681,0.9429,0.96819,0.96069,0.95259,0.92363,0.94311,0.93117,0.95558,0.93785,0.9752,0.97218,1.0111,1.0141,1.0035,0.97477,1.0107,1.0377,1.0249,1.0323,1.0234,1.033,1.0343,1.0076,0.99079,0.96907,0.92046,0.92546,0.92158,0.9235,0.92431,0.93829,0.91659,0.91132,0.91333,0.91649,0.9247,0.93681,0.92579,0.90819,0.92911,0.89019,0.81095,0.79162,0.75765,0.80576,1.0376,1.3999,1.7804,2.1494,2.369,2.6692,2.383,1.6842,1.3774,0.81529,0.5495,0.46664,0.37571,0.48701
