-2.7935,-2.841,-2.8922,-2.9192,-2.9671,-3.023,-3.0596,-3.1107,-3.1421,-3.1776,-3.2025,-3.2222,-3.243,-3.2553,-3.2617,-3.267,-3.2776,-3.2868,-3.2933,-3.2932,-3.2974,-3.2933,-3.2906,-3.2957,-3.294,-3.2901,-3.2828,-3.2892,-3.2869,-3.2897,-3.2822,-3.2793,-3.271,-3.2778,-3.2717,-3.2603,-3.2575,-3.266,-3.2613,-3.2661,-3.2618,-3.2606,-3.2604,-3.2651,-3.2658,-3.2661,-3.2671,-3.2658,-3.2659,-3.2693,-3.2638,-3.2687,-3.2728,-3.2702,-3.2734,-3.2727,-3.2679,-3.2703,-3.2735,-3.2776,-3.2777,-3.2746,-3.2792,-3.2811,-3.2791,-3.2805,-3.2806,-3.2776,-3.2759,-3.2842,-3.2836,-3.2706,-3.2507,-3.2369,-3.2288,-3.2302,-3.2315,-3.2215,-3.1915,-3.159,-3.1444,-3.1492,-3.1722,-3.1812,-3.2072,-3.2159,-3.229,-3.241,-3.2419,-3.2562,-3.2656,-3.263,-3.2631,-3.2553,-3.2607,-3.2666,-3.2635,-3.2571,-3.2549,-3.2545,-3.2542,-3.2517,-3.2439,-3.246,-3.2591,-3.2616,-3.2257,-3.0564,-2.8435,-2.6101,-2.3703,-2.3704,-2.7204,-3.2917,-3.8343,-3.8011,-3.5985,-3.4913,-3.4033,-3.3134,-3.2632,-3.261,-3.2352,-3.2473,-3.2408,-3.2464,-3.2339,-3.2319,-3.2217,-3.2307,-3.2237,-3.2285,-3.2183,-3.2145,-3.2078,-3.214,-3.2122,-3.2149,-3.2074,-3.211,-3.2126,-3.2111,-3.2005,-3.2011,-3.1965,-3.1968,-3.1859,-3.178,-3.1785,-3.1755,-3.166,-3.1587,-3.1381,-3.1337,-3.1254,-3.1154,-3.0971,-3.0872,-3.0774,-3.058,-3.042,-3.0276,-3.0082,-3.002,-2.9794,-2.9488,-2.9357,-2.9172,-2.8956,-2.8686,-2.8504,-2.8319,-2.8176,-2.8039,-2.7871,-2.7783,-2.7843,-2.7722,-2.7648,-2.7711,-2.782,-2.7944,-2.806,-2.8204,-2.8686,-2.9023,-2.9531,-2.9966,-3.0452,-3.0887,-3.1095,-3.1477,-3.2016,-3.2289,-3.2534,-3.2694,-3.2822,-3.292,-3.3087,-3.3117,-3.3185,-3.3295,-3.3227,-3.3211,-3.3222,-3.3276,-3.3387,-3.332,-3.3366,-3.3352,-3.3377,-3.3316,-3.3266,-3.3304,-3.3267,-3.3212,-3.3149,-3.3058,-3.2977,-3.3014,-3.2976,-3.2952,-3.2938,-3.2941,-3.2958,-3.2874,-3.297,-3.2952,-3.2897,-3.2885,-3.2877,-3.2947,-3.3011,-3.3006,-3.3007,-3.3015,-3.3029,-3.3076,-3.3038,-3.3065,-3.3003,-3.2988,-3.2986,-3.3027,-3.3025,-3.3013,-3.2862,-3.2701,-3.2611,-3.2509,-3.2496,-3.2494,-3.236,-3.2027,-3.187,-3.1681,-3.1804,-3.2039,-3.2157,-3.2327,-3.2417,-3.2543,-3.2632,-3.269,-3.2759,-3.2774,-3.2748,-3.2764,-3.2738,-3.2747,-3.2767,-3.2754,-3.2756,-3.2703,-3.2645,-3.2548,-3.2565,-3.2581,-3.2612,-3.2683,-3.26,-3.1965,-3.0181,-2.9004,-2.696,-2.4588,-2.4104,-2.6904,-3.2318,-3.6771,-3.703,-3.5486,-3.4737,-3.3963,-3.3451,-3.2814,-3.2479,-3.2285,-3.2108,-3.1995,-3.1954,-3.1888,-3.1888,-3.1842,-3.1824,-3.1774,-3.1779,-3.1672,-3.1691,-3.1717,-3.1659,-3.1604,-3.1638,-3.1574,-3.1564,-3.1453,-3.1442,-3.1374,-3.1316,-3.1286,-3.1253,-3.1176,-3.1109,-3.1075,-3.1043,-3.0938,-3.0893,-3.075,-3.0633,-3.0571,-3.0481,-3.0331,-3.017,-3.006,-2.9935,-2.9726,-2.9494,-2.931,-2.9064,-2.8866,-2.8624,-2.8446,-2.8192,-2.8089,-2.7861,-2.7633,-2.7436,-2.7275,-2.7148,-2.7053,-2.7008,-2.6896,-2.6803,-2.6791,-2.6881,-2.6973,-2.7214,-2.7476,-2.7793,-2.8266,-2.8729,-2.925,-2.9723,-2.9987,-3.0325,-3.0774,-3.1088,-3.1404,-3.1565,-3.1764,-3.1943,-3.2122,-3.2176,-3.2295,-3.2352,-3.2404,-3.2388,-3.2448,-3.2431,-3.2444,-3.2459,-3.247,-3.2411,-3.2424,-3.2375,-3.2352,-3.231,-3.2295,-3.2148,-3.2098,-3.207,-3.2011,-3.1968,-3.1912,-3.1927,-3.1988,-3.1981,-3.1958,-3.1945,-3.1952,-3.1943,-3.203,-3.1967,-3.1971,-3.195,-3.1985,-3.2112,-3.2081,-3.2066,-3.2059,-3.2079,-3.2112,-3.2134,-3.2141,-3.2075,-3.2084,-3.211,-3.2096,-3.2077,-3.2039,-3.203,-3.1932,-3.1773,-3.1702,-3.1584,-3.157,-3.159,-3.1539,-3.1424,-3.1138,-3.081,-3.1007,-3.1318,-3.1278,-3.1286,-3.1368,-3.1719,-3.1583,-3.1572,-3.1834,-3.2019,-3.2347,-3.2058,-3.2048,-3.2466,-3.2446,-3.2805,-3.306,-3.2823,-3.2676,-3.2866,-3.2904,-3.2749,-3.2769,-3.3011,-3.3417,-3.3042,-3.1523,-2.966,-2.7443,-2.4234,-2.3383,-2.6111,-2.9233,-3.5299,-3.8953,-3.753,-3.5875,-3.5002,-3.42,-3.3744,-3.3242,-3.2799,-3.313,-3.2692,-3.2407,-3.3232,-3.3419,-3.2972,-3.2871,-3.2765,-3.2808,-3.2599,-3.2639,-3.2726,-3.2198,-3.2393,-3.2805,-3.2939,-3.2848,-3.2737,-3.2967,-3.2886,-3.2959,-3.2894,-3.2556,-3.257,-3.2582,-3.2288,-3.2736,-3.2596,-3.1691,-3.1719,-3.2138,-3.2217,-3.1574,-3.0983,-3.1157,-3.0951,-3.0957,-3.0408,-3.0334,-3.0302,-2.9839,-2.9486,-2.9262,-2.9376,-2.9383,-2.8964,-2.8126,-2.8636,-2.8574,-2.7785,-2.7653,-2.8339,-2.7859,-2.7829,-2.8069,-2.7547,-2.7192,-2.7491,-2.8347,-2.8166,-2.7987,-2.9132,-2.9996,-2.9928,-2.9753,-3.0571,-3.1275,-3.1179,-3.1498,-3.1443,-3.1753,-3.2361,-3.2554,-3.2076,-3.2214,-3.2255,-3.2483,-3.2698,-3.2852,-3.2626,-3.2501,-3.2211,-3.2093,-3.2805,-3.2828,-3.2462,-3.2129,-3.2281,-3.2531,-3.2347,-3.2084,-3.2233,-3.2175,-3.2229,-3.2332,-3.2113,-3.2051,-3.2005,-3.201,-3.1832,-3.1635,-3.1812,-3.2058,-3.2002,-3.1904,-3.1868,-3.1835,-3.1894,-3.1958,-3.1926,-3.193,-3.197,-3.2035,-3.216,-3.2251,-3.2287,-3.2385,-3.2467,-3.254,-3.2584,-3.2608,-3.2647,-3.2658,-3.2663,-3.2667,-3.2674,-3.2691,-3.2722,-3.2689,-3.2702,-3.2704,-3.2653,-3.2655,-3.254,-3.2293,-3.2163,-3.1966,-3.1955,-3.2059,-3.1964,-3.1633,-3.1374,-3.1125,-3.1294,-3.1449,-3.155,-3.1717,-3.1774,-3.1979,-3.2117,-3.2116,-3.2188,-3.2263,-3.2346,-3.2315,-3.2319,-3.2297,-3.2329,-3.2412,-3.2416,-3.2343,-3.2256,-3.2195,-3.2238,-3.2207,-3.221,-3.2242,-3.2324,-3.1892,-3.024,-2.9311,-2.7151,-2.4216,-2.2836,-2.4145,-2.9145,-3.4632,-3.7074,-3.5565,-3.4173,-3.3182,-3.2349,-3.1758,-3.1467,-3.1159,-3.1062,-3.1055,-3.0917,-3.094,-3.0949,-3.0943,-3.0937,-3.0953,-3.0919,-3.0926,-3.0975,-3.1194,-3.1261,-3.123,-3.1264,-3.1279,-3.1226,-3.1295,-3.1228,-3.1272,-3.1276,-3.1385,-3.1462,-3.1411,-3.137,-3.1325,-3.1218,-3.1275,-3.14,-3.156,-3.1511,-3.14,-3.1245,-3.1133,-3.0992,-3.0806,-3.0636,-3.0544,-3.0358,-3.027,-3.0194,-2.9989,-2.969,-2.9412,-2.9118,-2.8926,-2.8725,-2.8484,-2.8318,-2.8593,-2.8937,-2.8822,-2.8609,-2.8491,-2.839,-2.8314,-2.828,-2.8359,-2.8517,-2.88,-2.92,-2.9589,-3.0037,-3.0596,-3.1284,-3.1558,-3.1953,-3.2233,-3.2415,-3.2646,-3.2767,-3.2909,-3.287,-3.2941,-3.2877,-3.2876,-3.2865,-3.2803,-3.2782,-3.2724,-3.2663,-3.2616,-3.2513,-3.2495,-3.2432,-3.2412,-3.2366,-3.2286,-3.2235,-3.2225,-3.2189,-3.2117,-3.203,-3.1938,-3.1852,-3.184,-3.1806,-3.1706,-3.1696,-3.1664,-3.1608,-3.1503,-3.1543,-3.152,-3.1587,-3.161,-3.1565,-3.1512,-3.1538,-3.1565,-3.152,-3.1569,-3.1564,-3.1535,-3.15,-3.1586,-3.1538,-3.1523,-3.1506,-3.1473,-3.1455,-3.1492,-3.1458,-3.1468,-3.1445,-3.1441,-3.1451,-3.1498,-3.1467,-3.153,-3.1646,-3.1669,-3.167,-3.164,-3.1521,-3.1525,-3.1561,-3.1505,-3.1384,-3.1096,-3.0933,-3.0888,-3.1023,-3.1139,-3.1135,-3.1028,-3.0702,-3.057,-3.0627,-3.0938,-3.1175,-3.1327,-3.1555,-3.1777,-3.2008,-3.2057,-3.2234,-3.243,-3.2394,-3.2423,-3.2456,-3.2448,-3.2574,-3.2689,-3.2749,-3.276,-3.276,-3.2806,-3.2839,-3.2885,-3.2925,-3.3083,-3.3221,-3.2936,-3.1915,-3.0183,-2.7905,-2.4942,-2.3655,-2.5433,-3.071,-3.6353,-3.8105,-3.6534,-3.5072,-3.4589,-3.366,-3.2909,-3.262,-3.2346,-3.2143,-3.2073,-3.1952,-3.1868,-3.1838,-3.169,-3.1624,-3.1517,-3.1458,-3.1361,-3.1265,-3.116,-3.1144,-3.107,-3.1019,-3.0986,-3.0865,-3.0763,-3.0713,-3.0664,-3.0561,-3.0498,-3.0419,-3.0342,-3.0251,-3.0146,-3.0038,-2.994,-2.9813,-2.9708,-2.9561,-2.9443,-2.934,-2.9199,-2.9077,-2.9027,-2.8798,-2.8642,-2.8475,-2.827,-2.805,-2.7824,-2.7616,-2.7384,-2.7193,-2.6965,-2.6742,-2.6513,-2.6362,-2.6165,-2.5961,-2.5833,-2.5782,-2.5679,-2.558,-2.5569,-2.5518,-2.5503,-2.5622,-2.5779,-2.6146,-2.6439,-2.684,-2.73,-2.7798,-2.8229,-2.865,-2.8973,-2.9304,-2.9578,-2.9812,-2.9974,-3.0078,-3.0246,-3.035,-3.0411,-3.0465,-3.0569,-3.0562,-3.0558,-3.0575,-3.0652,-3.0665,-3.0633,-3.0631,-3.0619,-3.0602,-3.0589,-3.054,-3.0559,-3.0562,-3.0495,-3.0445,-3.0458,-3.0434,-3.0412,-3.036,-3.0384,-3.0407,-3.0326,-3.0109,-3.0174,-3.0481,-3.0595,-3.0612,-3.063,-3.0633,-3.0688,-3.0757,-3.0885,-3.0975,-3.0998,-3.0941,-3.0961,-3.1006,-3.0964,-3.0922,-3.0894,-3.0865,-3.0726,-3.0753,-3.0854,-3.08,-3.0792,-3.0867,-3.0904,-3.0904,-3.0942,-3.0928,-3.0939,-3.0969,-3.1035,-3.1032,-3.1026,-3.1026,-3.101,-3.1027,-3.1015,-3.1041,-3.1036,-3.1027,-3.1045,-3.1037,-3.1042,-3.1024,-3.1027,-3.1065,-3.1028,-3.1024,-3.0974,-3.0933,-3.0828,-3.0675,-3.0567,-3.0512,-3.0505,-3.0574,-3.0495,-3.0132,-2.9921,-2.978,-2.9941,-3.015,-3.0233,-3.0335,-3.0512,-3.0654,-3.0666,-3.0685,-3.0751,-3.0912,-3.0906,-3.0902,-3.0875,-3.0836,-3.0861,-3.0841,-3.0904,-3.0834,-3.0776,-3.0764,-3.0826,-3.0826,-3.0833,-3.0943,-3.0832,-2.997,-2.8213,-2.5957,-2.3202,-2.1405,-2.2624,-2.7239,-3.2678,-3.5564,-3.5117,-3.3886,-3.2897,-3.2005,-3.1382,-3.0894,-3.0724,-3.048,-3.0483,-3.0402,-3.0369,-3.035,-3.0385,-3.0412,-3.0265,-3.022,-3.0208,-3.0219,-3.0276,-3.0305,-3.0327,-3.0137,-3.0115,-3.0043,-2.9991,-2.9962,-2.9931,-3.0016,-2.993,-2.9814,-2.9765,-2.977,-2.9591,-2.9577,-2.957,-2.9555,-2.9437,-2.9412,-2.9366,-2.926,-2.9143,-2.9184,-2.9154,-2.8964,-2.8764,-2.8691,-2.8577,-2.8323,-2.8108,-2.7932,-2.7781,-2.7646,-2.7353,-2.7188,-2.7006,-2.6684,-2.6613,-2.6516,-2.6497,-2.64,-2.6211,-2.6216,-2.6193,-2.6132,-2.6236,-2.6257,-2.6464,-2.6652,-2.7115,-2.7536,-2.7934,-2.8325,-2.8682,-2.9176,-2.9542,-2.9922,-3.0279,-3.0537,-3.0847,-3.0996,-3.1093,-3.1234,-3.1425,-3.1445,-3.1492,-3.1528,-3.1548,-3.166,-3.1653,-3.1634,-3.1497,-3.1522,-3.1545,-3.1576,-3.1499,-3.1486,-3.1463,-3.1432,-3.135,-3.1324,-3.1305,-3.1321,-3.1311,-3.1279,-3.1191,-3.1229,-3.1263,-3.1249,-3.1221,-3.1166,-3.1208,-3.1166,-3.1126,-3.1204,-3.1217,-3.1247,-3.1224,-3.1177,-3.1159,-3.1207,-3.121,-3.1227,-3.1288,-3.1262,-3.1245,-3.1285,-3.1278,-3.1308,-3.1263,-3.1275,-3.1336,-3.1261,-3.1215,-3.123,-3.1196,-3.1226,-3.1227,-3.122,-3.1181,-3.1174,-3.1156,-3.1148,-3.111,-3.1094,-3.113,-3.107,-3.1098,-3.1049,-3.1057,-3.1137,-3.1111,-3.1065,-3.1065,-3.108,-3.1066,-3.1086,-3.1084,-3.106,-3.1081,-3.1072,-3.1095,-3.1082,-3.1085,-3.1067,-3.1049,-3.1065,-3.1132,-3.1006,-3.0945,-3.1014,-3.1091,-3.1083,-3.1087,-3.1059,-3.1073,-3.1151,-3.1154,-3.1134,-3.1054,-3.1059,-3.1051,-3.0819,-3.0724,-3.0677,-3.0725,-3.076,-3.0645,-3.0343,-3.0064,-2.9962,-3.0046,-3.0262,-3.0343,-3.0452,-3.0596,-3.0693,-3.0761,-3.0875,-3.0904,-3.0919,-3.0887,-3.0906,-3.0891,-3.079,-3.0831,-3.0839,-3.0805,-3.0725,-3.0634,-3.06,-3.0576,-3.0607,-3.0708,-3.0773,-3.0444,-2.8873,-2.6775,-2.4428,-2.1942,-2.1712,-2.2849,-2.7048,-3.2514,-3.5346,-3.4128,-3.283,-3.2225,-3.1232,-3.0752,-3.0364,-3.0251,-3.0077,-3.0175,-2.997,-3.0023,-2.994,-3.0028,-2.9952,-2.9964,-2.9931,-2.9911,-2.9689,-2.983,-2.9734,-2.9638,-2.9537,-2.9627,-2.9664,-2.9697,-2.95,-2.9619,-2.9559,-2.9482,-2.9416,-2.9424,-2.9367,-2.9313,-2.924,-2.9165,-2.903,-2.8967,-2.8855,-2.885,-2.871,-2.864,-2.8531,-2.8286,-2.8204,-2.803,-2.7871,-2.7723,-2.7594,-2.7373,-2.7194,-2.6917,-2.6713,-2.6461,-2.6323,-2.6165,-2.6037,-2.5957,-2.5886,-2.5718,-2.5622,-2.5572,-2.5554,-2.5519,-2.5523,-2.5534,-2.5524,-2.5671,-2.5924,-2.613,-2.6525,-2.6935,-2.7375,-2.7793,-2.8254,-2.8618,-2.9104,-2.9273,-2.9596,-2.989,-3.0123,-3.038,-3.0516,-3.0682,-3.0719,-3.0795,-3.0901,-3.0969,-3.108,-3.1119,-3.1138,-3.1148,-3.1125,-3.1106,-3.1209,-3.1233,-3.123,-3.124,-3.1235,-3.1254,-3.1206,-3.121,-3.1285,-3.1241,-3.1281,-3.1241,-3.1316,-3.144,-3.1476,-3.1396,-3.1432,-3.1425,-3.1563,-3.154,-3.1541,-3.1625,-3.1805,-3.1818,-3.1873,-3.1858,-3.1872,-3.1938,-3.2029,-3.2043,-3.2107,-3.2139,-3.2218,-3.2286,-3.2277,-3.2316,-3.2354,-3.2364,-3.2409,-3.243,-3.2406,-3.2479,-3.2582,-3.2633,-3.2702,-3.2718,-3.2684,-3.2705,-3.2805,-3.2855,-3.2897,-3.2932,-3.2966,-3.3083,-3.3131,-3.3221,-3.3196,-3.3206,-3.3258,-3.3376,-3.3334,-3.3327,-3.348,-3.3518,-3.3582,-3.3547,-3.3546,-3.366,-3.3675,-3.373,-3.3705,-3.3623,-3.3394,-3.3405,-3.3446,-3.3482,-3.3302,-3.3165,-3.3152,-3.284,-3.2786,-3.2909,-3.2986,-3.3002,-3.3147,-3.3159,-3.3191,-3.3325,-3.3414,-3.341,-3.335,-3.3286,-3.3269,-3.3315,-3.3266,-3.3252,-3.3035,-3.285,-3.2871,-3.2786,-3.2804,-3.2754,-3.2761,-3.2745,-3.2453,-3.1392,-2.9358,-2.7161,-2.4637,-2.3681,-2.5759,-3.0673,-3.5757,-3.648,-3.4958,-3.423,-3.3408,-3.2776,-3.2083,-3.169,-3.1491,-3.1451,-3.1305,-3.1309,-3.1279,-3.1098,-3.1055,-3.0952,-3.091,-3.0928,-3.0837,-3.0784,-3.0783,-3.0647,-3.0616,-3.0571,-3.0583,-3.0616,-3.0468,-3.0442,-3.0359,-3.0332,-3.031,-3.0278,-3.0177,-3.0027,-2.9938,-2.9901,-2.9799,-2.9732,-2.9516,-2.9444,-2.9396,-2.927,-2.9234,-2.9189,-2.9008,-2.8907,-2.8737,-2.8536,-2.8339,-2.8163,-2.804,-2.7902,-2.7706,-2.7461,-2.7263,-2.7095,-2.6968,-2.6741,-2.6629,-2.6451,-2.6328,-2.6257,-2.6116,-2.6086,-2.6026,-2.6011,-2.6039,-2.6141,-2.635,-2.6598,-2.6917,-2.7077,-2.751,-2.7944,-2.8419,-2.8818,-2.9209,-2.9535,-2.9901,-3.0289,-3.0467,-3.0585,-3.0734,-3.0964,-3.1075,-3.1104,-3.1101,-3.1102,-3.1176,-3.1148,-3.1095,-3.1103,-3.1153,-3.1079,-3.1064,-3.104,-3.1024,-3.0907,-3.0859,-3.0919,-3.0857,-3.0692,-3.0645,-3.0682,-3.0588,-3.0649,-3.0705,-3.0666,-3.0631,-3.0624,-3.0692,-3.0645,-3.0585,-3.0594,-3.0605,-3.0653,-3.0691,-3.0682,-3.0697,-3.0683,-3.0761,-3.0777,-3.0724,-3.0683,-3.066,-3.068,-3.0673,-3.062,-3.063,-3.0687,-3.0626,-3.0591,-3.0579,-3.0586,-3.0553,-3.0644,-3.0638,-3.0592,-3.0643,-3.0701,-3.067,-3.0697,-3.062,-3.0471,-3.0323,-3.0295,-3.0253,-3.0128,-3.0274,-3.0193,-2.9924,-2.9706,-2.9646,-2.9588,-2.9837,-3.011,-3.0204,-3.0318,-3.0447,-3.0596,-3.0713,-3.0899,-3.0997,-3.0996,-3.1003,-3.1092,-3.1106,-3.1187,-3.1151,-3.1203,-3.1191,-3.1218,-3.1189,-3.1217,-3.1273,-3.1261,-3.1403,-3.1524,-3.1184,-2.9856,-2.7819,-2.5674,-2.3072,-2.2477,-2.5247,-3.0489,-3.5813,-3.5876,-3.4543,-3.3809,-3.3061,-3.2805,-3.2137,-3.1701,-3.1519,-3.1342,-3.1274,-3.1251,-3.1171,-3.1189,-3.1101,-3.114,-3.1112,-3.1104,-3.1037,-3.0998,-3.0949,-3.0899,-3.0862,-3.0862,-3.0817,-3.0844,-3.0787,-3.0795,-3.062,-3.0616,-3.0548,-3.0539,-3.0468,-3.0383,-3.0346,-3.0304,-3.0199,-3.0139,-3.002,-2.9947,-2.9884,-2.984,-2.9694,-2.9513,-2.938,-2.9299,-2.9095,-2.8976,-2.8771,-2.8495,-2.8382,-2.819,-2.7921,-2.7622,-2.7438,-2.7192,-2.7018,-2.6809,-2.6701,-2.6519,-2.6426,-2.6273,-2.6305,-2.6221,-2.6191,-2.6191,-2.6354,-2.6539,-2.6764,-2.7097,-2.7484,-2.791,-2.8422,-2.8929,-2.9364,-2.9749,-3.0198,-3.0488,-3.0765,-3.0943,-3.1204,-3.1369,-3.1549,-3.1704,-3.1762,-3.1781,-3.183,-3.1837,-3.1869,-3.1848,-3.184,-3.1821,-3.1843,-3.1785,-3.1753,-3.1785,-3.1694,-3.1659,-3.1647,-3.1554,-3.154,-3.1512,-3.146,-3.1443,-3.1406,-3.1363,-3.1294,-3.1307,-3.1308,-3.1297,-3.1287,-3.1297,-3.1324,-3.1406,-3.1327,-3.1336,-3.138,-3.1409,-3.1409,-3.1427,-3.145,-3.1408,-3.1446,-3.1455,-3.1483,-3.1442,-3.1431,-3.1478,-3.1508,-3.1488,-3.1471,-3.1454,-3.151,-3.1534,-3.1483,-3.1514,-3.1484,-3.1518,-3.1531,-3.1499,-3.1476,-3.1488,-3.145,-3.1431,-3.1427,-3.1405,-3.1401,-3.1387,-3.1274,-3.109,-3.0977,-3.0903,-3.0936,-3.104,-3.0961,-3.066,-3.0296,-3.0139,-3.0291,-3.0536,-3.0733,-3.0872,-3.0968,-3.1119,-3.1217,-3.1244,-3.1315,-3.1399,-3.1443,-3.1483,-3.1436,-3.1481,-3.1436,-3.1463,-3.1505,-3.1511,-3.144,-3.144,-3.1404,-3.1497,-3.1516,-3.164,-3.151,-3.0664,-2.8945,-2.7716,-2.5223,-2.248,-2.2364,-2.563,-3.1462,-3.6806,-3.6495,-3.4598,-3.3675,-3.2642,-3.197,-3.149,-3.1478,-3.1129,-3.1146,-3.1066,-3.1053,-3.0995,-3.1079,-3.0932,-3.0991,-3.0874,-3.0917,-3.0794,-3.0836,-3.0756,-3.0743,-3.0681,-3.0754,-3.0684,-3.0665,-3.0541,-3.0559,-3.0425,-3.0449,-3.0348,-3.0336,-3.0292,-3.0226,-3.0153,-3.0128,-3.005,-2.9964,-2.9886,-2.9814,-2.9749,-2.9604,-2.9427,-2.9261,-2.9139,-2.8981,-2.8777,-2.8579,-2.8342,-2.8137,-2.7931,-2.7684,-2.7387,-2.7151,-2.7039,-2.6843,-2.6663,-2.6391,-2.6277,-2.6166,-2.604,-2.5958,-2.5881,-2.5862,-2.5838,-2.5876,-2.5969,-2.6122,-2.64,-2.6791,-2.7287,-2.7718,-2.8217,-2.8667,-2.891,-2.9345,-2.977,-3.0041,-3.0372,-3.061,-3.0884,-3.1006,-3.1182,-3.1205,-3.1298,-3.1359,-3.1427,-3.141,-3.145,-3.1462,-3.1525,-3.1519,-3.1526,-3.1447,-3.149,-3.1464,-3.1454,-3.1416,-3.1388,-3.1363,-3.14,-3.1377,-3.1394,-3.1316,-3.1238,-3.1279,-3.131,-3.1338,-3.1296,-3.1284,-3.1279,-3.1254,-3.1266,-3.1222,-3.1214,-3.1233,-3.1317,-3.1289,-3.1323,-3.1216,-3.1264,-3.1287,-3.1268,-3.127,-3.1371,-3.142,-3.1273,-3.1336,-3.1372,-3.1355,-3.133,-3.1373,-3.1408,-3.1365,-3.1332,-3.1334,-3.1375,-3.1439,-3.142,-3.1364,-3.1342,-3.1357,-3.1384,-3.137,-3.1297,-3.1325,-3.1367,-3.136,-3.134,-3.1343,-3.1314,-3.1343,-3.1358,-3.1321,-3.1303,-3.1325,-3.1352,-3.1375,-3.1331,-3.1273,-3.1277,-3.1261,-3.1301,-3.132,-3.1272,-3.1277,-3.1247,-3.1309,-3.1287,-3.1306,-3.1304,-3.1328,-3.1299,-3.1235,-3.1101,-3.0934,-3.0838,-3.0858,-3.0937,-3.0908,-3.061,-3.0277,-3.0086,-3.0102,-3.0355,-3.0529,-3.0648,-3.077,-3.0907,-3.101,-3.1017,-3.1136,-3.1158,-3.1232,-3.1252,-3.1236,-3.1239,-3.1269,-3.1246,-3.1225,-3.1223,-3.1183,-3.1121,-3.115,-3.1183,-3.1244,-3.1371,-3.1258,-3.0113,-2.8265,-2.573,-2.284,-2.1933,-2.3998,-2.6392,-3.2038,-3.6833,-3.5638,-3.3918,-3.3075,-3.2213,-3.1481,-3.1211,-3.1012,-3.0931,-3.0905,-3.0896,-3.0839,-3.0845,-3.0808,-3.0831,-3.0751,-3.0739,-3.0694,-3.0707,-3.068,-3.0628,-3.0629,-3.0621,-3.0613,-3.0581,-3.0498,-3.0452,-3.0428,-3.0427,-3.0378,-3.0252,-3.0199,-3.0173,-3.0116,-3.0066,-2.995,-2.9855,-2.9745,-2.9711,-2.9636,-2.9484,-2.9359,-2.9205,-2.909,-2.8911,-2.8739,-2.8572,-2.8365,-2.8175,-2.7962,-2.7698,-2.7535,-2.7259,-2.7074,-2.6881,-2.6633,-2.6453,-2.6304,-2.6234,-2.6108,-2.6063,-2.5904,-2.5775,-2.5732,-2.5742,-2.5751,-2.577,-2.5918,-2.6122,-2.6401,-2.6767,-2.7118,-2.7587,-2.8049,-2.8516,-2.8946,-2.9341,-2.9705,-2.989,-3.0171,-3.0398,-3.0601,-3.0696,-3.082,-3.1004,-3.1019,-3.1069,-3.1118,-3.1116,-3.1133,-3.1195,-3.112,-3.1117,-3.1103,-3.1024,-3.107,-3.0988,-3.1012,-3.1018,-3.0888,-3.0857,-3.0934,-3.0948,-3.0832,-3.0818,-3.089,-3.0825,-3.0802,-3.0819,-3.0807,-3.0825,-3.0797,-3.0809,-3.0816,-3.0877,-3.0827,-3.0823,-3.0722,-3.0752,-3.0795,-3.0854,-3.0906,-3.0873,-3.09,-3.0913,-3.0866,-3.0921,-3.0892,-3.0868,-3.0847,-3.0911,-3.0907,-3.0838,-3.0852,-3.0789,-3.0813,-3.0847,-3.088,-3.0858,-3.0849,-3.0747,-3.0772,-3.0757,-3.0682,-3.069,-3.0749,-3.0752,-3.0766,-3.0816,-3.0819,-3.0819,-3.082,-3.0732,-3.0678,-3.0697,-3.0758,-3.0656,-3.0763,-3.0781,-3.0751,-3.0695,-3.0701,-3.0757,-3.0795,-3.075,-3.0752,-3.0789,-3.0775,-3.0796,-3.0799,-3.0816,-3.088,-3.0842,-3.0703,-3.0557,-3.05,-3.0613,-3.0614,-3.0564,-3.0375,-3.0249,-3.0239,-3.0136,-3.0081,-3.0255,-3.0404,-3.0569,-3.0685,-3.0748,-3.0926,-3.0979,-3.1135,-3.1197,-3.1206,-3.1211,-3.1252,-3.1306,-3.1314,-3.1364,-3.1422,-3.1353,-3.1397,-3.1464,-3.1557,-3.1624,-3.1747,-3.1571,-3.0277,-2.8361,-2.6057,-2.348,-2.2815,-2.5282,-3.0467,-3.5724,-3.6521,-3.5036,-3.4129,-3.3797,-3.3135,-3.2381,-3.2145,-3.2013,-3.1898,-3.1858,-3.1866,-3.1742,-3.1732,-3.1713,-3.1754,-3.1747,-3.1739,-3.1715,-3.1661,-3.166,-3.1665,-3.1683,-3.1734,-3.1743,-3.1742,-3.1683,-3.1661,-3.1573,-3.1624,-3.158,-3.1478,-3.1356,-3.127,-3.1234,-3.1146,-3.106,-3.091,-3.0866,-3.0735,-3.0636,-3.0536,-3.0412,-3.0228,-3.015,-3.0113,-2.9957,-2.977,-2.9653,-2.9501,-2.932,-2.9049,-2.8786,-2.8649,-2.8581,-2.8461,-2.8197,-2.8024,-2.7854,-2.7774,-2.7672,-2.7586,-2.7495,-2.751,-2.7466,-2.7486,-2.7378,-2.7408,-2.7559,-2.7759,-2.8162,-2.8368,-2.8725,-2.9118,-2.9642,-3.0085,-3.0489,-3.0742,-3.1146,-3.1436,-3.1643,-3.1923,-3.1977,-3.2158,-3.2177,-3.2319,-3.2371,-3.2405,-3.2359,-3.241,-3.2484,-3.2409,-3.2455,-3.2435,-3.2432,-3.246,-3.2464,-3.2376,-3.2303,-3.2311,-3.2237,-3.215,-3.2099,-3.2088,-3.2103,-3.2112,-3.2191,-3.2096,-3.2004,-3.1973,-3.2064,-3.2069,-3.2034,-3.1969,-3.1955,-3.1988,-3.203,-3.2056,-3.2111,-3.2075,-3.2169,-3.2157,-3.2121,-3.2102,-3.2058,-3.2067,-3.2095,-3.2057,-3.2046,-3.2032,-3.202,-3.2044,-3.1972,-3.197,-3.1891,-3.1906,-3.1953,-3.1913,-3.188,-3.1855,-3.1756,-3.1768,-3.186,-3.1753,-3.1771,-3.1775,-3.168,-3.1702,-3.166,-3.1658,-3.1508,-3.1329,-3.1304,-3.1246,-3.1278,-3.1254,-3.1026,-3.0895,-3.0746,-3.061,-3.0679,-3.0854,-3.0974,-3.1019,-3.1054,-3.1082,-3.1271,-3.1281,-3.1312,-3.1391,-3.1381,-3.1373,-3.1368,-3.1386,-3.1343,-3.1303,-3.1254,-3.1255,-3.1275,-3.1277,-3.1181,-3.1235,-3.1424,-3.1194,-3.0856,-2.9258,-2.7203,-2.4953,-2.2916,-2.3471,-2.7149,-3.1957,-3.5859,-3.4893,-3.3626,-3.3205,-3.2471,-3.2043,-3.1386,-3.1275,-3.0954,-3.0925,-3.0854,-3.0871,-3.0746,-3.0788,-3.0656,-3.0799,-3.0655,-3.0666,-3.0582,-3.0689,-3.057,-3.0634,-3.0527,-3.0501,-3.0423,-3.048,-3.0483,-3.0397,-3.0296,-3.0323,-3.0148,-3.0103,-3.0077,-3.0005,-2.9965,-2.983,-2.9759,-2.9664,-2.9579,-2.9539,-2.9446,-2.9387,-2.9265,-2.9233,-2.9044,-2.8838,-2.868,-2.856,-2.8386,-2.8212,-2.7986,-2.7795,-2.7716,-2.7504,-2.7246,-2.7077,-2.6941,-2.6789,-2.6644,-2.6568,-2.6523,-2.6403,-2.6305,-2.6247,-2.6306,-2.6357,-2.6503,-2.6729,-2.7,-2.738,-2.7841,-2.8316,-2.854,-2.8928,-2.9368,-2.9722,-3.0131,-3.0449,-3.0706,-3.0868,-3.1046,-3.1202,-3.1375,-3.1463,-3.1508,-3.1512,-3.1531,-3.1575,-3.1573,-3.1545,-3.1438,-3.1436,-3.1465,-3.1502,-3.1503,-3.1483,-3.1461,-3.1332,-3.1385,-3.1192,-3.1119,-3.1028,-3.1059,-3.1053,-3.0997,-3.0968,-3.1072,-3.1022,-3.1042,-3.104,-3.1061,-3.1048,-3.1059,-3.1041,-3.1163,-3.1089,-3.1131,-3.1144,-3.1213,-3.1292,-3.1371,-3.1337,-3.1413,-3.1376,-3.1308,-3.1336,-3.1367,-3.1361,-3.1334,-3.1296,-3.1313,-3.1332,-3.1308,-3.1354,-3.1332,-3.1347,-3.1351,-3.1305,-3.1314,-3.1339,-3.1374,-3.1365,-3.1304,-3.1288,-3.1308,-3.1302,-3.1089,-3.0942,-3.0856,-3.0785,-3.0801,-3.0811,-3.0785,-3.0559,-3.0267,-3.0146,-3.032,-3.0551,-3.0666,-3.083,-3.0929,-3.1083,-3.1105,-3.1222,-3.1276,-3.1371,-3.1361,-3.1393,-3.1399,-3.1407,-3.1553,-3.1437,-3.1399,-3.1385,-3.1388,-3.1424,-3.1405,-3.1433,-3.1492,-3.1674,-3.1618,-3.0656,-2.8884,-2.6426,-2.3378,-2.1675,-2.2653,-2.756,-3.322,-3.6094,-3.5313,-3.3956,-3.3489,-3.2632,-3.19,-3.1553,-3.1328,-3.1186,-3.1246,-3.1188,-3.116,-3.1042,-3.1071,-3.1043,-3.1062,-3.093,-3.0948,-3.0907,-3.0905,-3.0861,-3.0965,-3.0912,-3.0923,-3.0912,-3.0858,-3.0833,-3.0799,-3.0746,-3.0654,-3.062,-3.0553,-3.0486,-3.0363,-3.0297,-3.0248,-3.0188,-3.013,-3.0041,-2.9927,-2.9833,-2.9754,-2.9616,-2.9499,-2.9405,-2.9223,-2.9001,-2.8851,-2.8645,-2.8433,-2.8251,-2.7951,-2.7755,-2.747,-2.733,-2.7126,-2.6974,-2.6827,-2.6672,-2.6509,-2.6442,-2.6381,-2.6331,-2.6289,-2.6254,-2.6303,-2.6463,-2.6706,-2.7049,-2.7461,-2.7818,-2.8251,-2.874,-2.9156,-2.9572,-2.9959,-3.0238,-3.0524,-3.0746,-3.0888,-3.1044,-3.113,-3.1275,-3.1352,-3.1318,-3.1354,-3.1455,-3.1486,-3.154,-3.154,-3.1571,-3.1535,-3.1524,-3.1639,-3.1583,-3.1573,-3.1587,-3.1617,-3.1618,-3.1586,-3.1598,-3.157,-3.1613,-3.1652,-3.1501,-3.1498,-3.1564,-3.1596,-3.1665,-3.1684,-3.1696,-3.165,-3.1712,-3.1728,-3.1752,-3.1792,-3.1777,-3.1803,-3.1814,-3.1862,-3.1931,-3.1839,-3.1874,-3.1895,-3.1833,-3.1874,-3.1962,-3.1907,-3.1887,-3.1866,-3.1871,-3.1772,-3.1794,-3.1756,-3.1773,-3.1509,-3.1318,-3.1196,-3.1245,-3.1389,-3.1171,-3.0866,-3.0539,-3.0488,-3.0615,-3.0962,-3.1092,-3.1175,-3.1268,-3.1356,-3.1556,-3.1614,-3.1796,-3.1742,-3.1608,-3.1716,-3.1694,-3.1702,-3.1738,-3.1784,-3.1734,-3.1739,-3.1676,-3.1737,-3.17,-3.1781,-3.1729,-3.1915,-3.1972,-3.1838,-3.0419,-2.8472,-2.5965,-2.2842,-2.1985,-2.4983,-3.0858,-3.6564,-3.6446,-3.4966,-3.4058,-3.3194,-3.2525,-3.2205,-3.2169,-3.1871,-3.1792,-3.1614,-3.1752,-3.1579,-3.1685,-3.1598,-3.1785,-3.1607,-3.1746,-3.1661,-3.1693,-3.1507,-3.1657,-3.1549,-3.1643,-3.1754,-3.1549,-3.1485,-3.1572,-3.1702,-3.161,-3.1495,-3.1448,-3.1459,-3.1398,-3.1275,-3.1248,-3.1205,-3.1065,-3.1232,-3.085,-3.0728,-3.0519,-3.0433,-3.0471,-3.027,-3.0105,-2.9949,-2.9703,-2.9482,-2.935,-2.8987,-2.8796,-2.8507,-2.8287,-2.8067,-2.7864,-2.7536,-2.7357,-2.7153,-2.711,-2.6933,-2.6902,-2.6749,-2.6706,-2.6698,-2.6817,-2.6961,-2.7078,-2.7319,-2.7783,-2.8123,-2.8499,-2.8964,-2.9454,-2.9826,-3.0177,-3.0417,-3.069,-3.0882,-3.1152,-3.1263,-3.1491,-3.1412,-3.1413,-3.1592,-3.1588,-3.1602,-3.1586,-3.1512,-3.1485,-3.1708,-3.1641,-3.1699,-3.1636,-3.1558,-3.1501,-3.1479,-3.1527,-3.1456,-3.1441,-3.1418,-3.1188,-3.1216,-3.1212,-3.1223,-3.1425,-3.1388,-3.1278,-3.1139,-3.1136,-3.1159,-3.1195,-3.1199,-3.1036,-3.1175,-3.1137,-3.1034,-3.0944,-3.0904,-3.0762,-3.0682,-3.0698,-3.0772,-3.0586,-3.0386,-3.0247,-3.0098,-3.0224,-3.0655,-3.0579,-3.0716,-3.0835,-3.1004,-3.1085,-3.122,-3.1338,-3.134,-3.1335,-3.146,-3.1532,-3.1453,-3.1508,-3.1469,-3.1484,-3.1443,-3.1335,-3.1336,-3.1333,-3.1367,-3.1432,-3.1421,-3.1644,-3.172,-3.1085,-2.9578,-2.7476,-2.4905,-2.3026,-2.4081,-2.8479,-3.3105,-3.6169,-3.5063,-3.4061,-3.3678,-3.2767,-3.2596,-3.1997,-3.1778,-3.144,-3.1324,-3.1233,-3.1454,-3.1196,-3.1069,-3.1024,-3.1009,-3.1035,-3.0932,-3.0882,-3.0974,-3.0789,-3.0918,-3.0874,-3.0815,-3.0716,-3.0776,-3.0753,-3.0879,-3.076,-3.0708,-3.0601,-3.0505,-3.0464,-3.0404,-3.0243,-3.0272,-3.0194,-3.0158,-3.0051,-2.9882,-2.9746,-2.9566,-2.9377,-2.9252,-2.919,-2.9089,-2.884,-2.8583,-2.8448,-2.8101,-2.8091,-2.785,-2.7528,-2.7302,-2.7017,-2.6922,-2.664,-2.6639,-2.6516,-2.6493,-2.6274,-2.6117,-2.6183,-2.6364,-2.661,-2.6502,-2.6825,-2.7018,-2.7572,-2.8053,-2.8496,-2.8977,-2.9379,-2.9711,-3.0006,-3.0362,-3.0632,-3.0806,-3.1134,-3.1151,-3.12,-3.1422,-3.1573,-3.1575,-3.1554,-3.1565,-3.1655,-3.1876,-3.1613,-3.1516,-3.1645,-3.1668,-3.1591,-3.1506,-3.1646,-3.1498,-3.1538,-3.1452,-3.1488,-3.1329,-3.1346,-3.1251,-3.128,-3.1321,-3.14,-3.1338,-3.14,-3.1371,-3.1414,-3.1462,-3.1566,-3.1438,-3.1461,-3.1585,-3.1651,-3.1635,-3.1611,-3.1678,-3.1775,-3.1727,-3.1813,-3.1756,-3.1804,-3.1774,-3.1676,-3.1635,-3.1555,-3.1516,-3.1349,-3.1246,-3.1416,-3.1292,-3.0888,-3.0754,-3.0586,-3.0888,-3.1303,-3.1207,-3.1337,-3.1492,-3.1582,-3.1591,-3.1753,-3.1908,-3.1878,-3.1882,-3.194,-3.1934,-3.1857,-3.2016,-3.1983,-3.1923,-3.2057,-3.2016,-3.2035,-3.2076,-3.2003,-3.199,-3.2029,-3.2064,-3.1809,-3.0589,-2.8641,-2.6329,-2.3807,-2.3075,-2.3809,-2.8128,-3.3223,-3.6704,-3.5722,-3.4794,-3.4282,-3.3367,-3.2763,-3.2121,-3.2083,-3.1734,-3.1886,-3.1671,-3.1862,-3.1745,-3.1849,-3.1612,-3.1741,-3.1634,-3.1768,-3.1648,-3.174,-3.1661,-3.1734,-3.1616,-3.1636,-3.1548,-3.1645,-3.1524,-3.1519,-3.1344,-3.1307,-3.1229,-3.1206,-3.1063,-3.0909,-3.0868,-3.0821,-3.074,-3.0663,-3.0509,-3.0339,-3.029,-3.0278,-3.0103,-3.0077,-2.9785,-2.9524,-2.9577,-2.9224,-2.9092,-2.8933,-2.8674,-2.8581,-2.8288,-2.8084,-2.7813,-2.7545,-2.7579,-2.7528,-2.7569,-2.7364,-2.7284,-2.7152,-2.7129,-2.7155,-2.7456,-2.756,-2.7924,-2.819,-2.8761,-2.9118,-2.9742,-3.0294,-3.0679,-3.1049,-3.1446,-3.1789,-3.2184,-3.2193,-3.2432,-3.2616,-3.2695,-3.2923,-3.3006,-3.3084,-3.3168,-3.3275,-3.3352,-3.3397,-3.3554,-3.3403,-3.3431,-3.3481,-3.3602,-3.3555,-3.3469,-3.34,-3.3562,-3.3538,-3.3272,-3.3277,-3.3525,-3.3365,-3.3349,-3.3305,-3.3266,-3.3052,-3.3154,-3.315,-3.3167,-3.3263,-3.3216,-3.3126,-3.3119,-3.3193,-3.3096,-3.3017,-3.3056,-3.3014,-3.3069,-3.3113,-3.3047,-3.3022,-3.304,-3.3024,-3.3062,-3.298,-3.2895,-3.2801,-3.2922,-3.285,-3.2892,-3.2864,-3.2793,-3.2817,-3.2682,-3.2712,-3.2679,-3.2778,-3.2606,-3.2493,-3.2506,-3.2392,-3.2525,-3.2597,-3.2613,-3.257,-3.2352,-3.2238,-3.2368,-3.2535,-3.2554,-3.2492,-3.2239,-3.2412,-3.2774,-3.2824,-3.2734,-3.2714,-3.2715,-3.2844,-3.2793,-3.2803,-3.2855,-3.2804,-3.2806,-3.2827,-3.2953,-3.2817,-3.2826,-3.3026,-3.3098,-3.2999,-3.3065,-3.3044,-3.2903,-3.2861,-3.2761,-3.3157,-3.3002,-3.2795,-3.2793,-3.2957,-3.2938,-3.2899,-3.2682,-3.2515,-3.2402,-3.2603,-3.2466,-3.2395,-3.2249,-3.2154,-3.2209,-3.2193,-3.1866,-3.1712,-3.1768,-3.2238,-3.2302,-3.2139,-3.2101,-3.1981,-3.195,-3.1907,-3.1802,-3.1411,-3.1573,-3.1799,-3.1376,-3.1372,-3.1496,-3.1593,-3.1318,-3.1311,-3.1266,-3.1212,-3.1226,-3.1461,-3.1358,-3.1474,-3.1672,-3.1663,-3.1677,-3.181,-3.1986,-3.191,-3.1888,-3.188,-3.1809,-3.1912,-3.207,-3.1867,-3.1665,-3.1726,-3.1567,-3.1397,-3.1425,-3.1805,-3.2049,-3.1474,-3.0032,-2.7837,-2.5123,-2.2605,-2.2446,-2.506,-3.094,-3.6163,-3.6023,-3.4293,-3.35,-3.2674,-3.2,-3.1577,-3.1302,-3.1064,-3.1091,-3.1056,-3.1069,-3.1005,-3.1079,-3.103,-3.0967,-3.081,-3.0907,-3.0862,-3.0808,-3.083,-3.0947,-3.0864,-3.0842,-3.1024,-3.1032,-3.095,-3.0896,-3.0884,-3.0853,-3.081,-3.0668,-3.0673,-3.0663,-3.0595,-3.0611,-3.0537,-3.0418,-3.0381,-3.028,-3.0207,-3.0131,-2.9927,-2.9857,-2.973,-2.9642,-2.9463,-2.921,-2.9005,-2.892,-2.8718,-2.8508,-2.823,-2.7977,-2.7767,-2.7621,-2.7395,-2.7222,-2.7013,-2.6836,-2.6763,-2.6648,-2.6535,-2.6435,-2.6328,-2.6295,-2.6306,-2.6328,-2.6477,-2.6594,-2.6879,-2.7278,-2.7626,-2.8027,-2.8449,-2.888,-2.929,-2.9622,-2.9946,-3.02,-3.048,-3.0651,-3.071,-3.0804,-3.0857,-3.0987,-3.0996,-3.101,-3.1041,-3.1031,-3.1019,-3.1017,-3.1044,-3.0968,-3.0926,-3.0984,-3.0956,-3.0901,-3.088,-3.0885,-3.0845,-3.0885,-3.0847,-3.0822,-3.0799,-3.0767,-3.0797,-3.0797,-3.0792,-3.0756,-3.0784,-3.0819,-3.0832,-3.0861,-3.0752,-3.0704,-3.0734,-3.0725,-3.0678,-3.0635,-3.0692,-3.0686,-3.0729,-3.0739,-3.0744,-3.074,-3.0712,-3.0803,-3.0856,-3.088,-3.0884,-3.0862,-3.0909,-3.0961,-3.0948,-3.0924,-3.091,-3.097,-3.1017,-3.0935,-3.0954,-3.097,-3.1034,-3.1067,-3.1097,-3.109,-3.115,-3.1221,-3.1209,-3.1187,-3.12,-3.126,-3.1286,-3.1266,-3.1212,-3.1213,-3.1201,-3.1224,-3.1252,-3.1227,-3.1196,-3.1217,-3.1241,-3.1249,-3.1214,-3.1115,-3.1018,-3.1048,-3.1074,-3.1045,-3.0902,-3.0905,-3.0946,-3.0981,-3.096,-3.0904,-3.0844,-3.0808,-3.0842,-3.0813,-3.0685,-3.063,-3.0661,-3.0629,-3.0615,-3.0564,-3.0597,-3.071,-3.0818,-3.0828,-3.0751,-3.0727,-3.0975,-3.1065,-3.0979,-3.0785,-3.0983,-3.1172,-3.1087,-3.0882,-3.0775,-3.081,-3.0813,-3.0716,-3.073,-3.0707,-3.0572,-3.0502,-3.0463,-3.0405,-3.0466,-3.058,-3.0655,-3.0702,-3.0763,-3.0762,-3.0889,-3.1051,-3.1209,-3.1273,-3.1289,-3.1359,-3.1311,-3.1318,-3.1289,-3.136,-3.132,-3.1296,-3.1307,-3.1342,-3.1335,-3.1422,-3.1498,-3.1448,-3.0558,-2.8832,-2.631,-2.3596,-2.2502,-2.4006,-2.8797,-3.4386,-3.6914,-3.5203,-3.3727,-3.3082,-3.2022,-3.1623,-3.143,-3.1321,-3.1214,-3.1211,-3.1091,-3.1113,-3.1138,-3.1114,-3.1049,-3.105,-3.095,-3.0963,-3.0919,-3.0909,-3.0876,-3.0804,-3.0721,-3.0691,-3.0678,-3.0665,-3.0604,-3.0605,-3.0593,-3.0551,-3.0464,-3.039,-3.0341,-3.0304,-3.0252,-3.0217,-3.0131,-3.0028,-3.0012,-2.9978,-2.9861,-2.9664,-2.9567,-2.9504,-2.9327,-2.9195,-2.9035,-2.8874,-2.868,-2.8576,-2.8329,-2.8075,-2.784,-2.76,-2.7361,-2.7161,-2.6932,-2.6776,-2.6678,-2.6519,-2.6386,-2.6204,-2.6113,-2.6122,-2.6107,-2.615,-2.6242,-2.6342,-2.6579,-2.6937,-2.7365,-2.7748,-2.8064,-2.862,-2.9268,-2.9721,-3,-3.0418,-3.0815,-3.1102,-3.133,-3.1316,-3.149,-3.167,-3.1953,-3.1985,-3.1934,-3.2002,-3.2013,-3.2043,-3.2079,-3.2124,-3.2196,-3.2286,-3.2228,-3.2201,-3.2315,-3.2209,-3.2315,-3.225,-3.2244,-3.2284,-3.2215,-3.2153,-3.231,-3.2307,-3.2201,-3.2189,-3.2183,-3.2174,-3.2161,-3.2145,-3.2219,-3.2216,-3.2083,-3.2186,-3.2197,-3.2032,-3.2118,-3.213,-3.2097,-3.2051,-3.2087,-3.2194,-3.2261,-3.2218,-3.2231,-3.225,-3.2087,-3.2114,-3.2156,-3.2165,-3.2297,-3.218,-3.203,-3.2142,-3.216,-3.2157,-3.2164,-3.2189,-3.2219,-3.222,-3.2203,-3.2099,-3.2079,-3.2137,-3.2167,-3.2211,-3.2303,-3.2051,-3.2108,-3.2091,-3.2119,-3.2077,-3.2044,-3.2127,-3.213,-3.2215,-3.2079,-3.2172,-3.2208,-3.2291,-3.2147,-3.2141,-3.2114,-3.2205,-3.2187,-3.2226,-3.2163,-3.2088,-3.1922,-3.1981,-3.1985,-3.1941,-3.1959,-3.1846,-3.182,-3.1872,-3.1842,-3.1857,-3.1935,-3.1888,-3.1775,-3.175,-3.1877,-3.1877,-3.1872,-3.1838,-3.1794,-3.166,-3.1653,-3.163,-3.1563,-3.1641,-3.1571,-3.1586,-3.1344,-3.1449,-3.1287,-3.1181,-3.1121,-3.0947,-3.0909,-3.0828,-3.0631,-3.0599,-3.0904,-3.091,-3.0952,-3.0892,-3.0988,-3.1112,-3.1261,-3.1148,-3.1201,-3.1325,-3.1339,-3.1335,-3.145,-3.1497,-3.1685,-3.1804,-3.1823,-3.1836,-3.1892,-3.1954,-3.2225,-3.2347,-3.2409,-3.1461,-2.9626,-2.745,-2.5069,-2.3654,-2.4767,-2.8781,-3.4081,-3.7167,-3.5963,-3.4875,-3.4296,-3.3599,-3.3146,-3.2749,-3.2785,-3.2654,-3.2533,-3.2399,-3.2103,-3.2026,-3.22,-3.2288,-3.2257,-3.2227,-3.2232,-3.2149,-3.2217,-3.2251,-3.2179,-3.2048,-3.2025,-3.1924,-3.1977,-3.2,-3.1872,-3.194,-3.1976,-3.1897,-3.188,-3.1791,-3.1829,-3.1785,-3.1809,-3.1613,-3.1415,-3.1383,-3.1234,-3.1224,-3.1136,-3.0967,-3.0778,-3.0637,-3.0525,-3.0196,-2.9878,-2.9779,-2.9562,-2.942,-2.9193,-2.9066,-2.8879,-2.8638,-2.8376,-2.818,-2.8169,-2.812,-2.7851,-2.7636,-2.7611,-2.7618,-2.7582,-2.7651,-2.7608,-2.7494,-2.7605,-2.7903,-2.8177,-2.8263,-2.8804,-2.9361,-2.9799,-3.0248,-3.0616,-3.0974,-3.1311,-3.1547,-3.1769,-3.2015,-3.2345,-3.2715,-3.2894,-3.2802,-3.2822,-3.2792,-3.3158,-3.3351,-3.3256,-3.3358,-3.3424,-3.3485,-3.3532,-3.3575,-3.329,-3.3423,-3.3374,-3.3544,-3.3596,-3.3456,-3.3169,-3.3122,-3.3171,-3.3101,-3.3161,-3.3138,-3.3084,-3.3295,-3.3402,-3.3408,-3.3381,-3.3315,-3.3305,-3.3444,-3.3345,-3.3396,-3.3487,-3.3483,-3.3732,-3.3889,-3.3702,-3.3864,-3.4057,-3.4076,-3.3918,-3.3912,-3.4176,-3.4355,-3.4167,-3.4114,-3.4198,-3.4133,-3.4159,-3.4029,-3.4065,-3.4115,-3.3987,-3.3982,-3.3996,-3.4034,-3.405,-3.3992,-3.3982,-3.4099,-3.4173,-3.3972,-3.3895,-3.3915,-3.3888,-3.4026,-3.4059,-3.4052,-3.4122,-3.3968,-3.3956,-3.3885,-3.3773,-3.3593,-3.3749,-3.3492,-3.3558,-3.3758,-3.3795,-3.3669,-3.3631,-3.3545,-3.3589,-3.3531,-3.3639,-3.3538,-3.3518,-3.3213,-3.3152,-3.3161,-3.3128,-3.3229,-3.3201,-3.3021,-3.289,-3.2885,-3.2811,-3.2904,-3.2887,-3.29,-3.206,-3.0183,-2.7981,-2.537,-2.3839,-2.3373,-2.6477,-3.1957,-3.7486,-3.7448,-3.5992,-3.5636,-3.4834,-3.4538,-3.3967,-3.4224,-3.4287,-3.4694,-3.4853,-3.5145,-3.5283,-3.5503,-3.5557,-3.6034,-3.6016,-3.6298,-3.661,-3.7122,-3.736,-3.7754,-3.7872,-3.8203,-3.8408,-3.8726,-3.8834,-3.9016,-3.8976,-3.9045,-3.8996,-3.9055,-3.8937,-3.875,-3.8608,-3.8552,-3.841,-3.8256,-3.8047,-3.781,-3.7461,-3.7139,-3.6736,-3.6366,-3.6065,-3.5585,-3.5237,-3.4943,-3.451,-3.4,-3.3537,-3.3112,-3.274,-3.2398,-3.2002,-3.1657,-3.1433,-3.116,-3.0831,-3.0635,-3.0372,-3.0136,-2.9938,-2.9853,-2.9733,-2.9753,-2.9855,-2.9971,-3.0203,-3.061,-3.0879,-3.1319,-3.1802,-3.2225,-3.2585,-3.2984,-3.3178,-3.3284,-3.357,-3.37,-3.3883,-3.3935,-3.3988,-3.4037,-3.4107,-3.4156,-3.4258,-3.4166,-3.4223,-3.4199,-3.4203,-3.4183,-3.4126,-3.4083,-3.4092,-3.3992,-3.4047,-3.3968,-3.403,-3.3914,-3.4044,-3.3929,-3.393,-3.3961,-3.394,-3.3881,-3.4008,-3.3872,-3.3951,-3.3958,-3.4039,-3.408,-3.4125,-3.4142,-3.4171,-3.4169,-3.417,-3.4211,-3.421,-3.4205,-3.424,-3.4208,-3.4225,-3.4203,-3.4173,-3.4157,-3.4191,-3.4122,-3.411,-3.4055,-3.4047,-3.3907,-3.3866,-3.3874,-3.3775,-3.3743,-3.3706,-3.368,-3.3578,-3.3542,-3.353,-3.352,-3.347,-3.3326,-3.3135,-3.291,-3.2836,-3.29,-3.2939,-3.2811,-3.2505,-3.223,-3.2028,-3.2206,-3.2399,-3.2578,-3.2638,-3.2602,-3.265,-3.281,-3.2803,-3.2834,-3.2887,-3.2906,-3.2897,-3.29,-3.2913,-3.2917,-3.29,-3.2813,-3.2775,-3.2721,-3.2709,-3.272,-3.2721,-3.2793,-3.2834,-3.2942,-3.2582,-3.0789,-2.8424,-2.5267,-2.2426,-2.23,-2.6174,-3.2237,-3.7186,-3.6654,-3.5332,-3.4455,-3.3406,-3.2899,-3.2459,-3.2346,-3.2109,-3.2199,-3.2026,-3.2091,-3.1912,-3.1924,-3.178,-3.1856,-3.1737,-3.1795,-3.164,-3.1677,-3.1542,-3.1595,-3.1543,-3.1562,-3.1412,-3.1446,-3.1331,-3.1312,-3.1178,-3.1181,-3.1138,-3.1129,-3.1065,-3.0914,-3.0777,-3.081,-3.0645,-3.0638,-3.0523,-3.037,-3.0234,-3.0136,-2.9963,-2.9838,-2.9647,-2.9497,-2.9295,-2.9125,-2.8904,-2.8587,-2.8425,-2.8207,-2.7915,-2.771,-2.7409,-2.7173,-2.6946,-2.6762,-2.6586,-2.6449,-2.6305,-2.6227,-2.6196,-2.6187,-2.6081,-2.6163,-2.64,-2.6616,-2.7042,-2.7368,-2.763,-2.8135,-2.8616,-2.9126,-2.9597,-2.9947,-3.0297,-3.0576,-3.0848,-3.1024,-3.1153,-3.1311,-3.1422,-3.1436,-3.1566,-3.1526,-3.1626,-3.1648,-3.1692,-3.1646,-3.1655,-3.1698,-3.1675,-3.1667,-3.1689,-3.1639,-3.1662,-3.1608,-3.1583,-3.1539,-3.1506,-3.1464,-3.1475,-3.1438,-3.1369,-3.1308,-3.1335,-3.1269,-3.1294,-3.1275,-3.1282,-3.1215,-3.1212,-3.1245,-3.1251,-3.12,-3.1166,-3.1211,-3.1209,-3.1226,-3.1287,-3.1231,-3.1259,-3.1255,-3.1328,-3.1302,-3.1332,-3.1306,-3.1345,-3.1297,-3.1321,-3.1313,-3.1265,-3.1281,-3.1281,-3.1259,-3.1276,-3.1231,-3.1221,-3.1222,-3.1205,-3.1203,-3.1199,-3.1182,-3.1244,-3.1217,-3.1205,-3.1194,-3.1225,-3.1195,-3.1188,-3.1157,-3.1212,-3.1181,-3.1198,-3.1201,-3.1204,-3.1191,-3.1254,-3.1282,-3.1258,-3.1234,-3.1207,-3.121,-3.1187,-3.1187,-3.1252,-3.1222,-3.1213,-3.1212,-3.1149,-3.1005,-3.0879,-3.0838,-3.0829,-3.0958,-3.0853,-3.0475,-3.0237,-3.0088,-3.033,-3.0516,-3.0608,-3.0781,-3.074,-3.098,-3.1028,-3.1165,-3.1176,-3.123,-3.1231,-3.1248,-3.1238,-3.1258,-3.1263,-3.124,-3.1214,-3.1169,-3.1162,-3.1188,-3.121,-3.1267,-3.1304,-3.1469,-3.1201,-2.9619,-2.7434,-2.6009,-2.1555,-2.0572,-2.3485,-2.6439,-3.2488,-3.5751,-3.477,-3.3582,-3.2822,-3.1991,-3.152,-3.1299,-3.1132,-3.1073,-3.1095,-3.104,-3.0946,-3.0836,-3.0911,-3.0844,-3.0892,-3.0778,-3.0773,-3.0696,-3.072,-3.067,-3.0691,-3.062,-3.0621,-3.0581,-3.0503,-3.0421,-3.0376,-3.0309,-3.0282,-3.0184,-3.0084,-3.0017,-2.9978,-2.9913,-2.9788,-2.9745,-2.9716,-2.9592,-2.9499,-2.9413,-2.9317,-2.9185,-2.9043,-2.8868,-2.8673,-2.8506,-2.8321,-2.812,-2.7902,-2.7688,-2.7449,-2.7214,-2.696,-2.6793,-2.6565,-2.6419,-2.6326,-2.6197,-2.6046,-2.5954,-2.5807,-2.5739,-2.5673,-2.5686,-2.5672,-2.5827,-2.5985,-2.6261,-2.661,-2.7015,-2.743,-2.7898,-2.8312,-2.8793,-2.9189,-2.9551,-2.9683,-3.0015,-3.0169,-3.033,-3.0523,-3.062,-3.0715,-3.0795,-3.0893,-3.0943,-3.0903,-3.092,-3.0996,-3.098,-3.0982,-3.0987,-3.1003,-3.0994,-3.0975,-3.0966,-3.0968,-3.0924,-3.0898,-3.0886,-3.0913,-3.085,-3.0808,-3.0758,-3.0691,-3.0688,-3.0698,-3.0722,-3.0678,-3.0673,-3.0687,-3.0664,-3.0637,-3.0656,-3.0662,-3.0684,-3.0673,-3.0721,-3.0762,-3.0749,-3.0751,-3.0849,-3.0787,-3.0805,-3.0855,-3.0853,-3.0874,-3.0853,-3.0896,-3.0814,-3.0831,-3.0866,-3.0806,-3.081,-3.0789,-3.0763,-3.0803,-3.0745,-3.0726,-3.0736,-3.0715,-3.0718,-3.0727,-3.0727,-3.0732,-3.0718,-3.0728,-3.0765,-3.0734,-3.0737,-3.0729,-3.0739,-3.073,-3.0757,-3.0799,-3.075,-3.0775,-3.0772,-3.0807,-3.0812,-3.0838,-3.0825,-3.0813,-3.0842,-3.0816,-3.0785,-3.0845,-3.0857,-3.0824,-3.0809,-3.0873,-3.0859,-3.0844,-3.084,-3.0857,-3.0864,-3.0862,-3.0838,-3.0795,-3.0842,-3.0851,-3.0842,-3.0831,-3.088,-3.0854,-3.0798,-3.079,-3.0809,-3.0782,-3.0819,-3.0803,-3.0807,-3.0779,-3.0764,-3.0787,-3.074,-3.076,-3.074,-3.0782,-3.0755,-3.0754,-3.0608,-3.0471,-3.0456,-3.0476,-3.0471,-3.0416,-3.0283,-3.0236,-3.005,-2.995,-3.0092,-3.0282,-3.0375,-3.0391,-3.038,-3.0421,-3.0503,-3.0645,-3.071,-3.0682,-3.0715,-3.0738,-3.0727,-3.0719,-3.069,-3.0724,-3.0693,-3.0714,-3.0682,-3.0751,-3.0869,-3.0955,-3.0838,-2.9581,-2.7616,-2.7561,-2.3404,-2.0745,-2.0813,-2.3907,-3.0139,-3.4838,-3.4336,-3.2886,-3.2397,-3.1383,-3.1123,-3.0658,-3.0671,-3.0358,-3.0597,-3.0338,-3.0474,-3.0215,-3.0376,-3.0173,-3.0347,-3.0184,-3.0291,-3.0108,-3.0255,-3.0067,-3.0242,-3.0075,-3.0181,-3.0052,-3.012,-3.0011,-3.0048,-2.9859,-2.9859,-2.9768,-2.9751,-2.9627,-2.9628,-2.9559,-2.9512,-2.9467,-2.9435,-2.9307,-2.9257,-2.9104,-2.9066,-2.8902,-2.878,-2.8613,-2.8474,-2.8318,-2.8148,-2.798,-2.7808,-2.7597,-2.7388,-2.7176,-2.6946,-2.6873,-2.6669,-2.6519,-2.6357,-2.6234,-2.605,-2.6014,-2.5886,-2.584,-2.579,-2.5741,-2.5713,-2.579,-2.5814,-2.6036,-2.6191,-2.6524,-2.6807,-2.7231,-2.7621,-2.7871,-2.8195,-2.8657,-2.8967,-2.935,-2.9552,-2.9819,-2.9975,-3.0239,-3.0305,-3.0434,-3.0466,-3.0554,-3.052,-3.0619,-3.0605,-3.0612,-3.0564,-3.0581,-3.0552,-3.0612,-3.0546,-3.0552,-3.0487,-3.0525,-3.0463,-3.0447,-3.0358,-3.0393,-3.0333,-3.0335,-3.0234,-3.0265,-3.0242,-3.0314,-3.0276,-3.0297,-3.0238,-3.0286,-3.0256,-3.0302,-3.0258,-3.0288,-3.0278,-3.0316,-3.0356,-3.0391,-3.0351,-3.0395,-3.04,-3.0458,-3.0489,-3.0507,-3.0563,-3.0659,-3.0662,-3.0716,-3.0711,-3.074,-3.0735,-3.0747,-3.074,-3.0697,-3.0721,-3.07,-3.0692,-3.0695,-3.067,-3.0661,-3.0661,-3.0645,-3.0636,-3.0631,-3.0629,-3.0619,-3.0624,-3.0594,-3.0564,-3.0562,-3.0559,-3.0561,-3.0563,-3.0531,-3.0531,-3.0541,-3.0568,-3.0577,-3.0575,-3.0547,-3.0549,-3.0563,-3.0615,-3.0531,-3.0547,-3.0552,-3.0587,-3.0542,-3.0552,-3.0513,-3.0517,-3.0525,-3.0559,-3.0526,-3.0557,-3.0511,-3.0559,-3.0556,-3.0537,-3.0497,-3.0536,-3.0493,-3.054,-3.0505,-3.0529,-3.0478,-3.0489,-3.046,-3.0457,-3.044,-3.046,-3.0474,-3.0487,-3.047,-3.0473,-3.0482,-3.0477,-3.0459,-3.0475,-3.0462,-3.0455,-3.033,-3.0252,-3.0239,-3.0277,-3.0258,-3.0196,-2.9972,-2.9988,-2.9768,-2.9664,-2.9691,-2.9935,-2.9997,-3.0051,-3.0021,-3.0135,-3.0255,-3.0328,-3.0386,-3.0393,-3.0397,-3.0357,-3.0372,-3.0391,-3.0381,-3.0329,-3.0373,-3.0353,-3.035,-3.0398,-3.0417,-3.0493,-3.0582,-2.9981,-2.8284,-2.5954,-2.3071,-2.0861,-2.0842,-2.433,-3.0214,-3.4677,-3.385,-3.2637,-3.2012,-3.1135,-3.0668,-3.0277,-3.0211,-3.0091,-3.0166,-3.0052,-3.0056,-2.9931,-2.9967,-2.9848,-2.9942,-2.9845,-2.9887,-2.9774,-2.9829,-2.9769,-2.9873,-2.979,-2.9808,-2.9675,-2.9659,-2.9558
