2.2536,2.2878,2.3145,2.3532,2.3221,2.1989,2.1668,2.2859,2.3319,2.2706,2.2897,2.3398,2.356,2.3,2.2282,2.2088,2.253,2.2746,2.2801,2.2896,2.262,2.2248,2.2913,2.3061,2.31,2.2819,2.3532,2.3687,2.2879,2.2779,2.2601,2.2847,2.2944,2.2891,2.2911,2.2508,2.2465,2.2853,2.3208,2.308,2.2657,2.2679,2.3999,2.4562,2.4251,2.3883,2.3247,2.3266,2.3176,2.3234,2.3036,2.3731,2.3976,2.3927,2.3483,2.2392,2.2344,2.2321,2.3391,2.4083,2.5185,2.4633,2.306,2.2608,2.3985,2.5227,2.4272,2.4183,2.3697,2.4149,2.3956,2.4561,2.4075,2.3814,2.3547,2.3916,2.3888,2.3046,2.3744,2.4186,2.4772,2.4437,2.4683,2.4679,2.4535,2.4114,2.3793,2.3973,2.3827,2.4295,2.4871,2.4817,2.4267,2.3939,2.4324,2.4588,2.5155,2.4696,2.4399,2.4371,2.4426,2.4909,2.5335,2.5898,2.5574,2.5164,2.4764,2.4954,2.5082,2.483,2.4302,2.392,2.4148,2.4594,2.4931,2.485,2.4019,2.289,2.2404,2.3505,2.4335,2.5008,2.515,2.4048,2.3349,2.3383,2.4259,2.4791,2.4809,2.4871,2.4711,2.4207,2.4692,2.4435,2.4474,2.4365,2.5032,2.4884,2.4576,2.4314,2.4394,2.3982,2.3641,2.4079,2.4579,2.464,2.3944,2.315,2.28,2.3229,2.3706,2.3563,2.3585,2.3692,2.3567,2.3963,2.3994,2.3837,2.3318,2.324,2.3364,2.3525,2.3431,2.3187,2.265,2.3301,2.4667,2.7527,3.0126,3.2401,3.4246,3.4706,3.4946,3.3504,3.0385,2.479,2.2199,2.1727,2.1632,2.2286,2.2797,2.3379,2.3438,2.3482,2.3239,2.3068,2.2822,2.2873,2.2666,2.2912,2.312,2.337,2.2485,2.184,2.2376,2.3829,2.45,2.3959,2.3547,2.3169,2.3596,2.355,2.3277,2.3296,2.3243,2.3426,2.3473,2.364,2.3583,2.3517,2.3076,2.2865,2.2998,2.3647,2.3661,2.3794,2.3316,2.2932,2.2819,2.3281,2.3878,2.4046,2.3841,2.3657,2.3211,2.2798,2.2629,2.3131,2.337,2.337,2.3471,2.3588,2.337,2.3101,2.32,2.3801,2.3934,2.3781,2.3589,2.3659,2.3464,2.3507,2.364,2.3726,2.4035,2.4056,2.3737,2.3619,2.3862,2.4032,2.3989,2.3899,2.4381,2.4055,2.3821,2.397,2.4445,2.4906,2.4456,2.4341,2.416,2.433,2.4423,2.4102,2.3801,2.3821,2.4302,2.4457,2.4358,2.4033,2.4,2.3729,2.417,2.4681,2.4665,2.4187,2.4334,2.4402,2.4509,2.3956,2.3769,2.391,2.419,2.4054,2.3771,2.3833,2.3992,2.4553,2.5527,2.5646,2.4452,2.3598,2.4105,2.5196,2.551,2.5313,2.5296,2.5284,2.5199,2.5048,2.4963,2.488,2.4713,2.4319,2.4342,2.4451,2.4338,2.4032,2.4179,2.4343,2.4008,2.3877,2.3349,2.3723,2.4152,2.4061,2.3907,2.34,2.3354,2.3474,2.3888,2.3764,2.3423,2.3671,2.3847,2.3929,2.4329,2.4584,2.4818,2.4941,2.4883,2.4499,2.4673,2.4366,2.4454,2.4115,2.4393,2.4682,2.4922,2.4464,2.3943,2.3749,2.3896,2.3799,2.3753,2.372,2.3415,2.3453,2.3581,2.3733,2.3445,2.3319,2.3388,2.3317,2.335,2.3576,2.3756,2.3564,2.347,2.3268,2.2969,2.3581,2.482,2.6832,2.9265,3.0631,3.2985,3.4287,3.4674,3.513,3.3554,3.0598,2.5069,2.225,2.1206,2.1706,2.2544,2.2956,2.3141,2.3407,2.3323,2.2628,2.2573,2.3388,2.4105,2.3754,2.3648,2.3508,2.3635,2.3549,2.3403,2.3387,2.3323,2.3311,2.3329,2.3287,2.3299,2.3186,2.3051,2.2563,2.2723,2.3263,2.3663,2.3433,2.2841,2.2942,2.3097,2.3522,2.3448,2.3323,2.314,2.3505,2.3711,2.355,2.3443,2.3394,2.3519,2.33,2.3235,2.3151,2.3021,2.2937,2.3162,2.341,2.3681,2.3865,2.3667,2.347,2.348,2.3717,2.3477,2.3122,2.3514,2.4105,2.4452,2.4055,2.3324,2.3259,2.3703,2.4324,2.4182,2.4059,2.4059,2.4142,2.4004,2.4072,2.4185,2.4192,2.4281,2.4473,2.4373,2.4443,2.4528,2.4346,2.4187,2.4218,2.4594,2.4716,2.4497,2.4309,2.4476,2.4872,2.4889,2.4791,2.4669,2.4443,2.4414,2.4614,2.4734,2.4867,2.4877,2.457,2.4421,2.4636,2.5038,2.5158,2.4812,2.4784,2.512,2.5553,2.5272,2.5177,2.5109,2.5118,2.5117,2.5108,2.5164,2.5284,2.5355,2.5306,2.5217,2.5205,2.504,2.4981,2.5271,2.5377,2.5016,2.4978,2.4956,2.4398,2.4024,2.4426,2.5092,2.4892,2.4189,2.4105,2.4458,2.4478,2.4433,2.4113,2.3943,2.387,2.3885,2.3708,2.3309,2.2812,2.3024,2.3385,2.3759,2.3325,2.3268,2.3592,2.3887,2.3618,2.3343,2.37,2.4156,2.4409,2.4071,2.3688,2.3338,2.3514,2.4035,2.4076,2.3734,2.3274,2.3242,2.3782,2.4185,2.3956,2.3661,2.3292,2.2955,2.2906,2.2764,2.2783,2.2719,2.2671,2.2615,2.2601,2.2609,2.2521,2.2564,2.2604,2.26,2.2525,2.2196,2.1973,2.1803,2.1958,2.28,2.3855,2.6136,2.9042,3.2131,3.4183,3.4681,3.4565,3.3339,3.0542,2.8387,2.2844,2.0392,2.048,2.0804,2.1554,2.1768,2.2244,2.1906,2.2144,2.2094,2.2267,2.1849,2.1986,2.1898,2.1925,2.1977,2.2427,2.2414,2.2361,2.2136,2.2143,2.1991,2.222,2.1995,2.1969,2.2044,2.238,2.2371,2.243,2.2245,2.2246,2.2202,2.2347,2.2359,2.2425,2.2314,2.2279,2.2142,2.1865,2.1911,2.2077,2.2102,2.211,2.224,2.2486,2.2181,2.1862,2.2152,2.2583,2.23,2.2009,2.1902,2.2383,2.2691,2.2715,2.2415,2.2157,2.2405,2.253,2.2615,2.2495,2.2307,2.223,2.249,2.2678,2.2572,2.2477,2.2684,2.2951,2.2973,2.2797,2.2701,2.2783,2.3041,2.3102,2.3169,2.3047,2.3157,2.2918,2.2977,2.3139,2.338,2.3571,2.3379,2.3072,2.3284,2.3306,2.3207,2.2982,2.2935,2.3207,2.3479,2.3444,2.3221,2.3058,2.3239,2.3351,2.3578,2.3431,2.3363,2.3237,2.3462,2.3556,2.3488,2.3245,2.3497,2.3696,2.3818,2.3437,2.3104,2.3226,2.3784,2.4087,2.3892,2.367,2.3836,2.371,2.3581,2.3338,2.3692,2.3989,2.4153,2.3833,2.3449,2.3404,2.3723,2.3789,2.3572,2.34,2.3436,2.3386,2.3426,2.3284,2.311,2.2946,2.2935,2.3076,2.3071,2.2877,2.2579,2.2558,2.285,2.2942,2.3104,2.3102,2.3018,2.2897,2.2748,2.272,2.2758,2.28,2.2723,2.2646,2.2297,2.2312,2.2647,2.3058,2.3095,2.2985,2.2763,2.2438,2.2208,2.2335,2.2651,2.287,2.2675,2.2626,2.254,2.2579,2.2596,2.2762,2.278,2.2726,2.2547,2.2458,2.2406,2.2441,2.2565,2.2678,2.268,2.2623,2.2441,2.2583,2.2555,2.2565,2.2424,2.2589,2.2849,2.2814,2.2599,2.2421,2.2362,2.2549,2.255,2.2684,2.2526,2.238,2.2449,2.2568,2.2403,2.2301,2.2426,2.2762,2.2778,2.2536,2.2436,2.2621,2.2767,2.2836,2.2688,2.2616,2.2441,2.2399,2.2444,2.2371,2.2526,2.2589,2.2687,2.2646,2.242,2.24,2.2572,2.2727,2.275,2.2711,2.2495,2.2496,2.2387,2.2484,2.245,2.2485,2.2436,2.2459,2.2564,2.2583,2.2463,2.2435,2.2589,2.2624,2.2276,2.2277,2.2495,2.293,2.2866,2.2756,2.2559,2.2406,2.2458,2.2559,2.2723,2.2711,2.2764,2.2795,2.2981,2.3019,2.3111,2.3195,2.3393,2.3497,2.3546,2.3525,2.3471,2.3403,2.3328,2.3261,2.3227,2.3224,2.3184,2.3013,2.2955,2.2745,2.2345,2.2133,2.2424,2.257,2.2597,2.2364,2.2376,2.2456,2.2589,2.2463,2.2307,2.2142,2.2136,2.2056,2.205,2.2217,2.3058,2.4982,2.7854,3.0498,3.2705,3.3901,3.4064,3.3697,3.1454,2.7871,2.2831,2.0506,2.0694,2.1203,2.1441,2.1583,2.1952,2.2059,2.2145,2.1994,2.2044,2.1934,2.1848,2.1285,2.1564,2.2075,2.2448,2.223,2.2221,2.219,2.2114,2.1804,2.1799,2.1993,2.2105,2.2075,2.1811,2.1532,2.1543,2.1523,2.1752,2.2042,2.1888,2.1835,2.1923,2.2284,2.2408,2.2246,2.2059,2.196,2.1995,2.1937,2.162,2.1435,2.179,2.2205,2.2195,2.2002,2.19,2.1907,2.1859,2.1814,2.1907,2.2051,2.2171,2.2055,2.1867,2.1762,2.1891,2.2241,2.2328,2.2169,2.1901,2.2026,2.2406,2.2581,2.2447,2.2096,2.1866,2.2165,2.2425,2.2521,2.2327,2.2276,2.2575,2.2795,2.2901,2.2875,2.2843,2.2814,2.2835,2.2843,2.2995,2.3115,2.3203,2.3277,2.3145,2.3056,2.3137,2.3255,2.3326,2.3233,2.3033,2.3159,2.3333,2.3341,2.3226,2.3257,2.3394,2.3514,2.353,2.3422,2.3499,2.3537,2.3393,2.3379,2.3653,2.3899,2.373,2.3591,2.377,2.3909,2.4003,2.3944,2.3762,2.3668,2.3819,2.3853,2.3716,2.3533,2.3567,2.3799,2.3567,2.3447,2.3403,2.3547,2.3736,2.3881,2.3859,2.3497,2.3252,2.3237,2.3274,2.3309,2.3131,2.3009,2.3018,2.3103,2.3134,2.3074,2.2905,2.2766,2.266,2.2732,2.2855,2.2898,2.2918,2.2991,2.2856,2.2579,2.2462,2.2526,2.2665,2.2771,2.2735,2.2653,2.2653,2.2826,2.3016,2.2883,2.2748,2.2577,2.2563,2.261,2.2552,2.2444,2.2429,2.2601,2.254,2.2258,2.2255,2.2278,2.2459,2.2906,2.2799,2.2722,2.2762,2.2791,2.2686,2.2637,2.2625,2.261,2.2522,2.2491,2.2557,2.2402,2.2342,2.2365,2.2535,2.2575,2.2552,2.2682,2.2794,2.282,2.2645,2.245,2.2661,2.2826,2.2903,2.2718,2.2453,2.2404,2.2275,2.2374,2.2574,2.2732,2.2748,2.2628,2.2684,2.2564,2.2662,2.2694,2.2719,2.2669,2.2656,2.2757,2.2492,2.2431,2.2753,2.3217,2.3401,2.319,2.323,2.3232,2.342,2.3677,2.3696,2.3699,2.3706,2.3657,2.3438,2.3195,2.335,2.3473,2.3375,2.2982,2.2649,2.2539,2.2469,2.2596,2.2794,2.274,2.251,2.2529,2.2369,2.2269,2.2189,2.2296,2.2357,2.2269,2.2378,2.2311,2.2234,2.2264,2.2654,2.4037,2.688,2.9881,3.2392,3.4095,3.4548,3.3906,3.2364,2.9469,2.4844,2.1014,2.0131,2.0172,2.0717,2.1501,2.218,2.2321,2.2062,2.2026,2.2002,2.2113,2.2103,2.2044,2.1984,2.2113,2.2166,2.2066,2.1818,2.1607,2.1377,2.1851,2.2263,2.2546,2.2386,2.2087,2.1878,2.188,2.1999,2.2118,2.2131,2.2124,2.1974,2.1677,2.1643,2.1943,2.2434,2.2348,2.2275,2.2225,2.2184,2.217,2.2044,2.2074,2.1944,2.1986,2.1949,2.2084,2.2141,2.2082,2.2026,2.2105,2.2315,2.2226,2.2073,2.2076,2.2026,2.2036,2.1847,2.1887,2.2184,2.2339,2.2294,2.2068,2.2052,2.2143,2.2266,2.233,2.2377,2.2367,2.2248,2.2107,2.2167,2.2523,2.2767,2.2727,2.2526,2.2484,2.2692,2.2765,2.2809,2.2785,2.2959,2.2949,2.3025,2.3069,2.3165,2.312,2.3148,2.3163,2.3081,2.3096,2.3021,2.3154,2.3173,2.3202,2.3085,2.3108,2.3214,2.3212,2.3087,2.3346,2.3502,2.3579,2.3371,2.3128,2.3053,2.3267,2.3513,2.3678,2.3727,2.3811,2.3764,2.3552,2.3538,2.3478,2.3635,2.385,2.4019,2.3924,2.382,2.3596,2.3431,2.3352,2.3393,2.3433,2.3424,2.3407,2.3433,2.3282,2.3089,2.3177,2.3308,2.3293,2.3154,2.2814,2.2723,2.2828,2.3051,2.3063,2.3039,2.2833,2.2808,2.2875,2.2767,2.2623,2.2555,2.2674,2.28,2.2778,2.2514,2.2145,2.2089,2.2226,2.2616,2.2767,2.2595,2.2434,2.2563,2.2673,2.2525,2.2476,2.2456,2.2554,2.2673,2.2634,2.2557,2.2439,2.2455,2.2467,2.2443,2.2472,2.2367,2.2366,2.2385,2.2398,2.2424,2.2346,2.2352,2.2333,2.2315,2.2249,2.2253,2.2279,2.2327,2.2435,2.2484,2.2503,2.2399,2.2365,2.2434,2.243,2.2411,2.2321,2.2262,2.2246,2.2298,2.2385,2.2242,2.2191,2.2244,2.2026,2.2062,2.2244,2.2546,2.2474,2.2057,2.1584,2.1786,2.2406,2.2906,2.2683,2.2785,2.3167,2.3373,2.3362,2.3258,2.3299,2.321,2.319,2.3196,2.3385,2.3453,2.343,2.3222,2.2972,2.294,2.2921,2.2633,2.2538,2.2286,2.2336,2.2017,2.1841,2.1939,2.2017,2.2211,2.2306,2.2067,2.1891,2.1853,2.2054,2.2027,2.1936,2.1602,2.1594,2.1841,2.2903,2.446,2.6983,2.9412,3.1791,3.3428,3.3742,3.3197,3.1225,2.9601,2.5799,2.1041,1.9742,1.9763,2.027,2.092,2.1391,2.155,2.1528,2.1453,2.1428,2.1573,2.1369,2.1358,2.1269,2.1274,2.1321,2.1622,2.1553,2.1491,2.1226,2.1331,2.1574,2.128,2.1272,2.1526,2.1762,2.1661,2.1404,2.1438,2.1143,2.1246,2.1351,2.1546,2.1624,2.1609,2.1531,2.132,2.1442,2.1425,2.1367,2.1444,2.1668,2.1824,2.1776,2.1596,2.1363,2.1199,2.1228,2.1273,2.1491,2.1628,2.169,2.1429,2.1249,2.1251,2.1374,2.1643,2.1649,2.1659,2.1693,2.166,2.1651,2.1529,2.1515,2.1612,2.1755,2.1607,2.1422,2.1305,2.1686,2.1983,2.193,2.1861,2.1618,2.1946,2.2174,2.2168,2.2089,2.2231,2.2337,2.2285,2.2183,2.2547,2.2704,2.2572,2.2382,2.192,2.1994,2.255,2.3035,2.2764,2.2487,2.2675,2.3008,2.2903,2.2781,2.2686,2.2456,2.2435,2.2631,2.2747,2.2886,2.2772,2.2724,2.2885,2.3057,2.3157,2.3151,2.3141,2.322,2.3165,2.3078,2.2873,2.2645,2.2373,2.2614,2.2937,2.2997,2.3239,2.3444,2.3553,2.3549,2.3379,2.2823,2.2745,2.2842,2.3008,2.2925,2.2723,2.2677,2.275,2.2675,2.2606,2.2501,2.2372,2.2166,2.1942,2.1966,2.2048,2.2336,2.244,2.2463,2.2543,2.2373,2.2092,2.1859,2.1938,2.2186,2.2515,2.2399,2.2316,2.2172,2.2072,2.212,2.209,2.2031,2.2056,2.1837,2.1755,2.1881,2.1954,2.2047,2.2104,2.1983,2.2001,2.2108,2.2058,2.1921,2.1913,2.2012,2.2048,2.1962,2.2072,2.2109,2.2118,2.2038,2.2218,2.234,2.2434,2.248,2.2485,2.2659,2.2747,2.2847,2.2823,2.2688,2.2571,2.2456,2.2633,2.2867,2.2823,2.2743,2.2535,2.2397,2.2189,2.2144,2.1926,2.1633,2.1567,2.1427,2.1567,2.1909,2.1977,2.193,2.1825,2.1794,2.1835,2.1842,2.1751,2.154,2.1395,2.1154,2.1302,2.177,2.2868,2.5391,2.8281,3.0835,3.2777,3.3564,3.3273,3.1826,3.0374,2.6812,2.1372,1.944,1.9405,1.9674,2.0167,2.077,2.1302,2.1427,2.1308,2.1254,2.1297,2.1014,2.099,2.1152,2.1376,2.1095,2.0988,2.134,2.1593,2.1727,2.1686,2.1527,2.1545,2.1597,2.1629,2.1611,2.1424,2.1456,2.1386,2.1352,2.129,2.1295,2.1305,2.1363,2.1514,2.173,2.1569,2.1515,2.1426,2.1412,2.1309,2.1405,2.1299,2.1287,2.1447,2.1687,2.1583,2.1361,2.1253,2.1141,2.1295,2.1552,2.1715,2.1631,2.1514,2.1475,2.1585,2.1681,2.16,2.1484,2.1477,2.1508,2.1706,2.175,2.1613,2.153,2.1672,2.1746,2.1865,2.1889,2.1791,2.1812,2.1996,2.2028,2.1982,2.1948,2.1821,2.1762,2.1827,2.2214,2.2342,2.2394,2.2573,2.2654,2.271,2.2636,2.2526,2.2532,2.2599,2.2614,2.2615,2.2361,2.2429,2.2474,2.2593,2.2753,2.2754,2.2827,2.2745,2.269,2.2701,2.2797,2.2914,2.3036,2.3054,2.3062,2.3047,2.2779,2.2584,2.2835,2.3181,2.3519,2.3445,2.3417,2.3231,2.3106,2.3242,2.3371,2.3491,2.3464,2.3247,2.3153,2.3124,2.3074,2.3181,2.3229,2.3227,2.3149,2.3079,2.3026,2.2854,2.2573,2.2579,2.273,2.2853,2.2681,2.2526,2.2377,2.2424,2.244,2.2469,2.2509,2.2571,2.279,2.2686,2.251,2.2322,2.2437,2.2448,2.235,2.2362,2.2206,2.2136,2.1988,2.2096,2.2313,2.2296,2.2417,2.2402,2.2398,2.2416,2.2399,2.2455,2.2468,2.2414,2.2155,2.2136,2.2352,2.2782,2.3062,2.3005,2.2951,2.2961,2.3174,2.3414,2.3349,2.3258,2.309,2.3174,2.3303,2.3301,2.2884,2.2554,2.2557,2.2867,2.2996,2.2806,2.2477,2.2306,2.2253,2.2087,2.2025,2.2035,2.2209,2.2133,2.1816,2.1747,2.1802,2.2059,2.2203,2.2169,2.2004,2.1656,2.1642,2.1637,2.2488,2.3995,2.6541,2.9094,3.156,3.3545,3.413,3.3727,3.2224,2.9095,2.3916,2.0094,1.9517,2.0004,2.0808,2.1397,2.1485,2.1684,2.1563,2.1578,2.15,2.1607,2.176,2.1921,2.1848,2.1817,2.1761,2.1678,2.1711,2.1747,2.1933,2.1996,2.1842,2.1725,2.1696,2.1776,2.1784,2.1828,2.1884,2.1904,2.1764,2.1877,2.1849,2.1915,2.1957,2.1757,2.1674,2.1617,2.1795,2.1933,2.2053,2.2103,2.2052,2.1974,2.1958,2.191,2.1912,2.1823,2.1793,2.1701,2.1739,2.186,2.1784,2.1771,2.1671,2.1851,2.2075,2.2218,2.2134,2.1999,2.1946,2.1977,2.2046,2.2044,2.2081,2.2082,2.2081,2.2037,2.2031,2.1951,2.2035,2.2111,2.2354,2.2513,2.2438,2.2236,2.2316,2.2443,2.2642,2.258,2.2694,2.2769,2.2845,2.2841,2.2863,2.2902,2.2823,2.2747,2.2589,2.2516,2.2669,2.2953,2.3056,2.3051,2.299,2.292,2.281,2.271,2.2771,2.2895,2.3011,2.3112,2.3198,2.3167,2.3065,2.2877,2.2844,2.3111,2.3285,2.3401,2.3052,2.2983,2.3104,2.3316,2.3515,2.3298,2.3326,2.3389,2.3448,2.3413,2.3396,2.3217,2.3079,2.2951,2.2905,2.2827,2.2919,2.3043,2.3186,2.3249,2.2927,2.2818,2.2653,2.2439,2.2559,2.2681,2.2689,2.2561,2.247,2.2526,2.2421,2.2212,2.2176,2.2398,2.2395,2.2384,2.1985,2.2028,2.2346,2.2375,2.2344,2.222,2.222,2.2212,2.226,2.2088,2.2042,2.2001,2.2206,2.2228,2.2116,2.1992,2.2015,2.2128,2.2095,2.21,2.1935,2.1941,2.2104,2.2218,2.1997,2.1705,2.1576,2.1845,2.215,2.2139,2.211,2.2022,2.1949,2.1887,2.1852,2.2032,2.2178,2.2215,2.2286,2.2355,2.2511,2.2439,2.2413,2.2554,2.2766,2.2716,2.2763,2.2905,2.2926,2.2926,2.2869,2.2731,2.2424,2.2364,2.2375,2.2189,2.1793,2.159,2.1613,2.1853,2.1893,2.1735,2.1467,2.1588,2.1584,2.1556,2.1542,2.1504,2.1445,2.1434,2.1317,2.1342,2.119,2.0985,2.1568,2.2701,2.469,2.7196,2.9869,3.2448,3.3842,3.349,3.2655,2.9851,2.5646,2.0779,1.9085,1.9149,1.9642,2.0302,2.0634,2.086,2.077,2.1088,2.1113,2.1231,2.0862,2.0927,2.0907,2.1017,2.1042,2.1317,2.1198,2.12,2.0971,2.1066,2.1072,2.1119,2.1017,2.1016,2.0948,2.1021,2.1059,2.109,2.1006,2.1097,2.0992,2.0968,2.0877,2.0976,2.1093,2.115,2.1092,2.1085,2.1105,2.1046,2.0924,2.0991,2.0966,2.1062,2.1057,2.107,2.1135,2.1066,2.1008,2.0927,2.0933,2.0896,2.0838,2.0908,2.1025,2.1153,2.1227,2.1159,2.1209,2.1142,2.1146,2.1123,2.1125,2.1121,2.1262,2.1267,2.1281,2.1078,2.1074,2.1108,2.1348,2.1353,2.1383,2.1257,2.1397,2.1537,2.1658,2.1699,2.1762,2.1816,2.1923,2.1975,2.203,2.197,2.1887,2.1875,2.1846,2.1797,2.1842,2.1967,2.2033,2.1988,2.2115,2.2122,2.215,2.2071,2.216,2.2128,2.2056,2.1948,2.1833,2.1883,2.2185,2.2281,2.2448,2.2327,2.2281,2.2354,2.2577,2.2537,2.2552,2.2503,2.2424,2.2449,2.244,2.2403,2.2409,2.2423,2.2358,2.2253,2.218,2.2356,2.2414,2.2353,2.2321,2.2211,2.2163,2.2152,2.2037,2.1993,2.2019,2.1999,2.1879,2.1688,2.1669,2.1733,2.17,2.1574,2.1621,2.1628,2.1633,2.1547,2.1507,2.1369,2.1332,2.1379,2.1439,2.1529,2.143,2.1354,2.1289,2.1267,2.1358,2.1206,2.1142,2.1233,2.1262,2.1387,2.1386,2.1399,2.1234,2.1069,2.1089,2.1242,2.1393,2.1385,2.1256,2.1183,2.1051,2.0955,2.0963,2.1074,2.1138,2.1162,2.1052,2.0977,2.1157,2.1401,2.1435,2.1339,2.1138,2.1179,2.1152,2.1241,2.1196,2.1199,2.1118,2.1116,2.0991,2.0964,2.0993,2.1111,2.1058,2.1121,2.1196,2.1159,2.1133,2.1065,2.0999,2.1047,2.1098,2.1194,2.1217,2.1253,2.1351,2.1515,2.1521,2.1671,2.1826,2.1997,2.1795,2.1767,2.2017,2.2212,2.2127,2.2051,2.1837,2.1704,2.1591,2.1395,2.118,2.0918,2.0991,2.0816,2.092,2.0889,2.0843,2.0822,2.0742,2.0651,2.0677,2.0569,2.0588,2.0721,2.0616,2.0432,2.0197,2.0301,2.0791,2.1777,2.3334,2.5983,2.8726,3.1194,3.2753,3.2557,3.1973,3.118,2.839,2.4036,1.9547,1.8387,1.8785,1.9351,1.9827,2.0107,2.0402,2.0292,2.0235,2.0093,2.0274,2.0289,2.0325,2.0314,2.0328,2.0269,2.0365,2.0356,2.0314,2.0256,2.0381,2.0369,2.0443,2.0296,2.0363,2.036,2.0384,2.0336,2.0397,2.0423,2.052,2.0369,2.0318,2.0258,2.0282,2.0383,2.0487,2.0518,2.0568,2.0447,2.0596,2.0629,2.0647,2.0575,2.0584,2.0419,2.0375,2.0455,2.0435,2.0461,2.0404,2.0403,2.0345,2.0314,2.0286,2.0493,2.0701,2.077,2.0713,2.0543,2.0529,2.0804,2.0751,2.0709,2.0687,2.0704,2.0701,2.068,2.0724,2.0759,2.0702,2.0897,2.1075,2.1171,2.1103,2.1008,2.1213,2.1408,2.147,2.1485,2.1354,2.1292,2.1355,2.1524,2.1669,2.1699,2.1624,2.1487,2.1501,2.1654,2.1748,2.1799,2.1816,2.1907,2.1858,2.1782,2.1624,2.1705,2.1823,2.193,2.1949,2.1938,2.1933,2.1984,2.197,2.2021,2.2062,2.2192,2.2264,2.2253,2.2262,2.2177,2.2267,2.2407,2.2398,2.2395,2.237,2.2388,2.2248,2.2109,2.1932,2.1963,2.2145,2.2259,2.2334,2.2093,2.2029,2.1976,2.203,2.1939,2.1801,2.1698,2.1602,2.1657,2.1739,2.1692,2.1663,2.1615,2.1472,2.1222,2.1225,2.1154,2.1296,2.1518,2.1625,2.139,2.1182,2.1262,2.1512,2.1553,2.1342,2.1205,2.1211,2.133,2.1321,2.1196,2.1116,2.1112,2.1133,2.1092,2.1098,2.1261,2.1341,2.141,2.1266,2.1136,2.0979,2.1001,2.1087,2.1048,2.092,2.0947,2.1141,2.1362,2.1446,2.1345,2.0935,2.0946,2.1109,2.1276,2.1204,2.1069,2.0885,2.0798,2.1076,2.1121,2.1154,2.1104,2.1146,2.1198,2.1096,2.1021,2.1114,2.1183,2.1149,2.0974,2.0903,2.0887,2.1113,2.1432,2.1425,2.1379,2.1223,2.1323,2.1432,2.1579,2.1826,2.2072,2.2158,2.2266,2.2296,2.2121,2.1991,2.1739,2.1777,2.186,2.1708,2.1337,2.1075,2.114,2.1146,2.1117,2.0855,2.0545,2.075,2.1046,2.1021,2.0815,2.0703,2.0724,2.0799,2.0706,2.0707,2.0643,2.0451,2.0346,2.0781,2.1801,2.408,2.7138,2.9722,3.175,3.2444,3.2755,3.2268,3.0612,2.7568,2.2594,1.8897,1.8265,1.8831,1.9524,1.9944,2.0065,2.0292,2.0293,2.0343,2.0299,2.0364,2.0283,2.0312,2.0274,2.0361,2.0447,2.0478,2.0413,2.0386,2.0336,2.0266,2.0309,2.0271,2.0404,2.0449,2.0359,2.0241,2.0244,2.0375,2.0373,2.0347,2.0402,2.0468,2.0386,2.0371,2.0293,2.027,2.0302,2.0457,2.0491,2.0502,2.0426,2.0379,2.027,2.0298,2.0358,2.0361,2.0381,2.0293,2.027,2.023,2.015,2.0151,2.0144,2.0347,2.0392,2.0557,2.0588,2.0601,2.0526,2.0436,2.0378,2.0407,2.0521,2.0553,2.0646,2.0521,2.048,2.0317,2.0482,2.0623,2.0869,2.0847,2.0777,2.0759,2.0774,2.0788,2.0863,2.1009,2.1055,2.1136,2.1298,2.1214,2.135,2.1306,2.1262,2.1269,2.1313,2.1198,2.1314,2.1307,2.1313,2.1264,2.1444,2.1497,2.1502,2.1399,2.1329,2.1329,2.1431,2.1643,2.1702,2.1811,2.16,2.1498,2.1613,2.1589,2.1685,2.1756,2.2007,2.2187,2.1973,2.1942,2.1813,2.1845,2.1865,2.182,2.1854,2.1841,2.1915,2.1869,2.1757,2.1677,2.1614,2.1565,2.1665,2.1569,2.149,2.1215,2.1166,2.1161,2.1078,2.1167,2.1097,2.1078,2.1287,2.1224,2.1139,2.1174,2.0943,2.0742,2.0647,2.0673,2.0786,2.083,2.0668,2.0818,2.0834,2.078,2.0737,2.0741,2.0692,2.0635,2.0585,2.0496,2.0586,2.0674,2.0616,2.0819,2.0791,2.0743,2.0795,2.0751,2.0998,2.1133,2.1407,2.1443,2.1528,2.1491,2.1281,2.1446,2.1726,2.1773,2.1677,2.1602,2.1481,2.1375,2.1235,2.1201,2.1005,2.0781,2.0595,2.0584,2.0363,2.0332,2.034,2.0188,2.0188,2.0262,2.0393,2.0442,2.0237,2.0128,2.0177,2.03,2.0344,2.0324,2.0171,2.0097,2.0024,2.0786,2.2322,2.515,2.7851,3.0302,3.1914,3.2428,3.1831,3.0065,2.6817,2.1441,1.8199,1.7996,1.8236,1.8903,1.9278,1.9608,1.9958,1.9991,1.9983,1.9889,1.9829,1.9798,2.0068,2.0173,2.0221,2.0196,2.0309,2.0324,2.0275,2.0194,2.0137,2.0093,2.0149,2.0172,2.007,2.0039,1.9952,1.9921,1.9925,1.9998,2.0095,2.0257,2.019,2.0046,2.0126,2.0009,2.0118,2.0163,2.0393,2.0362,2.0221,2.0058,2.0052,2.0092,2.0184,2.016,2.0086,2.0122,2.0131,2.021,2.0365,2.0046,1.9875,2.005,2.0456,2.0557,2.0293,2.0328,2.0536,2.0472,2.0315,2.0201,2.0236,2.03,2.0554,2.0805,2.0733,2.0465,2.028,2.0335,2.0459,2.0705,2.0822,2.0768,2.0749,2.0774,2.0866,2.1027,2.1104,2.1274,2.1382,2.1388,2.1278,2.1399,2.134,2.1335,2.1153,2.1163,2.1172,2.1293,2.1338,2.1421,2.1492,2.1505,2.1546,2.1518,2.1259,2.1161,2.1384,2.1734,2.1778,2.1755,2.1717,2.1751,2.1801,2.174,2.169,2.1727,2.1784,2.1933,2.1965,2.197,2.1948,2.1933,2.1998,2.1929,2.2146,2.223,2.2356,2.2255,2.2172,2.1983,2.1884,2.1742,2.1747,2.1802,2.1831,2.1762,2.1663,2.1582,2.1571,2.1616,2.1555,2.1444,2.1357,2.1476,2.146,2.1373,2.1289,2.1205,2.106,2.0968,2.1165,2.1271,2.1265,2.1279,2.1368,2.1392,2.1311,2.1068,2.1139,2.1214,2.1309,2.1396,2.1352,2.1345,2.1359,2.167,2.173,2.1881,2.1909,2.1772,2.185,2.2,2.2199,2.2231,2.1987,2.1677,2.1494,2.1637,2.1559,2.1447,2.1114,2.0923,2.0794,2.0926,2.1054,2.1019,2.0854,2.076,2.0758,2.0731,2.0684,2.0438,2.0455,2.0544,2.0759,2.0715,2.0492,2.0268,2.0261,2.0754,2.1211,2.261,2.5427,2.8232,3.0974,3.264,3.2931,3.2443,3.0721,2.7279,2.1981,1.8664,1.8329,1.8794,1.9519,1.9819,2.0121,2.0179,2.0277,2.0275,2.0317,2.0251,2.0271,2.0223,2.0291,2.0378,2.0399,2.0398,2.0479,2.0493,2.059,2.0528,2.0409,2.029,2.0345,2.0446,2.0532,2.0462,2.0469,2.051,2.0549,2.0508,2.0464,2.038,2.0459,2.0492,2.0454,2.0349,2.0244,2.0444,2.0642,2.0733,2.0716,2.0606,2.0516,2.049,2.0416,2.039,2.0358,2.0484,2.052,2.0493,2.0287,2.0417,2.065,2.0784,2.0703,2.0651,2.0659,2.0735,2.0824,2.0905,2.0825,2.0622,2.0561,2.0703,2.0851,2.0857,2.0698,2.0747,2.0818,2.0856,2.0862,2.0964,2.1054,2.1067,2.1085,2.0761,2.0986,2.1292,2.166,2.1807,2.1686,2.1686,2.163,2.1661,2.155,2.1502,2.1413,2.1481,2.1539,2.169,2.172,2.1766,2.1597,2.1531,2.143,2.1605,2.1554,2.1673,2.1758,2.183,2.1911,2.1868,2.191,2.1899,2.1872,2.1827,2.1817,2.1881,2.2112,2.2287,2.227,2.2249,2.2221,2.2276,2.2159,2.1888,2.1648,2.1835,2.2161,2.2321,2.2286,2.2243,2.2126,2.2017,2.1877,2.1746,2.1851,2.1866,2.1813,2.1681,2.1509,2.1408,2.1304,2.1372,2.1598,2.1703,2.1617,2.1372,2.1295,2.1346,2.1397,2.1427,2.1402,2.1274,2.1215,2.1138,2.1232,2.1203,2.1061,2.1024,2.1115,2.1225,2.1251,2.1382,2.1284,2.113,2.1095,2.1005,2.1081,2.1054,2.1192,2.1373,2.1633,2.1608,2.1502,2.1526,2.1586,2.178,2.1883,2.1965,2.2104,2.2056,2.2013,2.1937,2.1952,2.2007,2.2235,2.2297,2.2107,2.1905,2.1841,2.1773,2.1566,2.134,2.113,2.1137,2.1147,2.1098,2.101,2.0795,2.0741,2.073,2.0848,2.095,2.1024,2.0928,2.0848,2.0864,2.0889,2.0711,2.0459,2.0484,2.1495,2.3027,2.5794,2.8359,3.0899,3.2729,3.3162,3.2704,3.0915,2.7569,2.2365,1.9852,1.8418,1.8421,1.9158,1.9685,2.0193,2.0385,2.046,2.0381,2.0592,2.0492,2.048,2.0302,2.0494,2.0606,2.0669,2.0713,2.0587,2.0516,2.0489,2.0507,2.06,2.0507,2.0443,2.0454,2.0676,2.0649,2.0716,2.0692,2.0868,2.0929,2.0736,2.0561,2.0524,2.0621,2.0778,2.0801,2.0819,2.0661,2.0588,2.0675,2.0732,2.089,2.0787,2.076,2.0729,2.0803,2.0815,2.0775,2.0707,2.0705,2.0718,2.0739,2.0837,2.0818,2.0896,2.096,2.0926,2.0907,2.0929,2.0963,2.1008,2.1025,2.1058,2.1058,2.1027,2.1129,2.115,2.1156,2.1123,2.117,2.127,2.1322,2.1328,2.1395,2.1426,2.1579,2.1637,2.1679,2.1733,2.1803,2.1875,2.202,2.2012,2.1995,2.204,2.1976,2.2058,2.2056,2.2016,2.208,2.2016,2.2106,2.2096,2.206,2.2,2.1915,2.1902,2.1912,2.2059,2.2322,2.2487,2.2506,2.233,2.1959,2.1927,2.2305,2.2625,2.2814,2.2709,2.2778,2.279,2.2758,2.2687,2.2659,2.2623,2.2641,2.2641,2.2607,2.2567,2.2489,2.2473,2.249,2.2528,2.249,2.23,2.2319,2.2268,2.2302,2.2236,2.2073,2.202,2.1954,2.1993,2.1991,2.1885,2.1822,2.1747,2.1665,2.1401,2.125,2.133,2.1392,2.1438,2.1313,2.1594,2.184,2.1978,2.1758,2.1619,2.1689,2.1715,2.166,2.1657,2.1614,2.1504,2.1467,2.1432,2.1504,2.1475,2.1418,2.1416,2.1535,2.162,2.171,2.178,2.1805,2.1888,2.2071,2.2185,2.2301,2.2422,2.2423,2.2381,2.2462,2.2505,2.2516,2.2483,2.2424,2.2347,2.2171,2.1914,2.1639,2.149,2.1437,2.1305,2.1274,2.1231,2.1218,2.1267,2.1211,2.1219,2.1109,2.1155,2.1213,2.1193,2.1148,2.1059,2.0999,2.1098,2.0821,2.0751,2.13,2.2394,2.3426,2.6314,2.9062,3.123,3.2768,3.2988,3.2353,3.031,2.6883,2.159,1.8338,1.7913,1.8401,1.8938,1.9288,1.9579,1.9701,1.9674,1.9686,1.9677,1.964,1.9682,1.9846,1.9921,1.9979,2.0077,2.0134,2.0147,2.0128,2.016,2.0337,2.0339,2.0214,2.0216,2.0302,2.0316,2.0377,2.044,2.0486,2.0582,2.0465,2.0411,2.0474,2.0712,2.0674,2.0784,2.0794,2.0708,2.0657,2.0807,2.1251,2.1421,2.145,2.1439,2.1446,2.1524,2.1811,2.2094,2.1794,2.1473,2.142,2.1278,2.117,2.0961,2.1061,2.0989,2.052,2.0828,2.1415,2.1462,2.1549,2.1452,2.0839,2.0936,2.1203,2.1297,2.1393,2.1335,2.1594,2.1407,2.1428,2.1581,2.1817,2.1829,2.1762,2.1835,2.1999,2.222,2.1904,2.2164,2.2632,2.226,2.1904,2.1989,2.2155,2.2482,2.2567,2.2328,2.2526,2.268,2.1908,2.2033,2.2294,2.246,2.2533,2.2593,2.2317,2.2167,2.2642,2.255,2.1939,2.2225,2.2288,2.2317,2.2758,2.2811,2.2856,2.2585,2.2609,2.2353,2.2239,2.2321,2.3239,2.3179,2.2926,2.2867,2.2233,2.2077,2.2651,2.3056,2.2524,2.278,2.3657,2.2308,2.1764,2.2362,2.2715,2.2693,2.166,2.225,2.2534,2.282,2.2883,2.2347,2.2259,2.2243,2.202,2.1875,2.2938,2.2621,2.2129,2.1976,2.2007,2.2494,2.2643,2.2732,2.2883,2.2426,2.2469,2.3235,2.2738,2.1954,2.302,2.3507,2.2916,2.2079,2.163,2.2004,2.1818,2.1695,2.1448,2.1835,2.1511,2.1024,2.0955,2.1506,2.0863,2.1108,2.1454,2.0346,2.1046,2.133,2.0793,2.0706,2.1329,2.2143,2.098,1.9957,2.0225,2.0769,2.1608,2.28,2.5498,2.8092,3.0699,3.2581,3.3243,3.2595,3.1101,2.791,2.2777,1.8974,1.8563,1.854,1.9165,1.9827,2.0911,2.0299,2.0526,2.0994,2.0121,2.0955,2.1363,2.057,1.9976,2.0393,2.0662,2.0879,2.095,2.0801,2.0293,2.0431,2.0464,2.0569,2.0612,2.0715,2.0859,2.0816,2.0741,2.0895,2.0566,2.0719,2.0651,2.0743,2.0701,2.0737,2.0886,2.0754,2.0653,2.0745,2.0713,2.0749,2.0749,2.0785,2.0936,2.1075,2.0807,2.0626,2.0623,2.0517,2.0599,2.0589,2.0671,2.0762,2.053,2.0605,2.0641,2.0794,2.0888,2.0755,2.0711,2.0785,2.086,2.0875,2.0753,2.0867,2.0833,2.0956,2.1001,2.0901,2.0961,2.092,2.1037,2.1115,2.1108,2.1263,2.124,2.1426,2.1584,2.1634,2.1621,2.1741,2.1842,2.1815,2.1705,2.1755,2.1845,2.1812,2.1817,2.1815,2.1727,2.1715,2.1772,2.1769,2.1693,2.1737,2.174,2.179,2.1837,2.183,2.1854,2.1831,2.1896,2.1935,2.2038,2.1951,2.2035,2.2059,2.2234,2.2217,2.2281,2.2299,2.2302,2.2407,2.2425,2.2351,2.2288,2.2376,2.244,2.2392,2.2357,2.2267,2.2241,2.2203,2.2213,2.2087,2.2075,2.2004,2.203,2.2015,2.2166,2.2026,2.2093,2.2142,2.2234,2.2242,2.2252,2.2282,2.2563,2.2595,2.2537,2.2526,2.2507,2.2543,2.2565,2.2428,2.2251,2.2069,2.2013,2.1795,2.1567,2.1392,2.1326,2.1315,2.1353,2.1283,2.1245,2.1088,2.1078,2.1106,2.1091,2.1015,2.0987,2.0982,2.1012,2.1034,2.0929,2.081,2.0676,2.0616,2.0666,2.1472,2.2759,2.5469,2.8293,3.0801,3.2691,3.3103,3.2517,3.0743,2.7717,2.2277,1.8959,1.8749,1.8905,1.9502,2.006,2.0253,2.0397,2.051,2.0642,2.0663,2.0651,2.0622,2.0702,2.0765,2.0707,2.0729,2.0728,2.0728,2.0837,2.0804,2.0812,2.0825,2.0819,2.0873,2.0888,2.0783,2.0767,2.0849,2.0799,2.09,2.0805,2.0775,2.0729,2.0801,2.0843,2.0849,2.0741,2.0824,2.0824,2.0865,2.0851,2.0804,2.0781,2.082,2.0764,2.0829,2.0765,2.0797,2.0818,2.0886,2.0881,2.0863,2.085,2.091,2.0982,2.1042,2.0985,2.1018,2.1012,2.1101,2.1101,2.1078,2.1062,2.1095,2.1169,2.1194,2.1139,2.1135,2.1158,2.119,2.1292,2.1266,2.1253,2.1332,2.1414,2.1533,2.1584,2.1587,2.1649,2.176,2.1803,2.1835,2.1746,2.1774,2.1812,2.1814,2.1767,2.1673,2.1686,2.1727,2.177,2.1796,2.1713,2.1682,2.17,2.1781,2.1777,2.1775,2.1772,2.1823,2.1897,2.1942,2.1936,2.1966,2.2037,2.2127,2.2114,2.2127,2.2132,2.216,2.2242,2.23,2.2331,2.2262,2.2267,2.2374,2.2358,2.2362,2.2299,2.2244,2.2294,2.2248,2.2234,2.2133,2.2082,2.2081,2.2005,2.1939,2.1844,2.1813,2.1801,2.1815,2.1725,2.166,2.1595,2.1589,2.1635,2.1562,2.1523,2.1542,2.1707,2.1878,2.191,2.1812,2.1906,2.1967,2.2109,2.225,2.2385,2.2262,2.2215,2.2375,2.2416,2.2419,2.2331,2.2201,2.2134,2.2054,2.1845,2.1439,2.1271,2.1203,2.114,2.1067,2.097,2.0953,2.096,2.0942,2.0893,2.0798,2.0829,2.0863,2.0919,2.0866,2.0817,2.078,2.0748,2.0698,2.045,2.0375,2.103,2.2244,2.4687,2.7522,3.0477,3.2593,3.3344,3.2983,3.1916,2.9046,2.6878,2.1504,1.8686,1.8691,1.8903,1.9747,1.9862,2.0391,2.0292,2.0502,2.0278,2.0532,2.0418,2.0656,2.048,2.059,2.0475,2.0692,2.057,2.0689,2.052,2.0679,2.057,2.0734,2.062,2.0634,2.054,2.0642,2.063,2.0692,2.0548,2.0621,2.0614,2.0731,2.0671,2.0626,2.0601,2.0645,2.0692,2.0706,2.0621,2.0616,2.0641,2.0706,2.0726,2.0674,2.0622,2.0625,2.0688,2.0689,2.07,2.0626,2.0701,2.0741,2.0795,2.0794,2.0771,2.0842,2.0939,2.0956,2.1015,2.0942,2.1,2.1048,2.1129,2.1149,2.112,2.1111,2.1193,2.1239,2.1309,2.1245,2.1335,2.136,2.1509,2.1514,2.1547,2.1586,2.1715,2.1814,2.1889,2.1845,2.1874,2.1867,2.1982,2.1946,2.1974,2.184,2.1893,2.1895,2.1919,2.1879,2.184,2.1822,2.1939,2.1878,2.1911,2.1857,2.1911,2.2007,2.2045,2.2051,2.203,2.2036,2.2156,2.2206,2.225,2.224,2.2235,2.2245,2.2372,2.233,2.2366,2.2334,2.239,2.2427,2.2445,2.2377,2.2374,2.2363,2.2431,2.2334,2.2282,2.2246,2.2237,2.2269,2.2232,2.215,2.2102,2.2019,2.2071,2.1978,2.1935,2.1828,2.18,2.1801,2.1779,2.1719,2.164,2.1583,2.1636,2.1596,2.1545,2.1499,2.1472,2.1489,2.1542,2.1487,2.1424,2.1415,2.1384,2.1469,2.1419,2.1355,2.1333,2.1334,2.139,2.1357,2.1268,2.1284,2.1265,2.1349,2.1301,2.1258,2.1221,2.1234,2.1277,2.1302,2.1271,2.1238,2.1207,2.1295,2.1294,2.127,2.1211,2.1225,2.127,2.1298,2.1233,2.1209,2.119,2.1274,2.1265,2.1252,2.1168,2.1218,2.1211,2.1287,2.1256,2.1227,2.1214,2.1207,2.1255,2.1249,2.1159,2.1194,2.1179,2.1284,2.1263,2.1148,2.1167,2.1209,2.1259,2.1273,2.1136,2.1143,2.1144,2.1227,2.1233,2.1223,2.1162,2.1179,2.1217,2.1244,2.1217,2.1176,2.1178,2.1271,2.1261,2.1224,2.116,2.1217,2.1259,2.1281,2.1198,2.1187,2.1189,2.1214,2.1255,2.127,2.119,2.1213,2.1238,2.1277,2.1272,2.1216,2.1213,2.1267,2.1315,2.1325,2.1219,2.1238,2.1272,2.1403,2.1562,2.1601,2.1647,2.1734,2.1909,2.1995,2.2066,2.2057,2.2163,2.2254,2.2284,2.2274,2.226,2.2284,2.2288,2.2147,2.198,2.1696,2.159,2.1563,2.1398,2.1329,2.1228,2.1149,2.1139,2.1166,2.1126,2.1074,2.1031,2.106,2.1081,2.1071,2.0956,2.0798,2.0751,2.1019,2.1999,2.3678,2.6378,2.9216,3.1699,3.3122,3.2893,3.2674,3.1903,2.9245,2.4877,2.0153,1.8615,1.9156,1.9834,2.0229,2.0439,2.0602,2.0549,2.0692,2.0625,2.0638,2.0581,2.063,2.0687,2.0705,2.0657,2.0648,2.063,2.0681,2.0713,2.0689,2.0622,2.0618,2.061,2.0684,2.0648,2.0617,2.0637,2.0661,2.0729,2.0709,2.0651,2.0679,2.0686,2.0747,2.0737,2.0672,2.0685,2.0673,2.075,2.0742,2.0718,2.0692,2.0715,2.0759,2.0767,2.0727,2.0686,2.0703,2.078,2.0774,2.0737,2.0699,2.0743,2.0843,2.0879,2.0839,2.0828,2.0873,2.0931,2.1014,2.103,2.0967,2.1053,2.1057,2.1189,2.1166,2.1121,2.1157,2.1207,2.1286,2.1357,2.1282,2.1376,2.1429,2.1548,2.1573,2.1579,2.1594,2.1691,2.1813,2.1906,2.1915,2.194,2.1973,2.2084,2.2105,2.2086,2.2048,2.2082,2.2154,2.2173,2.2122,2.2105,2.2117,2.2222,2.2228,2.2193,2.2149,2.2189,2.2269,2.2325,2.2362,2.2322,2.2362,2.2448,2.2499,2.2568,2.2525,2.257,2.2601,2.2656,2.2688,2.2604,2.2642,2.2678,2.2693,2.2707,2.2667,2.2614,2.2587,2.2627,2.2581,2.2553,2.2448,2.2419,2.245,2.2403,2.2333,2.222,2.2176,2.22,2.2133,2.2069,2.1992,2.1972,2.2005,2.1943,2.1906,2.1845,2.1783,2.1802,2.1797,2.1782,2.1664,2.162,2.1656,2.1623,2.161,2.1511,2.1537,2.1542,2.1569,2.1537,2.1465,2.1438,2.1484,2.1475,2.1468,2.1455,2.1408,2.1386,2.1463,2.1395,2.139,2.1345,2.138,2.1444,2.1422,2.1404,2.1327,2.1331,2.1392,2.1379,2.1346,2.1297,2.1326,2.1419,2.1377,2.1347,2.1316,2.1306,2.1332,2.1305,2.1288,2.1237,2.1263,2.1297,2.1383,2.1336,2.125,2.1229,2.1295,2.1322,2.1293,2.1253,2.1273,2.1277,2.1321,2.1268,2.1277,2.1202,2.1186,2.131,2.1282,2.1213,2.1217,2.1192,2.1293,2.1257,2.1241,2.1219,2.1237,2.1287,2.1261,2.1202,2.119,2.1191,2.1371,2.152,2.1552,2.1593,2.1687,2.1811,2.1969,2.2032,2.2009,2.2168,2.2175,2.2294,2.2265,2.2189,2.2214,2.2132,2.2128,2.193,2.1677,2.1552,2.1416,2.1351,2.1264,2.118,2.1192,2.1101,2.1092,2.1075,2.1012,2.0971,2.1008,2.1024,2.1044,2.0921,2.0835,2.0671,2.0694,2.1253,2.2386,2.4404,2.7402,3.019,3.2356,3.3053,3.3155,3.2724,3.1166,2.8054,2.2993,1.9143,1.8507,1.9108,1.9763,2.0245,2.0453,2.0561,2.0536,2.0635,2.0607,2.0533,2.0542,2.062,2.063,2.0703,2.0643,2.0657,2.0632,2.076,2.0702,2.0715,2.0592,2.0565,2.0652,2.0638,2.0659,2.0594,2.059,2.0627,2.0547,2.0594,2.0536,2.0542,2.0577,2.0602,2.0581,2.0522,2.054,2.0613,2.0618,2.056,2.0503,2.0516,2.0504,2.0616,2.0579,2.0468,2.0402,2.0493,2.0481,2.052,2.0427,2.0445,2.0575,2.0545,2.0527,2.0527,2.0542,2.0587,2.0676,2.0713,2.0666,2.0641,2.0678,2.0738,2.0752,2.0726,2.072,2.0773,2.0854,2.092,2.0871,2.0859,2.0911,2.1053,2.1096,2.1126,2.1105,2.1126,2.1231,2.1336,2.1401,2.1385,2.1426,2.1546,2.157,2.157,2.144,2.1479,2.1575,2.1537,2.1488,2.1423,2.144,2.1532,2.1508,2.1521,2.1481,2.1469,2.1526,2.1623,2.1712,2.1732,2.1696,2.1691,2.1779,2.1814,2.1821,2.1803,2.1854,2.1986,2.2005,2.1992,2.1968,2.1934,2.2075,2.2019,2.1977,2.1888,2.1961,2.198,2.1962,2.1873,2.1725,2.179,2.1806,2.1754,2.1691,2.1523,2.1514,2.1464,2.1495,2.1362,2.1326,2.1341,2.1225,2.1277,2.1262,2.1067,2.1099,2.1084,2.1094,2.1071,2.098,2.0944,2.096,2.0925,2.0971,2.088,2.0931,2.0885,2.0924,2.0831,2.0749,2.0767,2.0771,2.0805,2.079,2.0803,2.0717,2.0712,2.0713,2.074,2.069,2.0632,2.0675,2.0659,2.0666,2.0653,2.0596,2.063,2.0653,2.0651,2.0684,2.0601,2.0611,2.0616,2.0618,2.0627,2.0599,2.0575,2.0633,2.068,2.0659,2.0615,2.0583,2.0587,2.0618,2.0645,2.0714,2.0769,2.0875,2.1037,2.1124,2.1166,2.1305,2.1392,2.1529,2.1561,2.1548,2.1543,2.15,2.1651,2.1638,2.1568,2.1358,2.1254,2.1079,2.088,2.0749,2.0558,2.0463,2.0482,2.0443,2.0422,2.0311,2.028,2.0339,2.0343,2.0341,2.029,2.0252,2.026,2.0291,2.0091,1.9919,1.9927,2.071,2.213,2.4514,2.7424,2.9955,3.1864,3.248,3.1919,3.0752,2.7796,2.3011,1.8625,1.7776,1.7878,1.8191,1.8954,1.9313,1.9698,1.9722,1.9746,1.9664,1.9852,1.9787,1.9887,1.9789,1.9867,1.9853,1.9956,1.9873,1.9888,1.9823,1.9931,1.992,1.9942,1.9849,1.989,1.984,1.998,1.99,1.9909,1.9868,1.9896,1.9947,1.9958,1.9911,1.992,1.9912,2.0024,1.9961,1.989,1.9877,1.9889,1.9969,1.9926,1.9904,1.9858,1.9861,1.9912,1.9933,1.9874,1.9842,1.9816,1.9836,1.9861,1.9846,1.9792,1.9835,1.9905,1.9966,1.9973,1.9915,1.9956,2.0019,2.0052,2.0079,2.0004,2.0035,2.0019,2.0125,2.0135,2.0086,2.0107,2.0144,2.0246,2.0281,2.0228,2.03,2.0338,2.0472,2.0511,2.05,2.056,2.0654,2.0753,2.0771,2.0754,2.0734,2.0745,2.0792,2.0775,2.0795,2.0697,2.0742,2.077,2.0808,2.0776,2.0724,2.0747,2.0843,2.0865,2.0864,2.0797,2.0892,2.0956,2.1021,2.1049,2.1048,2.1057,2.1126,2.1207,2.1275,2.1227,2.1269,2.131,2.1417,2.142,2.1387,2.1363,2.1414,2.1458,2.1462,2.1373,2.1371,2.138,2.1394,2.1354,2.1324,2.1196,2.1158,2.1162,2.1089,2.1047,2.0921,2.0879,2.0894,2.084,2.0821,2.0714,2.0685,2.0687,2.068,2.0663,2.056,2.0537,2.0597,2.0563,2.0574,2.0495,2.0471,2.046,2.0492,2.0457,2.0399,2.0353,2.038,2.0452,2.0416,2.037,2.0329,2.0374,2.0404,2.0376,2.0329,2.0305,2.0312,2.0395,2.0344,2.0321,2.0262,2.0259,2.0335,2.0309,2.03,2.0253,2.0221,2.0296,2.0321,2.03,2.0224,2.0209,2.0289,2.0302,2.0297,2.0246,2.0235,2.0319,2.0302,2.0312,2.0246,2.0229,2.0244,2.0319,2.0286,2.0233,2.0229,2.022,2.0268,2.026,2.0208,2.0209,2.0201,2.0288,2.0264,2.0221,2.0218,2.0221,2.0302,2.0287,2.0264,2.0212,2.0198,2.0273,2.0265,2.0235,2.0176,2.0201,2.026,2.0292,2.0252,2.0209,2.0208,2.0276,2.0302,2.0359,2.0438,2.0582,2.0723,2.0795,2.0844,2.0927,2.1021,2.1067,2.1267,2.1245,2.119,2.1253,2.1291,2.1399,2.1311,2.1154,2.1032,2.0819
