0.85091,0.84792,0.86682,0.8787,0.8801,0.88806,0.89597,0.91526,0.91731,0.91954,0.91716,0.91314,0.9197,0.92721,0.90788,0.87954,0.85525,0.82824,0.82299,0.80342,0.78776,0.77157,0.77371,0.77575,0.77274,0.76562,0.75617,0.75788,0.76365,0.76732,0.75758,0.74661,0.74514,0.74646,0.73579,0.72174,0.70368,0.78905,0.96174,1.2537,1.5627,1.8784,2.1277,2.1914,2.1759,2.1292,1.8186,1.317,0.68786,0.45249,0.48498,0.53891,0.60612,0.62684,0.67735,0.67457,0.69454,0.68794,0.70215,0.70426,0.71606,0.69827,0.69919,0.68776,0.71079,0.71095,0.7183,0.69945,0.70947,0.70279,0.72559,0.72218,0.71894,0.70742,0.72211,0.72225,0.72236,0.71124,0.71751,0.72429,0.73189,0.72731,0.72189,0.72005,0.72454,0.73938,0.73598,0.73081,0.72595,0.72654,0.74357,0.73763,0.7313,0.73028,0.73455,0.75149,0.75114,0.74771,0.75187,0.75759,0.77246,0.77969,0.77671,0.77636,0.77685,0.792,0.79677,0.79594,0.79309,0.80417,0.80709,0.82009,0.82066,0.81985,0.82021,0.82928,0.84318,0.84565,0.84614,0.85003,0.85894,0.87408,0.87956,0.88309,0.88412,0.90195,0.91507,0.93257,0.92944,0.9323,0.93825,0.94364,0.93731,0.93796,0.92222,0.93767,0.95324,0.943,0.93583,0.94712,0.93812,0.96316,0.97317,0.96615,0.96988,0.96789,0.97577,0.99124,0.99513,0.96694,0.97249,0.98733,0.98603,1.0048,0.96455,0.94559,0.96919,0.97369,0.9666,0.92424,0.91441,0.92577,0.92279,0.89022,0.86395,0.85966,0.85387,0.85118,0.84353,0.82335,0.81754,0.82325,0.81807,0.81762,0.79742,0.80809,0.81627,0.83757,0.84434,0.83163,0.84625,0.84175,0.86452,0.84763,0.84303,0.8408,0.86149,0.87085,0.86193,0.85358,0.81288,0.81302,0.8164,0.81675,0.80427,0.79691,0.80435,0.82837,0.8205,0.81527,0.80464,0.80736,0.81685,0.81024,0.81411,0.79565,0.79686,0.8123,0.81758,0.81954,0.8041,0.80188,0.80992,0.83514,0.82064,0.81235,0.8172,0.82269,0.83469,0.82196,0.80448,0.80515,0.82198,0.81966,0.82367,0.82282,0.82194,0.84983,0.84903,0.869,0.87313,0.86763,0.87989,0.90676,0.90762,0.90279,0.90254,0.90821,0.92312,0.92461,0.91611,0.89354,0.87557,0.86112,0.84646,0.83025,0.82065,0.7944,0.805,0.80305,0.79719,0.77791,0.78656,0.79593,0.79283,0.78789,0.77457,0.7693,0.77686,0.7645,0.73614,0.70854,0.76204,0.8939,1.1414,1.4387,1.7455,1.9131,2.1141,2.1729,2.1507,1.9423,1.5034,0.94391,0.52559,0.51494,0.57361,0.63794,0.66297,0.70773,0.71735,0.7309,0.7313,0.74561,0.75424,0.75451,0.74655,0.74992,0.74871,0.7634,0.75989,0.76014,0.74247,0.7528,0.75973,0.76537,0.755,0.75107,0.7507,0.75851,0.7572,0.75288,0.75088,0.75395,0.75428,0.75332,0.75013,0.74576,0.74693,0.75103,0.75797,0.75765,0.74865,0.74959,0.75281,0.75947,0.75262,0.74474,0.73546,0.74551,0.76005,0.75274,0.74253,0.74422,0.75516,0.7678,0.77733,0.76694,0.76395,0.77183,0.78555,0.78708,0.78682,0.77559,0.78635,0.79724,0.79935,0.79847,0.79139,0.80077,0.8179,0.81753,0.83031,0.81916,0.82696,0.84258,0.85141,0.85812,0.85867,0.85807,0.88148,0.88721,0.89852,0.89221,0.89847,0.91081,0.92395,0.9174,0.91971,0.91168,0.92867,0.93834,0.93428,0.92442,0.91987,0.9277,0.94606,0.94678,0.94646,0.94186,0.94734,0.96116,0.96099,0.96028,0.95979,0.96127,0.97533,0.97515,0.97242,0.96092,0.9671,0.98116,0.97733,0.97006,0.95644,0.95333,0.96111,0.9584,0.95555,0.94135,0.93064,0.93382,0.93282,0.91878,0.89828,0.89077,0.89313,0.89234,0.87917,0.86498,0.85349,0.85306,0.85877,0.84847,0.83427,0.83503,0.83784,0.83889,0.83303,0.82947,0.81531,0.81988,0.82682,0.82678,0.81812,0.81263,0.81089,0.81845,0.81057,0.80054,0.79465,0.79998,0.81241,0.81023,0.79833,0.79377,0.79071,0.80678,0.80529,0.806,0.78823,0.78562,0.79175,0.79572,0.79449,0.7884,0.79562,0.81051,0.82079,0.82444,0.82332,0.83548,0.84779,0.87003,0.87048,0.8566,0.86715,0.87333,0.8773,0.88109,0.86915,0.85458,0.84449,0.82978,0.80265,0.76878,0.74488,0.73815,0.7343,0.72688,0.71106,0.70623,0.6984,0.70937,0.69783,0.693,0.68586,0.68287,0.68965,0.68364,0.67698,0.64577,0.62883,0.63752,0.73348,0.90047,1.1794,1.4899,1.7992,2.056,2.1316,2.0755,1.863,1.4597,0.84753,0.40579,0.34531,0.41565,0.49785,0.55536,0.56778,0.58865,0.59255,0.61379,0.62824,0.62827,0.61828,0.6197,0.62731,0.63963,0.62715,0.61932,0.61327,0.6173,0.62856,0.63284,0.62013,0.6163,0.62216,0.62684,0.62408,0.62006,0.60788,0.61316,0.62497,0.62403,0.62149,0.61115,0.61457,0.62601,0.62244,0.61502,0.61241,0.61008,0.62619,0.62433,0.61607,0.60297,0.60968,0.6241,0.62843,0.62788,0.61027,0.60692,0.62619,0.63869,0.64174,0.62231,0.62734,0.64741,0.65524,0.6432,0.64159,0.65092,0.67079,0.67619,0.67021,0.6712,0.65906,0.66144,0.6914,0.69372,0.70756,0.70241,0.70337,0.72009,0.71176,0.71786,0.71281,0.72625,0.77813,0.7893,0.80203,0.79703,0.79413,0.81068,0.83456,0.83973,0.83961,0.84998,0.84839,0.82806,0.82028,0.82915,0.84928,0.87719,0.86584,0.82904,0.82474,0.83333,0.85229,0.85421,0.8555,0.85056,0.87948,0.88022,0.86857,0.88081,0.88002,0.88303,0.88343,0.8809,0.89049,0.87651,0.8652,0.85622,0.88282,0.87552,0.845,0.81619,0.82389,0.85354,0.85102,0.82515,0.80129,0.79532,0.81616,0.79243,0.77603,0.77683,0.78631,0.77613,0.74625,0.75608,0.7719,0.7582,0.73367,0.73289,0.73141,0.74132,0.73541,0.74715,0.74024,0.71749,0.71682,0.69917,0.72731,0.7583,0.73222,0.71449,0.74327,0.77522,0.77053,0.74828,0.77195,0.78602,0.80056,0.8453,0.8627,0.8388,0.79072,0.84114,0.85515,0.84998,0.83434,0.83679,0.84033,0.83286,0.80059,0.79783,0.7731,0.7147,0.69607,0.74071,0.76528,0.70658,0.67912,0.71323,0.70454,0.6787,0.68864,0.70643,0.70633,0.68757,0.66045,0.6561,0.66102,0.63694,0.60796,0.66847,0.77707,1.0124,1.3656,1.5335,1.8176,2.0259,2.1115,2.0751,1.8093,1.3755,0.68882,0.36341,0.36942,0.42798,0.47858,0.53089,0.55117,0.58653,0.6107,0.6063,0.60408,0.61085,0.6175,0.63744,0.66263,0.64076,0.58649,0.57706,0.62701,0.63682,0.6164,0.64887,0.65809,0.65994,0.6561,0.65976,0.63826,0.65195,0.70091,0.69739,0.66613,0.70071,0.66603,0.64156,0.66797,0.68219,0.6948,0.67328,0.6662,0.6581,0.70377,0.68868,0.67241,0.66905,0.65882,0.66445,0.66527,0.67706,0.67159,0.66545,0.6876,0.6833,0.69252,0.70233,0.71087,0.72635,0.69141,0.6949,0.69401,0.67793,0.70734,0.69381,0.69597,0.71831,0.6948,0.63159,0.66281,0.7073,0.70782,0.68078,0.67319,0.7037,0.7172,0.70994,0.70842,0.72041,0.72519,0.71719,0.74991,0.7684,0.76199,0.75996,0.75994,0.74423,0.76953,0.81646,0.78869,0.7273,0.7697,0.77636,0.76792,0.77389,0.78564,0.81159,0.81446,0.79365,0.77617,0.79602,0.80202,0.78752,0.81932,0.82821,0.82051,0.82472,0.82654,0.85588,0.85819,0.83451,0.83279,0.84252,0.86012,0.85057,0.82787,0.85597,0.85906,0.82844,0.79954,0.79359,0.79022,0.78437,0.80355,0.78593,0.77884,0.74758,0.72978,0.75086,0.77354,0.73295,0.70921,0.72882,0.75746,0.76445,0.7385,0.73455,0.73292,0.73275,0.75272,0.78803,0.77706,0.78024,0.82064,0.80891,0.79771,0.80733,0.80493,0.81069,0.82593,0.8159,0.79333,0.77233,0.74386,0.72938,0.69121,0.66105,0.66453,0.67706,0.68949,0.67589,0.65561,0.63647,0.63766,0.66125,0.66175,0.65571,0.64801,0.66936,0.62085,0.61314,0.63335,0.6393,0.58358,0.6023,0.72624,0.94298,1.2474,1.4155,1.7415,2.0189,2.0777,2.0552,1.8339,1.4386,0.79379,0.39177,0.3515,0.39421,0.48557,0.52738,0.54462,0.57217,0.56889,0.5875,0.60494,0.60846,0.60621,0.57228,0.56656,0.57695,0.59317,0.63367,0.5976,0.56683,0.58592,0.60117,0.57807,0.59158,0.61855,0.62076,0.59046,0.58678,0.59773,0.59633,0.60561,0.62728,0.62358,0.59164,0.5881,0.60149,0.60736,0.6032,0.6107,0.62578,0.63749,0.6088,0.59964,0.60198,0.61202,0.629,0.61482,0.60204,0.60843,0.62275,0.63661,0.63332,0.65974,0.655,0.63416,0.60872,0.63716,0.64727,0.64288,0.66343,0.68112,0.66563,0.65683,0.65347,0.64077,0.65854,0.67394,0.68539,0.6996,0.70607,0.68374,0.67997,0.69954,0.71531,0.72224,0.71583,0.71739,0.73214,0.7393,0.7378,0.76183,0.75067,0.74877,0.7575,0.75924,0.77587,0.76737,0.77441,0.77017,0.76416,0.78494,0.78693,0.78961,0.78775,0.79326,0.79216,0.76706,0.83001,0.81468,0.79595,0.80661,0.82087,0.83296,0.82059,0.8064,0.82183,0.82644,0.849,0.87584,0.85158,0.81942,0.83764,0.85301,0.83945,0.84968,0.83057,0.7806,0.78839,0.79752,0.79391,0.79164,0.77586,0.76799,0.75489,0.75585,0.75011,0.75607,0.75002,0.751,0.74754,0.72484,0.73641,0.74442,0.74058,0.71799,0.69031,0.69854,0.71171,0.73565,0.69991,0.69964,0.71578,0.7196,0.73402,0.76208,0.75359,0.7325,0.7467,0.77917,0.80858,0.79739,0.77913,0.80722,0.82356,0.80775,0.79742,0.79602,0.7854,0.77385,0.7531,0.72284,0.68965,0.68071,0.68578,0.67894,0.65672,0.66143,0.65285,0.66052,0.66948,0.65986,0.63585,0.63088,0.6514,0.65768,0.64824,0.64341,0.62795,0.60537,0.57454,0.6048,0.71724,0.91605,1.2629,1.6171,1.9148,2.0728,2.0608,2.0279,1.7388,1.2174,0.57443,0.4028,0.43666,0.47103,0.524,0.52386,0.56796,0.60791,0.60671,0.56156,0.59028,0.59455,0.59877,0.59897,0.60806,0.58436,0.58867,0.57865,0.606,0.60304,0.61377,0.59643,0.60137,0.63625,0.65701,0.61506,0.60312,0.59499,0.61831,0.62126,0.61731,0.60436,0.6105,0.60603,0.6207,0.62736,0.61923,0.59997,0.61635,0.64089,0.66652,0.63945,0.61449,0.59511,0.62314,0.62372,0.61985,0.61301,0.63206,0.64327,0.64977,0.64299,0.63481,0.6546,0.68579,0.69539,0.66151,0.6556,0.67105,0.70153,0.70706,0.69913,0.67107,0.68699,0.71591,0.72211,0.71065,0.68601,0.69589,0.71184,0.7352,0.73419,0.72765,0.74747,0.77183,0.77255,0.75282,0.76915,0.78278,0.79941,0.78141,0.78586,0.79524,0.81556,0.79238,0.77311,0.78442,0.78915,0.79246,0.82256,0.82785,0.81374,0.80592,0.81699,0.8326,0.83558,0.84115,0.84903,0.8308,0.83417,0.862,0.86466,0.85053,0.84747,0.85027,0.87423,0.86828,0.86893,0.8507,0.87241,0.87799,0.87301,0.85213,0.84221,0.83319,0.85216,0.84359,0.81786,0.80679,0.807,0.80253,0.79578,0.79952,0.78874,0.77508,0.76922,0.77957,0.78319,0.76404,0.74072,0.74085,0.76132,0.74674,0.73566,0.72277,0.73859,0.75832,0.73766,0.71001,0.70574,0.71067,0.7145,0.72291,0.71578,0.70835,0.70774,0.72327,0.71521,0.71383,0.70337,0.69669,0.70143,0.71208,0.70737,0.68962,0.68707,0.69248,0.70425,0.70609,0.68177,0.68433,0.69956,0.69161,0.69116,0.68851,0.68847,0.69982,0.69676,0.68368,0.67988,0.67868,0.68682,0.7046,0.70497,0.6898,0.67794,0.68943,0.70499,0.70173,0.69913,0.70238,0.68497,0.67854,0.68216,0.67407,0.6833,0.69136,0.71123,0.70783,0.68786,0.66838,0.67188,0.69241,0.68648,0.6723,0.66434,0.67682,0.68146,0.68404,0.67478,0.66857,0.67058,0.69325,0.69491,0.68498,0.67318,0.66743,0.6745,0.68956,0.69328,0.69457,0.68219,0.68549,0.69973,0.68711,0.67946,0.67239,0.66462,0.68929,0.69992,0.6901,0.68247,0.68416,0.68352,0.67971,0.67457,0.68647,0.6912,0.71174,0.71856,0.7232,0.70376,0.7107,0.73782,0.74815,0.75186,0.75363,0.77693,0.78975,0.7837,0.77891,0.78936,0.80408,0.78678,0.77401,0.76703,0.73048,0.71819,0.73208,0.73761,0.70866,0.68244,0.67059,0.66524,0.67372,0.6731,0.6631,0.67485,0.67541,0.66767,0.66977,0.6411,0.61082,0.59044,0.63298,0.7452,0.94247,1.2558,1.6004,1.7755,2.0027,2.0796,2.075,1.9424,1.5882,1.0375,0.51369,0.43676,0.49367,0.55901,0.57817,0.59274,0.60446,0.62046,0.62813,0.62394,0.61854,0.62451,0.61605,0.6177,0.61237,0.61992,0.60719,0.62367,0.62464,0.61271,0.61596,0.60578,0.613,0.62101,0.62705,0.63282,0.6214,0.61763,0.63139,0.6362,0.625,0.60903,0.61382,0.62557,0.63182,0.62846,0.63371,0.62546,0.61293,0.64015,0.64254,0.62255,0.61009,0.62133,0.63853,0.63276,0.63873,0.63583,0.62845,0.64757,0.66479,0.66274,0.63347,0.64569,0.65553,0.66281,0.67269,0.66896,0.67643,0.69378,0.70211,0.68083,0.66874,0.68677,0.71545,0.72148,0.70424,0.68632,0.6976,0.71355,0.73238,0.7285,0.71846,0.72714,0.7546,0.77,0.77598,0.77106,0.76975,0.78263,0.80602,0.80349,0.79623,0.8051,0.81368,0.84364,0.84033,0.82384,0.82253,0.82701,0.84141,0.85512,0.85355,0.84309,0.84099,0.8458,0.85598,0.85598,0.86504,0.87161,0.86853,0.87803,0.88195,0.88399,0.88135,0.8892,0.89089,0.87372,0.8555,0.86886,0.87989,0.87716,0.87275,0.86403,0.86139,0.86079,0.86775,0.86626,0.85082,0.83982,0.83599,0.84133,0.82648,0.81998,0.81214,0.81153,0.80561,0.7827,0.76579,0.77293,0.76183,0.76351,0.7657,0.74878,0.73855,0.7394,0.73929,0.74233,0.73754,0.73083,0.72248,0.72322,0.72446,0.72284,0.70773,0.70195,0.70573,0.72236,0.71743,0.69803,0.70096,0.7064,0.70856,0.70038,0.69807,0.69259,0.69661,0.70075,0.69387,0.68749,0.70599,0.70415,0.69527,0.695,0.68535,0.68977,0.70717,0.69271,0.69964,0.69173,0.68463,0.69282,0.7114,0.70607,0.68667,0.69408,0.69443,0.69398,0.69282,0.69649,0.68855,0.68688,0.70045,0.70025,0.6935,0.67936,0.69037,0.70593,0.69671,0.69611,0.68849,0.69239,0.69151,0.68843,0.6882,0.68856,0.7011,0.70706,0.69335,0.68152,0.67374,0.67926,0.699,0.69084,0.69214,0.68738,0.69155,0.69925,0.71678,0.72744,0.72998,0.73345,0.74238,0.75568,0.76959,0.77485,0.77598,0.78728,0.81314,0.81617,0.7904,0.76408,0.76767,0.76513,0.74163,0.72147,0.71104,0.70166,0.70221,0.68999,0.66765,0.66317,0.66564,0.67444,0.67559,0.65613,0.64384,0.64645,0.66333,0.67163,0.63824,0.60288,0.58093,0.66232,0.80626,1.0646,1.3804,1.7077,1.9818,2.0776,2.0656,1.9426,1.6069,1.0576,0.51132,0.39577,0.44336,0.46513,0.52787,0.55703,0.59309,0.59032,0.59929,0.60168,0.61335,0.60441,0.60265,0.59785,0.60443,0.60587,0.60198,0.6015,0.60274,0.58977,0.60409,0.61815,0.62635,0.61033,0.60513,0.60203,0.61521,0.60621,0.60103,0.60131,0.60517,0.61396,0.61415,0.60257,0.60144,0.60261,0.60207,0.60829,0.59725,0.59839,0.61259,0.6149,0.61121,0.58935,0.59433,0.60341,0.61306,0.62727,0.61569,0.60827,0.60524,0.61113,0.61911,0.61446,0.61301,0.61534,0.63362,0.64599,0.6284,0.62517,0.63343,0.64243,0.63314,0.62622,0.61439,0.63234,0.63859,0.64382,0.64729,0.6468,0.64623,0.66473,0.66889,0.66154,0.66398,0.68365,0.70165,0.70471,0.70529,0.69412,0.70398,0.72842,0.73109,0.73336,0.71212,0.71583,0.72567,0.73274,0.73983,0.73875,0.73747,0.75949,0.75127,0.75609,0.74057,0.74336,0.75869,0.77193,0.76796,0.77104,0.77311,0.78125,0.79296,0.78945,0.78314,0.78,0.79304,0.80699,0.80444,0.80893,0.79305,0.79774,0.81681,0.8088,0.7875,0.77259,0.78112,0.77873,0.77322,0.76505,0.75038,0.75134,0.75664,0.74441,0.741,0.73043,0.73556,0.73419,0.73098,0.71888,0.69523,0.68418,0.69227,0.69962,0.69468,0.66935,0.67444,0.67607,0.66722,0.65886,0.64957,0.64858,0.6532,0.66011,0.66186,0.65545,0.65129,0.64517,0.65187,0.64631,0.64366,0.6328,0.63388,0.6434,0.64811,0.63601,0.62908,0.63165,0.64024,0.64119,0.63523,0.62437,0.6336,0.6439,0.63298,0.63432,0.63345,0.6175,0.6174,0.62488,0.61956,0.61704,0.61718,0.62198,0.62905,0.61905,0.61317,0.61885,0.62572,0.6242,0.6127,0.61312,0.62702,0.64155,0.63998,0.62089,0.60625,0.61387,0.62807,0.63789,0.6294,0.62351,0.64245,0.66352,0.68263,0.68629,0.67054,0.66627,0.6742,0.71548,0.75002,0.74727,0.72153,0.70978,0.7301,0.74694,0.75678,0.72913,0.70285,0.66373,0.66649,0.63875,0.60063,0.59833,0.60489,0.60837,0.58542,0.57968,0.58689,0.59173,0.61872,0.62204,0.59771,0.592,0.59849,0.60239,0.55811,0.53219,0.57506,0.68505,0.91486,1.2502,1.5476,1.8241,1.9827,2.0052,1.9386,1.5731,1.0683,0.44949,0.27793,0.30889,0.3618,0.45537,0.46128,0.50545,0.51187,0.52869,0.52384,0.55045,0.55472,0.56031,0.52659,0.54286,0.53351,0.53796,0.52361,0.54648,0.53994,0.55228,0.55807,0.55334,0.53521,0.5412,0.55362,0.56988,0.55877,0.57021,0.55867,0.55768,0.57993,0.59329,0.58579,0.57224,0.55765,0.58054,0.60016,0.58388,0.56406,0.57557,0.60575,0.62059,0.62296,0.59521,0.57474,0.57692,0.62058,0.62347,0.60742,0.61045,0.61239,0.61905,0.55507,0.56988,0.59559,0.61277,0.63233,0.64979,0.64339,0.64553,0.65444,0.66609,0.69343,0.70246,0.69812,0.70531,0.72698,0.71573,0.72338,0.73192,0.72556,0.72417,0.74502,0.7547,0.76401,0.76585,0.76938,0.77196,0.77825,0.77742,0.78242,0.80899,0.82491,0.81213,0.84702,0.88338,0.93189,0.93684,0.93558,0.89691,0.84236,0.81974,0.82376,0.81831,0.81157,0.77884,0.75186,0.74674,0.73737,0.72781,0.7144,0.71151,0.72522,0.71765,0.73396,0.73788,0.75234,0.74617,0.75122,0.74541,0.70108,0.71519,0.72538,0.69423,0.68049,0.65888,0.65639,0.65191,0.65038,0.65058,0.63592,0.65467,0.66121,0.64273,0.62135,0.6315,0.68353,0.68201,0.6474,0.62229,0.62649,0.63115,0.61805,0.60032,0.59889,0.5883,0.57429,0.56966,0.56185,0.53533,0.5126,0.53836,0.54387,0.53229,0.53818,0.52627,0.54206,0.54803,0.54258,0.53319,0.5382,0.53318,0.5494,0.55456,0.56868,0.59138,0.59472,0.59607,0.61739,0.6293,0.6537,0.6664,0.67841,0.68828,0.69323,0.70286,0.70988,0.73867,0.73009,0.75278,0.75395,0.72518,0.6913,0.66356,0.6527,0.64735,0.63838,0.62375,0.61111,0.60347,0.6188,0.61406,0.60705,0.61945,0.61514,0.59772,0.60456,0.6077,0.61044,0.59169,0.55497,0.54102,0.55134,0.67931,0.85507,1.1145,1.3651,1.6079,1.7888,1.8467,1.7804,1.5698,1.1851,0.63389,0.269,0.25957,0.29561,0.35972,0.43579,0.47336,0.47922,0.48801,0.49803,0.51737,0.53397,0.54195,0.56754,0.56525,0.5576,0.57727,0.58202,0.57748,0.56463,0.56625,0.59369,0.61984,0.60824,0.59873,0.59078,0.57692,0.58116,0.59689,0.61452,0.60046,0.59491,0.61209,0.61774,0.60477,0.60055,0.59439,0.61068,0.62567,0.60964,0.59856,0.59654,0.6112,0.60695,0.59089,0.60785,0.63198,0.63612,0.62944,0.6322,0.62012,0.62116,0.62629,0.6316,0.63597,0.62135,0.6317,0.63235,0.63607,0.64797,0.62399,0.62304,0.61992,0.62891,0.63188,0.62701,0.61308,0.60328,0.61065,0.61349,0.60592,0.61432,0.61617,0.62232,0.62335,0.62162,0.63232,0.63337,0.65704,0.65791,0.66496,0.65814,0.66024,0.66483,0.66794,0.67288,0.69337,0.69619,0.7007,0.70232,0.70797,0.71714,0.71712,0.72522,0.73728,0.7563,0.76872,0.76753,0.79295,0.79135,0.8007,0.81092,0.83089,0.83109,0.82298,0.82626,0.83022,0.84872,0.85719,0.85864,0.85451,0.84081,0.84928,0.84692,0.84557,0.8446,0.82956,0.82141,0.82263,0.81465,0.8082,0.80166,0.78586,0.77994,0.7697,0.78163,0.76989,0.75318,0.75556,0.75634,0.75345,0.74469,0.72098,0.7219,0.72696,0.7124,0.70139,0.72187,0.71935,0.72502,0.71424,0.69816,0.69755,0.71568,0.72905,0.72045,0.70775,0.68983,0.68888,0.6883,0.68558,0.69464,0.68161,0.67767,0.68396,0.69032,0.70306,0.69965,0.71131,0.71614,0.72453,0.7262,0.70943,0.71823,0.74122,0.77303,0.76269,0.75793,0.76107,0.75394,0.76034,0.77614,0.771,0.75626,0.73126,0.73074,0.70752,0.6929,0.68067,0.66401,0.6606,0.65666,0.651,0.63027,0.6377,0.66101,0.6487,0.64871,0.64261,0.64407,0.64012,0.63337,0.63023,0.61616,0.60447,0.6145,0.71925,0.88252,1.1532,1.4176,1.696,1.9065,1.8815,1.8429,1.6396,1.2898,0.72396,0.36797,0.33945,0.38467,0.4244,0.49613,0.54631,0.56344,0.57305,0.56682,0.58865,0.58484,0.58795,0.57833,0.58828,0.60448,0.61224,0.59681,0.59469,0.59599,0.60972,0.60073,0.58876,0.576,0.58515,0.58846,0.60247,0.58601,0.57486,0.57893,0.59458,0.59739,0.59699,0.59483,0.59102,0.59661,0.61593,0.61853,0.60813,0.61299,0.62224,0.61825,0.60746,0.6023,0.62852,0.63293,0.63812,0.63941,0.64357,0.64562,0.64952,0.63988,0.65929,0.66013,0.6712,0.66751,0.68262,0.69074,0.69042,0.69047,0.69936,0.69387,0.68975,0.69626,0.70378,0.69783,0.68995,0.70464,0.71782,0.69999,0.7055,0.73061,0.74229,0.74072,0.72916,0.73365,0.7395,0.74911,0.75853,0.75802,0.76801,0.77287,0.77573,0.77634,0.76589,0.76969,0.77017,0.78372,0.78873,0.77777,0.7694,0.77553,0.78037,0.78973,0.79139,0.80738,0.80433,0.80618,0.80597,0.82407,0.82109,0.83253,0.85357,0.85785,0.83078,0.82193,0.83166,0.84803,0.83878,0.83643,0.83225,0.8242,0.81293,0.78941,0.76385,0.76278,0.77903,0.80177,0.80459,0.78178,0.76413,0.75274,0.76105,0.76109,0.76771,0.7484,0.75244,0.7471,0.75405,0.74618,0.73025,0.72268,0.73095,0.74693,0.73796,0.7265,0.71436,0.71143,0.72251,0.72996,0.72597,0.71595,0.7051,0.69822,0.70047,0.71215,0.71557,0.71173,0.7021,0.69242,0.69713,0.69229,0.68537,0.70023,0.69628,0.69159,0.6778,0.67648,0.68654,0.67967,0.6911,0.67515,0.66176,0.66447,0.66552,0.66327,0.6524,0.6606,0.66248,0.68357,0.67953,0.67434,0.67722,0.69473,0.71225,0.71707,0.72549,0.73914,0.74732,0.7467,0.73618,0.74136,0.74972,0.75194,0.7548,0.75105,0.74947,0.74066,0.73135,0.71551,0.6923,0.6715,0.65087,0.63835,0.63783,0.63622,0.63991,0.63336,0.61925,0.62726,0.63309,0.61505,0.60422,0.59187,0.59936,0.59331,0.57066,0.58052,0.59922,0.69797,0.86,1.1167,1.3724,1.6311,1.8224,1.8411,1.7956,1.6237,1.2712,0.74056,0.34084,0.27826,0.34398,0.41045,0.44996,0.52876,0.5563,0.54228,0.54709,0.55577,0.57158,0.57821,0.58456,0.57083,0.57943,0.58787,0.58936,0.56569,0.56904,0.57066,0.58992,0.58676,0.57437,0.57232,0.58658,0.59074,0.58131,0.57927,0.58778,0.58817,0.58475,0.5868,0.59204,0.57954,0.58502,0.5991,0.61625,0.60483,0.58528,0.59353,0.59843,0.60267,0.60211,0.60475,0.60634,0.61629,0.60275,0.60687,0.60367,0.61018,0.61933,0.63244,0.63249,0.62564,0.6316,0.64176,0.6561,0.65364,0.64449,0.6463,0.65518,0.66768,0.66144,0.65961,0.66411,0.67902,0.68231,0.67542,0.68425,0.68462,0.69916,0.70641,0.71832,0.718,0.71171,0.71708,0.74222,0.74597,0.74682,0.75516,0.77517,0.7761,0.76931,0.77744,0.78099,0.79057,0.79328,0.78183,0.79002,0.794,0.78565,0.78322,0.78284,0.79903,0.80967,0.81496,0.82063,0.82328,0.81732,0.81526,0.82599,0.8317,0.84723,0.84175,0.84474,0.84839,0.85096,0.8572,0.84873,0.84798,0.83792,0.84796,0.85459,0.84269,0.83313,0.82061,0.81847,0.82295,0.81735,0.80384,0.7833,0.7865,0.79392,0.78704,0.76404,0.76738,0.75955,0.75879,0.74782,0.74906,0.74077,0.73521,0.73559,0.73874,0.72285,0.70714,0.71229,0.71928,0.71892,0.70813,0.68853,0.69743,0.71062,0.7142,0.69475,0.68857,0.69219,0.69468,0.69424,0.68467,0.68791,0.68642,0.68603,0.68475,0.68661,0.68631,0.68575,0.66932,0.67494,0.6928,0.68922,0.67866,0.66488,0.67167,0.68233,0.68805,0.68443,0.68125,0.68644,0.68426,0.68669,0.67349,0.67982,0.69034,0.69112,0.696,0.70591,0.72303,0.73054,0.73439,0.74451,0.73686,0.76863,0.78118,0.77494,0.77174,0.77334,0.78419,0.79219,0.79276,0.78679,0.77384,0.75879,0.74663,0.7197,0.70335,0.68848,0.65983,0.6633,0.67277,0.67021,0.65548,0.64674,0.64289,0.65789,0.66024,0.64672,0.62715,0.6377,0.63801,0.62158,0.62595,0.65049,0.78832,0.97181,1.2523,1.5153,1.74,1.9217,1.9251,1.8625,1.6055,1.1793,0.60558,0.31906,0.31711,0.37617,0.4492,0.49875,0.54276,0.56196,0.56994,0.57,0.58643,0.5782,0.58827,0.57724,0.58438,0.58005,0.60065,0.58896,0.58136,0.57356,0.57898,0.58105,0.59094,0.58264,0.58617,0.58319,0.58547,0.59954,0.5951,0.59234,0.58429,0.58165,0.59215,0.5914,0.60022,0.59909,0.59139,0.60433,0.60964,0.60475,0.59505,0.59823,0.60498,0.60946,0.61172,0.60771,0.60718,0.61953,0.61463,0.61794,0.61405,0.61053,0.60985,0.6268,0.63152,0.63488,0.6372,0.63872,0.65019,0.64364,0.64535,0.64306,0.64839,0.6438,0.65451,0.651,0.64696,0.65137,0.67459,0.67247,0.67683,0.67457,0.67239,0.68215,0.69508,0.7176,0.71049,0.71913,0.73775,0.74478,0.75314,0.7525,0.74773,0.7648,0.77264,0.77371,0.76877,0.76589,0.78028,0.78673,0.77951,0.78179,0.77719,0.78207,0.7935,0.80692,0.79681,0.80072,0.79932,0.79719,0.80705,0.79946,0.81359,0.81818,0.8224,0.83183,0.82036,0.83301,0.83116,0.82723,0.81423,0.82058,0.82245,0.81596,0.82622,0.80643,0.79628,0.78807,0.78628,0.79072,0.78769,0.77505,0.77038,0.75698,0.7562,0.75014,0.7304,0.72561,0.72101,0.72832,0.72647,0.71638,0.70137,0.70178,0.70248,0.7075,0.69779,0.68696,0.70084,0.70017,0.69474,0.69031,0.67471,0.67513,0.67274,0.68267,0.68046,0.66963,0.66909,0.67363,0.68019,0.68822,0.6976,0.70489,0.71342,0.72525,0.73234,0.7279,0.74027,0.77458,0.78562,0.7644,0.76906,0.77163,0.77845,0.78722,0.77857,0.75863,0.74105,0.73996,0.731,0.70796,0.68743,0.65992,0.64266,0.64456,0.65557,0.65442,0.64125,0.63767,0.63564,0.63891,0.63499,0.62629,0.64445,0.65479,0.65259,0.64042,0.6212,0.62384,0.7232,0.79478,1.0089,1.3079,1.5494,1.7944,1.9397,1.9217,1.8211,1.521,1.069,0.4779,0.31456,0.33784,0.36381,0.45621,0.49905,0.54643,0.56359,0.58876,0.58197,0.61375,0.59729,0.61121,0.58194,0.61795,0.61475,0.63048,0.60918,0.60948,0.59208,0.61335,0.61366,0.62886,0.60048,0.61051,0.62149,0.62726,0.62368,0.62389,0.62259,0.62869,0.62982,0.64429,0.62898,0.63487,0.6338,0.64909,0.64424,0.63567,0.62209,0.62733,0.63959,0.6453,0.63826,0.62982,0.64344,0.64328,0.6473,0.63695,0.63453,0.6277,0.63944,0.64462,0.64121,0.63704,0.6363,0.65448,0.65961,0.65505,0.65194,0.63702,0.6554,0.66685,0.67415,0.6681,0.6678,0.67532,0.67223,0.67772,0.6845,0.68447,0.69106,0.71045,0.71644,0.69783,0.71162,0.71907,0.74838,0.74049,0.74221,0.74665,0.76644,0.76512,0.7672,0.75787,0.77296,0.78215,0.78281,0.78008,0.7817,0.78928,0.798,0.7941,0.79146,0.78553,0.80983,0.80704,0.81123,0.81357,0.81852,0.82959,0.82584,0.84148,0.85409,0.8324,0.83643,0.83375,0.86439,0.86311,0.85894,0.84035,0.83464,0.83428,0.85469,0.84831,0.8364,0.81643,0.82274,0.82628,0.82429,0.80058,0.79005,0.79232,0.78549,0.77543,0.76614,0.7698,0.76294,0.76337,0.75086,0.73657,0.73653,0.73777,0.74066,0.73772,0.72242,0.72603,0.72312,0.72681,0.72838,0.72773,0.72863,0.73411,0.72298,0.73184,0.72192,0.71732,0.73093,0.74996,0.75302,0.75289,0.7687,0.77042,0.78727,0.80139,0.79055,0.80378,0.83042,0.835,0.84127,0.83696,0.83403,0.84132,0.84272,0.83697,0.81106,0.78456,0.75885,0.76845,0.74731,0.73628,0.71596,0.71733,0.72108,0.71052,0.7047,0.71393,0.6972,0.69912,0.70236,0.69312,0.70486,0.69169,0.6872,0.6869,0.66858,0.66195,0.7661,0.9547,1.2446,1.5052,1.7712,1.954,1.9667,1.9279,1.8525,1.5482,1.0772,0.51371,0.33305,0.40362,0.47156,0.54436,0.55507,0.60667,0.59705,0.62443,0.60914,0.62618,0.61986,0.6369,0.63083,0.63736,0.62412,0.63822,0.65198,0.66767,0.63814,0.64869,0.6438,0.65659,0.64086,0.64868,0.63906,0.64159,0.64893,0.65604,0.63543,0.63908,0.64226,0.65952,0.65622,0.64119,0.63823,0.63831,0.65097,0.64196,0.63885,0.63882,0.64522,0.66205,0.63968,0.64179,0.63639,0.64406,0.64519,0.6471,0.65013,0.65239,0.66325,0.66639,0.66432,0.66507,0.67283,0.67351,0.68551,0.68904,0.69333,0.69022,0.69572,0.69148,0.71037,0.71313,0.7005,0.7021,0.71276,0.72825,0.73223,0.71983,0.72884,0.7389,0.7671,0.76538,0.75922,0.75993,0.7767,0.78514,0.78718,0.77979,0.78598,0.78986,0.79649,0.79143,0.79645,0.79207,0.80649,0.82067,0.82375,0.81081,0.81168,0.81421,0.82717,0.83124,0.82814,0.81599,0.8223,0.8334,0.84728,0.8472,0.83782,0.83497,0.85083,0.84888,0.85528,0.84736,0.8501,0.85014,0.85266,0.84873,0.83121,0.82701,0.83027,0.83077,0.82757,0.80423,0.80855,0.81192,0.81313,0.79409,0.79068,0.77759,0.76836,0.77168,0.77609,0.76433,0.75431,0.75202,0.74809,0.74485,0.73068,0.72589,0.72608,0.72401,0.72577,0.7235,0.71925,0.71642,0.71717,0.7107,0.70692,0.70624,0.70293,0.70641,0.70504,0.69964,0.69199,0.69103,0.69804,0.69895,0.70191,0.69794,0.70246,0.71675,0.73891,0.752,0.74818,0.74542,0.74839,0.75943,0.78485,0.80377,0.78989,0.7956,0.79987,0.79805,0.79905,0.79147,0.79074,0.77374,0.76031,0.72004,0.69792,0.68684,0.68196,0.66592,0.65869,0.66078,0.64272,0.64809,0.64842,0.64414,0.64296,0.6534,0.6631,0.65817,0.65381,0.64057,0.63223,0.63382,0.63579,0.70893,0.85698,1.1097,1.4022,1.6651,1.8748,1.9505,1.9374,1.8848,1.6172,1.1831,0.57373,0.32037,0.32858,0.39372,0.4699,0.50917,0.55401,0.56734,0.59108,0.59338,0.60077,0.599,0.60737,0.61114,0.62144,0.60628,0.6084,0.60273,0.62239,0.61849,0.61565,0.601,0.60193,0.61523,0.62083,0.61404,0.61569,0.61462,0.61904,0.62077,0.62341,0.62294,0.62657,0.62088,0.61974,0.61886,0.6187,0.62902,0.6236,0.6267,0.62506,0.61337,0.62335,0.62655,0.62876,0.62576,0.61143,0.61336,0.61723,0.62795,0.64692,0.64427,0.64226,0.64718,0.65289,0.65929,0.65846,0.65706,0.66154,0.67369,0.67653,0.67307,0.67149,0.68904,0.69505,0.68894,0.6787,0.68931,0.70583,0.73515,0.73351,0.7362,0.73671,0.73584,0.74303,0.75645,0.75853,0.76478,0.77619,0.78494,0.78493,0.79562,0.79644,0.80683,0.80806,0.80812,0.81378,0.81057,0.82328,0.82423,0.82073,0.81693,0.81833,0.83259,0.8455,0.84766,0.84592,0.83826,0.82641,0.84303,0.85352,0.85122,0.84694,0.836,0.84459,0.86563,0.87777,0.8672,0.85631,0.86221,0.8575,0.85855,0.84849,0.83883,0.83745,0.84287,0.83892,0.83592,0.81456,0.80086,0.80569,0.80081,0.7988,0.79532,0.78011,0.771,0.76547,0.76388,0.75063,0.74425,0.75114,0.75142,0.74691,0.73895,0.7291,0.72907,0.72752,0.72729,0.71925,0.71082,0.71571,0.71538,0.71384,0.71221,0.702,0.70326,0.70734,0.69837,0.69257,0.69224,0.69574,0.70304,0.70432,0.68287,0.68449,0.6951,0.70622,0.70468,0.69717,0.68303,0.67752,0.69406,0.70268,0.68872,0.67647,0.67133,0.68782,0.68708,0.69254,0.68374,0.68463,0.69305,0.67911,0.67901,0.6894,0.68394,0.69267,0.69389,0.69384,0.6887,0.67884,0.67787,0.68638,0.6891,0.67888,0.68136,0.67736,0.68392,0.68544,0.67153,0.67501,0.68712,0.69195,0.67447,0.66371,0.67675,0.67495,0.68406,0.67857,0.66986,0.6686,0.66842,0.68424,0.6811,0.67409,0.6772,0.69391,0.70757,0.72232,0.71732,0.72298,0.72889,0.74172,0.74818,0.76518,0.75795,0.76738,0.78407,0.78096,0.78725,0.77721,0.7793,0.77481,0.75272,0.73607,0.7145,0.70236,0.68503,0.68521,0.67299,0.66667,0.66014,0.65107,0.65693,0.65503,0.64343,0.64966,0.65962,0.65333,0.6558,0.63222,0.61841,0.6242,0.73652,0.90806,1.1612,1.437,1.7098,1.9382,1.9768,1.9336,1.746,1.3803,0.83989,0.40828,0.35059,0.4138,0.48366,0.53271,0.54351,0.57169,0.57005,0.58497,0.60679,0.60423,0.59926,0.59133,0.59549,0.61408,0.62543,0.62082,0.60266,0.61546,0.61485,0.6015,0.61393,0.60433,0.60818,0.61655,0.61467,0.61982,0.61669,0.60948,0.63096,0.61525,0.6179,0.62477,0.62106,0.62115,0.64578,0.63352,0.63977,0.63923,0.6468,0.64019,0.62543,0.62571,0.63004,0.64245,0.63825,0.63845,0.64019,0.63216,0.62832,0.64873,0.6548,0.65824,0.66294,0.66859,0.67095,0.67544,0.67711,0.67099,0.67751,0.68922,0.68788,0.69174,0.68304,0.68867,0.70121,0.70011,0.69888,0.71087,0.7073,0.72551,0.73255,0.75305,0.74488,0.75053,0.75779,0.77134,0.77819,0.77679,0.77211,0.7887,0.81221,0.81471,0.80655,0.80604,0.81716,0.83154,0.83789,0.82749,0.81485,0.82503,0.84597,0.84973,0.84602,0.83788,0.84431,0.85549,0.86451,0.86332,0.86776,0.86614,0.88033,0.87883,0.87628,0.86767,0.86974,0.86938,0.89856,0.89262,0.88998,0.8895,0.88465,0.88784,0.87851,0.87524,0.88265,0.87373,0.87971,0.86845,0.85416,0.84498,0.8383,0.84282,0.84167,0.81964,0.81205,0.80952,0.8135,0.81013,0.79037,0.78544,0.79167,0.79504,0.7827,0.76968,0.76821,0.7816,0.76989,0.76891,0.75588,0.76,0.76101,0.7578,0.7545,0.7514,0.74385,0.74786,0.75011,0.74103,0.7418,0.72087,0.73477,0.74057,0.74637,0.74948,0.72496,0.72561,0.73563,0.74093,0.75387,0.75683,0.76347,0.78506,0.78696,0.7892,0.79035,0.81791,0.83087,0.84448,0.84194,0.82948,0.82801,0.82912,0.83976,0.84594,0.82419,0.8029,0.776,0.74693,0.75002,0.74266,0.71884,0.71812,0.72607,0.73055,0.71134,0.70075,0.7053,0.69946,0.70632,0.70155,0.69308,0.69354,0.69888,0.68788,0.67715,0.65276,0.72004,0.85744,1.0999,1.3996,1.657,1.8985,2.0344,1.9903,1.872,1.5261,0.99649,0.6779,0.4215,0.39769,0.44746,0.5087,0.57742,0.61192,0.64402,0.64366,0.65695,0.66474,0.6806,0.68153,0.6757,0.68214,0.69032,0.69541,0.69816,0.69072,0.70293,0.69153,0.7034,0.69776,0.68575,0.67519,0.66798,0.67046,0.6573,0.63417,0.61852,0.60513,0.61027,0.58171,0.56878,0.55702,0.55298,0.5404,0.52322,0.50231,0.48835,0.47652,0.4737,0.47099,0.45811,0.44486,0.4403,0.43691,0.44,0.43089,0.42609,0.44397,0.47641,0.49299,0.50646,0.50963,0.5201,0.54556,0.58986,0.64032,0.70399,0.78245,0.81779,0.9045,0.97372,1.0394,1.1034,1.1676,1.2485,1.2917,1.3354,1.3485,1.3718,1.3916,1.4019,1.4136,1.415,1.4117,1.4227,1.4154,1.4196,1.426,1.434,1.4326,1.412,1.3841,1.3483,1.3197,1.3024,1.305,1.2871,1.2593,1.2451,1.2257,1.2085,1.2028,1.1702,1.1537,1.1331,1.1233,1.106,1.0792,1.0726,1.0614,1.0505,1.0568,1.0348,1.0214,1.0079,1.0113,1.0029,0.99683,0.97871,0.96963,0.96692,0.95384,0.9382,0.93267,0.93845,0.93224,0.92356,0.91251,0.88498,0.87205,0.86481,0.85838,0.83501,0.80551,0.78659,0.78819,0.7926,0.77844,0.74935,0.75294,0.76012,0.76818,0.7638,0.73131,0.73002,0.74326,0.75466,0.75532,0.74894,0.74797,0.75641,0.76713,0.77711,0.78612,0.80406,0.83114,0.84099,0.84874,0.85553,0.85554,0.8786,0.89358,0.90842,0.89709,0.89848,0.90246,0.89906,0.91245,0.9082,0.89457,0.88556,0.87349,0.85767,0.82354,0.79633,0.79271,0.80084,0.80983,0.80806,0.78491,0.78323,0.80771,0.80552,0.78772,0.77684,0.77848,0.79643,0.78513,0.78047,0.76445,0.74763,0.75305,0.76229,0.84422,0.99374,1.2812,1.5811,1.903,2.1263,2.1494,2.1143,1.895,1.5081,0.87811,0.49129,0.45967,0.50885,0.58387,0.61477,0.63005,0.64005,0.65686,0.68235,0.70011,0.69606,0.69962,0.69704,0.70152,0.69421,0.69707,0.68673,0.69535,0.70648,0.70893,0.69482,0.69528,0.69549,0.71158,0.70875,0.70072,0.69076,0.69332,0.69975,0.71076,0.70529,0.68519,0.68676,0.71977,0.70442,0.69261,0.67711,0.6888,0.68075,0.69456,0.69352,0.68945,0.69925,0.69055,0.70618,0.69335,0.68883,0.68635,0.69503,0.70268,0.70392,0.69712,0.69952,0.69885,0.71502,0.71591,0.71453,0.71062,0.71663,0.72956,0.7395,0.72944,0.72612,0.72644,0.73414,0.73611,0.72747,0.72235,0.72635,0.73168,0.74395,0.73763,0.73499,0.74026,0.75775,0.76331,0.77044,0.76215,0.77021,0.78034,0.78879,0.78571,0.77481,0.77824,0.78876,0.79117,0.78864,0.78275,0.78473,0.7875,0.79291,0.795,0.79313,0.79448,0.80859,0.82285,0.82935,0.82897,0.83072,0.83995,0.84543,0.84488,0.84477,0.84511,0.85503,0.8604,0.86451,0.86178,0.8486,0.84904,0.85664,0.84522,0.84488,0.82792,0.8288,0.83569,0.82937,0.81758,0.80118,0.79639,0.80944,0.80098,0.7905,0.77608,0.7722,0.781,0.77238,0.76488,0.75587,0.75058,0.75138,0.75428,0.74896,0.74,0.73575,0.74317,0.75063,0.7515,0.73271,0.72194,0.72882,0.7357,0.72945,0.72066,0.71455,0.71991,0.72236,0.72023,0.71405,0.70506,0.70303,0.71559,0.71186,0.70941,0.70018,0.70183,0.70901,0.70546,0.70114,0.6959,0.70188,0.72637,0.73564,0.74642,0.7392,0.74215,0.77087,0.77819,0.7807,0.78878,0.79922,0.81645,0.826,0.81478,0.80678,0.81046,0.81826,0.8232,0.80203,0.76997,0.74576,0.73051,0.72331,0.70512,0.68281,0.68309,0.67667,0.68296,0.6775,0.67482,0.66837,0.66647,0.67311,0.67495,0.66081,0.65557,0.65478,0.64403,0.63106,0.63563,0.73755,0.92708,1.2421,1.5487,1.8516,2.0543,2.0455,2.0284,1.7847,1.5842,1.0625,0.46885,0.35873,0.40169,0.47858,0.51779,0.55714,0.58612,0.60734,0.61128,0.61138,0.61246,0.62448,0.63192,0.62991,0.61332,0.6205,0.62412,0.63488,0.63278,0.62549,0.62118,0.62636,0.63625,0.63474,0.62653,0.62595,0.62911,0.64409,0.6427,0.6395,0.6351,0.63714,0.64496,0.64788,0.63761,0.63755,0.64082,0.65589,0.65127,0.64629,0.63964,0.64291,0.65104,0.65625,0.65387,0.64217,0.6457,0.65608,0.66175,0.6592,0.64958,0.6576,0.66849,0.67116,0.67439,0.66829,0.67551,0.68713,0.68977,0.69505,0.68422,0.6877,0.69619,0.70653,0.70728,0.70143,0.70673,0.71315,0.72767,0.72807,0.72307,0.72785,0.74309,0.75848,0.76638,0.76239,0.76847,0.78408,0.80103,0.79915,0.80325,0.79286,0.79774,0.81181,0.81298,0.81481,0.8059,0.81066,0.82046,0.82034,0.82029,0.80811,0.81637,0.83182,0.83233,0.83524,0.82693,0.83443,0.85087,0.85261,0.85319,0.8491,0.84957,0.85738,0.86703,0.86314,0.85713,0.85473,0.86141,0.86441,0.85822,0.84854,0.84161,0.84369,0.8463,0.83805,0.82423,0.81414,0.81563,0.81877,0.81053,0.79998,0.78464,0.78155,0.78481,0.77824,0.76533,0.75171,0.74636,0.75501,0.74821,0.73577,0.72549,0.72395,0.73478,0.72726,0.71944,0.70761,0.70364,0.71586,0.71634,0.70673,0.69274,0.69306,0.69927,0.70433,0.70146,0.68799,0.68515,0.69199,0.69577,0.69095,0.67993,0.67962,0.68543,0.69326,0.68688,0.67506,0.67829,0.68365,0.68794,0.68623,0.68084,0.67502,0.67331,0.6815,0.67847,0.6738,0.67087,0.67293,0.68257,0.68232,0.67592,0.66956,0.66683,0.68135,0.68091,0.68182,0.68873,0.70528,0.72604,0.73047,0.73569,0.74179,0.74768,0.75865,0.78204,0.79133,0.78365,0.79805,0.80259,0.81412,0.81389,0.79935,0.79738,0.77634,0.75716,0.72693,0.69717,0.68583,0.68155,0.67893,0.6698,0.6547,0.64698,0.64646,0.65559,0.65419,0.63911,0.63547,0.63867,0.64747,0.64311,0.60978,0.59183,0.59764,0.70352,0.88119,1.1674,1.4686,1.7842,1.9261,2.0607,2.0632,2.0048,1.7979,1.1014,0.49803,0.32285,0.35957,0.42569,0.49781,0.52563,0.55456,0.55038,0.57167,0.5858,0.58967,0.58578,0.58541,0.57872,0.59001,0.58562,0.59214,0.57653,0.5823,0.58647,0.6035,0.59534,0.59772,0.59185,0.59765,0.60401,0.60903,0.59256,0.58937,0.59119,0.60686,0.59994,0.5908,0.5909,0.59636,0.60495,0.60338,0.60349,0.59359,0.60287,0.61632,0.61327,0.60708,0.59518,0.60123,0.61306,0.61172,0.62222,0.60965,0.61358,0.62104,0.62471,0.6324,0.62108,0.62844,0.63112,0.63983,0.63788,0.63472,0.63675,0.64269,0.65297,0.65126,0.63855,0.64364,0.65869,0.66355,0.66497,0.65905,0.6679,0.6823,0.69769,0.69288,0.69399,0.70052,0.72106,0.72777,0.7367,0.73873,0.74453,0.74381,0.76193,0.75893,0.76737,0.76244,0.77275,0.77924,0.78486,0.77438,0.77948,0.77599,0.79129,0.79092,0.78815,0.78253,0.79378,0.80188,0.80711,0.81116,0.80679,0.81093,0.81439,0.82627,0.83072,0.81985,0.8286,0.83819,0.83778,0.83185,0.8198,0.82075,0.82519,0.8306,0.82073,0.80474,0.80044,0.80226,0.80975,0.80489,0.78693,0.77594,0.77467,0.78012,0.77059,0.75301,0.74384,0.73927,0.74805,0.73623,0.71957,0.71118,0.70901,0.71527,0.70543,0.69099,0.68857,0.69269,0.69681,0.7001,0.6902,0.67777,0.67849,0.67706,0.67751,0.67164,0.65978,0.66515,0.66768,0.67312,0.66817,0.654,0.65695,0.66696,0.66654,0.66276,0.64981,0.6542,0.65884,0.66578,0.6655,0.65453,0.64769,0.65168,0.66563,0.66773,0.6541,0.65546,0.65397,0.65861,0.65509,0.6474,0.6487,0.66055,0.67986,0.69488,0.69641,0.69948,0.70295,0.71313,0.72096,0.73571,0.74316,0.7399,0.7541,0.75307,0.75176,0.75667,0.75384,0.75845,0.7476,0.72078,0.67875,0.67395,0.66808,0.65207,0.64399,0.62838,0.62366,0.6212,0.63075,0.62913,0.61432,0.61603,0.61208,0.62441,0.62598,0.61143,0.59997,0.59467,0.59113,0.65333,0.78356,1.0326,1.3508,1.6549,1.9145,2.0353,2.0066,1.9843,1.7288,1.2724,0.62857,0.31362,0.32314,0.36654,0.44785,0.48365,0.52281,0.54074,0.56922,0.56284,0.58448,0.56125,0.57126,0.58206,0.58497,0.57814,0.58586,0.5782,0.58975,0.58591,0.58915,0.57294,0.57529,0.59009,0.59969,0.58622,0.5865,0.57958,0.58869,0.58531,0.5894,0.57545,0.58856,0.59365,0.59942,0.59782,0.59825,0.59273,0.59912,0.60899,0.6071,0.60246,0.59884,0.59776,0.61009,0.60175,0.59964,0.59172,0.59587,0.6117,0.60834,0.59911,0.60406,0.60944,0.62472,0.62132,0.61741,0.61936,0.61548,0.62873,0.63656,0.62545,0.61635,0.62498,0.63458,0.64101,0.64131,0.63559,0.63461,0.6475,0.66022,0.66128,0.66103,0.67294,0.68158,0.69354,0.6998,0.7052,0.70871,0.72576,0.73732,0.74213,0.74062,0.7464,0.75155,0.76714,0.76704,0.76191,0.75864,0.76743,0.77557,0.78221,0.77265,0.77958,0.78429,0.79697,0.79687,0.79264,0.78777,0.80003,0.81133,0.82026,0.81587,0.80921,0.81639,0.82749,0.83321,0.83266,0.82075,0.83087,0.8312,0.82838,0.81918,0.80615,0.80971,0.81807,0.81762,0.80343,0.77976,0.7793,0.77724,0.78019,0.76866,0.75515,0.74054,0.74389,0.74282,0.74055,0.72012,0.72047,0.72085,0.72223,0.71328,0.70615,0.69959,0.69591,0.69409,0.69504,0.68147,0.68152,0.67659,0.68779,0.68328,0.68036,0.66981,0.66671,0.68539,0.68805,0.70086,0.69375,0.70594,0.72214,0.72896,0.73221,0.73845,0.7635,0.78263,0.77304,0.78048,0.77117,0.77576,0.78353,0.78627,0.77226,0.73904,0.7278,0.70219,0.6841,0.66681,0.6487,0.64253,0.64171,0.64128,0.63316,0.6194,0.6118,0.62389,0.6278,0.61931,0.61074,0.61252,0.61052,0.62198,0.6128,0.58724,0.56802,0.61176,0.74162,0.9613,1.2738,1.5653,1.8412,2.0336,1.9996,1.926,1.5966,1.1037,0.48108,0.30503,0.3228,0.33018,0.41754,0.46772,0.52271,0.5318,0.5453,0.5419,0.57229,0.56511,0.5735,0.55402,0.56836,0.5709,0.58765,0.57754,0.57884,0.57246,0.58522,0.58016,0.58897,0.57888,0.58143,0.57787,0.5983,0.59388,0.58279,0.5838,0.59308,0.59418,0.60036,0.59275,0.59217,0.59296,0.61028,0.60629,0.59887,0.59814,0.59941,0.61503,0.61281,0.60806,0.59932,0.60425,0.61359,0.61851,0.62005,0.61588,0.61517,0.62505,0.6353,0.63341,0.63244,0.63552,0.65282,0.65577,0.64862,0.64728,0.64413,0.65532,0.66168,0.65553,0.64845,0.65683,0.66229,0.67243,0.67155,0.66635,0.66776,0.68133,0.69647,0.7083,0.69773,0.70439,0.71429,0.73385,0.73012,0.73521,0.7369,0.74822,0.74984,0.75702,0.75265,0.74907,0.75695,0.76938,0.76915,0.76759,0.76019,0.76808,0.77078,0.77629,0.77676,0.77504,0.77858,0.79655,0.80184,0.8,0.78576,0.80269,0.81179,0.8157,0.8182,0.80602,0.80773,0.81556,0.82257,0.82657,0.81198,0.80706,0.80805,0.81041,0.80559,0.78502,0.77828,0.78305,0.77947,0.76801,0.75151,0.74786,0.74637,0.73939,0.73597,0.72985,0.71433,0.71314,0.71763,0.71043,0.70327,0.68714,0.68813,0.69218,0.68923,0.67978,0.66576,0.66961,0.67749,0.67248,0.66538,0.65486,0.65987,0.66713,0.65964,0.65747,0.65092,0.64901,0.6542,0.6548,0.65365,0.64247,0.63849,0.64485,0.64994,0.6429,0.63597,0.63462,0.64142,0.63986,0.64047,0.63104,0.62849,0.63185,0.63511,0.63334,0.63244,0.62341,0.62782,0.64633,0.65684,0.66523,0.67027,0.67515,0.69918,0.69769,0.70231,0.71355,0.73555,0.74368,0.74461,0.73785,0.73214,0.73727,0.75169,0.73654,0.7278,0.69992,0.67762,0.66443,0.65499,0.6408,0.61499,0.6109,0.61266,0.61461,0.6018,0.59253,0.59553,0.60074,0.59897,0.59694,0.58802,0.58282,0.58289,0.56241,0.55619,0.55486
