2.4814,2.4867,2.4753,2.4754,2.4668,2.4738,2.4806,2.4767,2.4792,2.4843,2.4866,2.496,2.4942,2.4945,2.4981,2.492,2.5002,2.5037,2.4902,2.4976,2.5097,2.5101,2.5093,2.5181,2.4969,2.4977,2.4972,2.4879,2.4986,2.4942,2.4959,2.5189,2.5489,2.555,2.5525,2.552,2.5526,2.5722,2.5974,2.6116,2.6167,2.6339,2.6147,2.5798,2.5812,2.5767,2.5726,2.5551,2.5225,2.5142,2.5423,2.5366,2.5329,2.5433,2.5567,2.541,2.5199,2.5233,2.5404,2.5611,2.5579,2.5335,2.5231,2.5146,2.5209,2.5578,2.7084,2.9067,3.008,3.1819,3.2535,3.1266,2.7624,2.3704,2.1752,2.2588,2.3319,2.3931,2.4676,2.4851,2.5395,2.5721,2.593,2.578,2.5898,2.5933,2.6125,2.5997,2.6193,2.6108,2.6447,2.6228,2.6236,2.6048,2.5818,2.5875,2.601,2.6104,2.6235,2.6181,2.5963,2.6013,2.6031,2.6004,2.6039,2.6038,2.5955,2.6087,2.6187,2.6161,2.6279,2.635,2.658,2.6638,2.6741,2.6705,2.6918,2.6954,2.7105,2.718,2.7305,2.7555,2.7754,2.7923,2.8155,2.8316,2.8502,2.8633,2.8764,2.9059,2.9139,2.9247,2.9329,2.9417,2.9517,2.9507,2.9543,2.9562,2.9543,2.945,2.9122,2.8849,2.85,2.8143,2.7782,2.727,2.6695,2.6317,2.6069,2.5805,2.5574,2.5293,2.5036,2.4896,2.4713,2.4616,2.4505,2.4448,2.4377,2.4414,2.4139,2.3997,2.4104,2.4266,2.4269,2.4359,2.4217,2.4219,2.4178,2.4232,2.4208,2.4123,2.4171,2.4262,2.4229,2.4167,2.4242,2.4406,2.4441,2.4507,2.4467,2.4633,2.4462,2.4466,2.448,2.4488,2.4459,2.4501,2.4542,2.4557,2.4552,2.466,2.4577,2.4505,2.4537,2.4485,2.4483,2.4451,2.4423,2.4437,2.4416,2.4485,2.4426,2.446,2.4454,2.4491,2.4376,2.4419,2.4353,2.4536,2.4504,2.4509,2.4406,2.4423,2.4476,2.4519,2.4525,2.4339,2.4411,2.4419,2.446,2.4447,2.4534,2.4768,2.4981,2.5065,2.498,2.5004,2.5116,2.5294,2.5413,2.5566,2.5372,2.5261,2.5162,2.5067,2.5071,2.5014,2.4926,2.4789,2.479,2.4625,2.4736,2.4546,2.4641,2.4796,2.4722,2.4531,2.4591,2.4588,2.462,2.4607,2.4693,2.4672,2.4581,2.4578,2.49,2.5934,2.7455,2.9359,3.1659,3.2239,3.0647,2.6354,2.1752,1.9851,2.1256,2.231,2.2518,2.3357,2.4199,2.4681,2.4919,2.5048,2.5033,2.5133,2.5381,2.5473,2.5547,2.5391,2.535,2.5421,2.5463,2.5332,2.5401,2.5418,2.543,2.5408,2.5366,2.5421,2.5496,2.564,2.5559,2.5556,2.56,2.5566,2.5506,2.5684,2.5751,2.5771,2.581,2.5955,2.607,2.6072,2.6093,2.6271,2.6433,2.666,2.6638,2.6765,2.6869,2.7079,2.7272,2.7365,2.7499,2.7626,2.788,2.8158,2.8472,2.8635,2.8703,2.8799,2.8941,2.9098,2.9182,2.9388,2.9394,2.9442,2.9453,2.934,2.9231,2.8986,2.8672,2.8295,2.793,2.7419,2.6922,2.6462,2.5942,2.5554,2.515,2.4861,2.4716,2.4519,2.417,2.4078,2.4016,2.3995,2.404,2.4029,2.3839,2.3798,2.3758,2.3639,2.366,2.3722,2.3759,2.3676,2.3836,2.3772,2.3711,2.3718,2.3759,2.3777,2.381,2.3664,2.3744,2.3893,2.3928,2.3946,2.3905,2.3857,2.3835,2.3956,2.3996,2.4027,2.4094,2.407,2.407,2.4142,2.4091,2.4117,2.4194,2.4115,2.4105,2.4229,2.4206,2.4168,2.4183,2.4284,2.4315,2.413,2.4174,2.4208,2.4241,2.423,2.4162,2.4176,2.4215,2.4153,2.4123,2.4195,2.4121,2.4191,2.4169,2.4138,2.4094,2.401,2.3977,2.385,2.3975,2.4145,2.4088,2.387,2.3892,2.3988,2.3865,2.3822,2.3853,2.3925,2.3908,2.394,2.398,2.396,2.3908,2.3919,2.3827,2.3876,2.3852,2.3792,2.3755,2.3982,2.3943,2.3906,2.397,2.3955,2.3853,2.3845,2.3782,2.3742,2.3859,2.3916,2.3777,2.3771,2.3823,2.3874,2.3745,2.3834,2.3794,2.362,2.3718,2.3753,2.3825,2.3666,2.3598,2.3613,2.3617,2.3695,2.3806,2.3953,2.4035,2.4017,2.393,2.4093,2.4272,2.445,2.4611,2.4576,2.4532,2.4311,2.4062,2.3951,2.4111,2.3894,2.3759,2.372,2.3743,2.3643,2.3606,2.3607,2.365,2.3763,2.3758,2.3727,2.3698,2.3809,2.3741,2.3778,2.3704,2.3592,2.3527,2.396,2.5355,2.7138,2.9188,3.1151,3.1261,2.9377,2.4684,1.9993,1.9194,2.07,2.1684,2.2332,2.3246,2.3712,2.3943,2.4055,2.4054,2.3983,2.4127,2.4198,2.4398,2.4338,2.4264,2.4293,2.4371,2.4354,2.433,2.4412,2.4453,2.4331,2.4328,2.4293,2.429,2.4317,2.4491,2.448,2.4412,2.4458,2.4469,2.4394,2.4453,2.4635,2.4752,2.4796,2.4847,2.5007,2.5068,2.5145,2.5189,2.527,2.5302,2.5447,2.562,2.5829,2.5946,2.6152,2.6241,2.6375,2.6597,2.6765,2.6989,2.7265,2.7502,2.7668,2.7822,2.7908,2.8025,2.8092,2.8225,2.841,2.8452,2.8403,2.8394,2.8299,2.8286,2.8079,2.7752,2.7547,2.7206,2.6801,2.6355,2.5923,2.5575,2.5206,2.4801,2.4492,2.4259,2.4066,2.3859,2.3734,2.3623,2.3596,2.3634,2.3462,2.337,2.3316,2.3324,2.3352,2.336,2.3322,2.3321,2.3311,2.3422,2.3315,2.3249,2.3354,2.3326,2.3328,2.3383,2.3387,2.3432,2.3477,2.3564,2.3542,2.3566,2.357,2.355,2.3725,2.3744,2.3634,2.3649,2.3626,2.3622,2.3632,2.3616,2.3604,2.3641,2.3771,2.3751,2.3769,2.37,2.3731,2.3665,2.3672,2.3696,2.3784,2.3867,2.3791,2.3698,2.361,2.36,2.366,2.3667,2.3636,2.363,2.3642,2.366,2.3653,2.3607,2.3547,2.36,2.3598,2.374,2.3734,2.3598,2.3717,2.3697,2.3785,2.3764,2.3656,2.3638,2.369,2.3664,2.3704,2.3784,2.3757,2.3826,2.3901,2.3981,2.3773,2.3643,2.3868,2.3912,2.3951,2.3826,2.3883,2.3812,2.3819,2.39,2.3836,2.3893,2.3959,2.3987,2.4097,2.4209,2.4254,2.4139,2.408,2.4306,2.4224,2.4271,2.4289,2.4426,2.4284,2.4285,2.4337,2.4417,2.448,2.4602,2.4359,2.4448,2.4543,2.4526,2.457,2.4513,2.4484,2.4667,2.4787,2.4749,2.482,2.4809,2.4888,2.5111,2.5185,2.5232,2.5313,2.5338,2.5509,2.5591,2.5494,2.572,2.5841,2.5786,2.5656,2.5476,2.5306,2.5094,2.5171,2.516,2.51,2.5037,2.5095,2.5097,2.513,2.4886,2.5015,2.5047,2.5141,2.5208,2.5189,2.5208,2.5234,2.4939,2.4948,2.504,2.5929,2.7451,2.9604,3.1592,3.2633,3.1875,2.8626,2.366,2.0196,2.1603,2.3106,2.3456,2.3903,2.4629,2.5184,2.5178,2.5432,2.5432,2.5426,2.56,2.5887,2.597,2.5965,2.5746,2.5841,2.5858,2.5924,2.5894,2.603,2.5976,2.5925,2.5835,2.589,2.5974,2.5969,2.5958,2.6043,2.618,2.618,2.6195,2.624,2.6214,2.6313,2.6385,2.642,2.6531,2.6608,2.6674,2.6778,2.6905,2.7065,2.7228,2.7227,2.7294,2.7361,2.7486,2.7692,2.7847,2.8044,2.8243,2.8401,2.8587,2.8757,2.8866,2.898,2.9227,2.9317,2.9249,2.937,2.9515,2.9532,2.9636,2.963,2.9643,2.9604,2.9383,2.9148,2.8947,2.8576,2.8245,2.7808,2.7344,2.6813,2.653,2.6101,2.5776,2.5511,2.5195,2.4992,2.4883,2.4713,2.4534,2.4473,2.4419,2.4254,2.4196,2.4208,2.4123,2.4131,2.4256,2.4264,2.4289,2.4269,2.4177,2.4079,2.4165,2.3994,2.4033,2.4017,2.4061,2.4154,2.411,2.4024,2.4004,2.4044,2.4255,2.4287,2.4332,2.42,2.4191,2.4163,2.4122,2.4178,2.4401,2.4395,2.4294,2.4182,2.4409,2.4456,2.4532,2.4369,2.4132,2.415,2.418,2.4199,2.4214,2.4243,2.4308,2.432,2.4238,2.4263,2.4183,2.4194,2.4286,2.4304,2.4346,2.4283,2.4293,2.4352,2.4285,2.4266,2.4347,2.4451,2.4286,2.4245,2.4341,2.4289,2.4255,2.4287,2.4264,2.4246,2.4227,2.4388,2.4419,2.4411,2.4506,2.45,2.4482,2.4526,2.4413,2.45,2.4582,2.4572,2.4456,2.4455,2.4471,2.459,2.4531,2.4488,2.4525,2.4672,2.4585,2.453,2.4379,2.4575,2.4506,2.4483,2.4582,2.464,2.4617,2.4708,2.4756,2.4742,2.4603,2.4605,2.4722,2.4755,2.5033,2.5032,2.5238,2.5116,2.4977,2.4843,2.4885,2.4766,2.4658,2.4659,2.4513,2.4378,2.4214,2.4336,2.4344,2.433,2.4174,2.4192,2.4107,2.4125,2.4033,2.413,2.407,2.4015,2.4074,2.4061,2.4141,2.5046,2.6618,2.8458,3.047,3.1039,2.9775,2.5904,2.1612,1.9937,2.048,2.1606,2.208,2.2586,2.3113,2.361,2.3811,2.3949,2.4072,2.4,2.4047,2.4419,2.4409,2.4385,2.4335,2.4473,2.4506,2.448,2.4547,2.4528,2.4374,2.4322,2.4326,2.4329,2.4207,2.4155,2.4204,2.4327,2.4393,2.4282,2.4337,2.4424,2.464,2.4744,2.4826,2.4866,2.5113,2.5221,2.5253,2.5239,2.529,2.536,2.5485,2.5643,2.5843,2.5987,2.6199,2.6313,2.6491,2.658,2.6821,2.7084,2.7357,2.7415,2.7549,2.7722,2.7907,2.7983,2.8028,2.7984,2.8051,2.8094,2.8218,2.8283,2.834,2.8184,2.7937,2.7625,2.7348,2.7019,2.6673,2.6362,2.6048,2.5569,2.5233,2.4797,2.4475,2.4247,2.4071,2.3988,2.3853,2.3649,2.359,2.3481,2.3296,2.3206,2.3137,2.3182,2.3252,2.325,2.3328,2.3273,2.3287,2.3203,2.3132,2.3087,2.3145,2.3213,2.3332,2.3421,2.3349,2.3373,2.3439,2.3555,2.3553,2.3619,2.3671,2.3829,2.3787,2.3778,2.3778,2.3799,2.3825,2.3932,2.3968,2.4109,2.4204,2.4128,2.4111,2.4045,2.3859,2.3924,2.3864,2.3852,2.3821,2.3946,2.3911,2.3853,2.3837,2.3628,2.3672,2.3633,2.3645,2.374,2.3873,2.3836,2.3715,2.3877,2.3774,2.3761,2.3711,2.3636,2.3617,2.3782,2.3905,2.4094,2.4232,2.4338,2.4182,2.4297,2.4507,2.4698,2.4802,2.5079,2.5068,2.4625,2.4441,2.4282,2.4388,2.4359,2.4373,2.4276,2.3993,2.3882,2.3832,2.4016,2.4094,2.3966,2.4024,2.4043,2.4036,2.3954,2.3906,2.3975,2.4016,2.4048,2.3982,2.4026,2.4884,2.5782,2.7426,2.9589,3.1261,3.13,2.877,2.4422,2.0219,1.9952,2.113,2.2034,2.2668,2.334,2.3871,2.4039,2.4267,2.437,2.4432,2.4499,2.4701,2.4717,2.4845,2.4777,2.4817,2.4856,2.4922,2.4856,2.4867,2.4782,2.4768,2.4739,2.4784,2.4845,2.4869,2.485,2.4793,2.4873,2.4927,2.4994,2.5029,2.5048,2.5048,2.503,2.51,2.5132,2.5028,2.5176,2.5415,2.5534,2.5556,2.5568,2.5624,2.5868,2.6083,2.6187,2.6345,2.64,2.6676,2.6901,2.7176,2.727,2.7348,2.7484,2.7765,2.7834,2.7984,2.8107,2.8187,2.8229,2.8337,2.8384,2.8289,2.8209,2.8058,2.7889,2.755,2.724,2.6757,2.6248,2.577,2.5543,2.5007,2.4584,2.4347,2.4087,2.3882,2.3598,2.3452,2.3374,2.3281,2.3265,2.3149,2.3052,2.3078,2.2937,2.2956,2.2834,2.2855,2.2926,2.2861,2.2869,2.2907,2.2789,2.2772,2.2722,2.2657,2.2636,2.2657,2.2719,2.2738,2.2914,2.2874,2.278,2.2898,2.2946,2.2953,2.3062,2.3057,2.3085,2.3166,2.3154,2.3237,2.3287,2.3448,2.3418,2.3273,2.3406,2.3475,2.3455,2.3569,2.3496,2.345,2.3668,2.3568,2.365,2.3561,2.3494,2.3537,2.3611,2.3639,2.3635,2.358,2.3556,2.3497,2.3611,2.366,2.3578,2.366,2.3915,2.4281,2.4211,2.4168,2.4078,2.4142,2.455,2.5128,2.5175,2.5043,2.4721,2.4311,2.4244,2.4229,2.411,2.3884,2.3916,2.3829,2.3874,2.3711,2.3725,2.3696,2.3567,2.3663,2.3556,2.3435,2.3395,2.3562,2.3586,2.3506,2.3579,2.3593,2.3462,2.3298,2.3457,2.4218,2.5851,2.8074,3.0302,3.1203,3.0088,2.6111,2.1128,1.8161,1.9467,2.1025,2.1704,2.2609,2.3207,2.3507,2.3672,2.3904,2.3822,2.4051,2.4164,2.4469,2.453,2.4515,2.4288,2.4452,2.4345,2.4488,2.4532,2.4625,2.4517,2.4539,2.4593,2.4586,2.4689,2.4852,2.4939,2.4755,2.4807,2.4863,2.4922,2.5043,2.5194,2.522,2.5363,2.5529,2.5519,2.5544,2.5802,2.5913,2.565,2.5911,2.6079,2.6227,2.641,2.6533,2.6705,2.6995,2.7191,2.7145,2.7374,2.7615,2.7962,2.8174,2.8289,2.8372,2.8464,2.8619,2.8853,2.8972,2.8886,2.8912,2.8923,2.8944,2.8834,2.8721,2.8369,2.7837,2.7539,2.7231,2.6641,2.6209,2.5763,2.5333,2.4961,2.4566,2.4454,2.423,2.3974,2.3724,2.3477,2.3524,2.3505,2.3384,2.3337,2.3298,2.3207,2.316,2.3201,2.3155,2.3363,2.3218,2.3234,2.319,2.321,2.3318,2.3247,2.3302,2.3324,2.3102,2.3207,2.3332,2.3301,2.3214,2.3217,2.3284,2.3336,2.3456,2.3391,2.3517,2.3549,2.3664,2.3692,2.3452,2.3508,2.3496,2.3471,2.3519,2.3489,2.3626,2.3698,2.3725,2.379,2.3673,2.3666,2.3783,2.3865,2.3984,2.3652,2.3628,2.3628,2.3665,2.364,2.3677,2.3754,2.3831,2.3769,2.3624,2.3736,2.3684,2.3728,2.3692,2.3857,2.3852,2.3773,2.3704,2.3776,2.3739,2.3771,2.3852,2.3759,2.3769,2.3674,2.3881,2.3912,2.3873,2.3912,2.3879,2.3939,2.3871,2.3833,2.3928,2.4076,2.4069,2.391,2.3764,2.3605,2.3798,2.3786,2.3816,2.3995,2.3992,2.4207,2.4358,2.4445,2.4456,2.423,2.4394,2.4659,2.491,2.5189,2.5002,2.4789,2.4562,2.4359,2.4259,2.4228,2.4139,2.4027,2.4012,2.4017,2.3936,2.3951,2.3934,2.4025,2.398,2.4168,2.4142,2.4116,2.4174,2.4441,2.4342,2.4202,2.4064,2.4014,2.4384,2.5594,2.7223,2.9215,3.0431,3.1776,3.1188,2.7944,2.3087,1.894,2.0011,2.1558,2.2298,2.3176,2.398,2.428,2.4402,2.4538,2.4763,2.4664,2.4872,2.4963,2.4677,2.4564,2.4635,2.4659,2.478,2.4956,2.4932,2.4928,2.4998,2.496,2.5179,2.5158,2.5063,2.5113,2.5162,2.4988,2.5055,2.5145,2.5157,2.522,2.5291,2.5718,2.5802,2.5534,2.5413,2.5415,2.5609,2.5905,2.604,2.6057,2.6172,2.6292,2.6528,2.6667,2.6815,2.7055,2.7161,2.7323,2.7466,2.7664,2.784,2.8206,2.825,2.8597,2.8634,2.8472,2.8476,2.8756,2.8853,2.8915,2.8862,2.885,2.8915,2.8769,2.8684,2.8398,2.8119,2.7764,2.7326,2.6859,2.6354,2.5979,2.5835,2.543,2.5232,2.4981,2.4808,2.4467,2.4252,2.4219,2.4047,2.4088,2.3997,2.4062,2.3941,2.3961,2.3875,2.3992,2.4073,2.4136,2.413,2.4094,2.4084,2.4133,2.4023,2.3951,2.4223,2.4091,2.3942,2.4114,2.411,2.4217,2.4154,2.4095,2.4188,2.4105,2.4249,2.4286,2.4314,2.4486,2.4303,2.4327,2.4319,2.4385,2.4414,2.4413,2.4328,2.4335,2.4417,2.4469,2.4557,2.436,2.4333,2.4273,2.4392,2.4501,2.431,2.4096,2.4148,2.4208,2.4232,2.4255,2.4176,2.4205,2.4259,2.421,2.4067,2.4172,2.408,2.4077,2.4121,2.3961,2.4149,2.3985,2.3876,2.3897,2.4034,2.3992,2.4002,2.3955,2.3983,2.4048,2.4029,2.3973,2.3842,2.3994,2.4002,2.4073,2.4172,2.4311,2.4415,2.4326,2.4339,2.4271,2.4479,2.4763,2.487,2.4975,2.4889,2.4591,2.4503,2.4369,2.4278,2.4128,2.397,2.3897,2.3751,2.3646,2.3636,2.3508,2.3707,2.3859,2.3795,2.3604,2.3697,2.3706,2.3581,2.3516,2.3668,2.3541,2.3496,2.365,2.4003,2.475,2.7164,2.8958,3.0701,3.059,2.7769,2.3509,1.9314,1.9769,2.1105,2.1703,2.2178,2.2795,2.3306,2.3594,2.3623,2.3786,2.3751,2.3799,2.3893,2.4016,2.4086,2.4051,2.4005,2.4181,2.4328,2.4206,2.4164,2.398,2.398,2.4019,2.4052,2.4106,2.4113,2.4243,2.4333,2.4352,2.4401,2.4391,2.4392,2.4539,2.459,2.4598,2.464,2.4743,2.5103,2.5093,2.5088,2.5291,2.5424,2.5481,2.5629,2.5789,2.593,2.6098,2.619,2.6316,2.656,2.6773,2.6874,2.7073,2.7195,2.7467,2.7674,2.7835,2.7889,2.8065,2.8063,2.8365,2.843,2.8273,2.8322,2.8287,2.8437,2.8143,2.7698,2.73,2.6957,2.6759,2.6525,2.6032,2.5591,2.5196,2.4737,2.4475,2.4293,2.4155,2.3914,2.3833,2.3703,2.3763,2.3709,2.3479,2.3189,2.3236,2.3256,2.3381,2.3214,2.3226,2.3276,2.3203,2.3203,2.3072,2.3016,2.3239,2.3191,2.3022,2.3097,2.3211,2.3313,2.3286,2.3311,2.3326,2.3477,2.3495,2.3446,2.3444,2.3553,2.3467,2.3473,2.3368,2.3438,2.3425,2.3496,2.3533,2.3598,2.351,2.3486,2.337,2.3549,2.3619,2.3583,2.3586,2.3489,2.3568,2.3673,2.3709,2.3483,2.3552,2.3601,2.3585,2.3728,2.4179,2.397,2.3949,2.4107,2.3968,2.4032,2.44,2.4711,2.4942,2.4755,2.4309,2.4227,2.4153,2.4157,2.3912,2.3722,2.3701,2.3726,2.3537,2.3517,2.3437,2.3457,2.3515,2.3458,2.347,2.3299,2.3264,2.3349,2.3335,2.3298,2.3272,2.3219,2.3183,2.3111,2.3211,2.396,2.5558,2.6618,2.8606,3.0623,3.0649,2.8117,2.3603,1.9516,1.9081,2.0285,2.087,2.1608,2.2168,2.2779,2.3016,2.3302,2.3275,2.3473,2.3598,2.3572,2.3421,2.3529,2.3628,2.3725,2.3543,2.357,2.3634,2.3848,2.3752,2.3737,2.3662,2.3755,2.3773,2.3815,2.3922,2.4058,2.4007,2.4053,2.4098,2.4029,2.4081,2.4123,2.4182,2.4312,2.4468,2.4494,2.4645,2.4709,2.4829,2.5053,2.5173,2.5311,2.5487,2.5521,2.5731,2.5793,2.6097,2.6366,2.6578,2.6821,2.6943,2.7246,2.7274,2.7355,2.7603,2.7732,2.7732,2.771,2.8172,2.8136,2.7953,2.7809,2.7833,2.7656,2.7391,2.6993,2.6388,2.5964,2.5434,2.5043,2.4611,2.4392,2.4332,2.3845,2.356,2.3418,2.3205,2.3026,2.31,2.3004,2.2905,2.2764,2.2616,2.2767,2.273,2.2724,2.289,2.2753,2.2625,2.2549,2.2813,2.2869,2.2719,2.2693,2.27,2.2831,2.2924,2.2797,2.265,2.2734,2.2808,2.2801,2.2786,2.2864,2.296,2.2937,2.2904,2.299,2.2999,2.3088,2.3063,2.3104,2.3077,2.3036,2.3108,2.297,2.3071,2.3022,2.2872,2.2874,2.2909,2.3018,2.2865,2.2761,2.2845,2.2893,2.2958,2.2989,2.2989,2.2978,2.2896,2.2838,2.294,2.294,2.2869,2.2972,2.3073,2.2952,2.3005,2.2869,2.2919,2.3011,2.304,2.3042,2.2912,2.2901,2.2915,2.2875,2.3036,2.306,2.3058,2.3136,2.3144,2.3191,2.3265,2.3412,2.3532,2.3596,2.3665,2.3693,2.3712,2.3947,2.4265,2.4327,2.4219,2.4175,2.3961,2.3732,2.3473,2.3356,2.3228,2.315,2.3262,2.3175,2.306,2.3087,2.3179,2.311,2.3054,2.3009,2.2945,2.3118,2.3127,2.3193,2.3123,2.3062,2.3041,2.2995,2.2918,2.3546,2.5047,2.5833,2.776,3.0049,3.0526,2.8963,2.4618,1.9907,1.7897,1.9402,2.0677,2.1317,2.2195,2.2826,2.3131,2.324,2.3349,2.3289,2.3387,2.3495,2.3574,2.3596,2.3625,2.3625,2.3622,2.3559,2.3626,2.3684,2.3838,2.3594,2.3613,2.3701,2.3749,2.3778,2.3697,2.3714,2.3662,2.3791,2.3942,2.3941,2.3844,2.3919,2.3865,2.4149,2.4214,2.4254,2.433,2.4348,2.4599,2.4743,2.4845,2.4794,2.4892,2.5214,2.5466,2.549,2.5705,2.6013,2.6193,2.6381,2.6433,2.6685,2.685,2.7112,2.7209,2.7243,2.7414,2.7547,2.7624,2.7741,2.7793,2.77,2.7611,2.7486,2.7328,2.7036,2.6695,2.6245,2.5673,2.5147,2.4803,2.4424,2.4181,2.3724,2.3397,2.3173,2.2915,2.2661,2.2503,2.2598,2.2545,2.2347,2.2295,2.2238,2.2202,2.2017,2.2027,2.2086,2.2054,2.2158,2.2081,2.205,2.1964,2.1991,2.1984,2.1967,2.1926,2.1936,2.1975,2.1974,2.1932,2.1946,2.1863,2.1872,2.195,2.2007,2.2175,2.2081,2.1909,2.1745,2.1995,2.1906,2.188,2.1914,2.2035,2.204,2.1945,2.1857,2.1895,2.2057,2.2056,2.2078,2.1899,2.2052,2.1987,2.2008,2.1905,2.1887,2.2014,2.1957,2.2006,2.1879,2.1825,2.1908,2.1955,2.2086,2.2023,2.2081,2.1998,2.1904,2.1948,2.2001,2.2003,2.2058,2.2007,2.2132,2.205,2.2055,2.21,2.217,2.218,2.2165,2.2174,2.2187,2.2135,2.2058,2.2292,2.2472,2.2249,2.2196,2.2308,2.2323,2.233,2.2358,2.2282,2.2398,2.2441,2.2407,2.2471,2.248,2.2503,2.2405,2.2424,2.2391,2.239,2.24,2.2444,2.2668,2.2639,2.2417,2.2327,2.2344,2.237,2.2336,2.2358,2.2411,2.2498,2.2501,2.2431,2.2538,2.2534,2.2419,2.2485,2.2416,2.2495,2.2431,2.2522,2.2399,2.2524,2.2492,2.2409,2.2526,2.2579,2.2598,2.2704,2.2447,2.2412,2.251,2.2609,2.2658,2.2864,2.2861,2.2834,2.2911,2.2885,2.3109,2.3257,2.3435,2.352,2.3588,2.3292,2.3049,2.3076,2.3035,2.2969,2.2839,2.2932,2.2831,2.2839,2.2718,2.2556,2.2553,2.2662,2.2762,2.2756,2.2751,2.2803,2.285,2.2853,2.2746,2.2728,2.2727,2.3321,2.4744,2.6883,2.905,3.0353,2.9887,2.7214,2.218,1.7916,1.8631,1.9642,2.0841,2.1662,2.2397,2.2867,2.2988,2.3383,2.3164,2.3228,2.3215,2.35,2.3446,2.3492,2.3471,2.3554,2.3657,2.3754,2.3712,2.3741,2.3667,2.3709,2.3697,2.3823,2.3779,2.3817,2.3883,2.3984,2.3884,2.3858,2.3928,2.3986,2.4162,2.4303,2.4147,2.4075,2.4252,2.4453,2.4533,2.4603,2.4544,2.4664,2.4845,2.5017,2.5133,2.5286,2.5456,2.5627,2.585,2.6174,2.6369,2.649,2.6593,2.6561,2.6772,2.6952,2.722,2.7404,2.7538,2.7578,2.7781,2.7783,2.7792,2.7836,2.7907,2.7801,2.7759,2.7623,2.7472,2.7141,2.6686,2.635,2.6012,2.554,2.5098,2.4738,2.4602,2.4375,2.4215,2.3558,2.338,2.329,2.3168,2.3125,2.3181,2.3134,2.3077,2.3053,2.3156,2.3158,2.3109,2.3085,2.3065,2.3031,2.3077,2.3144,2.3163,2.3045,2.3134,2.3173,2.3214,2.3184,2.3188,2.3309,2.3338,2.3306,2.3286,2.3327,2.3416,2.3486,2.3346,2.3296,2.3409,2.3634,2.3611,2.3524,2.3648,2.3666,2.3594,2.3651,2.3714,2.3728,2.3703,2.3688,2.3751,2.3791,2.3663,2.3609,2.3615,2.3637,2.3552,2.3605,2.3626,2.3626,2.3513,2.3515,2.3536,2.3425,2.344,2.3437,2.3482,2.3484,2.3576,2.3483,2.3387,2.3382,2.3371,2.3488,2.3485,2.3582,2.3604,2.3409,2.3358,2.3356,2.3515,2.3448,2.3488,2.3405,2.3539,2.3411,2.3472,2.3556,2.3339,2.3425,2.3342,2.3545,2.3488,2.3327,2.3278,2.3482,2.3453,2.3454,2.326,2.3387,2.3266,2.3277,2.3272,2.3285,2.339,2.3293,2.3279,2.3361,2.3311,2.3265,2.3182,2.3263,2.3207,2.3234,2.321,2.3191,2.3376,2.3516,2.3414,2.3374,2.3452,2.3639,2.3728,2.3773,2.4014,2.3993,2.3793,2.36,2.3533,2.3534,2.3483,2.3499,2.3399,2.3287,2.322,2.3112,2.309,2.3066,2.3052,2.3111,2.3086,2.3022,2.3198,2.3188,2.2991,2.3032,2.3003,2.2992,2.3021,2.3527,2.4924,2.6507,2.8435,3.0163,2.9893,2.7401,2.3199,1.929,1.9624,2.0846,2.1241,2.1736,2.2386,2.2803,2.2995,2.3169,2.3208,2.3239,2.3226,2.335,2.3322,2.3483,2.3491,2.3741,2.3695,2.3686,2.3885,2.3711,2.3603,2.3528,2.3683,2.3624,2.373,2.3804,2.3786,2.3915,2.3942,2.4001,2.4053,2.4051,2.4102,2.4143,2.4267,2.4474,2.4466,2.4625,2.4669,2.5038,2.5109,2.512,2.5106,2.5414,2.5546,2.5616,2.5773,2.6024,2.6247,2.6262,2.6458,2.6689,2.6899,2.7191,2.7289,2.7429,2.7449,2.7538,2.7565,2.7761,2.7936,2.8012,2.8069,2.804,2.7969,2.8145,2.806,2.7671,2.7337,2.7192,2.6857,2.6321,2.5998,2.5639,2.5391,2.4956,2.466,2.4433,2.4209,2.3833,2.3733,2.3616,2.3627,2.3402,2.3307,2.3199,2.3114,2.3161,2.313,2.3141,2.3065,2.3167,2.31,2.2893,2.3004,2.2904,2.2946,2.2993,2.2972,2.2887,2.3045,2.3005,2.2989,2.3126,2.3273,2.3462,2.3405,2.3279,2.3358,2.3311,2.333,2.3359,2.3316,2.3282,2.3372,2.3379,2.3446,2.3455,2.3527,2.3548,2.3315,2.3178,2.337,2.3439,2.3356,2.3323,2.3304,2.3466,2.3444,2.334,2.343,2.328,2.3315,2.3272,2.3303,2.3315,2.3305,2.3251,2.3317,2.3264,2.3222,2.3354,2.3264,2.324,2.3288,2.3337,2.3353,2.3405,2.3701,2.3785,2.3804,2.3963,2.3783,2.3724,2.3963,2.4218,2.4257,2.4424,2.4168,2.3877,2.3759,2.3618,2.3603,2.353,2.3504,2.3384,2.3169,2.3187,2.3368,2.3417,2.3355,2.3178,2.2953,2.3076,2.3231,2.3164,2.3097,2.309,2.3151,2.3143,2.2968,2.2952,2.3655,2.522,2.7167,2.9271,3.0568,3.0059,2.698,2.4445,2.0277,1.8879,2.0226,2.0788,2.1651,2.2105,2.2667,2.2982,2.3207,2.3381,2.3493,2.3392,2.3747,2.3591,2.3476,2.3507,2.3759,2.3718,2.3804,2.3764,2.3797,2.3736,2.3777,2.3872,2.3873,2.3886,2.3921,2.3951,2.4304,2.4033,2.3995,2.407,2.4106,2.4315,2.4343,2.4382,2.4265,2.4447,2.4568,2.4614,2.4697,2.4867,2.5022,2.523,2.5327,2.5401,2.5453,2.557,2.5769,2.6211,2.6461,2.6447,2.6661,2.6965,2.7152,2.7369,2.7559,2.7671,2.7917,2.8034,2.8101,2.817,2.8075,2.817,2.8064,2.8117,2.8009,2.7816,2.7637,2.7067,2.6406,2.6075,2.5611,2.5224,2.4916,2.4458,2.408,2.387,2.364,2.3522,2.3402,2.3394,2.3311,2.3248,2.3013,2.2937,2.2995,2.2918,2.2923,2.2939,2.2922,2.2828,2.2768,2.2803,2.2842,2.2762,2.2871,2.2892,2.2867,2.2816,2.2805,2.2901,2.2915,2.2955,2.3054,2.3033,2.3014,2.3295,2.331,2.3316,2.3267,2.3218,2.3143,2.3139,2.3382,2.3463,2.3351,2.3258,2.318,2.3216,2.3268,2.3234,2.3328,2.3386,2.3284,2.3443,2.3412,2.3481,2.3296,2.3248,2.3161,2.3057,2.3239,2.331,2.3338,2.3329,2.3251,2.3201,2.3241,2.3164,2.3173,2.328,2.3289,2.3402,2.3379,2.3311,2.3368,2.3294,2.343,2.3307,2.3211,2.3334,2.3489,2.3363,2.3258,2.3166,2.3297,2.3392,2.3512,2.3431,2.3343,2.3303,2.3415,2.3404,2.3373,2.352,2.3836,2.3943,2.4036,2.3839,2.3841,2.4078,2.427,2.4477,2.4485,2.4244,2.4048,2.388,2.3749,2.3714,2.366,2.3504,2.3415,2.3379,2.3322,2.3299,2.3291,2.3256,2.3212,2.3242,2.319,2.3298,2.3381,2.3299,2.3235,2.3301,2.3239,2.3211,2.3202,2.3658,2.4405,2.6063,2.8183,3.021,3.0617,2.9025,2.5034,2.0268,1.8583,1.9869,2.0996,2.1589,2.2462,2.3091,2.3359,2.3465,2.352,2.3499,2.3655,2.3746,2.383,2.3844,2.3917,2.3852,2.3698,2.3739,2.3859,2.3869,2.3975,2.3972,2.3941,2.3848,2.3934,2.3918,2.407,2.413,2.4331,2.4203,2.4205,2.4223,2.4301,2.434,2.4429,2.4595,2.4565,2.4572,2.4764,2.4989,2.505,2.4978,2.5031,2.5215,2.5459,2.5745,2.5818,2.6075,2.6179,2.6341,2.6573,2.6755,2.6964,2.6993,2.7341,2.7503,2.7658,2.7706,2.7841,2.7969,2.8268,2.827,2.8244,2.8265,2.8128,2.8138,2.8072,2.7964,2.7514,2.6946,2.6617,2.6082,2.5844,2.5463,2.52,2.4842,2.4407,2.4061,2.4035,2.3797,2.34,2.3414,2.3599,2.3408,2.3223,2.3226,2.3053,2.318,2.3027,2.2951,2.3072,2.3156,2.3055,2.3053,2.2934,2.3201,2.3109,2.3136,2.2973,2.2782,2.2831,2.3037,2.3201,2.3249,2.3127,2.3204,2.3222,2.3247,2.3281,2.307,2.3128,2.329,2.3357,2.3525,2.3544,2.3543,2.3497,2.343,2.3356,2.3536,2.3582,2.3554,2.3487,2.3409,2.3369,2.3489,2.3551,2.3507,2.3435,2.3443,2.3445,2.3499,2.3429,2.339,2.3403,2.3454,2.3333,2.34,2.3326,2.3345,2.3546,2.3551,2.3409,2.3448,2.3439,2.3484,2.3451,2.3397,2.3344,2.3389,2.3361,2.343,2.3421,2.361,2.3436,2.3449,2.353,2.3413,2.3388,2.335,2.3495,2.3447,2.349,2.3467,2.3494,2.343,2.3438,2.3471,2.3441,2.3385,2.3402,2.3433,2.3427,2.3343,2.3381,2.3391,2.3401,2.3425,2.337,2.3453,2.3469,2.3288,2.3382,2.358,2.352,2.3334,2.3217,2.3274,2.331,2.3377,2.3329,2.3417,2.3521,2.3461,2.3348,2.3544,2.3418,2.3245,2.3279,2.3367,2.3707,2.3723,2.3663,2.3749,2.384,2.3903,2.4043,2.4003,2.4138,2.4374,2.4201,2.3765,2.3752,2.3695,2.3715,2.367,2.3515,2.3426,2.3442,2.344,2.341,2.3224,2.3222,2.3297,2.3382,2.3264,2.3349,2.3318,2.342,2.3151,2.3138,2.3137,2.3283,2.3938,2.5335,2.7258,2.9478,3.06,3.0142,2.706,2.1992,1.8262,1.9392,2.0931,2.1449,2.2322,2.303,2.3469,2.356,2.3774,2.3555,2.3737,2.3793,2.3966,2.3819,2.3711,2.3782,2.3903,2.4031,2.4108,2.3983,2.4011,2.4062,2.4017,2.406,2.4182,2.4052,2.4077,2.414,2.4302,2.4269,2.4357,2.4437,2.4382,2.4357,2.4427,2.4473,2.4654,2.4789,2.4832,2.4895,2.5101,2.5175,2.5254,2.5328,2.537,2.558,2.575,2.595,2.6085,2.6266,2.6597,2.659,2.6726,2.6842,2.7158,2.7313,2.7574,2.7649,2.7591,2.773,2.7963,2.8109,2.8118,2.8105,2.8148,2.824,2.807,2.8014,2.7732,2.7359,2.7027,2.6824,2.6418,2.5999,2.5409,2.5207,2.48,2.4387,2.4135,2.3836,2.3661,2.3647,2.3545,2.3335,2.3169,2.3337,2.3281,2.3005,2.2881,2.2777,2.2804,2.284,2.2992,2.2986,2.2981,2.3048,2.2896,2.2688,2.2609,2.2512,2.2695,2.277,2.285,2.2915,2.2875,2.3027,2.3004,2.3162,2.3199,2.2926,2.2957,2.2994,2.3147,2.3181,2.3195,2.3315,2.3243,2.3327,2.3403,2.3395,2.3225,2.3239,2.319,2.3248,2.334,2.3249,2.3298,2.3351,2.3332,2.3361,2.3281,2.3227,2.3223,2.3254,2.3357,2.3212,2.3216,2.3203,2.3162,2.3067,2.3254,2.3119,2.3155,2.3238,2.3166,2.3173,2.3237,2.3223,2.3211,2.3231,2.3349,2.3347,2.3345,2.3293,2.3283,2.3318,2.3221,2.3297,2.3318,2.3181,2.3139,2.3224,2.3253,2.343,2.3196,2.312,2.3128,2.314,2.3051,2.3047,2.3094,2.3029,2.3063,2.3105,2.3221,2.3146,2.3258,2.3323,2.3154,2.3109,2.321,2.3137,2.3029,2.3057,2.32,2.3217,2.3184,2.3101,2.2984,2.3277,2.3433,2.3382,2.3429,2.3386,2.3366,2.3578,2.3715,2.3789,2.3853,2.398,2.3741,2.3499,2.3653,2.37,2.3594,2.3387,2.34,2.3119,2.32,2.3212,2.3212,2.3327,2.3482,2.3315,2.3317,2.3231,2.3144,2.3091,2.3199,2.3419,2.328,2.3111,2.3545,2.4632,2.6251,2.8269,3.039,3.0881,2.9493,2.5581,2.0992,1.9213,1.9723,2.0906,2.1506,2.2341,2.2907,2.3423,2.3708,2.385,2.3834,2.3822,2.3904,2.4102,2.4076,2.4022,2.4109,2.4106,2.4103,2.425,2.4388,2.4404,2.4296,2.4261,2.4307,2.431,2.4374,2.4494,2.4441,2.4329,2.4557,2.4737,2.4575,2.4595,2.4825,2.4917,2.483,2.4929,2.4957,2.5116,2.521,2.53,2.5447,2.5573,2.5702,2.5798,2.5985,2.6103,2.6198,2.642,2.6621,2.6811,2.7092,2.7363,2.7469,2.757,2.7831,2.797,2.8045,2.821,2.8403,2.8432,2.8454,2.847,2.8559,2.8605,2.8748,2.8616,2.8426,2.825,2.7906,2.7337,2.7018,2.675,2.6172,2.5757,2.5274,2.5004,2.4667,2.441,2.4335,2.4234,2.4069,2.3885,2.3767,2.3746,2.3535,2.3515,2.3483,2.3409,2.3404,2.344,2.3441,2.3462,2.3333,2.3432,2.3454,2.3526,2.356,2.347,2.328,2.3326,2.3356,2.3393,2.3478,2.343,2.3396,2.3534,2.3451,2.354,2.3566,2.3642,2.382,2.3646,2.365,2.3895,2.3869,2.3793,2.3879,2.3794,2.3704,2.3707,2.3846,2.3993,2.3842,2.3698,2.3557,2.3552,2.3675,2.3639,2.357,2.3683,2.3864,2.363,2.3519,2.3419,2.3628,2.3558,2.3646,2.3574,2.3609,2.3569,2.3484,2.3392,2.3452,2.343,2.3448,2.3536,2.3741,2.3663,2.3517,2.3364,2.3443,2.3593,2.3559,2.3647,2.3654,2.3619,2.3532,2.3535,2.3607,2.3559,2.3605,2.3608,2.3504,2.3501,2.3448,2.3486,2.3541,2.3548,2.3529,2.356,2.3582,2.3552,2.3536,2.3417,2.342,2.3494,2.3521,2.3524,2.349,2.3524,2.3435,2.3343,2.3339,2.3511,2.3592,2.351,2.3407,2.3506,2.3532,2.3606,2.3843,2.405,2.3997,2.3756,2.3503,2.3492,2.3509,2.3469,2.3442,2.3375,2.3238,2.3233,2.3285,2.3194,2.3185,2.3108,2.3356,2.3305,2.3128,2.3266,2.3237,2.3096,2.3205,2.3157,2.3141,2.3213,2.4255,2.5894,2.7696,2.8721,3.0349,3.0289,2.8064,2.3977,1.9872,2.0088,2.1237,2.1735,2.2339,2.3001,2.3624,2.3684,2.3609,2.3691,2.3752,2.3958,2.4189,2.4445,2.4333,2.4318,2.441,2.4605,2.4537,2.4502,2.4405,2.4356,2.4155,2.4305,2.4228,2.4294,2.4252,2.4297,2.4515,2.4604,2.4365,2.4427,2.4666,2.465,2.4591,2.473,2.4656,2.4757,2.4897,2.4949,2.5135,2.5216,2.5223,2.5461,2.5594,2.574,2.5785,2.5969,2.6282,2.6469,2.6616,2.6633,2.6778,2.6964,2.7145,2.7387,2.7419,2.7559,2.7712,2.8007,2.802,2.7824,2.7898,2.7982,2.7976,2.7956,2.8005,2.787,2.7541,2.7303,2.6838,2.647,2.6082,2.5619,2.5391,2.4857,2.4683,2.4316,2.3979,2.3745,2.3662,2.3506,2.3292,2.3174,2.3173,2.3093,2.3078,2.2699,2.2753,2.2639,2.2725,2.2721,2.2704,2.2711,2.2633,2.2739,2.2733,2.2638,2.2475,2.2494,2.2499,2.2626,2.262,2.273,2.2882,2.3,2.3025,2.3138,2.2955,2.2907,2.2935,2.2933,2.2936,2.3046,2.3175,2.3097,2.3143,2.3191,2.3079,2.3078,2.3198,2.3189,2.3207,2.3192,2.3361,2.3239,2.33,2.3086,2.2946,2.2923,2.3104,2.3093,2.3006,2.3013,2.3089,2.3055,2.3049,2.3075,2.3231,2.3277,2.3154,2.3281,2.315,2.3278,2.3281,2.317,2.3214,2.3276,2.3441,2.3598,2.355,2.3367,2.3327,2.3393,2.3454,2.3544,2.3561,2.3572,2.3567,2.343,2.3405,2.3382,2.3412,2.3323,2.3366,2.3431,2.3475,2.3594,2.3441,2.3396,2.3506,2.3501,2.3492,2.3652,2.3751,2.3704,2.377,2.3801,2.376,2.3776,2.396,2.4079,2.4232,2.4244,2.4256,2.3977,2.39,2.3963,2.3857,2.392,2.3728,2.3591,2.3431,2.3583,2.359,2.363,2.3628,2.3665,2.3682,2.3543,2.3396,2.3431,2.3472,2.3549,2.3514,2.3512,2.3422,2.3923,2.5441,2.7294,2.9194,3.0942,3.0917,2.87,2.4303,1.9893,1.9317,2.0459,2.1417,2.2198,2.2887,2.3479,2.3559,2.3673,2.386,2.3933,2.3975,2.4266,2.4644,2.4686,2.4412,2.441,2.4403,2.4531,2.4429,2.4458,2.4483,2.447,2.4535,2.4438,2.427,2.4281,2.4252,2.4299,2.4448,2.4416,2.4459,2.4461,2.4564,2.4683,2.4675,2.4803,2.4784,2.4733,2.4895,2.4982,2.5043,2.5112,2.5148,2.5323,2.543,2.5544,2.5825,2.5976,2.6131,2.6241,2.6461,2.6875,2.697,2.7209,2.7395,2.7331,2.7395,2.7521,2.7742,2.7843,2.7912,2.8082,2.796,2.8007,2.8003,2.8096,2.7925,2.7715,2.7579,2.6947,2.6606,2.6159,2.5701,2.5273,2.4905,2.4525,2.416,2.3778,2.3755,2.362,2.3478,2.3416,2.3277,2.3275,2.3299,2.3133,2.2976,2.2979,2.2918,2.2819,2.2773,2.2794,2.2796,2.3003,2.3054,2.2908,2.2719,2.2706,2.2636,2.2598,2.263,2.2766,2.2784,2.2749,2.2867,2.2905,2.3069,2.3012,2.3078,2.3012,2.3167,2.3136,2.311,2.3156,2.3321,2.3445,2.3517,2.3476,2.3444,2.3418,2.334,2.3367,2.3402,2.3446,2.3489,2.3444,2.3452,2.338,2.3313,2.3317,2.3342,2.3322,2.3318,2.3428,2.3476,2.332,2.3432,2.3319,2.3375,2.3341,2.332,2.3375,2.3344,2.3407,2.3338,2.3491,2.3303,2.3284,2.3274,2.323,2.3295,2.3255,2.3333,2.3434,2.3543,2.3428,2.337,2.3299,2.3254,2.342,2.3498,2.3591,2.3347,2.3281,2.3284,2.3387,2.3343,2.3378,2.3325,2.3351,2.3414,2.3237,2.3158,2.3134,2.3063,2.3124,2.3195,2.3162,2.3127,2.3188,2.3193,2.3174,2.3296,2.3362,2.3327,2.3309,2.3266,2.3412,2.3514,2.3674,2.3854,2.4002,2.3978,2.3746,2.3559,2.3551,2.3462,2.3498,2.3398,2.3208,2.3121,2.3102,2.3127,2.3021,2.2926,2.2963,2.2972,2.2922,2.296,2.2977,2.3068,2.3067,2.3067,2.302,2.2942,2.2963,2.3934,2.5556,2.7579,2.9774,3.0484,3.0216,2.801,2.3312,1.8821,1.8589,2.0226,2.1072,2.1968,2.2549,2.3128,2.3177,2.3318,2.3274,2.34,2.3578,2.3903,2.3846,2.3732,2.3719,2.3716,2.3672,2.3798,2.3896,2.4011,2.3801,2.3763,2.3783,2.3814,2.379,2.3895,2.3854,2.395,2.395,2.3966,2.4045,2.4139,2.4197,2.4408,2.4378,2.4421,2.4518,2.4447,2.4537,2.467,2.4884,2.4896,2.5055,2.5177,2.5318,2.5349,2.5603,2.5711,2.5912,2.6215,2.6387,2.665,2.6807,2.6951,2.7352,2.7428,2.7453,2.7458,2.7759,2.7923,2.7984,2.7888,2.7993,2.8161,2.82,2.797,2.7792,2.7563,2.7179,2.6844,2.6375,2.5927,2.5516,2.5042,2.4697,2.4466,2.4333,2.3925,2.3669,2.3431,2.3286,2.318,2.3126,2.2987,2.3099,2.2933,2.2744,2.264,2.2664,2.2624,2.2671,2.2687,2.2869,2.2998,2.283,2.2708,2.2662,2.2589,2.2631,2.2647,2.2667,2.2625,2.2731,2.2945,2.2999,2.2977,2.2933,2.2827,2.2832,2.2952,2.2969,2.2987,2.3,2.3082,2.3079,2.3079,2.3169,2.3211,2.3162,2.3132,2.3124,2.3125,2.3094,2.3125,2.3216,2.3183,2.3124,2.324,2.3189,2.3184,2.3267,2.3246,2.3215,2.3167,2.3196,2.3314,2.3242,2.3225,2.3299,2.3417,2.3352,2.337,2.3435,2.3577,2.3439,2.3402,2.3403,2.3406,2.3385,2.3463,2.3453,2.3432,2.3361,2.3437,2.3443,2.3581,2.3631,2.3618,2.3534,2.374,2.3678,2.3473,2.3524,2.3505,2.3557,2.3575,2.3635,2.3691,2.3656,2.3713,2.3812,2.3701,2.3644,2.3512,2.3529,2.3564,2.3704,2.3647,2.3615,2.3702,2.3584,2.3561,2.3641,2.3655,2.3558,2.3723,2.3754,2.3798,2.3886,2.409,2.3972,2.3805,2.3743,2.399,2.4204,2.4218,2.446,2.4484,2.4285,2.4125,2.4116,2.4075,2.4118,2.4038,2.3841,2.3792,2.3702,2.3663,2.3606,2.356,2.3694,2.3816,2.3783,2.3776,2.3783,2.3793,2.3696,2.367,2.3712,2.3719,2.377,2.4594,2.6172,2.8194,3.0386,3.1204,3.0093,2.6413,2.1666,1.9051,2.0407,2.1671,2.2212,2.3189,2.3695,2.3934,2.3947,2.4228,2.4214,2.4402,2.4316,2.4257,2.434,2.4409,2.4534,2.4707,2.4715,2.4626,2.4583,2.4672,2.4698,2.467,2.4726,2.4638,2.473,2.4791,2.4715,2.4802,2.4878,2.4929,2.4928,2.512,2.5238,2.5264,2.5252,2.5408,2.5453,2.5656,2.5736,2.5855,2.596,2.6088,2.6249,2.6504,2.6641,2.6682,2.6867,2.6952,2.7202,2.7505,2.779,2.7708,2.7867,2.8087,2.8292,2.8513,2.87,2.8782,2.8898,2.8974,2.9034,2.9151,2.9243,2.9231,2.9174,2.9162,2.8932,2.874,2.8577,2.8193,2.7838,2.7203,2.6819,2.644,2.6127,2.5707,2.5376,2.5155,2.4967,2.453,2.4314,2.4159,2.4049,2.3978,2.394,2.3828,2.3785,2.3659,2.356,2.3547,2.362,2.3719,2.3813,2.358,2.343,2.3435,2.3322,2.3199,2.3066,2.3237,2.3253,2.3034,2.3097,2.34,2.33,2.3346,2.3454,2.3466,2.3285,2.3361,2.3437,2.3382,2.3358,2.3336,2.3518,2.3655,2.3769,2.365,2.3597,2.3688,2.3601,2.362,2.3625,2.3667,2.3722,2.3686,2.3638,2.3633,2.3724,2.3736,2.3669,2.3786,2.3783,2.3662,2.372,2.3788,2.3755,2.3802,2.3813,2.376,2.3938,2.4013,2.3978,2.3879,2.3908,2.3925,2.3983,2.4006,2.395,2.3912,2.3971,2.3988,2.3926,2.3982,2.4046,2.396,2.3891,2.3846,2.3797,2.3853,2.4074,2.411,2.4064,2.4224,2.4274,2.4369,2.4408,2.4578,2.4591,2.4609,2.4599,2.4565,2.4512,2.4343,2.4241,2.421,2.4196,2.4135,2.399,2.3991,2.3973,2.3973,2.4116,2.4038,2.4003,2.3978,2.4006,2.4031,2.4022,2.4026,2.4014,2.3986,2.4035,2.4807,2.6289,2.8109,3.02,3.1329,3.0287,2.6775,2.2856,2.0073,2.1109,2.2078,2.2336,2.2964,2.3247,2.3776,2.3928,2.4097,2.4137,2.4324,2.4308,2.4382,2.4378,2.4589,2.4412,2.4479,2.4402,2.4393,2.4355,2.4451,2.4477,2.4447,2.4351,2.4471,2.4531,2.4589,2.4444,2.4393,2.4479,2.4569,2.4628,2.462,2.4572,2.4656,2.4685,2.4728,2.4829,2.4968,2.4938,2.5157,2.5343,2.5512,2.5449,2.5522,2.5647,2.59,2.6037,2.6327,2.6427,2.6464,2.6417,2.6551,2.6856,2.7055,2.7424,2.7524,2.7658,2.7739,2.7783,2.7804,2.798,2.8043,2.8125,2.8075,2.7999,2.7923,2.7823,2.7545,2.7138,2.6707,2.6166,2.5907,2.5399,2.4957,2.4763,2.4417,2.4047,2.3501,2.3385,2.3367,2.3152,2.3054,2.2996,2.2804,2.2827,2.2702,2.2596,2.2525,2.2681,2.2782,2.2842,2.2819,2.2717,2.26,2.2484,2.249,2.2541,2.2445,2.2435,2.2419,2.2499,2.2594,2.2629,2.2566,2.2718,2.2772,2.2762,2.2884,2.2831,2.2788,2.2847,2.28,2.2865,2.2857,2.2997,2.2958,2.2851,2.2947,2.3017,2.2953,2.2809,2.2802,2.2777,2.285,2.2811,2.2727,2.2646,2.2597,2.2673,2.2672,2.2498,2.2488,2.2639,2.2537,2.2584,2.2596,2.2555,2.2636,2.2719,2.2628,2.2567,2.2745,2.2788,2.2814,2.2894,2.2873,2.2913,2.2904,2.2889,2.3052,2.3273,2.3397,2.3405,2.34,2.3424,2.3673,2.3771,2.3914,2.393,2.3677,2.3568,2.363,2.3658,2.3475,2.3423,2.3267,2.3219,2.3105,2.2989,2.2943,2.3034,2.3093,2.3021,2.2929,2.2987,2.2879,2.2971,2.2949,2.3026,2.2992,2.2893,2.2959,2.3842,2.5441,2.6485,2.8471,3.0402,3.0146,2.7537,2.2921,1.8429,1.8279,1.9687,2.0604,2.1569,2.2359,2.2872,2.2962,2.3198,2.3187,2.3372,2.3515,2.3796,2.3908,2.3995,2.3842,2.3882,2.3948,2.3853,2.3779,2.397,2.3923,2.3734,2.3583,2.3712,2.3707,2.3765,2.3842,2.3807,2.3906,2.3914,2.4082,2.4053,2.4083,2.4123,2.4238,2.4238,2.4387,2.4513,2.4562,2.4615,2.4668,2.4769,2.4843,2.4986,2.5454,2.5448,2.5449,2.5586,2.5724,2.6172,2.6405,2.6505,2.6636,2.6743,2.6989,2.7073,2.7066,2.7414,2.74,2.7349,2.7596,2.7535,2.7571,2.7465,2.7529,2.7321,2.7001,2.6348,2.6113,2.5708,2.5179,2.4627,2.4037,2.3769,2.3392,2.3043,2.2748,2.2438,2.2253,2.2145,2.198,2.1934,2.1746,2.1598,2.157,2.1582,2.1441,2.1351,2.1262,2.1264,2.1229,2.1247,2.1439,2.1404,2.1373,2.1353,2.1302,2.1308,2.1309,2.1401,2.1634,2.1591,2.141,2.1536,2.1652,2.1665,2.1576,2.1574,2.161,2.16,2.1652,2.1693,2.183,2.1777,2.1944,2.2004,2.195,2.1947,2.1939,2.2029,2.2017,2.209,2.2123,2.2245,2.233,2.2138,2.2184,2.2132,2.2041,2.217,2.2213,2.2232,2.2233,2.2266,2.2264,2.2304,2.2307,2.233,2.2297,2.2396,2.2431,2.2426,2.2378,2.2443,2.2497,2.2496,2.2557,2.2613,2.2607,2.2419,2.2578,2.262,2.28,2.2791,2.2615,2.2734,2.3053,2.3313,2.3205,2.317,2.3122,2.3409,2.37,2.3968,2.3975,2.3922,2.3778,2.3597,2.337,2.3144,2.3155,2.3087,2.2964,2.2887,2.2805,2.2905,2.2866,2.2913,2.2942,2.2823,2.2938,2.301,2.3079,2.2992,2.2976,2.2847,2.2889,2.2857,2.2817,2.3193,2.4364,2.5998,2.8096,2.9262,3.082,3.04,2.699,2.2042,1.7714,1.8371,2.0074,2.0946,2.2073,2.2987,2.3283,2.3282,2.3647,2.3699,2.362,2.3702,2.3676,2.391,2.3952,2.3991,2.3966,2.4099,2.4049,2.42,2.4203
