1.2474,1.2774,1.2724,1.2749,1.301,1.3148,1.2489,1.27,1.2811,1.3064,1.323,1.3137,1.2545,1.2734,1.2926,1.3042,1.3121,1.2864,1.2746,1.2952,1.3136,1.2903,1.2771,1.2862,1.3103,1.3058,1.2921,1.3089,1.3171,1.2815,1.2938,1.297,1.295,1.3022,1.3285,1.3149,1.3108,1.3079,1.3163,1.3219,1.3411,1.3318,1.3299,1.3395,1.3667,1.3715,1.3709,1.3691,1.3667,1.3829,1.3656,1.3453,1.3364,1.3474,1.3736,1.3525,1.3334,1.3197,1.2917,1.3044,1.3121,1.3208,1.3067,1.3285,1.2886,1.2816,1.3059,1.289,1.3109,1.3148,1.3167,1.3063,1.2839,1.2985,1.3018,1.2945,1.3072,1.2949,1.3297,1.3312,1.3245,1.2635,1.2755,1.2992,1.2917,1.3062,1.3052,1.3008,1.2905,1.3047,1.3023,1.2909,1.3129,1.2912,1.2608,1.2878,1.2984,1.3073,1.3186,1.2676,1.2747,1.2536,1.2681,1.2811,1.2727,1.2924,1.2902,1.278,1.2961,1.2843,1.2785,1.299,1.2734,1.2496,1.2612,1.27,1.2934,1.2867,1.2724,1.2545,1.2902,1.2978,1.2527,1.2643,1.2603,1.2742,1.2617,1.2763,1.2923,1.2666,1.2714,1.2716,1.2908,1.2665,1.2692,1.2491,1.282,1.285,1.2498,1.2656,1.2656,1.2958,1.2572,1.2818,1.2385,1.2642,1.2907,1.2787,1.2795,1.2764,1.2674,1.2788,1.2796,1.3034,1.3534,1.3227,1.3069,1.3298,1.3218,1.3583,1.3703,1.3834,1.3424,1.358,1.3409,1.3004,1.3192,1.3071,1.2632,1.2381,1.2472,1.2346,1.239,1.2515,1.2529,1.2543,1.2622,1.2547,1.2327,1.2459,1.2237,1.2532,1.25,1.2067,1.135,1.1065,1.1044,1.1225,1.2823,1.6051,2.0618,2.4567,2.6527,2.8773,2.8129,2.1699,1.5135,1.0373,0.85486,0.73555,0.7302,0.85898,1.02,1.1435,1.2231,1.2367,1.2393,1.2696,1.2576,1.2577,1.2596,1.2686,1.2709,1.3031,1.2818,1.2594,1.2651,1.2666,1.2737,1.2858,1.303,1.2832,1.2882,1.2788,1.2899,1.2886,1.2922,1.2912,1.308,1.3182,1.3051,1.2962,1.2886,1.3144,1.2907,1.2916,1.3093,1.3175,1.3228,1.2943,1.3152,1.3184,1.3035,1.3221,1.3422,1.2947,1.2973,1.3128,1.3472,1.2869,1.3101,1.3145,1.3302,1.3258,1.3039,1.3118,1.3197,1.3388,1.3427,1.3546,1.3218,1.3329,1.3422,1.3585,1.3615,1.3615,1.3432,1.3646,1.366,1.3861,1.3914,1.3721,1.3805,1.4123,1.3883,1.3659,1.3501,1.3458,1.3693,1.3366,1.3284,1.3195,1.3214,1.3382,1.361,1.3107,1.3139,1.2767,1.3081,1.331,1.31,1.3448,1.2924,1.2856,1.3201,1.3258,1.3078,1.3329,1.3008,1.3331,1.3257,1.2986,1.3019,1.3173,1.3145,1.3242,1.3314,1.329,1.3017,1.3111,1.3297,1.3025,1.2828,1.3129,1.3063,1.3126,1.3096,1.3095,1.3145,1.3262,1.3268,1.3127,1.2899,1.31,1.3182,1.3108,1.2974,1.3189,1.3232,1.28,1.2696,1.2729,1.2848,1.306,1.3118,1.3212,1.2933,1.2558,1.2869,1.3106,1.295,1.2902,1.2847,1.3063,1.3299,1.3197,1.2951,1.2656,1.3024,1.2702,1.298,1.3071,1.2879,1.3106,1.2748,1.2741,1.2834,1.2881,1.2973,1.3066,1.2998,1.2875,1.2997,1.3172,1.2863,1.2794,1.304,1.3196,1.2967,1.2807,1.2747,1.2867,1.2866,1.2881,1.3029,1.2771,1.2865,1.2689,1.276,1.2896,1.3032,1.3474,1.3424,1.3472,1.3327,1.3528,1.3716,1.3876,1.3599,1.3784,1.402,1.3755,1.3534,1.3214,1.3327,1.2925,1.2731,1.3002,1.2551,1.2465,1.253,1.2569,1.2992,1.2466,1.2471,1.2594,1.2895,1.2539,1.2543,1.2656,1.2722,1.2465,1.161,1.1437,1.1306,1.2115,1.4739,1.9111,2.1531,2.4888,2.6712,2.8774,2.7156,2.0804,1.4712,1.0246,0.88853,0.7544,0.79269,0.81075,0.99935,1.127,1.2294,1.2606,1.252,1.2571,1.2913,1.3142,1.3321,1.2488,1.2671,1.301,1.3227,1.2878,1.2688,1.2871,1.2925,1.3112,1.3131,1.2956,1.3283,1.315,1.3122,1.327,1.2652,1.2771,1.2961,1.3138,1.3325,1.3118,1.3492,1.309,1.3055,1.3132,1.312,1.3246,1.3302,1.3339,1.3367,1.3366,1.3192,1.332,1.3394,1.3269,1.3173,1.3201,1.32,1.3724,1.3271,1.3481,1.3306,1.3149,1.3364,1.3502,1.3172,1.3332,1.3486,1.3666,1.386,1.3514,1.3666,1.4001,1.3704,1.3915,1.3821,1.4011,1.4043,1.406,1.4288,1.3727,1.3895,1.3849,1.4059,1.4067,1.3855,1.3595,1.3567,1.3402,1.3392,1.3346,1.3238,1.3516,1.3436,1.3371,1.3146,1.3096,1.3192,1.3424,1.3173,1.3292,1.3258,1.3088,1.3315,1.3283,1.2945,1.3133,1.3332,1.3302,1.335,1.3316,1.2977,1.3228,1.3201,1.3343,1.312,1.3206,1.3135,1.3233,1.3228,1.3424,1.3034,1.3165,1.3197,1.3533,1.2977,1.2869,1.3195,1.3034,1.3012,1.3084,1.3059,1.3092,1.292,1.294,1.3053,1.302,1.2973,1.2971,1.3219,1.3139,1.284,1.2676,1.2945,1.3207,1.307,1.2662,1.2782,1.2799,1.3062,1.3122,1.2665,1.2712,1.2882,1.2736,1.2795,1.2684,1.2875,1.2793,1.2942,1.3508,1.3145,1.3393,1.349,1.2919,1.3553,1.3247,1.3304,1.3656,1.3766,1.3924,1.3475,1.3095,1.3388,1.3199,1.3179,1.2387,1.2612,1.2412,1.2534,1.2389,1.2535,1.2708,1.2168,1.2423,1.2898,1.2432,1.2335,1.2202,1.2377,1.2592,1.2407,1.134,1.1133,1.0955,1.1167,1.2462,1.5577,2.0495,2.42,2.6066,2.7313,2.7172,2.1635,1.5153,1.0831,0.85297,0.76826,0.76388,0.7777,0.85881,1.0228,1.127,1.1738,1.2347,1.2638,1.2469,1.2385,1.2507,1.2774,1.2898,1.2875,1.269,1.2674,1.2926,1.2738,1.2857,1.2902,1.2944,1.2783,1.3151,1.3171,1.2952,1.2855,1.2792,1.2813,1.3058,1.3304,1.2731,1.2814,1.3043,1.3312,1.3146,1.3029,1.2875,1.3052,1.3194,1.3081,1.2968,1.3195,1.3207,1.3153,1.3254,1.3163,1.28,1.3011,1.3268,1.3252,1.3279,1.3043,1.3217,1.3278,1.3735,1.3024,1.3147,1.3329,1.3482,1.3666,1.3374,1.3581,1.3682,1.3868,1.4002,1.3506,1.3936,1.3787,1.3939,1.3943,1.3795,1.3981,1.3859,1.4056,1.3734,1.3597,1.3628,1.3566,1.3481,1.3518,1.3348,1.3185,1.321,1.363,1.3068,1.2694,1.2795,1.3157,1.3251,1.2953,1.3011,1.3138,1.3074,1.309,1.3213,1.2936,1.3175,1.3101,1.3238,1.3264,1.3322,1.2823,1.2954,1.3023,1.3182,1.3415,1.3414,1.3027,1.3177,1.3374,1.3323,1.312,1.2954,1.3115,1.3401,1.3699,1.3047,1.2929,1.3159,1.3041,1.2993,1.3186,1.3287,1.2995,1.3179,1.2997,1.3088,1.3311,1.305,1.3114,1.2973,1.2966,1.3154,1.3089,1.2779,1.3068,1.3069,1.3151,1.2833,1.2952,1.2997,1.3087,1.2963,1.2914,1.2895,1.3164,1.3453,1.3632,1.3405,1.3363,1.3351,1.3396,1.38,1.3852,1.3912,1.4041,1.3785,1.3729,1.3627,1.3425,1.3371,1.3575,1.2737,1.2585,1.2703,1.278,1.3078,1.2891,1.2467,1.2345,1.2808,1.255,1.2459,1.2655,1.2792,1.2908,1.2752,1.2341,1.2046,1.1766,1.1367,1.1119,1.1885,1.3963,1.8658,2.3274,2.5366,2.684,2.9692,2.5542,1.8315,1.2571,0.91194,0.80934,0.72382,0.81379,0.93919,1.1235,1.1987,1.2038,1.2548,1.2491,1.2554,1.282,1.2735,1.3038,1.2722,1.2816,1.2614,1.2819,1.2985,1.3036,1.295,1.2726,1.3061,1.3042,1.2805,1.2743,1.268,1.2937,1.3185,1.3009,1.2843,1.2994,1.303,1.3181,1.2967,1.313,1.2963,1.319,1.3146,1.3206,1.2957,1.2899,1.315,1.3125,1.3281,1.321,1.3208,1.2797,1.3109,1.3075,1.3006,1.306,1.3075,1.3464,1.3025,1.3153,1.3288,1.3257,1.3451,1.3254,1.3398,1.3389,1.3496,1.3292,1.3578,1.3715,1.397,1.3285,1.3694,1.3853,1.3853,1.3799,1.3507,1.3974,1.4046,1.3652,1.349,1.3485,1.3499,1.3633,1.3612,1.3492,1.3135,1.3279,1.3224,1.3312,1.3138,1.3114,1.3205,1.2976,1.3247,1.3176,1.2808,1.2927,1.3174,1.3089,1.2994,1.3103,1.3057,1.3182,1.3196,1.3258,1.3277,1.3011,1.3125,1.3219,1.3144,1.2943,1.31,1.3312,1.3241,1.2773,1.2765,1.3131,1.2936,1.2697,1.3009,1.3011,1.2712,1.2813,1.2919,1.296,1.2927,1.3103,1.3142,1.2785,1.264,1.2749,1.2874,1.324,1.295,1.2646,1.2703,1.2905,1.2678,1.3252,1.2907,1.2433,1.2551,1.2595,1.2873,1.2885,1.2812,1.2714,1.277,1.2943,1.2658,1.2605,1.2844,1.2838,1.2722,1.2723,1.2815,1.2948,1.2587,1.2703,1.2684,1.2598,1.2829,1.242,1.2791,1.2819,1.2935,1.3013,1.3163,1.3324,1.3314,1.3211,1.3565,1.3486,1.3589,1.3761,1.3801,1.3799,1.3317,1.3346,1.3058,1.3024,1.2483,1.2538,1.2704,1.2504,1.2663,1.2565,1.254,1.1859,1.2231,1.2312,1.2489,1.2552,1.2435,1.2604,1.2561,1.2301,1.2383,1.1467,1.0634,1.0988,1.1512,1.3676,1.7838,2.0402,2.4062,2.6064,2.7761,2.8118,2.2091,1.5723,1.0782,0.87989,0.74472,0.69742,0.82862,0.97686,1.1195,1.1926,1.2329,1.2306,1.2201,1.2567,1.2498,1.2498,1.2656,1.2499,1.237,1.2627,1.2826,1.2729,1.2695,1.2482,1.2588,1.2697,1.2642,1.2867,1.2584,1.2808,1.2989,1.2732,1.2714,1.2929,1.2684,1.2577,1.2739,1.2686,1.2805,1.2964,1.249,1.2901,1.2834,1.2978,1.2882,1.2743,1.2894,1.3001,1.286,1.2802,1.2867,1.2669,1.3041,1.3052,1.2744,1.3283,1.2922,1.2699,1.2818,1.2932,1.2984,1.3211,1.3171,1.3086,1.3104,1.3285,1.3288,1.3397,1.3332,1.3502,1.3543,1.3553,1.383,1.3814,1.3786,1.3572,1.4045,1.4249,1.2927,1.322,1.3425,1.3295,1.3514,1.3136,1.3102,1.3076,1.32,1.2894,1.2953,1.2887,1.2918,1.294,1.3035,1.2858,1.2853,1.2971,1.3205,1.2775,1.3211,1.3165,1.2672,1.2767,1.2806,1.2702,1.2893,1.2914,1.2775,1.2884,1.3069,1.2675,1.2817,1.2779,1.3006,1.2867,1.3036,1.2729,1.2566,1.2791,1.2931,1.2925,1.2778,1.2881,1.2827,1.2948,1.255,1.2589,1.2746,1.2865,1.2531,1.2798,1.2969,1.2253,1.2579,1.2652,1.2638,1.2569,1.2665,1.2573,1.2651,1.2877,1.2454,1.2405,1.2696,1.2537,1.2699,1.2708,1.2764,1.2615,1.2537,1.2316,1.249,1.2393,1.265,1.2486,1.2491,1.2625,1.2399,1.2555,1.2717,1.2628,1.2756,1.2905,1.309,1.3161,1.2799,1.3113,1.3255,1.3571,1.3611,1.3857,1.3268,1.3061,1.322,1.3018,1.2886,1.2666,1.2234,1.2416,1.2215,1.218,1.2253,1.2383,1.2304,1.241,1.2389,1.2117,1.2484,1.2338,1.217,1.2329,1.2326,1.188,1.1636,1.1322,1.1129,1.094,1.1342,1.3818,1.7968,2.2569,2.5277,2.6471,2.7691,2.3936,1.733,1.1526,0.85648,0.78619,0.72959,0.73522,0.74949,0.8606,0.97669,1.1381,1.2221,1.2148,1.194,1.2054,1.2377,1.2329,1.2492,1.246,1.2314,1.2548,1.2648,1.2857,1.2466,1.254,1.2818,1.2441,1.2577,1.2684,1.2751,1.2799,1.2422,1.2813,1.285,1.2734,1.2676,1.2972,1.2858,1.2786,1.2635,1.288,1.2874,1.3044,1.2979,1.2912,1.2556,1.3076,1.271,1.288,1.2781,1.2997,1.2998,1.2822,1.2975,1.2545,1.2789,1.3027,1.2996,1.2853,1.2971,1.3001,1.3263,1.3233,1.3242,1.2995,1.3138,1.3108,1.3394,1.3401,1.3436,1.3698,1.3631,1.3459,1.3686,1.3762,1.3857,1.3796,1.3522,1.3697,1.3685,1.3498,1.3441,1.3686,1.3768,1.3159,1.2938,1.3013,1.3168,1.3222,1.2919,1.2868,1.308,1.2931,1.2855,1.2924,1.3023,1.2759,1.2746,1.3074,1.28,1.2595,1.3043,1.306,1.2919,1.3189,1.2853,1.2629,1.2969,1.2815,1.2977,1.2831,1.2963,1.3258,1.2881,1.276,1.3259,1.2786,1.2743,1.2937,1.2886,1.2944,1.2831,1.2752,1.2948,1.2901,1.3091,1.2833,1.254,1.2782,1.28,1.2791,1.2422,1.2577,1.2776,1.3044,1.2673,1.2389,1.2645,1.268,1.2721,1.2832,1.2817,1.2386,1.2664,1.2816,1.2627,1.253,1.2685,1.2893,1.2623,1.2281,1.246,1.2361,1.2476,1.2676,1.3007,1.3146,1.3141,1.3149,1.3003,1.288,1.3324,1.3321,1.3472,1.3724,1.3288,1.3218,1.3196,1.3093,1.3135,1.2908,1.239,1.2669,1.2268,1.2165,1.1908,1.2025,1.2294,1.2141,1.2402,1.2352,1.2187,1.2214,1.2439,1.2266,1.2393,1.2316,1.1737,1.0799,1.0794,1.1069,1.2375,1.5519,2.0327,2.4456,2.5872,2.8255,2.8196,2.173,1.8484,1.2608,0.88541,0.77543,0.66173,0.75641,0.90015,1.0669,1.1559,1.2219,1.2269,1.2529,1.2369,1.2484,1.2336,1.2471,1.243,1.2405,1.2219,1.249,1.2432,1.3098,1.2924,1.2561,1.2168,1.2615,1.2557,1.2763,1.2466,1.2639,1.3008,1.3134,1.2812,1.2759,1.2393,1.2674,1.2737,1.2728,1.2576,1.28,1.2753,1.2869,1.2992,1.333,1.2458,1.2738,1.2789,1.2651,1.2835,1.2866,1.2919,1.2996,1.299,1.2855,1.2781,1.2683,1.2833,1.2909,1.2967,1.2854,1.3073,1.3159,1.3157,1.3059,1.3288,1.3155,1.3226,1.3337,1.3661,1.3429,1.3713,1.3548,1.3789,1.3674,1.3232,1.3404,1.3755,1.3523,1.3436,1.3272,1.3351,1.3254,1.3391,1.3209,1.313,1.3178,1.313,1.2948,1.3099,1.3096,1.3061,1.2984,1.3276,1.2758,1.2686,1.2833,1.2969,1.2969,1.2967,1.2857,1.3165,1.2624,1.2849,1.3062,1.3001,1.2796,1.2833,1.3078,1.2997,1.3072,1.2913,1.2934,1.2857,1.2733,1.2801,1.2808,1.2677,1.3154,1.3006,1.2836,1.292,1.2865,1.2621,1.2868,1.2856,1.2966,1.2822,1.2726,1.2746,1.285,1.2805,1.2982,1.2864,1.2871,1.2683,1.3019,1.2647,1.2817,1.2942,1.2833,1.2785,1.2936,1.2732,1.2896,1.2877,1.2901,1.2952,1.3076,1.278,1.2638,1.2677,1.2743,1.2968,1.3212,1.3348,1.3407,1.3547,1.3831,1.3532,1.3441,1.3549,1.3657,1.3825,1.3651,1.3645,1.348,1.3064,1.3191,1.3126,1.2514,1.2393,1.2504,1.2812,1.2598,1.2542,1.2835,1.2522,1.1851,1.243,1.2472,1.2382,1.2458,1.2361,1.2535,1.2621,1.2143,1.1406,1.0935,1.1175,1.1851,1.4326,1.8856,2.3133,2.5698,2.6337,2.8722,2.7506,2.0893,1.4691,1.0086,0.85084,0.75551,0.76721,0.90926,1.0148,1.0938,1.206,1.2293,1.263,1.249,1.2611,1.2487,1.2573,1.2596,1.2748,1.2722,1.2723,1.2625,1.3115,1.2902,1.2763,1.2602,1.2778,1.3027,1.2774,1.2675,1.2893,1.2944,1.3134,1.2914,1.274,1.2868,1.2724,1.2862,1.2951,1.3086,1.3204,1.2777,1.2982,1.3056,1.2886,1.3059,1.3061,1.3217,1.3076,1.3231,1.3207,1.2753,1.2722,1.3118,1.3059,1.3194,1.3245,1.3159,1.3117,1.3196,1.333,1.339,1.3094,1.3094,1.3131,1.3294,1.3337,1.343,1.3482,1.3789,1.362,1.3751,1.3637,1.3726,1.3647,1.3732,1.3644,1.3779,1.3839,1.3724,1.3705,1.3566,1.3503,1.3441,1.3364,1.332,1.3317,1.3328,1.3139,1.3149,1.3218,1.305,1.3117,1.3121,1.3607,1.3743,1.3505,1.2587,1.2616,1.2915,1.2784,1.2888,1.3062,1.3017,1.3022,1.3137,1.3057,1.2784,1.2901,1.304,1.2893,1.3093,1.2879,1.3034,1.2956,1.3155,1.2939,1.293,1.299,1.3126,1.3113,1.3109,1.2972,1.2989,1.3077,1.2752,1.2529,1.2788,1.281,1.2953,1.2939,1.289,1.2766,1.2897,1.2985,1.2837,1.2913,1.2903,1.2824,1.2857,1.2789,1.2851,1.2766,1.2797,1.2729,1.3002,1.3264,1.3208,1.3389,1.339,1.3381,1.3122,1.3647,1.3848,1.3816,1.3819,1.3606,1.3459,1.351,1.3125,1.3074,1.2951,1.2698,1.2649,1.229,1.2631,1.2471,1.2529,1.2666,1.2368,1.2488,1.2333,1.2417,1.2568,1.2599,1.2611,1.2478,1.2494,1.234,1.1734,1.1003,1.1342,1.143,1.2864,1.6975,2.129,2.4811,2.642,2.7909,2.5749,1.9865,1.3802,1.1213,0.86889,0.75554,0.76812,0.786,0.80727,0.87367,1.0479,1.1558,1.2565,1.2538,1.2658,1.2538,1.2718,1.2746,1.2504,1.2446,1.2747,1.2746,1.2868,1.29,1.3016,1.3096,1.2691,1.2692,1.2995,1.2773,1.2963,1.2948,1.3012,1.3206,1.3036,1.3159,1.2759,1.2881,1.3092,1.2941,1.3071,1.3065,1.314,1.31,1.2989,1.2737,1.2991,1.3192,1.3371,1.2882,1.3019,1.3082,1.3175,1.3457,1.315,1.2956,1.3088,1.3172,1.324,1.3239,1.3127,1.3096,1.3534,1.3661,1.3255,1.35,1.3693,1.3386,1.3418,1.3576,1.389,1.3858,1.3865,1.4032,1.4084,1.3876,1.4201,1.4211,1.3885,1.4054,1.3948,1.3727,1.3381,1.3519,1.351,1.3357,1.33,1.3233,1.3298,1.3265,1.3263,1.3213,1.3148,1.3055,1.3149,1.3143,1.3252,1.33,1.3108,1.3199,1.3038,1.3119,1.3275,1.3254,1.3125,1.3214,1.318,1.3271,1.3291,1.3535,1.3081,1.2672,1.3151,1.31,1.2981,1.3065,1.3081,1.316,1.3073,1.3201,1.3069,1.3326,1.3013,1.3136,1.3188,1.2933,1.3047,1.3073,1.3155,1.316,1.3145,1.279,1.2825,1.2863,1.2978,1.3112,1.286,1.3078,1.2871,1.2908,1.287,1.2917,1.2781,1.3064,1.294,1.3056,1.331,1.3288,1.336,1.3487,1.3388,1.3544,1.3979,1.4116,1.3815,1.4046,1.3677,1.3743,1.3705,1.3298,1.3106,1.2988,1.2623,1.2516,1.2572,1.2517,1.2523,1.2508,1.255,1.2642,1.2611,1.2431,1.2637,1.2447,1.2514,1.2634,1.2603,1.2795,1.2385,1.2027,1.11,1.1031,1.1846,1.351,1.7864,2.2478,2.5831,2.669,2.9113,2.6832,2.0176,1.3423,0.929,0.80466,0.73597,0.78293,0.86918,0.94767,1.0284,1.1905,1.2456,1.2573,1.2461,1.2582,1.2752,1.276,1.2945,1.3012,1.2568,1.2296,1.24,1.2559,1.2521,1.2682,1.2826,1.2846,1.2856,1.2766,1.2783,1.2872,1.3006,1.2747,1.2701,1.3022,1.2759,1.2816,1.3047,1.3076,1.2881,1.2861,1.2764,1.2783,1.2815,1.2837,1.2949,1.302,1.3057,1.2842,1.2892,1.2931,1.2927,1.2994,1.2981,1.2853,1.2945,1.2986,1.3077,1.2966,1.3048,1.3074,1.325,1.3181,1.3186,1.3137,1.3256,1.3306,1.3428,1.338,1.3478,1.3493,1.3604,1.3735,1.3856,1.3732,1.3923,1.4057,1.3706,1.3373,1.3513,1.343,1.3493,1.3596,1.3499,1.3024,1.3017,1.3239,1.3135,1.2997,1.3294,1.3405,1.3322,1.2803,1.2794,1.2933,1.3168,1.2806,1.2855,1.3042,1.3013,1.3203,1.3078,1.2974,1.2999,1.3012,1.308,1.293,1.3286,1.2999,1.2809,1.2998,1.2634,1.2792,1.2953,1.2884,1.2896,1.276,1.2923,1.2983,1.2814,1.2849,1.2957,1.3051,1.2779,1.2879,1.3139,1.3228,1.2472,1.2634,1.2924,1.2718,1.2563,1.2706,1.2751,1.267,1.2678,1.2896,1.2988,1.2922,1.2834,1.281,1.3215,1.3408,1.328,1.3254,1.3307,1.3347,1.3361,1.4008,1.3576,1.3441,1.3573,1.3627,1.3705,1.3386,1.319,1.3113,1.2493,1.2529,1.2745,1.231,1.2305,1.2358,1.2461,1.2488,1.2637,1.2218,1.2238,1.248,1.2491,1.2396,1.2392,1.2367,1.2206,1.1944,1.1076,1.0922,1.1391,1.2416,1.5726,2.0207,2.4478,2.5801,2.6542,2.9018,2.5182,1.843,1.2603,0.91624,0.76861,0.701,0.74857,0.87916,1.0483,1.1571,1.2431,1.2226,1.2398,1.238,1.248,1.2478,1.2451,1.2625,1.2663,1.2675,1.2637,1.2614,1.2617,1.2602,1.271,1.267,1.277,1.2935,1.2748,1.2756,1.2941,1.3081,1.2403,1.2774,1.2768,1.2822,1.2861,1.2722,1.2801,1.2732,1.2702,1.2788,1.2913,1.3133,1.2905,1.2949,1.2745,1.2789,1.2932,1.2966,1.3053,1.3002,1.3155,1.2856,1.2983,1.3065,1.2846,1.27,1.2735,1.2883,1.2985,1.3046,1.3082,1.3096,1.3209,1.3343,1.3126,1.3235,1.335,1.3612,1.3655,1.372,1.3733,1.3318,1.3636,1.3658,1.3668,1.3516,1.3729,1.3534,1.3586,1.3374,1.3283,1.3357,1.3189,1.3283,1.3227,1.311,1.2943,1.3002,1.3042,1.2934,1.2929,1.338,1.3101,1.2703,1.2866,1.3095,1.3136,1.2965,1.2756,1.2892,1.3016,1.3322,1.323,1.2667,1.2946,1.2732,1.2777,1.2888,1.2955,1.2976,1.2827,1.2978,1.2941,1.2587,1.2882,1.2885,1.2476,1.2541,1.287,1.3032,1.32,1.3022,1.2565,1.2636,1.2727,1.2726,1.288,1.2689,1.2727,1.2831,1.3107,1.3008,1.2846,1.3278,1.3409,1.3433,1.3687,1.3257,1.3401,1.3681,1.3656,1.378,1.3833,1.3823,1.3677,1.3491,1.3389,1.3045,1.2195,1.2429,1.2484,1.2229,1.2303,1.2271,1.2389,1.2424,1.2271,1.2555,1.2347,1.2356,1.2373,1.2259,1.2498,1.2518,1.2481,1.1989,1.1232,1.071,1.0929,1.1934,1.2788,1.6246,2.0893,2.4337,2.6205,2.8872,2.7063,2.0641,1.4173,0.98485,0.82743,0.6932,0.71608,0.86912,1.0595,1.1825,1.2395,1.221,1.2409,1.2479,1.2816,1.2458,1.2306,1.2532,1.2667,1.2547,1.2604,1.2718,1.2547,1.277,1.287,1.268,1.2745,1.271,1.2456,1.2693,1.266,1.2776,1.2742,1.2746,1.2886,1.3138,1.294,1.2631,1.2562,1.2732,1.2867,1.2822,1.2845,1.2878,1.2972,1.2817,1.2796,1.2991,1.2932,1.3072,1.3083,1.2642,1.2742,1.2964,1.2923,1.2963,1.2838,1.2852,1.2894,1.3199,1.3237,1.3159,1.3259,1.3298,1.3337,1.3164,1.3012,1.3147,1.3361,1.3548,1.3569,1.3534,1.3687,1.3969,1.3935,1.3676,1.3694,1.3578,1.3659,1.3651,1.3723,1.3512,1.3425,1.3344,1.3504,1.3493,1.3351,1.3424,1.2854,1.2793,1.3072,1.3069,1.3101,1.3189,1.3198,1.3293,1.2799,1.287,1.3073,1.2977,1.3269,1.279,1.2881,1.2902,1.2991,1.2964,1.302,1.3025,1.2975,1.3021,1.3152,1.3181,1.3143,1.2812,1.2936,1.2767,1.284,1.2895,1.2819,1.2909,1.2747,1.2803,1.2626,1.2427,1.2672,1.2642,1.2868,1.2406,1.253,1.2744,1.2659,1.2804,1.2609,1.2645,1.2374,1.2548,1.2763,1.2974,1.2551,1.2511,1.2575,1.2466,1.2537,1.2512,1.2658,1.2565,1.261,1.3124,1.2961,1.294,1.2991,1.3119,1.3285,1.3321,1.3575,1.3645,1.3503,1.3621,1.333,1.3036,1.2973,1.3002,1.2822,1.2489,1.2163,1.2088,1.222,1.2289,1.2276,1.2191,1.2445,1.2232,1.2154,1.2144,1.2244,1.2043,1.2487,1.2097,1.2029,1.1725,1.0889,1.0743,1.0882,1.1598,1.43,1.9398,2.347,2.5601,2.5923,2.7771,2.5686,1.9203,1.3069,0.94116,0.78349,0.67888,0.72356,0.81476,0.94414,1.0711,1.1558,1.229,1.222,1.2151,1.2015,1.2228,1.2535,1.2578,1.2363,1.2133,1.2293,1.2341,1.2346,1.2392,1.2588,1.2509,1.2401,1.2475,1.2424,1.246,1.25,1.2827,1.2685,1.2548,1.2285,1.2171,1.2267,1.2381,1.2223,1.2105,1.2139,1.2109,1.2257,1.2435,1.2305,1.2035,1.2287,1.2322,1.2421,1.2429,1.1976,1.2062,1.2049,1.2095,1.2075,1.2151,1.223,1.1828,1.1558,1.1232,1.143,1.132,1.1593,1.166,1.1609,1.1777,1.1646,1.1816,1.1884,1.1793,1.175,1.1998,1.2042,1.2288,1.2213,1.2039,1.2287,1.2243,1.2427,1.2211,1.2071,1.1757,1.1838,1.1935,1.2063,1.1419,1.1613,1.1657,1.214,1.2065,1.1436,1.1809,1.199,1.2172,1.2272,1.223,1.2233,1.1434,1.1531,1.1656,1.172,1.189,1.186,1.2073,1.2059,1.2181,1.2113,1.2325,1.2123,1.2142,1.2294,1.1973,1.2319,1.2327,1.2302,1.2585,1.2177,1.221,1.2437,1.2503,1.2463,1.2203,1.1955,1.2273,1.217,1.2188,1.2273,1.2331,1.2396,1.2526,1.2436,1.2256,1.2398,1.2483,1.2557,1.2041,1.2014,1.2248,1.1733,1.1609,1.1765,1.2089,1.2271,1.2338,1.2501,1.2446,1.2466,1.2782,1.3069,1.3373,1.3167,1.3292,1.2933,1.2833,1.2629,1.2564,1.2252,1.1904,1.2228,1.2201,1.199,1.1992,1.1773,1.1948,1.2267,1.2192,1.2082,1.2283,1.228,1.2361,1.2296,1.2206,1.205,1.1922,1.1135,1.0551,1.0897,1.1567,1.4201,1.8686,2.3078,2.5337,2.6523,2.802,2.3804,1.6998,1.1522,0.88246,0.78993,0.72675,0.77427,0.79717,0.93304,1.0753,1.1934,1.2367,1.2465,1.2423,1.267,1.2765,1.2834,1.2928,1.3035,1.3089,1.2856,1.2982,1.3189,1.3108,1.3285,1.3143,1.3445,1.3366,1.3467,1.3417,1.3469,1.3295,1.332,1.3327,1.3315,1.335,1.3458,1.3515,1.3405,1.3428,1.3589,1.3634,1.3656,1.3742,1.3532,1.3439,1.3549,1.3564,1.3555,1.3417,1.3435,1.3464,1.3717,1.3548,1.3473,1.3465,1.365,1.3683,1.359,1.365,1.3618,1.368,1.371,1.3851,1.371,1.3742,1.3871,1.3765,1.3817,1.3893,1.3934,1.4075,1.4329,1.4598,1.4219,1.4319,1.4304,1.4386,1.4485,1.424,1.425,1.4238,1.4238,1.4103,1.3988,1.3991,1.4128,1.3908,1.3701,1.3679,1.3746,1.4003,1.4015,1.3974,1.4156,1.3852,1.374,1.423,1.4141,1.3758,1.402,1.3893,1.4028,1.4016,1.3866,1.3848,1.3897,1.4129,1.4025,1.4086,1.3592,1.3261,1.3902,1.4173,1.3895,1.3622,1.3712,1.4204,1.3794,1.4152,1.3628,1.4186,1.425,1.3755,1.3873,1.4166,1.419,1.4429,1.4109,1.4071,1.4143,1.4102,1.4358,1.366,1.438,1.4654,1.4334,1.4464,1.4514,1.403,1.454,1.4695,1.4471,1.4233,1.4375,1.5262,1.4734,1.4571,1.4904,1.4479,1.4488,1.48,1.4911,1.5319,1.4654,1.5172,1.5356,1.5354,1.5866,1.5446,1.5326,1.5624,1.5618,1.5305,1.5462,1.4993,1.4899,1.4806,1.4888,1.4755,1.4706,1.4291,1.5062,1.508,1.5627,1.5387,1.5197,1.5304,1.5745,1.5678,1.5477,1.5036,1.4421,1.4783,1.4456,1.364,1.3755,1.5285,1.8608,2.3068,2.6421,2.8467,3.0678,2.9864,2.3396,1.7104,1.1714,1.0885,0.96019,0.93125,1.1132,1.1836,1.266,1.4111,1.4435,1.5272,1.4903,1.4717,1.454,1.4799,1.555,1.5098,1.5051,1.5311,1.5474,1.5217,1.5625,1.5303,1.5722,1.5475,1.5083,1.494,1.5814,1.5615,1.5695,1.5619,1.5431,1.5503,1.5822,1.55,1.5622,1.5068,1.5374,1.5517,1.5093,1.559,1.5303,1.5077,1.468,1.4838,1.4981,1.4598,1.4467,1.4795,1.4794,1.4708,1.4209,1.4613,1.4052,1.4231,1.4098,1.4519,1.4407,1.3968,1.4103,1.4364,1.4185,1.4318,1.4123,1.4112,1.4205,1.4434,1.3861,1.4195,1.4464,1.447,1.4683,1.4401,1.4597,1.4254,1.4629,1.4817,1.4452,1.3963,1.4367,1.428,1.4122,1.3879,1.4025,1.4094,1.3982,1.3759,1.4034,1.3774,1.3819,1.3931,1.3868,1.3692,1.3968,1.3389,1.3512,1.3968,1.4103,1.3574,1.3519,1.4049,1.3655,1.3434,1.3251,1.3755,1.4053,1.3725,1.3197,1.3399,1.3984,1.3757,1.347,1.389,1.3004,1.3468,1.3459,1.3541,1.366,1.3374,1.3567,1.3451,1.3631,1.3417,1.3357,1.3415,1.3369,1.2938,1.3694,1.3461,1.3142,1.3254,1.3663,1.3693,1.3224,1.3375,1.3152,1.3673,1.315,1.3159,1.3533,1.3903,1.3162,1.3198,1.3382,1.325,1.3418,1.3319,1.3648,1.3183,1.3148,1.3096,1.4342,1.4228,1.376,1.3929,1.3749,1.4329,1.4317,1.4064,1.4223,1.452,1.4355,1.433,1.3771,1.4157,1.3874,1.3652,1.3206,1.3029,1.2767,1.282,1.3315,1.3406,1.3326,1.2865,1.3287,1.2795,1.3383,1.3301,1.32,1.2917,1.3104,1.3217,1.27,1.2021,1.1662,1.1901,1.2377,1.4636,1.9009,2.3778,2.6635,2.7424,2.9112,2.477,1.8314,1.2791,0.96278,0.88093,0.77318,0.80655,0.90561,1.0522,1.1496,1.2614,1.2948,1.2818,1.2869,1.288,1.2987,1.3522,1.314,1.3044,1.352,1.3564,1.3538,1.352,1.3477,1.3488,1.3597,1.3563,1.3449,1.3055,1.3478,1.4039,1.3514,1.3589,1.3718,1.3789,1.3575,1.3368,1.3461,1.4015,1.3875,1.3893,1.3652,1.3618,1.3985,1.3715,1.3589,1.3752,1.376,1.3665,1.3864,1.4153,1.3694,1.3727,1.3688,1.4027,1.3852,1.3924,1.3705,1.3884,1.3915,1.3531,1.4051,1.404,1.4021,1.3859,1.38,1.4236,1.4385,1.4102,1.4389,1.4448,1.4138,1.4614,1.4067,1.4986,1.4331,1.4511,1.4838,1.4485,1.4583,1.436,1.4701,1.4213,1.4282,1.4321,1.4308,1.3987,1.3876,1.4212,1.3767,1.405,1.4359,1.3871,1.3864,1.3865,1.4054,1.4139,1.4153,1.3404,1.4564,1.4128,1.4005,1.3564,1.3724,1.4165,1.4396,1.4354,1.3979,1.3807,1.3834,1.4098,1.3698,1.4137,1.4065,1.3806,1.3932,1.3779,1.4021,1.4007,1.3805,1.4186,1.4142,1.3535,1.3668,1.3583,1.4098,1.4097,1.372,1.3663,1.3366,1.3561,1.3667,1.3568,1.4199,1.3588,1.3815,1.3635,1.4157,1.4412,1.4015,1.3818,1.4211,1.4621,1.4065,1.4558,1.4701,1.5097,1.4126,1.4419,1.4728,1.4198,1.4153,1.376,1.363,1.3297,1.3124,1.3089,1.3433,1.3726,1.3327,1.3537,1.3342,1.3231,1.3524,1.3329,1.3195,1.3256,1.3641,1.3423,1.2738,1.2926,1.1998,1.1728,1.1976,1.337,1.7017,2.1447,2.4992,2.6757,2.8038,2.68,2.4402,1.8105,1.2111,1.0205,0.87038,0.86414,0.86171,0.9027,0.99576,1.1817,1.2632,1.3315,1.3088,1.3237,1.3063,1.3499,1.3111,1.3799,1.3743,1.3752,1.347,1.34,1.3646,1.3546,1.3389,1.3765,1.3355,1.376,1.4232,1.328,1.3984,1.4086,1.3766,1.3873,1.3622,1.386,1.3647,1.3754,1.371,1.3655,1.3927,1.3827,1.3939,1.3839,1.3943,1.4094,1.423,1.3824,1.37,1.3908,1.4061,1.4062,1.3685,1.3707,1.413,1.3638,1.3951,1.3978,1.4038,1.4121,1.363,1.4302,1.447,1.395,1.4318,1.3721,1.4344,1.4696,1.4308,1.4282,1.4804,1.4693,1.4544,1.3831,1.4715,1.4458,1.5193,1.5442,1.495,1.489,1.4174,1.4351,1.3945,1.4363,1.447,1.4227,1.3632,1.3998,1.4395,1.3966,1.3524,1.4128,1.4107,1.3883,1.3729,1.426,1.3864,1.3872,1.3694,1.3762,1.3819,1.4311,1.4202,1.4131,1.4011,1.4089,1.4291,1.3997,1.3943,1.3627,1.4078,1.4036,1.4233,1.3569,1.3715,1.4266,1.4486,1.3976,1.3657,1.3523,1.4266,1.3974,1.3993,1.4243,1.3808,1.362,1.4025,1.3951,1.3904,1.3456,1.3592,1.3364,1.379,1.3935,1.402,1.3565,1.3716,1.4109,1.4614,1.4537,1.421,1.4209,1.4334,1.4291,1.4452,1.5017,1.4312,1.3853,1.4506,1.4725,1.4281,1.4075,1.3458,1.3137,1.3381,1.322,1.361,1.3298,1.3197,1.3483,1.3056,1.3314,1.3251,1.3716,1.313,1.3063,1.3257,1.3398,1.3621,1.2932,1.1748,1.1654,1.1976,1.3472,1.4839,1.8296,2.2669,2.6185,2.7754,2.9686,2.6303,1.9766,1.3827,1.003,0.90512,0.82655,0.85923,0.9591,1.1249,1.2361,1.3648,1.3531,1.3239,1.3417,1.3754,1.3345,1.3388,1.3423,1.3893,1.3411,1.3388,1.3848,1.4177,1.3844,1.3665,1.3318,1.3771,1.3977,1.3889,1.3693,1.3666,1.3526,1.4176,1.3892,1.4239,1.3816,1.3601,1.3976,1.3929,1.3594,1.3889,1.3789,1.414,1.4101,1.4144,1.4007,1.3954,1.3881,1.3951,1.4404,1.3472,1.3452,1.4016,1.4281,1.4005,1.4105,1.3802,1.3697,1.4124,1.4243,1.4139,1.3628,1.3492,1.4333,1.4306,1.407,1.4169,1.3992,1.4237,1.4008,1.4443,1.4623,1.4448,1.4472,1.4361,1.451,1.4275,1.4241,1.4213,1.4144,1.3464,1.4407,1.4121,1.3976,1.3638,1.3978,1.3692,1.3566,1.326,1.3928,1.3837,1.3664,1.3497,1.3298,1.3448,1.398,1.3646,1.373,1.3218,1.36,1.364,1.3718,1.3131,1.374,1.3631,1.3874,1.3063,1.3059,1.3723,1.3538,1.3299,1.3303,1.346,1.3341,1.3224,1.2916,1.3854,1.3384,1.325,1.3432,1.3384,1.3529,1.3407,1.2834,1.3075,1.3152,1.3569,1.3421,1.3243,1.3327,1.3171,1.3424,1.2971,1.3477,1.3097,1.3033,1.3185,1.3503,1.3234,1.3198,1.2991,1.3196,1.3202,1.3383,1.3395,1.2798,1.3488,1.3236,1.3367,1.3317,1.338,1.3469,1.3529,1.3656,1.4059,1.3609,1.3978,1.4078,1.4343,1.3821,1.4044,1.4644,1.4439,1.3755,1.339,1.3345,1.3777,1.3293,1.2899,1.2568,1.306,1.2822,1.2738,1.2892,1.3334,1.2997,1.3052,1.3098,1.3044,1.3135,1.3245,1.2747,1.2706,1.2386,1.1884,1.17,1.1393,1.3419,1.5129,1.8999,2.3415,2.5859,2.7672,3.0013,2.4909,1.8537,1.2967,0.98097,0.8578,0.76218,0.8266,1.0289,1.2159,1.2798,1.3092,1.2668,1.3474,1.3197,1.3544,1.2995,1.3012,1.332,1.369,1.3266,1.3517,1.36,1.3786,1.3635,1.3212,1.3656,1.383,1.3036,1.3735,1.3621,1.3799,1.3654,1.3842,1.3751,1.334,1.3596,1.3418,1.3959,1.3541,1.3903,1.4016,1.3472,1.3566,1.4224,1.3839,1.3415,1.3905,1.3492,1.3817,1.3824,1.3609,1.3711,1.3826,1.3765,1.3696,1.3522,1.4036,1.3947,1.3708,1.3756,1.3934,1.3471,1.394,1.3847,1.381,1.4263,1.4132,1.411,1.4327,1.4286,1.4353,1.4435,1.4739,1.4334,1.4472,1.4546,1.4564,1.4714,1.4132,1.4369,1.452,1.4078,1.4282,1.4505,1.3967,1.4199,1.4076,1.4126,1.4349,1.4311,1.3896,1.4017,1.3824,1.3776,1.4042,1.3911,1.3486,1.4324,1.4281,1.4012,1.4341,1.4109,1.3706,1.4195,1.3824,1.3676,1.4007,1.3798,1.4188,1.3965,1.4473,1.423,1.3893,1.3756,1.3926,1.381,1.3974,1.3809,1.3423,1.4251,1.3924,1.3972,1.3672,1.4138,1.3905,1.3974,1.3725,1.3691,1.3825,1.3761,1.3887,1.3789,1.3608,1.3717,1.3393,1.3592,1.3896,1.377,1.3998,1.3872,1.3614,1.3493,1.367,1.3645,1.3425,1.4092,1.4085,1.356,1.3705,1.3556,1.3911,1.3421,1.3882,1.348,1.3611,1.3874,1.361,1.3551,1.3881,1.421,1.3755,1.3511,1.3811,1.3877,1.415,1.4492,1.4395,1.3809,1.3698,1.4427,1.5078,1.5043,1.4398,1.4444,1.4962,1.4638,1.3843,1.455,1.4146,1.3156,1.362,1.4077,1.3629,1.3828,1.3622,1.3567,1.359,1.3714,1.361,1.3594,1.3917,1.4146,1.3383,1.3633,1.4056,1.3359,1.2358,1.2563,1.239,1.3003,1.6214,2.1073,2.5441,2.7564,2.8435,2.8142,2.3145,1.9934,1.3825,1.0187,0.94836,0.85948,0.85015,0.89557,1.0304,1.1865,1.3544,1.3417,1.3304,1.3377,1.3545,1.3481,1.3689,1.358,1.3404,1.3716,1.3924,1.368,1.3184,1.4286,1.4093,1.3888,1.3527,1.3729,1.4057,1.4002,1.4001,1.3797,1.3587,1.3761,1.4226,1.3929,1.3807,1.3942,1.4079,1.3828,1.4155,1.3744,1.3815,1.3742,1.4144,1.4128,1.4388,1.4104,1.3673,1.4044,1.3731,1.3858,1.42,1.4057,1.3898,1.3977,1.4129,1.316,1.4307,1.4142,1.4182,1.3961,1.3605,1.4121,1.4311,1.3881,1.4052,1.4309,1.3969,1.3885,1.4595,1.4539,1.4833,1.4558,1.451,1.4658,1.4672,1.4756,1.4416,1.4204,1.4832,1.4347,1.4503,1.4064,1.4535,1.4341,1.4065,1.4359,1.3954,1.3754,1.4251,1.4246,1.3881,1.3565,1.4512,1.4287,1.3997,1.388,1.3858,1.4169,1.4252,1.3882,1.3839,1.4563,1.4449,1.4042,1.3926,1.3761,1.4537,1.4069,1.4429,1.4323,1.39,1.4277,1.3865,1.3862,1.3748,1.4428,1.393,1.4096,1.4084,1.4037,1.3955,1.3646,1.4062,1.3993,1.402,1.3642,1.336,1.4238,1.4016,1.3726,1.4192,1.3455,1.3546,1.3966,1.4022,1.4113,1.3857,1.4057,1.4151,1.4386,1.4611,1.4245,1.4258,1.4713,1.4496,1.4837,1.4936,1.4508,1.442,1.366,1.3826,1.4255,1.3785,1.3336,1.3221,1.3503,1.3733,1.3509,1.3075,1.3199,1.3616,1.3739,1.3358,1.2933,1.3482,1.3734,1.3351,1.2968,1.2891,1.2769,1.2047,1.2107,1.1999,1.3546,1.4323,1.9055,2.348,2.6079,2.7191,2.8443,2.4314,1.8137,1.3114,1.0186,0.88146,0.79893,0.89303,0.91295,1.0542,1.1377,1.277,1.331,1.3235,1.3367,1.3158,1.3065,1.3562,1.3981,1.3667,1.3465,1.3531,1.3651,1.383,1.3801,1.3332,1.3291,1.4078,1.4502,1.3809,1.3804,1.3547,1.3748,1.3785,1.3933,1.3609,1.3689,1.3691,1.4061,1.3848,1.3855,1.4029,1.3741,1.3713,1.3847,1.3418,1.3318,1.2976,1.2756,1.2944,1.2718,1.2714,1.1719,1.1639,1.2258,1.2913,1.2534,1.1737,1.1435,1.1082,1.0455,1.0291,1.0061,1.0332,1.0478,0.99802,1.0193,1.0168,1.0647,1.0623,1.0307,0.9991,0.9841,1.007,1.0459,1.0293,1.0399,1.0589,0.98509,1.001,1.0122,1.0323,0.96234,0.96707,0.94179,0.92035,0.94444,0.94788,0.94366,0.84879,0.90159,0.91387,0.92671,0.97216,0.9442,0.9266,0.88489,0.87369,0.90856,0.93425,0.94274,0.92759,0.89895,0.93112,0.89859,0.97335,0.97006,0.87899,0.89174,0.92501,0.92214,0.90917,0.92529,0.91565,0.93805,0.90771,0.86992,0.9184,0.85855,0.94282,0.89983,0.88039,0.94874,0.88661,0.90052,0.89212,0.86015,0.8941,0.9225,0.92305,0.87457,0.92308,0.93874,0.92699,0.93552,0.94825,1.0339,1.0271,1.0074,1.0256,0.99147,1.0716,1.0628,1.1021,1.0456,1.0199,1.0555,1.0207,1.0214,1.023,0.97961,0.94542,0.90282,0.9598,0.9473,0.98975,0.97685,0.99703,0.99083,0.94395,0.99073,1.0386,0.98768,1.0188,1.0302,1.0074,0.94413,0.86837,0.93155,0.92831,0.98354,1.1127,1.5153,1.9744,2.3035,2.4829,2.7025,2.3635,1.6968,1.1087,0.76641,0.6418,0.52599,0.6163,0.76761,0.93423,1.0139,1.1214,1.104,1.1245,1.1625,1.1395,1.1489,1.1453,1.1452,1.1484,1.2414,1.1827,1.1942,1.212,1.2224,1.1928,1.1812,1.2591,1.2722,1.2828,1.2462,1.2437,1.2452,1.2674,1.2851,1.262,1.2559,1.2691,1.2841,1.26,1.2413,1.3421,1.3297,1.2908,1.2642,1.2896,1.2926,1.3043,1.3139,1.3118,1.2839,1.2944,1.3161,1.3009,1.2882,1.2799,1.3497,1.3078,1.3313,1.289,1.3204,1.3184,1.329,1.3271,1.3086,1.3198,1.3149,1.3557,1.3634,1.3426,1.4068,1.4311,1.4056,1.3711,1.3892,1.3864,1.3972,1.4107,1.389,1.3767,1.392,1.3612,1.3412,1.3883,1.375,1.3383,1.3113,1.3112,1.3053,1.305,1.3095,1.3207,1.2951,1.3077,1.321,1.2685,1.2879,1.3228,1.3452,1.3018,1.3022,1.2984,1.3452,1.3318,1.301,1.2905,1.3481,1.3247,1.3216,1.2747,1.2736,1.3499,1.3004,1.3155,1.2932,1.2854,1.3589,1.3352,1.317,1.314,1.3169,1.3608,1.3127,1.3038,1.3157,1.3166,1.2905,1.2963,1.3215,1.3206,1.3368,1.3435,1.3546,1.3281,1.2982,1.3036,1.3638,1.3637,1.3545,1.3611,1.4072,1.3938,1.4041,1.394,1.3725,1.3904,1.4361,1.4512,1.4444,1.4109,1.363,1.3559,1.3782,1.423,1.3431,1.2723,1.3296,1.3173,1.3036,1.2769,1.289,1.2988,1.2946,1.3399,1.2979,1.2739,1.3143,1.3548,1.2916,1.2946,1.3006,1.2913,1.2281,1.1788,1.1242,1.209,1.3321,1.7628,2.228,2.5353,2.7036,2.9825,2.7247,2.0178,1.3732,1.0065,0.91719,0.79313,0.76704,0.93014,1.0116,1.1758,1.2915,1.3021,1.3353,1.3014,1.302,1.3159,1.3279,1.3153,1.3298,1.3278,1.3494,1.3543,1.3314,1.3155,1.301,1.2689,1.3654,1.3919,1.3598,1.3482,1.3716,1.3424,1.3371,1.2908,1.362,1.3761,1.3624,1.3485,1.3212,1.3373,1.3297,1.3407,1.3548,1.3568,1.3406,1.3248,1.3589,1.3757,1.3622,1.3776,1.3653,1.3676,1.3386,1.3714,1.3427,1.3927,1.3786,1.3414,1.3863,1.3827,1.3787,1.3735,1.3812,1.372,1.3851,1.3869,1.426,1.4177,1.3924,1.4103,1.4155,1.4383,1.4803,1.4545,1.4218,1.4421,1.5076,1.4587,1.4471,1.4172,1.4239,1.4354,1.4132,1.3993,1.4279,1.4224,1.4063,1.4055,1.3775,1.3572,1.388,1.412,1.4088,1.3691,1.3698,1.3947,1.4038,1.3879,1.3616,1.3925,1.3536,1.3534,1.3525,1.3556,1.3696,1.3699,1.3557,1.3409,1.315,1.3749,1.3453,1.3122,1.3139,1.3118,1.3843,1.3738,1.3395,1.3304,1.3009,1.3489,1.3292,1.3414,1.3428,1.3129,1.332,1.3511,1.3073,1.3194,1.3413,1.3411,1.3423,1.3323,1.3282,1.3468,1.3321,1.3264,1.3128,1.3069,1.3473,1.352,1.313,1.3171,1.3252,1.3181,1.3144,1.3384,1.3489,1.369,1.3873,1.378,1.3834,1.3848,1.3775,1.4017,1.4524,1.4243,1.4032,1.3926,1.3846,1.3774,1.3755,1.3336,1.3665,1.3054,1.2961,1.2947,1.3093,1.2848,1.3124,1.2884,1.2488,1.2822,1.2999,1.2817,1.2982,1.2957,1.2803,1.3081,1.2877,1.287,1.2242,1.1673,1.1201,1.1921,1.2984,1.6202,2.0894,2.4509,2.6236,2.766,2.697,2.1384,1.528,1.1164,0.91906,0.81552,0.75057,0.8252,0.96375,1.0107,1.118,1.2522,1.2737,1.2871,1.2654,1.2965,1.2781,1.3074,1.3274,1.3137,1.2765,1.2738,1.2872,1.3101,1.3279,1.311,1.3036,1.3127,1.3272,1.3084,1.3045,1.3129,1.289,1.3007,1.3638,1.3181,1.2987,1.3406,1.3448,1.3179,1.3375,1.2875,1.3136,1.346,1.4036,1.3693,1.3199,1.3477,1.3583,1.3415,1.3466,1.3466,1.3234,1.347,1.327,1.3395,1.3285,1.3218,1.2717,1.2784,1.3029,1.301,1.3069,1.3229,1.3304,1.2866,1.3136,1.3406,1.3462,1.3707,1.3403,1.334,1.3693,1.3254,1.3686,1.4103,1.3962,1.4146,1.4001,1.4351,1.388,1.3579,1.3428,1.3673,1.3797,1.3659,1.3666,1.3405,1.3161,1.338,1.3311,1.3277,1.3449,1.3222,1.3088,1.2972,1.3615,1.3327,1.3376,1.3489,1.3721,1.3171,1.3213,1.3214,1.3223,1.3586,1.333,1.3182,1.3045,1.344,1.3147,1.3387,1.3127,1.299,1.2709,1.2997,1.3087,1.2595,1.2754,1.247,1.2502,1.2448,1.2047,1.1934,1.1737,1.1389,1.1377,1.0833,1.0505,1.0477,1.0685,1.107,1.1466,1.1783,1.1992,1.1439,1.1471,1.2004,1.2049,1.2492,1.2573,1.2606,1.2734,1.2414,1.2431,1.2288,1.1977,1.1509,1.1688,1.1684,1.1934,1.1756,1.1758,1.1564,1.171,1.1962,1.1869,1.2144,1.1935,1.1871,1.216,1.2069,1.2117,1.1935,1.1458,1.1323,1.0816,1.0651,1.0819,1.306,1.7416,2.154,2.4026,2.5913,2.7077,2.3684,1.7611,1.1834,0.87977,0.74872,0.70692,0.76158,0.78074,0.86219,1.013,1.1304,1.1561,1.2434,1.2264,1.2158,1.2168,1.2506,1.2515,1.2826,1.2926,1.2987,1.2764,1.2689,1.2842,1.2839,1.2524,1.2955,1.3275,1.3154,1.3048,1.2987,1.287,1.2889,1.2917,1.289,1.336,1.3498,1.3275,1.3239,1.3125,1.3064,1.3463,1.3319,1.3183,1.3081,1.2755,1.2718,1.2605,1.2579,1.2625,1.2655,1.2452,1.2575,1.2557,1.2338,1.2614,1.2591,1.2633,1.2602,1.2763,1.2866,1.2846,1.314,1.3045,1.2965,1.2911,1.3851,1.3787,1.3663,1.3468,1.3226,1.3205,1.3683,1.384,1.3668,1.3559,1.3431,1.3584,1.345,1.3424,1.3098,1.2798,1.2798,1.3141,1.2682,1.2587,1.2533,1.2664,1.2296,1.2048,1.2183,1.1895,1.1465,1.133,1.1215,1.0976,1.0704,1.0655,1.0639,1.0323,1.0152,1.0084,0.98773,1.0037,0.96122,0.95885,0.98568,0.96743,0.97166,0.98613,0.96327,0.99225,1.0019,1.0085,1.024,1.0352,1.0309,1.0727,1.116,1.1091,1.1421,1.1541,1.1492,1.1787,1.138,1.1304,1.1444,1.1446,1.2196,1.1976,1.2752,1.3084,1.27,1.1914,1.1425,1.1138,1.2316,1.2499,1.2101,1.2194,1.1632,1.137,1.0912,1.0991,1.0748,1.0438,0.98218,1.048,1.0218,1.0428,1.0381,1.0881,1.0577,1.0855,1.0751,1.0738,1.0765,1.0699,1.0985,1.1438,1.1159,1.1058,1.0801,1.0375,0.97238,0.98705,1.0246,1.161,1.547,2.0093,2.3452,2.5038,2.7451,2.5523,1.9313,1.3513,0.93123,0.78495,0.69073,0.69246,0.79284,0.91122,1.0769,1.1173,1.1872,1.2029,1.2114,1.2368,1.2145,1.2221,1.2436,1.2659,1.2608,1.2605,1.2464,1.2532,1.255,1.2623,1.285,1.2827,1.3292,1.2725,1.2886,1.2873,1.3087,1.3092,1.3132,1.2663
