-1.4565,-1.4608,-1.4745,-1.4814,-1.4952,-1.5123,-1.5396,-1.5492,-1.5708,-1.5933,-1.6126,-1.6262,-1.6395,-1.6574,-1.678,-1.6847,-1.6862,-1.6942,-1.6973,-1.7024,-1.7061,-1.7011,-1.7059,-1.7011,-1.7007,-1.6981,-1.6981,-1.6931,-1.6923,-1.694,-1.6983,-1.688,-1.6879,-1.6846,-1.6854,-1.683,-1.681,-1.6762,-1.6831,-1.6829,-1.6852,-1.6818,-1.6845,-1.6896,-1.6916,-1.6911,-1.6995,-1.7012,-1.706,-1.706,-1.7085,-1.7107,-1.7124,-1.7189,-1.7134,-1.7268,-1.7174,-1.7184,-1.7138,-1.7105,-1.7074,-1.6996,-1.6891,-1.6826,-1.6811,-1.6742,-1.666,-1.6665,-1.6773,-1.6771,-1.6775,-1.6624,-1.6619,-1.6634,-1.6803,-1.6888,-1.7204,-1.7283,-1.7271,-1.7343,-1.7291,-1.7308,-1.7274,-1.7326,-1.7245,-1.7226,-1.7286,-1.7393,-1.7636,-1.7546,-1.6899,-1.5609,-1.329,-1.045,-0.81962,-0.92443,-1.1297,-1.593,-1.701,-1.8032,-1.9147,-1.852,-1.7732,-1.6859,-1.7175,-1.7108,-1.7438,-1.7325,-1.7462,-1.7097,-1.7184,-1.7085,-1.7224,-1.7058,-1.7178,-1.7085,-1.7175,-1.6912,-1.6948,-1.684,-1.6869,-1.6815,-1.6958,-1.6854,-1.6853,-1.6646,-1.6611,-1.6487,-1.6418,-1.6266,-1.6324,-1.6277,-1.6214,-1.6016,-1.5893,-1.5777,-1.5791,-1.5615,-1.547,-1.5408,-1.5319,-1.5275,-1.5442,-1.5145,-1.4916,-1.4859,-1.481,-1.4792,-1.4723,-1.4698,-1.4701,-1.4727,-1.4713,-1.4688,-1.4601,-1.4742,-1.4783,-1.4941,-1.5041,-1.5273,-1.548,-1.5731,-1.596,-1.6211,-1.6375,-1.6634,-1.6749,-1.6858,-1.6977,-1.7109,-1.7129,-1.7259,-1.7255,-1.73,-1.7187,-1.7282,-1.7279,-1.7356,-1.7288,-1.725,-1.7129,-1.7198,-1.7168,-1.7189,-1.7171,-1.7168,-1.7116,-1.7124,-1.7083,-1.708,-1.7034,-1.7064,-1.7035,-1.7117,-1.7049,-1.7119,-1.7116,-1.7178,-1.7158,-1.7219,-1.7205,-1.727,-1.7272,-1.7264,-1.7208,-1.7235,-1.7211,-1.7239,-1.7139,-1.7106,-1.6925,-1.6923,-1.6947,-1.69,-1.6768,-1.6804,-1.6806,-1.687,-1.6842,-1.6617,-1.6608,-1.6767,-1.6935,-1.7135,-1.727,-1.7351,-1.7386,-1.7372,-1.7409,-1.739,-1.7343,-1.7358,-1.7341,-1.7389,-1.7429,-1.753,-1.7834,-1.7677,-1.7127,-1.5775,-1.3398,-1.0387,-0.81252,-0.93155,-1.3428,-1.6274,-1.7139,-1.771,-1.8865,-1.89,-1.8275,-1.6921,-1.6827,-1.7105,-1.713,-1.7239,-1.7118,-1.7226,-1.7145,-1.7214,-1.7114,-1.7127,-1.7048,-1.7065,-1.6997,-1.7029,-1.6923,-1.6936,-1.6946,-1.6896,-1.6801,-1.6793,-1.6756,-1.6706,-1.6646,-1.6607,-1.655,-1.6468,-1.6357,-1.6314,-1.6186,-1.6112,-1.5981,-1.5846,-1.5765,-1.566,-1.5572,-1.5516,-1.5459,-1.5283,-1.5222,-1.5083,-1.5029,-1.4969,-1.495,-1.4901,-1.4809,-1.48,-1.4774,-1.472,-1.4761,-1.4692,-1.4734,-1.4773,-1.4899,-1.5048,-1.5228,-1.5324,-1.5569,-1.5829,-1.5979,-1.6234,-1.6417,-1.6594,-1.6836,-1.6964,-1.712,-1.7222,-1.7303,-1.7394,-1.7433,-1.7457,-1.7474,-1.7438,-1.7429,-1.74,-1.7413,-1.7376,-1.7383,-1.7344,-1.7317,-1.7281,-1.7239,-1.7227,-1.725,-1.723,-1.7209,-1.7153,-1.7178,-1.7141,-1.7191,-1.7172,-1.7192,-1.7174,-1.7191,-1.7166,-1.7207,-1.7208,-1.7213,-1.7174,-1.7271,-1.7266,-1.7305,-1.7322,-1.7352,-1.7275,-1.7252,-1.7179,-1.7077,-1.7019,-1.7012,-1.6989,-1.6869,-1.6936,-1.6964,-1.7039,-1.7005,-1.6859,-1.6798,-1.6816,-1.6939,-1.7151,-1.7377,-1.7457,-1.7568,-1.7553,-1.7571,-1.7548,-1.7529,-1.7514,-1.7469,-1.7487,-1.7478,-1.7595,-1.7861,-1.7768,-1.7199,-1.6756,-1.4925,-1.2,-0.91367,-0.79984,-1.0996,-1.518,-1.6631,-1.7765,-1.9018,-1.8976,-1.8389,-1.6995,-1.6933,-1.7244,-1.7305,-1.7363,-1.725,-1.7316,-1.7287,-1.7282,-1.7226,-1.7226,-1.7157,-1.7169,-1.7093,-1.7092,-1.6995,-1.6944,-1.691,-1.6933,-1.6892,-1.6779,-1.6742,-1.6712,-1.6689,-1.6611,-1.6485,-1.6435,-1.6356,-1.6372,-1.621,-1.6105,-1.6013,-1.5939,-1.578,-1.5671,-1.556,-1.5472,-1.5298,-1.5229,-1.5125,-1.506,-1.495,-1.4917,-1.4861,-1.4844,-1.4789,-1.4744,-1.4685,-1.4689,-1.4664,-1.462,-1.4593,-1.4689,-1.4751,-1.4872,-1.5023,-1.5245,-1.5497,-1.5701,-1.5963,-1.6169,-1.6357,-1.6565,-1.6731,-1.6826,-1.6949,-1.7078,-1.7189,-1.7211,-1.7221,-1.7256,-1.7281,-1.73,-1.7269,-1.7304,-1.7265,-1.7239,-1.7229,-1.7246,-1.7248,-1.7213,-1.7176,-1.7161,-1.7151,-1.7158,-1.7126,-1.7098,-1.7051,-1.7062,-1.7084,-1.7111,-1.714,-1.7054,-1.7088,-1.7138,-1.7117,-1.7152,-1.7132,-1.7177,-1.7216,-1.7215,-1.7222,-1.7242,-1.7309,-1.7323,-1.7296,-1.7298,-1.7211,-1.7158,-1.7078,-1.7024,-1.6976,-1.6912,-1.6909,-1.6809,-1.6879,-1.6925,-1.6967,-1.6872,-1.6752,-1.6757,-1.6912,-1.7016,-1.7248,-1.7394,-1.7478,-1.7489,-1.7486,-1.7461,-1.7448,-1.7483,-1.7454,-1.7397,-1.74,-1.7417,-1.7566,-1.7834,-1.7622,-1.6948,-1.5503,-1.3031,-0.98924,-0.7748,-0.9334,-1.3643,-1.6163,-1.7198,-1.85,-1.8884,-1.8809,-1.8119,-1.6853,-1.6901,-1.7151,-1.7215,-1.7198,-1.7181,-1.7214,-1.7104,-1.7196,-1.7144,-1.7111,-1.7054,-1.7026,-1.6952,-1.6976,-1.6926,-1.6862,-1.6818,-1.6837,-1.6799,-1.6794,-1.6751,-1.6678,-1.6599,-1.6553,-1.6489,-1.6409,-1.6264,-1.62,-1.6096,-1.5997,-1.584,-1.5713,-1.5594,-1.5523,-1.5438,-1.54,-1.5303,-1.5202,-1.5126,-1.5023,-1.4955,-1.4924,-1.4861,-1.4793,-1.4769,-1.4732,-1.4681,-1.4659,-1.467,-1.4665,-1.4701,-1.4812,-1.4815,-1.4997,-1.5218,-1.5392,-1.5502,-1.5731,-1.5967,-1.6195,-1.641,-1.6593,-1.6745,-1.6875,-1.7068,-1.7174,-1.7204,-1.7254,-1.7239,-1.7189,-1.7246,-1.7272,-1.7375,-1.7339,-1.7314,-1.7246,-1.7274,-1.7338,-1.7347,-1.7316,-1.7322,-1.7267,-1.7239,-1.7227,-1.7196,-1.7201,-1.7203,-1.7218,-1.721,-1.7184,-1.7219,-1.7237,-1.7255,-1.7195,-1.7226,-1.7255,-1.727,-1.7317,-1.7293,-1.7326,-1.7366,-1.7411,-1.7406,-1.7423,-1.7438,-1.7494,-1.7537,-1.7529,-1.748,-1.7418,-1.7362,-1.727,-1.7225,-1.7176,-1.7137,-1.7117,-1.7059,-1.7028,-1.7133,-1.7154,-1.7093,-1.6904,-1.6931,-1.6972,-1.7073,-1.7287,-1.7509,-1.761,-1.7613,-1.7629,-1.7619,-1.7636,-1.7574,-1.755,-1.7506,-1.7497,-1.7527,-1.7618,-1.7836,-1.7883,-1.7349,-1.6377,-1.4299,-1.1204,-0.83394,-0.81122,-1.181,-1.5672,-1.6808,-1.8023,-1.9065,-1.8843,-1.809,-1.6951,-1.701,-1.7205,-1.7258,-1.7343,-1.7335,-1.7296,-1.7269,-1.7255,-1.7219,-1.7208,-1.7158,-1.7164,-1.7125,-1.7105,-1.7091,-1.7029,-1.6989,-1.6963,-1.6949,-1.6853,-1.6813,-1.6771,-1.6737,-1.6702,-1.6635,-1.6576,-1.6459,-1.6362,-1.6274,-1.6166,-1.6025,-1.5921,-1.5817,-1.5705,-1.5608,-1.5462,-1.5346,-1.5268,-1.5187,-1.5098,-1.5031,-1.4975,-1.4954,-1.4906,-1.4877,-1.4799,-1.471,-1.4691,-1.464,-1.4619,-1.4644,-1.472,-1.479,-1.4934,-1.5102,-1.5306,-1.549,-1.5742,-1.5983,-1.6231,-1.6461,-1.6643,-1.6696,-1.6824,-1.7001,-1.7092,-1.7191,-1.7252,-1.7361,-1.7382,-1.7405,-1.7427,-1.7404,-1.7463,-1.7451,-1.7413,-1.7393,-1.7375,-1.7357,-1.7367,-1.7277,-1.7312,-1.7292,-1.7249,-1.7275,-1.7236,-1.7249,-1.721,-1.7259,-1.7224,-1.7266,-1.7255,-1.7195,-1.7253,-1.7269,-1.7265,-1.7231,-1.7288,-1.7329,-1.7367,-1.7335,-1.7384,-1.7397,-1.7434,-1.7449,-1.7431,-1.7552,-1.7548,-1.754,-1.7556,-1.7571,-1.7557,-1.7537,-1.7613,-1.7608,-1.7601,-1.7598,-1.7611,-1.762,-1.7635,-1.7641,-1.7636,-1.7636,-1.7625,-1.7583,-1.7449,-1.7312,-1.7275,-1.721,-1.7215,-1.7143,-1.7146,-1.7337,-1.7304,-1.7211,-1.708,-1.6993,-1.7072,-1.7147,-1.7328,-1.7601,-1.7684,-1.7702,-1.7686,-1.7651,-1.7666,-1.7685,-1.7648,-1.7603,-1.7557,-1.7628,-1.7785,-1.8112,-1.7973,-1.7305,-1.5927,-1.3481,-1.0267,-0.7727,-0.88003,-1.3064,-1.5999,-1.6507,-1.7818,-1.8958,-1.8959,-1.8342,-1.6984,-1.7033,-1.7332,-1.7408,-1.7419,-1.7388,-1.7443,-1.7414,-1.7381,-1.7328,-1.7351,-1.7291,-1.7269,-1.7249,-1.7222,-1.7166,-1.7173,-1.7109,-1.7116,-1.7055,-1.7025,-1.6954,-1.6878,-1.6814,-1.6773,-1.6727,-1.6674,-1.6577,-1.6497,-1.6347,-1.6285,-1.6173,-1.6056,-1.595,-1.5833,-1.5814,-1.5732,-1.5606,-1.5571,-1.5419,-1.532,-1.5249,-1.5188,-1.5108,-1.5105,-1.5038,-1.499,-1.4895,-1.4884,-1.4881,-1.4829,-1.4795,-1.4797,-1.4871,-1.5009,-1.5106,-1.5233,-1.545,-1.5684,-1.5898,-1.615,-1.6391,-1.6578,-1.6789,-1.6982,-1.7157,-1.7286,-1.7415,-1.7405,-1.7509,-1.7558,-1.7605,-1.7624,-1.7647,-1.7627,-1.7646,-1.7686,-1.765,-1.7635,-1.7632,-1.7599,-1.7603,-1.7599,-1.7533,-1.7555,-1.7521,-1.7543,-1.7567,-1.7509,-1.7468,-1.7486,-1.7506,-1.7504,-1.7507,-1.7579,-1.759,-1.7633,-1.7633,-1.7636,-1.771,-1.7707,-1.7747,-1.7758,-1.7784,-1.7802,-1.7883,-1.7906,-1.7906,-1.7885,-1.7894,-1.7888,-1.7949,-1.7966,-1.7978,-1.7961,-1.7957,-1.7999,-1.7967,-1.7935,-1.7933,-1.794,-1.792,-1.7958,-1.798,-1.79,-1.7829,-1.774,-1.7662,-1.7598,-1.7548,-1.7506,-1.7488,-1.7585,-1.7748,-1.7696,-1.7618,-1.7435,-1.738,-1.7485,-1.7579,-1.7711,-1.7937,-1.8046,-1.8058,-1.8056,-1.8058,-1.8049,-1.8027,-1.8019,-1.7966,-1.8013,-1.8045,-1.8227,-1.8316,-1.787,-1.7375,-1.5919,-1.3432,-1.0596,-0.85444,-0.98163,-1.3729,-1.6422,-1.7255,-1.8409,-1.9582,-1.9538,-1.8699,-1.7572,-1.762,-1.7822,-1.7833,-1.795,-1.7831,-1.7898,-1.7833,-1.7831,-1.7845,-1.7859,-1.782,-1.7839,-1.7766,-1.7767,-1.7709,-1.7688,-1.7591,-1.7548,-1.7545,-1.7571,-1.7454,-1.741,-1.7384,-1.7279,-1.7251,-1.721,-1.7117,-1.7094,-1.6926,-1.6944,-1.6817,-1.6754,-1.6628,-1.6503,-1.633,-1.628,-1.6202,-1.6114,-1.6034,-1.6001,-1.5918,-1.5892,-1.5796,-1.5757,-1.577,-1.5745,-1.572,-1.5644,-1.5633,-1.564,-1.5601,-1.5602,-1.5663,-1.5807,-1.5991,-1.6137,-1.6322,-1.6433,-1.6674,-1.6904,-1.716,-1.7372,-1.7507,-1.7635,-1.7832,-1.7979,-1.7991,-1.7996,-1.8091,-1.8164,-1.8167,-1.8147,-1.8191,-1.8168,-1.8191,-1.8174,-1.8172,-1.8169,-1.8159,-1.8114,-1.8043,-1.8003,-1.8037,-1.8044,-1.8031,-1.7974,-1.7926,-1.7889,-1.791,-1.7878,-1.7873,-1.7925,-1.7928,-1.7887,-1.7871,-1.7937,-1.7967,-1.7985,-1.7989,-1.8049,-1.8105,-1.81,-1.8159,-1.8154,-1.8166,-1.8204,-1.8233,-1.8228,-1.8263,-1.8271,-1.8226,-1.8229,-1.823,-1.82,-1.8177,-1.813,-1.8059,-1.7968,-1.7937,-1.785,-1.774,-1.7725,-1.7848,-1.7926,-1.7922,-1.774,-1.7702,-1.7638,-1.7674,-1.7755,-1.7952,-1.8206,-1.8259,-1.8297,-1.8299,-1.8256,-1.8234,-1.8212,-1.8247,-1.8244,-1.8221,-1.8251,-1.8374,-1.8366,-1.7812,-1.6684,-1.5798,-1.3393,-1.0797,-0.90065,-1.0402,-1.445,-1.6769,-1.7354,-1.8336,-1.9758,-1.9702,-1.9167,-1.7894,-1.7854,-1.7985,-1.7951,-1.7984,-1.7946,-1.8023,-1.8017,-1.8007,-1.7957,-1.7994,-1.79,-1.7903,-1.7842,-1.7887,-1.7813,-1.7747,-1.7734,-1.7736,-1.7712,-1.7684,-1.7547,-1.7513,-1.7509,-1.741,-1.729,-1.7217,-1.7124,-1.7081,-1.7066,-1.6926,-1.685,-1.6834,-1.6732,-1.6574,-1.6449,-1.6333,-1.6223,-1.6128,-1.6057,-1.6041,-1.5968,-1.5824,-1.5827,-1.5796,-1.5736,-1.5745,-1.5672,-1.5639,-1.5608,-1.5576,-1.5635,-1.5624,-1.5721,-1.5857,-1.6038,-1.6231,-1.6421,-1.6656,-1.6868,-1.7045,-1.7236,-1.7396,-1.7545,-1.7678,-1.7796,-1.7912,-1.7957,-1.802,-1.8094,-1.8148,-1.8187,-1.8182,-1.8153,-1.8152,-1.8162,-1.8151,-1.8177,-1.8122,-1.8061,-1.8109,-1.809,-1.8042,-1.7966,-1.7883,-1.7874,-1.787,-1.7878,-1.7867,-1.7846,-1.7804,-1.7817,-1.7846,-1.7868,-1.7876,-1.7874,-1.7843,-1.7888,-1.786,-1.7866,-1.7937,-1.7973,-1.8004,-1.7942,-1.7974,-1.8047,-1.8085,-1.8114,-1.8051,-1.8,-1.7867,-1.7852,-1.7768,-1.7796,-1.7758,-1.7652,-1.7543,-1.7518,-1.77,-1.7727,-1.7664,-1.7532,-1.7471,-1.7597,-1.7655,-1.7801,-1.803,-1.8169,-1.817,-1.8161,-1.8136,-1.807,-1.81,-1.8035,-1.8035,-1.8017,-1.8066,-1.8094,-1.8218,-1.7981,-1.7235,-1.5808,-1.3442,-1.067,-0.8542,-0.95747,-1.3604,-1.6488,-1.6896,-1.7788,-1.9109,-1.9691,-1.9322,-1.8044,-1.7583,-1.7719,-1.7764,-1.7808,-1.7823,-1.785,-1.7833,-1.7829,-1.7845,-1.7807,-1.7743,-1.7712,-1.7662,-1.7671,-1.7644,-1.7616,-1.7491,-1.754,-1.7573,-1.7506,-1.7472,-1.74,-1.7339,-1.7291,-1.7197,-1.7133,-1.7058,-1.6924,-1.6815,-1.67,-1.6571,-1.6526,-1.641,-1.6338,-1.6296,-1.6151,-1.5987,-1.5913,-1.5856,-1.577,-1.5669,-1.5585,-1.5475,-1.5448,-1.5445,-1.5349,-1.5285,-1.5243,-1.5237,-1.5267,-1.5297,-1.5286,-1.5397,-1.5569,-1.5681,-1.5855,-1.6062,-1.6208,-1.6519,-1.6702,-1.6935,-1.7131,-1.7257,-1.7348,-1.7512,-1.7645,-1.7731,-1.7739,-1.7801,-1.7884,-1.7972,-1.7955,-1.7921,-1.7926,-1.7933,-1.7895,-1.789,-1.7864,-1.7828,-1.7857,-1.7832,-1.7758,-1.7711,-1.7701,-1.7641,-1.7546,-1.7588,-1.7586,-1.7541,-1.7555,-1.7546,-1.7528,-1.7515,-1.7513,-1.7503,-1.7504,-1.7542,-1.7579,-1.7586,-1.7592,-1.7625,-1.7607,-1.7634,-1.7591,-1.762,-1.7657,-1.7674,-1.7602,-1.7543,-1.7433,-1.742,-1.728,-1.7215,-1.7222,-1.7158,-1.7124,-1.7172,-1.7151,-1.7155,-1.7107,-1.6928,-1.7044,-1.7083,-1.7201,-1.7352,-1.7597,-1.7643,-1.7683,-1.7687,-1.7659,-1.7667,-1.7605,-1.7586,-1.7544,-1.7554,-1.7571,-1.7589,-1.7834,-1.7643,-1.7033,-1.568,-1.3494,-1.0498,-0.80748,-0.82799,-1.2098,-1.5712,-1.6734,-1.7929,-1.8944,-1.8917,-1.8052,-1.7051,-1.7082,-1.72,-1.7266,-1.7368,-1.7309,-1.724,-1.7211,-1.7285,-1.7267,-1.7281,-1.7196,-1.717,-1.7115,-1.7108,-1.7027,-1.703,-1.6975,-1.6976,-1.687,-1.6786,-1.6746,-1.6654,-1.6644,-1.658,-1.6507,-1.6434,-1.6278,-1.6234,-1.6123,-1.604,-1.5867,-1.577,-1.5617,-1.5493,-1.5312,-1.5218,-1.5114,-1.5022,-1.4925,-1.4786,-1.4751,-1.468,-1.4608,-1.4516,-1.4472,-1.4415,-1.4405,-1.4335,-1.4284,-1.4266,-1.4291,-1.431,-1.4438,-1.4556,-1.4718,-1.4919,-1.5143,-1.5399,-1.5617,-1.58,-1.6026,-1.6108,-1.6267,-1.641,-1.6448,-1.6637,-1.6698,-1.6725,-1.6738,-1.6807,-1.6922,-1.6909,-1.6945,-1.6883,-1.6932,-1.6924,-1.6895,-1.6852,-1.686,-1.6856,-1.6829,-1.6818,-1.6773,-1.6775,-1.6764,-1.6706,-1.6695,-1.6646,-1.6628,-1.6609,-1.6662,-1.6642,-1.6611,-1.6647,-1.665,-1.663,-1.6595,-1.6593,-1.6617,-1.6619,-1.6652,-1.668,-1.6717,-1.6717,-1.6795,-1.6779,-1.6765,-1.6784,-1.6772,-1.6779,-1.6767,-1.6685,-1.6619,-1.6558,-1.6429,-1.6414,-1.6392,-1.6326,-1.6139,-1.6146,-1.6172,-1.6204,-1.6233,-1.6141,-1.6082,-1.6072,-1.6148,-1.6256,-1.6459,-1.6651,-1.6721,-1.6745,-1.6732,-1.6688,-1.6688,-1.6657,-1.6628,-1.6595,-1.6566,-1.66,-1.6824,-1.7,-1.6852,-1.6173,-1.4835,-1.2451,-0.91904,-0.65443,-0.69656,-1.1197,-1.4743,-1.6207,-1.7623,-1.8047,-1.7832,-1.6327,-1.599,-1.6287,-1.6332,-1.6424,-1.6367,-1.6427,-1.6423,-1.6431,-1.6326,-1.6369,-1.6282,-1.6237,-1.6214,-1.6205,-1.6117,-1.6136,-1.6046,-1.6023,-1.5899,-1.5896,-1.5813,-1.5769,-1.5696,-1.5648,-1.5552,-1.5556,-1.5454,-1.5438,-1.5262,-1.5187,-1.5074,-1.4969,-1.4846,-1.4757,-1.457,-1.4457,-1.4293,-1.4225,-1.4091,-1.4012,-1.3905,-1.3825,-1.3719,-1.3628,-1.3532,-1.3506,-1.3464,-1.3454,-1.3413,-1.3323,-1.3336,-1.3316,-1.3414,-1.3542,-1.3718,-1.3907,-1.41,-1.4335,-1.4568,-1.4826,-1.5115,-1.5334,-1.5503,-1.5662,-1.5809,-1.5855,-1.5959,-1.6037,-1.6108,-1.6247,-1.6237,-1.6236,-1.6286,-1.6304,-1.6272,-1.6238,-1.6292,-1.6271,-1.6261,-1.6243,-1.6262,-1.6263,-1.622,-1.6214,-1.6186,-1.6184,-1.6202,-1.6188,-1.6175,-1.6125,-1.6179,-1.6161,-1.6161,-1.6217,-1.6188,-1.6181,-1.621,-1.623,-1.6228,-1.6181,-1.6227,-1.6198,-1.6203,-1.6233,-1.6265,-1.6228,-1.6266,-1.6321,-1.6314,-1.6354,-1.6352,-1.6321,-1.6391,-1.6338,-1.6344,-1.6372,-1.6416,-1.6418,-1.6421,-1.6392,-1.6407,-1.6446,-1.6448,-1.6444,-1.6432,-1.6416,-1.643,-1.6364,-1.635,-1.6278,-1.6154,-1.6023,-1.5971,-1.6017,-1.5989,-1.5943,-1.5853,-1.59,-1.5934,-1.5893,-1.5762,-1.5721,-1.5792,-1.5942,-1.6076,-1.6161,-1.6358,-1.6388,-1.6441,-1.6439,-1.6403,-1.635,-1.6357,-1.6309,-1.6275,-1.6288,-1.6367,-1.669,-1.6727,-1.6136,-1.5011,-1.2735,-0.9453,-0.65636,-0.61222,-0.78068,-1.2298,-1.4754,-1.6129,-1.7607,-1.7682,-1.7368,-1.5734,-1.5811,-1.6068,-1.6192,-1.6202,-1.6191,-1.6155,-1.6248,-1.6214,-1.6127,-1.6149,-1.618,-1.6119,-1.6109,-1.6054,-1.6016,-1.595,-1.5957,-1.5874,-1.5853,-1.5825,-1.5824,-1.5751,-1.5713,-1.568,-1.5623,-1.5584,-1.5456,-1.5357,-1.5258,-1.5228,-1.5111,-1.4986,-1.4965,-1.4878,-1.4747,-1.4599,-1.4526,-1.4445,-1.4336,-1.4173,-1.4098,-1.4036,-1.3977,-1.3925,-1.3824,-1.3751,-1.3713,-1.3713,-1.3661,-1.3584,-1.3552,-1.3561,-1.3608,-1.3714,-1.3836,-1.4001,-1.4154,-1.4409,-1.4606,-1.4867,-1.511,-1.5353,-1.5584,-1.5802,-1.5902,-1.6006,-1.6202,-1.6293,-1.6371,-1.6462,-1.6417,-1.6499,-1.6534,-1.649,-1.6496,-1.6511,-1.6503,-1.6533,-1.6514,-1.6553,-1.6517,-1.6514,-1.6506,-1.6468,-1.6459,-1.643,-1.6428,-1.6438,-1.6405,-1.6475,-1.644,-1.645,-1.6431,-1.6434,-1.6426,-1.6445,-1.6392,-1.6458,-1.6445,-1.6463,-1.6517,-1.6544,-1.6607,-1.6637,-1.6583,-1.6596,-1.6604,-1.6646,-1.6676,-1.6661,-1.6667,-1.6683,-1.6687,-1.6707,-1.6749,-1.6702,-1.6745,-1.6673,-1.6717,-1.6713,-1.6697,-1.6702,-1.6718,-1.6778,-1.677,-1.6758,-1.6687,-1.6581,-1.6531,-1.6427,-1.6386,-1.6368,-1.6364,-1.6309,-1.6305,-1.6334,-1.6357,-1.6289,-1.6111,-1.6127,-1.6157,-1.623,-1.6355,-1.6572,-1.6801,-1.6862,-1.6848,-1.6793,-1.6765,-1.6782,-1.6785,-1.6709,-1.6777,-1.681,-1.6894,-1.6896,-1.6926,-1.6536,-1.5553,-1.3742,-1.1042,-0.8582,-0.73657,-1.0067,-1.3743,-1.5232,-1.6097,-1.7396,-1.8407,-1.803,-1.706,-1.6323,-1.6377,-1.6592,-1.6656,-1.6689,-1.6601,-1.6594,-1.6612,-1.6539,-1.6502,-1.6492,-1.6554,-1.6511,-1.644,-1.6456,-1.6405,-1.64,-1.6288,-1.6271,-1.6258,-1.6213,-1.6158,-1.6076,-1.6009,-1.5957,-1.5921,-1.588,-1.5813,-1.5729,-1.5677,-1.5553,-1.5462,-1.5342,-1.5208,-1.5047,-1.5032,-1.4892,-1.4802,-1.4695,-1.4561,-1.4436,-1.4462,-1.4382,-1.4385,-1.4356,-1.4328,-1.4227,-1.4071,-1.4101,-1.4116,-1.4124,-1.4125,-1.4174,-1.4299,-1.4373,-1.4517,-1.4667,-1.4806,-1.5087,-1.5347,-1.553,-1.5637,-1.5738,-1.6034,-1.6169,-1.6301,-1.6409,-1.6534,-1.6513,-1.6589,-1.672,-1.6804,-1.6814,-1.674,-1.6779,-1.683,-1.6789,-1.669,-1.6695,-1.6649,-1.6679,-1.6642,-1.6669,-1.6602,-1.653,-1.6514,-1.651,-1.6464,-1.6492,-1.6419,-1.6447,-1.6516,-1.6496,-1.6423,-1.6452,-1.6497,-1.6478,-1.6512,-1.6476,-1.6531,-1.6613,-1.6603,-1.6651,-1.6623,-1.6708,-1.6615,-1.6684,-1.6702,-1.6719,-1.6723,-1.673,-1.6811,-1.6778,-1.684,-1.6803,-1.6794,-1.6779,-1.6789,-1.6723,-1.67,-1.6625,-1.6602,-1.6502,-1.6456,-1.6417,-1.633,-1.6302,-1.6425,-1.643,-1.6378,-1.6258,-1.6232,-1.63,-1.6306,-1.6463,-1.6679,-1.685,-1.688,-1.6865,-1.687,-1.6948,-1.693,-1.6957,-1.6851,-1.6826,-1.685,-1.6876,-1.7008,-1.7056,-1.6564,-1.5579,-1.3755,-1.1113,-0.87817,-0.75044,-1.0156,-1.3888,-1.5362,-1.6281,-1.7539,-1.8585,-1.8428,-1.7868,-1.6648,-1.6487,-1.6646,-1.6681,-1.6781,-1.6796,-1.6789,-1.6752,-1.6744,-1.6748,-1.6731,-1.6626,-1.6725,-1.6699,-1.6674,-1.6597,-1.6544,-1.6498,-1.6507,-1.6497,-1.6457,-1.6411,-1.6367,-1.6319,-1.6248,-1.6187,-1.6165,-1.6055,-1.5961,-1.5856,-1.5844,-1.573,-1.5711,-1.5518,-1.5327,-1.524,-1.5205,-1.5155,-1.5131,-1.503,-1.4909,-1.49,-1.4746,-1.4738,-1.469,-1.4605,-1.4546,-1.4454,-1.448,-1.4483,-1.4507,-1.4583,-1.4551,-1.4731,-1.4921,-1.5082,-1.5239,-1.5374,-1.5538,-1.5695,-1.5964,-1.6053,-1.6307,-1.6525,-1.654,-1.6641,-1.674,-1.6866,-1.6935,-1.7045,-1.7122,-1.7127,-1.7204,-1.7185,-1.7236,-1.7217,-1.7218,-1.7127,-1.7136,-1.7185,-1.7188,-1.7117,-1.7075,-1.7068,-1.6959,-1.7002,-1.7057,-1.6964,-1.6937,-1.6947,-1.6935,-1.6892,-1.6888,-1.6871,-1.6926,-1.701,-1.6995,-1.6995,-1.7006,-1.708,-1.715,-1.7054,-1.7035,-1.713,-1.7175,-1.7219,-1.7262,-1.7108,-1.7106,-1.7081,-1.7067,-1.701,-1.6969,-1.6843,-1.6757,-1.6811,-1.6765,-1.6946,-1.6895,-1.6839,-1.6754,-1.6768,-1.6774,-1.6908,-1.7056,-1.7265,-1.7448,-1.7485,-1.7462,-1.7388,-1.7395,-1.74,-1.735,-1.7331,-1.7275,-1.7381,-1.7516,-1.7547,-1.7402,-1.6808,-1.5576,-1.3525,-1.0848,-0.86063,-0.81822,-1.1666,-1.5228,-1.6308,-1.7349,-1.8693,-1.8996,-1.8511,-1.7326,-1.7034,-1.7248,-1.7187,-1.7282,-1.7206,-1.7277,-1.7232,-1.7322,-1.7295,-1.7347,-1.7274,-1.7238,-1.7091,-1.7176,-1.7013,-1.7124,-1.7056,-1.7133,-1.7095,-1.7017,-1.6941,-1.6954,-1.6948,-1.6863,-1.6747,-1.6741,-1.6651,-1.6607,-1.6481,-1.6374,-1.6278,-1.6209,-1.6118,-1.5993,-1.5911,-1.5833,-1.5703,-1.5567,-1.5483,-1.5414,-1.5355,-1.5248,-1.5197,-1.5112,-1.5068,-1.5035,-1.5064,-1.4988,-1.4942,-1.4944,-1.5003,-1.5014,-1.5171,-1.5281,-1.5449,-1.5637,-1.5824,-1.6041,-1.6341,-1.657,-1.6812,-1.6915,-1.7054,-1.7183,-1.7306,-1.732,-1.744,-1.7464,-1.7539,-1.7583,-1.7666,-1.7705,-1.7705,-1.7746,-1.7754,-1.77,-1.769,-1.7765,-1.7656,-1.7661,-1.769,-1.7667,-1.7726,-1.7656,-1.76,-1.7566,-1.7527,-1.7463,-1.7452,-1.7414,-1.7515,-1.7492,-1.747,-1.7474,-1.7471,-1.7464,-1.7514,-1.7551,-1.7549,-1.7555,-1.763,-1.7589,-1.7628,-1.7672,-1.759,-1.7608,-1.7684,-1.7722,-1.76,-1.7613,-1.7596,-1.756,-1.7432,-1.7381,-1.737,-1.7364,-1.7212,-1.7098,-1.7174,-1.7211,-1.736,-1.7245,-1.7144,-1.7146,-1.7221,-1.7296,-1.7524,-1.7777,-1.7845,-1.7832,-1.7779,-1.7829,-1.7892,-1.7882,-1.7775,-1.78,-1.7786,-1.7851,-1.7905,-1.8066,-1.7733,-1.6858,-1.5156,-1.2741,-1.0051,-0.89503,-0.84691,-1.1842,-1.5699,-1.6795,-1.7933,-1.9127,-1.9357,-1.8746,-1.7595,-1.7487,-1.7742,-1.7663,-1.7859,-1.7697,-1.783,-1.7731,-1.7849,-1.7752,-1.7763,-1.7615,-1.7689,-1.7574,-1.7623,-1.7503,-1.7573,-1.7459,-1.7551,-1.7431,-1.7417,-1.7338,-1.7382,-1.7204,-1.7224,-1.7114,-1.7093,-1.694,-1.6957,-1.685,-1.6712,-1.6638,-1.6497,-1.6417,-1.6358,-1.6241,-1.6052,-1.5978,-1.5819,-1.5764,-1.5701,-1.5579,-1.5533,-1.553,-1.5478,-1.5397,-1.5292,-1.526,-1.5235,-1.5213,-1.5203,-1.5231,-1.5251,-1.5334,-1.5479,-1.565,-1.5773,-1.6095,-1.6266,-1.6555,-1.6792,-1.6959,-1.7116,-1.7292,-1.7443,-1.7602,-1.7644,-1.7703,-1.7814,-1.7905,-1.7962,-1.7984,-1.7917,-1.8011,-1.7982,-1.7983,-1.7979,-1.7975,-1.7992,-1.7983,-1.7938,-1.7933,-1.7923,-1.793,-1.7891,-1.7915,-1.7829,-1.7872,-1.7888,-1.7828,-1.7841,-1.7847,-1.7784,-1.781,-1.7727,-1.772,-1.77,-1.7713,-1.7692,-1.7777,-1.78,-1.7767,-1.779,-1.7863,-1.7882,-1.79,-1.7988,-1.7998,-1.7955,-1.8005,-1.8019,-1.8042,-1.8051,-1.802,-1.7979,-1.7893,-1.7804,-1.7775,-1.7685,-1.7652,-1.7683,-1.7593,-1.7542,-1.7462,-1.7502,-1.7504,-1.7523,-1.7519,-1.7412,-1.7494,-1.7609,-1.775,-1.789,-1.8086,-1.8127,-1.8127,-1.8174,-1.8181,-1.8153,-1.8135,-1.8122,-1.8127,-1.804,-1.8156,-1.8284,-1.8357,-1.8047,-1.7068,-1.5292,-1.2601,-0.98418,-0.87721,-0.8898,-1.2604,-1.616,-1.738,-1.8721,-1.954,-1.9441,-1.8356,-1.7722,-1.7785,-1.7988,-1.7957,-1.8008,-1.8047,-1.799,-1.7996,-1.797,-1.7926,-1.7955,-1.7946,-1.7948,-1.7791,-1.7827,-1.7776,-1.7796,-1.7703,-1.7686,-1.7613,-1.7664,-1.7443,-1.7474,-1.743,-1.7373,-1.7271,-1.7245,-1.7175,-1.7094,-1.6949,-1.685,-1.6779,-1.6689,-1.6596,-1.6475,-1.6332,-1.6219,-1.6153,-1.6017,-1.5884,-1.5818,-1.5676,-1.5626,-1.5569,-1.5457,-1.538,-1.534,-1.5289,-1.5299,-1.5214,-1.5188,-1.5216,-1.5261,-1.5307,-1.5457,-1.5633,-1.5838,-1.6063,-1.6299,-1.6599,-1.6832,-1.6995,-1.7166,-1.7339,-1.7475,-1.7644,-1.7747,-1.7766,-1.787,-1.7934,-1.7954,-1.8009,-1.7983,-1.8037,-1.802,-1.7923,-1.7939,-1.7953,-1.799,-1.8002,-1.8048,-1.8007,-1.7949,-1.7938,-1.7893,-1.786,-1.7822,-1.7851,-1.7813,-1.7821,-1.7755,-1.7758,-1.7797,-1.7779,-1.7772,-1.776,-1.774,-1.7757,-1.7732,-1.7781,-1.7782,-1.7791,-1.7855,-1.7858,-1.7824,-1.79,-1.7903,-1.7888,-1.7938,-1.7927,-1.7959,-1.7978,-1.7958,-1.795,-1.7959,-1.7909,-1.7923,-1.8002,-1.8022,-1.7938,-1.7894,-1.7779,-1.7666,-1.7561,-1.7538,-1.7505,-1.7443,-1.7421,-1.7396,-1.7406,-1.7458,-1.741,-1.7362,-1.7343,-1.7315,-1.737,-1.7553,-1.7705,-1.7905,-1.7965,-1.7982,-1.7964,-1.7949,-1.8019,-1.7918,-1.7876,-1.7803,-1.7848,-1.7898,-1.8111,-1.8296,-1.793,-1.7472,-1.6073,-1.3618,-1.0365,-0.76187,-0.82247,-1.2498,-1.5896,-1.75,-1.8925,-1.9205,-1.9028,-1.7487,-1.7265,-1.7524,-1.7628,-1.7679,-1.7649,-1.768,-1.7676,-1.7699,-1.7578,-1.7577,-1.7563,-1.7527,-1.7465,-1.7467,-1.7448,-1.7454,-1.7407,-1.7378,-1.7303,-1.7261,-1.7167,-1.7124,-1.706,-1.7006,-1.6927,-1.6913,-1.6776,-1.6722,-1.6605,-1.6524,-1.6372,-1.6298,-1.6169,-1.606,-1.5931,-1.5842,-1.5736,-1.5651,-1.5479,-1.5365,-1.5221,-1.5177,-1.508,-1.5006,-1.4927,-1.49,-1.483,-1.4777,-1.4757,-1.4697,-1.469,-1.4717,-1.4741,-1.4799,-1.4948,-1.511,-1.5316,-1.5545,-1.5816,-1.6049,-1.6328,-1.6525,-1.6735,-1.6899,-1.6973,-1.7115,-1.7259,-1.7312,-1.7361,-1.742,-1.7496,-1.7561,-1.7598,-1.7611,-1.7594,-1.7604,-1.7648,-1.7607,-1.7599,-1.7545,-1.761,-1.7636,-1.7588,-1.7539,-1.7497,-1.7513,-1.7538,-1.7508,-1.7477,-1.7384,-1.746,-1.7475,-1.7491,-1.7476,-1.7491,-1.7491,-1.7446,-1.7518,-1.7528,-1.7514,-1.7512,-1.753,-1.7554,-1.7584,-1.7604,-1.762,-1.7669,-1.766,-1.7685,-1.7696,-1.7682,-1.7711,-1.7752,-1.7719,-1.7688,-1.7694,-1.7739,-1.7773,-1.7779,-1.7721,-1.7675,-1.7715,-1.7733,-1.775,-1.7722,-1.7701,-1.7575,-1.7484,-1.7434,-1.7281,-1.7319,-1.7364,-1.7315,-1.729,-1.7173,-1.7227,-1.7214,-1.7178,-1.7177,-1.7134,-1.7153,-1.7285,-1.748,-1.7709,-1.7755,-1.7753,-1.779,-1.7803,-1.7767,-1.7754,-1.7765,-1.775,-1.7662,-1.76,-1.7756,-1.7986,-1.7932,-1.7268,-1.5958,-1.3588,-1.0547,-0.81137,-0.84545,-1.2287,-1.5662,-1.6779,-1.8141,-1.8877,-1.9243,-1.8891,-1.7365,-1.721,-1.7451,-1.7587,-1.7607,-1.7605,-1.7623,-1.7552,-1.7577,-1.7554,-1.7515,-1.7453,-1.7454,-1.7427,-1.7391,-1.7341,-1.7315,-1.7273,-1.721,-1.717,-1.7159,-1.7119,-1.7099,-1.7005,-1.6939,-1.6898,-1.6872,-1.6788,-1.6686,-1.6605,-1.6544,-1.6356,-1.6284,-1.6161,-1.6126,-1.6027,-1.5851,-1.5799,-1.5717,-1.566,-1.5608,-1.5496,-1.5347,-1.5256,-1.5255,-1.5185,-1.5092,-1.5102,-1.5031,-1.4965,-1.496,-1.4949,-1.493,-1.4984,-1.5098,-1.5229,-1.5353,-1.5484,-1.568,-1.5905,-1.6101,-1.6383,-1.6599,-1.6856,-1.6981,-1.7205,-1.7306,-1.744,-1.7459,-1.7497,-1.7581,-1.7622,-1.7645,-1.7669,-1.7758,-1.7745,-1.7766,-1.7766,-1.7709,-1.7685,-1.7708,-1.7628,-1.7646,-1.7599,-1.758,-1.756,-1.7506,-1.7508,-1.7438,-1.7438,-1.7443,-1.7446,-1.7415,-1.7497,-1.7499,-1.7501,-1.7487,-1.7555,-1.7445,-1.746,-1.7512,-1.752,-1.7526,-1.7544,-1.7644,-1.7666,-1.7707,-1.7672,-1.7644,-1.7715,-1.7711,-1.7723,-1.7718,-1.7742,-1.7722,-1.7763,-1.7778,-1.7732,-1.7563,-1.7433,-1.7388,-1.7422,-1.7391,-1.7266,-1.7331,-1.7277,-1.7214,-1.7289,-1.7361,-1.7117,-1.7111,-1.7133,-1.7301,-1.7412,-1.7676,-1.7872,-1.7871,-1.7865,-1.7842,-1.7773,-1.7692,-1.7798,-1.7702,-1.769,-1.7632,-1.7701,-1.7866,-1.8044,-1.7722,-1.6774,-1.5137,-1.2652,-1.014,-0.82372,-1.0021,-1.3894,-1.6107,-1.6456,-1.7298,-1.8669,-1.9232,-1.8809,-1.7792,-1.7302,-1.7457,-1.7499,-1.7603,-1.7643,-1.7565,-1.7531,-1.7491,-1.7501,-1.7559,-1.7538,-1.7533,-1.735,-1.7253,-1.7379,-1.7427,-1.7475,-1.7317,-1.7283,-1.7229,-1.71,-1.7088,-1.7094,-1.6966,-1.7032,-1.6911,-1.6739,-1.6683,-1.6628,-1.6513,-1.6475,-1.6359,-1.624,-1.6148,-1.6092,-1.6053,-1.5914,-1.5858,-1.5769,-1.5696,-1.5733,-1.5637,-1.5476,-1.5576,-1.5635,-1.546,-1.5265,-1.5157,-1.51,-1.5167,-1.5257,-1.5435,-1.5476,-1.5525,-1.5547,-1.5518,-1.5734,-1.601,-1.6301,-1.6365,-1.6574,-1.669,-1.6904,-1.7098,-1.7271,-1.7437,-1.7653,-1.7621,-1.7801,-1.8021,-1.7904,-1.782,-1.7726,-1.7659,-1.7626,-1.7732,-1.7819,-1.7889,-1.7844,-1.7854,-1.7857,-1.7758,-1.7677,-1.7678,-1.7652,-1.7696,-1.7626,-1.7489,-1.7482,-1.7527,-1.7476,-1.745,-1.7432,-1.7485,-1.7481,-1.7447,-1.7528,-1.7517,-1.7559,-1.7588,-1.7549,-1.7617,-1.7669,-1.7599,-1.7698,-1.7792,-1.7609,-1.7553,-1.7415,-1.7335,-1.7319,-1.7307,-1.7232,-1.7068,-1.7103,-1.7222,-1.7218,-1.7188,-1.7132,-1.6982,-1.7093,-1.7257,-1.7391,-1.758,-1.7598,-1.7722,-1.78,-1.7787,-1.7782,-1.7714,-1.7646,-1.7712,-1.7749,-1.7621,-1.763,-1.7839,-1.8045,-1.7759,-1.6929,-1.522,-1.2707,-0.99075,-0.80806,-0.99851,-1.4114,-1.6209,-1.7158,-1.8396,-1.9237,-1.8904,-1.7913,-1.7259,-1.7441,-1.749,-1.7528,-1.7531,-1.7513,-1.7532,-1.7511,-1.7504,-1.7469,-1.748,-1.7475,-1.7424,-1.7466,-1.7375,-1.7249,-1.7296,-1.7153,-1.7223,-1.7151,-1.7221,-1.7194,-1.7037,-1.7,-1.6953,-1.6856,-1.6807,-1.6743,-1.6671,-1.653,-1.6503,-1.6405,-1.6321,-1.6177,-1.6052,-1.5947,-1.5827,-1.5783,-1.5614,-1.5569,-1.542,-1.5356,-1.5291,-1.5328,-1.5275,-1.5235,-1.5143,-1.5094,-1.5025,-1.5101,-1.5087,-1.5086,-1.5168,-1.5317,-1.5495,-1.5673,-1.5819,-1.601,-1.6267,-1.6414,-1.6639,-1.6842,-1.7006,-1.7034,-1.7179,-1.732,-1.734,-1.7398,-1.7455,-1.7466,-1.7503,-1.7491,-1.7472,-1.7497,-1.7513,-1.7473,-1.7545,-1.7526,-1.7472,-1.743,-1.739,-1.7385,-1.7387,-1.7357,-1.7388,-1.7313,-1.7337,-1.7297,-1.7291,-1.7228,-1.7188,-1.7206,-1.7285,-1.727,-1.7283,-1.7237,-1.7256,-1.7256,-1.7269,-1.7273,-1.7326,-1.7276,-1.7204,-1.7174,-1.7094,-1.7014,-1.6938,-1.687,-1.6823,-1.6812,-1.6682,-1.6618,-1.6684,-1.6742,-1.6812,-1.6822,-1.6779,-1.6764,-1.6899,-1.709,-1.7357,-1.7423,-1.7454,-1.7441,-1.7443,-1.7469,-1.7436,-1.7418,-1.7391,-1.7366,-1.7384,-1.7423,-1.7661,-1.7758,-1.7428,-1.6568,-1.4633,-1.1731,-1.0075,-0.73807,-0.77802,-1.4236,-1.6342,-1.7069,-1.8352,-1.8299,-1.7974,-1.6792,-1.676,-1.6931,-1.6983,-1.7026,-1.7011,-1.7055,-1.7069,-1.705,-1.7029,-1.7085,-1.6995,-1.6948,-1.6909,-1.6858,-1.6854,-1.6838,-1.6746,-1.6759,-1.6739,-1.6706,-1.666,-1.662,-1.6568,-1.648,-1.6383,-1.6305,-1.6245,-1.6182,-1.6051,-1.601,-1.5839,-1.5772,-1.5707,-1.557,-1.5439,-1.5401,-1.5248,-1.5137,-1.5019,-1.4968,-1.4847,-1.4775,-1.4778,-1.4736,-1.464,-1.4577,-1.4584,-1.4507,-1.4467,-1.4447,-1.4444,-1.4568,-1.4679,-1.4886,-1.506,-1.5123,-1.5345,-1.5546,-1.5835,-1.5966,-1.6171,-1.6346,-1.6528,-1.6656,-1.6756,-1.6873,-1.6897,-1.6973,-1.701,-1.7049,-1.7005,-1.6988,-1.6996,-1.7073,-1.7048,-1.6968,-1.6924,-1.6931,-1.6913,-1.6908,-1.6972,-1.6882,-1.6903,-1.6893,-1.6885,-1.6864,-1.6876,-1.6869,-1.6882,-1.6891,-1.686,-1.6859,-1.6859,-1.6885,-1.69,-1.6854,-1.6903,-1.6937,-1.6976,-1.6926,-1.6806,-1.6761,-1.6663,-1.662,-1.6534,-1.6467,-1.6412,-1.6298,-1.6238,-1.6261,-1.6322,-1.6374,-1.6487,-1.6421,-1.6451,-1.6464,-1.6608,-1.683,-1.6998,-1.7126,-1.7103,-1.7095,-1.7104,-1.7091,-1.7063,-1.7104,-1.7025,-1.7059,-1.7081,-1.7264,-1.7614,-1.7421,-1.6854,-1.5383,-1.2738,-1.1096,-0.80665,-0.6275,-1.0024,-1.4189,-1.625,-1.7754,-1.8033,-1.7868,-1.6713,-1.6475,-1.6681,-1.6727,-1.6838,-1.6802,-1.6869,-1.6769,-1.6827,-1.6803,-1.6871,-1.6773,-1.6773,-1.6623,-1.6665,-1.658,-1.664,-1.6512,-1.658,-1.6485,-1.6465,-1.6403,-1.6391,-1.6296,-1.6295,-1.619,-1.6134,-1.6041,-1.5967,-1.5862,-1.5788,-1.5732,-1.565,-1.5531,-1.5382,-1.5251,-1.5183,-1.5097,-1.505,-1.4842,-1.48,-1.4722,-1.467,-1.4594,-1.4529,-1.4482,-1.4444,-1.4402,-1.4339,-1.4319,-1.4328,-1.4366,-1.437,-1.4418,-1.4479,-1.4642,-1.4879,-1.5103,-1.5286,-1.5518,-1.5749,-1.6019,-1.6217,-1.6353,-1.643,-1.658,-1.6663,-1.6777,-1.6798,-1.6845,-1.695,-1.6957,-1.6975,-1.6966,-1.6943,-1.689,-1.6901,-1.6926,-1.6917,-1.6888,-1.6811,-1.688,-1.6826,-1.6821,-1.6837,-1.6852,-1.6855,-1.6861,-1.6878,-1.6911,-1.6901,-1.6883,-1.6865,-1.6911,-1.6889,-1.684,-1.6895,-1.6922,-1.6881,-1.6896,-1.6887,-1.6952,-1.6988,-1.7014,-1.6996,-1.6957,-1.6889,-1.6819,-1.6725,-1.6586,-1.6576,-1.6561,-1.6441,-1.6451,-1.6568,-1.6553,-1.6649,-1.6573,-1.6536,-1.6624,-1.6743,-1.6937,-1.7074,-1.7158,-1.72,-1.7206,-1.7214,-1.7209,-1.7173,-1.7204,-1.7091,-1.7125,-1.7093,-1.7219,-1.7486,-1.7666,-1.734,-1.6512,-1.47,-1.1781,-0.87269,-0.68821,-1.0062,-1.4365,-1.6089,-1.7589,-1.8045,-1.8097,-1.6992,-1.6604,-1.6734,-1.6766,-1.6863,-1.6893,-1.6928,-1.6917,-1.6918,-1.6909,-1.6964,-1.6885,-1.6843,-1.6807,-1.6752,-1.6723,-1.6728,-1.6647,-1.6598,-1.6558,-1.6598,-1.6525,-1.6499,-1.6449,-1.6365,-1.629,-1.6276,-1.625,-1.6158,-1.6053,-1.5985,-1.5888,-1.581,-1.5633,-1.5543,-1.5447,-1.5361,-1.5243,-1.5153,-1.501,-1.4941,-1.4846,-1.4825,-1.4786,-1.4724,-1.4682,-1.4646,-1.4594,-1.4531,-1.4476,-1.4482,-1.4442,-1.4511,-1.4517,-1.4597,-1.4665,-1.4831,-1.5039,-1.5304,-1.5533,-1.5755,-1.5981,-1.6148,-1.6246,-1.6374,-1.648,-1.6612,-1.6691,-1.6837,-1.6842,-1.6864,-1.6881,-1.6918,-1.6929,-1.6909,-1.6886,-1.6844,-1.6847,-1.6824,-1.6802,-1.683,-1.6793,-1.6806,-1.6833,-1.6786,-1.6786,-1.6754,-1.6804,-1.6799,-1.6807,-1.6804,-1.6806,-1.6809,-1.6842,-1.6818,-1.6791,-1.6863,-1.6874,-1.6847,-1.6843,-1.6846,-1.6865,-1.6895,-1.6932,-1.6937,-1.6948,-1.7024,-1.7005,-1.6964,-1.7024,-1.702,-1.703,-1.7003,-1.7019,-1.6955,-1.6846,-1.6685,-1.6624,-1.654,-1.6483,-1.6375,-1.6407,-1.6555,-1.6531,-1.6565,-1.6471,-1.6485,-1.6515,-1.6608,-1.679,-1.6992,-1.7064,-1.7106,-1.7164,-1.7173,-1.7145,-1.7097,-1.7049,-1.7064,-1.7016,-1.7037,-1.7238,-1.7499,-1.7444,-1.7077,-1.6176,-1.4193,-1.1329,-0.83737,-0.73011,-1.1098,-1.4849,-1.6285,-1.7712,-1.808,-1.7977,-1.6773,-1.6501,-1.6634,-1.676,-1.6794,-1.6777,-1.6784,-1.6852,-1.6772,-1.6795,-1.6818,-1.6788,-1.673,-1.6692,-1.6667,-1.6632,-1.6638,-1.6545,-1.6518,-1.6529,-1.6489,-1.6404,-1.6418,-1.6338,-1.6283,-1.6206,-1.6156,-1.6087,-1.6088,-1.597,-1.5878,-1.583,-1.5723,-1.5662,-1.5599,-1.5496,-1.5394,-1.5323,-1.5234,-1.5173,-1.5125,-1.4927,-1.4834,-1.4765,-1.484,-1.4767,-1.4626,-1.4509,-1.4595,-1.4511,-1.4553,-1.4473,-1.464,-1.4421,-1.4657,-1.4777,-1.4894,-1.5133,-1.5367,-1.5562,-1.5883,-1.6103,-1.6295,-1.6542,-1.6586,-1.6843,-1.6868,-1.6938,-1.7079,-1.7221,-1.713,-1.7241,-1.7214,-1.7218,-1.7174,-1.7191,-1.7158,-1.7178,-1.7175,-1.7222,-1.7146,-1.7114,-1.7082,-1.7091,-1.7075,-1.7073,-1.7072,-1.7083,-1.7057,-1.7012,-1.7019,-1.7047,-1.7059,-1.7075,-1.7031,-1.7072,-1.7113,-1.7128,-1.7181,-1.7196,-1.7235,-1.7271,-1.7257,-1.7237,-1.7292,-1.7284,-1.7327,-1.7328,-1.7297,-1.7296,-1.7279,-1.7256,-1.7159,-1.7028,-1.6949,-1.6914,-1.6759,-1.6638,-1.6595,-1.6663,-1.6762,-1.6793,-1.664,-1.6622,-1.6639,-1.6718,-1.6893,-1.697,-1.7107,-1.7164,-1.7145,-1.7102,-1.7103,-1.7078,-1.7081,-1.7085,-1.7029,-1.6984,-1.7022,-1.7171,-1.7081,-1.6549,-1.5415,-1.3462,-1.1039,-0.92197,-0.91567,-1.0606,-1.4335,-1.6282,-1.6577,-1.7846,-1.868,-1.8327,-1.744,-1.6675,-1.671,-1.6981,-1.6893,-1.6956,-1.6894,-1.6948,-1.6853,-1.6859,-1.6813,-1.688,-1.6842,-1.6847,-1.6775,-1.6821,-1.6722,-1.6671,-1.6538,-1.6509,-1.6441,-1.6447,-1.6377,-1.6343,-1.6272,-1.6208,-1.6147,-1.6108,-1.5948,-1.5899,-1.5825,-1.5734,-1.5633,-1.5599,-1.5565,-1.5436,-1.5352,-1.533,-1.5281,-1.5173,-1.5114,-1.5087,-1.5029,-1.4968,-1.4853,-1.477,-1.4738,-1.4709,-1.454,-1.4574,-1.4444,-1.4502,-1.4655,-1.4666,-1.4725,-1.478,-1.4967,-1.5121,-1.5344,-1.554,-1.5734,-1.5899,-1.622,-1.6464,-1.6587,-1.6685,-1.6878,-1.6862,-1.695,-1.6946,-1.6999,-1.7033,-1.705,-1.7008,-1.7037,-1.6979,-1.6994,-1.7032,-1.7036,-1.7016,-1.7014,-1.7007,-1.7039,-1.6987,-1.6942,-1.6934,-1.6979,-1.697,-1.6965,-1.6982,-1.6976,-1.6949,-1.6984,-1.7033,-1.7085,-1.7095,-1.7105,-1.7167,-1.7217,-1.7173,-1.7223,-1.723,-1.7276,-1.7288,-1.7389,-1.7347,-1.7256,-1.7208,-1.7155,-1.7076,-1.6977,-1.6844,-1.6797,-1.6799,-1.6827,-1.6883,-1.7017,-1.7027,-1.6926,-1.6824,-1.68,-1.6984,-1.7182,-1.7352,-1.7515,-1.7632,-1.7601,-1.76,-1.7509,-1.75,-1.7524,-1.752,-1.7446,-1.7432,-1.7561,-1.7622,-1.7431,-1.6886,-1.5638,-1.3451,-1.0815,-0.88352,-0.96305,-1.3427,-1.6605,-1.7251,-1.8234,-1.9333,-1.9227,-1.862,-1.7328,-1.7375,-1.7569,-1.7553,-1.7599,-1.7545,-1.7526,-1.7309,-1.7514,-1.7479,-1.7408,-1.7462,-1.7403,-1.7274,-1.7309,-1.7235,-1.7192,-1.7217,-1.7096,-1.7017,-1.6966,-1.6959,-1.6942,-1.6881,-1.6847,-1.6775,-1.6691,-1.6767,-1.6782,-1.6623,-1.6533,-1.6447,-1.6435,-1.6317,-1.6392,-1.6284,-1.6244,-1.6254,-1.6108,-1.6128,-1.6149,-1.6114,-1.6177,-1.6204,-1.6219,-1.6264,-1.6276,-1.6279,-1.6324,-1.6273,-1.6146,-1.601,-1.5909,-1.6076,-1.6131,-1.6159,-1.6195,-1.6274,-1.6393,-1.6445,-1.6736,-1.694,-1.7129,-1.7201,-1.7298,-1.7463,-1.7553,-1.766,-1.7602,-1.7639,-1.7712,-1.7723,-1.7706,-1.769,-1.7669,-1.7639,-1.7617,-1.7678,-1.7645,-1.769,-1.7643,-1.7578,-1.7584,-1.7562,-1.7518,-1.7525,-1.7502,-1.7576,-1.759,-1.7595,-1.7578,-1.7678,-1.7645,-1.7688,-1.7744,-1.7764,-1.783,-1.7967,-1.7918,-1.7846,-1.7877,-1.793,-1.7771,-1.775,-1.7733,-1.7717,-1.7664,-1.7639,-1.7695,-1.7751,-1.7848,-1.7735,-1.7648,-1.7612,-1.7587,-1.7685,-1.8016,-1.8368,-1.8459,-1.8403,-1.8393,-1.8369,-1.8368,-1.8415,-1.8424,-1.8371,-1.8401,-1.842,-1.8487,-1.8543,-1.8315,-1.7683,-1.6384,-1.4178,-1.1558,-0.95325,-1.0213,-1.3948,-1.7133,-1.7764,-1.8463,-1.9611,-1.9771,-1.9506,-1.8406,-1.756,-1.7771,-1.7909,-1.7833,-1.7789,-1.7732,-1.7702,-1.7663,-1.7741,-1.7759,-1.7668,-1.7585,-1.7517,-1.7521,-1.7474,-1.7464,-1.7291,-1.7273,-1.7351,-1.7324,-1.7367,-1.7218,-1.7182,-1.7087,-1.7137,-1.7067,-1.6866,-1.6765,-1.6691,-1.6564,-1.6423,-1.6377,-1.632,-1.6184,-1.6137,-1.6006,-1.6031,-1.592,-1.5931,-1.584,-1.5796,-1.6009,-1.5984,-1.6112,-1.6115,-1.6234,-1.6175,-1.6174,-1.6089,-1.603,-1.6046,-1.6181,-1.6103,-1.6176,-1.6411,-1.6426,-1.6531,-1.6611,-1.6715,-1.7024,-1.7252,-1.7425,-1.763,-1.7859,-1.7962,-1.8026,-1.7926,-1.7904,-1.8009,-1.8159,-1.8263,-1.8259,-1.8035,-1.796,-1.7859,-1.7892,-1.7882,-1.7931,-1.7929,-1.7777,-1.7871,-1.7679,-1.7752,-1.7692,-1.7716,-1.7692,-1.7577,-1.7692,-1.7598,-1.7686,-1.7711,-1.7658,-1.762,-1.7613,-1.7697,-1.7684,-1.7457,-1.7417,-1.7393,-1.7459,-1.7524,-1.7422,-1.7416,-1.7568,-1.7662,-1.7601,-1.7527,-1.7612,-1.7562,-1.7776,-1.7875,-1.7986,-1.803,-1.8084,-1.8209,-1.83,-1.8303,-1.8164,-1.815,-1.8092,-1.8154,-1.8171,-1.8281,-1.8393,-1.843,-1.7993,-1.7017,-1.4735,-1.2111,-1.0198,-1.0156,-1.3657,-1.6686,-1.7516,-1.8266,-1.9491,-2.0939,-2.0555,-2.0318,-1.9122,-1.8626,-1.8907,-1.8892,-1.8884,-1.9,-1.9035,-1.8786,-1.8729,-1.8669,-1.8753,-1.8775,-1.8891,-1.8811,-1.8948,-1.8904,-1.8822,-1.8655,-1.8635,-1.8583,-1.853,-1.8426,-1.8488,-1.8247,-1.8328,-1.8288,-1.8096,-1.7996,-1.7985,-1.7841,-1.7901,-1.7697,-1.7784,-1.7768,-1.7681,-1.7598,-1.7608,-1.7673,-1.7582,-1.7608,-1.7538,-1.7369,-1.7214,-1.7209,-1.7128,-1.7007,-1.6922,-1.672,-1.6667,-1.6647,-1.6648,-1.6559,-1.6595,-1.6759,-1.689,-1.7133,-1.7311,-1.7584,-1.781,-1.7901,-1.8067,-1.8308,-1.8374,-1.8558,-1.8725,-1.8751,-1.8789,-1.8894,-1.8891,-1.8847,-1.8755,-1.872,-1.8689,-1.8566,-1.8417,-1.8461,-1.8441,-1.8503,-1.8346,-1.8332,-1.8272,-1.8242,-1.824,-1.8231,-1.8292,-1.8254,-1.817,-1.8169,-1.8202,-1.8172,-1.8199,-1.8132,-1.814,-1.8115,-1.8084,-1.7984,-1.8082,-1.7967,-1.7817,-1.7847,-1.7829,-1.7921,-1.8016,-1.798,-1.7777,-1.7787,-1.787,-1.8029,-1.8153,-1.8404,-1.8459,-1.8572,-1.8485,-1.8512,-1.8479,-1.8474,-1.8595,-1.8539,-1.8431,-1.8416,-1.8494,-1.8498,-1.87,-1.8262,-1.7303,-1.5496,-1.2947,-1.0786,-0.93464,-1.1895,-1.5632,-1.6948,-1.7644,-1.8904,-2.0475,-2.0127,-1.9597,-1.8304,-1.8255,-1.8418,-1.8376,-1.844,-1.8245,-1.8424,-1.8323,-1.8313,-1.8137,-1.8189,-1.819,-1.8303,-1.8134,-1.8159,-1.805,-1.8204,-1.7972,-1.8031,-1.8042,-1.7979,-1.7937,-1.7913,-1.7815,-1.7834,-1.7672,-1.7598,-1.7611,-1.7586,-1.7475,-1.7426,-1.7268,-1.7087,-1.7034,-1.7008,-1.6872,-1.6773,-1.6607,-1.666,-1.6641,-1.656,-1.6458,-1.6456,-1.6437,-1.6337,-1.6327,-1.6249,-1.6247,-1.6246,-1.6307,-1.6362,-1.6448,-1.6466,-1.6619,-1.6926,-1.7152,-1.7431,-1.7478,-1.7681,-1.7834,-1.804,-1.8262,-1.8284,-1.8388,-1.8482,-1.8552,-1.8602,-1.8664,-1.8716,-1.8757,-1.8737,-1.8717,-1.8653,-1.8663,-1.8636,-1.8706,-1.8656,-1.8582,-1.8597,-1.8654,-1.857,-1.8507,-1.8498,-1.8649,-1.8507,-1.8485,-1.8463,-1.8492,-1.8486,-1.8357,-1.8358,-1.8263,-1.8134,-1.8245,-1.8146,-1.8053,-1.7826,-1.7803,-1.7867,-1.7932,-1.7999,-1.7972,-1.7908,-1.792,-1.7867,-1.8025,-1.818,-1.8567,-1.8607,-1.8584,-1.8582,-1.8672,-1.8628,-1.8469,-1.8547,-1.8555,-1.8619,-1.8656,-1.8754,-1.9063,-1.8874,-1.8006,-1.7146,-1.5055,-1.252,-1.0603,-1.0473,-1.4183,-1.7049,-1.782,-1.8754,-2.016,-2.0819,-2.0352,-1.937,-1.8848,-1.9011,-1.907,-1.9045,-1.8867,-1.8832,-1.8732,-1.8765,-1.8747,-1.8738,-1.8612,-1.8562,-1.845,-1.8475,-1.8546,-1.8516,-1.8468,-1.8305,-1.8351,-1.8169,-1.8158,-1.8157,-1.8106,-1.8032,-1.81,-1.8036,-1.7911,-1.7868,-1.7712,-1.7638,-1.7526,-1.7462,-1.7332,-1.7171,-1.7094,-1.7028,-1.6924,-1.6807,-1.6731,-1.6696,-1.6526,-1.6487,-1.6381,-1.6445,-1.6313,-1.6361,-1.6429,-1.6426,-1.6389,-1.6446,-1.6484,-1.6609,-1.6716,-1.6863,-1.6991,-1.7238,-1.7423,-1.7587,-1.7808,-1.801,-1.8174,-1.8318,-1.8398,-1.8435,-1.851,-1.86,-1.8563,-1.8654,-1.8756,-1.87,-1.8744,-1.8725,-1.8743,-1.8833,-1.8807,-1.8741,-1.8843,-1.8772,-1.8699,-1.8696,-1.8597,-1.8727,-1.8668,-1.8582,-1.8527,-1.8439,-1.8416,-1.8452,-1.8288,-1.8099,-1.8071,-1.8165,-1.8238,-1.7954,-1.7697,-1.7714,-1.7766,-1.784,-1.7925,-1.7852,-1.7896,-1.7919,-1.7985,-1.8134,-1.8362,-1.8596,-1.8578,-1.8556,-1.861,-1.864,-1.8626,-1.8588,-1.8596,-1.8566,-1.8668,-1.8704,-1.8954,-1.8857,-1.844,-1.7279,-1.5,-1.2434,-1.0305,-0.99005,-1.354,-1.6735,-1.7629,-1.8196,-1.9302,-2.0393,-1.9874,-1.9195,-1.8225,-1.8292,-1.8487,-1.849,-1.8449,-1.8498,-1.8506,-1.8474,-1.8514,-1.8459,-1.8457,-1.8507,-1.8551,-1.8538,-1.8661,-1.8674,-1.8695,-1.853,-1.8532,-1.8439,-1.8423,-1.8415,-1.8326,-1.8234,-1.8229,-1.8055,-1.7988,-1.7892,-1.7685,-1.7673,-1.7496,-1.7391,-1.7307,-1.7157,-1.6978,-1.6955,-1.6816,-1.6715,-1.6653,-1.6553,-1.6429,-1.6389,-1.6359,-1.6297,-1.6249,-1.6219,-1.6096,-1.6178,-1.6189,-1.6227,-1.6312,-1.6397,-1.656,-1.6722,-1.6932,-1.7094,-1.7304,-1.7481,-1.7599,-1.783,-1.8045,-1.8187,-1.8317,-1.826,-1.8344,-1.8452,-1.8573,-1.8554,-1.8495,-1.8615,-1.8566,-1.8573,-1.8616,-1.8622,-1.8671,-1.866,-1.8667,-1.8634,-1.8631,-1.8646,-1.8544,-1.8559,-1.8467,-1.848,-1.8472,-1.8418,-1.8408,-1.8484,-1.8466,-1.838,-1.83,-1.816,-1.8087,-1.8007,-1.7961,-1.7941,-1.7868,-1.7811,-1.7792,-1.7845,-1.7879,-1.789,-1.7893,-1.7834,-1.7804,-1.7972,-1.8085,-1.8412,-1.8586,-1.8614,-1.8602,-1.8577,-1.8654,-1.872,-1.8642,-1.8615,-1.8619,-1.8624,-1.8667,-1.8667,-1.8913,-1.8648,-1.8084,-1.6458,-1.4014,-1.1309,-0.92168
