-3.4574,-3.457,-3.4624,-3.4876,-3.4989,-3.4805,-3.4629,-3.467,-3.4746,-3.4912,-3.4753,-3.46,-3.4726,-3.4791,-3.4934,-3.4998,-3.4861,-3.5012,-3.4903,-3.493,-3.4885,-3.4682,-3.4858,-3.4909,-3.5246,-3.4924,-3.4837,-3.478,-3.4787,-3.4873,-3.4874,-3.4808,-3.486,-3.4844,-3.4818,-3.4886,-3.4744,-3.4332,-3.4319,-3.4643,-3.4887,-3.4605,-3.4327,-3.4288,-3.4424,-3.4554,-3.4319,-3.4023,-3.3955,-3.4341,-3.4651,-3.4746,-3.4715,-3.4756,-3.4837,-3.5014,-3.518,-3.5094,-3.4992,-3.4998,-3.5034,-3.5191,-3.5135,-3.5151,-3.4995,-3.5169,-3.5069,-3.4756,-3.4646,-3.3663,-3.2276,-3.0556,-2.8765,-2.6709,-2.5421,-2.7442,-3.1342,-3.7531,-3.9564,-3.8061,-3.7039,-3.6151,-3.5349,-3.4415,-3.4239,-3.427,-3.4421,-3.4326,-3.422,-3.4099,-3.4262,-3.3953,-3.39,-3.3726,-3.4019,-3.4317,-3.4224,-3.3982,-3.3779,-3.3651,-3.3799,-3.3873,-3.3788,-3.3463,-3.3446,-3.3395,-3.3435,-3.3218,-3.3006,-3.3012,-3.3301,-3.3302,-3.3215,-3.2871,-3.2564,-3.2714,-3.2675,-3.2631,-3.24,-3.2258,-3.2132,-3.202,-3.1999,-3.1719,-3.162,-3.1383,-3.1279,-3.1185,-3.0931,-3.0629,-3.0315,-3.0363,-3.0303,-2.9992,-2.9674,-2.9702,-2.9735,-2.9636,-2.9596,-2.9391,-2.9472,-2.9463,-2.9549,-2.9674,-2.9869,-3.0184,-3.0708,-3.1005,-3.147,-3.1842,-3.2136,-3.2695,-3.3173,-3.371,-3.4019,-3.4133,-3.4202,-3.4385,-3.4634,-3.4715,-3.4635,-3.4762,-3.4879,-3.4915,-3.47,-3.4795,-3.4845,-3.4859,-3.5013,-3.4817,-3.466,-3.4597,-3.4796,-3.4767,-3.4235,-3.4087,-3.4185,-3.4511,-3.5126,-3.5168,-3.4898,-3.4819,-3.4759,-3.5171,-3.4882,-3.4629,-3.4604,-3.4597,-3.4604,-3.4724,-3.4621,-3.4548,-3.4436,-3.4637,-3.4716,-3.4918,-3.4884,-3.5064,-3.4955,-3.4899,-3.4734,-3.4403,-3.4595,-3.4833,-3.5073,-3.4894,-3.4702,-3.4877,-3.5029,-3.5071,-3.502,-3.4803,-3.4818,-3.4931,-3.5039,-3.5017,-3.5036,-3.4951,-3.4999,-3.506,-3.4884,-3.4866,-3.4945,-3.5087,-3.4997,-3.5003,-3.4855,-3.4825,-3.4979,-3.4969,-3.4815,-3.4838,-3.4939,-3.5,-3.4998,-3.4668,-3.4814,-3.4989,-3.5103,-3.5222,-3.5134,-3.48,-3.4673,-3.4766,-3.4983,-3.4704,-3.4541,-3.4864,-3.5131,-3.5084,-3.5136,-3.4889,-3.4653,-3.48,-3.4888,-3.506,-3.4977,-3.4881,-3.4808,-3.4848,-3.4775,-3.4678,-3.4416,-3.4453,-3.4755,-3.4667,-3.4419,-3.4095,-3.414,-3.4302,-3.4532,-3.4385,-3.4231,-3.4291,-3.4242,-3.4616,-3.4503,-3.4456,-3.4683,-3.4724,-3.4853,-3.4975,-3.4801,-3.4836,-3.495,-3.5093,-3.5028,-3.4912,-3.4895,-3.4893,-3.4962,-3.513,-3.4851,-3.4397,-3.3373,-3.2165,-3.0865,-2.9092,-2.6756,-2.4783,-2.6162,-3.0054,-3.5926,-3.9099,-3.8151,-3.7099,-3.6787,-3.5892,-3.4704,-3.3988,-3.3895,-3.3971,-3.3976,-3.4066,-3.4038,-3.4197,-3.414,-3.4018,-3.3927,-3.3867,-3.3879,-3.3993,-3.3879,-3.3715,-3.3672,-3.3645,-3.3596,-3.3407,-3.3264,-3.3288,-3.3448,-3.3339,-3.3173,-3.314,-3.3133,-3.2981,-3.3013,-3.2995,-3.2862,-3.2681,-3.2418,-3.236,-3.2321,-3.209,-3.2017,-3.1978,-3.1833,-3.1828,-3.1754,-3.129,-3.1064,-3.102,-3.092,-3.0737,-3.0444,-3.0217,-3.0031,-2.9902,-2.9693,-2.9477,-2.933,-2.9467,-2.9544,-2.9354,-2.892,-2.8857,-2.8862,-2.9079,-2.9245,-2.9262,-2.9644,-3.0074,-3.0569,-3.1032,-3.1448,-3.1877,-3.2241,-3.2885,-3.3046,-3.307,-3.3414,-3.3727,-3.3829,-3.4246,-3.4484,-3.4276,-3.4278,-3.4452,-3.4891,-3.4797,-3.4406,-3.4317,-3.4692,-3.4821,-3.478,-3.4575,-3.4441,-3.4284,-3.4544,-3.446,-3.4326,-3.4094,-3.4224,-3.4496,-3.4514,-3.4445,-3.4335,-3.4312,-3.4385,-3.4276,-3.4163,-3.4139,-3.4334,-3.441,-3.4431,-3.4138,-3.3851,-3.4112,-3.4411,-3.4426,-3.4267,-3.4318,-3.4518,-3.4632,-3.4574,-3.4368,-3.4224,-3.4314,-3.4504,-3.4537,-3.4552,-3.4399,-3.4412,-3.4647,-3.476,-3.4708,-3.4635,-3.452,-3.4535,-3.4574,-3.4615,-3.4708,-3.472,-3.4728,-3.4753,-3.4758,-3.4617,-3.4481,-3.4507,-3.4864,-3.4971,-3.4833,-3.4607,-3.4496,-3.4632,-3.4737,-3.4794,-3.4831,-3.4877,-3.4945,-3.4952,-3.4815,-3.4646,-3.4695,-3.4715,-3.4858,-3.4883,-3.4773,-3.482,-3.4994,-3.5019,-3.4944,-3.4783,-3.4858,-3.4935,-3.5121,-3.4957,-3.473,-3.4696,-3.4694,-3.4705,-3.4942,-3.4958,-3.4981,-3.5003,-3.5111,-3.5051,-3.4844,-3.4736,-3.4791,-3.473,-3.4853,-3.4857,-3.4832,-3.4889,-3.5061,-3.5007,-3.4667,-3.4649,-3.4659,-3.46,-3.4705,-3.4492,-3.4438,-3.4374,-3.4309,-3.3976,-3.3906,-3.3852,-3.3989,-3.4309,-3.4416,-3.43,-3.4187,-3.4241,-3.4276,-3.4478,-3.4584,-3.4591,-3.4684,-3.4802,-3.508,-3.4916,-3.4784,-3.4862,-3.4737,-3.4801,-3.4849,-3.4905,-3.4865,-3.49,-3.4847,-3.452,-3.3161,-3.1538,-3.0192,-2.8634,-2.6413,-2.4388,-2.55,-2.9483,-3.5622,-3.8816,-3.7647,-3.6994,-3.641,-3.5403,-3.4372,-3.3966,-3.3715,-3.3609,-3.3775,-3.3997,-3.3939,-3.3828,-3.3768,-3.3724,-3.3651,-3.3535,-3.3599,-3.3578,-3.3582,-3.3579,-3.3484,-3.326,-3.3079,-3.315,-3.3184,-3.3224,-3.3133,-3.3064,-3.2958,-3.2981,-3.2863,-3.2752,-3.2608,-3.2633,-3.2654,-3.2349,-3.2113,-3.203,-3.1961,-3.2,-3.1933,-3.1693,-3.1512,-3.1443,-3.1516,-3.1218,-3.0824,-3.0664,-3.0601,-3.0574,-3.0447,-3.0096,-2.9809,-2.9681,-2.958,-2.9508,-2.9233,-2.8981,-2.9035,-2.9066,-2.9015,-2.8811,-2.8711,-2.8767,-2.8913,-2.917,-2.9396,-2.9688,-3.0005,-3.0582,-3.1174,-3.1609,-3.1855,-3.2161,-3.2631,-3.3269,-3.3553,-3.3655,-3.3694,-3.3932,-3.3964,-3.4117,-3.4132,-3.422,-3.4334,-3.441,-3.4309,-3.4176,-3.4252,-3.4349,-3.4537,-3.437,-3.418,-3.4231,-3.4275,-3.436,-3.4252,-3.4066,-3.4113,-3.4333,-3.4456,-3.4405,-3.4242,-3.3958,-3.3876,-3.4156,-3.4254,-3.4117,-3.4016,-3.4071,-3.4241,-3.4316,-3.4219,-3.3983,-3.4071,-3.4105,-3.4283,-3.4325,-3.3997,-3.4074,-3.4261,-3.4422,-3.4529,-3.4333,-3.418,-3.4259,-3.4487,-3.4469,-3.4321,-3.4214,-3.4308,-3.4501,-3.4682,-3.4429,-3.4429,-3.4387,-3.4485,-3.4549,-3.4356,-3.4289,-3.4362,-3.4441,-3.4535,-3.4534,-3.4407,-3.4497,-3.4615,-3.4628,-3.4406,-3.4309,-3.4301,-3.4488,-3.4594,-3.45,-3.4422,-3.4462,-3.4554,-3.4613,-3.4516,-3.4411,-3.4253,-3.4301,-3.4599,-3.4567,-3.4362,-3.4383,-3.4512,-3.4474,-3.4571,-3.4468,-3.4494,-3.4379,-3.4556,-3.4674,-3.4497,-3.4354,-3.4566,-3.4588,-3.4579,-3.4434,-3.4362,-3.4489,-3.4613,-3.4707,-3.452,-3.4385,-3.4147,-3.4439,-3.4666,-3.4543,-3.4379,-3.4478,-3.4468,-3.4518,-3.4475,-3.4388,-3.4384,-3.4426,-3.4404,-3.4339,-3.4228,-3.416,-3.4354,-3.4325,-3.4019,-3.385,-3.3899,-3.3691,-3.385,-3.383,-3.3642,-3.3509,-3.3733,-3.3875,-3.3877,-3.3969,-3.3965,-3.4071,-3.4537,-3.4594,-3.4438,-3.4331,-3.4305,-3.4496,-3.4594,-3.46,-3.4465,-3.4487,-3.4511,-3.4652,-3.463,-3.4535,-3.4535,-3.4373,-3.3501,-3.2085,-3.0194,-2.8579,-2.6212,-2.4988,-2.3721,-2.6205,-3.1186,-3.7208,-3.8542,-3.7076,-3.6251,-3.4886,-3.3898,-3.3709,-3.3838,-3.3401,-3.3598,-3.3519,-3.3716,-3.3576,-3.3864,-3.3403,-3.3383,-3.3364,-3.3751,-3.3333,-3.3237,-3.3126,-3.2982,-3.3055,-3.2984,-3.2726,-3.2824,-3.2913,-3.3023,-3.2899,-3.2828,-3.2581,-3.2769,-3.2563,-3.2399,-3.2186,-3.2226,-3.2292,-3.2298,-3.2018,-3.1844,-3.1718,-3.1698,-3.1595,-3.1601,-3.1283,-3.1063,-3.0937,-3.1045,-3.076,-3.0426,-3.0186,-3.0159,-3.0181,-2.9818,-2.9509,-2.9382,-2.9352,-2.9176,-2.9337,-2.8961,-2.8781,-2.8811,-2.8892,-2.8842,-2.8744,-2.8767,-2.8855,-2.909,-2.9546,-2.9635,-3.0153,-3.066,-3.1371,-3.188,-3.2106,-3.2313,-3.2636,-3.3084,-3.3343,-3.3402,-3.3548,-3.3636,-3.3826,-3.4129,-3.4094,-3.3927,-3.4054,-3.4077,-3.4286,-3.4331,-3.4081,-3.41,-3.4174,-3.4274,-3.4095,-3.3867,-3.3956,-3.3979,-3.4213,-3.4193,-3.404,-3.3922,-3.3976,-3.4091,-3.4103,-3.3797,-3.389,-3.3831,-3.4088,-3.4105,-3.3934,-3.3819,-3.3962,-3.4099,-3.4097,-3.3786,-3.3811,-3.3961,-3.4017,-3.3954,-3.407,-3.4009,-3.4045,-3.4111,-3.4272,-3.4199,-3.4044,-3.4016,-3.4119,-3.4408,-3.4285,-3.4264,-3.4227,-3.4304,-3.4334,-3.4409,-3.435,-3.4275,-3.4386,-3.4491,-3.441,-3.4183,-3.4185,-3.4259,-3.4317,-3.4255,-3.3996,-3.415,-3.4392,-3.4543,-3.4692,-3.4478,-3.437,-3.4382,-3.4396,-3.4584,-3.4417,-3.4394,-3.4371,-3.4404,-3.4617,-3.4481,-3.4279,-3.4295,-3.4477,-3.4589,-3.4424,-3.4335,-3.4383,-3.4503,-3.4612,-3.455,-3.4453,-3.4535,-3.4589,-3.4575,-3.463,-3.4557,-3.4457,-3.4582,-3.4572,-3.4689,-3.451,-3.4542,-3.4536,-3.4758,-3.47,-3.4483,-3.4492,-3.4656,-3.4783,-3.4743,-3.4689,-3.4666,-3.4689,-3.4814,-3.4816,-3.473,-3.4611,-3.4679,-3.4731,-3.4876,-3.4706,-3.4525,-3.4534,-3.4623,-3.4675,-3.4512,-3.4364,-3.4336,-3.4085,-3.4068,-3.3913,-3.3872,-3.38,-3.3755,-3.3827,-3.3964,-3.3926,-3.4325,-3.4645,-3.4767,-3.4948,-3.4939,-3.4904,-3.4908,-3.5085,-3.495,-3.4784,-3.4856,-3.507,-3.5176,-3.5208,-3.4931,-3.4804,-3.4943,-3.5063,-3.4539,-3.3207,-3.1632,-3.0131,-2.8315,-2.6387,-2.4949,-2.7157,-3.164,-3.8044,-3.9627,-3.7924,-3.6887,-3.5952,-3.5176,-3.4476,-3.4315,-3.4201,-3.4281,-3.4382,-3.4532,-3.4314,-3.4254,-3.4145,-3.4198,-3.4223,-3.4199,-3.4005,-3.4055,-3.4016,-3.4109,-3.4122,-3.3918,-3.3818,-3.3789,-3.3899,-3.3901,-3.3577,-3.3437,-3.3457,-3.362,-3.3634,-3.3444,-3.3158,-3.322,-3.3174,-3.315,-3.2865,-3.2675,-3.259,-3.2711,-3.2546,-3.2441,-3.2084,-3.2048,-3.2168,-3.2201,-3.1809,-3.1415,-3.1258,-3.1253,-3.1143,-3.0949,-3.0666,-3.0597,-3.052,-3.0378,-3.0293,-3.004,-3.0013,-3.0048,-2.9965,-2.9892,-2.9734,-2.9685,-2.9959,-3.0168,-3.049,-3.0609,-3.1016,-3.1379,-3.1844,-3.2467,-3.2789,-3.3278,-3.3619,-3.3988,-3.4244,-3.4273,-3.462,-3.4903,-3.5071,-3.5097,-3.4942,-3.5004,-3.5138,-3.5218,-3.5327,-3.5044,-3.504,-3.4911,-3.5057,-3.5187,-3.5087,-3.4629,-3.4347,-3.5111,-3.544,-3.4939,-3.4627,-3.478,-3.4537,-3.4676,-3.4673,-3.4592,-3.4854,-3.5168,-3.5226,-3.528,-3.4766,-3.456,-3.4603,-3.4643,-3.53,-3.5174,-3.5097,-3.4867,-3.5097,-3.5264,-3.5127,-3.512,-3.5204,-3.5323,-3.5344,-3.514,-3.5152,-3.5412,-3.5423,-3.5451,-3.545,-3.509,-3.4983,-3.5605,-3.6229,-3.5891,-3.5398,-3.5331,-3.545,-3.5778,-3.5654,-3.5667,-3.5826,-3.591,-3.6087,-3.5945,-3.5682,-3.5451,-3.574,-3.5937,-3.6132,-3.6053,-3.5402,-3.578,-3.6283,-3.6052,-3.6081,-3.5943,-3.608,-3.6123,-3.6082,-3.6133,-3.6035,-3.6108,-3.6122,-3.6164,-3.622,-3.6133,-3.58,-3.5923,-3.649,-3.6273,-3.6019,-3.6151,-3.6303,-3.6392,-3.6176,-3.6203,-3.6015,-3.6097,-3.6116,-3.6182,-3.6143,-3.5964,-3.6045,-3.6277,-3.6277,-3.6054,-3.5835,-3.578,-3.5615,-3.5853,-3.5823,-3.6047,-3.5928,-3.5597,-3.5819,-3.5927,-3.5687,-3.5383,-3.5263,-3.4961,-3.5221,-3.5329,-3.6079,-3.5799,-3.5898,-3.59,-3.5544,-3.5973,-3.6492,-3.643,-3.5936,-3.5914,-3.575,-3.6033,-3.6988,-3.6402,-3.5939,-3.6245,-3.645,-3.6255,-3.6423,-3.5899,-3.48,-3.4622,-3.2939,-3.1618,-2.9407,-2.6944,-2.6693,-2.969,-3.4413,-3.9757,-4.0123,-3.7929,-3.7823,-3.7357,-3.5994,-3.5707,-3.6072,-3.5769,-3.5592,-3.4975,-3.5341,-3.5699,-3.5795,-3.5602,-3.5199,-3.5179,-3.5113,-3.4657,-3.5267,-3.5535,-3.4903,-3.4943,-3.5655,-3.4874,-3.468,-3.4522,-3.4548,-3.4977,-3.4979,-3.46,-3.4183,-3.4221,-3.4866,-3.4228,-3.4067,-3.4241,-3.4395,-3.3773,-3.3636,-3.4089,-3.3675,-3.3445,-3.314,-3.3548,-3.3039,-3.267,-3.2726,-3.2967,-3.252,-3.1846,-3.1632,-3.2172,-3.2086,-3.1451,-3.1338,-3.1326,-3.1044,-3.1062,-3.0875,-3.0984,-3.0752,-3.0953,-3.0726,-3.0686,-3.063,-3.0887,-3.144,-3.1494,-3.1774,-3.2386,-3.2731,-3.2846,-3.3819,-3.3946,-3.4585,-3.4921,-3.5171,-3.5238,-3.5087,-3.5736,-3.6116,-3.6158,-3.562,-3.5529,-3.6297,-3.6559,-3.6339,-3.5816,-3.614,-3.6338,-3.6035,-3.5765,-3.5863,-3.5848,-3.6233,-3.6315,-3.6274,-3.5454,-3.5814,-3.5994,-3.6014,-3.6099,-3.5943,-3.5866,-3.5727,-3.5785,-3.5846,-3.5929,-3.5618,-3.612,-3.6391,-3.6183,-3.5643,-3.5592,-3.5646,-3.6085,-3.5883,-3.6341,-3.6155,-3.6233,-3.6132,-3.5979,-3.588,-3.5484,-3.6187,-3.6437,-3.6104,-3.6115,-3.5969,-3.5936,-3.6144,-3.659,-3.6319,-3.613,-3.5778,-3.6695,-3.6654,-3.6121,-3.6294,-3.6232,-3.5963,-3.6055,-3.6313,-3.6416,-3.6379,-3.6499,-3.6188,-3.6099,-3.5815,-3.5985,-3.6467,-3.6728,-3.6469,-3.5948,-3.6373,-3.5793,-3.6336,-3.6533,-3.6182,-3.6287,-3.6288,-3.6237,-3.623,-3.6222,-3.619,-3.6217,-3.6406,-3.6088,-3.5986,-3.6467,-3.639,-3.6227,-3.6158,-3.6331,-3.6161,-3.619,-3.6025,-3.6508,-3.6586,-3.6187,-3.6128,-3.6549,-3.6414,-3.6135,-3.6169,-3.6171,-3.6175,-3.6196,-3.633,-3.6044,-3.5871,-3.598,-3.6193,-3.5498,-3.5615,-3.5825,-3.5732,-3.5648,-3.5582,-3.5665,-3.5588,-3.5788,-3.5869,-3.5651,-3.6012,-3.5878,-3.6602,-3.6704,-3.6324,-3.6234,-3.6172,-3.6286,-3.6585,-3.6338,-3.6332,-3.6152,-3.6366,-3.6616,-3.6561,-3.6312,-3.5552,-3.4294,-3.2997,-3.1436,-2.9172,-2.6935,-2.6063,-2.8856,-3.3478,-3.6676,-4.0297,-3.9598,-3.805,-3.7671,-3.669,-3.5906,-3.5542,-3.5751,-3.5331,-3.5418,-3.5192,-3.5534,-3.5314,-3.5686,-3.5187,-3.5184,-3.5146,-3.5413,-3.5206,-3.5244,-3.4858,-3.5,-3.4975,-3.5,-3.4929,-3.4708,-3.4568,-3.4609,-3.4809,-3.4618,-3.443,-3.4504,-3.4483,-3.4295,-3.4109,-3.3883,-3.3936,-3.3679,-3.3585,-3.3629,-3.3814,-3.3533,-3.3343,-3.3218,-3.309,-3.2785,-3.2554,-3.2411,-3.2314,-3.2024,-3.1949,-3.1661,-3.1534,-3.1448,-3.1366,-3.1048,-3.0904,-3.081,-3.0721,-3.0652,-3.0379,-3.0319,-3.0305,-3.0465,-3.0517,-3.0565,-3.0641,-3.0778,-3.1376,-3.1918,-3.2365,-3.2937,-3.3302,-3.3655,-3.434,-3.4454,-3.4727,-3.4845,-3.5144,-3.5362,-3.5596,-3.5497,-3.5405,-3.5465,-3.585,-3.592,-3.5745,-3.5733,-3.5772,-3.5903,-3.6001,-3.5703,-3.5602,-3.5606,-3.5713,-3.5692,-3.5574,-3.5405,-3.5449,-3.5627,-3.5712,-3.5617,-3.5413,-3.5429,-3.5491,-3.5605,-3.5484,-3.538,-3.526,-3.5385,-3.5583,-3.5533,-3.5323,-3.539,-3.563,-3.5769,-3.5573,-3.5405,-3.5467,-3.5516,-3.5777,-3.581,-3.5605,-3.5448,-3.562,-3.5806,-3.5814,-3.5786,-3.5776,-3.576,-3.5896,-3.5779,-3.5797,-3.5629,-3.5778,-3.6062,-3.6038,-3.5893,-3.5807,-3.5742,-3.5934,-3.6007,-3.5979,-3.5922,-3.5746,-3.5958,-3.5928,-3.5784,-3.5643,-3.5814,-3.5951,-3.6041,-3.5856,-3.5817,-3.5821,-3.6049,-3.6119,-3.5909,-3.5838,-3.5914,-3.6004,-3.6091,-3.6018,-3.5791,-3.589,-3.5883,-3.5752,-3.6009,-3.594,-3.5759,-3.5823,-3.6004,-3.6016,-3.5798,-3.5702,-3.5968,-3.6056,-3.6112,-3.599,-3.5838,-3.589,-3.6006,-3.6026,-3.5966,-3.5745,-3.5827,-3.5805,-3.5974,-3.5808,-3.5742,-3.5762,-3.586,-3.5951,-3.5692,-3.5459,-3.5346,-3.5423,-3.5495,-3.5334,-3.5041,-3.5184,-3.5336,-3.5339,-3.5362,-3.5186,-3.5304,-3.5304,-3.542,-3.5548,-3.5662,-3.5697,-3.5856,-3.6002,-3.6046,-3.5698,-3.5832,-3.6103,-3.6141,-3.6018,-3.5927,-3.5873,-3.5876,-3.6117,-3.589,-3.4871,-3.3452,-3.1808,-3.0324,-2.8376,-2.6016,-2.5728,-2.9387,-3.5153,-4.0171,-3.9486,-3.7987,-3.7314,-3.6811,-3.5888,-3.5165,-3.5129,-3.4901,-3.5195,-3.5079,-3.5308,-3.4937,-3.5037,-3.4977,-3.5024,-3.4811,-3.4724,-3.4666,-3.4753,-3.4782,-3.4648,-3.4525,-3.4607,-3.4423,-3.4593,-3.444,-3.4395,-3.4248,-3.4261,-3.4265,-3.4296,-3.4038,-3.387,-3.3742,-3.3922,-3.3778,-3.3546,-3.3315,-3.3214,-3.3292,-3.3232,-3.2908,-3.2835,-3.2727,-3.2614,-3.2517,-3.2272,-3.202,-3.1843,-3.1757,-3.1608,-3.1352,-3.1013,-3.0855,-3.0879,-3.0924,-3.0621,-3.0272,-3.025,-3.0258,-3.0154,-3.0119,-3.0005,-2.9971,-3.0098,-3.0263,-3.0422,-3.0559,-3.1054,-3.1477,-3.2152,-3.2662,-3.2986,-3.3369,-3.3876,-3.4215,-3.4559,-3.4671,-3.4773,-3.489,-3.525,-3.5363,-3.5252,-3.523,-3.5245,-3.5533,-3.5491,-3.5406,-3.5342,-3.5254,-3.545,-3.5419,-3.5209,-3.5187,-3.5235,-3.5322,-3.5288,-3.5219,-3.4981,-3.5056,-3.5199,-3.5269,-3.5176,-3.5064,-3.4903,-3.4976,-3.519,-3.5193,-3.4987,-3.4916,-3.4881,-3.5115,-3.5122,-3.5025,-3.4941,-3.5052,-3.5122,-3.5064,-3.4978,-3.4939,-3.5006,-3.5256,-3.5334,-3.5164,-3.5029,-3.5077,-3.5311,-3.5533,-3.5258,-3.5156,-3.5283,-3.5308,-3.5327,-3.5314,-3.5265,-3.5184,-3.5264,-3.5382,-3.5269,-3.522,-3.5255,-3.5321,-3.5398,-3.5419,-3.5295,-3.5255,-3.5265,-3.5428,-3.539,-3.5228,-3.5171,-3.5263,-3.5385,-3.5337,-3.5187,-3.5216,-3.5243,-3.5307,-3.5361,-3.5186,-3.5196,-3.5096,-3.5141,-3.5291,-3.5245,-3.5225,-3.5191,-3.5135,-3.5336,-3.5158,-3.505,-3.5127,-3.5368,-3.544,-3.5253,-3.5086,-3.5095,-3.5255,-3.5227,-3.5239,-3.5086,-3.5208,-3.5226,-3.5324,-3.528,-3.5179,-3.5041,-3.5205,-3.5184,-3.5124,-3.5104,-3.4977,-3.5065,-3.5119,-3.5089,-3.4784,-3.4678,-3.4829,-3.4898,-3.4463,-3.4366,-3.4448,-3.4387,-3.448,-3.4465,-3.4467,-3.4268,-3.4379,-3.4723,-3.4794,-3.4756,-3.4901,-3.497,-3.5191,-3.5171,-3.513,-3.5084,-3.5021,-3.5244,-3.5389,-3.5197,-3.5153,-3.5157,-3.5244,-3.5362,-3.4971,-3.4178,-3.2707,-3.1075,-2.9697,-2.7593,-2.5137,-2.4697,-2.8431,-3.4236,-3.9352,-3.888,-3.7215,-3.6621,-3.558,-3.4682,-3.4355,-3.4299,-3.4128,-3.437,-3.4332,-3.4268,-3.3927,-3.4074,-3.4109,-3.4218,-3.4042,-3.4041,-3.3864,-3.3856,-3.3769,-3.381,-3.3678,-3.3726,-3.361,-3.3765,-3.3696,-3.3563,-3.3415,-3.3472,-3.3449,-3.3415,-3.2969,-3.305,-3.2978,-3.3043,-3.2893,-3.2659,-3.2493,-3.2514,-3.2456,-3.2337,-3.209,-3.1944,-3.1999,-3.1902,-3.176,-3.1458,-3.1138,-3.1015,-3.1112,-3.0944,-3.0446,-3.0304,-3.0224,-3.0111,-2.9907,-2.9774,-2.9604,-2.9427,-2.9414,-2.9404,-2.9263,-2.9161,-2.919,-2.9383,-2.953,-2.9546,-2.9858,-3.0274,-3.0872,-3.1466,-3.1895,-3.2174,-3.2537,-3.3107,-3.3505,-3.3624,-3.3728,-3.3949,-3.4252,-3.4582,-3.4627,-3.4519,-3.4584,-3.4678,-3.4844,-3.4793,-3.4654,-3.4544,-3.4628,-3.4722,-3.4621,-3.4614,-3.4633,-3.4544,-3.4645,-3.4522,-3.4406,-3.4403,-3.4519,-3.4553,-3.4614,-3.4379,-3.4414,-3.4364,-3.4455,-3.4399,-3.4441,-3.4404,-3.4327,-3.44,-3.4496,-3.4486,-3.4379,-3.4277,-3.449,-3.4637,-3.4544,-3.4474,-3.4484,-3.4479,-3.472,-3.4559,-3.4483,-3.447,-3.4616,-3.4768,-3.4746,-3.4494,-3.4496,-3.4652,-3.4842,-3.4722,-3.4656,-3.4659,-3.4731,-3.4822,-3.4882,-3.4652,-3.4616,-3.4626,-3.4795,-3.4724,-3.4614,-3.4655,-3.4775,-3.4946,-3.4861,-3.4808,-3.4621,-3.4687,-3.48,-3.4921,-3.4753,-3.4692,-3.4757,-3.4807,-3.4817,-3.4733,-3.467,-3.4743,-3.4811,-3.4914,-3.4766,-3.4722,-3.4637,-3.4751,-3.4962,-3.4821,-3.4618,-3.4661,-3.4727,-3.4959,-3.4863,-3.4739,-3.4664,-3.4776,-3.4782,-3.4914,-3.4783,-3.4699,-3.4715,-3.4752,-3.4805,-3.4571,-3.4496,-3.462,-3.4676,-3.4646,-3.4453,-3.422,-3.4082,-3.4125,-3.4294,-3.4177,-3.4,-3.4115,-3.4257,-3.4398,-3.4297,-3.4181,-3.4525,-3.4658,-3.4752,-3.4752,-3.4683,-3.4913,-3.4955,-3.5042,-3.5004,-3.4838,-3.4789,-3.4761,-3.5016,-3.4957,-3.4842,-3.463,-3.396,-3.2825,-3.1183,-2.9541,-2.7355,-2.541,-2.5312,-2.704,-3.0508,-3.6579,-3.9273,-3.7967,-3.6991,-3.5945,-3.4919,-3.4221,-3.4189,-3.4134,-3.4129,-3.398,-3.3916,-3.4068,-3.4062,-3.3996,-3.3906,-3.3757,-3.3787,-3.3808,-3.369,-3.3555,-3.3578,-3.3615,-3.3622,-3.3582,-3.3273,-3.3195,-3.3304,-3.3345,-3.3279,-3.3063,-3.2925,-3.3016,-3.3061,-3.2955,-3.2698,-3.2497,-3.2469,-3.2495,-3.25,-3.2129,-3.2071,-3.2081,-3.1993,-3.1888,-3.1557,-3.1222,-3.1173,-3.1149,-3.1037,-3.0706,-3.0492,-3.0381,-3.0386,-3.0156,-2.9788,-2.9519,-2.9483,-2.9491,-2.9546,-2.9374,-2.9188,-2.9027,-2.9172,-2.9187,-2.9232,-2.9255,-2.9453,-2.9954,-3.0469,-3.0922,-3.1261,-3.1825,-3.2329,-3.2718,-3.2973,-3.3307,-3.3454,-3.3747,-3.4057,-3.429,-3.4311,-3.4425,-3.4427,-3.4587,-3.4711,-3.4638,-3.4485,-3.4508,-3.4669,-3.4685,-3.4459,-3.444,-3.4585,-3.4663,-3.4566,-3.4481,-3.435,-3.4284,-3.4476,-3.4559,-3.4335,-3.4297,-3.4292,-3.4457,-3.4504,-3.4275,-3.4134,-3.4234,-3.4423,-3.4503,-3.4351,-3.4106,-3.4209,-3.4429,-3.4575,-3.4554,-3.4329,-3.4329,-3.4424,-3.4649,-3.4578,-3.4447,-3.4441,-3.4569,-3.4722,-3.4682,-3.4576,-3.4512,-3.4608,-3.4677,-3.4755,-3.4657,-3.4684,-3.4654,-3.4752,-3.4792,-3.4693,-3.4481,-3.4476,-3.4736,-3.486,-3.469,-3.4596,-3.4661,-3.476,-3.4757,-3.4724,-3.4613,-3.4608,-3.4673,-3.4859,-3.4772,-3.471,-3.4653,-3.4781,-3.4901,-3.4816,-3.4647,-3.4548,-3.4731,-3.4913,-3.4852,-3.4718,-3.4628,-3.4686,-3.491,-3.4782,-3.4679,-3.4673,-3.4717,-3.4746,-3.4818,-3.4612,-3.4591,-3.4793,-3.4872,-3.4781,-3.4787,-3.4566,-3.465,-3.4916,-3.4917,-3.4674,-3.4621,-3.4527,-3.4612,-3.4735,-3.4541,-3.4347,-3.4321,-3.4404,-3.4313,-3.4164,-3.4042,-3.3953,-3.4034,-3.4139,-3.4075,-3.408,-3.419,-3.4342,-3.4504,-3.4793,-3.4721,-3.4747,-3.4883,-3.501,-3.4973,-3.4766,-3.4781,-3.4941,-3.4977,-3.4986,-3.4803,-3.4763,-3.4834,-3.4989,-3.4896,-3.3911,-3.2383,-3.0952,-2.9589,-2.7517,-2.5016,-2.4643,-2.7968,-3.3532,-3.8893,-3.8656,-3.6912,-3.6444,-3.5451,-3.4534,-3.3996,-3.3974,-3.3897,-3.402,-3.4152,-3.4211,-3.3957,-3.3902,-3.389,-3.3996,-3.3839,-3.377,-3.3747,-3.3854,-3.3769,-3.3613,-3.3487,-3.3484,-3.3564,-3.358,-3.3483,-3.3343,-3.3171,-3.3207,-3.3331,-3.3191,-3.2942,-3.2827,-3.2743,-3.2873,-3.2658,-3.2506,-3.2342,-3.2342,-3.237,-3.2252,-3.1966,-3.1705,-3.1575,-3.1635,-3.1456,-3.1371,-3.1094,-3.0849,-3.0749,-3.0681,-3.0399,-3.0175,-2.9873,-2.9828,-2.981,-2.9485,-2.9235,-2.9147,-2.9336,-2.9224,-2.9166,-2.8963,-2.8948,-2.9249,-2.9536,-2.9675,-2.9952,-3.007,-3.0772,-3.1522,-3.1982,-3.219,-3.2507,-3.3068,-3.359,-3.3825,-3.3858,-3.4068,-3.4235,-3.4447,-3.4561,-3.4568,-3.4537,-3.4671,-3.4884,-3.4881,-3.4755,-3.4669,-3.4542,-3.4586,-3.4768,-3.4642,-3.4536,-3.4442,-3.4609,-3.475,-3.4611,-3.4408,-3.4402,-3.4539,-3.4735,-3.4521,-3.4373,-3.4404,-3.4535,-3.464,-3.4533,-3.4404,-3.4354,-3.454,-3.46,-3.456,-3.4411,-3.4394,-3.4583,-3.4604,-3.456,-3.4556,-3.4612,-3.4591,-3.4827,-3.4774,-3.4659,-3.4637,-3.4679,-3.4823,-3.4834,-3.4792,-3.4641,-3.4694,-3.4853,-3.4945,-3.4874,-3.474,-3.4752,-3.4872,-3.5018,-3.4835,-3.4758,-3.4785,-3.4944,-3.4999,-3.4853,-3.4679,-3.4765,-3.4862,-3.4987,-3.4928,-3.4755,-3.47,-3.4947,-3.5011,-3.4962,-3.4903,-3.4765,-3.4994,-3.504,-3.5074,-3.4853,-3.4842,-3.5003,-3.5054,-3.4959,-3.4825,-3.4812,-3.4837,-3.4964,-3.5059,-3.4936,-3.4814,-3.4892,-3.4988,-3.5132,-3.4913,-3.4818,-3.4884,-3.4984,-3.5086,-3.5016,-3.4887,-3.4895,-3.4993,-3.5059,-3.4909,-3.4745,-3.4925,-3.5009,-3.5093,-3.5009,-3.4856,-3.4838,-3.4937,-3.5079,-3.5003,-3.4862,-3.4843,-3.4763,-3.4855,-3.4833,-3.4668,-3.4592,-3.4616,-3.448,-3.4261,-3.4195,-3.4173,-3.4215,-3.4262,-3.4341,-3.4257,-3.4169,-3.4295,-3.4552,-3.468,-3.4734,-3.4769,-3.4866,-3.5134,-3.5104,-3.4935,-3.4909,-3.4955,-3.5102,-3.5176,-3.5005,-3.4946,-3.4928,-3.5206,-3.5236,-3.492,-3.3901,-3.2444,-3.0839,-2.9417,-2.7184,-2.4618,-2.4507,-2.8353,-3.4063,-3.8708,-3.8174,-3.6933,-3.65,-3.5849,-3.4761,-3.409,-3.4096,-3.4066,-3.4333,-3.4156,-3.3987,-3.3864,-3.3995,-3.3989,-3.4118,-3.3787,-3.3848,-3.3725,-3.3866,-3.3833,-3.3658,-3.3478,-3.355,-3.3517,-3.3607,-3.3473,-3.3294,-3.3158,-3.3314,-3.3295,-3.3136,-3.2833,-3.2847,-3.282,-3.2884,-3.2578,-3.2397,-3.2246,-3.2278,-3.2363,-3.2117,-3.2003,-3.1873,-3.1699,-3.1664,-3.1506,-3.1189,-3.0843,-3.0779,-3.0853,-3.0597,-3.0204,-3.0025,-2.9872,-2.9764,-2.9679,-2.9374,-2.9203,-2.9158,-2.9285,-2.9118,-2.8869,-2.883,-2.8843,-2.9029,-2.9272,-2.9374,-2.9608,-3.0062,-3.0581,-3.1176,-3.157,-3.181,-3.2365,-3.2995,-3.3376,-3.3403,-3.3514,-3.3714,-3.4085,-3.4271,-3.419,-3.4293,-3.4347,-3.4523,-3.4638,-3.4575,-3.4373,-3.4366,-3.4462,-3.4465,-3.4497,-3.4356,-3.4362,-3.4371,-3.4505,-3.4407,-3.422,-3.4189,-3.4362,-3.4357,-3.4329,-3.4251,-3.4126,-3.4024,-3.4124,-3.4376,-3.4218,-3.4017,-3.4021,-3.4199,-3.4398,-3.4226,-3.4115,-3.4164,-3.4343,-3.4347,-3.4217,-3.4162,-3.4177,-3.4384,-3.4438,-3.4403,-3.4237,-3.4224,-3.4452,-3.4445,-3.4413,-3.437,-3.4247,-3.4392,-3.4564,-3.4555,-3.4353,-3.4298,-3.4404,-3.4481,-3.4486,-3.4293,-3.437,-3.4472,-3.4501,-3.4439,-3.4355,-3.4283,-3.4315,-3.4435,-3.4632,-3.4367,-3.4278,-3.4211,-3.4358,-3.4447,-3.442,-3.4203,-3.425,-3.4439,-3.4454,-3.428,-3.4171,-3.4223,-3.4323,-3.4411,-3.4353,-3.423,-3.429,-3.4237,-3.4317,-3.424,-3.4161,-3.417,-3.4249,-3.4316,-3.4281,-3.4106,-3.4108,-3.4286,-3.4348,-3.422,-3.4001,-3.4117,-3.4273,-3.4371,-3.4323,-3.4237,-3.4106,-3.4168,-3.4281,-3.4156,-3.4115,-3.407,-3.4121,-3.4307,-3.4339,-3.4172,-3.4002,-3.4097,-3.4263,-3.4251,-3.4057,-3.4137,-3.401,-3.403,-3.4125,-3.4061,-3.3864,-3.3661,-3.3713,-3.3599,-3.351,-3.3377,-3.326,-3.3511,-3.3517,-3.352,-3.3331,-3.3434,-3.3645,-3.3813,-3.3938,-3.3982,-3.3985,-3.4185,-3.4252,-3.4228,-3.4126,-3.4107,-3.4095,-3.4224,-3.4276,-3.4182,-3.4032,-3.4145,-3.428,-3.4115,-3.303,-3.1602,-3.0073,-2.8666,-2.6463,-2.3998,-2.3429,-2.5478,-3.0285,-3.6737,-3.8488,-3.6937,-3.5907,-3.5148,-3.4049,-3.3357,-3.3291,-3.3229,-3.3364,-3.3323,-3.3372,-3.3185,-3.3201,-3.3151,-3.3219,-3.3008,-3.2923,-3.2881,-3.3004,-3.3072,-3.2994,-3.2797,-3.2799,-3.2767,-3.282,-3.275,-3.257,-3.246,-3.2455,-3.2564,-3.2519,-3.2222,-3.2193,-3.2109,-3.208,-3.2058,-3.1907,-3.1718,-3.1576,-3.1621,-3.1673,-3.1366,-3.1066,-3.094,-3.0891,-3.0821,-3.053,-3.0391,-3.0215,-3.0193,-3.0041,-2.9753,-2.9483,-2.9312,-2.9176,-2.9058,-2.8991,-2.8728,-2.8621,-2.8659,-2.8618,-2.8561,-2.8437,-2.8288,-2.8496,-2.8797,-2.8892,-2.9101,-2.9426,-2.9866,-3.0681,-3.1054,-3.1254,-3.1666,-3.2177,-3.2402,-3.2761,-3.296,-3.3154,-3.3422,-3.363,-3.3845,-3.3759,-3.3835,-3.3851,-3.398,-3.4058,-3.3886,-3.3915,-3.3923,-3.3946,-3.4007,-3.3868,-3.3721,-3.3728,-3.3835,-3.3925,-3.3935,-3.3759,-3.3766,-3.3735,-3.3779,-3.3772,-3.3601,-3.3666,-3.3787,-3.3803,-3.3688,-3.3595,-3.3621,-3.3748,-3.3883,-3.371,-3.3582,-3.3628,-3.3677,-3.3845,-3.3985,-3.3872,-3.3866,-3.3876,-3.3951,-3.4063,-3.3914,-3.3888,-3.3975,-3.4093,-3.4127,-3.408,-3.3941,-3.4094,-3.4083,-3.4175,-3.3968,-3.3894,-3.3988,-3.4106,-3.4245,-3.4225,-3.4028,-3.4037,-3.4119,-3.4222,-3.4196,-3.4075,-3.4246,-3.4138,-3.4234,-3.414,-3.4005,-3.402,-3.4177,-3.4168,-3.4247,-3.4079,-3.4081,-3.4182,-3.423,-3.42,-3.4048,-3.3938,-3.408,-3.4337,-3.4294,-3.3971,-3.4061,-3.4167,-3.4177,-3.4228,-3.4094,-3.4061,-3.4226,-3.4336,-3.4302,-3.4132,-3.4054,-3.3973,-3.4125,-3.4297,-3.4161,-3.4016,-3.4037,-3.4032,-3.416,-3.4064,-3.3869,-3.386,-3.3912,-3.3984,-3.3676,-3.3412,-3.3478,-3.3565,-3.3569,-3.3478,-3.3428,-3.3474,-3.3563,-3.3771,-3.3762,-3.3748,-3.3939,-3.4133,-3.4225,-3.4392,-3.4171,-3.4253,-3.4303,-3.4424,-3.4277,-3.4223,-3.4218,-3.4332,-3.4416,-3.4442,-3.4322,-3.4008,-3.3244,-3.1918,-3.0543,-2.8994,-2.6792,-2.4868,-2.5165,-2.8416,-3.3867,-3.871,-3.819,-3.6641,-3.5893,-3.4878,-3.3919,-3.3473,-3.3648,-3.3622,-3.3602,-3.3348,-3.3347,-3.3335,-3.3511,-3.3434,-3.3277,-3.3131,-3.3194,-3.3219,-3.3217,-3.2999,-3.3,-3.2887,-3.294,-3.2973,-3.2766,-3.2636,-3.2733,-3.2715,-3.2725,-3.2523,-3.2406,-3.2344,-3.2416,-3.2276,-3.204,-3.1882,-3.185,-3.1809,-3.1734,-3.1511,-3.1344,-3.1198,-3.1181,-3.1087,-3.0878,-3.0632,-3.0426,-3.0389,-3.0324,-3.008,-2.9773,-2.9548,-2.9572,-2.9455,-2.918,-2.9003,-2.8902,-2.8798,-2.8673,-2.8568,-2.8365,-2.827,-2.8341,-2.8518,-2.8656,-2.8713,-2.91,-2.9326,-2.9812,-3.0259,-3.0621,-3.1038,-3.152,-3.2071,-3.2651,-3.2861,-3.2921,-3.3162,-3.3478,-3.3724,-3.3687,-3.3676,-3.3745,-3.4031,-3.3975,-3.3899,-3.3796,-3.3835,-3.3891,-3.4018,-3.3836,-3.371,-3.3694,-3.3801,-3.4005,-3.383,-3.365,-3.364,-3.3691,-3.3878,-3.3825,-3.3558,-3.3578,-3.3719,-3.3818,-3.3743,-3.3651,-3.3513,-3.3654,-3.3811,-3.3785,-3.3682,-3.3571,-3.3711,-3.3813,-3.3931,-3.3796,-3.3687,-3.3757,-3.3921,-3.3959,-3.3893,-3.3754,-3.3887,-3.4037,-3.4083,-3.4056,-3.3794,-3.3787,-3.4051,-3.4144,-3.4049,-3.3907,-3.3927,-3.4056,-3.4204,-3.4155,-3.3919,-3.3978,-3.4063,-3.4115,-3.41,-3.391,-3.3898,-3.4128,-3.4213,-3.4202,-3.4172,-3.4083,-3.4029,-3.4131,-3.4085,-3.4051,-3.3995,-3.4151,-3.43,-3.4306,-3.414,-3.4177,-3.4039,-3.4252,-3.4328,-3.391,-3.3949,-3.3944,-3.4181,-3.4142,-3.413,-3.397,-3.3998,-3.4106,-3.4213,-3.4033,-3.3934,-3.3795,-3.4053,-3.4065,-3.4097,-3.3985,-3.3917,-3.4073,-3.4202,-3.4062,-3.3911,-3.3864,-3.3935,-3.3949,-3.3831,-3.3755,-3.3637,-3.3609,-3.3596,-3.3661,-3.3416,-3.3118,-3.3242,-3.3351,-3.3268,-3.308,-3.3077,-3.314,-3.3477,-3.3542,-3.3348,-3.3516,-3.3619,-3.4071,-3.4212,-3.4003,-3.3978,-3.4003,-3.409,-3.4138,-3.3897,-3.3937,-3.4018,-3.4062,-3.4164,-3.4181,-3.3889,-3.3315,-3.2041,-3.0511,-2.8824,-2.676,-2.5688,-2.3951,-2.4767,-2.8761,-3.4365,-3.8125,-3.716,-3.6134,-3.5417,-3.4115,-3.328,-3.3245,-3.3161,-3.3294,-3.3062,-3.3078,-3.3134,-3.3178,-3.3083,-3.3001,-3.2887,-3.2845,-3.3062,-3.3037,-3.2677,-3.2632,-3.2604,-3.2756,-3.2686,-3.2576,-3.2304,-3.2329,-3.2391,-3.2581,-3.2295,-3.2118,-3.2062,-3.2077,-3.197,-3.1781,-3.1662,-3.1619,-3.1571,-3.1579,-3.1396,-3.1141,-3.105,-3.1082,-3.1028,-3.0753,-3.0469,-3.0227,-3.0231,-3.0107,-2.9814,-2.9559,-2.9398,-2.9376,-2.9295,-2.9007,-2.8799,-2.8528,-2.8417,-2.8511,-2.8408,-2.8216,-2.7964,-2.8019,-2.8125,-2.8417,-2.8197,-2.8312,-2.875,-2.9286,-2.9726,-2.9942,-3.0438,-3.1091,-3.1635,-3.196,-3.2161,-3.2195,-3.2633,-3.2925,-3.3191,-3.3185,-3.3282,-3.3263,-3.3347,-3.3569,-3.3555,-3.3412,-3.3401,-3.3542,-3.3696,-3.3497,-3.3439,-3.3294,-3.3453,-3.3488,-3.3449,-3.3247,-3.3227,-3.3354,-3.3397,-3.3368,-3.3217,-3.3149,-3.3267,-3.3292,-3.3357,-3.3056,-3.3084,-3.3106,-3.3303,-3.333,-3.3233,-3.3135,-3.3333,-3.3403,-3.3324,-3.3234,-3.3242,-3.3301,-3.338,-3.3451,-3.3291,-3.321,-3.3285,-3.3362,-3.3545,-3.346,-3.3257,-3.336,-3.3491,-3.3467,-3.3483,-3.3301,-3.3403,-3.3496,-3.3561,-3.3553,-3.3326,-3.3361,-3.335,-3.355,-3.3526,-3.3398,-3.3315,-3.3425,-3.3493,-3.3491,-3.3324,-3.3182,-3.3465,-3.3667,-3.3588,-3.35,-3.3325,-3.3337,-3.3577,-3.3729,-3.3443,-3.3352,-3.3437,-3.3499,-3.3637,-3.344,-3.3386,-3.339,-3.3439,-3.3566,-3.3379,-3.3286,-3.3427,-3.3551,-3.3573,-3.3415,-3.3315,-3.334,-3.3347,-3.3498,-3.35,-3.345,-3.3275,-3.3375,-3.3528,-3.3496,-3.3295,-3.3288,-3.3448,-3.3544,-3.3482,-3.3201,-3.3218,-3.3384,-3.3569,-3.3428,-3.3322,-3.3271,-3.3231,-3.3285,-3.33,-3.3127,-3.2959,-3.2923,-3.2949,-3.2775,-3.2697,-3.2531,-3.2494,-3.2648,-3.2791,-3.2703,-3.2641,-3.274,-3.2935,-3.3185,-3.3215,-3.3377,-3.3344,-3.3439,-3.3512,-3.3648,-3.3525,-3.3489,-3.3441,-3.3699,-3.355,-3.3453,-3.3396,-3.3495,-3.3615,-3.3448,-3.227,-3.073,-2.9257,-2.7649,-2.6467,-2.3888,-2.2367,-2.5233,-3.0405,-3.6255,-3.6926,-3.5725,-3.5111,-3.392,-3.3175,-3.2649,-3.2431,-3.2635,-3.277,-3.262,-3.2655,-3.2444,-3.2538,-3.2509,-3.2627,-3.2381,-3.2258,-3.2079,-3.2312,-3.2298,-3.222,-3.1965,-3.1965,-3.197,-3.2143,-3.1841,-3.169,-3.1635,-3.168,-3.1612,-3.1651,-3.1366,-3.122,-3.1286,-3.1303,-3.1109,-3.0811,-3.0746,-3.0774,-3.069,-3.062,-3.0316,-3.0155,-3.004,-2.9955,-2.9771,-2.9474,-2.9263,-2.9229,-2.9146,-2.8855,-2.8607,-2.8319,-2.8181,-2.8114,-2.8102,-2.7896,-2.7596,-2.7403,-2.7417,-2.7595,-2.7396,-2.7151,-2.7187,-2.7337,-2.7652,-2.7675,-2.7958,-2.8482,-2.9102,-2.9608,-3.0041,-3.0256,-3.0545,-3.103,-3.1484,-3.1803,-3.1943,-3.2068,-3.2348,-3.2569,-3.2673,-3.2585,-3.2585,-3.266,-3.2964,-3.2939,-3.284,-3.2721,-3.2846,-3.2939,-3.3022,-3.2826,-3.276,-3.2716,-3.2851,-3.2895,-3.2766,-3.273,-3.2729,-3.2823,-3.2921,-3.2711,-3.2539,-3.262,-3.2771,-3.2814,-3.2763,-3.2634,-3.2561,-3.277,-3.2869,-3.2777,-3.2727,-3.2707,-3.2694,-3.2963,-3.2926,-3.2719,-3.2786,-3.284,-3.3005,-3.2995,-3.2886,-3.29,-3.2981,-3.3167,-3.3086,-3.2946,-3.2952,-3.2969,-3.3252,-3.3084,-3.307,-3.2912,-3.3011,-3.3136,-3.3199,-3.3183,-3.3005,-3.3069,-3.3198,-3.3243,-3.313,-3.2977,-3.2997,-3.3313,-3.3226,-3.3167,-3.3057,-3.3068,-3.3172,-3.3315,-3.3188,-3.3051,-3.3059,-3.3213,-3.3304,-3.3312,-3.3111,-3.3133,-3.3202,-3.3408,-3.3325,-3.3165,-3.3123,-3.3215,-3.3452,-3.3276,-3.3139,-3.3147,-3.3283,-3.3432,-3.3459,-3.3273,-3.3145,-3.3121,-3.3241,-3.3428,-3.3244,-3.314,-3.3134,-3.3387,-3.3487,-3.3245,-3.3167,-3.3227,-3.3226,-3.338,-3.3199,-3.3028,-3.3058,-3.3167,-3.3138,-3.2956,-3.2827,-3.2603,-3.2633,-3.2781,-3.2625,-3.2586,-3.2473,-3.2679,-3.2804,-3.2842,-3.2698,-3.2766,-3.3056,-3.3378,-3.3381,-3.3325,-3.3374,-3.3413,-3.3523,-3.3564,-3.3416,-3.3314,-3.3385,-3.3533,-3.3546,-3.3498,-3.3409,-3.3246,-3.2488,-3.1008,-2.9381,-2.7674,-2.5649,-2.3974,-2.4284,-2.7634,-3.3739,-3.6899,-3.7953,-3.6633,-3.5302,-3.4294,-3.3127,-3.2742,-3.2612,-3.2507,-3.2379,-3.2404,-3.238,-3.2673,-3.2422,-3.237,-3.2229,-3.2305,-3.2195,-3.2158,-3.2025,-3.2111,-3.1983,-3.2225,-3.2075,-3.1842,-3.17,-3.1781,-3.1747,-3.1864,-3.1554,-3.1467,-3.1451,-3.1564,-3.1402,-3.1089,-3.0977,-3.1034,-3.1056,-3.0934,-3.0662,-3.0579,-3.0324,-3.038,-3.0406,-3.0148,-2.9895,-2.9796,-2.9671,-2.9521,-2.9484,-2.9023,-2.8973,-2.8868,-2.8671,-2.8438,-2.8217,-2.8042,-2.8051,-2.8106,-2.7733,-2.7555,-2.7647,-2.7549,-2.7712,-2.7572,-2.758,-2.7603,-2.7906,-2.8338,-2.8671,-2.8984,-2.9429,-3.0032,-3.0664,-3.1029,-3.1253,-3.149,-3.1939,-3.2213,-3.2434,-3.2505,-3.2563,-3.2581,-3.2903,-3.29,-3.2885,-3.2825,-3.2807,-3.2805,-3.3073,-3.2884,-3.2872,-3.2869,-3.3,-3.2913,-3.2783,-3.2694,-3.2707,-3.2897,-3.2967,-3.2832,-3.2718,-3.2554,-3.2709,-3.2795,-3.2934,-3.276,-3.27,-3.2805,-3.2921,-3.2857,-3.2726,-3.2646,-3.2837,-3.2981,-3.2866,-3.2887,-3.289,-3.2986,-3.305,-3.308,-3.297,-3.2976,-3.2992,-3.3074,-3.3108,-3.3105,-3.3038,-3.3052,-3.3283,-3.3283,-3.3101,-3.3006,-3.3157,-3.3209,-3.3129,-3.3166,-3.317,-3.3115,-3.3147,-3.3379,-3.3265,-3.3072,-3.3132,-3.3281,-3.3343,-3.3323,-3.305,-3.3075,-3.3231,-3.3559,-3.3364,-3.3164,-3.3176,-3.3334,-3.3398,-3.3225,-3.3189,-3.3132,-3.3164,-3.3381,-3.3451,-3.3293,-3.3153,-3.325,-3.3358,-3.3422,-3.3221,-3.3078,-3.3121,-3.3313,-3.3264,-3.3011,-3.2851,-3.2923,-3.2951,-3.2899,-3.2502,-3.2469,-3.2515,-3.2524,-3.2657,-3.2633,-3.2433,-3.2504,-3.2656,-3.2958,-3.2786,-3.2891,-3.3001,-3.3224,-3.3528,-3.3347,-3.3246,-3.3257,-3.3362,-3.3483,-3.3273,-3.3186,-3.3212,-3.3373,-3.3433,-3.3412,-3.3137,-3.2586,-3.1447,-3.0122,-2.8601,-2.6597,-2.4601,-2.3707,-2.6162,-3.0801,-3.6754,-3.7441,-3.5844,-3.5245,-3.4161,-3.3763,-3.2806,-3.2416,-3.2452,-3.2589,-3.2373,-3.2274,-3.2234,-3.2449,-3.2477,-3.2364,-3.2116,-3.2013,-3.2094,-3.2193,-3.2023,-3.1897,-3.1787,-3.1913,-3.1938,-3.1995,-3.1631,-3.1568,-3.1536,-3.1564,-3.1469,-3.1312,-3.1219,-3.1208,-3.1278,-3.1158,-3.0871,-3.0654,-3.0664,-3.0664,-3.0447,-3.0282,-3.0129,-3.0071,-3.0044,-2.9893,-2.965,-2.9347,-2.9243,-2.9175,-2.9155,-2.8695,-2.8464,-2.8334,-2.8287,-2.814,-2.7971,-2.7714,-2.761,-2.755,-2.7661,-2.7429,-2.7243,-2.7129,-2.7382,-2.746,-2.7642,-2.7661,-2.8187,-2.8639,-2.9185,-2.9604,-3.0008,-3.0459,-3.098,-3.1478,-3.1657,-3.1925,-3.2018,-3.2262,-3.2583,-3.2657,-3.2652,-3.274,-3.2769,-3.2887,-3.2952,-3.2711,-3.2635,-3.2796,-3.2876,-3.2867,-3.2725,-3.2577,-3.2716,-3.2804,-3.2834,-3.2671,-3.2534,-3.2551,-3.2724,-3.2768,-3.259,-3.242,-3.2459,-3.2602,-3.2652,-3.2684,-3.2502,-3.2456,-3.2609,-3.2724,-3.2726,-3.2521,-3.261,-3.2673,-3.2784,-3.2714,-3.2629,-3.2637,-3.2788,-3.2915,-3.287,-3.2698,-3.2718,-3.2859,-3.2986,-3.2987,-3.2766,-3.2809,-3.2944,-3.305,-3.3068,-3.2915,-3.2918,-3.2942,-3.3069,-3.311,-3.2875,-3.2798,-3.2862,-3.3078,-3.3004,-3.2913,-3.2848,-3.2931,-3.305,-3.3109,-3.2977,-3.2858,-3.2801,-3.3026,-3.3125,-3.3132,-3.2932,-3.2895,-3.2986,-3.313,-3.2981,-3.2932,-3.2925,-3.2976,-3.3141,-3.298,-3.2808,-3.2815,-3.3037,-3.3142,-3.3072,-3.2834,-3.2776,-3.2905,-3.3085,-3.3132,-3.2921,-3.2788,-3.2829,-3.302,-3.2901,-3.2541,-3.2414,-3.2525,-3.238,-3.2365,-3.2324,-3.2087,-3.2048,-3.2267,-3.2447,-3.2366,-3.2287,-3.2344,-3.2398,-3.2766,-3.2947,-3.2842,-3.285,-3.3084,-3.3169,-3.3116,-3.3041,-3.3026,-3.3181,-3.3233,-3.315,-3.3142,-3.2996,-3.3085,-3.3206,-3.249,-3.0881,-2.941,-2.7976,-2.609,-2.3801,-2.2651,-2.5296,-3.0371,-3.6446,-3.7191,-3.5512,-3.4737,-3.3736,-3.3224,-3.2417,-3.2271,-3.2088,-3.2162,-3.2227,-3.2262,-3.2032,-3.2028,-3.1962,-3.1952,-3.195,-3.1902,-3.1766,-3.1795,-3.1859,-3.1847,-3.1598,-3.1399,-3.1337,-3.143,-3.1579,-3.1385,-3.114,-3.1064,-3.1168,-3.1203,-3.0957,-3.075,-3.0667,-3.0633,-3.0665,-3.0611,-3.028,-3.0145,-3.0115,-3.0171,-3.0036,-2.9714,-2.9436,-2.9416,-2.9438,-2.9297,-2.9028,-2.8771,-2.8652,-2.8513,-2.8375,-2.7955,-2.7721,-2.7604,-2.759,-2.7495,-2.7201,-2.7042,-2.7,-2.7021,-2.688,-2.6733,-2.6786,-2.6816,-2.702,-2.7426,-2.7746,-2.8037,-2.8476,-2.896,-2.9623,-3.0055,-3.036,-3.069,-3.1208,-3.1498,-3.1692,-3.1677,-3.1891,-3.2294,-3.237,-3.2371,-3.2277,-3.2324,-3.2389,-3.2549,-3.249,-3.2348,-3.2358,-3.2368,-3.2444,-3.244,-3.2219,-3.2129,-3.2267,-3.2355,-3.2396,-3.2174,-3.2109,-3.2087,-3.2269,-3.2192,-3.2008,-3.1747,-3.1831,-3.2043,-3.2154,-3.197,-3.1744,-3.1852,-3.1815,-3.2016,-3.2031,-3.1839,-3.1781,-3.1951,-3.2102,-3.2029,-3.1959,-3.2089,-3.2164,-3.2302,-3.2272,-3.2183,-3.226,-3.233,-3.2454,-3.2522,-3.2419,-3.2413,-3.2438,-3.2656,-3.2562,-3.2417,-3.2359,-3.2471,-3.2571,-3.2607,-3.2453,-3.2458,-3.2534,-3.2521,-3.2547,-3.2559,-3.249,-3.2428,-3.2599,-3.2603,-3.2665,-3.2504,-3.2497,-3.2684,-3.2726,-3.2576,-3.2488,-3.2584,-3.2681,-3.2687,-3.2628,-3.2518,-3.2543,-3.265,-3.2707,-3.2685,-3.245,-3.2482,-3.2597,-3.2654,-3.2596,-3.2463,-3.2417,-3.2457,-3.2671,-3.2537,-3.241,-3.2441,-3.2506,-3.2614,-3.2606,-3.2416,-3.2424,-3.2427,-3.2449,-3.2442,-3.2332,-3.2098,-3.2032,-3.2143,-3.1858,-3.1756,-3.1692,-3.1652,-3.1791,-3.1952,-3.184,-3.1748,-3.1951,-3.2045,-3.2118,-3.2241,-3.2394,-3.2448,-3.2549,-3.2714,-3.2707,-3.2538,-3.2513,-3.2575,-3.2744,-3.2702,-3.2491,-3.2558,-3.2757,-3.2627,-3.2438,-3.1344,-2.9843,-2.8279,-2.6748,-2.4435,-2.206,-2.1689,-2.4549,-2.9584,-3.544,-3.633,-3.4946,-3.4305,-3.3119,-3.2218,-3.1739,-3.1563,-3.1482,-3.1917,-3.1746,-3.1708,-3.155,-3.1489,-3.1579,-3.1646,-3.1377,-3.1375,-3.1314,-3.1346,-3.1366,-3.1311,-3.1021,-3.111,-3.1079,-3.1222,-3.0947,-3.0854,-3.0685,-3.093,-3.0923,-3.0655,-3.0367,-3.0322,-3.0389,-3.0411,-3.0157,-3.0031,-2.9916,-2.9822,-2.9879,-2.9771,-2.9492,-2.9286,-2.9213,-2.9167,-2.8975,-2.8685,-2.8478,-2.8339,-2.8331,-2.8186,-2.773,-2.7565,-2.7402,-2.7401,-2.7222,-2.7061,-2.6887,-2.6834,-2.688,-2.68,-2.6523,-2.6401,-2.6516,-2.6657,-2.7033,-2.7122,-2.74,-2.7822,-2.8396,-2.9012,-2.9242,-2.9407,-2.9919,-3.0317,-3.0794,-3.0907,-3.0946,-3.0982,-3.1247,-3.1477,-3.1661,-3.1464,-3.1464,-3.1698,-3.185,-3.1747,-3.1706,-3.1596,-3.1717,-3.1901,-3.182,-3.1722,-3.1805,-3.1764,-3.1856,-3.1919,-3.1843,-3.1711,-3.1737,-3.1871,-3.1939,-3.184,-3.1767,-3.1827,-3.1851,-3.1929,-3.1931,-3.1866,-3.1807,-3.1961,-3.2008,-3.18,-3.1704,-3.1839,-3.1961,-3.2053,-3.2072,-3.1979,-3.1874,-3.1986,-3.2164,-3.2167,-3.2009,-3.2021,-3.2195,-3.2264,-3.2245,-3.2108,-3.2127,-3.2181,-3.2367,-3.2286,-3.2244,-3.2211,-3.2262,-3.2388,-3.2477,-3.245,-3.2251,-3.2227,-3.2389,-3.2437,-3.2338,-3.2251,-3.2274,-3.2469,-3.248,-3.2369,-3.231,-3.225,-3.2533,-3.2487,-3.2322,-3.2293,-3.227,-3.2446,-3.2478,-3.2452,-3.2344,-3.2324,-3.2365,-3.2602,-3.2515,-3.2357,-3.2373,-3.2376,-3.253,-3.2544,-3.2365,-3.2287,-3.2418,-3.2518,-3.2403,-3.2241,-3.2243,-3.232,-3.2417,-3.2425,-3.2294,-3.2266,-3.2339,-3.2407,-3.2375,-3.2174,-3.2042,-3.2181,-3.2202,-3.2157,-3.1929,-3.1787,-3.1615,-3.1652,-3.1783,-3.1487,-3.1392,-3.1445,-3.1587,-3.1838,-3.1778,-3.1612,-3.168,-3.2031,-3.233,-3.2302,-3.2284,-3.2347,-3.2466,-3.2519,-3.2362,-3.2261,-3.2311,-3.2374,-3.2449,-3.2476,-3.2366,-3.2314,-3.2325,-3.2256,-3.1424,-2.9868,-2.8117,-2.6506,-2.4396,-2.2055,-2.2383,-2.6663,-3.2923,-3.6584,-3.5725,-3.4407,-3.3544,-3.2181,-3.1774,-3.1709,-3.139,-3.1454,-3.1396,-3.1415,-3.1541,-3.1435,-3.1265,-3.1294,-3.142,-3.1407,-3.1302,-3.1132,-3.1148,-3.1136,-3.125,-3.0953,-3.0841,-3.0906,-3.0944,-3.1002,-3.085,-3.0599,-3.056,-3.0554,-3.0564,-3.0512,-3.0229,-3.0192,-3.0154,-3.0027,-2.9951,-2.9697,-2.951,-2.9438,-2.9587,-2.9362,-2.8959,-2.8817,-2.8697,-2.8713,-2.8546,-2.8291,-2.7913,-2.7882,-2.7851,-2.7736,-2.7393,-2.7162,-2.7068,-2.704,-2.6981,-2.68,-2.6539,-2.6511,-2.6502,-2.6497,-2.6349,-2.626,-2.6565,-2.6741,-2.7085,-2.7327,-2.7753,-2.8289,-2.8813,-2.9347,-2.975,-3.0038,-3.0346,-3.0734,-3.1145,-3.1377,-3.1172,-3.1553,-3.1862,-3.1908,-3.175,-3.1693,-3.1712,-3.1717,-3.1908,-3.1984,-3.1827,-3.1647,-3.1735,-3.1905,-3.1923,-3.1723,-3.1642,-3.1693,-3.1763,-3.1867,-3.1729,-3.1624,-3.1671,-3.1756,-3.1851,-3.1781,-3.1759,-3.1663,-3.1854,-3.1876,-3.185,-3.1729,-3.1726,-3.1825,-3.2038,-3.1926,-3.1758,-3.1811,-3.189,-3.2081,-3.193,-3.2007,-3.201,-3.2023,-3.2161,-3.2069,-3.2058,-3.1977,-3.2003,-3.2133,-3.2033,-3.2094,-3.2064,-3.2057,-3.2324,-3.227,-3.2147,-3.2141,-3.2143,-3.2357,-3.2427,-3.2176,-3.2164,-3.2224,-3.2398,-3.2405,-3.2337,-3.2195,-3.2316,-3.2404,-3.2476,-3.2346,-3.2288,-3.2366,-3.2408,-3.2511,-3.2351,-3.219,-3.2284,-3.2478,-3.2499,-3.2376,-3.2226,-3.2282,-3.2406,-3.2539,-3.2464,-3.2281,-3.2303,-3.2434,-3.2512,-3.258,-3.2374,-3.2375,-3.2385,-3.2562,-3.2614,-3.2487,-3.2461,-3.2516,-3.2659,-3.2669,-3.2509,-3.2491,-3.2538,-3.2642,-3.2617,-3.2593,-3.2409,-3.2365,-3.2449,-3.2435,-3.2115,-3.1871,-3.1967,-3.2013,-3.2095,-3.1887,-3.1807,-3.1993,-3.2187,-3.235,-3.2234,-3.2401,-3.2619,-3.2996,-3.3073,-3.2941,-3.2827,-3.282,-3.3013,-3.3069,-3.3029,-3.286,-3.2867,-3.2967,-3.3121,-3.3036,-3.2896,-3.2426,-3.1253,-2.9866,-2.8418,-2.6341,-2.4312,-2.3525,-2.3918,-2.7545,-3.3662,-3.7898,-3.7147,-3.5422,-3.4584,-3.3409,-3.2489,-3.2065,-3.2335,-3.2223,-3.221,-3.1999,-3.2089,-3.2228,-3.2189,-3.2026,-3.1963,-3.1918,-3.2008,-3.2144,-3.1859,-3.1738,-3.1826,-3.1799,-3.1943,-3.1762,-3.1611,-3.1456,-3.1572,-3.1602,-3.1457,-3.1279,-3.1248,-3.1253,-3.1188,-3.0996,-3.0765,-3.0657,-3.0731,-3.0766,-3.0691,-3.0332,-3.0282,-3.0172,-3.0138,-3.0006,-2.9728,-2.95,-2.9468,-2.9454,-2.9401,-2.8973
