-10.528,-10.521,-10.512,-10.515,-10.529,-10.536,-10.539,-10.528,-10.524,-10.505,-10.476,-10.488,-10.497,-10.534,-10.539,-10.548,-10.534,-10.52,-10.5,-10.492,-10.514,-10.519,-10.51,-10.513,-10.513,-10.515,-10.54,-10.536,-10.544,-10.557,-10.557,-10.545,-10.531,-10.559,-10.565,-10.547,-10.549,-10.533,-10.543,-10.573,-10.587,-10.568,-10.567,-10.581,-10.585,-10.607,-10.591,-10.605,-10.605,-10.603,-10.596,-10.563,-10.563,-10.568,-10.575,-10.588,-10.587,-10.599,-10.593,-10.607,-10.591,-10.59,-10.599,-10.599,-10.598,-10.595,-10.594,-10.561,-10.566,-10.6,-10.603,-10.58,-10.585,-10.586,-10.596,-10.589,-10.594,-10.602,-10.604,-10.604,-10.614,-10.582,-10.571,-10.575,-10.591,-10.612,-10.601,-10.576,-10.566,-10.592,-10.613,-10.572,-10.544,-10.568,-10.567,-10.566,-10.577,-10.567,-10.501,-10.477,-10.434,-10.439,-10.482,-10.502,-10.509,-10.517,-10.537,-10.537,-10.547,-10.557,-10.562,-10.602,-10.614,-10.597,-10.589,-10.595,-10.579,-10.562,-10.59,-10.603,-10.593,-10.593,-10.615,-10.599,-10.463,-10.269,-10.084,-9.9125,-9.7303,-9.5639,-9.6173,-10.182,-10.909,-11.381,-11.298,-11.014,-10.827,-10.716,-10.611,-10.542,-10.519,-10.504,-10.528,-10.516,-10.505,-10.482,-10.474,-10.462,-10.452,-10.445,-10.429,-10.415,-10.419,-10.45,-10.46,-10.426,-10.405,-10.375,-10.403,-10.392,-10.375,-10.388,-10.364,-10.366,-10.341,-10.313,-10.303,-10.306,-10.311,-10.293,-10.265,-10.237,-10.236,-10.228,-10.219,-10.177,-10.163,-10.152,-10.135,-10.125,-10.105,-10.078,-10.072,-10.037,-10.031,-10.032,-10.019,-9.9818,-9.97,-9.9614,-9.9594,-9.9902,-9.9901,-9.9847,-9.9828,-10.002,-10.041,-10.085,-10.122,-10.173,-10.23,-10.248,-10.286,-10.332,-10.389,-10.404,-10.424,-10.422,-10.455,-10.499,-10.494,-10.52,-10.537,-10.544,-10.552,-10.537,-10.546,-10.511,-10.512,-10.505,-10.508,-10.53,-10.531,-10.524,-10.518,-10.47,-10.48,-10.486,-10.503,-10.501,-10.498,-10.503,-10.485,-10.501,-10.502,-10.51,-10.499,-10.491,-10.47,-10.491,-10.525,-10.521,-10.527,-10.517,-10.509,-10.519,-10.48,-10.497,-10.526,-10.549,-10.555,-10.557,-10.541,-10.528,-10.503,-10.539,-10.544,-10.557,-10.546,-10.547,-10.544,-10.555,-10.548,-10.558,-10.548,-10.547,-10.556,-10.558,-10.539,-10.542,-10.544,-10.549,-10.55,-10.553,-10.545,-10.515,-10.5,-10.495,-10.512,-10.504,-10.529,-10.52,-10.479,-10.448,-10.396,-10.409,-10.463,-10.461,-10.473,-10.49,-10.501,-10.508,-10.509,-10.512,-10.521,-10.533,-10.561,-10.561,-10.579,-10.559,-10.57,-10.568,-10.56,-10.572,-10.572,-10.569,-10.559,-10.532,-10.474,-10.332,-10.141,-9.9486,-9.7616,-9.6863,-9.5589,-9.6924,-10.229,-10.948,-11.332,-11.108,-10.879,-10.755,-10.627,-10.532,-10.467,-10.486,-10.469,-10.441,-10.417,-10.443,-10.466,-10.457,-10.449,-10.442,-10.403,-10.393,-10.405,-10.414,-10.378,-10.342,-10.341,-10.365,-10.38,-10.364,-10.36,-10.34,-10.301,-10.271,-10.291,-10.284,-10.26,-10.241,-10.247,-10.247,-10.247,-10.219,-10.202,-10.18,-10.158,-10.129,-10.089,-10.083,-10.1,-10.071,-10.038,-10.001,-9.9961,-9.978,-9.9788,-9.9873,-9.9621,-9.9198,-9.9057,-9.9135,-9.9174,-9.9416,-9.9301,-9.9381,-9.9418,-9.96,-10.007,-10.046,-10.11,-10.136,-10.213,-10.268,-10.292,-10.319,-10.37,-10.419,-10.419,-10.425,-10.472,-10.495,-10.504,-10.497,-10.5,-10.496,-10.498,-10.532,-10.524,-10.51,-10.505,-10.495,-10.5,-10.483,-10.484,-10.489,-10.498,-10.494,-10.474,-10.467,-10.461,-10.466,-10.475,-10.475,-10.464,-10.465,-10.462,-10.495,-10.486,-10.495,-10.477,-10.474,-10.491,-10.497,-10.483,-10.486,-10.495,-10.501,-10.497,-10.507,-10.512,-10.505,-10.51,-10.522,-10.524,-10.52,-10.505,-10.507,-10.537,-10.536,-10.543,-10.528,-10.531,-10.535,-10.528,-10.531,-10.525,-10.539,-10.554,-10.539,-10.516,-10.516,-10.525,-10.515,-10.479,-10.485,-10.491,-10.501,-10.521,-10.497,-10.443,-10.398,-10.369,-10.404,-10.446,-10.449,-10.475,-10.483,-10.48,-10.479,-10.482,-10.469,-10.506,-10.533,-10.551,-10.561,-10.559,-10.564,-10.539,-10.537,-10.542,-10.551,-10.551,-10.546,-10.552,-10.547,-10.486,-10.322,-10.129,-9.9347,-9.8391,-9.6269,-9.4658,-9.6026,-10.194,-10.943,-11.31,-11.085,-10.853,-10.751,-10.591,-10.494,-10.475,-10.472,-10.45,-10.478,-10.436,-10.437,-10.437,-10.432,-10.418,-10.43,-10.409,-10.413,-10.402,-10.419,-10.408,-10.407,-10.365,-10.377,-10.375,-10.38,-10.347,-10.341,-10.341,-10.322,-10.328,-10.312,-10.268,-10.276,-10.273,-10.256,-10.258,-10.247,-10.235,-10.213,-10.186,-10.16,-10.126,-10.105,-10.083,-10.064,-10.03,-10.017,-10.018,-9.9953,-9.9806,-9.9632,-9.9546,-9.9459,-9.9455,-9.9141,-9.923,-9.9251,-9.9221,-9.9211,-9.9365,-9.9777,-10.033,-10.074,-10.108,-10.159,-10.214,-10.239,-10.267,-10.342,-10.391,-10.415,-10.422,-10.441,-10.455,-10.482,-10.501,-10.509,-10.503,-10.487,-10.529,-10.525,-10.531,-10.508,-10.499,-10.487,-10.484,-10.493,-10.51,-10.509,-10.51,-10.507,-10.498,-10.458,-10.459,-10.476,-10.496,-10.483,-10.474,-10.467,-10.477,-10.495,-10.505,-10.5,-10.483,-10.468,-10.48,-10.503,-10.513,-10.514,-10.507,-10.505,-10.501,-10.501,-10.505,-10.504,-10.522,-10.544,-10.551,-10.544,-10.528,-10.532,-10.537,-10.535,-10.541,-10.552,-10.541,-10.528,-10.546,-10.514,-10.544,-10.569,-10.572,-10.558,-10.553,-10.541,-10.548,-10.573,-10.561,-10.541,-10.553,-10.575,-10.581,-10.563,-10.523,-10.499,-10.489,-10.501,-10.524,-10.523,-10.504,-10.478,-10.478,-10.469,-10.459,-10.445,-10.445,-10.474,-10.491,-10.508,-10.491,-10.515,-10.522,-10.543,-10.589,-10.576,-10.564,-10.568,-10.571,-10.566,-10.536,-10.566,-10.6,-10.629,-10.613,-10.598,-10.571,-10.561,-10.476,-10.283,-10.064,-9.8794,-9.6461,-9.4702,-9.5225,-10.137,-10.829,-11.292,-11.118,-10.918,-10.806,-10.602,-10.521,-10.503,-10.502,-10.481,-10.486,-10.462,-10.468,-10.473,-10.48,-10.435,-10.448,-10.435,-10.48,-10.457,-10.445,-10.424,-10.397,-10.361,-10.379,-10.393,-10.421,-10.419,-10.403,-10.357,-10.314,-10.324,-10.352,-10.355,-10.332,-10.297,-10.289,-10.276,-10.252,-10.227,-10.174,-10.172,-10.189,-10.185,-10.137,-10.088,-10.079,-10.081,-10.085,-10.06,-10.029,-10.006,-9.9844,-9.9763,-9.9587,-9.9426,-9.9318,-9.9378,-9.9611,-9.9543,-9.9648,-9.9499,-9.9492,-9.9793,-10.017,-10.082,-10.128,-10.194,-10.246,-10.278,-10.321,-10.343,-10.39,-10.428,-10.46,-10.467,-10.452,-10.47,-10.511,-10.552,-10.547,-10.513,-10.522,-10.511,-10.512,-10.509,-10.501,-10.502,-10.515,-10.485,-10.465,-10.512,-10.526,-10.506,-10.492,-10.501,-10.493,-10.504,-10.492,-10.488,-10.499,-10.49,-10.513,-10.502,-10.484,-10.473,-10.482,-10.487,-10.516,-10.544,-10.525,-10.513,-10.515,-10.512,-10.521,-10.552,-10.545,-10.531,-10.514,-10.518,-10.53,-10.526,-10.53,-10.551,-10.548,-10.537,-10.539,-10.547,-10.544,-10.555,-10.534,-10.545,-10.555,-10.545,-10.553,-10.556,-10.553,-10.54,-10.528,-10.531,-10.543,-10.552,-10.574,-10.565,-10.534,-10.536,-10.542,-10.543,-10.554,-10.564,-10.565,-10.565,-10.548,-10.543,-10.544,-10.564,-10.569,-10.572,-10.543,-10.506,-10.507,-10.509,-10.501,-10.525,-10.489,-10.448,-10.413,-10.418,-10.473,-10.457,-10.461,-10.489,-10.496,-10.517,-10.53,-10.543,-10.564,-10.583,-10.59,-10.563,-10.567,-10.58,-10.578,-10.568,-10.581,-10.609,-10.619,-10.62,-10.605,-10.574,-10.58,-10.524,-10.349,-10.133,-9.924,-9.7141,-9.4914,-9.407,-9.9267,-10.609,-11.226,-11.161,-10.938,-10.86,-10.65,-10.539,-10.479,-10.487,-10.475,-10.49,-10.453,-10.453,-10.439,-10.442,-10.406,-10.43,-10.435,-10.441,-10.41,-10.416,-10.391,-10.402,-10.421,-10.42,-10.393,-10.369,-10.339,-10.33,-10.319,-10.314,-10.311,-10.331,-10.315,-10.284,-10.258,-10.277,-10.269,-10.253,-10.241,-10.217,-10.17,-10.135,-10.127,-10.13,-10.126,-10.094,-10.054,-10.033,-10.001,-9.9653,-9.9599,-9.9828,-10.025,-10.002,-9.9584,-9.9307,-9.9118,-9.93,-9.9446,-9.9328,-9.9355,-9.8826,-9.9167,-10.011,-10.079,-10.088,-10.147,-10.186,-10.248,-10.307,-10.306,-10.328,-10.389,-10.417,-10.416,-10.428,-10.452,-10.49,-10.496,-10.517,-10.519,-10.504,-10.485,-10.48,-10.49,-10.529,-10.523,-10.523,-10.494,-10.48,-10.501,-10.496,-10.486,-10.488,-10.477,-10.491,-10.495,-10.498,-10.493,-10.47,-10.49,-10.508,-10.531,-10.529,-10.532,-10.534,-10.531,-10.527,-10.514,-10.508,-10.529,-10.54,-10.558,-10.562,-10.553,-10.547,-10.526,-10.53,-10.56,-10.577,-10.596,-10.595,-10.563,-10.566,-10.586,-10.588,-10.59,-10.573,-10.598,-10.604,-10.6,-10.584,-10.571,-10.574,-10.565,-10.578,-10.616,-10.615,-10.607,-10.603,-10.624,-10.611,-10.617,-10.63,-10.654,-10.633,-10.633,-10.629,-10.598,-10.58,-10.629,-10.65,-10.681,-10.697,-10.692,-10.704,-10.665,-10.586,-10.572,-10.645,-10.74,-10.74,-10.705,-10.728,-10.716,-10.758,-10.752,-10.684,-10.686,-10.708,-10.79,-10.788,-10.629,-10.652,-10.759,-10.698,-10.684,-10.661,-10.642,-10.619,-10.598,-10.674,-10.71,-10.702,-10.711,-10.701,-10.702,-10.714,-10.7,-10.711,-10.719,-10.698,-10.697,-10.717,-10.713,-10.726,-10.707,-10.708,-10.685,-10.657,-10.675,-10.667,-10.502,-10.268,-10.049,-9.8507,-9.7329,-9.5081,-9.4837,-10.065,-10.757,-11.346,-11.225,-10.982,-10.875,-10.691,-10.594,-10.576,-10.593,-10.6,-10.618,-10.601,-10.627,-10.612,-10.638,-10.612,-10.619,-10.609,-10.614,-10.614,-10.605,-10.588,-10.574,-10.569,-10.539,-10.493,-10.506,-10.514,-10.526,-10.511,-10.513,-10.505,-10.496,-10.49,-10.472,-10.422,-10.409,-10.419,-10.434,-10.398,-10.359,-10.325,-10.326,-10.328,-10.315,-10.282,-10.233,-10.21,-10.173,-10.162,-10.186,-10.204,-10.183,-10.147,-10.112,-10.137,-10.137,-10.126,-10.098,-10.096,-10.113,-10.085,-10.092,-10.12,-10.175,-10.245,-10.268,-10.335,-10.342,-10.392,-10.426,-10.488,-10.543,-10.564,-10.583,-10.583,-10.585,-10.614,-10.612,-10.616,-10.641,-10.658,-10.652,-10.648,-10.653,-10.675,-10.652,-10.617,-10.616,-10.633,-10.642,-10.63,-10.587,-10.566,-10.597,-10.647,-10.645,-10.644,-10.611,-10.594,-10.63,-10.657,-10.646,-10.643,-10.624,-10.638,-10.636,-10.618,-10.634,-10.633,-10.641,-10.637,-10.644,-10.646,-10.645,-10.656,-10.662,-10.633,-10.645,-10.663,-10.687,-10.655,-10.62,-10.639,-10.688,-10.715,-10.719,-10.696,-10.662,-10.649,-10.649,-10.663,-10.665,-10.687,-10.677,-10.666,-10.668,-10.666,-10.676,-10.653,-10.673,-10.691,-10.684,-10.669,-10.672,-10.666,-10.67,-10.643,-10.652,-10.658,-10.666,-10.66,-10.601,-10.6,-10.636,-10.653,-10.67,-10.664,-10.657,-10.636,-10.603,-10.576,-10.548,-10.569,-10.572,-10.59,-10.62,-10.631,-10.622,-10.623,-10.633,-10.651,-10.655,-10.662,-10.671,-10.686,-10.737,-10.752,-10.733,-10.719,-10.701,-10.686,-10.695,-10.725,-10.695,-10.698,-10.665,-10.536,-10.334,-10.108,-9.9586,-9.7901,-9.7081,-10.034,-10.595,-11.016,-11.48,-11.323,-11.068,-10.918,-10.76,-10.683,-10.645,-10.667,-10.602,-10.614,-10.606,-10.644,-10.61,-10.58,-10.595,-10.628,-10.595,-10.577,-10.521,-10.528,-10.536,-10.559,-10.58,-10.572,-10.517,-10.518,-10.517,-10.521,-10.497,-10.476,-10.46,-10.463,-10.451,-10.433,-10.405,-10.396,-10.421,-10.415,-10.376,-10.341,-10.331,-10.341,-10.337,-10.311,-10.273,-10.22,-10.215,-10.21,-10.21,-10.204,-10.186,-10.182,-10.206,-10.159,-10.103,-10.093,-10.143,-10.189,-10.213,-10.191,-10.136,-10.166,-10.227,-10.252,-10.299,-10.336,-10.39,-10.443,-10.474,-10.474,-10.516,-10.57,-10.615,-10.659,-10.691,-10.695,-10.719,-10.724,-10.724,-10.721,-10.711,-10.687,-10.688,-10.669,-10.665,-10.662,-10.706,-10.708,-10.677,-10.643,-10.678,-10.703,-10.71,-10.706,-10.673,-10.65,-10.656,-10.663,-10.673,-10.68,-10.641,-10.639,-10.653,-10.663,-10.681,-10.671,-10.663,-10.683,-10.687,-10.654,-10.665,-10.628,-10.634,-10.705,-10.685,-10.643,-10.64,-10.705,-10.717,-10.722,-10.7,-10.656,-10.64,-10.624,-10.665,-10.686,-10.649,-10.634,-10.661,-10.683,-10.685,-10.676,-10.653,-10.634,-10.626,-10.621,-10.64,-10.639,-10.689,-10.707,-10.695,-10.657,-10.633,-10.627,-10.634,-10.669,-10.641,-10.592,-10.552,-10.554,-10.58,-10.599,-10.585,-10.616,-10.629,-10.664,-10.661,-10.671,-10.671,-10.677,-10.693,-10.73,-10.723,-10.693,-10.697,-10.747,-10.78,-10.768,-10.761,-10.741,-10.72,-10.702,-10.71,-10.689,-10.529,-10.324,-10.213,-9.9532,-9.8635,-9.8764,-9.8639,-10.355,-11.077,-11.514,-11.307,-11.086,-10.982,-10.816,-10.705,-10.687,-10.675,-10.666,-10.652,-10.629,-10.641,-10.653,-10.661,-10.631,-10.624,-10.619,-10.618,-10.626,-10.616,-10.593,-10.564,-10.559,-10.572,-10.562,-10.541,-10.525,-10.533,-10.54,-10.519,-10.489,-10.473,-10.453,-10.438,-10.425,-10.43,-10.447,-10.459,-10.426,-10.406,-10.368,-10.336,-10.31,-10.295,-10.285,-10.248,-10.224,-10.212,-10.185,-10.175,-10.155,-10.138,-10.111,-10.126,-10.126,-10.12,-10.1,-10.074,-10.096,-10.115,-10.121,-10.144,-10.188,-10.218,-10.257,-10.322,-10.368,-10.407,-10.459,-10.48,-10.515,-10.547,-10.574,-10.602,-10.608,-10.619,-10.618,-10.644,-10.65,-10.672,-10.681,-10.678,-10.655,-10.647,-10.645,-10.629,-10.625,-10.593,-10.612,-10.629,-10.653,-10.642,-10.602,-10.602,-10.621,-10.629,-10.65,-10.63,-10.606,-10.604,-10.626,-10.628,-10.62,-10.597,-10.585,-10.64,-10.655,-10.644,-10.635,-10.631,-10.636,-10.642,-10.641,-10.634,-10.641,-10.643,-10.624,-10.639,-10.662,-10.657,-10.688,-10.699,-10.669,-10.641,-10.648,-10.657,-10.68,-10.673,-10.648,-10.618,-10.637,-10.68,-10.681,-10.663,-10.646,-10.631,-10.654,-10.697,-10.69,-10.677,-10.64,-10.665,-10.674,-10.667,-10.655,-10.646,-10.666,-10.686,-10.689,-10.658,-10.652,-10.677,-10.675,-10.692,-10.682,-10.658,-10.621,-10.633,-10.645,-10.625,-10.625,-10.63,-10.621,-10.593,-10.553,-10.544,-10.571,-10.597,-10.591,-10.571,-10.573,-10.637,-10.646,-10.652,-10.643,-10.653,-10.675,-10.689,-10.69,-10.694,-10.701,-10.674,-10.643,-10.677,-10.692,-10.658,-10.661,-10.68,-10.679,-10.562,-10.356,-10.173,-9.9986,-9.7838,-9.5905,-9.5137,-9.8191,-10.532,-11.258,-11.383,-11.119,-10.92,-10.778,-10.612,-10.569,-10.57,-10.601,-10.614,-10.578,-10.556,-10.533,-10.52,-10.538,-10.505,-10.489,-10.475,-10.442,-10.475,-10.475,-10.486,-10.483,-10.457,-10.472,-10.465,-10.449,-10.424,-10.409,-10.407,-10.382,-10.349,-10.369,-10.377,-10.364,-10.339,-10.333,-10.33,-10.297,-10.264,-10.238,-10.238,-10.257,-10.227,-10.17,-10.169,-10.14,-10.136,-10.102,-10.095,-10.097,-10.097,-10.081,-10.051,-10.037,-10.035,-10.038,-10.007,-9.9761,-10.004,-10.04,-10.064,-10.063,-10.086,-10.138,-10.188,-10.245,-10.27,-10.303,-10.346,-10.403,-10.447,-10.463,-10.468,-10.492,-10.541,-10.563,-10.566,-10.584,-10.583,-10.593,-10.587,-10.577,-10.582,-10.567,-10.587,-10.584,-10.568,-10.6,-10.585,-10.576,-10.567,-10.569,-10.552,-10.543,-10.509,-10.522,-10.549,-10.547,-10.554,-10.56,-10.559,-10.553,-10.566,-10.564,-10.541,-10.541,-10.559,-10.577,-10.552,-10.541,-10.562,-10.559,-10.563,-10.567,-10.575,-10.573,-10.561,-10.557,-10.567,-10.553,-10.559,-10.573,-10.558,-10.567,-10.581,-10.557,-10.554,-10.571,-10.584,-10.561,-10.544,-10.546,-10.556,-10.578,-10.602,-10.596,-10.592,-10.592,-10.58,-10.546,-10.561,-10.545,-10.589,-10.606,-10.58,-10.562,-10.567,-10.569,-10.587,-10.597,-10.603,-10.61,-10.616,-10.604,-10.585,-10.576,-10.58,-10.605,-10.619,-10.604,-10.581,-10.561,-10.565,-10.525,-10.57,-10.61,-10.601,-10.565,-10.521,-10.523,-10.552,-10.568,-10.562,-10.55,-10.492,-10.497,-10.46,-10.462,-10.469,-10.466,-10.459,-10.504,-10.532,-10.55,-10.534,-10.546,-10.567,-10.581,-10.591,-10.583,-10.58,-10.607,-10.602,-10.606,-10.597,-10.589,-10.584,-10.579,-10.555,-10.562,-10.514,-10.339,-10.163,-9.9858,-9.8092,-9.6068,-9.4833,-9.8547,-10.536,-11.209,-11.294,-11.031,-10.87,-10.725,-10.584,-10.535,-10.515,-10.465,-10.472,-10.474,-10.498,-10.451,-10.454,-10.436,-10.438,-10.428,-10.449,-10.437,-10.446,-10.434,-10.42,-10.379,-10.383,-10.408,-10.399,-10.394,-10.389,-10.352,-10.357,-10.354,-10.337,-10.325,-10.304,-10.272,-10.267,-10.271,-10.261,-10.238,-10.224,-10.219,-10.198,-10.203,-10.195,-10.156,-10.145,-10.125,-10.105,-10.085,-10.077,-10.076,-10.062,-10.014,-9.9929,-10.005,-10.002,-9.9885,-9.9651,-9.9656,-9.9921,-10.005,-9.9997,-10.033,-10.053,-10.069,-10.105,-10.109,-10.193,-10.252,-10.272,-10.306,-10.324,-10.368,-10.387,-10.415,-10.445,-10.501,-10.519,-10.504,-10.507,-10.513,-10.517,-10.519,-10.495,-10.489,-10.483,-10.5,-10.501,-10.499,-10.485,-10.46,-10.472,-10.485,-10.479,-10.492,-10.478,-10.473,-10.484,-10.489,-10.472,-10.487,-10.475,-10.481,-10.489,-10.492,-10.499,-10.501,-10.517,-10.51,-10.47,-10.449,-10.451,-10.497,-10.53,-10.553,-10.52,-10.516,-10.536,-10.548,-10.517,-10.504,-10.53,-10.557,-10.568,-10.527,-10.511,-10.535,-10.542,-10.556,-10.548,-10.536,-10.534,-10.531,-10.531,-10.524,-10.498,-10.502,-10.525,-10.536,-10.498,-10.503,-10.535,-10.554,-10.58,-10.565,-10.554,-10.527,-10.539,-10.554,-10.549,-10.53,-10.539,-10.569,-10.589,-10.565,-10.53,-10.48,-10.501,-10.534,-10.534,-10.513,-10.469,-10.425,-10.441,-10.438,-10.458,-10.467,-10.44,-10.458,-10.481,-10.492,-10.499,-10.502,-10.528,-10.558,-10.542,-10.519,-10.521,-10.563,-10.577,-10.594,-10.588,-10.557,-10.557,-10.555,-10.574,-10.552,-10.53,-10.492,-10.416,-10.266,-10.071,-9.8716,-9.6825,-9.6026,-9.7518,-10.238,-10.916,-11.319,-11.144,-10.905,-10.763,-10.633,-10.53,-10.465,-10.48,-10.481,-10.465,-10.433,-10.441,-10.466,-10.475,-10.427,-10.428,-10.409,-10.415,-10.411,-10.397,-10.377,-10.386,-10.389,-10.379,-10.334,-10.336,-10.365,-10.379,-10.35,-10.332,-10.299,-10.299,-10.29,-10.288,-10.267,-10.248,-10.226,-10.219,-10.228,-10.205,-10.197,-10.183,-10.185,-10.164,-10.114,-10.097,-10.1,-10.089,-10.079,-10.054,-10.033,-10.02,-10.004,-10.001,-10.005,-9.994,-9.9931,-9.9831,-9.9881,-9.9889,-10,-10.029,-10.063,-10.104,-10.139,-10.162,-10.198,-10.201,-10.256,-10.312,-10.367,-10.394,-10.402,-10.432,-10.473,-10.48,-10.526,-10.517,-10.538,-10.536,-10.515,-10.503,-10.508,-10.499,-10.504,-10.499,-10.517,-10.53,-10.521,-10.514,-10.501,-10.488,-10.473,-10.471,-10.501,-10.491,-10.486,-10.498,-10.499,-10.513,-10.504,-10.505,-10.478,-10.492,-10.525,-10.51,-10.505,-10.509,-10.524,-10.547,-10.546,-10.518,-10.506,-10.536,-10.554,-10.542,-10.507,-10.522,-10.522,-10.547,-10.57,-10.545,-10.54,-10.562,-10.579,-10.586,-10.558,-10.558,-10.556,-10.566,-10.583,-10.583,-10.573,-10.556,-10.557,-10.566,-10.536,-10.55,-10.561,-10.559,-10.564,-10.554,-10.563,-10.567,-10.55,-10.548,-10.537,-10.486,-10.468,-10.46,-10.502,-10.524,-10.499,-10.509,-10.493,-10.519,-10.552,-10.561,-10.567,-10.601,-10.626,-10.622,-10.61,-10.605,-10.614,-10.633,-10.639,-10.616,-10.606,-10.608,-10.615,-10.612,-10.613,-10.552,-10.418,-10.212,-10.033,-9.8816,-9.6916,-9.5979,-9.9182,-10.49,-11.242,-11.339,-11.072,-10.91,-10.826,-10.713,-10.573,-10.572,-10.568,-10.581,-10.545,-10.542,-10.508,-10.505,-10.507,-10.494,-10.463,-10.495,-10.516,-10.541,-10.516,-10.477,-10.447,-10.463,-10.455,-10.443,-10.429,-10.435,-10.431,-10.431,-10.404,-10.396,-10.39,-10.383,-10.369,-10.354,-10.326,-10.293,-10.298,-10.298,-10.294,-10.276,-10.251,-10.23,-10.216,-10.214,-10.183,-10.145,-10.129,-10.125,-10.132,-10.106,-10.053,-10.034,-10.024,-10.024,-10.051,-10.061,-10.063,-10.059,-10.089,-10.112,-10.101,-10.116,-10.133,-10.207,-10.272,-10.347,-10.35,-10.357,-10.409,-10.472,-10.514,-10.501,-10.496,-10.564,-10.631,-10.633,-10.59,-10.555,-10.581,-10.593,-10.608,-10.598,-10.6,-10.584,-10.587,-10.573,-10.557,-10.57,-10.597,-10.604,-10.588,-10.555,-10.56,-10.566,-10.558,-10.562,-10.535,-10.544,-10.548,-10.555,-10.548,-10.52,-10.512,-10.513,-10.552,-10.531,-10.531,-10.551,-10.56,-10.57,-10.589,-10.591,-10.552,-10.564,-10.573,-10.603,-10.595,-10.57,-10.566,-10.567,-10.564,-10.603,-10.601,-10.575,-10.584,-10.615,-10.615,-10.598,-10.597,-10.597,-10.614,-10.617,-10.607,-10.59,-10.596,-10.593,-10.59,-10.577,-10.621,-10.635,-10.634,-10.631,-10.622,-10.591,-10.589,-10.636,-10.651,-10.645,-10.622,-10.58,-10.57,-10.562,-10.579,-10.571,-10.59,-10.592,-10.561,-10.523,-10.503,-10.49,-10.488,-10.54,-10.562,-10.578,-10.584,-10.604,-10.612,-10.599,-10.585,-10.597,-10.6,-10.645,-10.673,-10.651,-10.657,-10.651,-10.647,-10.65,-10.639,-10.628,-10.648,-10.651,-10.624,-10.461,-10.247,-10.049,-9.8961,-9.7088,-9.5418,-9.7702,-10.407,-11.118,-11.349,-11.138,-10.938,-10.822,-10.664,-10.615,-10.586,-10.557,-10.555,-10.545,-10.554,-10.569,-10.543,-10.533,-10.538,-10.544,-10.552,-10.523,-10.478,-10.478,-10.478,-10.493,-10.506,-10.468,-10.457,-10.465,-10.492,-10.467,-10.448,-10.438,-10.436,-10.417,-10.397,-10.364,-10.366,-10.365,-10.352,-10.324,-10.302,-10.296,-10.298,-10.264,-10.2,-10.194,-10.212,-10.226,-10.205,-10.162,-10.131,-10.116,-10.089,-10.078,-10.086,-10.092,-10.092,-10.068,-10.064,-10.052,-10.029,-10.025,-10.062,-10.111,-10.164,-10.161,-10.209,-10.258,-10.318,-10.389,-10.425,-10.435,-10.455,-10.49,-10.516,-10.539,-10.562,-10.583,-10.62,-10.636,-10.632,-10.618,-10.614,-10.61,-10.615,-10.64,-10.636,-10.632,-10.624,-10.613,-10.612,-10.61,-10.597,-10.585,-10.602,-10.6,-10.599,-10.603,-10.612,-10.629,-10.603,-10.592,-10.571,-10.591,-10.597,-10.594,-10.572,-10.598,-10.614,-10.626,-10.625,-10.637,-10.624,-10.632,-10.619,-10.612,-10.608,-10.62,-10.638,-10.64,-10.619,-10.592,-10.614,-10.646,-10.662,-10.661,-10.65,-10.641,-10.64,-10.638,-10.651,-10.655,-10.648,-10.643,-10.652,-10.665,-10.648,-10.605,-10.601,-10.63,-10.659,-10.68,-10.682,-10.672,-10.67,-10.67,-10.656,-10.645,-10.642,-10.653,-10.673,-10.676,-10.648,-10.625,-10.639,-10.646,-10.628,-10.616,-10.625,-10.664,-10.694,-10.695,-10.653,-10.64,-10.625,-10.646,-10.66,-10.654,-10.647,-10.648,-10.654,-10.645,-10.603,-10.575,-10.565,-10.598,-10.642,-10.627,-10.555,-10.547,-10.515,-10.524,-10.557,-10.544,-10.555,-10.553,-10.599,-10.591,-10.602,-10.607,-10.64,-10.654,-10.675,-10.666,-10.666,-10.658,-10.66,-10.646,-10.64,-10.614,-10.618,-10.643,-10.66,-10.636,-10.553,-10.486,-10.289,-10.03,-9.8175,-9.5876,-9.5058,-9.6904,-10.373,-11.076,-11.356,-11.149,-10.931,-10.831,-10.631,-10.579,-10.541,-10.55,-10.542,-10.525,-10.499,-10.511,-10.52,-10.534,-10.517,-10.482,-10.487,-10.489,-10.493,-10.498,-10.452,-10.413,-10.405,-10.444,-10.451,-10.428,-10.415,-10.418,-10.409,-10.395,-10.363,-10.328,-10.323,-10.329,-10.337,-10.312,-10.299,-10.282,-10.282,-10.262,-10.24,-10.199,-10.177,-10.159,-10.169,-10.158,-10.121,-10.072,-10.064,-10.071,-10.052,-10.039,-10.059,-10.058,-10.047,-10.031,-10.012,-10.01,-10.014,-10.011,-9.9901,-10.032,-10.037,-10.085,-10.146,-10.207,-10.241,-10.259,-10.292,-10.33,-10.382,-10.417,-10.466,-10.498,-10.517,-10.531,-10.546,-10.543,-10.551,-10.541,-10.55,-10.569,-10.572,-10.567,-10.55,-10.566,-10.573,-10.549,-10.532,-10.544,-10.562,-10.563,-10.541,-10.556,-10.556,-10.554,-10.542,-10.518,-10.526,-10.522,-10.53,-10.551,-10.568,-10.552,-10.547,-10.554,-10.55,-10.541,-10.55,-10.556,-10.568,-10.586,-10.557,-10.561,-10.562,-10.573,-10.575,-10.573,-10.582,-10.587,-10.557,-10.574,-10.583,-10.593,-10.605,-10.6,-10.599,-10.593,-10.574,-10.573,-10.592,-10.595,-10.596,-10.593,-10.595,-10.605,-10.613,-10.601,-10.565,-10.563,-10.579,-10.616,-10.634,-10.62,-10.581,-10.563,-10.591,-10.616,-10.609,-10.572,-10.579,-10.591,-10.59,-10.596,-10.603,-10.605,-10.612,-10.607,-10.61,-10.602,-10.591,-10.586,-10.594,-10.574,-10.598,-10.599,-10.588,-10.569,-10.588,-10.591,-10.588,-10.586,-10.584,-10.596,-10.568,-10.58,-10.592,-10.61,-10.598,-10.553,-10.546,-10.555,-10.558,-10.522,-10.502,-10.488,-10.493,-10.475,-10.496,-10.491,-10.469,-10.494,-10.518,-10.518,-10.494,-10.505,-10.528,-10.573,-10.626,-10.629,-10.604,-10.6,-10.603,-10.628,-10.607,-10.581,-10.57,-10.6,-10.619,-10.61,-10.564,-10.444,-10.238,-10.021,-9.8246,-9.6576,-9.5783,-9.5011,-9.9595,-10.634,-11.274,-11.25,-10.984,-10.867,-10.684,-10.571,-10.51,-10.506,-10.472,-10.497,-10.472,-10.497,-10.483,-10.503,-10.452,-10.45,-10.426,-10.444,-10.424,-10.44,-10.425,-10.417,-10.398,-10.428,-10.413,-10.409,-10.38,-10.376,-10.361,-10.369,-10.344,-10.333,-10.316,-10.298,-10.291,-10.283,-10.273,-10.255,-10.228,-10.225,-10.209,-10.205,-10.176,-10.155,-10.131,-10.103,-10.106,-10.091,-10.072,-10.055,-10.034,-10.032,-10.009,-9.9872,-9.9863,-9.9715,-9.9653,-9.9604,-9.9458,-9.9483,-9.9748,-9.9994,-10.011,-10.018,-10.055,-10.097,-10.149,-10.172,-10.209,-10.254,-10.323,-10.345,-10.372,-10.376,-10.401,-10.4,-10.43,-10.469,-10.495,-10.495,-10.513,-10.501,-10.488,-10.467,-10.457,-10.469,-10.502,-10.481,-10.481,-10.468,-10.471,-10.469,-10.45,-10.456,-10.449,-10.434,-10.458,-10.467,-10.441,-10.461,-10.481,-10.482,-10.478,-10.477,-10.482,-10.48,-10.483,-10.47,-10.48,-10.464,-10.472,-10.504,-10.5,-10.484,-10.481,-10.483,-10.477,-10.474,-10.476,-10.492,-10.494,-10.511,-10.541,-10.518,-10.504,-10.497,-10.505,-10.503,-10.515,-10.504,-10.508,-10.519,-10.513,-10.506,-10.502,-10.491,-10.466,-10.478,-10.525,-10.51,-10.507,-10.521,-10.528,-10.518,-10.493,-10.478,-10.504,-10.502,-10.499,-10.502,-10.493,-10.5,-10.501,-10.5,-10.503,-10.514,-10.499,-10.506,-10.505,-10.508,-10.503,-10.512,-10.519,-10.511,-10.502,-10.49,-10.484,-10.496,-10.469,-10.463,-10.464,-10.479,-10.482,-10.471,-10.474,-10.465,-10.459,-10.462,-10.449,-10.41,-10.364,-10.32,-10.368,-10.411,-10.414,-10.42,-10.415,-10.442,-10.452,-10.458,-10.452,-10.457,-10.48,-10.502,-10.502,-10.486,-10.484,-10.488,-10.498,-10.485,-10.494,-10.505,-10.476,-10.491,-10.449,-10.324,-10.105,-9.8936,-9.7503,-9.5644,-9.4556,-9.7011,-10.297,-11.069,-11.278,-11.131,-10.882,-10.693,-10.59,-10.457,-10.408,-10.385,-10.389,-10.373,-10.397,-10.401,-10.38,-10.348,-10.368,-10.363,-10.358,-10.303,-10.309,-10.308,-10.337,-10.336,-10.328,-10.302,-10.294,-10.288,-10.271,-10.234,-10.241,-10.238,-10.262,-10.251,-10.206,-10.183,-10.19,-10.177,-10.17,-10.148,-10.124,-10.102,-10.107,-10.113,-10.062,-10.048,-10.029,-10.035,-10.024,-10.005,-9.9532,-9.9384,-9.9326,-9.9415,-9.9363,-9.9079,-9.9043,-9.9224,-9.9041,-9.9182,-9.8738,-9.871,-9.9051,-9.9392,-9.9746,-9.9945,-9.9943,-10.017,-10.071,-10.115,-10.169,-10.217,-10.253,-10.33,-10.355,-10.372,-10.371,-10.378,-10.413,-10.419,-10.417,-10.419,-10.428,-10.433,-10.428,-10.408,-10.404,-10.404,-10.397,-10.422,-10.397,-10.396,-10.415,-10.434,-10.431,-10.42,-10.396,-10.392,-10.42,-10.412,-10.39,-10.374,-10.385,-10.412,-10.412,-10.409,-10.404,-10.387,-10.401,-10.414,-10.44,-10.433,-10.414,-10.42,-10.44,-10.455,-10.424,-10.404,-10.423,-10.459,-10.467,-10.449,-10.428,-10.441,-10.463,-10.478,-10.466,-10.46,-10.45,-10.459,-10.459,-10.459,-10.463,-10.454,-10.465,-10.462,-10.473,-10.481,-10.485,-10.485,-10.484,-10.471,-10.453,-10.442,-10.463,-10.496,-10.496,-10.445,-10.409,-10.414,-10.434,-10.446,-10.457,-10.431,-10.406,-10.384,-10.351,-10.347,-10.383,-10.398,-10.446,-10.443,-10.438,-10.42,-10.46,-10.478,-10.469,-10.465,-10.446,-10.484,-10.529,-10.524,-10.504,-10.511,-10.524,-10.528,-10.525,-10.53,-10.497,-10.49,-10.413,-10.258,-10.155,-9.944,-9.7616,-9.6199,-9.5322,-9.7691,-10.3,-11.031,-11.271,-11.045,-10.849,-10.708,-10.564,-10.456,-10.426,-10.418,-10.407,-10.395,-10.412,-10.43,-10.441,-10.41,-10.383,-10.372,-10.384,-10.379,-10.366,-10.348,-10.36,-10.361,-10.347,-10.321,-10.293,-10.307,-10.323,-10.287,-10.272,-10.261,-10.27,-10.265,-10.265,-10.245,-10.22,-10.207,-10.206,-10.209,-10.188,-10.132,-10.083,-10.098,-10.108,-10.099,-10.069,-10.006,-9.9911,-9.9924,-9.9913,-9.9718,-9.9522,-9.9438,-9.9377,-9.9309,-9.9336,-9.913,-9.9178,-9.9192,-9.928,-9.9197,-9.8986,-9.9163,-9.9592,-10.056,-10.11,-10.146,-10.206,-10.252,-10.311,-10.336,-10.35,-10.38,-10.381,-10.418,-10.431,-10.445,-10.462,-10.487,-10.462,-10.453,-10.411,-10.443,-10.481,-10.504,-10.525,-10.493,-10.479,-10.472,-10.47,-10.467,-10.448,-10.449,-10.451,-10.453,-10.448,-10.443,-10.439,-10.428,-10.456,-10.441,-10.446,-10.432,-10.449,-10.478,-10.484,-10.494,-10.471,-10.483,-10.498,-10.486,-10.473,-10.486,-10.487,-10.486,-10.497,-10.48,-10.472,-10.487,-10.476,-10.513,-10.514,-10.485,-10.491,-10.519,-10.542,-10.526,-10.481,-10.484,-10.511,-10.539,-10.543,-10.524,-10.51,-10.51,-10.516,-10.51,-10.52,-10.521,-10.526,-10.516,-10.51,-10.516,-10.523,-10.53,-10.524,-10.518,-10.522,-10.499,-10.49,-10.512,-10.523,-10.518,-10.525,-10.544,-10.533,-10.517,-10.496,-10.478,-10.466,-10.484,-10.473,-10.425,-10.392,-10.382,-10.425,-10.451,-10.438,-10.432,-10.423,-10.462,-10.479,-10.481,-10.512,-10.543,-10.532,-10.546,-10.548,-10.544,-10.554,-10.554,-10.559,-10.555,-10.558,-10.537,-10.532,-10.551,-10.541,-10.435,-10.216,-10.008,-9.8346,-9.7358,-9.5453,-9.395,-9.7277,-10.413,-11.134,-11.261,-10.991,-10.791,-10.667,-10.51,-10.491,-10.492,-10.453,-10.45,-10.439,-10.44,-10.424,-10.427,-10.392,-10.383,-10.382,-10.39,-10.388,-10.385,-10.388,-10.373,-10.351,-10.346,-10.345,-10.353,-10.348,-10.335,-10.308,-10.307,-10.309,-10.301,-10.265,-10.255,-10.253,-10.257,-10.239,-10.216,-10.181,-10.178,-10.158,-10.14,-10.137,-10.116,-10.094,-10.072,-10.06,-10.023,-10.005,-9.9954,-9.9757,-9.9841,-9.9686,-9.9425,-9.9293,-9.914,-9.931,-9.9412,-9.9367,-9.92,-9.9158,-9.9413,-9.9744,-9.9987,-10.031,-10.076,-10.138,-10.193,-10.259,-10.278,-10.279,-10.334,-10.378,-10.412,-10.433,-10.434,-10.469,-10.484,-10.477,-10.458,-10.48,-10.489,-10.503,-10.491,-10.479,-10.48,-10.5,-10.482,-10.454,-10.468,-10.487,-10.494,-10.498,-10.485,-10.484,-10.482,-10.491,-10.467,-10.47,-10.461,-10.466,-10.47,-10.482,-10.493,-10.476,-10.474,-10.465,-10.472,-10.51,-10.516,-10.5,-10.504,-10.507,-10.511,-10.496,-10.479,-10.473,-10.509,-10.555,-10.551,-10.531,-10.525,-10.517,-10.515,-10.527,-10.532,-10.518,-10.526,-10.545,-10.565,-10.552,-10.562,-10.561,-10.56,-10.55,-10.54,-10.518,-10.526,-10.537,-10.551,-10.56,-10.534,-10.522,-10.523,-10.513,-10.534,-10.548,-10.539,-10.547,-10.561,-10.581,-10.579,-10.561,-10.556,-10.566,-10.568,-10.562,-10.563,-10.571,-10.57,-10.558,-10.568,-10.549,-10.541,-10.542,-10.573,-10.593,-10.596,-10.602,-10.601,-10.595,-10.569,-10.564,-10.575,-10.567,-10.556,-10.532,-10.519,-10.528,-10.536,-10.544,-10.489,-10.45,-10.424,-10.445,-10.486,-10.492,-10.488,-10.527,-10.536,-10.539,-10.552,-10.551,-10.589,-10.615,-10.618,-10.603,-10.586,-10.578,-10.598,-10.615,-10.608,-10.596,-10.591,-10.586,-10.602,-10.594,-10.494,-10.335,-10.138,-9.9667,-9.7843,-9.5586,-9.4642,-9.645,-10.325,-11.03,-11.327,-11.095,-10.862,-10.779,-10.615,-10.557,-10.513,-10.486,-10.506,-10.517,-10.494,-10.496,-10.467,-10.477,-10.484,-10.485,-10.483,-10.487,-10.493,-10.494,-10.459,-10.419,-10.406,-10.43,-10.434,-10.408,-10.383,-10.37,-10.346,-10.357,-10.376,-10.368,-10.357,-10.32,-10.317,-10.317,-10.282,-10.27,-10.258,-10.239,-10.231,-10.217,-10.186,-10.161,-10.151,-10.15,-10.131,-10.111,-10.083,-10.071,-10.037,-10.014,-10.001,-10.021,-10.033,-10.032,-10.014,-10.004,-9.9793,-9.9868,-10,-10.023,-10.052,-10.087,-10.138,-10.178,-10.213,-10.234,-10.297,-10.331,-10.379,-10.409,-10.443,-10.486,-10.522,-10.53,-10.534,-10.526,-10.531,-10.524,-10.553,-10.554,-10.527,-10.517,-10.551,-10.567,-10.575,-10.556,-10.538,-10.534,-10.519,-10.518,-10.535,-10.542,-10.543,-10.541,-10.539,-10.539,-10.527,-10.506,-10.5,-10.504,-10.528,-10.522,-10.501,-10.536,-10.572,-10.576,-10.557,-10.555,-10.55,-10.529,-10.525,-10.542,-10.57,-10.583,-10.587,-10.578,-10.542,-10.538,-10.57,-10.593,-10.606,-10.586,-10.569,-10.559,-10.57,-10.577,-10.589,-10.589,-10.601,-10.613,-10.61,-10.577,-10.573,-10.579,-10.583,-10.597,-10.611,-10.593,-10.581,-10.572,-10.579,-10.608,-10.612,-10.612,-10.581,-10.595,-10.598,-10.6,-10.599,-10.604,-10.59,-10.559,-10.572,-10.6,-10.609,-10.612,-10.598,-10.583,-10.594,-10.604,-10.61,-10.612,-10.598,-10.598,-10.607,-10.605,-10.562,-10.547,-10.562,-10.587,-10.608,-10.623,-10.595,-10.595,-10.564,-10.564,-10.541,-10.555,-10.559,-10.563,-10.516,-10.5,-10.472,-10.446,-10.48,-10.49,-10.509,-10.53,-10.501,-10.5,-10.578,-10.604,-10.617,-10.581,-10.594,-10.607,-10.635,-10.634,-10.628,-10.614,-10.612,-10.613,-10.609,-10.601,-10.607,-10.611,-10.541,-10.367,-10.147,-9.9261,-9.779,-9.5859,-9.5337,-10.065,-10.763,-11.133,-11.354,-11.124,-10.917,-10.788,-10.594,-10.559,-10.523,-10.512,-10.52,-10.534,-10.498,-10.514,-10.532,-10.512,-10.508,-10.502,-10.48,-10.493,-10.482,-10.479,-10.47,-10.453,-10.445,-10.434,-10.402,-10.408,-10.404,-10.401,-10.383,-10.398,-10.383,-10.374,-10.36,-10.333,-10.304,-10.313,-10.324,-10.294,-10.279,-10.254,-10.221,-10.209,-10.212,-10.192,-10.138,-10.113,-10.098,-10.104,-10.078,-10.068,-10.078,-10.079,-10.033,-10.013,-10.01,-10.038,-10.054,-10.04,-10.042,-10.008,-9.9759,-10.012,-10.076,-10.118,-10.158,-10.165,-10.213,-10.281,-10.325,-10.359,-10.427,-10.47,-10.496,-10.531,-10.539,-10.55,-10.562,-10.555,-10.565,-10.556,-10.535,-10.552,-10.568,-10.572,-10.572,-10.558,-10.565,-10.579,-10.56,-10.531,-10.537,-10.539,-10.567,-10.561,-10.556,-10.543,-10.52,-10.541,-10.556,-10.532,-10.512,-10.528,-10.545,-10.556,-10.563,-10.549,-10.528,-10.492,-10.541,-10.551,-10.545,-10.557,-10.567,-10.582,-10.604,-10.578,-10.574,-10.567,-10.577,-10.585,-10.559,-10.55,-10.563,-10.564,-10.593,-10.572,-10.562,-10.595,-10.6,-10.603,-10.611,-10.59,-10.597,-10.599,-10.594,-10.585,-10.576,-10.593,-10.603,-10.613,-10.612,-10.575,-10.563,-10.583,-10.584,-10.582,-10.592,-10.612,-10.602,-10.598,-10.594,-10.573,-10.577,-10.589,-10.589,-10.622,-10.61,-10.6,-10.609,-10.601,-10.602,-10.571,-10.537,-10.557,-10.571,-10.595,-10.578,-10.561,-10.559,-10.52,-10.497,-10.474,-10.472,-10.488,-10.492,-10.513,-10.52,-10.538,-10.533,-10.538,-10.572,-10.602,-10.597,-10.606,-10.597,-10.605,-10.607,-10.623,-10.615,-10.593,-10.61,-10.604,-10.613,-10.614,-10.572,-10.475,-10.284,-10.067,-9.9603,-9.8047,-9.6264,-9.5932,-9.9621,-10.54,-11.264,-11.304,-11.057,-10.887,-10.717,-10.651,-10.532,-10.556,-10.519,-10.511,-10.48,-10.523,-10.478,-10.475,-10.451,-10.453,-10.435,-10.472,-10.443,-10.46,-10.435,-10.429,-10.416,-10.4,-10.365,-10.356,-10.345,-10.391,-10.362,-10.345,-10.334,-10.331,-10.313,-10.287,-10.268,-10.246,-10.244,-10.272,-10.248,-10.214,-10.196,-10.169,-10.15,-10.143,-10.099,-10.059,-10.055,-10.068,-10.04,-10.017,-10.012,-9.9942,-9.9776,-9.966,-9.9711,-9.9297,-9.9396,-9.9224,-9.942,-9.9264,-9.9151,-9.9447,-9.9774,-10.01,-10.046,-10.05,-10.132,-10.181,-10.226,-10.263,-10.295,-10.322,-10.355,-10.373,-10.369,-10.383,-10.402,-10.416,-10.458,-10.449,-10.466,-10.456,-10.442,-10.415,-10.444,-10.448,-10.43,-10.426,-10.447,-10.443,-10.426,-10.411,-10.428,-10.432,-10.439,-10.429,-10.429,-10.408,-10.417,-10.433,-10.422,-10.41,-10.4,-10.401,-10.411,-10.402,-10.391,-10.412,-10.449,-10.476,-10.458,-10.435,-10.417,-10.42,-10.441,-10.462,-10.459,-10.434,-10.445,-10.468,-10.494,-10.492,-10.465,-10.469,-10.474,-10.482,-10.505,-10.472,-10.454,-10.452,-10.452,-10.447,-10.431,-10.433,-10.432,-10.414,-10.381,-10.333,-10.361,-10.394,-10.405,-10.426,-10.41,-10.409,-10.404,-10.445,-10.468,-10.484,-10.493,-10.503,-10.514,-10.503,-10.502,-10.493,-10.499,-10.521,-10.534,-10.507,-10.485,-10.486,-10.498,-10.484,-10.389,-10.24,-10.053,-9.858,-9.6455,-9.4632,-9.5741,-10.095,-10.822,-11.319,-11.086,-10.939,-10.797,-10.672,-10.602,-10.49,-10.468,-10.443,-10.462,-10.431,-10.42,-10.388,-10.407,-10.402,-10.423,-10.4,-10.407,-10.402,-10.404,-10.37,-10.35,-10.329,-10.345,-10.356,-10.374,-10.36,-10.328,-10.285,-10.27,-10.275,-10.28,-10.254,-10.251,-10.244,-10.228,-10.204,-10.181,-10.166,-10.15,-10.145,-10.123,-10.108,-10.082,-10.061,-10.051,-10.038,-10.031,-9.9746,-9.9417,-9.9433,-9.9332,-9.907,-9.8842,-9.8806,-9.8816,-9.8924,-9.8747,-9.8786,-9.8846,-9.9101,-9.9557,-9.9658,-10.009,-10.067,-10.124,-10.184,-10.229,-10.272,-10.298,-10.332,-10.364,-10.397,-10.402,-10.418,-10.431,-10.453,-10.451,-10.449,-10.434,-10.448,-10.464,-10.465,-10.447,-10.436,-10.432,-10.443,-10.433,-10.442,-10.423,-10.419,-10.42,-10.43,-10.424,-10.408,-10.408,-10.401,-10.414,-10.411,-10.411,-10.423,-10.422,-10.423,-10.416,-10.41,-10.405,-10.422,-10.435,-10.463,-10.45,-10.452,-10.446,-10.459,-10.454,-10.439,-10.432,-10.464,-10.474,-10.477,-10.468,-10.461,-10.47,-10.47,-10.469,-10.476,-10.457,-10.459,-10.47,-10.473,-10.448,-10.43,-10.412,-10.423,-10.455,-10.437,-10.39,-10.362,-10.37,-10.397,-10.397,-10.379,-10.385,-10.39,-10.402,-10.444,-10.479,-10.491,-10.485,-10.488,-10.49,-10.482,-10.48,-10.502,-10.517,-10.522,-10.505,-10.488,-10.478,-10.501,-10.519,-10.509,-10.492,-10.393,-10.206,-9.9995,-9.8094,-9.5926,-9.4058,-9.4867,-10.09,-10.791,-11.218,-11.02,-10.805,-10.717,-10.527,-10.442,-10.435,-10.43,-10.407,-10.403,-10.391,-10.379,-10.391,-10.4,-10.371,-10.365,-10.349,-10.357,-10.361,-10.35,-10.336,-10.324,-10.315,-10.318,-10.298,-10.302,-10.282,-10.271,-10.27,-10.267,-10.263,-10.247,-10.228,-10.224,-10.221,-10.2,-10.164,-10.139,-10.144,-10.161,-10.118,-10.07,-10.054,-10.046,-10.032,-9.9994,-9.9625,-9.9444,-9.9479,-9.9416,-9.9332,-9.896,-9.883,-9.8857,-9.8809,-9.8653,-9.8516,-9.8349,-9.8433,-9.8703,-9.8951,-9.9057,-9.9526,-9.992,-10.064,-10.118,-10.165,-10.199,-10.25,-10.298,-10.323,-10.346,-10.366,-10.395,-10.401,-10.419,-10.425,-10.419,-10.442,-10.447,-10.458,-10.443,-10.434,-10.436,-10.446,-10.438,-10.418,-10.407,-10.417,-10.418,-10.417,-10.401,-10.395,-10.408,-10.432,-10.437,-10.425,-10.417,-10.416,-10.419,-10.436,-10.435,-10.442,-10.43,-10.437,-10.45,-10.453,-10.45,-10.44,-10.434,-10.436,-10.444,-10.448,-10.444,-10.46,-10.453,-10.449,-10.458,-10.457,-10.446,-10.459,-10.49,-10.502,-10.483,-10.476,-10.483,-10.496,-10.48,-10.465,-10.468,-10.469,-10.486,-10.493,-10.488,-10.489,-10.477,-10.482,-10.486,-10.473,-10.486,-10.5,-10.51,-10.478,-10.444,-10.414,-10.438,-10.46,-10.447,-10.442,-10.418,-10.4,-10.384,-10.369,-10.378,-10.374,-10.388,-10.403,-10.421,-10.429,-10.417,-10.427,-10.464,-10.488,-10.505,-10.484,-10.497,-10.51,-10.51,-10.49,-10.485,-10.482,-10.492,-10.516,-10.528,-10.51,-10.501,-10.48,-10.406,-10.222,-10.008,-9.811,-9.6025,-9.392,-9.3703,-9.9455,-10.609,-11.168,-11.093,-10.842,-10.728,-10.605,-10.458,-10.415,-10.421,-10.382,-10.409,-10.375,-10.403,-10.372,-10.379,-10.331,-10.357,-10.352,-10.377,-10.345,-10.349,-10.327,-10.343,-10.311,-10.318,-10.278,-10.29,-10.288,-10.308,-10.293,-10.258,-10.243,-10.264,-10.252,-10.251,-10.213,-10.192,-10.173,-10.175,-10.152,-10.132,-10.111,-10.096,-10.088,-10.079,-10.056,-10.032,-10.005,-9.9744,-9.9559,-9.9513,-9.9341,-9.9168,-9.9214,-9.9197,-9.8893,-9.8635,-9.8759,-9.8832,-9.8807,-9.8722,-9.8674,-9.8901,-9.9348,-9.9573,-9.9939,-10.026,-10.083,-10.139,-10.216,-10.261,-10.295,-10.32,-10.345,-10.372,-10.4,-10.403,-10.421,-10.434,-10.455,-10.465,-10.456,-10.438,-10.43,-10.429,-10.433,-10.441,-10.452,-10.45,-10.456,-10.448,-10.449,-10.432,-10.443,-10.433,-10.455,-10.439,-10.433,-10.429,-10.438,-10.437,-10.436,-10.428,-10.447,-10.45,-10.447,-10.416,-10.421,-10.434,-10.46,-10.47,-10.462,-10.444,-10.451,-10.463,-10.491,-10.488,-10.483,-10.466,-10.475,-10.476,-10.48,-10.471,-10.483,-10.479,-10.487,-10.488,-10.478,-10.472,-10.461,-10.48,-10.498,-10.488,-10.484,-10.493,-10.508,-10.51,-10.485,-10.484,-10.493,-10.501,-10.502,-10.496,-10.49,-10.486,-10.498,-10.499,-10.517,-10.501,-10.491,-10.495,-10.487,-10.492,-10.506,-10.525,-10.512,-10.489,-10.484,-10.472,-10.464,-10.479,-10.469,-10.435,-10.395,-10.37,-10.384,-10.416,-10.421,-10.429,-10.431,-10.439,-10.452,-10.497,-10.518,-10.519,-10.515,-10.531,-10.556,-10.561,-10.547,-10.543,-10.547,-10.563,-10.554,-10.55,-10.547,-10.552,-10.553,-10.523,-10.417,-10.232,-10.036,-9.8834,-9.6781,-9.455,-9.4505,-10.062,-10.795,-11.303,-11.146,-10.886,-10.773,-10.57,-10.513,-10.486,-10.461,-10.453,-10.47,-10.455,-10.452,-10.384,-10.39,-10.414,-10.427,-10.419,-10.4,-10.383,-10.407,-10.385,-10.383,-10.352,-10.348,-10.351,-10.361,-10.349,-10.333,-10.305,-10.313,-10.315,-10.306,-10.273,-10.255,-10.254,-10.254,-10.243,-10.212,-10.18,-10.178,-10.167,-10.14,-10.111,-10.107,-10.105,-10.086,-10.071,-10.042,-10.014,-10.003,-9.9977,-9.996,-9.9708,-9.9314,-9.9144,-9.9317,-9.9479,-9.9472,-9.9425,-9.9325,-9.9468,-9.9542,-9.956,-9.9937,-10.07,-10.13,-10.167,-10.192,-10.252,-10.28,-10.318,-10.358,-10.4,-10.421,-10.453,-10.466,-10.484,-10.494,-10.491,-10.483,-10.505,-10.504,-10.505,-10.495,-10.501,-10.489,-10.495,-10.49,-10.481,-10.47,-10.476,-10.493,-10.51,-10.504,-10.49,-10.478,-10.481,-10.479,-10.467,-10.472,-10.492,-10.506,-10.511,-10.492,-10.488,-10.485,-10.491,-10.49,-10.494,-10.49,-10.505,-10.498,-10.497,-10.521,-10.522,-10.523,-10.536,-10.554,-10.532,-10.511,-10.522,-10.531,-10.534,-10.521,-10.498,-10.505,-10.515,-10.521,-10.537,-10.549,-10.562,-10.563,-10.559,-10.531,-10.524,-10.52,-10.546,-10.567,-10.568,-10.546,-10.525,-10.513,-10.529,-10.534,-10.541,-10.546,-10.538,-10.547,-10.546,-10.538,-10.526
