1.188,1.3289,1.4512,1.4714,1.4696,1.463,1.4692,1.493,1.4911,1.5088,1.5251,1.5191,1.5341,1.5208,1.5103,1.4826,1.5037,1.5171,1.5335,1.5416,1.5304,1.5135,1.4894,1.5323,1.5406,1.5348,1.5446,1.5317,1.5419,1.5307,1.5306,1.5315,1.5313,1.5385,1.5554,1.5181,1.5492,1.5381,1.5255,1.5273,1.5344,1.5472,1.5413,1.5261,1.5549,1.5427,1.5373,1.5491,1.5382,1.5571,1.534,1.541,1.5547,1.5558,1.5564,1.5462,1.5798,1.5807,1.5689,1.5824,1.573,1.5814,1.5976,1.6098,1.614,1.6082,1.5863,1.6213,1.6266,1.6305,1.6236,1.6162,1.6189,1.5995,1.5858,1.5862,1.5946,1.5675,1.5714,1.589,1.5602,1.5578,1.5443,1.5696,1.5399,1.5535,1.5406,1.5295,1.5582,1.5487,1.5543,1.5442,1.5281,1.5331,1.5499,1.5511,1.5434,1.5439,1.5233,1.5439,1.5516,1.5319,1.5109,1.5279,1.5088,1.5147,1.5241,1.5406,1.5296,1.5142,1.5058,1.5609,1.5299,1.5159,1.4992,1.5301,1.5372,1.5267,1.5334,1.5275,1.5269,1.4959,1.514,1.5193,1.5382,1.5486,1.5214,1.5119,1.5086,1.4896,1.5147,1.5363,1.5174,1.4797,1.5069,1.5049,1.5313,1.5078,1.5163,1.4948,1.5178,1.5244,1.5267,1.4974,1.4783,1.522,1.5015,1.5344,1.5105,1.5017,1.5129,1.4905,1.5021,1.4843,1.4619,1.466,1.5191,1.4975,1.5189,1.5265,1.509,1.4992,1.496,1.4926,1.4616,1.5006,1.5007,1.503,1.513,1.4983,1.4572,1.5105,1.5144,1.4885,1.4904,1.4975,1.4876,1.491,1.4915,1.4967,1.483,1.487,1.5058,1.4851,1.4934,1.4792,1.5081,1.4847,1.476,1.5143,1.5307,1.5352,1.5354,1.5322,1.5241,1.539,1.5601,1.5693,1.5781,1.5685,1.5603,1.589,1.57,1.545,1.4956,1.5014,1.4914,1.4955,1.4884,1.468,1.4616,1.4742,1.4805,1.455,1.457,1.476,1.4822,1.462,1.4943,1.4538,1.4506,1.4754,1.4124,1.3665,1.3078,1.3489,1.45,1.7685,2.2398,2.5816,2.8193,3.0044,3.0126,2.7404,2.1219,1.515,1.18,1.0136,0.96896,0.95821,1.029,1.1452,1.3181,1.3966,1.4365,1.4366,1.4712,1.4786,1.4844,1.4609,1.4846,1.4865,1.4777,1.4746,1.4881,1.489,1.4916,1.4899,1.5059,1.4692,1.5059,1.502,1.5289,1.4977,1.507,1.4917,1.5048,1.5152,1.502,1.4967,1.4921,1.5187,1.5394,1.5345,1.5156,1.5099,1.5111,1.5117,1.5037,1.5142,1.5267,1.5205,1.5273,1.5258,1.4965,1.5118,1.5157,1.5295,1.5151,1.5362,1.5401,1.5269,1.5263,1.5181,1.5196,1.538,1.5416,1.5521,1.5399,1.5336,1.5615,1.5653,1.5482,1.5912,1.5722,1.5909,1.5993,1.6186,1.6141,1.5984,1.6074,1.6157,1.6158,1.5922,1.6019,1.5742,1.5589,1.5688,1.5743,1.5816,1.5707,1.5548,1.5235,1.5425,1.5611,1.5584,1.5244,1.5514,1.5443,1.5528,1.5278,1.5301,1.5101,1.5394,1.5745,1.546,1.5243,1.5083,1.5517,1.565,1.5566,1.5439,1.5067,1.5324,1.5466,1.5534,1.5422,1.5419,1.5352,1.562,1.5452,1.5408,1.5364,1.5462,1.5419,1.5399,1.515,1.517,1.5243,1.5318,1.5201,1.4902,1.5175,1.5464,1.5288,1.5232,1.518,1.5124,1.484,1.5218,1.5247,1.5189,1.5446,1.4998,1.5417,1.5209,1.5119,1.5177,1.4949,1.507,1.515,1.5112,1.5217,1.4919,1.5209,1.5087,1.4929,1.5019,1.5002,1.4972,1.4867,1.5053,1.5329,1.5068,1.5036,1.5079,1.5132,1.5043,1.5011,1.5298,1.5391,1.5781,1.5848,1.5482,1.5629,1.582,1.5822,1.5836,1.5771,1.6137,1.6176,1.5852,1.5531,1.5359,1.5279,1.468,1.4723,1.4881,1.4795,1.4874,1.4803,1.4852,1.4792,1.4646,1.467,1.4738,1.4827,1.4919,1.4799,1.5068,1.4818,1.4336,1.3948,1.3223,1.3224,1.3627,1.5605,1.9461,2.4173,2.7563,2.8939,3.1536,2.8658,2.1955,1.5974,1.2041,1.0857,0.97207,0.97045,1.0109,1.1539,1.2799,1.4077,1.4588,1.497,1.4819,1.4681,1.4413,1.4837,1.5353,1.5003,1.5189,1.5398,1.5093,1.5178,1.5035,1.5327,1.5302,1.5433,1.5488,1.5296,1.5161,1.5038,1.5075,1.5376,1.5,1.5424,1.5082,1.5271,1.5373,1.5235,1.561,1.5416,1.5341,1.5051,1.5377,1.5292,1.5326,1.5454,1.5568,1.5403,1.5284,1.5268,1.5475,1.5371,1.5335,1.5674,1.5548,1.5596,1.5514,1.5402,1.5597,1.555,1.5178,1.5855,1.5845,1.5754,1.5783,1.5575,1.5853,1.6,1.576,1.5878,1.6002,1.6126,1.6245,1.6008,1.6181,1.5891,1.6074,1.625,1.6085,1.5959,1.6193,1.5998,1.5934,1.5731,1.5721,1.5704,1.5836,1.5564,1.5568,1.5421,1.5465,1.5334,1.5554,1.5266,1.5494,1.5221,1.5173,1.5572,1.5778,1.559,1.5575,1.5346,1.5523,1.5624,1.5564,1.5449,1.5227,1.5176,1.5454,1.5538,1.5443,1.5572,1.5231,1.5273,1.5509,1.5716,1.5706,1.5479,1.5312,1.5535,1.5331,1.5398,1.5586,1.5504,1.5341,1.5349,1.523,1.5542,1.5439,1.5024,1.5236,1.5422,1.5326,1.5524,1.5428,1.5407,1.5314,1.5289,1.5146,1.5362,1.5268,1.5437,1.5371,1.5265,1.5302,1.5288,1.5379,1.4981,1.5026,1.5152,1.5483,1.5477,1.546,1.526,1.5251,1.5352,1.5247,1.5253,1.5127,1.5315,1.5456,1.5397,1.5189,1.5329,1.5302,1.5363,1.5348,1.5434,1.538,1.5731,1.6145,1.599,1.5888,1.6131,1.6186,1.6302,1.6303,1.6102,1.6123,1.5823,1.5942,1.5638,1.5212,1.5177,1.5141,1.5109,1.5151,1.4989,1.512,1.4861,1.4833,1.4777,1.5248,1.5113,1.5066,1.5115,1.5072,1.5085,1.4828,1.4383,1.3555,1.3317,1.3397,1.4039,1.6035,1.9964,2.4593,2.8116,2.9495,3.2482,2.899,2.2246,1.597,1.1954,1.0793,0.9761,1.0359,1.1444,1.3121,1.4135,1.4785,1.4966,1.4982,1.488,1.5022,1.4824,1.5256,1.5283,1.5442,1.5168,1.4916,1.5288,1.5349,1.517,1.5509,1.5339,1.5405,1.5248,1.5358,1.5401,1.5618,1.5586,1.544,1.5378,1.5348,1.5494,1.5414,1.5569,1.5445,1.563,1.5559,1.5504,1.5539,1.5372,1.5596,1.5617,1.5557,1.552,1.5547,1.5449,1.5766,1.5692,1.544,1.5776,1.5631,1.5633,1.5533,1.5496,1.553,1.5956,1.5862,1.5767,1.5846,1.5629,1.5818,1.6112,1.6149,1.6283,1.6072,1.6169,1.6352,1.6331,1.6389,1.6474,1.6368,1.6497,1.6432,1.6525,1.6493,1.6382,1.6387,1.63,1.604,1.6074,1.6124,1.6104,1.5839,1.5902,1.601,1.5923,1.5954,1.5867,1.5921,1.5947,1.5629,1.5922,1.5715,1.5715,1.5734,1.5573,1.5503,1.5624,1.5932,1.5734,1.5657,1.5735,1.596,1.5668,1.5623,1.5734,1.5592,1.5781,1.5824,1.5773,1.5483,1.58,1.5614,1.5794,1.601,1.5554,1.5413,1.5528,1.6036,1.5777,1.565,1.5625,1.549,1.5539,1.5676,1.5599,1.5699,1.5382,1.5345,1.5741,1.5629,1.5455,1.5385,1.5587,1.562,1.5598,1.5577,1.5576,1.5595,1.5436,1.5436,1.5484,1.5405,1.5143,1.5604,1.5661,1.5521,1.538,1.551,1.5356,1.5509,1.5399,1.5521,1.5294,1.5522,1.5439,1.5533,1.5391,1.5329,1.5498,1.5557,1.5445,1.5083,1.5206,1.5377,1.5479,1.561,1.5666,1.5414,1.5273,1.5163,1.5226,1.537,1.5362,1.5503,1.5712,1.5742,1.6021,1.5939,1.6044,1.6274,1.6322,1.6194,1.6308,1.6328,1.6191,1.6283,1.5936,1.5975,1.5688,1.547,1.5107,1.5014,1.5324,1.4982,1.5026,1.531,1.5127,1.5108,1.501,1.5104,1.5145,1.5208,1.5094,1.5102,1.5155,1.4915,1.4667,1.3508,1.3876,1.3923,1.454,1.751,2.2099,2.6243,2.8236,2.9748,3.0885,2.6033,1.9267,1.4057,1.1788,1.0675,0.9828,1.0158,1.0556,1.1719,1.3342,1.4238,1.474,1.4963,1.4964,1.518,1.4921,1.4876,1.5562,1.5518,1.5113,1.5294,1.5181,1.5569,1.5384,1.5462,1.5394,1.5308,1.4997,1.5471,1.5459,1.5307,1.5287,1.5351,1.5435,1.5427,1.5592,1.5366,1.5504,1.5412,1.5355,1.5555,1.5622,1.5639,1.5319,1.5586,1.5519,1.5709,1.5557,1.532,1.5313,1.5735,1.5531,1.5399,1.5475,1.5578,1.5594,1.562,1.5736,1.5788,1.5902,1.5971,1.5811,1.567,1.5817,1.5946,1.5902,1.5969,1.5996,1.6045,1.6216,1.6332,1.6311,1.6245,1.6403,1.6023,1.6417,1.6707,1.6628,1.6356,1.6306,1.6259,1.6407,1.6218,1.6129,1.6161,1.6157,1.5936,1.582,1.5762,1.5983,1.5843,1.5593,1.5347,1.5624,1.5965,1.5907,1.588,1.5496,1.5477,1.5859,1.5849,1.5632,1.5725,1.587,1.5739,1.5959,1.5786,1.5642,1.5619,1.5567,1.5565,1.5942,1.5726,1.5853,1.5774,1.5691,1.5748,1.5939,1.5693,1.5619,1.5702,1.575,1.5692,1.5634,1.5682,1.5755,1.5742,1.5621,1.564,1.5505,1.5725,1.5514,1.5326,1.536,1.5828,1.5564,1.5373,1.5488,1.5532,1.5477,1.5393,1.5608,1.5533,1.5434,1.5514,1.5327,1.5638,1.5325,1.5478,1.5439,1.5674,1.5926,1.5669,1.6134,1.5886,1.5941,1.6295,1.6159,1.6163,1.6504,1.6397,1.6302,1.6174,1.5935,1.5898,1.5689,1.5595,1.4928,1.4997,1.5042,1.4999,1.5174,1.5106,1.5088,1.5015,1.5097,1.5048,1.5148,1.5213,1.5154,1.5059,1.5099,1.4895,1.4699,1.3944,1.3523,1.3813,1.4408,1.6826,2.1246,2.5454,2.8211,2.9408,3.1296,2.6867,2.0157,1.4569,1.1665,1.0657,0.95598,1.0192,1.1122,1.1956,1.3399,1.4668,1.4809,1.4997,1.4898,1.5125,1.4819,1.5024,1.5283,1.5503,1.5483,1.5334,1.527,1.5377,1.5218,1.5585,1.5265,1.5314,1.5269,1.5636,1.5241,1.5565,1.5618,1.5539,1.5254,1.5613,1.5624,1.5634,1.5187,1.551,1.5888,1.5465,1.539,1.5642,1.5687,1.5833,1.5464,1.5756,1.5403,1.563,1.5658,1.5611,1.5739,1.5685,1.5563,1.5793,1.5599,1.5675,1.5767,1.5447,1.5651,1.5814,1.6098,1.5931,1.6039,1.5741,1.6074,1.5903,1.6214,1.6171,1.5982,1.631,1.6499,1.6485,1.6497,1.6297,1.618,1.6331,1.6338,1.6411,1.6309,1.6265,1.6044,1.5874,1.6016,1.5644,1.5762,1.5776,1.5551,1.5589,1.5788,1.5567,1.553,1.5518,1.536,1.5276,1.5544,1.5277,1.5512,1.5576,1.5518,1.5464,1.557,1.5371,1.579,1.5258,1.5405,1.5537,1.5579,1.573,1.5446,1.5515,1.5451,1.5482,1.527,1.5544,1.5656,1.5444,1.5552,1.5409,1.548,1.5226,1.5456,1.5464,1.5449,1.5355,1.5453,1.5468,1.5297,1.5095,1.5106,1.5729,1.5605,1.5261,1.5313,1.535,1.536,1.5299,1.5296,1.5172,1.5252,1.5163,1.5445,1.5372,1.5099,1.5179,1.52,1.5282,1.5357,1.5072,1.5121,1.5261,1.5123,1.5384,1.5305,1.5338,1.5418,1.5065,1.5216,1.5555,1.565,1.5533,1.5783,1.577,1.595,1.6118,1.5989,1.6079,1.6289,1.6171,1.6007,1.5912,1.5733,1.5383,1.5262,1.5054,1.4829,1.493,1.4884,1.4873,1.4797,1.5278,1.496,1.5052,1.4933,1.4828,1.4928,1.5052,1.4966,1.4791,1.4744,1.4292,1.3781,1.3325,1.3574,1.4607,1.7685,2.1948,2.5857,2.8148,3.0248,3.1558,2.6018,1.9612,1.3974,1.204,1.0943,0.96987,0.99844,1.0983,1.2643,1.3874,1.4666,1.482,1.4889,1.4912,1.5147,1.5057,1.4857,1.4976,1.4939,1.4859,1.5315,1.5392,1.5301,1.5107,1.4953,1.5085,1.5406,1.5316,1.5265,1.5112,1.5124,1.5441,1.5369,1.5148,1.5308,1.5339,1.5403,1.5148,1.5363,1.5308,1.5257,1.5406,1.5287,1.5175,1.5587,1.5248,1.535,1.5338,1.5691,1.5519,1.5381,1.5543,1.5281,1.5388,1.5656,1.5616,1.5485,1.538,1.5581,1.5363,1.5678,1.5665,1.5671,1.5652,1.5611,1.6019,1.6049,1.601,1.5745,1.6015,1.5933,1.6309,1.6137,1.6333,1.6362,1.6338,1.611,1.6089,1.622,1.6211,1.6043,1.6052,1.5939,1.6204,1.5699,1.5846,1.5699,1.5675,1.556,1.5537,1.5674,1.5689,1.5518,1.5484,1.5412,1.5459,1.5577,1.5521,1.543,1.5644,1.5691,1.5608,1.5525,1.5501,1.5396,1.5655,1.5699,1.551,1.5408,1.5319,1.5446,1.5534,1.5567,1.5643,1.5563,1.5297,1.5405,1.5393,1.528,1.5178,1.5465,1.566,1.5476,1.5441,1.5484,1.5442,1.5402,1.5334,1.5414,1.5356,1.5375,1.5223,1.5293,1.5259,1.529,1.5444,1.5388,1.5201,1.5137,1.5144,1.5324,1.5384,1.5387,1.5246,1.5258,1.507,1.5167,1.508,1.528,1.5312,1.5263,1.5209,1.5153,1.4919,1.5133,1.5201,1.5412,1.5107,1.5134,1.5112,1.5094,1.5314,1.521,1.5374,1.5238,1.4893,1.5346,1.5101,1.5115,1.5233,1.5357,1.5297,1.5526,1.5845,1.5534,1.5822,1.559,1.586,1.5889,1.6207,1.6021,1.6087,1.606,1.6164,1.6046,1.5786,1.5665,1.5253,1.5219,1.5203,1.4956,1.4937,1.5017,1.5086,1.4954,1.4863,1.497,1.4477,1.4974,1.5026,1.4885,1.5166,1.4845,1.5125,1.4728,1.3896,1.3636,1.3393,1.4032,1.5611,1.9315,2.3813,2.7308,2.8812,3.1237,2.9554,2.3092,1.6912,1.2482,1.1531,1.043,0.96601,0.98167,1.1059,1.2883,1.3889,1.4219,1.4768,1.5132,1.5157,1.5071,1.5027,1.4977,1.5112,1.5011,1.5026,1.4877,1.5139,1.5185,1.535,1.5403,1.5166,1.5149,1.5003,1.5051,1.519,1.5086,1.5244,1.5292,1.5302,1.5241,1.5357,1.5286,1.5245,1.535,1.5283,1.5158,1.5166,1.5224,1.5261,1.5571,1.524,1.5415,1.5328,1.532,1.5431,1.5413,1.5383,1.5289,1.5322,1.5301,1.5328,1.5428,1.5616,1.5518,1.5557,1.5604,1.5529,1.5383,1.5585,1.5761,1.569,1.585,1.5788,1.5818,1.5938,1.5957,1.5961,1.6152,1.6343,1.6227,1.6221,1.602,1.5886,1.628,1.6327,1.6087,1.6014,1.6012,1.5717,1.5766,1.5535,1.5725,1.5703,1.5471,1.568,1.55,1.5388,1.5479,1.5401,1.5501,1.5571,1.5321,1.5248,1.5429,1.5346,1.5371,1.5456,1.5447,1.5413,1.5377,1.5235,1.5537,1.5279,1.5303,1.5341,1.5538,1.5286,1.5255,1.5267,1.5189,1.5422,1.5404,1.5378,1.5093,1.4962,1.5066,1.5334,1.531,1.5338,1.5279,1.5239,1.5077,1.5142,1.4933,1.5058,1.527,1.5297,1.5423,1.5176,1.5134,1.5062,1.5113,1.5068,1.4958,1.4882,1.4893,1.5335,1.5188,1.5023,1.5184,1.502,1.4895,1.5265,1.5044,1.5231,1.5488,1.5635,1.5393,1.5356,1.5778,1.593,1.5992,1.5963,1.6079,1.5955,1.6123,1.5781,1.5491,1.5417,1.5348,1.4975,1.4794,1.4999,1.4612,1.4874,1.4739,1.4733,1.4791,1.4773,1.4785,1.4695,1.4722,1.4828,1.5057,1.5065,1.4589,1.4817,1.4258,1.3333,1.3285,1.3228,1.3971,1.7511,2.1802,2.5886,2.8296,2.9408,3.0253,2.5284,1.8747,1.3724,1.1328,1.0149,0.9594,1.0005,1.0124,1.1478,1.3007,1.4108,1.4581,1.494,1.4923,1.4779,1.4822,1.5117,1.4824,1.5077,1.4999,1.492,1.5222,1.5255,1.4963,1.5161,1.5236,1.5299,1.5361,1.5344,1.5398,1.5206,1.519,1.5193,1.5293,1.5114,1.5311,1.5457,1.5304,1.5044,1.5348,1.562,1.5279,1.543,1.542,1.5439,1.5371,1.5372,1.5296,1.5229,1.5269,1.5463,1.5567,1.5548,1.5433,1.5307,1.5644,1.5516,1.5356,1.5552,1.5604,1.5416,1.5643,1.5831,1.5846,1.5703,1.5729,1.571,1.5792,1.5914,1.6142,1.613,1.6213,1.6125,1.6183,1.6425,1.6379,1.6336,1.6162,1.6097,1.5947,1.607,1.6037,1.5754,1.579,1.5703,1.5821,1.5682,1.5548,1.5573,1.5546,1.5417,1.5295,1.5279,1.5196,1.5411,1.5568,1.5461,1.5404,1.5451,1.528,1.5203,1.5617,1.5313,1.5034,1.5373,1.5602,1.5372,1.5494,1.5385,1.5586,1.5396,1.5341,1.5402,1.5353,1.5575,1.5211,1.524,1.5177,1.5362,1.5544,1.5484,1.5112,1.5367,1.5389,1.5369,1.5271,1.5307,1.5096,1.5101,1.5191,1.5091,1.535,1.5161,1.505,1.4914,1.5205,1.5243,1.5275,1.524,1.5133,1.5122,1.515,1.5164,1.5191,1.5132,1.4922,1.4884,1.5336,1.5682,1.555,1.588,1.5888,1.5315,1.5727,1.5988,1.5806,1.6228,1.6133,1.5801,1.5771,1.5824,1.5323,1.5458,1.5326,1.499,1.4826,1.4746,1.4803,1.4796,1.4761,1.4944,1.486,1.4849,1.4776,1.466,1.4614,1.4597,1.5091,1.4894,1.4983,1.4256,1.3519,1.337,1.3151,1.3924,1.6043,2.0107,2.4359,2.774,2.9654,3.2148,2.8477,2.1677,1.5353,1.2871,1.0815,0.95249,1.0246,1.1269,1.3185,1.368,1.5032,1.482,1.5012,1.4608,1.4766,1.4991,1.5328,1.4903,1.4998,1.4826,1.532,1.5027,1.5117,1.4827,1.5208,1.5212,1.5329,1.5238,1.52,1.5085,1.5271,1.544,1.5344,1.5104,1.5153,1.5211,1.5489,1.5192,1.5207,1.509,1.5454,1.535,1.5111,1.5108,1.5471,1.5199,1.5347,1.5488,1.5365,1.5529,1.5301,1.5186,1.5029,1.5452,1.531,1.5361,1.556,1.5376,1.5231,1.5215,1.5051,1.5428,1.5515,1.5549,1.5414,1.5488,1.5751,1.5633,1.5812,1.5977,1.5656,1.5821,1.5869,1.5942,1.5744,1.5808,1.5776,1.617,1.595,1.5968,1.5653,1.5574,1.5657,1.5795,1.5537,1.5606,1.5388,1.5708,1.5338,1.5369,1.5278,1.5228,1.5284,1.5323,1.5332,1.559,1.5475,1.5613,1.5461,1.5336,1.5265,1.5425,1.5369,1.5728,1.5265,1.5339,1.5353,1.5544,1.5739,1.5606,1.546,1.5334,1.4965,1.5575,1.5588,1.5741,1.5649,1.5399,1.539,1.5372,1.5585,1.5647,1.5596,1.5365,1.5466,1.5448,1.5513,1.5327,1.5552,1.5525,1.5545,1.558,1.5508,1.522,1.5005,1.5569,1.5515,1.5579,1.576,1.5521,1.5583,1.5294,1.5586,1.5503,1.5481,1.5435,1.5474,1.5269,1.5491,1.5296,1.5446,1.5793,1.5851,1.613,1.6175,1.6001,1.5796,1.6211,1.651,1.6336,1.6434,1.643,1.6497,1.6249,1.5969,1.5829,1.5776,1.4966,1.5068,1.529,1.5302,1.477,1.5251,1.5174,1.5304,1.5227,1.5293,1.5205,1.4815,1.5515,1.5245,1.5213,1.5226,1.4796,1.4295,1.3746,1.372,1.3824,1.4536,1.7399,2.1964,2.6006,2.8507,3.0055,3.17,2.6597,2.0006,1.4317,1.1736,1.0607,0.99721,1.0734,1.169,1.3423,1.4455,1.5162,1.4925,1.5096,1.4716,1.5309,1.5108,1.5231,1.5309,1.5534,1.5469,1.5549,1.5387,1.5513,1.5261,1.5182,1.5353,1.5498,1.5547,1.5588,1.5564,1.5384,1.5617,1.5571,1.5233,1.5688,1.5377,1.5289,1.5346,1.5617,1.5742,1.5551,1.5699,1.5713,1.5714,1.5455,1.5569,1.5442,1.5468,1.5527,1.566,1.553,1.5226,1.5355,1.5897,1.5645,1.5584,1.5741,1.5523,1.5794,1.589,1.5816,1.5741,1.5735,1.5811,1.5996,1.5888,1.5998,1.607,1.6044,1.6392,1.6191,1.6203,1.6135,1.6118,1.6353,1.6627,1.642,1.6589,1.6556,1.6192,1.6261,1.6168,1.6013,1.5895,1.5962,1.5906,1.5773,1.5757,1.5728,1.5333,1.5408,1.5776,1.5711,1.5646,1.5525,1.5634,1.5529,1.5445,1.5712,1.5623,1.5601,1.5548,1.5349,1.5604,1.5551,1.5599,1.5648,1.5514,1.5504,1.5464,1.5569,1.5339,1.5281,1.521,1.525,1.5611,1.5456,1.5321,1.5232,1.5399,1.5436,1.5348,1.5335,1.5179,1.5065,1.5419,1.5267,1.5252,1.5495,1.5436,1.5515,1.5169,1.5436,1.5158,1.5091,1.5098,1.5124,1.5052,1.5316,1.5108,1.5111,1.5215,1.5248,1.5278,1.5463,1.5571,1.5761,1.5765,1.5486,1.5371,1.5643,1.5973,1.6249,1.6073,1.6177,1.6157,1.6061,1.5884,1.5475,1.5342,1.5269,1.5142,1.4907,1.4761,1.5131,1.4877,1.475,1.5006,1.5245,1.5228,1.4864,1.4942,1.494,1.5001,1.4878,1.5054,1.4853,1.5033,1.4032,1.33,1.3332,1.3839,1.5394,1.9108,2.3804,2.7071,2.8538,3.039,2.837,2.5506,1.9201,1.4184,1.1705,1.0211,0.98734,0.99173,1.1022,1.2096,1.357,1.4255,1.4823,1.4995,1.5035,1.5192,1.4993,1.4845,1.5446,1.5243,1.5474,1.5349,1.537,1.5364,1.5237,1.5461,1.5339,1.5432,1.5564,1.5619,1.5325,1.5578,1.5471,1.5514,1.5757,1.5448,1.5533,1.5206,1.5381,1.5549,1.5749,1.5661,1.5824,1.5493,1.5821,1.5753,1.5688,1.5419,1.5615,1.5695,1.5711,1.5776,1.5808,1.5593,1.5812,1.5742,1.5769,1.5841,1.584,1.5768,1.5869,1.5662,1.5866,1.5749,1.6122,1.5924,1.6181,1.6399,1.6238,1.6218,1.6161,1.6344,1.6424,1.6486,1.6474,1.6667,1.6596,1.6627,1.6541,1.6583,1.6474,1.6273,1.6254,1.6106,1.6142,1.6237,1.6066,1.5936,1.5935,1.5909,1.5653,1.5792,1.5786,1.5946,1.5704,1.5843,1.5681,1.5589,1.573,1.5659,1.5937,1.5878,1.5812,1.5707,1.5667,1.582,1.5698,1.5945,1.5686,1.5916,1.5704,1.5621,1.5578,1.5785,1.5888,1.5801,1.5856,1.5818,1.589,1.5545,1.5412,1.5689,1.5795,1.5658,1.5706,1.567,1.5515,1.5791,1.55,1.5553,1.5452,1.5583,1.5492,1.5539,1.5512,1.532,1.5543,1.5655,1.5523,1.5588,1.5381,1.5317,1.5331,1.5604,1.558,1.5362,1.5387,1.533,1.5523,1.5471,1.5526,1.5537,1.544,1.5502,1.5773,1.5822,1.6044,1.6091,1.5806,1.5631,1.6254,1.6462,1.6402,1.6458,1.6178,1.6279,1.628,1.6019,1.5947,1.5732,1.5157,1.5383,1.5418,1.5143,1.5159,1.5309,1.5179,1.5172,1.5122,1.5135,1.5126,1.5272,1.5149,1.5301,1.5186,1.507,1.5141,1.4428,1.38,1.3802,1.3899,1.5248,1.871,2.3087,2.7129,2.8739,3.097,3.1986,2.7938,2.1422,1.5497,1.1889,1.0552,1.0268,1.0437,1.1423,1.314,1.3848,1.5232,1.5173,1.5151,1.51,1.5224,1.5408,1.5621,1.5565,1.5481,1.5478,1.5425,1.5183,1.5554,1.5401,1.5517,1.5532,1.5364,1.5688,1.5567,1.5433,1.5656,1.5645,1.559,1.5569,1.5583,1.5659,1.5342,1.5671,1.5641,1.5761,1.5701,1.5641,1.533,1.5228,1.5902,1.5694,1.5657,1.5747,1.5674,1.5808,1.575,1.5751,1.5502,1.565,1.5724,1.5867,1.5624,1.5673,1.5613,1.5371,1.591,1.5789,1.5785,1.6032,1.6052,1.5826,1.609,1.6213,1.5787,1.6349,1.6316,1.6518,1.6466,1.6492,1.6464,1.6415,1.6315,1.6454,1.6324,1.6344,1.6178,1.6331,1.618,1.64,1.6135,1.6152,1.5898,1.5868,1.6074,1.5802,1.5676,1.5822,1.5877,1.5874,1.5861,1.5743,1.5855,1.5825,1.5847,1.5612,1.5831,1.574,1.6012,1.5808,1.574,1.5931,1.5626,1.5787,1.5926,1.572,1.5706,1.5797,1.5747,1.5566,1.5696,1.5581,1.5666,1.5644,1.5687,1.5418,1.597,1.5927,1.5792,1.5721,1.571,1.5516,1.5565,1.5644,1.5444,1.5621,1.5493,1.5852,1.5665,1.5383,1.5705,1.578,1.5521,1.5672,1.5593,1.5478,1.5591,1.5549,1.5481,1.5571,1.5545,1.5421,1.5531,1.548,1.5362,1.5511,1.5493,1.5592,1.5382,1.5578,1.5653,1.5742,1.5968,1.6049,1.5909,1.6023,1.5868,1.5858,1.6291,1.6589,1.6552,1.656,1.6264,1.6387,1.6316,1.5971,1.6088,1.5639,1.5299,1.5064,1.55,1.5395,1.5224,1.5386,1.5318,1.5128,1.4886,1.5083,1.5523,1.5217,1.551,1.5228,1.52,1.5195,1.4756,1.3934,1.3629,1.3764,1.4762,1.7264,2.1409,2.3901,2.7272,2.9051,3.1544,2.9985,2.3253,1.7272,1.2414,1.1354,1.0001,1.0031,1.1127,1.2652,1.387,1.4971,1.495,1.5099,1.5025,1.529,1.5128,1.5427,1.539,1.538,1.5417,1.5492,1.5211,1.5526,1.5677,1.544,1.5344,1.5494,1.5781,1.5521,1.545,1.5521,1.5619,1.5638,1.5624,1.5563,1.5642,1.5436,1.5411,1.5586,1.5778,1.5632,1.5542,1.5667,1.5625,1.5916,1.5522,1.5552,1.5653,1.5681,1.5729,1.5647,1.5645,1.5646,1.569,1.5346,1.5603,1.5861,1.5687,1.5676,1.5535,1.5557,1.5822,1.5902,1.5985,1.6057,1.5792,1.5827,1.61,1.5937,1.5836,1.6402,1.6329,1.645,1.6435,1.6355,1.6453,1.6375,1.6586,1.6345,1.6537,1.6244,1.6311,1.6193,1.6244,1.6214,1.6055,1.603,1.6092,1.6068,1.5834,1.5712,1.5729,1.5934,1.5825,1.5774,1.5904,1.5792,1.5996,1.588,1.6003,1.5827,1.5888,1.5733,1.6013,1.5866,1.5845,1.5813,1.5651,1.5525,1.5902,1.5744,1.5904,1.5725,1.5574,1.5699,1.5707,1.6035,1.5492,1.5768,1.5844,1.5867,1.573,1.5658,1.5518,1.5434,1.5704,1.5698,1.5844,1.5498,1.5733,1.5752,1.5799,1.5534,1.5597,1.5387,1.538,1.5839,1.5559,1.5711,1.5579,1.5508,1.5337,1.5516,1.5359,1.5642,1.554,1.5529,1.5607,1.5616,1.5472,1.5602,1.5629,1.5557,1.5237,1.547,1.5758,1.6164,1.63,1.6252,1.5933,1.5915,1.6447,1.6481,1.6602,1.6422,1.6222,1.6475,1.6507,1.6039,1.5772,1.5518,1.5327,1.5467,1.5485,1.5447,1.5306,1.5342,1.5324,1.5474,1.5183,1.5224,1.5405,1.5045,1.5169,1.5486,1.5235,1.5303,1.5267,1.4414,1.3672,1.3623,1.4179,1.4577,1.7137,2.1367,2.5768,2.8746,3.0048,3.1847,2.7628,2.1008,1.5019,1.181,1.0565,0.98472,1.0733,1.1918,1.3588,1.466,1.5141,1.5082,1.554,1.5453,1.558,1.5211,1.5472,1.5384,1.5527,1.5473,1.5753,1.5501,1.5377,1.5569,1.5753,1.5565,1.5726,1.5743,1.5832,1.5762,1.5933,1.5731,1.5742,1.5693,1.5535,1.5647,1.5737,1.5947,1.5745,1.6008,1.5782,1.5632,1.5708,1.5874,1.5903,1.5956,1.5937,1.5914,1.589,1.5959,1.5803,1.5532,1.5544,1.604,1.5862,1.5988,1.6032,1.5935,1.5981,1.5959,1.5953,1.6111,1.6105,1.5908,1.615,1.6174,1.6413,1.6143,1.6222,1.6572,1.6641,1.6596,1.6699,1.6651,1.6804,1.6781,1.6765,1.6611,1.6762,1.6569,1.662,1.6487,1.6507,1.6163,1.6264,1.6307,1.5825,1.6312,1.609,1.6128,1.5847,1.5948,1.6194,1.5775,1.5808,1.6045,1.6066,1.6091,1.5905,1.6105,1.5687,1.5891,1.6013,1.5755,1.5821,1.6031,1.5827,1.5811,1.5718,1.5833,1.5972,1.5992,1.5845,1.5803,1.5623,1.581,1.5822,1.6039,1.5657,1.6044,1.597,1.5785,1.5557,1.5728,1.5718,1.5677,1.6077,1.5836,1.5633,1.5875,1.6002,1.5734,1.5681,1.5409,1.5792,1.5639,1.5629,1.5753,1.5522,1.5635,1.5835,1.5729,1.5726,1.5529,1.5531,1.5411,1.5565,1.5668,1.5665,1.5599,1.5711,1.5662,1.5414,1.5646,1.5653,1.5397,1.5435,1.5483,1.5539,1.5615,1.5588,1.5745,1.5448,1.5461,1.5508,1.5511,1.5545,1.5636,1.5472,1.5461,1.5547,1.5611,1.5858,1.5662,1.5578,1.5466,1.5604,1.5795,1.5587,1.5888,1.5988,1.6002,1.6244,1.5925,1.6251,1.6272,1.6286,1.6505,1.6412,1.6038,1.6093,1.6019,1.5484,1.5155,1.547,1.523,1.5427,1.5218,1.5211,1.52,1.5352,1.5213,1.5082,1.5223,1.53,1.5452,1.5348,1.52,1.4759,1.4351,1.374,1.3947,1.417,1.5275,1.8592,2.3015,2.6653,2.8469,3.0115,2.965,2.4096,1.7406,1.3485,1.1447,1.0376,1.0221,1.054,1.1235,1.2011,1.3217,1.4577,1.5097,1.4981,1.5116,1.5562,1.5263,1.5339,1.5326,1.5389,1.5461,1.5534,1.5384,1.5427,1.5549,1.5288,1.5723,1.5942,1.5612,1.5659,1.563,1.5555,1.5612,1.5703,1.5513,1.5742,1.5806,1.564,1.57,1.5742,1.5466,1.599,1.5769,1.5707,1.5713,1.5592,1.5579,1.5839,1.5949,1.6081,1.5952,1.5559,1.55,1.5707,1.5809,1.5908,1.5807,1.5762,1.5607,1.5643,1.5813,1.5735,1.5883,1.5958,1.595,1.5996,1.6062,1.583,1.6207,1.6125,1.6343,1.599,1.6589,1.646,1.6545,1.6689,1.6678,1.6653,1.6855,1.6558,1.6755,1.6359,1.6638,1.6391,1.6326,1.6217,1.6184,1.6042,1.6026,1.6212,1.6208,1.6048,1.584,1.5946,1.6035,1.6041,1.566,1.5689,1.6148,1.5928,1.6093,1.5817,1.5829,1.6073,1.591,1.5658,1.6018,1.6084,1.5843,1.6013,1.5969,1.6128,1.5859,1.5815,1.5757,1.6132,1.5986,1.5789,1.5728,1.602,1.5897,1.5795,1.5738,1.5588,1.5754,1.5827,1.5758,1.5805,1.5709,1.5577,1.587,1.5705,1.5635,1.5851,1.5752,1.5703,1.5676,1.5579,1.5342,1.5588,1.5794,1.5764,1.5768,1.567,1.5463,1.5664,1.5714,1.5624,1.5625,1.5357,1.5574,1.6068,1.6027,1.6148,1.6227,1.6149,1.6003,1.6335,1.6594,1.6516,1.65,1.6539,1.6502,1.6398,1.616,1.5999,1.5915,1.5401,1.5312,1.5447,1.5467,1.5389,1.5229,1.5223,1.5274,1.5171,1.5465,1.5579,1.5425,1.5393,1.5157,1.5473,1.5355,1.5103,1.4232,1.3879,1.3803,1.4183,1.5711,1.9242,2.3348,2.698,2.8958,3.0724,3.0378,2.4432,1.7864,1.3309,1.1555,1.0345,1.0161,1.0891,1.2203,1.3767,1.4692,1.525,1.5334,1.5425,1.5378,1.5407,1.5081,1.5266,1.5736,1.5594,1.5667,1.6017,1.5742,1.5935,1.5807,1.5616,1.5628,1.5789,1.5829,1.5932,1.5879,1.5963,1.5746,1.5998,1.5985,1.5683,1.5845,1.5937,1.5872,1.6107,1.5843,1.584,1.5818,1.5952,1.5898,1.5913,1.5732,1.6151,1.5965,1.6044,1.6217,1.6015,1.6108,1.5944,1.6167,1.6032,1.5996,1.5979,1.6154,1.6069,1.5993,1.6191,1.583,1.6046,1.6332,1.6362,1.647,1.6293,1.6361,1.6638,1.6699,1.6256,1.6503,1.6472,1.672,1.6687,1.6881,1.6701,1.6791,1.6597,1.6424,1.6277,1.6238,1.6407,1.6266,1.5995,1.6141,1.6049,1.5965,1.5821,1.5809,1.5691,1.6022,1.5953,1.6,1.5978,1.5754,1.5742,1.5918,1.5921,1.5781,1.584,1.5872,1.571,1.5717,1.5901,1.5791,1.5953,1.5937,1.5802,1.5922,1.5871,1.5843,1.591,1.5592,1.6071,1.594,1.5658,1.5731,1.5835,1.5851,1.5774,1.571,1.5885,1.5899,1.5688,1.5801,1.5865,1.578,1.5603,1.597,1.5811,1.5811,1.5691,1.5716,1.5654,1.5909,1.5791,1.5766,1.5776,1.5715,1.5801,1.5733,1.5705,1.5825,1.5961,1.5838,1.5624,1.5669,1.5672,1.5798,1.5728,1.5759,1.568,1.5867,1.5562,1.577,1.5844,1.5725,1.597,1.6011,1.6131,1.6234,1.6677,1.6287,1.6112,1.6822,1.6883,1.6691,1.6937,1.6707,1.6682,1.6556,1.6339,1.613,1.627,1.5737,1.5683,1.5582,1.5437,1.5715,1.577,1.5636,1.5669,1.5801,1.5715,1.5842,1.5811,1.5704,1.5761,1.5669,1.5743,1.5162,1.4454,1.4374,1.4326,1.5425,1.809,2.2232,2.632,2.9222,3.1184,3.2259,2.7186,2.0626,1.5142,1.2124,1.1059,1.0592,1.0959,1.1919,1.3622,1.4848,1.5844,1.5717,1.6194,1.6198,1.6086,1.6345,1.6353,1.6357,1.6468,1.5882,1.6187,1.5813,1.6065,1.6097,1.6244,1.6098,1.6341,1.5697,1.5625,1.5962,1.6028,1.5966,1.608,1.5877,1.5931,1.5804,1.5604,1.6056,1.65,1.637,1.647,1.649,1.6493,1.66,1.6636,1.675,1.6806,1.6638,1.6658,1.677,1.6866,1.6792,1.6721,1.7032,1.7,1.6447,1.6477,1.6403,1.6545,1.6871,1.7247,1.7163,1.698,1.682,1.6816,1.6898,1.689,1.6863,1.7103,1.6967,1.7006,1.6977,1.712,1.7123,1.721,1.7477,1.7099,1.7111,1.6779,1.6758,1.7108,1.7136,1.6922,1.7023,1.6661,1.6942,1.6677,1.6553,1.6388,1.6648,1.6717,1.654,1.6337,1.6408,1.6285,1.6371,1.6434,1.6469,1.6452,1.6664,1.6235,1.6377,1.67,1.6643,1.6297,1.6501,1.6757,1.6898,1.6316,1.625,1.6026,1.632,1.634,1.5754,1.6467,1.6121,1.6024,1.6141,1.6153,1.6448,1.6211,1.6387,1.6207,1.6313,1.6075,1.6364,1.6415,1.6023,1.6083,1.6342,1.6165,1.5697,1.5969,1.6536,1.639,1.6526,1.6281,1.6295,1.6135,1.6384,1.6358,1.6271,1.6194,1.6252,1.6146,1.6237,1.6235,1.5739,1.5847,1.6351,1.6086,1.6003,1.6035,1.5941,1.6135,1.5901,1.5991,1.5819,1.5888,1.5743,1.6057,1.5849,1.5762,1.6035,1.6069,1.6063,1.6331,1.6624,1.6477,1.6155,1.6395,1.6619,1.6462,1.6804,1.7074,1.683,1.6853,1.6636,1.62,1.6087,1.6215,1.5671,1.542,1.5596,1.5653,1.5533,1.5596,1.5358,1.5512,1.5373,1.5621,1.5505,1.5444,1.5357,1.5506,1.5736,1.563,1.4808,1.3974,1.4147,1.4514,1.4738,1.6395,2.0693,2.5279,2.8123,2.9391,3.2159,2.923,2.2412,1.6657,1.2782,1.1422,1.0072,1.0431,1.1618,1.3112,1.4259,1.552,1.5656,1.5824,1.5725,1.5803,1.5701,1.5594,1.5471,1.6012,1.6134,1.607,1.6057,1.6164,1.5962,1.5933,1.6005,1.6368,1.6328,1.6204,1.6034,1.6022,1.5909,1.6107,1.6355,1.6289,1.6094,1.6068,1.6218,1.6283,1.6042,1.5929,1.6175,1.6211,1.6287,1.633,1.6281,1.6033,1.6313,1.6205,1.6263,1.6246,1.6329,1.6421,1.6413,1.6177,1.6386,1.651,1.6327,1.6176,1.6116,1.6154,1.6376,1.6468,1.6394,1.6553,1.6643,1.6565,1.6448,1.6683,1.6882,1.6945,1.6928,1.6699,1.6907,1.7293,1.7343,1.7121,1.7106,1.7225,1.7464,1.7099,1.7132,1.6975,1.6901,1.6854,1.6703,1.664,1.6715,1.6548,1.6608,1.6607,1.6463,1.651,1.6199,1.6254,1.6589,1.6548,1.6563,1.6604,1.6557,1.6405,1.6587,1.6496,1.6557,1.6643,1.6619,1.6357,1.6306,1.6458,1.6401,1.6687,1.6688,1.629,1.6479,1.6052,1.6368,1.6579,1.6411,1.6625,1.6462,1.6481,1.6203,1.6237,1.628,1.6398,1.6436,1.6435,1.6214,1.6205,1.6227,1.6354,1.6236,1.6077,1.6303,1.6439,1.6337,1.6215,1.6378,1.6433,1.6345,1.6721,1.6659,1.6674,1.6574,1.6591,1.698,1.7271,1.7154,1.7285,1.728,1.7339,1.7105,1.6742,1.6465,1.6473,1.6462,1.5848,1.5721,1.5774,1.5935,1.5936,1.593,1.5741,1.5649,1.5728,1.59,1.5905,1.5994,1.5555,1.5899,1.6162,1.5882,1.5332,1.4924,1.4376,1.4347,1.4882,1.6821,2.0968,2.5825,2.8389,2.9492,3.0809,2.7768,2.1478,1.5556,1.2846,1.1565,1.0765,1.1032,1.1006,1.1769,1.3016,1.4147,1.495,1.5674,1.5965,1.5872,1.5755,1.5911,1.5983,1.6169,1.6078,1.6098,1.6051,1.6075,1.6434,1.6255,1.6165,1.6197,1.6267,1.6453,1.6283,1.6283,1.6304,1.6243,1.642,1.6219,1.6426,1.6341,1.6155,1.6526,1.6273,1.6532,1.6328,1.6153,1.6063,1.6645,1.6616,1.6418,1.658,1.642,1.6355,1.6288,1.6288,1.6209,1.6311,1.6546,1.6487,1.6334,1.6474,1.6628,1.6672,1.6443,1.6682,1.6926,1.6961,1.6839,1.6844,1.6792,1.6821,1.6817,1.6979,1.7301,1.704,1.7198,1.7426,1.7428,1.746,1.7268,1.7007,1.6955,1.6889,1.6947,1.7027,1.6847,1.6941,1.6801,1.6784,1.6601,1.6541,1.6392,1.6565,1.6554,1.6607,1.6498,1.6532,1.6507,1.656,1.6711,1.6395,1.6427,1.6768,1.669,1.6552,1.628,1.699,1.6927,1.6638,1.658,1.6576,1.661,1.656,1.675,1.6687,1.6482,1.6674,1.6862,1.6703,1.6775,1.6948,1.6658,1.701,1.6913,1.6994,1.7166,1.6975,1.6873,1.6776,1.7355,1.7386,1.7614,1.7719,1.7501,1.7187,1.7162,1.7368,1.7911,1.7908,1.8297,1.7792,1.7103,1.7512,1.7738,1.7328,1.6704,1.6762,1.6715,1.6802,1.6866,1.6752,1.6836,1.73,1.7168,1.697,1.7013,1.7049,1.7067,1.7373,1.7163,1.6986,1.7012,1.6942,1.593,1.5613,1.5775,1.5937,1.7211,2.0411,2.4714,2.8834,3.0075,3.2003,3.1659,2.573,1.9675,1.4713,1.2853,1.2207,1.197,1.2358,1.3382,1.4866,1.6008,1.6686,1.6692,1.6573,1.6621,1.7096,1.7228,1.7086,1.6839,1.6889,1.7071,1.7169,1.7312,1.7586,1.742,1.7264,1.7409,1.7447,1.7776,1.7523,1.7665,1.7674,1.7877,1.7911,1.7798,1.7876,1.7964,1.7896,1.8106,1.8057,1.8282,1.7981,1.8353,1.839,1.8495,1.8316,1.8531,1.8686,1.8532,1.8675,1.8717,1.8951,1.909,1.8816,1.8726,1.8508,1.8847,1.9351,1.9252,1.9142,1.8942,1.8912,1.9119,1.9142,1.9024,1.9043,1.8905,1.941,1.9417,1.9339,1.9563,1.9386,1.9605,1.9878,1.9949,2.0028,2.0095,2.0133,2.0404,2.038,2.0107,2.0193,2.0783,2.0261,2.0008,2.0092,2.0636,2.0378,2.0139,2.0033,1.9919,1.9914,1.9459,1.9529,1.9593,1.9687,1.9959,1.9503,1.9685,1.9719,1.9612,2.0062,1.9996,1.9984,1.9534,1.9916,1.9992,2.0277,2.0118,2.0075,1.9911,2.0047,1.9625,1.9784,1.9413,1.9428,1.924,1.9252,1.895,1.8574,1.836,1.802,1.8286,1.8245,1.8145,1.8094,1.7531,1.7901,1.7397,1.7297,1.7178,1.7373,1.7691,1.7581,1.7602,1.7198,1.6931,1.6669,1.6561,1.6076,1.5518,1.5557,1.5794,1.5326,1.5307,1.5377,1.4969,1.5541,1.5549,1.5201,1.5308,1.5227,1.5211,1.513,1.5244,1.5114,1.5292,1.4594,1.4067,1.3286,1.3789,1.408,1.6307,2.0122,2.4255,2.8083,2.942,3.1905,2.7981,2.4718,1.9329,1.2677,1.0785,0.93519,1.0446,1.0856,1.2185,1.332,1.4542,1.505,1.5273,1.5022,1.5477,1.4707,1.5553,1.5723,1.5417,1.5023,1.5673,1.578,1.5891,1.5865,1.6151,1.618,1.6218,1.6667,1.6428,1.6683,1.7056,1.7124,1.6755,1.6567,1.7492,1.7767,1.7044,1.7094,1.712,1.7088,1.676,1.7217,1.7577,1.7275,1.6953,1.7093,1.6811,1.7005,1.7025,1.6866,1.7064,1.6593,1.7201,1.7084,1.6848,1.7159,1.7194,1.6725,1.7031,1.7425,1.7098,1.7036,1.7647,1.6878,1.6788,1.6743,1.6856,1.7177,1.7302,1.6947,1.6986,1.7268,1.7496,1.7468,1.7413,1.7443,1.7234,1.7257,1.7283,1.7001,1.678,1.7343,1.691,1.7325,1.6864,1.7042,1.6688,1.714,1.674,1.7015,1.7056,1.7332,1.715,1.7202,1.7708,1.7575,1.7321,1.7226,1.7447,1.7711,1.7437,1.7577,1.7808,1.7616,1.7281,1.763,1.7614,1.7608,1.7343,1.7465,1.725,1.7151,1.7473,1.7747,1.7474,1.7552,1.7457,1.6988,1.7218,1.7577,1.733,1.785,1.7631,1.7691,1.7364,1.7045,1.7374,1.7689,1.7811,1.7942,1.7943,1.7879,1.7317,1.7438,1.7407,1.7513,1.7098,1.6668,1.6548,1.6375,1.6137,1.6089,1.6097,1.5934,1.6197,1.6061,1.6079,1.5934,1.5656,1.5541,1.602,1.628,1.601,1.5757,1.5426,1.4966,1.4248,1.4032,1.3928,1.4674,1.8333,2.2746,2.6349,2.7935,2.9104,2.8561,2.3168,1.7484,1.2959,1.0308,0.83604,0.72574,0.69458,0.7663,1.0461,1.352,1.5921,1.6619,1.7137,1.765,1.8091,1.7921,1.8189,1.8027,1.801,1.8012,1.8046,1.7963,1.8177,1.8408,1.8491,1.8049,1.8423,1.8094,1.8169,1.7538,1.7499,1.7483,1.6859,1.7091,1.6914,1.6874,1.6751,1.7183,1.6868,1.6885,1.7077,1.6393,1.6391,1.6418,1.6687,1.6798,1.6699,1.6605,1.656,1.6151,1.621,1.6096,1.6155,1.5986,1.6061,1.6253,1.6195,1.6122,1.6029,1.5976,1.6113,1.5541,1.5,1.4279,1.3524,1.2308,1.19,1.1765,1.188,1.2336,1.2456,1.2067,1.261,1.2517,1.2523,1.2384,1.2224,1.211,1.2331,1.254,1.2337,1.2186,1.2297,1.2376,1.2634,1.2348,1.2418,1.2468,1.2679,1.2832,1.3099,1.2998,1.3083,1.3409,1.3642,1.3672,1.3726,1.3638,1.4178,1.3991,1.4095,1.428,1.4345,1.4373,1.4231,1.4277,1.4277,1.4123,1.3883,1.4509,1.459,1.4527,1.3969,1.4208,1.4275,1.3984,1.4127,1.4377,1.4489,1.4502,1.4376,1.4479,1.4512,1.4538,1.4867,1.516,1.5046,1.5564,1.5404,1.5473,1.4917,1.5049,1.5142,1.4907,1.4789,1.4464,1.4314,1.4177,1.4189,1.4582,1.4294,1.4228,1.4158,1.4127,1.4556,1.47,1.4906,1.5281,1.5517,1.5974,1.6395,1.6423,1.622,1.594,1.5063,1.4724,1.5459,1.7941,2.2215,2.6036,2.7966,2.9436,3.0229,2.6212,1.9996,1.4964,1.2111,1.137,1.0432,1.0846,1.1078,1.2172,1.3315,1.4996,1.5473,1.6222,1.5875,1.6209,1.643,1.623,1.6301,1.6466,1.63,1.645,1.6333,1.6428,1.614,1.5939,1.6203,1.602,1.6006,1.6195,1.5899,1.5896,1.5668,1.5601,1.5536,1.548,1.5471,1.5559,1.5764,1.5532,1.5132,1.5533,1.5571,1.5404,1.5597,1.5245,1.5354,1.5429,1.5198,1.4853,1.5096,1.5266,1.5289,1.5249,1.5163,1.5128,1.5727,1.5867,1.5638,1.5896,1.5604,1.5457,1.5918,1.6016,1.6202,1.6299,1.641,1.6681,1.6713,1.6721,1.6826,1.7169,1.7339,1.7403,1.7764,1.7271,1.7255,1.7305,1.7373,1.7131,1.7223,1.727,1.6993,1.7002,1.7092,1.6911,1.6893,1.6763,1.6818,1.6732,1.6645,1.6892,1.6848,1.681,1.6739,1.6338,1.6419,1.6406,1.6315,1.6254,1.6283,1.6423,1.6066,1.5795,1.5857,1.5524,1.5946,1.5719,1.595,1.5812,1.5834,1.5573,1.5587,1.572,1.5575,1.5527,1.5811,1.5739,1.6007,1.5917,1.5838,1.5565,1.5723,1.5593,1.5779,1.595,1.5917,1.5488,1.5693,1.5228,1.5076,1.4769,1.4509,1.4086,1.3688,1.3893,1.3589,1.356,1.3666,1.3568,1.3465,1.3438,1.3262,1.3246,1.3274,1.3229,1.3003,1.2625,1.2747,1.2215,1.2614,1.2093,1.0881,1.0364,0.9873,0.99855,1.1381,1.4861,1.8209,2.048,2.1139,2.2331,1.8194,1.5208,0.98079,0.54372,0.46632,0.41369,0.49565,0.61234,0.78691,0.92581,0.99578,1.1223,1.2887,1.2842,1.3362,1.4002,1.4601,1.4677,1.458,1.4107,1.4288,1.4068,1.4261,1.4031,1.4342,1.4099,1.392,1.3676,1.3618,1.3469,1.3479,1.347,1.3651,1.3464,1.3395,1.3433,1.3463,1.3397,1.3315,1.3615,1.3778,1.3784,1.4094,1.4366,1.4476,1.485,1.4967,1.5233,1.5494,1.6075,1.6635,1.6991,1.7414,1.7839,1.8138,1.8414,1.8836,1.9163,1.9114,1.9442,1.9429,1.9484,1.9235,1.9356,1.9043,1.8877,1.8736,1.866,1.8505,1.8474,1.8361,1.8255,1.8133,1.8188,1.778,1.7779,1.7526,1.7547,1.7372,1.7377,1.7439,1.7757,1.7453,1.7468,1.774,1.7805,1.7959,1.7898,1.7734,1.7652,1.8098,1.8237,1.8373,1.8327,1.8206,1.8367,1.835,1.8288,1.8094,1.8218,1.8184,1.8166,1.8176,1.8234,1.8082,1.8102,1.8038,1.795,1.7768,1.7812,1.7775,1.7663,1.7525,1.727,1.706,1.6866,1.6764,1.6667,1.6408,1.6322,1.6151,1.612,1.6163,1.6101,1.5963,1.602,1.5885,1.5861,1.6107,1.6343,1.6304,1.6359,1.6197,1.6317,1.6345,1.6153,1.6247,1.5941,1.5845,1.5764,1.5709,1.5623,1.5507,1.5499,1.5613,1.5694,1.5675,1.5614,1.5563,1.5601,1.5689,1.5574,1.5476,1.5437,1.5376,1.4915,1.4285,1.3883,1.3881,1.3996,1.5041,1.8455,2.2959,2.6882,2.882,3.0978,3.0736,2.494,1.8872,1.407,1.2021,1.108,1.0932,1.1405,1.2712,1.4122,1.5042,1.5511,1.5449,1.5439,1.5431,1.551,1.5617,1.5633,1.5643,1.5626,1.581,1.5789,1.5854,1.572,1.5869,1.6044,1.6184,1.6114,1.6124,1.6087,1.6053,1.6188,1.62,1.6238,1.6093,1.6316,1.6351,1.6295,1.6414,1.6318,1.6253,1.6219,1.64,1.6544,1.6431,1.6336,1.6372,1.6652,1.6573,1.6609,1.6516,1.6341,1.6554,1.6659,1.6793,1.668,1.6676,1.702,1.7053,1.703,1.7056,1.7208,1.7273,1.7112,1.7176,1.7183,1.7488,1.7736,1.7401,1.753,1.7635,1.7536,1.7862,1.7947,1.7814,1.7804,1.8003,1.7829,1.7685,1.7256,1.7487,1.7801,1.7757,1.7387,1.7311,1.748,1.7331,1.7202,1.7423,1.7035,1.6925,1.7208,1.7297,1.7211,1.7272,1.7237,1.7212,1.7351,1.7145,1.7305,1.7205,1.7074,1.7161,1.6976,1.7016,1.7148,1.7001,1.7249,1.7061,1.6956,1.6985,1.7064,1.6932,1.6859,1.7085,1.6892,1.6994,1.7075,1.7,1.6805,1.6773,1.6938,1.6914,1.7083,1.7266,1.6956,1.6802,1.6831,1.6934,1.6908,1.6924,1.6969,1.68,1.6964,1.6844,1.684,1.6691,1.6786,1.6824,1.6695,1.6717,1.6834,1.692,1.6819,1.672,1.6798,1.6728,1.7058,1.7249,1.726
