-20.416,-20.417,-20.41,-20.408,-20.4,-20.403,-20.426,-20.445,-20.474,-20.496,-20.542,-20.584,-20.616,-20.639,-20.669,-20.696,-20.742,-20.765,-20.774,-20.773,-20.79,-20.797,-20.818,-20.832,-20.83,-20.833,-20.845,-20.84,-20.844,-20.83,-20.83,-20.837,-20.836,-20.836,-20.825,-20.823,-20.83,-20.829,-20.827,-20.817,-20.816,-20.823,-20.831,-20.835,-20.827,-20.821,-20.823,-20.834,-20.831,-20.818,-20.816,-20.821,-20.828,-20.829,-20.823,-20.819,-20.826,-20.837,-20.833,-20.823,-20.826,-20.828,-20.834,-20.836,-20.838,-20.843,-20.846,-20.856,-20.853,-20.841,-20.839,-20.846,-20.853,-20.855,-20.844,-20.845,-20.835,-20.845,-20.842,-20.842,-20.841,-20.838,-20.846,-20.851,-20.846,-20.843,-20.842,-20.854,-20.86,-20.854,-20.846,-20.844,-20.853,-20.858,-20.852,-20.846,-20.841,-20.85,-20.851,-20.852,-20.847,-20.844,-20.85,-20.86,-20.855,-20.842,-20.839,-20.841,-20.848,-20.849,-20.842,-20.84,-20.832,-20.834,-20.833,-20.825,-20.828,-20.819,-20.82,-20.815,-20.797,-20.786,-20.766,-20.744,-20.741,-20.753,-20.779,-20.792,-20.794,-20.792,-20.796,-20.803,-20.82,-20.845,-20.852,-20.857,-20.859,-20.866,-20.874,-20.874,-20.867,-20.866,-20.868,-20.878,-20.874,-20.87,-20.865,-20.876,-20.882,-20.88,-20.874,-20.869,-20.873,-20.881,-20.882,-20.899,-20.948,-20.967,-20.879,-20.784,-20.56,-20.285,-20.008,-19.626,-19.515,-19.725,-20.176,-20.609,-20.929,-20.976,-20.921,-20.856,-20.79,-20.791,-20.795,-20.812,-20.801,-20.821,-20.823,-20.83,-20.825,-20.813,-20.8,-20.805,-20.811,-20.814,-20.787,-20.788,-20.785,-20.787,-20.782,-20.772,-20.768,-20.775,-20.768,-20.76,-20.745,-20.749,-20.747,-20.75,-20.739,-20.726,-20.721,-20.726,-20.726,-20.714,-20.698,-20.684,-20.68,-20.681,-20.663,-20.643,-20.629,-20.625,-20.623,-20.6,-20.577,-20.556,-20.553,-20.55,-20.537,-20.518,-20.487,-20.473,-20.468,-20.45,-20.435,-20.41,-20.403,-20.402,-20.398,-20.378,-20.37,-20.368,-20.389,-20.4,-20.418,-20.433,-20.464,-20.481,-20.522,-20.564,-20.585,-20.629,-20.668,-20.7,-20.714,-20.726,-20.746,-20.775,-20.792,-20.796,-20.79,-20.792,-20.813,-20.819,-20.822,-20.809,-20.814,-20.811,-20.824,-20.817,-20.806,-20.808,-20.803,-20.813,-20.807,-20.799,-20.802,-20.796,-20.808,-20.803,-20.792,-20.794,-20.8,-20.809,-20.802,-20.788,-20.789,-20.785,-20.803,-20.812,-20.803,-20.798,-20.798,-20.813,-20.812,-20.804,-20.806,-20.806,-20.824,-20.819,-20.81,-20.816,-20.821,-20.835,-20.829,-20.821,-20.816,-20.815,-20.827,-20.834,-20.828,-20.818,-20.827,-20.841,-20.843,-20.834,-20.824,-20.827,-20.838,-20.836,-20.821,-20.819,-20.826,-20.84,-20.843,-20.832,-20.823,-20.829,-20.829,-20.832,-20.835,-20.821,-20.826,-20.836,-20.844,-20.837,-20.814,-20.817,-20.835,-20.832,-20.821,-20.805,-20.794,-20.795,-20.785,-20.757,-20.737,-20.726,-20.739,-20.769,-20.78,-20.772,-20.774,-20.793,-20.81,-20.82,-20.821,-20.834,-20.853,-20.863,-20.866,-20.863,-20.868,-20.871,-20.883,-20.879,-20.87,-20.867,-20.867,-20.881,-20.873,-20.875,-20.872,-20.875,-20.876,-20.874,-20.874,-20.871,-20.877,-20.889,-20.886,-20.917,-20.972,-20.96,-20.84,-20.619,-20.477,-20.187,-19.838,-19.58,-19.523,-19.862,-20.293,-20.717,-20.971,-20.966,-20.906,-20.846,-20.8,-20.797,-20.792,-20.804,-20.786,-20.794,-20.801,-20.809,-20.799,-20.795,-20.786,-20.797,-20.799,-20.795,-20.78,-20.778,-20.777,-20.779,-20.772,-20.763,-20.757,-20.763,-20.76,-20.755,-20.741,-20.735,-20.74,-20.752,-20.748,-20.728,-20.716,-20.715,-20.719,-20.705,-20.692,-20.682,-20.669,-20.667,-20.657,-20.64,-20.629,-20.621,-20.61,-20.591,-20.568,-20.562,-20.553,-20.547,-20.53,-20.504,-20.489,-20.472,-20.467,-20.448,-20.439,-20.427,-20.416,-20.412,-20.4,-20.384,-20.387,-20.394,-20.422,-20.435,-20.448,-20.474,-20.51,-20.527,-20.569,-20.594,-20.613,-20.652,-20.692,-20.73,-20.751,-20.759,-20.773,-20.787,-20.801,-20.805,-20.808,-20.81,-20.82,-20.824,-20.826,-20.817,-20.82,-20.827,-20.835,-20.827,-20.807,-20.807,-20.807,-20.818,-20.818,-20.803,-20.801,-20.804,-20.813,-20.805,-20.791,-20.797,-20.801,-20.803,-20.803,-20.795,-20.799,-20.805,-20.811,-20.808,-20.796,-20.79,-20.8,-20.816,-20.826,-20.814,-20.815,-20.814,-20.823,-20.825,-20.824,-20.824,-20.822,-20.831,-20.839,-20.83,-20.829,-20.831,-20.838,-20.836,-20.829,-20.825,-20.837,-20.845,-20.848,-20.847,-20.839,-20.838,-20.842,-20.844,-20.838,-20.836,-20.844,-20.861,-20.856,-20.847,-20.832,-20.83,-20.842,-20.853,-20.859,-20.836,-20.841,-20.852,-20.856,-20.851,-20.836,-20.842,-20.855,-20.854,-20.84,-20.825,-20.831,-20.842,-20.841,-20.831,-20.821,-20.81,-20.805,-20.797,-20.771,-20.744,-20.749,-20.784,-20.808,-20.808,-20.8,-20.796,-20.808,-20.813,-20.828,-20.845,-20.864,-20.887,-20.889,-20.888,-20.884,-20.881,-20.877,-20.896,-20.889,-20.888,-20.877,-20.882,-20.896,-20.894,-20.878,-20.881,-20.879,-20.895,-20.899,-20.888,-20.884,-20.885,-20.899,-20.927,-20.943,-20.976,-20.923,-20.778,-20.555,-20.297,-19.99,-19.612,-19.526,-19.775,-20.226,-20.642,-20.943,-20.988,-20.966,-20.902,-20.806,-20.805,-20.814,-20.83,-20.816,-20.819,-20.816,-20.828,-20.828,-20.83,-20.808,-20.813,-20.808,-20.82,-20.805,-20.8,-20.792,-20.804,-20.797,-20.789,-20.78,-20.787,-20.781,-20.774,-20.768,-20.759,-20.755,-20.755,-20.765,-20.765,-20.742,-20.739,-20.73,-20.726,-20.715,-20.695,-20.692,-20.681,-20.68,-20.672,-20.648,-20.638,-20.627,-20.621,-20.61,-20.593,-20.572,-20.55,-20.538,-20.527,-20.505,-20.494,-20.48,-20.47,-20.461,-20.441,-20.43,-20.416,-20.421,-20.411,-20.393,-20.395,-20.413,-20.431,-20.447,-20.472,-20.495,-20.525,-20.572,-20.61,-20.638,-20.659,-20.702,-20.734,-20.77,-20.782,-20.787,-20.798,-20.824,-20.836,-20.837,-20.83,-20.841,-20.848,-20.849,-20.854,-20.846,-20.843,-20.853,-20.852,-20.854,-20.838,-20.842,-20.842,-20.841,-20.828,-20.819,-20.821,-20.834,-20.83,-20.828,-20.819,-20.826,-20.827,-20.837,-20.832,-20.831,-20.82,-20.825,-20.828,-20.832,-20.826,-20.824,-20.826,-20.845,-20.841,-20.833,-20.837,-20.843,-20.85,-20.858,-20.843,-20.843,-20.846,-20.849,-20.858,-20.862,-20.858,-20.862,-20.869,-20.862,-20.862,-20.853,-20.861,-20.869,-20.876,-20.862,-20.851,-20.869,-20.886,-20.878,-20.866,-20.866,-20.867,-20.867,-20.874,-20.87,-20.864,-20.865,-20.875,-20.869,-20.872,-20.862,-20.867,-20.881,-20.879,-20.872,-20.859,-20.862,-20.877,-20.88,-20.874,-20.867,-20.868,-20.872,-20.878,-20.872,-20.87,-20.864,-20.872,-20.875,-20.871,-20.861,-20.868,-20.875,-20.874,-20.866,-20.867,-20.873,-20.879,-20.885,-20.88,-20.863,-20.864,-20.871,-20.878,-20.87,-20.863,-20.861,-20.87,-20.882,-20.88,-20.873,-20.869,-20.865,-20.882,-20.877,-20.865,-20.868,-20.871,-20.884,-20.88,-20.873,-20.869,-20.869,-20.874,-20.874,-20.876,-20.865,-20.863,-20.883,-20.879,-20.864,-20.865,-20.865,-20.877,-20.885,-20.879,-20.876,-20.873,-20.884,-20.882,-20.876,-20.865,-20.868,-20.875,-20.879,-20.875,-20.863,-20.866,-20.871,-20.881,-20.881,-20.864,-20.86,-20.87,-20.873,-20.869,-20.864,-20.872,-20.875,-20.878,-20.873,-20.866,-20.865,-20.867,-20.877,-20.861,-20.847,-20.856,-20.861,-20.863,-20.848,-20.824,-20.816,-20.804,-20.78,-20.768,-20.763,-20.795,-20.817,-20.824,-20.828,-20.827,-20.836,-20.833,-20.851,-20.865,-20.869,-20.875,-20.891,-20.909,-20.904,-20.89,-20.88,-20.88,-20.895,-20.904,-20.893,-20.891,-20.898,-20.898,-20.893,-20.897,-20.889,-20.889,-20.914,-20.96,-20.992,-20.911,-20.743,-20.533,-20.297,-20,-19.645,-19.6,-19.883,-20.316,-20.696,-20.948,-20.974,-20.904,-20.877,-20.804,-20.79,-20.802,-20.829,-20.837,-20.835,-20.821,-20.823,-20.825,-20.823,-20.82,-20.808,-20.802,-20.816,-20.817,-20.812,-20.793,-20.796,-20.795,-20.801,-20.787,-20.779,-20.77,-20.777,-20.781,-20.775,-20.76,-20.755,-20.758,-20.759,-20.742,-20.735,-20.727,-20.72,-20.723,-20.703,-20.684,-20.674,-20.674,-20.677,-20.661,-20.643,-20.627,-20.621,-20.615,-20.592,-20.565,-20.543,-20.531,-20.526,-20.5,-20.481,-20.466,-20.457,-20.455,-20.433,-20.409,-20.404,-20.395,-20.395,-20.39,-20.378,-20.37,-20.378,-20.401,-20.41,-20.429,-20.451,-20.493,-20.531,-20.57,-20.594,-20.625,-20.659,-20.701,-20.733,-20.747,-20.764,-20.78,-20.784,-20.8,-20.809,-20.812,-20.82,-20.835,-20.833,-20.832,-20.818,-20.815,-20.818,-20.825,-20.825,-20.809,-20.817,-20.82,-20.82,-20.809,-20.801,-20.802,-20.804,-20.818,-20.817,-20.806,-20.802,-20.8,-20.814,-20.813,-20.8,-20.804,-20.803,-20.815,-20.815,-20.804,-20.807,-20.806,-20.811,-20.816,-20.811,-20.819,-20.823,-20.827,-20.828,-20.827,-20.826,-20.829,-20.836,-20.84,-20.831,-20.83,-20.83,-20.838,-20.833,-20.83,-20.832,-20.844,-20.848,-20.842,-20.834,-20.831,-20.835,-20.849,-20.852,-20.848,-20.836,-20.841,-20.851,-20.843,-20.841,-20.83,-20.829,-20.841,-20.846,-20.847,-20.842,-20.848,-20.855,-20.846,-20.853,-20.846,-20.848,-20.845,-20.854,-20.853,-20.838,-20.838,-20.85,-20.855,-20.854,-20.844,-20.841,-20.85,-20.859,-20.85,-20.839,-20.839,-20.849,-20.85,-20.845,-20.841,-20.842,-20.855,-20.858,-20.855,-20.842,-20.837,-20.848,-20.853,-20.855,-20.853,-20.844,-20.851,-20.863,-20.867,-20.857,-20.846,-20.847,-20.848,-20.851,-20.852,-20.846,-20.849,-20.859,-20.862,-20.851,-20.846,-20.843,-20.848,-20.851,-20.852,-20.849,-20.853,-20.863,-20.857,-20.846,-20.835,-20.837,-20.849,-20.857,-20.854,-20.847,-20.842,-20.86,-20.856,-20.848,-20.844,-20.841,-20.851,-20.841,-20.836,-20.838,-20.848,-20.857,-20.853,-20.844,-20.836,-20.837,-20.848,-20.858,-20.852,-20.834,-20.826,-20.836,-20.847,-20.853,-20.838,-20.821,-20.812,-20.809,-20.798,-20.775,-20.754,-20.741,-20.756,-20.776,-20.777,-20.779,-20.792,-20.805,-20.81,-20.802,-20.809,-20.833,-20.859,-20.868,-20.861,-20.862,-20.867,-20.877,-20.869,-20.867,-20.866,-20.868,-20.87,-20.868,-20.853,-20.86,-20.863,-20.87,-20.881,-20.883,-20.895,-20.943,-20.939,-20.822,-20.623,-20.388,-20.137,-19.785,-19.579,-19.648,-20.03,-20.475,-20.834,-20.979,-20.928,-20.848,-20.785,-20.778,-20.778,-20.799,-20.787,-20.802,-20.802,-20.803,-20.792,-20.784,-20.792,-20.791,-20.788,-20.789,-20.77,-20.773,-20.77,-20.775,-20.763,-20.752,-20.754,-20.758,-20.761,-20.761,-20.748,-20.742,-20.741,-20.742,-20.733,-20.708,-20.705,-20.702,-20.709,-20.711,-20.685,-20.672,-20.665,-20.665,-20.658,-20.627,-20.618,-20.618,-20.615,-20.598,-20.586,-20.568,-20.552,-20.545,-20.521,-20.499,-20.477,-20.462,-20.454,-20.435,-20.413,-20.396,-20.383,-20.38,-20.373,-20.352,-20.35,-20.349,-20.353,-20.351,-20.346,-20.356,-20.383,-20.422,-20.454,-20.479,-20.506,-20.55,-20.6,-20.629,-20.664,-20.684,-20.711,-20.741,-20.762,-20.766,-20.769,-20.774,-20.792,-20.798,-20.801,-20.796,-20.796,-20.806,-20.818,-20.81,-20.801,-20.8,-20.805,-20.807,-20.802,-20.79,-20.791,-20.799,-20.799,-20.795,-20.787,-20.788,-20.789,-20.804,-20.802,-20.788,-20.788,-20.797,-20.8,-20.787,-20.777,-20.78,-20.791,-20.801,-20.803,-20.79,-20.787,-20.792,-20.804,-20.805,-20.806,-20.803,-20.807,-20.818,-20.812,-20.806,-20.813,-20.819,-20.836,-20.828,-20.817,-20.819,-20.821,-20.827,-20.828,-20.818,-20.815,-20.817,-20.831,-20.836,-20.833,-20.825,-20.821,-20.837,-20.849,-20.845,-20.83,-20.827,-20.841,-20.841,-20.841,-20.83,-20.829,-20.838,-20.844,-20.84,-20.828,-20.827,-20.843,-20.845,-20.841,-20.839,-20.835,-20.845,-20.843,-20.844,-20.835,-20.834,-20.838,-20.848,-20.855,-20.847,-20.845,-20.843,-20.846,-20.842,-20.827,-20.84,-20.848,-20.855,-20.851,-20.84,-20.843,-20.838,-20.848,-20.854,-20.843,-20.841,-20.845,-20.853,-20.848,-20.84,-20.839,-20.853,-20.85,-20.851,-20.838,-20.841,-20.844,-20.853,-20.857,-20.852,-20.841,-20.847,-20.85,-20.852,-20.845,-20.847,-20.849,-20.858,-20.861,-20.845,-20.841,-20.843,-20.856,-20.861,-20.852,-20.852,-20.855,-20.859,-20.858,-20.864,-20.849,-20.849,-20.855,-20.86,-20.864,-20.85,-20.848,-20.858,-20.868,-20.857,-20.85,-20.855,-20.865,-20.86,-20.851,-20.838,-20.83,-20.83,-20.838,-20.835,-20.822,-20.816,-20.814,-20.807,-20.781,-20.748,-20.744,-20.767,-20.798,-20.805,-20.8,-20.8,-20.814,-20.832,-20.848,-20.867,-20.871,-20.876,-20.885,-20.893,-20.887,-20.877,-20.884,-20.892,-20.889,-20.878,-20.881,-20.884,-20.888,-20.876,-20.873,-20.884,-20.891,-20.908,-20.931,-20.972,-20.956,-20.903,-20.755,-20.515,-20.246,-19.913,-19.631,-19.582,-19.874,-20.31,-20.713,-20.978,-20.981,-20.914,-20.859,-20.799,-20.793,-20.822,-20.825,-20.819,-20.82,-20.813,-20.817,-20.81,-20.811,-20.81,-20.807,-20.809,-20.808,-20.805,-20.798,-20.792,-20.792,-20.785,-20.78,-20.765,-20.775,-20.772,-20.78,-20.77,-20.756,-20.753,-20.752,-20.758,-20.743,-20.728,-20.729,-20.726,-20.727,-20.713,-20.686,-20.68,-20.675,-20.672,-20.664,-20.65,-20.641,-20.627,-20.612,-20.593,-20.564,-20.558,-20.544,-20.536,-20.522,-20.496,-20.484,-20.467,-20.473,-20.456,-20.434,-20.42,-20.408,-20.403,-20.387,-20.377,-20.377,-20.381,-20.404,-20.418,-20.432,-20.439,-20.46,-20.507,-20.527,-20.556,-20.603,-20.641,-20.683,-20.72,-20.734,-20.752,-20.77,-20.795,-20.812,-20.825,-20.828,-20.829,-20.835,-20.838,-20.838,-20.831,-20.832,-20.833,-20.843,-20.841,-20.823,-20.828,-20.829,-20.836,-20.83,-20.814,-20.822,-20.826,-20.826,-20.824,-20.812,-20.819,-20.822,-20.823,-20.822,-20.809,-20.81,-20.817,-20.829,-20.834,-20.823,-20.819,-20.821,-20.831,-20.829,-20.818,-20.821,-20.836,-20.844,-20.844,-20.824,-20.832,-20.846,-20.853,-20.855,-20.853,-20.842,-20.844,-20.849,-20.85,-20.851,-20.843,-20.851,-20.863,-20.862,-20.851,-20.847,-20.851,-20.86,-20.866,-20.86,-20.855,-20.857,-20.869,-20.867,-20.866,-20.856,-20.853,-20.867,-20.866,-20.867,-20.858,-20.856,-20.859,-20.866,-20.866,-20.855,-20.858,-20.872,-20.873,-20.869,-20.858,-20.854,-20.868,-20.871,-20.874,-20.867,-20.859,-20.867,-20.872,-20.868,-20.861,-20.861,-20.868,-20.869,-20.866,-20.86,-20.862,-20.875,-20.867,-20.863,-20.854,-20.86,-20.877,-20.885,-20.883,-20.872,-20.867,-20.866,-20.874,-20.875,-20.866,-20.866,-20.868,-20.876,-20.875,-20.865,-20.857,-20.863,-20.872,-20.866,-20.854,-20.856,-20.865,-20.876,-20.873,-20.864,-20.862,-20.858,-20.87,-20.876,-20.866,-20.863,-20.848,-20.864,-20.849,-20.838,-20.834,-20.83,-20.835,-20.829,-20.813,-20.786,-20.764,-20.753,-20.769,-20.786,-20.806,-20.816,-20.822,-20.819,-20.823,-20.829,-20.857,-20.886,-20.897,-20.894,-20.89,-20.892,-20.899,-20.901,-20.894,-20.885,-20.885,-20.889,-20.898,-20.894,-20.885,-20.888,-20.895,-20.902,-20.901,-20.893,-20.938,-20.979,-20.933,-20.784,-20.546,-20.298,-20.011,-19.654,-19.557,-19.761,-19.984,-20.411,-20.807,-20.979,-20.969,-20.889,-20.835,-20.805,-20.808,-20.802,-20.809,-20.814,-20.831,-20.819,-20.811,-20.803,-20.816,-20.816,-20.813,-20.792,-20.79,-20.793,-20.794,-20.801,-20.799,-20.785,-20.786,-20.785,-20.778,-20.763,-20.751,-20.748,-20.752,-20.757,-20.752,-20.744,-20.74,-20.733,-20.725,-20.711,-20.7,-20.697,-20.694,-20.689,-20.679,-20.652,-20.646,-20.638,-20.628,-20.614,-20.584,-20.564,-20.556,-20.549,-20.531,-20.507,-20.487,-20.475,-20.463,-20.445,-20.425,-20.417,-20.416,-20.412,-20.389,-20.367,-20.359,-20.367,-20.368,-20.373,-20.368,-20.391,-20.417,-20.449,-20.486,-20.514,-20.547,-20.596,-20.639,-20.668,-20.681,-20.706,-20.736,-20.765,-20.778,-20.789,-20.799,-20.811,-20.832,-20.831,-20.828,-20.824,-20.828,-20.834,-20.829,-20.824,-20.828,-20.83,-20.837,-20.833,-20.828,-20.821,-20.819,-20.82,-20.815,-20.816,-20.805,-20.797,-20.811,-20.819,-20.82,-20.813,-20.809,-20.819,-20.812,-20.804,-20.8,-20.806,-20.815,-20.811,-20.81,-20.807,-20.801,-20.808,-20.819,-20.812,-20.808,-20.809,-20.82,-20.824,-20.809,-20.808,-20.814,-20.833,-20.834,-20.836,-20.827,-20.828,-20.824,-20.827,-20.828,-20.824,-20.827,-20.831,-20.845,-20.842,-20.829,-20.827,-20.829,-20.846,-20.837,-20.825,-20.832,-20.842,-20.85,-20.84,-20.825,-20.833,-20.848,-20.851,-20.839,-20.835,-20.834,-20.837,-20.853,-20.85,-20.841,-20.834,-20.844,-20.85,-20.853,-20.845,-20.844,-20.849,-20.855,-20.848,-20.846,-20.842,-20.838,-20.84,-20.841,-20.84,-20.833,-20.839,-20.849,-20.862,-20.855,-20.843,-20.843,-20.846,-20.84,-20.837,-20.826,-20.835,-20.845,-20.851,-20.856,-20.851,-20.855,-20.849,-20.853,-20.85,-20.842,-20.842,-20.848,-20.851,-20.845,-20.831,-20.831,-20.844,-20.85,-20.843,-20.839,-20.845,-20.855,-20.852,-20.851,-20.842,-20.845,-20.852,-20.857,-20.855,-20.842,-20.845,-20.846,-20.852,-20.851,-20.846,-20.849,-20.856,-20.864,-20.848,-20.845,-20.84,-20.85,-20.858,-20.85,-20.833,-20.827,-20.822,-20.824,-20.818,-20.804,-20.8,-20.793,-20.789,-20.759,-20.73,-20.748,-20.771,-20.799,-20.807,-20.801,-20.794,-20.813,-20.834,-20.855,-20.87,-20.869,-20.874,-20.882,-20.879,-20.877,-20.869,-20.873,-20.888,-20.889,-20.892,-20.885,-20.886,-20.894,-20.89,-20.88,-20.879,-20.877,-20.926,-20.973,-20.937,-20.8,-20.693,-20.473,-20.23,-19.918,-19.6,-19.584,-19.902,-20.359,-20.735,-20.96,-20.96,-20.901,-20.838,-20.798,-20.786,-20.807,-20.823,-20.838,-20.83,-20.828,-20.826,-20.827,-20.826,-20.814,-20.801,-20.805,-20.8,-20.806,-20.802,-20.793,-20.78,-20.782,-20.79,-20.789,-20.772,-20.766,-20.762,-20.765,-20.757,-20.751,-20.742,-20.743,-20.754,-20.744,-20.729,-20.716,-20.711,-20.71,-20.702,-20.674,-20.669,-20.654,-20.657,-20.644,-20.618,-20.601,-20.59,-20.585,-20.572,-20.551,-20.522,-20.508,-20.497,-20.486,-20.467,-20.432,-20.421,-20.407,-20.398,-20.384,-20.372,-20.363,-20.363,-20.357,-20.347,-20.345,-20.359,-20.38,-20.403,-20.416,-20.428,-20.468,-20.502,-20.55,-20.59,-20.619,-20.656,-20.697,-20.738,-20.756,-20.761,-20.776,-20.793,-20.817,-20.831,-20.816,-20.821,-20.834,-20.842,-20.839,-20.833,-20.825,-20.836,-20.84,-20.842,-20.822,-20.821,-20.826,-20.825,-20.817,-20.811,-20.802,-20.802,-20.808,-20.799,-20.786,-20.785,-20.792,-20.806,-20.807,-20.801,-20.792,-20.798,-20.803,-20.806,-20.804,-20.794,-20.797,-20.803,-20.811,-20.814,-20.812,-20.82,-20.833,-20.827,-20.825,-20.823,-20.827,-20.835,-20.832,-20.832,-20.828,-20.829,-20.841,-20.843,-20.842,-20.835,-20.837,-20.845,-20.847,-20.841,-20.838,-20.832,-20.847,-20.85,-20.843,-20.833,-20.831,-20.84,-20.854,-20.855,-20.849,-20.851,-20.862,-20.86,-20.851,-20.841,-20.844,-20.86,-20.86,-20.861,-20.849,-20.844,-20.853,-20.862,-20.865,-20.855,-20.853,-20.861,-20.869,-20.866,-20.861,-20.861,-20.863,-20.872,-20.861,-20.859,-20.854,-20.858,-20.875,-20.866,-20.861,-20.86,-20.871,-20.879,-20.869,-20.852,-20.854,-20.852,-20.868,-20.883,-20.874,-20.871,-20.867,-20.87,-20.872,-20.872,-20.876,-20.87,-20.885,-20.881,-20.87,-20.868,-20.871,-20.886,-20.876,-20.864,-20.852,-20.846,-20.858,-20.852,-20.837,-20.82,-20.821,-20.81,-20.787,-20.759,-20.762,-20.797,-20.828,-20.834,-20.818,-20.812,-20.821,-20.848,-20.877,-20.9,-20.896,-20.904,-20.902,-20.922,-20.931,-20.912,-20.907,-20.904,-20.907,-20.911,-20.904,-20.907,-20.902,-20.914,-20.919,-20.909,-20.935,-20.996,-21,-20.879,-20.667,-20.545,-20.303,-20.016,-19.684,-19.58,-19.843,-20.274,-20.691,-20.975,-21.007,-20.938,-20.904,-20.839,-20.84,-20.826,-20.86,-20.847,-20.852,-20.832,-20.837,-20.819,-20.838,-20.842,-20.868,-20.845,-20.83,-20.827,-20.827,-20.816,-20.817,-20.804,-20.823,-20.819,-20.806,-20.791,-20.781,-20.787,-20.791,-20.788,-20.778,-20.768,-20.763,-20.757,-20.749,-20.74,-20.739,-20.741,-20.735,-20.713,-20.715,-20.684,-20.681,-20.675,-20.669,-20.655,-20.621,-20.6,-20.591,-20.592,-20.594,-20.58,-20.552,-20.524,-20.495,-20.467,-20.442,-20.447,-20.446,-20.445,-20.438,-20.416,-20.397,-20.405,-20.404,-20.407,-20.399,-20.416,-20.448,-20.49,-20.5,-20.535,-20.557,-20.591,-20.649,-20.672,-20.705,-20.74,-20.781,-20.811,-20.836,-20.841,-20.83,-20.843,-20.858,-20.867,-20.866,-20.876,-20.877,-20.898,-20.883,-20.881,-20.868,-20.87,-20.877,-20.886,-20.877,-20.865,-20.871,-20.88,-20.875,-20.873,-20.872,-20.868,-20.87,-20.874,-20.873,-20.858,-20.855,-20.886,-20.881,-20.877,-20.864,-20.873,-20.865,-20.874,-20.873,-20.857,-20.86,-20.87,-20.88,-20.882,-20.871,-20.88,-20.886,-20.888,-20.887,-20.884,-20.882,-20.891,-20.892,-20.899,-20.887,-20.886,-20.892,-20.909,-20.897,-20.903,-20.896,-20.9,-20.912,-20.908,-20.894,-20.897,-20.902,-20.915,-20.911,-20.899,-20.9,-20.899,-20.904,-20.909,-20.902,-20.896,-20.898,-20.913,-20.917,-20.903,-20.895,-20.898,-20.881,-20.877,-20.876,-20.864,-20.857,-20.856,-20.855,-20.818,-20.784,-20.774,-20.792,-20.816,-20.837,-20.837,-20.849,-20.861,-20.876,-20.876,-20.893,-20.925,-20.947,-20.956,-20.958,-20.947,-20.953,-20.949,-20.956,-20.96,-20.981,-20.985,-20.993,-20.981,-20.971,-20.943,-20.964,-20.968,-20.984,-20.985,-20.985,-21.04,-21.089,-21.018,-20.858,-20.614,-20.328,-20.008,-19.715,-19.648,-19.89,-20.136,-20.556,-20.999,-21.106,-21.069,-20.985,-20.939,-20.897,-20.89,-20.883,-20.89,-20.892,-20.899,-20.896,-20.882,-20.879,-20.888,-20.897,-20.876,-20.852,-20.845,-20.851,-20.862,-20.868,-20.858,-20.849,-20.849,-20.861,-20.844,-20.84,-20.849,-20.846,-20.86,-20.847,-20.83,-20.829,-20.827,-20.826,-20.819,-20.798,-20.774,-20.752,-20.754,-20.762,-20.763,-20.743,-20.728,-20.717,-20.705,-20.701,-20.661,-20.633,-20.619,-20.605,-20.599,-20.578,-20.547,-20.519,-20.498,-20.488,-20.483,-20.468,-20.454,-20.454,-20.444,-20.436,-20.429,-20.424,-20.419,-20.424,-20.426,-20.45,-20.49,-20.534,-20.581,-20.627,-20.655,-20.689,-20.723,-20.739,-20.744,-20.753,-20.789,-20.816,-20.836,-20.862,-20.865,-20.877,-20.867,-20.83,-20.825,-20.842,-20.858,-20.885,-20.91,-20.898,-20.877,-20.854,-20.858,-20.859,-20.854,-20.845,-20.847,-20.865,-20.87,-20.871,-20.87,-20.869,-20.882,-20.873,-20.848,-20.828,-20.837,-20.852,-20.86,-20.853,-20.864,-20.857,-20.869,-20.89,-20.878,-20.862,-20.856,-20.882,-20.907,-20.869,-20.847,-20.842,-20.852,-20.882,-20.884,-20.851,-20.844,-20.863,-20.886,-20.87,-20.833,-20.802,-20.813,-20.817,-20.809,-20.821,-20.798,-20.772,-20.787,-20.779,-20.771,-20.753,-20.719,-20.744,-20.796,-20.823,-20.812,-20.802,-20.845,-20.862,-20.856,-20.883,-20.909,-20.912,-20.905,-20.914,-20.92,-20.945,-20.983,-20.994,-20.946,-20.933,-20.955,-20.982,-20.973,-20.924,-20.903,-20.916,-20.956,-21.003,-21.001,-20.998,-21.045,-21.054,-20.985,-20.841,-20.607,-20.365,-20.068,-19.723,-19.671,-19.963,-20.425,-20.753,-20.982,-21.046,-21.044,-20.953,-20.862,-20.848,-20.872,-20.901,-20.912,-20.939,-20.942,-20.939,-20.884,-20.873,-20.856,-20.883,-20.886,-20.901,-20.904,-20.881,-20.877,-20.89,-20.886,-20.846,-20.822,-20.826,-20.82,-20.845,-20.834,-20.843,-20.839,-20.767,-20.69,-20.715,-20.737,-20.759,-20.774,-20.796,-20.778,-20.732,-20.724,-20.75,-20.701,-20.672,-20.675,-20.633,-20.592,-20.585,-20.569,-20.572,-20.578,-20.58,-20.535,-20.488,-20.51,-20.501,-20.509,-20.478,-20.439,-20.46,-20.489,-20.461,-20.387,-20.325,-20.361,-20.419,-20.44,-20.471,-20.438,-20.434,-20.453,-20.507,-20.586,-20.642,-20.66,-20.677,-20.665,-20.737,-20.758,-20.791,-20.808,-20.815,-20.799,-20.784,-20.799,-20.827,-20.844,-20.771,-20.75,-20.755,-20.792,-20.798,-20.817,-20.801,-20.799,-20.797,-20.797,-20.769,-20.785,-20.771,-20.772,-20.75,-20.774,-20.757,-20.773,-20.779,-20.804,-20.819,-20.808,-20.769,-20.753,-20.791,-20.853,-20.805,-20.748,-20.702,-20.712,-20.758,-20.805,-20.797,-20.784,-20.791,-20.757,-20.743,-20.744,-20.769,-20.783,-20.786,-20.776,-20.757,-20.786,-20.82,-20.807,-20.756,-20.731,-20.744,-20.778,-20.807,-20.845,-20.85,-20.81,-20.804,-20.783,-20.756,-20.688,-20.693,-20.739,-20.764,-20.75,-20.68,-20.664,-20.7,-20.696,-20.682,-20.688,-20.73,-20.74,-20.762,-20.786,-20.801,-20.801,-20.848,-20.81,-20.764,-20.763,-20.766,-20.789,-20.842,-20.877,-20.908,-20.961,-20.859,-20.805,-20.798,-20.804,-20.802,-20.788,-20.838,-20.949,-20.981,-20.841,-20.763,-20.782,-20.797,-20.701,-20.531,-20.274,-20.056,-19.866,-19.558,-19.527,-19.902,-20.379,-20.733,-20.9,-20.963,-20.904,-20.861,-20.779,-20.772,-20.768,-20.741,-20.681,-20.675,-20.75,-20.816,-20.801,-20.736,-20.726,-20.717,-20.725,-20.767,-20.806,-20.788,-20.687,-20.697,-20.729,-20.783,-20.737,-20.672,-20.68,-20.723,-20.75,-20.661,-20.608,-20.648,-20.726,-20.743,-20.739,-20.658,-20.62,-20.653,-20.589,-20.657,-20.606,-20.4,-20.414,-20.554,-20.597,-20.538,-20.497,-20.529,-20.622,-20.554,-20.453,-20.432,-20.472,-20.513,-20.526,-20.482,-20.41,-20.472,-20.427,-20.2,-20.185,-20.263,-20.297,-20.25,-20.235,-20.326,-20.44,-20.423,-20.338,-20.401,-20.476,-20.477,-20.501,-20.499,-20.538,-20.605,-20.673,-20.656,-20.678,-20.623,-20.632,-20.633,-20.595,-20.627,-20.683,-20.698,-20.676,-20.69,-20.713,-20.728,-20.717,-20.705,-20.683,-20.689,-20.701,-20.704,-20.693,-20.699,-20.693,-20.702,-20.705,-20.714,-20.706,-20.708,-20.71,-20.715,-20.706,-20.711,-20.719,-20.723,-20.725,-20.73,-20.727,-20.734,-20.722,-20.721,-20.705,-20.691,-20.703,-20.703,-20.722,-20.724,-20.715,-20.722,-20.726,-20.748,-20.738,-20.717,-20.725,-20.75,-20.746,-20.737,-20.739,-20.753,-20.762,-20.779,-20.787,-20.775,-20.777,-20.778,-20.787,-20.792,-20.782,-20.797,-20.793,-20.793,-20.788,-20.782,-20.783,-20.794,-20.788,-20.793,-20.799,-20.795,-20.787,-20.787,-20.782,-20.759,-20.74,-20.72,-20.694,-20.685,-20.704,-20.715,-20.746,-20.77,-20.763,-20.762,-20.767,-20.775,-20.795,-20.807,-20.822,-20.817,-20.827,-20.831,-20.846,-20.846,-20.835,-20.833,-20.84,-20.849,-20.848,-20.842,-20.837,-20.841,-20.848,-20.858,-20.844,-20.841,-20.847,-20.853,-20.857,-20.845,-20.874,-20.929,-20.914,-20.778,-20.563,-20.32,-20.038,-19.672,-19.532,-19.651,-20.084,-20.509,-20.884,-20.971,-20.918,-20.863,-20.797,-20.777,-20.759,-20.786,-20.767,-20.781,-20.776,-20.796,-20.773,-20.782,-20.779,-20.795,-20.781,-20.775,-20.769,-20.781,-20.775,-20.779,-20.756,-20.761,-20.756,-20.766,-20.746,-20.764,-20.741,-20.736,-20.739,-20.737,-20.722,-20.715,-20.709,-20.724,-20.715,-20.699,-20.683,-20.675,-20.67,-20.659,-20.652,-20.643,-20.633,-20.63,-20.623,-20.607,-20.574,-20.564,-20.559,-20.543,-20.522,-20.494,-20.477,-20.475,-20.466,-20.442,-20.423,-20.416,-20.419,-20.405,-20.398,-20.374,-20.376,-20.391,-20.397,-20.4,-20.403,-20.434,-20.463,-20.49,-20.523,-20.535,-20.583,-20.62,-20.663,-20.689,-20.696,-20.714,-20.739,-20.764,-20.772,-20.757,-20.773,-20.782,-20.8,-20.797,-20.798,-20.786,-20.796,-20.8,-20.811,-20.791,-20.792,-20.782,-20.792,-20.791,-20.788,-20.792,-20.783,-20.782,-20.794,-20.789,-20.775,-20.782,-20.791,-20.782,-20.786,-20.772,-20.78,-20.779,-20.783,-20.786,-20.774,-20.779,-20.796,-20.796,-20.786,-20.776,-20.782,-20.798,-20.818,-20.804,-20.795,-20.798,-20.797,-20.803,-20.794,-20.787,-20.791,-20.794,-20.793,-20.779,-20.755,-20.736,-20.723,-20.717,-20.717,-20.727,-20.742,-20.761,-20.769,-20.781,-20.779,-20.807,-20.824,-20.848,-20.861,-20.849,-20.847,-20.856,-20.868,-20.868,-20.869,-20.865,-20.868,-20.862,-20.865,-20.858,-20.865,-20.863,-20.871,-20.872,-20.867,-20.869,-20.876,-20.88,-20.893,-20.881,-20.884,-20.944,-20.991,-20.923,-20.752,-20.528,-20.231,-19.91,-19.655,-19.603,-19.915,-20.348,-20.744,-20.988,-20.963,-20.958,-20.908,-20.877,-20.833,-20.813,-20.82,-20.823,-20.829,-20.831,-20.832,-20.819,-20.813,-20.827,-20.831,-20.825,-20.807,-20.819,-20.822,-20.817,-20.823,-20.802,-20.812,-20.827,-20.837,-20.817,-20.8,-20.799,-20.81,-20.809,-20.799,-20.788,-20.773,-20.77,-20.779,-20.763,-20.748,-20.745,-20.737,-20.725,-20.704,-20.7,-20.689,-20.694,-20.698,-20.682,-20.65,-20.631,-20.62,-20.627,-20.607,-20.59,-20.557,-20.541,-20.545,-20.527,-20.507,-20.492,-20.49,-20.483,-20.472,-20.462,-20.44,-20.458,-20.476,-20.48,-20.484,-20.489,-20.51,-20.559,-20.588,-20.616,-20.633,-20.666,-20.704,-20.724,-20.734,-20.747,-20.766,-20.785,-20.804,-20.806,-20.804,-20.825,-20.829,-20.822,-20.823,-20.811,-20.819,-20.833,-20.843,-20.842,-20.838,-20.825,-20.838,-20.838,-20.832,-20.823,-20.818,-20.825,-20.819,-20.815,-20.816,-20.804,-20.805,-20.806,-20.803,-20.785,-20.784,-20.788,-20.796,-20.806,-20.788,-20.794,-20.808,-20.819,-20.82,-20.815,-20.82,-20.821,-20.816,-20.812,-20.805,-20.808,-20.799,-20.799,-20.816,-20.792,-20.764,-20.743,-20.752,-20.754,-20.757,-20.77,-20.784,-20.807,-20.821,-20.817,-20.848,-20.88,-20.894,-20.888,-20.894,-20.897,-20.9,-20.919,-20.913,-20.915,-20.906,-20.908,-20.919,-20.913,-20.908,-20.904,-20.908,-20.926,-20.921,-20.913,-20.91,-20.911,-20.914,-20.925,-20.961,-21.001,-20.986,-20.857,-20.664,-20.402,-20.103,-19.77,-19.636,-19.779,-20.194,-20.563,-20.913,-20.997,-20.986,-20.935,-20.864,-20.853,-20.835,-20.846,-20.843,-20.843,-20.841,-20.861,-20.852,-20.861,-20.835,-20.84,-20.849,-20.86,-20.853,-20.843,-20.835,-20.846,-20.839,-20.844,-20.814,-20.824,-20.807,-20.817,-20.812,-20.811,-20.784,-20.784,-20.796,-20.781,-20.767,-20.762,-20.749,-20.761,-20.749,-20.739,-20.723,-20.725,-20.716,-20.705,-20.679,-20.675,-20.663,-20.666,-20.654,-20.642,-20.613,-20.603,-20.594,-20.581,-20.56,-20.537,-20.528,-20.524,-20.51,-20.491,-20.472,-20.467,-20.482,-20.485,-20.48,-20.474,-20.483,-20.506,-20.538,-20.562,-20.586,-20.613,-20.661,-20.683,-20.72,-20.735,-20.759,-20.781,-20.801,-20.798,-20.803,-20.814,-20.84,-20.849,-20.851,-20.842,-20.847,-20.85,-20.871,-20.862,-20.85,-20.863,-20.859,-20.872,-20.881,-20.858,-20.861,-20.864,-20.861,-20.863,-20.866,-20.861,-20.869,-20.878,-20.876,-20.873,-20.872,-20.857,-20.876,-20.872,-20.875,-20.867,-20.866,-20.879,-20.873,-20.865,-20.873,-20.873,-20.885,-20.884,-20.874,-20.864,-20.865,-20.872,-20.875,-20.869,-20.863,-20.858,-20.853,-20.839,-20.834,-20.822,-20.827,-20.832,-20.824,-20.771,-20.751,-20.766,-20.793,-20.801,-20.818,-20.817,-20.827,-20.841,-20.858,-20.872,-20.873,-20.882,-20.893,-20.905,-20.917,-20.919,-20.903,-20.904,-20.915,-20.918,-20.907,-20.912,-20.912,-20.911,-20.915,-20.894,-20.889,-20.917,-20.912,-20.92,-20.904,-20.919,-20.969,-21.021,-20.971,-20.827,-20.622,-20.375,-20.076,-19.691,-19.553,-19.791,-20.228,-20.631,-20.95,-20.993,-20.938,-20.893,-20.855,-20.856,-20.84,-20.847,-20.855,-20.873,-20.861,-20.869,-20.853,-20.866,-20.862,-20.861,-20.836,-20.839,-20.843,-20.855,-20.834,-20.835,-20.831,-20.838,-20.828,-20.834,-20.829,-20.817,-20.804,-20.814,-20.8,-20.808,-20.796,-20.795,-20.801,-20.789,-20.77,-20.762,-20.751,-20.752,-20.741,-20.734,-20.717,-20.711,-20.706,-20.7,-20.684,-20.66,-20.647,-20.646,-20.635,-20.616,-20.586,-20.576,-20.565,-20.545,-20.529,-20.504,-20.502,-20.507,-20.497,-20.48,-20.471,-20.467,-20.474,-20.494,-20.508,-20.521,-20.549,-20.577,-20.621,-20.653,-20.671,-20.697,-20.738,-20.77,-20.793,-20.801,-20.822,-20.834,-20.856,-20.855,-20.856,-20.861,-20.87,-20.877,-20.879,-20.871,-20.865,-20.866,-20.886,-20.88,-20.876,-20.876,-20.88,-20.897,-20.895,-20.887,-20.882,-20.878,-20.882,-20.878,-20.881,-20.879,-20.878,-20.882,-20.886,-20.883,-20.873,-20.873,-20.882,-20.882,-20.877,-20.866,-20.876,-20.887,-20.887,-20.877,-20.867,-20.87,-20.893,-20.887,-20.878,-20.869,-20.881,-20.888,-20.905,-20.9,-20.89,-20.883,-20.891,-20.904,-20.905,-20.9,-20.905,-20.909,-20.913,-20.895,-20.87,-20.861,-20.86,-20.852,-20.858,-20.842,-20.835,-20.814,-20.815,-20.821,-20.824,-20.832,-20.841,-20.858,-20.861,-20.868,-20.876,-20.9,-20.933,-20.934,-20.923,-20.925,-20.93,-20.938,-20.936,-20.938,-20.937,-20.936,-20.939,-20.94,-20.934,-20.928,-20.929,-20.93,-20.925,-20.918,-20.914,-20.926,-20.933,-20.929,-20.914,-20.914,-20.958,-21.02,-20.993,-20.868,-20.761,-20.549,-20.288,-19.958,-19.62,-19.567,-19.903,-20.357,-20.756,-20.991,-20.982,-20.911,-20.86,-20.84,-20.841,-20.838,-20.847,-20.863,-20.854,-20.864,-20.854,-20.859,-20.854,-20.863,-20.848,-20.839,-20.845,-20.863,-20.865,-20.854,-20.833,-20.836,-20.839,-20.846,-20.831,-20.819,-20.808,-20.82,-20.81,-20.815,-20.803,-20.798,-20.786,-20.789,-20.777,-20.773,-20.761,-20.764,-20.778,-20.763,-20.743,-20.728,-20.715,-20.712,-20.701,-20.684,-20.667,-20.647,-20.637,-20.628,-20.613,-20.599,-20.595,-20.587,-20.565,-20.542,-20.523,-20.505,-20.501,-20.49,-20.476,-20.466,-20.462,-20.475,-20.483,-20.501,-20.523,-20.551,-20.597,-20.609,-20.636,-20.662,-20.699,-20.729,-20.772,-20.794,-20.796,-20.825,-20.841,-20.855,-20.86,-20.853,-20.855,-20.862,-20.869,-20.86,-20.847,-20.847,-20.86,-20.867,-20.868,-20.851,-20.847,-20.849,-20.858,-20.864,-20.858,-20.851,-20.853,-20.853,-20.853,-20.847,-20.839,-20.837,-20.847,-20.846,-20.831,-20.823,-20.826,-20.829,-20.825,-20.833,-20.842,-20.846,-20.853,-20.849,-20.841,-20.835,-20.839,-20.853,-20.848,-20.836,-20.831,-20.837,-20.86,-20.863,-20.845,-20.836,-20.854,-20.858,-20.868,-20.862,-20.856,-20.865,-20.867,-20.864,-20.852,-20.853,-20.86,-20.872,-20.87,-20.86,-20.848,-20.846,-20.857,-20.859,-20.851,-20.855,-20.865,-20.865,-20.863,-20.869,-20.863,-20.86,-20.866,-20.87,-20.863,-20.845,-20.843,-20.855,-20.86,-20.854,-20.832,-20.819,-20.828,-20.842,-20.836,-20.818,-20.824,-20.823,-20.813,-20.785,-20.77,-20.789,-20.812,-20.834,-20.834,-20.817,-20.822,-20.835,-20.862,-20.894,-20.904,-20.903,-20.903,-20.905,-20.903,-20.891,-20.888,-20.887,-20.898,-20.907,-20.903,-20.895,-20.9,-20.915,-20.911,-20.905,-20.89,-20.89,-20.914,-20.925,-20.913,-20.905,-20.946,-21.012,-21.009,-20.891,-20.791,-20.588,-20.34,-20.035,-19.671,-19.571,-19.857,-20.31,-20.704,-20.977,-20.987,-20.926,-20.88,-20.838,-20.828,-20.832,-20.836,-20.854,-20.851,-20.851,-20.843,-20.836,-20.842,-20.845,-20.837,-20.829,-20.814,-20.829,-20.841,-20.838,-20.825,-20.816,-20.825,-20.824,-20.813,-20.802,-20.804,-20.806,-20.8,-20.79,-20.784,-20.784,-20.781,-20.792,-20.778,-20.762,-20.757,-20.755,-20.751,-20.734,-20.726,-20.726,-20.72,-20.718,-20.696,-20.67,-20.649,-20.632,-20.631,-20.632,-20.628,-20.603,-20.58,-20.567,-20.548,-20.523,-20.506,-20.51,-20.52,-20.508,-20.49,-20.47,-20.467,-20.473,-20.48,-20.488,-20.503,-20.527,-20.557,-20.582,-20.588,-20.615,-20.658,-20.704,-20.746,-20.754,-20.772,-20.799,-20.818,-20.831,-20.843,-20.85,-20.856,-20.861,-20.863,-20.858,-20.84,-20.85,-20.875,-20.886,-20.887,-20.869,-20.87,-20.872,-20.875,-20.864,-20.85,-20.851,-20.861,-20.863,-20.852,-20.834,-20.846,-20.857,-20.865,-20.858,-20.845,-20.848,-20.854,-20.861,-20.856,-20.845,-20.843,-20.851,-20.866,-20.859,-20.841,-20.842,-20.847,-20.856,-20.867,-20.86,-20.861,-20.865,-20.874,-20.88,-20.871,-20.869,-20.866,-20.872,-20.877,-20.879,-20.875,-20.872,-20.873,-20.876,-20.878,-20.87,-20.872,-20.887,-20.879,-20.875,-20.864,-20.863,-20.88,-20.892,-20.89,-20.884,-20.878,-20.882,-20.876,-20.873,-20.872,-20.883,-20.893,-20.888,-20.875,-20.858,-20.854,-20.86,-20.859,-20.854,-20.838,-20.836,-20.822,-20.794,-20.782,-20.801,-20.827,-20.838,-20.852,-20.839,-20.82,-20.837,-20.852,-20.872,-20.888,-20.897,-20.906,-20.918,-20.92,-20.905,-20.89,-20.9,-20.915,-20.918,-20.919,-20.903,-20.904,-20.902,-20.917,-20.91,-20.901,-20.897,-20.899,-20.913,-20.918,-20.91,-20.91,-20.906,-20.934,-20.974,-21.02,-20.994,-20.863,-20.669,-20.417,-20.112,-19.711,-19.592,-19.594,-19.943,-20.397,-20.779,-20.99,-20.981,-20.924,-20.851,-20.837,-20.827,-20.857,-20.842,-20.847,-20.83,-20.848,-20.849,-20.855,-20.831,-20.833,-20.821,-20.841,-20.839,-20.849,-20.822,-20.832,-20.832,-20.836,-20.82,-20.806,-20.801,-20.808,-20.807,-20.803,-20.783,-20.786,-20.784,-20.792,-20.777,-20.771,-20.757,-20.757,-20.773,-20.754,-20.731,-20.713,-20.723,-20.724,-20.714,-20.691,-20.682,-20.673,-20.666,-20.644,-20.613,-20.606,-20.6,-20.599,-20.578,-20.568,-20.54,-20.529,-20.544,-20.529,-20.504,-20.494,-20.486,-20.504,-20.502,-20.471,-20.475,-20.504,-20.525,-20.531,-20.556,-20.608,-20.63,-20.668,-20.714,-20.727,-20.742,-20.758,-20.788,-20.804,-20.826,-20.829,-20.849,-20.836,-20.871,-20.878,-20.877,-20.865,-20.867,-20.888,-20.878,-20.868,-20.883,-20.874,-20.876,-20.876,-20.856,-20.845,-20.874,-20.893,-20.886,-20.865,-20.868,-20.868,-20.871,-20.877,-20.862,-20.867,-20.875,-20.878,-20.883,-20.858,-20.865,-20.866,-20.862,-20.863,-20.876,-20.872,-20.878,-20.879,-20.877,-20.882,-20.874,-20.879,-20.889,-20.88,-20.865,-20.865,-20.89,-20.887,-20.881,-20.858,-20.872,-20.911,-20.869,-20.856,-20.901,-20.889,-20.892,-20.896,-20.892,-20.899,-20.889,-20.886,-20.904,-20.901,-20.888,-20.884,-20.883,-20.903,-20.886,-20.887,-20.895,-20.894,-20.901,-20.899,-20.896,-20.883,-20.889,-20.902,-20.901,-20.9,-20.887,-20.883,-20.895,-20.903,-20.897,-20.892,-20.89,-20.903,-20.898,-20.895,-20.889,-20.888,-20.891,-20.899,-20.899,-20.891,-20.891,-20.9,-20.907,-20.903,-20.893,-20.892,-20.897,-20.907,-20.899,-20.891,-20.885,-20.888,-20.898,-20.896,-20.879,-20.882,-20.89,-20.902,-20.884,-20.879,-20.873,-20.855,-20.86,-20.851,-20.844,-20.847,-20.827,-20.81,-20.786,-20.79,-20.803,-20.818,-20.835,-20.836,-20.838,-20.857,-20.857,-20.878,-20.89,-20.912,-20.914,-20.901,-20.918,-20.931,-20.911,-20.908,-20.916,-20.941,-20.925,-20.902,-20.903,-20.918,-20.927,-20.932,-20.925,-20.92,-20.924,-20.918,-20.941,-20.927,-20.926,-20.953,-21.011,-21.018,-20.917,-20.725,-20.523,-20.267,-19.908,-19.675,-19.716,-20.086,-20.51,-20.882,-21.023,-20.995,-20.968,-20.911,-20.87,-20.848,-20.864,-20.871,-20.884,-20.879,-20.876,-20.856,-20.864,-20.862,-20.872,-20.86,-20.852,-20.854,-20.861,-20.867,-20.857,-20.835,-20.84,-20.826,-20.841,-20.843,-20.836,-20.824,-20.83,-20.831,-20.824,-20.81,-20.81,-20.803,-20.813,-20.803,-20.786,-20.782,-20.768,-20.767,-20.755,-20.727,-20.723,-20.73,-20.728,-20.718,-20.701,-20.682,-20.672,-20.669,-20.651,-20.637,-20.605,-20.59,-20.584,-20.566,-20.548,-20.533,-20.524,-20.532,-20.514,-20.505,-20.492,-20.479,-20.478,-20.483,-20.488,-20.491,-20.507,-20.534,-20.562,-20.588,-20.601,-20.643,-20.689,-20.718,-20.738,-20.765,-20.788,-20.822,-20.839,-20.849,-20.853,-20.844,-20.86,-20.875,-20.879,-20.881,-20.858,-20.876,-20.885,-20.88,-20.877,-20.88,-20.886,-20.879,-20.884,-20.864,-20.861,-20.866,-20.871,-20.867,-20.868,-20.854,-20.864,-20.886,-20.879,-20.886,-20.871,-20.866,-20.863,-20.882,-20.866,-20.884,-20.887,-20.874,-20.883,-20.873,-20.84,-20.85,-20.897,-20.892,-20.881,-20.89,-20.895,-20.9,-20.876,-20.881,-20.9,-20.886,-20.91,-20.893,-20.888,-20.869,-20.874,-20.911,-20.923,-20.925,-20.897,-20.897,-20.921,-20.916,-20.904,-20.903,-20.911,-20.929,-20.927,-20.911,-20.896,-20.915,-20.92,-20.928,-20.919,-20.913,-20.918,-20.912,-20.919,-20.906,-20.885,-20.883,-20.88,-20.886,-20.875,-20.865,-20.861,-20.825,-20.81,-20.806,-20.829,-20.846,-20.856,-20.872,-20.88,-20.873,-20.891,-20.914,-20.943,-20.937,-20.941,-20.95,-20.94,-20.946,-20.944,-20.937,-20.931,-20.937,-20.956,-20.951,-20.941,-20.924,-20.941,-20.954,-20.955,-20.943,-20.934,-20.939,-20.955,-20.948,-20.933,-20.935,-20.953,-20.977,-21.039,-21.036,-20.905,-20.718,-20.45,-20.147,-19.804,-19.667,-19.761,-20.177,-20.579,-20.937,-21.016,-20.993,-20.976,-20.913,-20.881,-20.84,-20.862,-20.863,-20.884,-20.864,-20.86,-20.841,-20.863,-20.86,-20.863,-20.839,-20.86,-20.848,-20.858,-20.841,-20.833,-20.829,-20.839,-20.825,-20.833,-20.822,-20.825,-20.808,-20.826,-20.806,-20.788,-20.791,-20.799,-20.796,-20.792,-20.773,-20.764,-20.761,-20.755,-20.754,-20.74,-20.724,-20.718,-20.71,-20.707,-20.683,-20.675,-20.664,-20.663,-20.654,-20.634,-20.616,-20.594,-20.593,-20.577,-20.555,-20.529,-20.53,-20.531,-20.519,-20.496,-20.483,-20.485,-20.502,-20.495,-20.49,-20.48,-20.507,-20.527,-20.566,-20.581,-20.605,-20.635,-20.678,-20.714,-20.748,-20.761,-20.78,-20.819,-20.839,-20.84,-20.843,-20.855,-20.871,-20.87,-20.868,-20.861,-20.858,-20.864,-20.875,-20.869,-20.853,-20.856,-20.861,-20.863,-20.865,-20.842,-20.848,-20.86,-20.863,-20.846,-20.846,-20.843,-20.856,-20.848,-20.853,-20.847,-20.844,-20.841,-20.862,-20.853,-20.852,-20.845,-20.853,-20.862,-20.864,-20.861,-20.857,-20.865,-20.881,-20.879,-20.872,-20.868,-20.877,-20.884,-20.872,-20.862,-20.867,-20.879,-20.891,-20.895,-20.889,-20.878,-20.878,-20.89,-20.889,-20.882,-20.886,-20.882,-20.885,-20.891,-20.881,-20.887,-20.89,-20.892,-20.881,-20.873,-20.873,-20.872,-20.874,-20.882,-20.869,-20.845,-20.847,-20.835,-20.815,-20.787,-20.764,-20.76,-20.776,-20.8,-20.821,-20.811,-20.82,-20.835,-20.842,-20.857,-20.863,-20.887,-20.9,-20.904,-20.901,-20.889,-20.898,-20.91,-20.914,-20.923,-20.914,-20.918,-20.915,-20.925,-20.917,-20.897,-20.9,-20.919,-20.928,-20.935,-20.928,-20.925,-20.952,-21.009,-21.041,-20.964,-20.782,-20.67,-20.429,-19.96,-19.663,-19.615,-19.909,-20.352,-20.754,-21.003,-20.985,-20.952,-20.914,-20.865,-20.82,-20.807,-20.813,-20.833,-20.837,-20.838,-20.815,-20.821,-20.822,-20.812,-20.803,-20.794,-20.785,-20.799,-20.802,-20.8,-20.788,-20.783,-20.78,-20.785,-20.776,-20.76,-20.756,-20.77,-20.781,-20.776,-20.756,-20.749,-20.738,-20.737,-20.718,-20.71,-20.708,-20.711,-20.703,-20.686,-20.659,-20.654,-20.658,-20.655,-20.64,-20.612,-20.6,-20.592,-20.586,-20.566,-20.536,-20.518,-20.504,-20.497,-20.477
