2.3396,2.3424,2.3433,2.347,2.3294,2.3286,2.3331,2.3547,2.3428,2.3331,2.3286,2.3421,2.3531,2.3581,2.3415,2.3409,2.3473,2.3447,2.3473,2.349,2.3454,2.3553,2.3497,2.3554,2.3701,2.3914,2.4049,2.4039,2.4165,2.4499,2.4426,2.4585,2.454,2.4582,2.4599,2.4323,2.4644,2.4687,2.4571,2.4438,2.4248,2.4026,2.3881,2.3731,2.3671,2.3636,2.3453,2.3285,2.3344,2.3375,2.3308,2.3357,2.3315,2.3072,2.3284,2.3295,2.3158,2.2927,2.3024,2.3212,2.4381,2.596,2.8755,3.1643,3.2878,3.47,3.5367,3.5132,3.4334,3.1241,2.6557,2.2174,2.1033,2.1532,2.1988,2.2503,2.2646,2.2835,2.2913,2.3119,2.2992,2.2684,2.234,2.2529,2.276,2.269,2.296,2.2741,2.2873,2.2917,2.3014,2.3206,2.2829,2.2782,2.2835,2.2591,2.2823,2.3032,2.3092,2.2901,2.2663,2.2754,2.2972,2.2929,2.279,2.2739,2.2659,2.3035,2.3188,2.2826,2.2731,2.2872,2.2957,2.3158,2.3014,2.3178,2.3193,2.2714,2.2565,2.2745,2.3076,2.3294,2.3136,2.258,2.2544,2.2599,2.2792,2.3078,2.2977,2.2966,2.2882,2.3106,2.3441,2.3576,2.3536,2.3172,2.3091,2.3037,2.3265,2.3434,2.3268,2.3333,2.3269,2.3084,2.3365,2.3579,2.3578,2.3769,2.3616,2.3668,2.3557,2.3752,2.4008,2.3851,2.3862,2.4124,2.4528,2.4241,2.4054,2.4095,2.4162,2.3961,2.3893,2.4085,2.4261,2.4226,2.4025,2.3785,2.3686,2.4108,2.424,2.3909,2.3913,2.4178,2.4142,2.4221,2.4129,2.4424,2.4451,2.452,2.452,2.4628,2.4823,2.4493,2.4009,2.426,2.4475,2.4433,2.4374,2.4231,2.4471,2.4399,2.4384,2.4467,2.4542,2.4613,2.4819,2.4854,2.4617,2.4375,2.4945,2.4318,2.402,2.3797,2.4062,2.4243,2.4261,2.4198,2.3831,2.4148,2.3977,2.3988,2.3559,2.3722,2.3788,2.3705,2.3926,2.4094,2.381,2.3979,2.3845,2.3557,2.3716,2.3905,2.3674,2.3396,2.3784,2.367,2.3635,2.3151,2.308,2.3683,2.3939,2.4087,2.357,2.3209,2.3202,2.3562,2.3531,2.3619,2.3626,2.3445,2.3266,2.3936,2.4485,2.4246,2.3613,2.3136,2.2847,2.3271,2.3693,2.3604,2.4114,2.41,2.3447,2.3847,2.3582,2.2983,2.3181,2.3361,2.3376,2.3419,2.3771,2.3824,2.3548,2.3375,2.344,2.3855,2.4002,2.3864,2.3405,2.3716,2.3933,2.4098,2.4225,2.4194,2.4134,2.3946,2.4694,2.5217,2.5463,2.4524,2.4624,2.4468,2.5389,2.5742,2.4197,2.3654,2.3529,2.382,2.4056,2.407,2.3545,2.2858,2.3499,2.3586,2.332,2.3407,2.3811,2.3774,2.37,2.2997,2.3133,2.3079,2.3064,2.3564,2.3014,2.31,2.3415,2.4986,2.7616,3.0112,3.2433,3.4543,3.6018,3.59,3.5582,3.3091,2.8498,2.3563,2.1428,2.0576,2.0785,2.1795,2.274,2.3657,2.3853,2.3535,2.2844,2.292,2.2975,2.3686,2.3118,2.3318,2.3471,2.283,2.2675,2.3414,2.323,2.31,2.3189,2.3624,2.3675,2.2826,2.2274,2.2752,2.3032,2.3807,2.3752,2.3406,2.2891,2.2637,2.3129,2.2948,2.3071,2.3727,2.3418,2.381,2.3393,2.3119,2.3164,2.3243,2.3203,2.3335,2.3094,2.3193,2.3433,2.3199,2.3351,2.3374,2.3552,2.3242,2.2869,2.2976,2.3317,2.312,2.3269,2.3849,2.3388,2.3441,2.3737,2.3318,2.3209,2.3019,2.3484,2.3742,2.3723,2.3059,2.3181,2.3815,2.407,2.3347,2.2708,2.3591,2.459,2.392,2.3534,2.3713,2.4459,2.4115,2.3919,2.4197,2.4434,2.4281,2.4818,2.4198,2.4114,2.3998,2.3709,2.4113,2.4562,2.5455,2.5437,2.4193,2.2633,2.3131,2.4,2.4325,2.5027,2.4793,2.4105,2.3364,2.394,2.4367,2.5367,2.5207,2.3953,2.3338,2.4462,2.4709,2.5008,2.532,2.496,2.4468,2.4955,2.5445,2.4693,2.4144,2.4344,2.4517,2.4735,2.5391,2.5109,2.4982,2.4505,2.5056,2.4434,2.4308,2.4436,2.4282,2.4571,2.4961,2.4736,2.4606,2.4828,2.4524,2.4164,2.3682,2.3939,2.4739,2.4625,2.4256,2.3828,2.4038,2.4175,2.3903,2.4273,2.4394,2.4199,2.4315,2.44,2.4525,2.4748,2.5049,2.474,2.4895,2.5512,2.5849,2.5225,2.4529,2.476,2.5322,2.4857,2.4951,2.5066,2.5042,2.4593,2.3889,2.3264,2.3576,2.3822,2.4274,2.4106,2.3728,2.3313,2.3875,2.4699,2.4492,2.2982,2.2887,2.3588,2.3697,2.3681,2.3387,2.315,2.3256,2.3218,2.4254,2.605,2.8831,3.2025,3.493,3.5954,3.6274,3.5708,3.4466,3.205,2.7043,2.2204,2.116,2.1253,2.1329,2.2192,2.2815,2.3341,2.2964,2.3004,2.2923,2.323,2.3098,2.3051,2.2766,2.3034,2.3033,2.3392,2.347,2.3556,2.34,2.3698,2.3287,2.2888,2.3252,2.3614,2.3392,2.3592,2.3494,2.3355,2.2966,2.3231,2.334,2.3487,2.327,2.3414,2.3398,2.333,2.3254,2.3425,2.3257,2.3751,2.3729,2.344,2.3155,2.3636,2.3714,2.3726,2.3932,2.395,2.3156,2.2738,2.3095,2.3284,2.3267,2.3845,2.3908,2.3511,2.3055,2.3212,2.3487,2.3701,2.3844,2.3819,2.3736,2.3645,2.3509,2.364,2.3548,2.3588,2.3696,2.3576,2.4039,2.3979,2.37,2.3427,2.3827,2.3941,2.4269,2.4276,2.4412,2.4007,2.4248,2.4249,2.4514,2.4307,2.4413,2.4027,2.4201,2.4148,2.4703,2.4874,2.4484,2.4146,2.4048,2.3898,2.4069,2.4049,2.4049,2.41,2.4139,2.4339,2.4537,2.4255,2.3944,2.4081,2.4422,2.4469,2.4619,2.4496,2.4643,2.4686,2.507,2.497,2.4771,2.4575,2.4672,2.4846,2.5015,2.5224,2.5016,2.4828,2.4983,2.5055,2.4727,2.4584,2.461,2.4909,2.4908,2.4759,2.4597,2.4429,2.4453,2.4391,2.4574,2.4482,2.4314,2.4205,2.4211,2.4477,2.4331,2.4268,2.4486,2.471,2.4876,2.4745,2.4705,2.4692,2.5016,2.517,2.492,2.5074,2.5199,2.503,2.4915,2.4904,2.491,2.4927,2.4769,2.4816,2.4486,2.4342,2.3899,2.3837,2.3887,2.3877,2.3647,2.3484,2.326,2.3404,2.3551,2.3503,2.3442,2.3259,2.3396,2.3159,2.3139,2.3168,2.3316,2.362,2.3564,2.3822,2.5072,2.7344,3.0004,3.2494,3.4749,3.5987,3.5778,3.4766,3.1887,2.7081,2.2268,2.1247,2.1313,2.1787,2.2071,2.2268,2.2638,2.2764,2.2842,2.2927,2.2866,2.2868,2.3009,2.2948,2.2943,2.2897,2.3026,2.3224,2.3155,2.3212,2.3198,2.3163,2.3276,2.3142,2.3137,2.3226,2.3314,2.3246,2.3349,2.3265,2.3095,2.3084,2.3119,2.3185,2.3093,2.3002,2.3103,2.3272,2.3451,2.3364,2.315,2.3136,2.3203,2.3215,2.3241,2.3256,2.3157,2.3162,2.3222,2.3427,2.3364,2.3159,2.3095,2.3213,2.3442,2.3527,2.3187,2.3206,2.3343,2.3388,2.3401,2.3409,2.3436,2.3523,2.3503,2.3463,2.3465,2.3464,2.3568,2.3667,2.373,2.3673,2.3641,2.381,2.3992,2.3963,2.4019,2.4195,2.4151,2.4035,2.4301,2.4154,2.4234,2.4277,2.437,2.4293,2.4312,2.4187,2.4194,2.424,2.4187,2.4166,2.3967,2.4091,2.4173,2.4206,2.4179,2.4051,2.4054,2.4132,2.4232,2.4276,2.4146,2.4205,2.4354,2.4316,2.4417,2.4342,2.4381,2.4503,2.4619,2.4589,2.4648,2.4594,2.4578,2.4723,2.4758,2.4751,2.4805,2.4799,2.4864,2.4787,2.4618,2.4532,2.4525,2.4622,2.4568,2.4551,2.4569,2.4532,2.4428,2.4396,2.4455,2.4387,2.4311,2.4176,2.4328,2.4284,2.3969,2.407,2.4043,2.409,2.3934,2.3983,2.3925,2.3961,2.386,2.3963,2.3852,2.3795,2.3756,2.38,2.3909,2.3897,2.3847,2.3739,2.381,2.3879,2.3817,2.3824,2.3849,2.3807,2.3896,2.381,2.3599,2.3622,2.382,2.3879,2.3904,2.3811,2.372,2.3458,2.3628,2.3576,2.3627,2.379,2.3702,2.3798,2.4113,2.4191,2.4092,2.4146,2.4426,2.4399,2.4379,2.4777,2.4837,2.473,2.4731,2.4697,2.47,2.4736,2.482,2.4778,2.4739,2.4517,2.4339,2.393,2.3761,2.3727,2.3533,2.3629,2.3529,2.3345,2.3177,2.2987,2.3161,2.3305,2.325,2.3377,2.3422,2.351,2.3256,2.3192,2.3134,2.313,2.3546,2.4547,2.6629,2.9467,3.2242,3.4345,3.5536,3.5184,3.4779,3.2598,2.8542,2.3078,2.0869,2.0933,2.0998,2.1513,2.1997,2.2671,2.2646,2.2747,2.2518,2.2626,2.278,2.2892,2.288,2.2865,2.2961,2.3003,2.3065,2.2962,2.2899,2.3123,2.3028,2.2999,2.2715,2.273,2.2821,2.2925,2.3,2.2991,2.2895,2.2965,2.2919,2.2986,2.3021,2.3036,2.3131,2.3186,2.2985,2.2864,2.2872,2.3038,2.2911,2.3105,2.3078,2.3048,2.2935,2.3023,2.3208,2.3232,2.3147,2.2945,2.2966,2.3178,2.3068,2.3078,2.3017,2.3126,2.329,2.3223,2.3023,2.3026,2.3119,2.3079,2.3187,2.3404,2.3472,2.3402,2.3393,2.3612,2.3784,2.3609,2.3354,2.3369,2.3658,2.3595,2.395,2.4049,2.394,2.3615,2.3617,2.3686,2.3787,2.4028,2.4382,2.4324,2.428,2.4046,2.381,2.3787,2.4092,2.4113,2.3826,2.3776,2.3938,2.4236,2.4404,2.4299,2.3954,2.3823,2.385,2.4066,2.4153,2.4044,2.3844,2.4028,2.4192,2.4128,2.4201,2.4217,2.4439,2.4445,2.4473,2.4287,2.4335,2.4644,2.4854,2.4582,2.4423,2.434,2.453,2.4688,2.4756,2.4565,2.4355,2.4538,2.4639,2.4617,2.4337,2.4414,2.4318,2.446,2.4633,2.412,2.3941,2.4156,2.4422,2.4204,2.3811,2.3559,2.375,2.4022,2.4134,2.3899,2.3707,2.3803,2.3986,2.3941,2.3968,2.3865,2.3574,2.3632,2.3882,2.3862,2.3689,2.3685,2.3629,2.3605,2.3534,2.3487,2.3658,2.3825,2.3733,2.3581,2.3726,2.3543,2.3577,2.3536,2.3414,2.3508,2.3389,2.3649,2.368,2.3601,2.3566,2.358,2.334,2.3396,2.3308,2.3424,2.3486,2.3607,2.3517,2.3526,2.3575,2.3502,2.3434,2.3569,2.3608,2.3492,2.3271,2.3326,2.3423,2.3579,2.3556,2.3489,2.3449,2.3595,2.3602,2.3467,2.337,2.3253,2.3437,2.3463,2.3522,2.3524,2.3591,2.3728,2.3872,2.4051,2.391,2.394,2.4142,2.4456,2.4666,2.4476,2.4384,2.4441,2.455,2.4692,2.4661,2.4276,2.4114,2.4135,2.3977,2.368,2.3664,2.3668,2.3637,2.3202,2.3096,2.3079,2.302,2.3206,2.3208,2.3198,2.2996,2.2997,2.3084,2.3028,2.2963,2.2814,2.2862,2.3543,2.4793,2.6955,2.9821,3.2385,3.4742,3.5513,3.5403,3.5029,3.3064,2.949,2.4086,2.1296,2.097,2.1214,2.1866,2.2373,2.2673,2.2672,2.2556,2.2725,2.2789,2.2732,2.2788,2.2656,2.2795,2.2816,2.28,2.2903,2.2821,2.2703,2.3022,2.284,2.2815,2.2848,2.2897,2.2877,2.298,2.3017,2.2989,2.2909,2.3014,2.2998,2.2848,2.282,2.2932,2.2946,2.3083,2.2987,2.304,2.3142,2.3018,2.303,2.296,2.2939,2.2806,2.2911,2.3031,2.3018,2.2951,2.2997,2.2909,2.296,2.2997,2.286,2.2767,2.283,2.2984,2.3019,2.2975,2.2853,2.285,2.3012,2.3127,2.3048,2.3113,2.3112,2.309,2.3293,2.326,2.3257,2.3235,2.3236,2.3345,2.3375,2.326,2.3423,2.3483,2.359,2.3597,2.3639,2.3716,2.38,2.4005,2.3969,2.4079,2.4123,2.4198,2.4243,2.422,2.4131,2.4024,2.3931,2.4077,2.4175,2.4152,2.4066,2.4072,2.4087,2.4198,2.4124,2.3922,2.4055,2.4045,2.4151,2.4181,2.4174,2.4257,2.4377,2.4441,2.4394,2.4416,2.4523,2.4566,2.4651,2.4701,2.4686,2.4683,2.4606,2.4711,2.4743,2.4728,2.4757,2.4765,2.4755,2.4705,2.4698,2.4584,2.4551,2.4688,2.4695,2.4637,2.4492,2.4377,2.4416,2.4442,2.4352,2.4268,2.4272,2.4301,2.4259,2.4273,2.421,2.4169,2.4118,2.4158,2.4099,2.4008,2.3968,2.3973,2.4092,2.4031,2.3947,2.3891,2.3977,2.3937,2.3923,2.3851,2.3846,2.3906,2.3909,2.4004,2.4109,2.4057,2.428,2.4491,2.4615,2.4632,2.4563,2.4705,2.4993,2.5157,2.507,2.4924,2.495,2.5037,2.5048,2.5031,2.4786,2.4774,2.4668,2.4543,2.4349,2.4067,2.3956,2.3863,2.381,2.3766,2.3697,2.3679,2.3623,2.3641,2.3635,2.3601,2.3553,2.3549,2.3641,2.358,2.3492,2.336,2.3328,2.3419,2.4066,2.5366,2.7666,3.0501,3.3317,3.5457,3.6225,3.5549,3.4387,3.1596,2.6617,2.2192,2.1091,2.1414,2.1985,2.2585,2.2864,2.3011,2.2941,2.3097,2.3114,2.3269,2.3237,2.3265,2.32,2.3396,2.3295,2.3304,2.3336,2.3278,2.3374,2.3419,2.33,2.3342,2.3284,2.3441,2.3381,2.3367,2.3345,2.3358,2.3396,2.3404,2.3459,2.3378,2.3375,2.3515,2.352,2.3474,2.3402,2.3438,2.3506,2.3469,2.3445,2.3373,2.3462,2.3403,2.3432,2.3476,2.3446,2.34,2.3426,2.3489,2.3436,2.3434,2.3383,2.3347,2.3534,2.3548,2.3523,2.3419,2.3417,2.3651,2.3702,2.3654,2.3665,2.3682,2.3823,2.3785,2.3782,2.3709,2.3746,2.3829,2.3957,2.3954,2.3846,2.4028,2.4016,2.4108,2.4183,2.4147,2.4247,2.4382,2.4495,2.4502,2.4493,2.4478,2.4531,2.4538,2.4515,2.4501,2.4423,2.436,2.4426,2.447,2.4417,2.4274,2.4374,2.4375,2.434,2.4368,2.4304,2.4318,2.4486,2.4502,2.4506,2.4454,2.4557,2.4546,2.4735,2.4813,2.4826,2.4845,2.4839,2.5025,2.4996,2.4929,2.4964,2.5032,2.5128,2.5163,2.5041,2.5064,2.5064,2.5163,2.5227,2.5056,2.4957,2.4969,2.4996,2.499,2.4916,2.4793,2.4717,2.4754,2.4696,2.4654,2.4624,2.4552,2.4512,2.4571,2.4552,2.4425,2.4365,2.4467,2.4408,2.4349,2.429,2.4302,2.4346,2.4359,2.4344,2.4195,2.4183,2.4253,2.4334,2.4301,2.4164,2.4113,2.4127,2.4191,2.418,2.4177,2.4061,2.4105,2.4126,2.4148,2.4067,2.4086,2.4122,2.4097,2.4179,2.4145,2.399,2.4081,2.4081,2.4103,2.4117,2.3966,2.4057,2.4099,2.409,2.4074,2.4148,2.4017,2.4153,2.4108,2.4146,2.4022,2.4006,2.417,2.4085,2.414,2.4135,2.4109,2.4047,2.4112,2.4155,2.409,2.4062,2.409,2.4165,2.4208,2.41,2.4097,2.415,2.4161,2.4137,2.403,2.3987,2.3998,2.4205,2.4157,2.4145,2.4111,2.4037,2.4081,2.4128,2.4203,2.4058,2.4105,2.4152,2.4157,2.4094,2.3988,2.3998,2.4082,2.4123,2.4116,2.41,2.4127,2.4153,2.4216,2.4205,2.4129,2.411,2.4085,2.4213,2.4227,2.4209,2.4186,2.4148,2.4231,2.4108,2.4141,2.4085,2.4175,2.4221,2.4168,2.4144,2.4129,2.4167,2.4186,2.4216,2.4073,2.4021,2.4051,2.4189,2.419,2.4159,2.4156,2.4216,2.4409,2.4667,2.4776,2.468,2.4836,2.5076,2.5071,2.5157,2.5179,2.5253,2.5308,2.5272,2.5342,2.5299,2.512,2.5007,2.4903,2.4631,2.454,2.4294,2.4178,2.4186,2.4191,2.4043,2.398,2.3888,2.3888,2.398,2.3905,2.3894,2.3897,2.3879,2.3836,2.3775,2.3853,2.4498,2.5844,2.8035,3.0864,3.3351,3.5241,3.5883,3.5492,3.4803,3.2134,2.799,2.3294,2.1404,2.1968,2.253,2.2916,2.3294,2.3447,2.3479,2.356,2.3286,2.339,2.349,2.3576,2.3513,2.3369,2.3473,2.3601,2.3581,2.3536,2.3533,2.3642,2.35,2.3585,2.3601,2.3447,2.3614,2.3541,2.3587,2.3565,2.3656,2.3603,2.3484,2.3673,2.3577,2.3501,2.3393,2.3622,2.3584,2.3575,2.3668,2.3545,2.3515,2.356,2.3584,2.365,2.3639,2.3622,2.3624,2.3643,2.3553,2.3557,2.361,2.3642,2.3665,2.3609,2.3561,2.3661,2.3769,2.3684,2.3727,2.3752,2.376,2.3826,2.386,2.3879,2.3875,2.3883,2.3947,2.4102,2.4063,2.3968,2.3893,2.3991,2.4124,2.4034,2.4054,2.4087,2.4186,2.4319,2.4342,2.4449,2.4415,2.4487,2.46,2.4617,2.4581,2.4642,2.465,2.4763,2.477,2.4703,2.4614,2.4541,2.4607,2.46,2.4636,2.4552,2.4552,2.4573,2.4655,2.4659,2.4582,2.4621,2.4772,2.4788,2.4826,2.4776,2.4882,2.4916,2.5035,2.5007,2.494,2.5115,2.5097,2.5152,2.5162,2.515,2.5198,2.5165,2.5277,2.5161,2.5155,2.5066,2.5105,2.5164,2.5062,2.5051,2.5013,2.4947,2.4851,2.4862,2.4814,2.4638,2.4744,2.4697,2.4651,2.4479,2.4433,2.4432,2.4394,2.4418,2.442,2.4291,2.4235,2.4271,2.4261,2.4165,2.4075,2.4052,2.4056,2.4202,2.421,2.4073,2.4029,2.3952,2.4102,2.4083,2.4052,2.3916,2.3912,2.4005,2.4035,2.3954,2.3845,2.3825,2.3793,2.3912,2.3766,2.3788,2.3814,2.3832,2.3834,2.381,2.371,2.3776,2.3798,2.3831,2.3779,2.367,2.367,2.3742,2.3722,2.3811,2.3608,2.3658,2.3705,2.3764,2.3743,2.3676,2.371,2.374,2.3737,2.3706,2.3653,2.3599,2.3593,2.3633,2.3586,2.3564,2.346,2.3586,2.3692,2.3652,2.3554,2.3408,2.3649,2.366,2.357,2.3692,2.3835,2.3834,2.3762,2.3868,2.3758,2.3504,2.3252,2.3765,2.403,2.3707,2.3403,2.3486,2.3372,2.3428,2.3287,2.323,2.3268,2.3214,2.3412,2.3481,2.3611,2.3466,2.3795,2.3788,2.3721,2.3597,2.3677,2.3551,2.3915,2.3956,2.4266,2.4141,2.4065,2.4353,2.476,2.4591,2.4354,2.4285,2.4647,2.447,2.4015,2.4099,2.4078,2.4398,2.4649,2.4561,2.4086,2.3909,2.3819,2.3819,2.3437,2.3214,2.3067,2.311,2.3735,2.3272,2.2594,2.2631,2.2973,2.3196,2.294,2.2944,2.2917,2.3167,2.4103,2.5706,2.7937,3.0471,3.2738,3.5013,3.5783,3.5049,3.3923,3.1481,2.684,2.231,2.1199,2.1314,2.1182,2.1567,2.2116,2.2569,2.2517,2.2471,2.2713,2.2954,2.2469,2.2492,2.2804,2.3279,2.3092,2.2859,2.2859,2.3337,2.3209,2.272,2.2949,2.3478,2.3346,2.2492,2.2378,2.2135,2.2081,2.2162,2.269,2.303,2.2769,2.2467,2.2562,2.2991,2.3091,2.2891,2.2899,2.3176,2.3563,2.3244,2.2809,2.2894,2.2811,2.2892,2.2719,2.263,2.2671,2.2668,2.2735,2.2739,2.2744,2.2872,2.2762,2.3131,2.3002,2.2486,2.2721,2.3077,2.2943,2.2839,2.3227,2.3186,2.2879,2.2814,2.2639,2.2584,2.2792,2.3068,2.3183,2.3199,2.2782,2.322,2.3303,2.3242,2.3224,2.3185,2.3049,2.3393,2.326,2.3095,2.3375,2.3624,2.3525,2.345,2.3701,2.4021,2.4302,2.4315,2.4021,2.3438,2.3482,2.3771,2.4032,2.3942,2.3561,2.3388,2.381,2.3992,2.3727,2.3472,2.3754,2.3828,2.4389,2.4076,2.3829,2.3721,2.3851,2.3942,2.4034,2.436,2.4527,2.4433,2.4166,2.3962,2.4031,2.4387,2.4291,2.4458,2.5062,2.4529,2.4184,2.4282,2.4205,2.3974,2.4113,2.4269,2.404,2.4031,2.4069,2.4158,2.4016,2.4114,2.4576,2.4381,2.4023,2.3425,2.3607,2.3742,2.3914,2.382,2.3269,2.3277,2.3492,2.3631,2.3674,2.3529,2.3527,2.3874,2.3693,2.3511,2.3152,2.3199,2.3369,2.3365,2.3369,2.3306,2.3293,2.3358,2.3471,2.3353,2.3153,2.3342,2.3693,2.3541,2.3033,2.2668,2.2783,2.3079,2.3323,2.3298,2.3336,2.3115,2.2847,2.3086,2.3384,2.3458,2.3408,2.3192,2.3304,2.324,2.3453,2.3477,2.3759,2.4165,2.4247,2.4269,2.419,2.3991,2.4114,2.4289,2.455,2.4342,2.3705,2.3483,2.3326,2.3279,2.2937,2.2901,2.2775,2.2852,2.2756,2.2754,2.2664,2.2577,2.2582,2.2699,2.261,2.2573,2.2617,2.2726,2.2725,2.2534,2.2283,2.2719,2.351,2.4797,2.732,3.0019,3.2746,3.4734,3.4972,3.4562,3.2737,2.953,2.7041,2.1086,2.0203,2.0703,2.0952,2.1583,2.1576,2.2205,2.1981,2.2189,2.2073,2.2424,2.2237,2.2258,2.2074,2.2429,2.2321,2.2515,2.2237,2.2482,2.2637,2.2993,2.2432,2.2158,2.1933,2.2433,2.2365,2.2465,2.2401,2.2095,2.1998,2.2135,2.2268,2.2497,2.2235,2.2239,2.2207,2.2389,2.2456,2.2541,2.2455,2.2308,2.2444,2.2608,2.2742,2.3231,2.3125,2.2931,2.2541,2.2786,2.3043,2.4369,2.4518,2.3886,2.3332,2.2167,2.1939,2.1648,2.1555,2.13,2.1384,2.1611,2.2019,2.1934,2.2087,2.2055,2.2496,2.2631,2.2889,2.3022,2.2912,2.2502,2.2889,2.2857,2.2798,2.2431,2.2642,2.3257,2.3712,2.3718,2.3537,2.3476,2.3237,2.291,2.3389,2.3304,2.321,2.3108,2.3064,2.3076,2.3322,2.3194,2.3138,2.3311,2.314,2.3146,2.3007,2.2991,2.321,2.3327,2.3173,2.3228,2.3102,2.3224,2.3192,2.3228,2.3369,2.3451,2.3468,2.3405,2.3489,2.3487,2.3776,2.4164,2.4513,2.4116,2.3435,2.3352,2.3947,2.4217,2.394,2.3529,2.3598,2.3448,2.3559,2.3651,2.3696,2.371,2.3837,2.3983,2.3805,2.3441,2.3361,2.3412,2.3307,2.3336,2.3423,2.3349,2.2992,2.3081,2.321,2.3309,2.3193,2.2973,2.3191,2.3161,2.2855,2.2427,2.2375,2.297,2.3283,2.3219,2.264,2.2563,2.3067,2.345,2.3487,2.2921,2.2458,2.2201,2.2349,2.2703,2.3065,2.3116,2.28,2.2719,2.3525,2.3507,2.3289,2.326,2.2975,2.3373,2.3403,2.3897,2.4442,2.4233,2.3788,2.3454,2.3578,2.3907,2.3971,2.3981,2.3736,2.3592,2.3137,2.3321,2.3262,2.3097,2.2332,2.2057,2.1949,2.2267,2.2043,2.183,2.2459,2.2466,2.1859,2.1706,2.1878,2.2412,2.2374,2.1655,2.1612,2.1999,2.2524,2.3686,2.5902,2.892,3.1521,3.2609,3.4299,3.4823,3.4411,3.2371,2.8311,2.3127,2.047,2.0175,2.0136,2.0299,2.0584,2.1163,2.1648,2.1829,2.1401,2.1479,2.1582,2.1823,2.1844,2.1772,2.1716,2.214,2.2299,2.2013,2.1558,2.1596,2.1516,2.1671,2.1673,2.1776,2.1858,2.1716,2.1837,2.1826,2.1668,2.1825,2.1682,2.2017,2.1959,2.1881,2.1827,2.1922,2.1881,2.1873,2.2178,2.2013,2.2189,2.1935,2.1658,2.1691,2.1928,2.1814,2.1844,2.1832,2.1763,2.164,2.166,2.1711,2.1712,2.1722,2.1693,2.1777,2.1613,2.1741,2.1793,2.2065,2.208,2.1915,2.2023,2.2045,2.2298,2.2462,2.2484,2.2154,2.2239,2.2211,2.2137,2.2162,2.2402,2.2353,2.257,2.2508,2.2499,2.2325,2.2425,2.2567,2.2578,2.2789,2.291,2.3221,2.3291,2.3047,2.2777,2.2668,2.265,2.2674,2.2732,2.2729,2.2741,2.2855,2.2903,2.2873,2.2654,2.2483,2.2653,2.2721,2.2786,2.286,2.2993,2.3316,2.3007,2.2906,2.313,2.312,2.3202,2.3134,2.3232,2.3295,2.334,2.3501,2.3569,2.3432,2.3362,2.3396,2.363,2.3614,2.3666,2.3661,2.3708,2.3594,2.3451,2.3495,2.356,2.3494,2.3335,2.3321,2.3088,2.2921,2.2948,2.2988,2.3123,2.3057,2.2995,2.2707,2.2913,2.2923,2.2909,2.2742,2.2533,2.2569,2.2531,2.2499,2.2514,2.267,2.2576,2.2534,2.2512,2.2586,2.2447,2.229,2.2388,2.2333,2.2521,2.2583,2.2548,2.2566,2.2602,2.2949,2.2795,2.2673,2.2636,2.307,2.3311,2.3346,2.3449,2.3604,2.3546,2.344,2.3333,2.3529,2.3909,2.3634,2.3303,2.302,2.2937,2.2765,2.2453,2.2356,2.2186,2.2224,2.2172,2.222,2.2003,2.1982,2.1924,2.1754,2.2024,2.1882,2.1921,2.1563,2.184,2.2025,2.1862,2.1815,2.1663,2.1968,2.3413,2.5442,2.8141,3.0795,3.2961,3.4119,3.3929,3.3466,3.1314,2.7669,2.225,1.9943,1.954,1.9811,2.0358,2.0691,2.1039,2.09,2.1332,2.1578,2.17,2.1623,2.1571,2.1761,2.1632,2.1583,2.1785,2.1802,2.1928,2.1573,2.15,2.1476,2.1532,2.1646,2.1734,2.1623,2.1539,2.1785,2.1848,2.1741,2.1725,2.1819,2.1985,2.2066,2.1729,2.1542,2.1661,2.1698,2.179,2.2234,2.2333,2.236,2.1979,2.1676,2.1455,2.1704,2.1688,2.1981,2.195,2.167,2.1471,2.1552,2.1631,2.1708,2.1858,2.1616,2.1719,2.1959,2.2384,2.2104,2.1726,2.1757,2.1906,2.1979,2.2232,2.2209,2.1925,2.1972,2.2139,2.2323,2.2221,2.2037,2.2118,2.2239,2.244,2.2353,2.2304,2.2327,2.2403,2.2474,2.2753,2.2824,2.2841,2.2907,2.313,2.3368,2.3172,2.2639,2.2438,2.2651,2.3004,2.3108,2.314,2.2948,2.2688,2.2477,2.2477,2.2786,2.3028,2.3006,2.297,2.2864,2.2817,2.3108,2.358,2.3282,2.2884,2.2901,2.3094,2.3444,2.3702,2.3381,2.3205,2.3324,2.3409,2.3563,2.325,2.3255,2.3573,2.3775,2.3576,2.3329,2.3351,2.3552,2.3415,2.3224,2.3631,2.3488,2.3204,2.2861,2.2784,2.2924,2.3156,2.3394,2.3175,2.2851,2.2508,2.2632,2.2665,2.2703,2.2854,2.296,2.2892,2.2643,2.237,2.2195,2.234,2.2473,2.2754,2.2882,2.272,2.2509,2.2572,2.2799,2.3092,2.2997,2.2522,2.247,2.2317,2.2279,2.2053,2.1895,2.2326,2.2741,2.2779,2.2939,2.3224,2.3197,2.2969,2.2923,2.3127,2.3692,2.3837,2.3859,2.3656,2.3229,2.3385,2.3911,2.3604,2.291,2.3022,2.3193,2.3067,2.2476,2.2424,2.2352,2.2226,2.2499,2.2529,2.2275,2.1585,2.1628,2.1674,2.209,2.2051,2.1858,2.1763,2.1702,2.1748,2.1363,2.1523,2.2108,2.2282,2.297,2.483,2.8004,3.1427,3.3267,3.3903,3.3642,3.3405,3.2487,2.9698,2.4577,1.9922,1.9079,1.9585,2.0318,2.0742,2.0978,2.1187,2.1167,2.1365,2.1043,2.1511,2.1479,2.1482,2.1434,2.1837,2.1674,2.1395,2.1242,2.1511,2.1412,2.1225,2.1289,2.17,2.1758,2.1736,2.1649,2.1345,2.1312,2.1529,2.184,2.1736,2.1657,2.148,2.1647,2.172,2.1591,2.1582,2.1618,2.1497,2.1344,2.1536,2.165,2.1579,2.1552,2.1369,2.1413,2.1195,2.1475,2.1493,2.1679,2.1579,2.1618,2.1545,2.1767,2.1685,2.1419,2.1291,2.1638,2.1606,2.1547,2.1389,2.172,2.1613,2.1612,2.172,2.1735,2.1694,2.1604,2.1681,2.174,2.1856,2.1894,2.2051,2.2013,2.2026,2.1953,2.2133,2.1984,2.224,2.2457,2.2618,2.2561,2.2555,2.2625,2.2776,2.2767,2.2811,2.2864,2.2658,2.2807,2.2884,2.2705,2.2358,2.2457,2.2481,2.2521,2.2623,2.2788,2.2995,2.2934,2.2716,2.2566,2.2754,2.2656,2.3014,2.3053,2.3042,2.2954,2.3133,2.3074,2.3183,2.328,2.3282,2.3292,2.3381,2.3309,2.3317,2.3327,2.3216,2.3187,2.3233,2.3289,2.3294,2.3246,2.3151,2.3086,2.3115,2.3063,2.2973,2.295,2.2897,2.2998,2.2827,2.2691,2.2555,2.2615,2.282,2.3058,2.3062,2.29,2.2935,2.3111,2.3204,2.3268,2.3332,2.3439,2.3592,2.3734,2.3718,2.3613,2.3598,2.3688,2.374,2.3518,2.3365,2.3238,2.3048,2.2669,2.251,2.2257,2.2236,2.2227,2.2263,2.219,2.2066,2.1931,2.1997,2.2025,2.1977,2.2059,2.2021,2.1943,2.2002,2.1978,2.1851,2.177,2.1593,2.185,2.2482,2.389,2.4911,2.7766,3.0593,3.3002,3.4517,3.4617,3.3911,3.1594,2.7514,2.1671,1.9697,1.9582,1.973,2.0576,2.0919,2.1298,2.1435,2.1527,2.1565,2.1796,2.1719,2.1698,2.159,2.1747,2.1663,2.1757,2.1708,2.1754,2.1884,2.1817,2.1775,2.1761,2.1797,2.1881,2.1914,2.19,2.1798,2.1852,2.1998,2.205,2.1998,2.2022,2.2022,2.2,2.2078,2.2137,2.2064,2.2056,2.2083,2.218,2.2016,2.2035,2.2078,2.2002,2.2053,2.2051,2.2014,2.2028,2.2041,2.2134,2.2158,2.2099,2.2041,2.1981,2.2119,2.2099,2.2072,2.2033,2.2145,2.2192,2.2313,2.2237,2.2173,2.2282,2.2312,2.234,2.2405,2.2244,2.2325,2.2393,2.2424,2.2486,2.2451,2.2481,2.2499,2.2657,2.2765,2.2723,2.2824,2.2918,2.3065,2.3077,2.308,2.3061,2.3124,2.3126,2.308,2.3,2.2968,2.2975,2.303,2.3028,2.2974,2.2903,2.2938,2.2997,2.3053,2.3104,2.3076,2.3109,2.3138,2.3239,2.331,2.3276,2.3382,2.3422,2.3464,2.3573,2.3535,2.3592,2.3666,2.373,2.3746,2.3689,2.3651,2.3717,2.3777,2.377,2.3741,2.364,2.3664,2.3741,2.3761,2.3629,2.3516,2.3561,2.3588,2.3511,2.3411,2.3301,2.3273,2.3361,2.3301,2.3254,2.3102,2.3047,2.3066,2.3054,2.3073,2.2947,2.301,2.3153,2.328,2.3414,2.3399,2.3472,2.364,2.3666,2.3778,2.3854,2.3803,2.3845,2.3941,2.3903,2.3902,2.3866,2.3844,2.3819,2.3636,2.3448,2.3074,2.2842,2.2756,2.2604,2.2535,2.2418,2.2344,2.238,2.2336,2.2284,2.2235,2.2161,2.2277,2.2238,2.2221,2.2136,2.2073,2.2109,2.2041,2.1881,2.1787,2.2507,2.3877,2.641,2.9284,3.201,3.4004,3.4602,3.4282,3.2807,2.9708,2.4363,2.0309,1.972,1.9767,2.023,2.0783,2.1086,2.1492,2.1563,2.1623,2.1642,2.1687,2.1738,2.1787,2.1726,2.1788,2.1777,2.1877,2.1829,2.183,2.1778,2.1771,2.1888,2.1896,2.192,2.1809,2.1796,2.1816,2.1915,2.1947,2.1843,2.1864,2.1861,2.1967,2.1953,2.1855,2.191,2.1871,2.1955,2.1944,2.1865,2.1877,2.1909,2.1965,2.1957,2.1905,2.1835,2.1805,2.1869,2.1844,2.1851,2.1758,2.1804,2.1887,2.1902,2.1887,2.1807,2.1835,2.1956,2.2008,2.2034,2.1943,2.2036,2.2107,2.2125,2.2194,2.206,2.2123,2.2115,2.2177,2.2276,2.2252,2.2318,2.2273,2.2466,2.2519,2.2447,2.2527,2.2656,2.2805,2.29,2.2901,2.2898,2.2942,2.2991,2.2927,2.2939,2.2862,2.2867,2.2897,2.2858,2.2852,2.2755,2.2793,2.2886,2.2879,2.2848,2.2758,2.2798,2.2887,2.2936,2.2958,2.2897,2.2978,2.3101,2.3169,2.3206,2.3184,2.3205,2.3295,2.3382,2.339,2.3356,2.3352,2.3384,2.3446,2.3438,2.3452,2.3395,2.3395,2.3464,2.3409,2.3322,2.328,2.327,2.3312,2.3277,2.3205,2.3087,2.3063,2.3051,2.3034,2.3006,2.2882,2.2847,2.2875,2.288,2.2808,2.2705,2.2664,2.2747,2.2698,2.2674,2.2612,2.2568,2.2604,2.267,2.2596,2.2587,2.2568,2.254,2.2579,2.2574,2.2532,2.2427,2.242,2.2547,2.2467,2.2418,2.2401,2.2386,2.2464,2.2414,2.2383,2.2334,2.2365,2.2404,2.2374,2.2331,2.2271,2.2278,2.23,2.2292,2.2334,2.2258,2.2235,2.2294,2.2368,2.2308,2.2243,2.223,2.2271,2.2283,2.2261,2.2194,2.2228,2.2214,2.229,2.2277,2.223,2.2164,2.215,2.2263,2.2294,2.2245,2.2195,2.2198,2.2305,2.2297,2.2291,2.2237,2.2158,2.2296,2.2259,2.2172,2.2151,2.2136,2.219,2.2269,2.2232,2.2168,2.2189,2.2196,2.2265,2.2234,2.221,2.2226,2.2197,2.2254,2.2246,2.2141,2.2194,2.2202,2.2271,2.2289,2.2146,2.2218,2.2214,2.2217,2.2232,2.2184,2.214,2.2127,2.2222,2.2209,2.2196,2.2162,2.2206,2.2255,2.2288,2.2211,2.2135,2.2185,2.2232,2.2274,2.2261,2.2248,2.2295,2.2404,2.2606,2.2706,2.2716,2.2836,2.3012,2.3067,2.3195,2.3194,2.3185,2.3256,2.3301,2.3372,2.3204,2.3142,2.3013,2.2753,2.2601,2.2445,2.2361,2.228,2.2193,2.2103,2.2063,2.1896,2.1932,2.1985,2.1989,2.1977,2.1842,2.1909,2.1871,2.1793,2.1694,2.1667,2.2577,2.4258,2.6696,2.964,3.2101,3.323,3.3993,3.3667,3.2951,3.0432,2.6098,2.1273,1.9322,1.9934,2.0397,2.0894,2.1122,2.1507,2.1401,2.148,2.1341,2.1514,2.1472,2.157,2.1413,2.1487,2.1412,2.1563,2.1446,2.1526,2.1402,2.1452,2.1454,2.1488,2.1478,2.1461,2.1402,2.1474,2.1479,2.1515,2.1425,2.1476,2.152,2.1527,2.1504,2.1506,2.1499,2.1493,2.1516,2.1505,2.1459,2.1451,2.1484,2.1567,2.1507,2.1436,2.1452,2.1476,2.1495,2.1462,2.1503,2.1445,2.1447,2.1494,2.1463,2.1453,2.1391,2.1435,2.1551,2.1538,2.1518,2.143,2.1513,2.1584,2.165,2.1654,2.1625,2.1603,2.1719,2.1749,2.1746,2.1698,2.1795,2.1841,2.1931,2.1908,2.1931,2.1968,2.2063,2.2187,2.2245,2.224,2.2311,2.2395,2.2577,2.258,2.2562,2.2581,2.2599,2.2667,2.2718,2.2652,2.2675,2.2641,2.2785,2.2729,2.2732,2.2658,2.2703,2.2771,2.2869,2.2897,2.2833,2.2834,2.2968,2.3035,2.3062,2.2993,2.3106,2.3154,2.3245,2.3255,2.3168,2.3198,2.3258,2.331,2.3332,2.3314,2.325,2.3225,2.333,2.3259,2.3203,2.3123,2.3087,2.3156,2.3133,2.3068,2.2973,2.2938,2.2985,2.2892,2.2789,2.2691,2.2671,2.275,2.2722,2.2661,2.2538,2.2512,2.2518,2.2467,2.2529,2.2352,2.234,2.2359,2.2375,2.2353,2.2242,2.2238,2.2249,2.2266,2.2302,2.2193,2.2198,2.222,2.2247,2.224,2.2218,2.2145,2.2128,2.2206,2.2179,2.2141,2.2095,2.2117,2.2175,2.2165,2.2113,2.2022,2.2039,2.2088,2.2087,2.2066,2.1984,2.2024,2.2112,2.2086,2.2088,2.2026,2.1985,2.2011,2.2073,2.212,2.1975,2.2015,2.2002,2.2034,2.2052,2.2042,2.1967,2.2013,2.2047,2.2073,2.1959,2.1904,2.199,2.2058,2.2068,2.2075,2.1973,2.1993,2.1996,2.1998,2.2004,2.197,2.1939,2.205,2.2066,2.2006,2.1932,2.1959,2.2052,2.2045,2.1994,2.1981,2.1938,2.2027,2.201,2.2016,2.197,2.2003,2.1995,2.2009,2.2034,2.1997,2.1988,2.2005,2.2064,2.204,2.2048,2.2148,2.2261,2.2449,2.2573,2.2577,2.27,2.2837,2.2991,2.2997,2.3054,2.3092,2.3099,2.3158,2.3211,2.32,2.304,2.2953,2.2816,2.2576,2.245,2.2298,2.2148,2.2129,2.2056,2.1943,2.1845,2.187,2.1923,2.1996,2.1875,2.1826,2.183,2.1846,2.1799,2.1754,2.1591,2.1697,2.2501,2.4243,2.6807,2.9678,3.2192,3.3911,3.405,3.3518,3.186,2.8543,2.346,1.9903,1.938,1.9726,2.0333,2.0812,2.1143,2.1388,2.1474,2.1505,2.1491,2.1485,2.1545,2.1561,2.1511,2.1566,2.1629,2.1663,2.1647,2.1542,2.1598,2.1635,2.1689,2.1741,2.1628,2.1623,2.164,2.1735,2.1816,2.1742,2.1705,2.172,2.1826,2.1781,2.1704,2.1694,2.1733,2.1753,2.177,2.1711,2.1735,2.1793,2.184,2.1803,2.1818,2.1693,2.1779,2.1764,2.1823,2.1826,2.1713,2.1727,2.1786,2.1757,2.1795,2.1637,2.1686,2.1726,2.1809,2.1811,2.1769,2.1791,2.1896,2.1906,2.1899,2.1866,2.1888,2.1895,2.2009,2.2031,2.2021,2.1928,2.1997,2.209,2.2112,2.2144,2.2113,2.2189,2.2296,2.2335,2.2406,2.2458,2.2585,2.2648,2.2779,2.281,2.2784,2.2788,2.2828,2.2861,2.2857,2.2757,2.2772,2.2828,2.2807,2.282,2.2747,2.2775,2.2828,2.2946,2.2986,2.2925,2.2964,2.2983,2.3051,2.307,2.317,2.3136,2.3206,2.3335,2.3297,2.3362,2.3359,2.3415,2.3528,2.3524,2.3508,2.3481,2.348,2.3574,2.3509,2.3504,2.3451,2.3467,2.3445,2.346,2.3443,2.3334,2.3281,2.3241,2.3278,2.318,2.3115,2.3052,2.3044,2.3075,2.2956,2.2985,2.2922,2.2853,2.2894,2.2855,2.2778,2.2743,2.2723,2.2715,2.2706,2.2675,2.2624,2.2693,2.2723,2.267,2.2601,2.2615,2.2557,2.2652,2.2684,2.2619,2.2549,2.2454,2.257,2.2652,2.2522,2.2463,2.2462,2.2482,2.2536,2.2577,2.2423,2.2459,2.247,2.2471,2.2479,2.245,2.2456,2.2425,2.2509,2.2461,2.2354,2.2389,2.2416,2.2547,2.2537,2.2461,2.2429,2.2418,2.247,2.2501,2.2478,2.2371,2.2365,2.249,2.2473,2.2515,2.2456,2.2418,2.2461,2.2514,2.2506,2.2445,2.2469,2.2479,2.252,2.2591,2.2621,2.2716,2.2833,2.2997,2.3121,2.3132,2.3303,2.336,2.3579,2.3669,2.3583,2.354,2.3581,2.3622,2.3557,2.3425,2.3242,2.3145,2.2956,2.2817,2.2539,2.2394,2.2297,2.2333,2.2292,2.2356,2.2298,2.2216,2.2223,2.2206,2.2278,2.2142,2.2197,2.2114,2.1981,2.2026,2.2356,2.3622,2.5754,2.8743,3.1495,3.3694,3.4448,3.4646,3.4257,3.252,2.9228,2.3707,2.029,1.9898,2.0289,2.0922,2.1293,2.1563,2.1803,2.178,2.1828,2.1769,2.1865,2.1942,2.1943,2.1941,2.1917,2.1884,2.1919,2.1938,2.197,2.1841,2.1867,2.2026,2.2036,2.2047,2.1923,2.1929,2.2078,2.2095,2.2052,2.1936,2.198,2.2058,2.2103,2.2074,2.2035,2.2053,2.2098,2.2101,2.2146,2.2064,2.1992,2.2019,2.2127,2.2055,2.2174,2.2063,2.2066,2.2167,2.2146,2.2026,2.1944,2.1928,2.2069,2.2076,2.2132,2.2045,2.2026,2.2153,2.2165,2.2115,2.2049,2.2129,2.2185,2.2278,2.2299,2.2282,2.233,2.2373,2.2378,2.2417,2.2367,2.24,2.2436,2.26,2.2566,2.2585,2.2642,2.2649,2.2817,2.2964,2.2933,2.3003,2.3071,2.3276,2.3248,2.3219,2.3175,2.3226,2.324,2.3242,2.3159,2.3072,2.3094,2.3187,2.3177,2.3171,2.31,2.3102,2.3149,2.3285,2.3328,2.3296,2.3403,2.345,2.3557,2.3591,2.356,2.3671,2.3744,2.3823,2.3814,2.3809,2.3834,2.383,2.3943,2.3949,2.3954,2.3872,2.3879,2.3924,2.3973,2.3916,2.385,2.3772,2.3762,2.376,2.3704,2.3624,2.3598,2.3558,2.3539,2.3515,2.3372,2.3362,2.3378,2.338,2.3349,2.3295,2.3277,2.3249,2.3244,2.3254,2.3122,2.3122,2.3069,2.3096,2.3081,2.3015,2.2995,2.3005,2.306,2.3069,2.2965,2.2945,2.2933,2.3026,2.2967,2.2939,2.2904,2.2941,2.2953,2.2938,2.2968,2.2818,2.2845,2.2912,2.2892,2.2917,2.2871,2.2835,2.2924,2.2927,2.2934,2.2826,2.2872,2.2915,2.2916,2.2956,2.2899,2.2871,2.2894,2.2921,2.2902,2.2851,2.2845,2.2889,2.2967,2.3117,2.3163,2.3313,2.344,2.3637,2.3734,2.3784,2.3858,2.3946,2.4037,2.4055,2.4059,2.3938,2.3978,2.4041,2.3895,2.3738,2.346,2.3204,2.3192,2.3039,2.2933,2.2748,2.2734,2.2719,2.2732,2.2661,2.2598,2.2571,2.2646,2.2611,2.2599,2.2575,2.2538,2.2498,2.2496,2.2426,2.3078,2.4391,2.6712,2.9617,3.2294,3.4345,3.4911,3.4402,3.3361,3.0381,2.5516,2.1047,2.0097,2.0649,2.0899,2.1439,2.1719,2.2041,2.2204,2.2278,2.2269,2.2224,2.2203,2.2315,2.2361,2.2432,2.2339,2.2351,2.2407,2.2509,2.2411,2.2419,2.2411,2.2519,2.2504,2.2484,2.2453,2.2433,2.2485,2.2581,2.2603,2.2524,2.2536,2.2548,2.2597,2.2652,2.2563,2.2574,2.2596,2.2707,2.2632,2.2575,2.2591,2.2571,2.2667,2.2656,2.2619,2.2576,2.2592,2.2612,2.2608,2.263,2.2538,2.2562,2.255,2.2621,2.2604,2.2561,2.2639,2.2609,2.2672,2.2734,2.2689,2.2731,2.2762,2.2787,2.2818,2.2778,2.2794,2.2815,2.2909,2.2919,2.2889,2.2897,2.296,2.3065,2.3143,2.3134,2.3106,2.3231,2.3361,2.3439,2.3495,2.3466,2.3567,2.3672,2.3689,2.3709,2.3601,2.3596,2.3622,2.3645,2.3623,2.3548,2.3614,2.3577,2.3577,2.3606,2.3552,2.3535,2.3612,2.3672,2.3725,2.3673,2.3713,2.3813,2.3888,2.3888,2.3924,2.3909,2.3982,2.4093,2.4135,2.4146,2.4081,2.411,2.4203,2.4219,2.4144,2.4116,2.4162,2.4207,2.4179,2.4161,2.4051,2.4004,2.407,2.4053,2.4041,2.393,2.3875,2.3836,2.3807,2.378,2.3679,2.3628,2.3669,2.3669,2.3571,2.3461,2.3472,2.3467,2.3505,2.3463,2.3418,2.3404,2.3375,2.3392,2.3377,2.3347,2.3306,2.3307,2.3387,2.3327,2.3338,2.3269,2.3253,2.3317,2.3274,2.3251,2.3265,2.3202,2.326,2.3252,2.3237,2.3213,2.3132,2.3199,2.324,2.3229,2.3206,2.3194,2.3189,2.3286,2.3211,2.3189,2.317,2.317,2.3254,2.3215,2.3111,2.3147,2.3139,2.329,2.3277,2.3237,2.3185,2.3093,2.3212,2.3278,2.3203,2.3134,2.312,2.3203,2.3248,2.3203,2.3138,2.318,2.3216,2.3192,2.3151,2.3119,2.3134,2.3199,2.3248,2.321,2.3159,2.3169,2.3185,2.327,2.327,2.3167,2.3231,2.3238,2.3253,2.3279,2.3202,2.3183,2.3234,2.3335,2.3261,2.3197,2.3217,2.323,2.3299,2.329,2.3214,2.3249,2.3273,2.3432,2.3533,2.3664,2.3713,2.3849,2.3993,2.4134,2.4194,2.4231,2.4311,2.4367,2.4436,2.443,2.4361,2.43,2.4199,2.4127,2.3864,2.3569,2.3526,2.3467,2.3374,2.3275,2.3179,2.3125,2.3064,2.3093,2.3126,2.3019,2.2983,2.299,2.3077,2.3021,2.2872,2.2746,2.281,2.3741,2.5293,2.773,3.0658,3.2084,3.4398,3.5513,3.5004,3.4295,3.1762,2.7748,2.2626,2.062,2.0816,2.148,2.2088,2.2329,2.2589,2.2484,2.2586,2.2651,2.2685,2.2673,2.2632,2.2616,2.2726,2.2747,2.2747,2.2727,2.2725,2.2691,2.2806,2.2738,2.2752,2.2675,2.2748,2.2787,2.2809,2.2727,2.2702,2.2691,2.2838,2.283,2.2829,2.2701,2.2717,2.2769,2.2819,2.2788,2.2738,2.2762,2.2787,2.2823,2.2839,2.2815,2.2765,2.2783,2.2837,2.2851,2.2788,2.2742,2.2783,2.2826,2.2832,2.2765,2.2724,2.2749,2.2801,2.2807,2.2805,2.2814,2.2847,2.2954,2.29,2.2976,2.2956,2.2953,2.3044,2.3028,2.2989,2.3019,2.304,2.3145,2.3085,2.3142,2.3102,2.3155,2.3234,2.3376,2.3385,2.3426,2.3504,2.3608,2.3722,2.3773,2.3763,2.3834,2.3899,2.3961,2.3935,2.3872,2.3883,2.3872,2.396,2.3904,2.3805,2.3823,2.3805,2.3869,2.3916,2.3871,2.3869,2.3945,2.4093,2.4091,2.405,2.4122,2.4199,2.4322,2.4384,2.4367,2.4316,2.4374,2.4475,2.4507,2.4447,2.4401,2.446,2.4472,2.4529,2.4503,2.4403,2.439,2.4343,2.4389,2.4354,2.425,2.4225,2.4172,2.4204,2.4167,2.4039,2.3968,2.3943,2.402,2.3934,2.3857,2.3743,2.3745,2.3805,2.3718,2.3691,2.3593,2.3583,2.3626,2.3625,2.3608,2.3476,2.3446,2.3467,2.351,2.3487,2.3385,2.3389,2.3425,2.3493,2.3393,2.3335,2.3342,2.3356,2.3374,2.3368,2.3279,2.3298,2.3294,2.3318,2.3391,2.3252,2.33,2.3268,2.3313,2.335,2.3214,2.3205,2.3226,2.3293,2.3311,2.3247,2.3188,2.3182,2.3256,2.3282,2.327,2.3182,2.3214,2.3249,2.3246,2.3231,2.3156,2.313,2.3187,2.3217,2.3256,2.3158,2.313,2.3217,2.3209,2.3238,2.3182,2.313,2.3128,2.3236,2.3201,2.3118,2.3089,2.3096,2.3192,2.3201,2.3143,2.3077,2.3108,2.3156,2.3136,2.3142,2.3128,2.311,2.3206,2.3108,2.3068,2.3074,2.3079,2.3128,2.3121,2.3112,2.3046,2.3069,2.3176,2.3365,2.3445,2.3535,2.3572,2.3741,2.388,2.3964,2.3946,2.4044,2.4107,2.4217,2.4184,2.427,2.4195,2.4119,2.4081,2.3883,2.3642,2.3394,2.3279,2.3208,2.3088,2.2952,2.2903,2.2814,2.2865,2.2834,2.2792,2.2741,2.2691,2.2825,2.2824,2.2743,2.2601,2.2541,2.2599,2.3377,2.4837,2.7166,3.008,3.279,3.479,3.5139,3.4472,3.319,3.0128,2.5283,2.1104,2.0199,2.079,2.1405,2.1882,2.2,2.2237,2.2249,2.2304,2.2401,2.2384,2.2319,2.2293,2.2337,2.241,2.2456,2.2399,2.2392,2.2409,2.2442,2.2469,2.2354,2.2389,2.2353,2.2501,2.2496,2.249,2.2321,2.2427,2.2423,2.2512,2.2491,2.2429,2.2479,2.2494,2.2563,2.2546,2.242,2.2507,2.2451,2.2555,2.2608,2.2409,2.2429,2.2504,2.2541,2.2506,2.2423,2.2332,2.2458,2.2516,2.2495,2.2452,2.237,2.2346,2.2432,2.2426,2.2506,2.2414,2.249,2.2566,2.2555,2.2594,2.261,2.2599,2.2729,2.2774,2.2768,2.2707,2.2667,2.27,2.2756,2.28,2.276,2.2814,2.2903,2.3062,2.3096,2.3042,2.3128,2.3278,2.3366,2.3416,2.3382,2.3498,2.3518,2.3522,2.3578,2.3558,2.3542,2.3586,2.3631,2.3582,2.3602,2.351,2.3463,2.3564,2.3496,2.3539,2.3494,2.3527,2.3687,2.3696,2.3683,2.3587,2.368,2.3823,2.3897,2.3924,2.3915,2.3973,2.406,2.4067,2.4024,2.4002,2.3986,2.4102,2.4154,2.4078,2.4085,2.4047,2.4005,2.4037,2.3968,2.3905,2.3863,2.3858,2.3864,2.3832,2.3832,2.3685,2.3574,2.3555,2.3568,2.3521,2.3424,2.3367,2.345,2.3403,2.3298,2.322,2.3203,2.3218,2.3293,2.3216,2.3083,2.3096,2.3098,2.3154,2.3082,2.3015,2.303,2.2948,2.2993,2.2982,2.2986,2.2924
