1.7128,1.7126,1.7146,1.6988,1.6927,1.6754,1.6777,1.6944,1.6732,1.6715,1.6671,1.6674,1.6789,1.6795,1.6714,1.6763,1.6615,1.6734,1.6892,1.6874,1.6784,1.6832,1.6777,1.6853,1.6819,1.6661,1.6508,1.6782,1.6739,1.6778,1.6581,1.6545,1.6604,1.6556,1.6516,1.6509,1.6473,1.6381,1.6481,1.6564,1.6247,1.6181,1.6263,1.6456,1.642,1.6288,1.6263,1.6357,1.6402,1.6537,1.6665,1.6567,1.6709,1.669,1.696,1.688,1.6719,1.7015,1.7339,1.7241,1.6996,1.6893,1.6944,1.6956,1.6953,1.6776,1.6467,1.6135,1.6056,1.6141,1.6061,1.5885,1.5997,1.5962,1.5967,1.6083,1.5991,1.5977,1.5984,1.6136,1.595,1.6094,1.5946,1.5917,1.5565,1.4868,1.4231,1.4075,1.4234,1.532,1.8436,2.2904,2.7215,2.9475,3.2237,3.2928,2.7087,2.0421,1.4996,1.2308,1.1158,1.0438,1.1213,1.2658,1.4428,1.5384,1.5896,1.5823,1.5808,1.5845,1.6199,1.6221,1.6104,1.6148,1.6194,1.6271,1.6209,1.6224,1.6156,1.6228,1.6504,1.6439,1.6537,1.6439,1.6414,1.6599,1.6863,1.6507,1.622,1.6448,1.6491,1.6544,1.6866,1.6302,1.6421,1.6503,1.6584,1.6606,1.6455,1.6532,1.6812,1.6585,1.668,1.646,1.6511,1.6711,1.6523,1.6565,1.657,1.6536,1.6646,1.6814,1.6635,1.6681,1.6487,1.6566,1.6875,1.6999,1.6757,1.6641,1.6887,1.7118,1.6833,1.7023,1.7226,1.7046,1.7356,1.7529,1.7465,1.7301,1.7371,1.7323,1.734,1.7342,1.7029,1.7008,1.7144,1.7061,1.6756,1.6853,1.6637,1.6756,1.6767,1.6628,1.6376,1.6465,1.6591,1.6678,1.6671,1.6623,1.6302,1.6323,1.6632,1.657,1.6421,1.6425,1.6223,1.6294,1.6497,1.6402,1.633,1.6258,1.6533,1.6404,1.6316,1.6362,1.6329,1.6293,1.6433,1.6505,1.6335,1.6319,1.6383,1.6376,1.6468,1.6287,1.6225,1.6432,1.6397,1.6225,1.6001,1.6256,1.6242,1.6462,1.6537,1.6324,1.6539,1.6606,1.6703,1.6774,1.6577,1.6479,1.6907,1.7376,1.7213,1.7201,1.7139,1.6911,1.7009,1.7035,1.6718,1.6505,1.6312,1.6148,1.6309,1.5971,1.5969,1.5994,1.5962,1.6053,1.5929,1.5882,1.5859,1.5991,1.5966,1.6056,1.6028,1.5989,1.5863,1.6041,1.5721,1.4761,1.4146,1.4023,1.4682,1.6957,1.9205,2.359,2.7714,2.9505,3.1601,3.145,2.604,1.944,1.4925,1.2501,1.1417,1.0891,1.112,1.2047,1.337,1.4601,1.5477,1.5655,1.5885,1.5867,1.6069,1.5993,1.601,1.6136,1.6294,1.6215,1.6383,1.6159,1.637,1.6314,1.6386,1.6239,1.6348,1.6333,1.648,1.6445,1.6391,1.6302,1.6401,1.6537,1.6511,1.6547,1.6372,1.6306,1.6442,1.6589,1.6433,1.649,1.6507,1.6571,1.6498,1.6641,1.6593,1.6554,1.6602,1.6596,1.6799,1.6538,1.6439,1.6548,1.6737,1.6641,1.648,1.6621,1.6561,1.6703,1.6698,1.656,1.6628,1.66,1.6844,1.6818,1.6832,1.6872,1.7115,1.7278,1.733,1.7247,1.7315,1.7238,1.7506,1.7601,1.7361,1.738,1.7178,1.7031,1.7175,1.7152,1.6999,1.6868,1.6893,1.6979,1.67,1.6396,1.6342,1.6729,1.6611,1.6638,1.6563,1.6649,1.6484,1.6511,1.6572,1.657,1.6561,1.6566,1.6648,1.6873,1.6548,1.6537,1.6569,1.6666,1.6611,1.6493,1.6575,1.6565,1.6611,1.6529,1.6511,1.6398,1.6544,1.6411,1.6513,1.642,1.6211,1.6234,1.6359,1.6387,1.6344,1.6228,1.6137,1.6268,1.6207,1.6285,1.6243,1.6476,1.6543,1.6741,1.6795,1.6713,1.6518,1.6688,1.6917,1.7192,1.7162,1.6977,1.6906,1.6884,1.6653,1.6721,1.6466,1.6371,1.6038,1.5913,1.5835,1.5559,1.5495,1.5846,1.5773,1.5798,1.5761,1.5709,1.5763,1.5775,1.5749,1.5546,1.5523,1.5638,1.5883,1.568,1.5141,1.4501,1.3957,1.384,1.4369,1.5976,2.0364,2.499,2.6992,2.897,3.1088,3.1867,2.6692,2.0142,1.496,1.2214,1.1031,1.0343,1.085,1.1653,1.3284,1.439,1.5316,1.5695,1.596,1.5614,1.5697,1.5623,1.5955,1.6185,1.5868,1.576,1.592,1.605,1.5976,1.583,1.6047,1.5905,1.6011,1.5981,1.6116,1.5948,1.602,1.6118,1.636,1.62,1.5957,1.5853,1.6186,1.6009,1.6227,1.6295,1.6171,1.6034,1.6258,1.6121,1.6131,1.5935,1.6136,1.619,1.6269,1.6111,1.599,1.596,1.611,1.6096,1.6088,1.5904,1.5927,1.6144,1.6288,1.6228,1.6219,1.6079,1.6123,1.6379,1.6287,1.6003,1.6237,1.6474,1.6642,1.6751,1.6628,1.6794,1.675,1.697,1.6978,1.6919,1.6888,1.6832,1.6843,1.6708,1.6686,1.6562,1.6385,1.6499,1.6417,1.6207,1.6197,1.6239,1.6256,1.6317,1.6172,1.5981,1.5821,1.6095,1.6243,1.6208,1.6094,1.6139,1.5959,1.6263,1.612,1.6082,1.6083,1.6097,1.6105,1.6108,1.6117,1.608,1.6108,1.6217,1.6094,1.6043,1.6041,1.6017,1.6025,1.6116,1.5983,1.5887,1.5809,1.5865,1.6027,1.6084,1.5812,1.5764,1.5867,1.5982,1.5878,1.5813,1.5868,1.5831,1.5733,1.5788,1.5723,1.558,1.5767,1.5839,1.5797,1.5702,1.5577,1.5626,1.563,1.5762,1.5755,1.5705,1.5683,1.5781,1.5768,1.5931,1.5922,1.5985,1.6112,1.61,1.5846,1.5963,1.6062,1.6519,1.6425,1.6287,1.5982,1.5957,1.6122,1.6116,1.6037,1.5866,1.5611,1.534,1.5302,1.5199,1.5162,1.5101,1.5173,1.5122,1.5174,1.5057,1.5011,1.5033,1.5288,1.5213,1.5048,1.5023,1.5098,1.5312,1.4855,1.4021,1.3424,1.3375,1.4018,1.5934,2.0175,2.4651,2.7979,2.9958,3.3006,2.9729,2.6107,2.0139,1.4134,1.193,1.0359,0.99492,1.0324,1.2153,1.3542,1.4734,1.4824,1.5268,1.5005,1.5476,1.5314,1.542,1.5256,1.565,1.5482,1.5515,1.5316,1.557,1.5395,1.5707,1.5615,1.566,1.5476,1.549,1.5515,1.5645,1.5429,1.5397,1.5436,1.5676,1.5597,1.5607,1.563,1.5452,1.5732,1.5796,1.5683,1.5557,1.5527,1.5638,1.5581,1.5634,1.5499,1.5497,1.5606,1.5709,1.5707,1.551,1.5597,1.5542,1.569,1.575,1.5529,1.5469,1.5823,1.6018,1.5895,1.5777,1.5776,1.5849,1.6074,1.6006,1.5989,1.5804,1.5893,1.633,1.6556,1.6379,1.6526,1.6479,1.6862,1.6726,1.6618,1.6521,1.6508,1.639,1.6667,1.6493,1.6208,1.623,1.6259,1.6264,1.6323,1.5986,1.6136,1.5998,1.6249,1.6144,1.5988,1.5775,1.6019,1.5919,1.6064,1.5863,1.587,1.5886,1.6016,1.5996,1.6007,1.5797,1.5929,1.614,1.6018,1.596,1.5842,1.5798,1.6017,1.5821,1.5896,1.5936,1.5821,1.5887,1.5889,1.5925,1.5825,1.5893,1.5814,1.5858,1.5886,1.5724,1.5583,1.5803,1.5774,1.5777,1.5596,1.5543,1.5622,1.5629,1.5737,1.561,1.5594,1.5613,1.5773,1.5722,1.5692,1.5535,1.5515,1.5642,1.5625,1.5583,1.5369,1.539,1.5586,1.5563,1.5511,1.5357,1.5446,1.5567,1.5565,1.5518,1.5541,1.5406,1.5559,1.5658,1.5572,1.5612,1.5326,1.5423,1.5514,1.5581,1.5395,1.5321,1.5424,1.5679,1.54,1.5377,1.5437,1.5454,1.5751,1.5919,1.5747,1.5654,1.5688,1.5852,1.5746,1.6238,1.6104,1.6007,1.6011,1.5922,1.5914,1.5912,1.5751,1.5812,1.5596,1.5175,1.5195,1.5145,1.5305,1.5216,1.5042,1.502,1.5056,1.5138,1.5339,1.529,1.5182,1.5186,1.5153,1.5483,1.5303,1.5113,1.4862,1.4121,1.3653,1.3614,1.3901,1.6186,2.0404,2.4986,2.7988,2.9653,3.1748,3.0983,2.5524,1.9352,1.416,1.1824,1.0578,1.0259,1.0489,1.1241,1.2496,1.3714,1.4723,1.518,1.5416,1.5206,1.5234,1.5485,1.5538,1.5525,1.5449,1.5551,1.5494,1.5733,1.5731,1.5632,1.5607,1.5681,1.5759,1.5755,1.5658,1.5694,1.5761,1.576,1.5837,1.5695,1.5676,1.5678,1.5835,1.5788,1.584,1.5723,1.5885,1.5745,1.5812,1.5942,1.5765,1.5711,1.5911,1.5908,1.596,1.5749,1.5641,1.5756,1.588,1.5829,1.5709,1.5709,1.5822,1.577,1.5864,1.5874,1.5781,1.5764,1.5877,1.6004,1.5928,1.5916,1.5922,1.6217,1.6071,1.6257,1.6258,1.6349,1.6622,1.6715,1.6684,1.6669,1.6745,1.6658,1.6759,1.6807,1.6584,1.6387,1.6515,1.6738,1.6517,1.6261,1.6274,1.6258,1.6287,1.6105,1.6016,1.5944,1.6214,1.6207,1.6125,1.6055,1.6069,1.6147,1.6261,1.6232,1.6153,1.6149,1.6106,1.6273,1.6226,1.62,1.6059,1.609,1.631,1.6141,1.6178,1.6125,1.6062,1.6275,1.6327,1.6158,1.5954,1.6097,1.6179,1.6126,1.6134,1.5917,1.5857,1.5912,1.6088,1.606,1.5897,1.5852,1.5834,1.6064,1.5992,1.5847,1.5786,1.5807,1.6052,1.5926,1.5909,1.5812,1.5763,1.593,1.6094,1.5871,1.5831,1.5656,1.609,1.6105,1.599,1.6092,1.6103,1.627,1.6242,1.6148,1.6123,1.6097,1.6435,1.6722,1.6636,1.6496,1.6388,1.6207,1.646,1.6309,1.6257,1.6153,1.6066,1.5687,1.5567,1.5419,1.5425,1.5428,1.5528,1.5481,1.5302,1.5351,1.5285,1.553,1.5563,1.5472,1.532,1.5566,1.5466,1.5428,1.5122,1.4578,1.375,1.377,1.4112,1.545,1.8747,2.3245,2.7163,2.9098,3.1786,3.1268,2.5285,1.9093,1.4065,1.2614,1.1146,1.0065,1.0407,1.1188,1.2706,1.3999,1.4879,1.5132,1.5416,1.5454,1.522,1.5307,1.5719,1.5936,1.5761,1.5735,1.5658,1.5744,1.6016,1.6115,1.5967,1.5722,1.5829,1.6026,1.5981,1.6074,1.5815,1.5869,1.5917,1.6019,1.6138,1.5902,1.6049,1.6052,1.6156,1.6076,1.6049,1.6043,1.6157,1.6211,1.6221,1.608,1.5951,1.6086,1.6321,1.6279,1.6091,1.6001,1.6014,1.6293,1.6096,1.5989,1.6154,1.6248,1.6279,1.6211,1.625,1.6267,1.6183,1.6356,1.6393,1.6313,1.624,1.6312,1.651,1.6569,1.6675,1.6602,1.6643,1.6927,1.6881,1.6959,1.6672,1.6663,1.6903,1.6853,1.6631,1.6512,1.6556,1.6488,1.648,1.6345,1.6299,1.622,1.6066,1.6303,1.6233,1.6202,1.6054,1.61,1.6181,1.606,1.6093,1.5947,1.5962,1.6091,1.6031,1.6085,1.6022,1.5939,1.6067,1.6178,1.6324,1.606,1.5913,1.5976,1.6204,1.6102,1.5941,1.6011,1.604,1.6176,1.6112,1.5792,1.6089,1.583,1.6042,1.609,1.5941,1.5874,1.5754,1.598,1.5991,1.5888,1.589,1.5816,1.5884,1.5905,1.5775,1.5874,1.5737,1.5784,1.5936,1.5676,1.575,1.5687,1.5795,1.5864,1.576,1.5628,1.5661,1.5698,1.5743,1.5774,1.5573,1.556,1.573,1.5829,1.5793,1.5706,1.5707,1.5694,1.5829,1.5883,1.5555,1.5696,1.5597,1.5747,1.5902,1.5747,1.5668,1.5832,1.5808,1.6024,1.6,1.5983,1.5973,1.6235,1.6255,1.6238,1.6185,1.6677,1.676,1.6442,1.6376,1.6136,1.6295,1.6362,1.6363,1.622,1.5962,1.5618,1.5557,1.5615,1.5512,1.5487,1.5495,1.5519,1.5574,1.5594,1.5491,1.5347,1.5421,1.5733,1.5735,1.5605,1.5577,1.5372,1.5512,1.4559,1.3939,1.3658,1.416,1.6126,1.9994,2.4652,2.8256,3.0009,3.3486,3.0651,2.4067,1.7875,1.3204,1.1848,1.0419,1.0496,1.0824,1.2189,1.3887,1.5169,1.5549,1.551,1.5328,1.5744,1.5735,1.5786,1.5759,1.5819,1.5802,1.601,1.597,1.5853,1.5877,1.5967,1.6027,1.6205,1.6001,1.5962,1.5955,1.617,1.6133,1.618,1.6058,1.6176,1.6189,1.6186,1.6143,1.6076,1.6058,1.6196,1.6196,1.6212,1.611,1.5979,1.6372,1.6391,1.6332,1.6236,1.6217,1.6219,1.6419,1.6344,1.6174,1.6151,1.6306,1.6515,1.6347,1.6368,1.639,1.6445,1.6581,1.6613,1.6462,1.6511,1.6632,1.6767,1.6771,1.6738,1.6846,1.6918,1.6999,1.7122,1.7095,1.7188,1.7208,1.7298,1.7378,1.725,1.7065,1.7236,1.7227,1.7112,1.7059,1.6833,1.6832,1.6757,1.6816,1.6747,1.6717,1.6621,1.6484,1.6476,1.6469,1.6392,1.6442,1.6285,1.6599,1.6587,1.6434,1.6247,1.6324,1.6412,1.6486,1.6375,1.632,1.6261,1.6346,1.6281,1.6309,1.612,1.6336,1.6264,1.6196,1.6241,1.6036,1.6148,1.6272,1.6263,1.6243,1.5999,1.6041,1.6185,1.6193,1.6183,1.5925,1.5917,1.6005,1.6188,1.6108,1.5983,1.5984,1.6087,1.6146,1.6213,1.6156,1.5885,1.5992,1.6118,1.6095,1.5952,1.5938,1.5879,1.6059,1.607,1.5919,1.5751,1.5819,1.5997,1.6047,1.6046,1.5934,1.5927,1.5965,1.5911,1.6111,1.5606,1.5869,1.6052,1.5916,1.5981,1.5881,1.5927,1.6017,1.627,1.62,1.6214,1.6047,1.6224,1.6384,1.6295,1.6218,1.6235,1.6628,1.6747,1.6505,1.6545,1.6237,1.6329,1.6447,1.6305,1.6219,1.5721,1.5597,1.5668,1.5582,1.5693,1.5571,1.5638,1.5528,1.5752,1.5579,1.5467,1.5564,1.5672,1.5662,1.5751,1.5661,1.5563,1.5357,1.4459,1.3848,1.3728,1.4152,1.6249,1.845,2.3,2.696,2.8845,3.0823,3.1431,2.6257,1.9661,1.4572,1.2093,1.1099,1.0486,1.0619,1.1289,1.2737,1.4108,1.5157,1.5361,1.553,1.5447,1.5632,1.5531,1.5826,1.5521,1.5798,1.5785,1.594,1.5798,1.5785,1.595,1.5979,1.5981,1.61,1.5983,1.6021,1.5845,1.6116,1.6159,1.6123,1.6008,1.6075,1.6186,1.6283,1.61,1.5992,1.614,1.6146,1.6327,1.6359,1.6277,1.6095,1.6108,1.6391,1.6305,1.6137,1.5894,1.6379,1.6418,1.623,1.6153,1.6169,1.6355,1.635,1.6393,1.6199,1.623,1.6389,1.6454,1.6411,1.6238,1.6256,1.6456,1.6589,1.6681,1.6543,1.6651,1.6688,1.6843,1.693,1.6978,1.7057,1.7125,1.7046,1.7125,1.7063,1.6814,1.675,1.6858,1.6792,1.6686,1.6381,1.6399,1.6491,1.63,1.6366,1.632,1.624,1.6385,1.6134,1.6317,1.6124,1.6142,1.6319,1.6446,1.6319,1.6289,1.6169,1.6248,1.6332,1.6363,1.638,1.6237,1.6247,1.6371,1.6307,1.629,1.6343,1.6245,1.6299,1.6321,1.6392,1.616,1.6199,1.6334,1.6286,1.6231,1.6086,1.6013,1.6121,1.6158,1.6141,1.5887,1.5908,1.6138,1.6066,1.613,1.5945,1.588,1.5934,1.6135,1.6153,1.5915,1.5972,1.6035,1.6244,1.6184,1.602,1.5967,1.5875,1.6112,1.5923,1.5962,1.5888,1.614,1.6355,1.6335,1.6269,1.6336,1.6289,1.6377,1.644,1.6473,1.6742,1.6853,1.6674,1.6545,1.6465,1.6344,1.6276,1.6394,1.6393,1.608,1.5691,1.5618,1.5591,1.5526,1.5695,1.5462,1.5496,1.5421,1.5666,1.5624,1.5541,1.55,1.5599,1.5574,1.5579,1.5592,1.5417,1.4623,1.3924,1.3849,1.3922,1.514,1.8463,2.3053,2.7097,2.8365,2.9795,3.2644,2.9262,2.2706,1.6631,1.259,1.1197,1.0124,1.0384,1.1206,1.2567,1.3887,1.5034,1.5287,1.5429,1.5221,1.5414,1.5495,1.5595,1.5508,1.564,1.5483,1.564,1.5658,1.5754,1.5789,1.5613,1.5653,1.5925,1.5913,1.57,1.5709,1.5852,1.5891,1.59,1.5802,1.5753,1.5755,1.6005,1.5992,1.5965,1.5938,1.5969,1.6198,1.6248,1.6292,1.6108,1.6035,1.6036,1.604,1.5975,1.5799,1.5792,1.5758,1.5816,1.5871,1.5643,1.5825,1.586,1.5985,1.5983,1.5915,1.5914,1.6139,1.6229,1.6022,1.6064,1.5967,1.6154,1.6358,1.6264,1.6411,1.6223,1.6471,1.6636,1.6627,1.6612,1.6487,1.6423,1.6549,1.6659,1.6421,1.6314,1.6257,1.6289,1.6227,1.6147,1.6076,1.5757,1.5851,1.5936,1.5821,1.5626,1.5745,1.579,1.5862,1.5688,1.5645,1.5604,1.5618,1.5781,1.5895,1.5734,1.5661,1.5505,1.5765,1.5799,1.5717,1.562,1.564,1.5708,1.5688,1.5766,1.5659,1.5497,1.5692,1.5604,1.5472,1.5338,1.5514,1.5466,1.5616,1.5714,1.5459,1.5312,1.5381,1.5576,1.5499,1.5194,1.5316,1.5463,1.5418,1.5423,1.5266,1.5169,1.5136,1.5499,1.5214,1.5212,1.5201,1.5139,1.5315,1.5307,1.5219,1.508,1.5269,1.5394,1.5445,1.5334,1.5312,1.5209,1.5354,1.5441,1.527,1.5185,1.5176,1.5198,1.5332,1.5373,1.5308,1.5292,1.5272,1.5569,1.5444,1.5259,1.5369,1.5303,1.5411,1.5378,1.5213,1.5342,1.5306,1.549,1.5435,1.5262,1.546,1.551,1.5655,1.5914,1.5838,1.567,1.5771,1.5815,1.5865,1.6347,1.6136,1.5904,1.5853,1.6088,1.6004,1.5764,1.5844,1.5771,1.5679,1.5259,1.5096,1.5032,1.4966,1.5128,1.5186,1.5088,1.4982,1.5087,1.5184,1.5236,1.5156,1.4962,1.5068,1.5177,1.5151,1.5015,1.424,1.348,1.3229,1.3487,1.4653,1.7885,2.0247,2.4791,2.8353,3.0117,3.3422,2.9256,2.2691,1.6515,1.2429,1.0898,0.97648,1.0094,1.1212,1.3063,1.413,1.4747,1.5119,1.5282,1.5135,1.5178,1.5073,1.5272,1.5453,1.5433,1.5271,1.5486,1.5411,1.5666,1.5475,1.5543,1.5537,1.5365,1.5578,1.5949,1.5499,1.5649,1.5614,1.5722,1.572,1.5523,1.5258,1.5572,1.5507,1.5584,1.5609,1.5481,1.5338,1.549,1.5533,1.5511,1.5473,1.5365,1.5508,1.5536,1.5609,1.5339,1.5449,1.528,1.5435,1.5375,1.5408,1.5269,1.5399,1.5625,1.5566,1.5371,1.5504,1.5394,1.5815,1.5709,1.5744,1.5808,1.5775,1.5786,1.5959,1.6021,1.6091,1.6101,1.6322,1.6299,1.6247,1.6124,1.6256,1.6294,1.6376,1.6177,1.6132,1.6159,1.588,1.6127,1.5964,1.5537,1.5701,1.567,1.5723,1.5548,1.5603,1.5513,1.5781,1.5824,1.5774,1.5617,1.5555,1.552,1.5796,1.5832,1.5598,1.538,1.5631,1.5738,1.5799,1.5672,1.5507,1.5606,1.5546,1.5703,1.5704,1.5638,1.5606,1.5491,1.5558,1.5686,1.5433,1.5591,1.5637,1.5725,1.5485,1.5273,1.5326,1.5529,1.5479,1.5627,1.5553,1.5592,1.538,1.5656,1.5636,1.5566,1.5516,1.5505,1.5651,1.5346,1.558,1.5448,1.5345,1.557,1.5653,1.5706,1.5349,1.5548,1.5718,1.5538,1.5697,1.5286,1.5552,1.5928,1.5697,1.5885,1.5836,1.5873,1.607,1.6132,1.6124,1.6088,1.5751,1.6259,1.6595,1.6396,1.6023,1.6199,1.6184,1.6236,1.6146,1.5821,1.5456,1.5617,1.541,1.5226,1.5402,1.5162,1.5326,1.5396,1.5432,1.5106,1.4984,1.4963,1.5347,1.5315,1.5326,1.5408,1.5545,1.5442,1.5267,1.4486,1.3759,1.3561,1.3637,1.3912,1.5673,1.9996,2.4381,2.7636,2.9413,3.1791,2.9239,2.301,1.6966,1.2837,1.1503,1.0369,1.04,1.059,1.1976,1.3257,1.4366,1.4967,1.5127,1.5317,1.5435,1.5525,1.5387,1.5334,1.5603,1.5737,1.5607,1.5646,1.5479,1.5879,1.5953,1.5769,1.5762,1.5684,1.5763,1.5916,1.5875,1.5754,1.5664,1.5646,1.6019,1.5899,1.589,1.5969,1.5837,1.5869,1.63,1.6068,1.6099,1.6016,1.6144,1.6158,1.6051,1.6097,1.5944,1.6168,1.6165,1.6107,1.5963,1.6064,1.6129,1.6266,1.6165,1.6189,1.613,1.6278,1.6198,1.6127,1.6279,1.6393,1.6382,1.6534,1.6476,1.6422,1.6334,1.6696,1.6768,1.6828,1.6775,1.6869,1.6965,1.706,1.7005,1.6754,1.6827,1.666,1.6782,1.6699,1.6473,1.6301,1.6202,1.6273,1.6269,1.6097,1.6035,1.5929,1.6017,1.6095,1.61,1.5841,1.5862,1.5826,1.5963,1.6024,1.5765,1.5913,1.5964,1.6024,1.6146,1.5906,1.5839,1.6037,1.6007,1.596,1.5932,1.5824,1.5937,1.5957,1.6061,1.5775,1.5758,1.5859,1.5921,1.5968,1.5757,1.5731,1.5678,1.5717,1.5898,1.5739,1.5702,1.5729,1.5845,1.576,1.5567,1.536,1.5433,1.578,1.5648,1.5596,1.5537,1.5381,1.5387,1.5737,1.5531,1.5448,1.5382,1.5485,1.5556,1.572,1.5649,1.5693,1.5789,1.5909,1.593,1.5634,1.5762,1.6274,1.644,1.6099,1.5968,1.5917,1.5862,1.6042,1.597,1.5827,1.5513,1.5282,1.5068,1.5108,1.5106,1.4874,1.4981,1.514,1.504,1.5122,1.4878,1.4798,1.4974,1.5049,1.5098,1.5023,1.4879,1.5072,1.4891,1.3984,1.3462,1.3196,1.3576,1.5234,1.9088,2.3493,2.7164,2.8813,3.2131,3.0516,2.4016,2.097,1.4952,1.1728,1.0615,0.9442,0.98472,1.1023,1.271,1.3866,1.4794,1.4743,1.4805,1.4935,1.511,1.5165,1.5087,1.496,1.5393,1.5296,1.5376,1.5238,1.5383,1.5067,1.528,1.5226,1.5177,1.5083,1.5205,1.5341,1.5404,1.5219,1.5221,1.5214,1.5535,1.5364,1.5063,1.5023,1.533,1.5434,1.5334,1.5284,1.5282,1.5266,1.5421,1.5458,1.5405,1.5338,1.5218,1.5349,1.5441,1.5589,1.5358,1.5433,1.5501,1.5523,1.5524,1.5448,1.5432,1.5636,1.5639,1.564,1.5657,1.5608,1.577,1.5832,1.5984,1.595,1.6005,1.6117,1.6172,1.634,1.6195,1.6087,1.6095,1.6222,1.6231,1.5961,1.5759,1.5799,1.5734,1.577,1.5815,1.5714,1.5463,1.5548,1.549,1.5497,1.531,1.5352,1.5437,1.5491,1.5444,1.5291,1.5249,1.5418,1.5384,1.5357,1.5311,1.5248,1.5103,1.5508,1.5567,1.5395,1.5415,1.5505,1.552,1.5473,1.531,1.5328,1.5297,1.5228,1.5255,1.5351,1.5083,1.5194,1.5356,1.5297,1.5338,1.5118,1.5111,1.52,1.52,1.5258,1.5207,1.5073,1.5138,1.529,1.5227,1.4969,1.5047,1.5164,1.5165,1.5119,1.5011,1.4984,1.5146,1.5195,1.522,1.519,1.5078,1.5102,1.5312,1.5159,1.5097,1.5094,1.5016,1.5287,1.512,1.5212,1.4985,1.4985,1.5286,1.5284,1.508,1.4974,1.4939,1.5157,1.5031,1.4872,1.4838,1.4902,1.4998,1.4923,1.4982,1.4971,1.4888,1.5092,1.5394,1.5471,1.5395,1.5293,1.5565,1.5616,1.562,1.572,1.5981,1.593,1.5839,1.5854,1.5676,1.5712,1.565,1.5793,1.568,1.5452,1.4952,1.5012,1.4951,1.5147,1.5018,1.4914,1.506,1.5191,1.5159,1.5054,1.5004,1.4965,1.511,1.5061,1.5256,1.5035,1.484,1.4253,1.3739,1.3431,1.3336,1.4242,1.6817,2.1312,2.5988,2.875,3.113,3.3143,2.824,2.1401,1.5387,1.1793,1.1363,1.0106,0.99848,1.0894,1.2545,1.3963,1.5156,1.5351,1.53,1.5093,1.5449,1.5451,1.5611,1.5552,1.5547,1.5776,1.5972,1.5865,1.6025,1.583,1.6016,1.5855,1.611,1.618,1.5983,1.5877,1.6126,1.6137,1.6182,1.5962,1.6137,1.6085,1.6289,1.6245,1.6103,1.6119,1.6276,1.6359,1.6262,1.6206,1.6264,1.6303,1.6371,1.6219,1.6347,1.613,1.6329,1.634,1.6282,1.6347,1.6229,1.6256,1.6414,1.6598,1.6542,1.6499,1.6554,1.6767,1.67,1.6696,1.647,1.6632,1.6682,1.6813,1.6822,1.6796,1.6934,1.7033,1.7208,1.7372,1.713,1.7259,1.7123,1.7284,1.7123,1.7012,1.6669,1.6754,1.6742,1.6651,1.6503,1.6403,1.6339,1.6497,1.6318,1.6215,1.6193,1.6242,1.6112,1.6232,1.6325,1.6079,1.6113,1.6168,1.6123,1.6161,1.5988,1.6126,1.6232,1.6261,1.6169,1.605,1.5901,1.5899,1.5966,1.5915,1.5922,1.5826,1.5632,1.5947,1.5832,1.5806,1.5638,1.5591,1.5959,1.5931,1.569,1.5681,1.5582,1.5749,1.5753,1.5697,1.5521,1.556,1.5649,1.5543,1.547,1.5391,1.5406,1.5523,1.5422,1.5373,1.5324,1.5324,1.5392,1.5315,1.5265,1.5301,1.5247,1.5225,1.5305,1.5286,1.5178,1.5194,1.5098,1.5309,1.5212,1.514,1.5236,1.5386,1.5435,1.5542,1.5659,1.5583,1.5443,1.5566,1.5746,1.6033,1.5991,1.5866,1.5943,1.5764,1.5668,1.5529,1.5552,1.5464,1.5523,1.5158,1.4656,1.4676,1.4661,1.4946,1.4803,1.4612,1.4763,1.4844,1.4911,1.476,1.4769,1.4594,1.4727,1.4778,1.4865,1.4636,1.467,1.3919,1.3294,1.2977,1.3031,1.4094,1.7289,2.2043,2.6587,2.8542,3.1271,3.1635,2.597,1.9545,1.6146,1.235,1.0346,0.94167,0.93791,1.0702,1.2167,1.374,1.4506,1.4865,1.4728,1.466,1.468,1.4943,1.5,1.5126,1.4897,1.5076,1.5104,1.5055,1.5165,1.512,1.5074,1.5274,1.5366,1.5242,1.5135,1.5242,1.5223,1.5305,1.5396,1.5404,1.5292,1.531,1.5455,1.5486,1.5246,1.5296,1.5331,1.5463,1.5204,1.5365,1.5291,1.5277,1.5244,1.5367,1.5405,1.5194,1.5353,1.5408,1.5326,1.5484,1.5367,1.5306,1.5358,1.5505,1.5537,1.5373,1.5276,1.5393,1.557,1.55,1.5487,1.5564,1.5446,1.5824,1.5852,1.5789,1.586,1.5898,1.6057,1.6054,1.6119,1.601,1.6097,1.6056,1.6113,1.6047,1.6232,1.6169,1.5651,1.561,1.56,1.5384,1.541,1.4975,1.492,1.4909,1.4839,1.4876,1.4915,1.4992,1.4997,1.4953,1.4954,1.504,1.5195,1.527,1.5203,1.5138,1.506,1.5495,1.5643,1.5392,1.5252,1.5629,1.6017,1.5697,1.5505,1.5481,1.5027,1.5331,1.5388,1.5245,1.5216,1.5086,1.5232,1.5321,1.5421,1.5112,1.5101,1.4942,1.5135,1.5085,1.5021,1.4846,1.4941,1.5,1.4868,1.4931,1.5031,1.5045,1.5225,1.4962,1.4793,1.496,1.5064,1.5388,1.5432,1.5109,1.5155,1.5187,1.5211,1.5239,1.5614,1.5721,1.5589,1.5667,1.5706,1.5446,1.5231,1.5114,1.505,1.451,1.4498,1.447,1.4318,1.4514,1.4548,1.4211,1.4266,1.4279,1.4099,1.4299,1.4432,1.4274,1.4078,1.4227,1.4054,1.4332,1.4179,1.3466,1.2774,1.2219,1.2393,1.3233,1.5706,2.0595,2.2988,2.6323,2.8018,2.9908,2.8817,2.2703,1.6533,1.2001,1.0125,0.87783,0.9067,0.90158,1.0209,1.1651,1.2841,1.374,1.3955,1.4058,1.4148,1.4105,1.4077,1.4262,1.4465,1.4318,1.416,1.4148,1.4294,1.4418,1.4454,1.449,1.4285,1.4243,1.4326,1.4279,1.4274,1.4265,1.4526,1.4474,1.4432,1.4411,1.4446,1.4502,1.4571,1.4551,1.4452,1.4442,1.4652,1.4661,1.4684,1.4627,1.4433,1.4816,1.4866,1.4699,1.4569,1.4695,1.4648,1.4645,1.4716,1.4767,1.4618,1.4797,1.4982,1.4806,1.4848,1.4872,1.4827,1.5078,1.5,1.4983,1.4988,1.4833,1.5261,1.5201,1.5342,1.5349,1.5494,1.573,1.5669,1.5767,1.5534,1.5578,1.5431,1.5431,1.5549,1.5448,1.516,1.5123,1.5175,1.5177,1.5079,1.5132,1.5215,1.5246,1.4947,1.5124,1.4893,1.5064,1.5341,1.5271,1.5147,1.5498,1.5435,1.5669,1.5593,1.5463,1.5302,1.5223,1.5615,1.5535,1.5156,1.5134,1.5095,1.5278,1.515,1.4988,1.4994,1.4966,1.4974,1.4857,1.5008,1.4797,1.4928,1.4821,1.484,1.4868,1.4671,1.4518,1.462,1.4532,1.4501,1.4343,1.4439,1.4238,1.4533,1.4615,1.443,1.4359,1.4447,1.4205,1.4354,1.4468,1.4478,1.4646,1.4658,1.4574,1.4606,1.4453,1.4575,1.494,1.5238,1.515,1.4869,1.4814,1.4859,1.4673,1.4675,1.4529,1.453,1.4121,1.3692,1.3795,1.3623,1.3791,1.3817,1.3964,1.406,1.3746,1.3657,1.3863,1.3736,1.3814,1.3735,1.3742,1.4003,1.4028,1.3802,1.2834,1.2288,1.1929,1.2019,1.2695,1.5326,1.9676,2.4171,2.7271,2.8821,3.1222,2.6777,1.9961,1.44,1.0917,0.93577,0.83379,0.84885,0.97268,1.1304,1.2613,1.3087,1.3268,1.3595,1.3542,1.3976,1.371,1.3891,1.3618,1.4015,1.3795,1.385,1.3495,1.3879,1.4022,1.381,1.381,1.4046,1.4464,1.4439,1.4319,1.4172,1.4239,1.4392,1.4678,1.471,1.4615,1.454,1.4901,1.517,1.5093,1.5108,1.4913,1.4863,1.5042,1.4848,1.4718,1.4604,1.4491,1.4843,1.4856,1.4434,1.3913,1.4036,1.392,1.4065,1.4074,1.3995,1.3812,1.3432,1.3548,1.3522,1.3563,1.3602,1.3418,1.3377,1.3536,1.3417,1.3202,1.3723,1.4056,1.3564,1.3637,1.3881,1.3834,1.3726,1.4116,1.3966,1.3846,1.3584,1.3814,1.3623,1.3733,1.3812,1.3666,1.3318,1.3312,1.3427,1.3328,1.3235,1.3139,1.3463,1.3666,1.3371,1.3189,1.3092,1.3289,1.3565,1.3476,1.3604,1.3135,1.3087,1.3035,1.3309,1.3171,1.3279,1.3458,1.3495,1.3112,1.3253,1.3546,1.321,1.3223,1.3326,1.3004,1.3145,1.3501,1.3854,1.3494,1.3318,1.3561,1.359,1.3598,1.3638,1.3343,1.3445,1.3981,1.393,1.3878,1.3714,1.3487,1.3212,1.3781,1.3805,1.3521,1.3794,1.3834,1.3822,1.3762,1.3618,1.3839,1.3692,1.3813,1.3742,1.4047,1.3937,1.404,1.3943,1.4081,1.4054,1.3902,1.3906,1.4062,1.4477,1.4423,1.4305,1.4402,1.4558,1.4895,1.5154,1.4844,1.4937,1.4813,1.5031,1.4909,1.459,1.4675,1.4408,1.4169,1.4223,1.4269,1.3936,1.4034,1.4355,1.416,1.4152,1.4013,1.3949,1.4099,1.4359,1.4428,1.4176,1.4278,1.411,1.4244,1.3856,1.2977,1.2423,1.2578,1.2769,1.4218,1.7404,2.2224,2.631,2.8172,3.128,3.0671,2.4977,1.8831,1.4034,1.1525,1.0264,1.0026,1.1067,1.2622,1.4398,1.5444,1.58,1.5965,1.6233,1.5818,1.6028,1.6411,1.6405,1.6696,1.7032,1.7254,1.7508,1.7136,1.6228,1.6999,1.7649,1.8458,1.6665,1.5895,1.628,1.611,1.6269,1.6257,1.6833,1.7125,1.6738,1.6693,1.6688,1.6644,1.6847,1.6846,1.6866,1.6809,1.6946,1.7107,1.7073,1.6996,1.713,1.7394,1.7662,1.784,1.7695,1.7819,1.8085,1.781,1.7868,1.7758,1.7778,1.8013,1.747,1.7356,1.7369,1.7246,1.7294,1.7171,1.7536,1.6894,1.6973,1.6949,1.7219,1.7197,1.701,1.6976,1.7142,1.7054,1.7431,1.6852,1.6768,1.6949,1.6943,1.6744,1.6257,1.6293,1.6338,1.5967,1.6031,1.5978,1.5591,1.5729,1.5641,1.5636,1.5707,1.5553,1.5239,1.5418,1.5309,1.5511,1.5342,1.5384,1.5547,1.5921,1.6108,1.4759,1.4149,1.4985,1.5794,1.5235,1.4461,1.3971,1.3618,1.4199,1.4236,1.3912,1.3875,1.3897,1.4057,1.411,1.4097,1.3941,1.3858,1.3892,1.4301,1.3967,1.3441,1.3646,1.378,1.3648,1.357,1.3793,1.3554,1.315,1.3273,1.3353,1.3532,1.3216,1.3415,1.3717,1.3443,1.3962,1.3951,1.4148,1.4018,1.4082,1.3947,1.3861,1.39,1.4016,1.4101,1.4285,1.4225,1.4519,1.4551,1.4283,1.4123,1.3709,1.3698,1.3316,1.3208,1.2549,1.2393,1.2391,1.2797,1.2822,1.2372,1.2405,1.2213,1.2741,1.2618,1.2538,1.2743,1.2869,1.2736,1.2834,1.2999,1.3123,1.2664,1.2326,1.1496,1.1337,1.1597,1.2423,1.5366,2.0533,2.4613,2.644,2.8479,2.9046,2.4334,1.7778,1.2221,1.0386,0.91481,0.75764,0.81073,0.838,0.94138,1.0947,1.2173,1.2762,1.3191,1.3142,1.3243,1.3134,1.3632,1.3306,1.3657,1.3543,1.3501,1.4064,1.4008,1.348,1.4342,1.4072,1.4127,1.4068,1.4282,1.4352,1.4045,1.4142,1.4333,1.453,1.426,1.4455,1.4225,1.472,1.4954,1.4004,1.4266,1.4483,1.4675,1.464,1.4499,1.4432,1.4443,1.4827,1.4672,1.4511,1.4631,1.4503,1.4765,1.4905,1.4957,1.4558,1.4465,1.4675,1.4482,1.464,1.4423,1.4918,1.4887,1.4753,1.4894,1.4586,1.4724,1.5155,1.5227,1.4741,1.4868,1.4951,1.5066,1.5608,1.5551,1.5668,1.5254,1.5501,1.5297,1.5379,1.5273,1.5474,1.5317,1.5459,1.545,1.5558,1.568,1.5163,1.5312,1.5643,1.5012,1.5202,1.5125,1.5613,1.539,1.5121,1.5162,1.5145,1.5227,1.5262,1.5028,1.4958,1.5014,1.5054,1.5042,1.5092,1.4664,1.479,1.4928,1.4757,1.4816,1.4847,1.4841,1.4949,1.4849,1.5231,1.5113,1.408,1.4857,1.4927,1.4952,1.4645,1.4661,1.4703,1.4662,1.5162,1.4293,1.4449,1.5036,1.4524,1.4495,1.4279,1.4463,1.4486,1.4879,1.4816,1.4842,1.493,1.4991,1.5258,1.5196,1.4892,1.5231,1.5641,1.512,1.5209,1.5657,1.5297,1.5143,1.5003,1.524,1.4992,1.4487,1.4203,1.4419,1.4466,1.4217,1.4332,1.3845,1.3984,1.466,1.4434,1.3939,1.3953,1.412,1.4267,1.4407,1.4421,1.3969,1.3848,1.4285,1.3186,1.2988,1.2521,1.2673,1.4019,1.8026,2.2588,2.6462,2.7891,3.0653,3.1563,2.6941,2.0465,1.4485,1.1036,0.98554,0.92884,0.91591,1.0152,1.1432,1.3212,1.4007,1.4544,1.4397,1.4069,1.4175,1.454,1.4564,1.4666,1.4316,1.4242,1.4411,1.461,1.4533,1.4561,1.4661,1.5092,1.4613,1.4673,1.4724,1.4754,1.4887,1.4991,1.4815,1.4543,1.5326,1.5,1.4989,1.5183,1.513,1.5466,1.5012,1.5259,1.5139,1.5287,1.4755,1.5326,1.534,1.4793,1.4901,1.5004,1.5133,1.5224,1.5091,1.5306,1.5078,1.5445,1.5238,1.4938,1.4908,1.5036,1.5432,1.5362,1.5659,1.5303,1.4949,1.5492,1.5424,1.5312,1.567,1.59,1.595,1.6109,1.6157,1.577,1.5837,1.6139,1.6052,1.5758,1.5863,1.5869,1.5809,1.5768,1.5684,1.5237,1.5397,1.5396,1.5451,1.5518,1.5142,1.5151,1.5102,1.514,1.5653,1.509,1.4988,1.5127,1.5149,1.4889,1.5283,1.5154,1.4967,1.4839,1.5018,1.489,1.4916,1.49,1.5364,1.5205,1.5394,1.4952,1.5055,1.4807,1.5315,1.5126,1.4959,1.4979,1.5136,1.574,1.4901,1.4869,1.4765,1.5111,1.5301,1.501,1.486,1.4676,1.4863,1.5395,1.4519,1.4919,1.5001,1.4839,1.5103,1.5087,1.5115,1.4646,1.4843,1.46,1.5084,1.4853,1.4707,1.506,1.4904,1.532,1.5772,1.5299,1.5107,1.5575,1.5579,1.6571,1.5701,1.5686,1.5863,1.5475,1.5315,1.5417,1.5572,1.5591,1.5508,1.5238,1.4863,1.4598,1.4934,1.508,1.4257,1.4569,1.4853,1.5085,1.4582,1.4442,1.4746,1.4763,1.4695,1.4439,1.4814,1.4789,1.4535,1.3662,1.3054,1.3141,1.2573,1.4505,1.7974,2.2216,2.6652,2.8893,3.1636,3.0535,2.4279,1.8342,1.3045,1.0863,0.96219,0.91573,0.98113,1.1387,1.3204,1.3779,1.4442,1.434,1.4542,1.4866,1.4873,1.4547,1.4642,1.5018,1.5039,1.4624,1.4911,1.5354,1.478,1.487,1.4843,1.4838,1.5138,1.5043,1.4852,1.4991,1.5054,1.5153,1.5105,1.5078,1.5012,1.5141,1.5168,1.4985,1.5664,1.506,1.5011,1.4645,1.5136,1.5239,1.5168,1.5108,1.5399,1.5735,1.5451,1.4637,1.5014,1.5305,1.5438,1.5499,1.5078,1.5275,1.5132,1.5179,1.5576,1.5196,1.5376,1.5387,1.565,1.5489,1.5145,1.5686,1.5476,1.584,1.5818,1.6057,1.5706,1.5641,1.5704,1.6317,1.6159,1.6118,1.568,1.6111,1.5674,1.5991,1.5984,1.5786,1.5531,1.5411,1.5578,1.5881,1.5316,1.5466,1.5529,1.5189,1.5481,1.5274,1.5331,1.524,1.5887,1.5245,1.5316,1.5495,1.5397,1.5258,1.5507,1.5414,1.5301,1.523,1.5625,1.5273,1.5417,1.5438,1.4859,1.5669,1.5865,1.5242,1.5762,1.5439,1.5135,1.5283,1.5292,1.5127,1.5417,1.5829,1.5343,1.518,1.523,1.5334,1.5987,1.5002,1.5199,1.5202,1.5244,1.5346,1.5345,1.5633,1.5107,1.5161,1.5399,1.535,1.5192,1.5108,1.51,1.4941,1.529,1.5563,1.5017,1.5024,1.5259,1.5669,1.5842,1.54,1.5154,1.5657,1.601,1.5473,1.5736,1.5939,1.6077,1.6382,1.5864,1.5872,1.6071,1.6075,1.6008,1.594,1.5584,1.5338,1.5355,1.5311,1.5569,1.5144,1.5152,1.4687,1.5141,1.5344,1.5267,1.5236,1.5101,1.5045,1.5238,1.5378,1.5313,1.5024,1.4864,1.4748,1.3728,1.3041,1.3427,1.4598,1.5904,2.0026,2.4565,2.7933,2.9861,3.2506,2.9508,2.3444,1.731,1.2946,1.1506,1.0338,0.98441,1.0462,1.1826,1.3357,1.4591,1.5005,1.5308,1.5112,1.5377,1.5214,1.5393,1.5612,1.555,1.5275,1.5516,1.5539,1.5387,1.525,1.5764,1.5714,1.5533,1.5433,1.5634,1.5734,1.599,1.527,1.5048,1.5661,1.5586,1.6089,1.5526,1.5372,1.5186,1.5545,1.5686,1.5665,1.5773,1.5677,1.5633,1.5712,1.5962,1.5654,1.5418,1.548,1.611,1.5805,1.5732,1.5527,1.5375,1.5842,1.5454,1.594,1.5836,1.5958,1.6291,1.6012,1.5651,1.609,1.5787,1.5992,1.6016,1.6174,1.6209,1.6011,1.5992,1.619,1.6608,1.6707,1.6757,1.6395,1.6584,1.6422,1.6467,1.691,1.6142,1.6275,1.6336,1.6148,1.6376,1.5862,1.579,1.5887,1.5708,1.5717,1.5925,1.5719,1.5927,1.6311,1.5684,1.6214,1.5728,1.55,1.5769,1.5418,1.5465,1.6148,1.6269,1.5568,1.5303,1.5567,1.5683,1.5852,1.5888,1.5537,1.5823,1.559,1.6059,1.5969,1.5852,1.5581,1.5358,1.5804,1.5697,1.6102,1.5617,1.5186,1.5584,1.5692,1.5845,1.5644,1.5813,1.5634,1.5482,1.5767,1.5484,1.5348,1.5669,1.5897,1.5561,1.5402,1.5809,1.5474,1.5657,1.6297,1.596,1.5727,1.5822,1.6366,1.6391,1.6365,1.6709,1.5578,1.6002,1.5942,1.5721,1.5904,1.5627,1.5742,1.5252,1.4963,1.4822,1.4838,1.5038,1.5384,1.5371,1.5079,1.5071,1.472,1.4963,1.5074,1.5144,1.5147,1.525,1.5193,1.4987,1.4286,1.3782,1.3281,1.354,1.4457,1.7119,2.14,2.5582,2.8457,3.0451,3.208,2.7267,2.0669,1.5076,1.1763,1.0645,0.97834,1.0038,1.0924,1.2675,1.392,1.4083,1.4167,1.5068,1.5165,1.5119,1.5095,1.5333,1.5366,1.5688,1.5208,1.5262,1.5351,1.5599,1.5932,1.5234,1.5805,1.5433,1.5555,1.5894,1.5345,1.5141,1.5456,1.5522,1.5489,1.5857,1.5782,1.5543,1.5705,1.5925,1.5598,1.5547,1.5698,1.5806,1.5657,1.5548,1.6013,1.5634,1.5593,1.5972,1.5701,1.5878,1.5771,1.567,1.5757,1.5904,1.5852,1.5922,1.5827,1.613,1.639,1.6003,1.5686,1.5802,1.5884,1.5775,1.6009,1.6186,1.6134,1.6303,1.655,1.6702,1.6966,1.6589,1.6543,1.6784,1.6916,1.6469,1.6426,1.658,1.6249,1.6466,1.635,1.6389,1.6332,1.6201,1.6262,1.6028,1.5797,1.6099,1.6265,1.6112,1.5718,1.5831,1.5752,1.5825,1.5925,1.6273,1.5885,1.5596,1.6139,1.6203,1.6097,1.5718,1.5685,1.566,1.6085,1.5972,1.5891,1.6024,1.6085,1.5673,1.5986,1.5664,1.5745,1.5722,1.6159,1.6106,1.6328,1.5362,1.537,1.6138,1.5962,1.5985,1.5276,1.56,1.5754,1.5738,1.5889,1.5756,1.5665,1.5623,1.573,1.5374,1.5727,1.5413,1.5615,1.6054,1.6142,1.6341,1.5649,1.6189,1.6333,1.5849,1.6437,1.6741,1.6286,1.6094,1.6223,1.6305,1.6136,1.6527,1.6216,1.576,1.5799,1.5325,1.5341,1.5362,1.501,1.5586,1.5378,1.4806,1.5373,1.5526,1.5239,1.5366,1.4852,1.5339,1.5225,1.5454,1.5241,1.5219,1.5023,1.4347,1.3272,1.3232,1.4244,1.6486,2.0479,2.4612,2.8299,2.9937,3.2669,2.958,2.2411,1.6398,1.2447,1.1196,0.98242,0.99781,1.0302,1.1735,1.3162,1.464,1.508,1.5059,1.4921,1.5152,1.5235,1.5815,1.565,1.537,1.5255,1.5376,1.5453,1.5879,1.5646,1.5474,1.5387,1.5446,1.5431,1.567,1.5424,1.5457,1.6291,1.5828,1.5469,1.5396,1.5927,1.5791,1.6088,1.5977,1.569,1.5497,1.5778,1.6086,1.6064,1.5674,1.5589,1.5815,1.5901,1.6006,1.5619,1.5762,1.5941,1.5707,1.6121,1.5987,1.5595,1.5721,1.5945,1.6039,1.6238,1.558,1.6016,1.6407,1.6609,1.5714,1.5778,1.5958,1.6375,1.6211,1.6187,1.6391,1.6315,1.6722,1.6917,1.6841,1.6306,1.6606,1.6825,1.6461,1.6386,1.6162,1.6414,1.6163,1.5938,1.6337,1.6346,1.587,1.6047,1.6098,1.6177,1.5955,1.5759,1.5945,1.5994,1.6585,1.5572,1.5495,1.5492,1.5692,1.5976,1.5942,1.6187,1.5981,1.5865,1.5887,1.5824,1.5698,1.599,1.6049,1.5544,1.573,1.6157,1.5817,1.5809,1.5775,1.576,1.5643,1.5693,1.5958,1.5838,1.6033,1.5495,1.5968,1.56,1.5386,1.5606,1.5579,1.5575,1.5697,1.5808,1.5165,1.5128,1.5288,1.564,1.5506,1.5532,1.5223,1.5364,1.5696,1.548,1.5245,1.5559,1.5559,1.5648,1.5597,1.5723,1.5705,1.5986,1.5777,1.6178,1.6301,1.6129,1.5776,1.6456,1.647,1.6226,1.6154,1.6169,1.6182,1.5924,1.6006,1.5812,1.5455,1.5199,1.5346,1.5203,1.5569,1.5704,1.4716,1.505,1.5092,1.5426,1.5152,1.5176,1.5139,1.5056,1.5546,1.4886,1.5309,1.4531,1.4096,1.349,1.3724,1.4139,1.5262,1.8517,2.3298,2.7218,2.888,3.1528,3.1426,2.5381,1.9238,1.3812,1.1405,1.0343,1.0204,1.0272,1.1959,1.3326,1.4494,1.5238,1.5001,1.4992,1.5098,1.5426,1.5796,1.5266,1.5144,1.5371,1.564,1.5586,1.5503,1.5496,1.5691,1.569,1.5685,1.5921,1.55,1.5703,1.6264,1.5822,1.5868,1.5973,1.5527,1.529,1.592,1.6207,1.6001,1.5665,1.5734,1.6285,1.613,1.5863,1.5795,1.6124,1.6218,1.6144,1.5941,1.5811,1.6319,1.6421,1.6143,1.6171,1.5523,1.5568,1.6014,1.6129,1.594,1.6001,1.5878,1.6156,1.6242,1.6465,1.6021,1.6049,1.6345,1.6414,1.6418,1.6851,1.6221,1.6101,1.6664,1.6564,1.6754,1.6608,1.6679,1.6718,1.6671,1.6547,1.6756,1.6411,1.6354,1.651,1.6327,1.5718,1.5977,1.6347,1.6246,1.6153,1.5881,1.5934,1.6043,1.5947,1.6483,1.5442,1.5865,1.5538,1.5968,1.6239,1.5972,1.568,1.5892,1.6188,1.5853,1.6099,1.5946,1.6177,1.6044,1.6406,1.5983,1.5894,1.5781,1.5723,1.5496,1.5637,1.5883,1.5955,1.5488,1.5948,1.5843,1.6162,1.5741,1.5404,1.5611,1.5847,1.5453,1.5479,1.5799,1.5416,1.5761,1.5889,1.5676,1.5535,1.5611,1.5807,1.5454,1.5538,1.5799,1.6053,1.6297,1.6063,1.5844,1.5763,1.6018,1.62,1.6361,1.6555,1.6227,1.6415,1.6149,1.6149,1.6116,1.649,1.6497,1.5766,1.5459,1.5373,1.5077,1.5026,1.521,1.5312,1.516,1.5266,1.4834,1.5357,1.5334,1.5332,1.5246,1.5547,1.5608,1.51,1.5092,1.4854,1.3992,1.3492,1.3365,1.392,1.559,1.9686,2.4144,2.7972,2.9291,3.1836,3.0125,2.3787,1.7647,1.3233,1.1297,0.98766,1.0362,1.0977,1.1574,1.2278,1.3553,1.4773,1.5563,1.5186,1.5192,1.5075,1.5319,1.5171,1.5266,1.5165,1.5361,1.5785,1.5812,1.5637,1.5269,1.5739,1.5978,1.596,1.5892,1.5542,1.577,1.5848,1.6049,1.602,1.6422,1.5861,1.5797,1.5615,1.5731,1.5723,1.5914,1.5937,1.6162,1.594,1.5696,1.5748,1.564,1.5548,1.6049,1.5985,1.5694,1.637,1.5766,1.5731,1.5895,1.5732,1.582,1.5631,1.5941,1.61,1.6022,1.5746,1.6241,1.6076,1.6173,1.6145,1.5972,1.5877,1.6351,1.6139,1.6175,1.6371,1.6637,1.6379,1.6649,1.6553,1.6396,1.6305,1.6445,1.6293,1.6341,1.621,1.6283,1.6423,1.5929,1.5953,1.5803,1.5834,1.5663,1.5922,1.5921,1.5733,1.5882,1.5641,1.5905,1.5807,1.5605,1.5725,1.5752,1.5614,1.5829,1.5824,1.5555,1.555,1.5833,1.5592,1.5685,1.5646,1.5761,1.57,1.5744,1.5888,1.5504,1.5205,1.5503,1.5825,1.518,1.5622,1.5452,1.5595,1.5719,1.53,1.5331,1.5383,1.5519,1.5419,1.5198,1.5309,1.5385,1.53,1.5667,1.5534,1.5293,1.5069,1.5376,1.5808,1.508,1.4955,1.4971,1.489,1.5179,1.5422,1.5118,1.5206,1.5146,1.5518,1.5443,1.5384,1.5591,1.5474,1.542,1.5518,1.5946,1.5936,1.5724,1.6056,1.5592,1.5933,1.5565,1.5539,1.5717,1.5658,1.539,1.4688,1.4727,1.502,1.5006,1.5004,1.4731,1.4888,1.513,1.4838,1.4749,1.4788,1.452,1.4909,1.4755,1.5125,1.4549,1.4531,1.4361,1.3477,1.305,1.3119,1.3826,1.4831,1.8454,2.2955,2.7122,2.9113,3.1152,3.0745,2.4619,1.8575,1.3006,1.0998,0.97462,0.94209,1.018,1.1279,1.2873,1.4184,1.4448,1.484,1.444,1.4363,1.4641,1.5094,1.5058,1.4859,1.4856,1.4912,1.5502,1.4909,1.4903,1.4944,1.4835,1.542,1.5526,1.501,1.5117,1.5464,1.5125,1.5438,1.5402,1.5178,1.5142,1.5072,1.5513,1.5527,1.5218,1.5139,1.5304,1.5385,1.5571,1.5141,1.5546,1.5303,1.5387,1.5722,1.5308,1.525,1.5575,1.5479,1.5861,1.5406,1.5111,1.5057,1.549,1.5541,1.5763,1.5714,1.5086,1.5535,1.5582
