-18.561,-18.561,-18.557,-18.557,-18.545,-18.552,-18.55,-18.546,-18.528,-18.527,-18.524,-18.529,-18.518,-18.505,-18.503,-18.504,-18.502,-18.496,-18.484,-18.48,-18.475,-18.476,-18.464,-18.461,-18.446,-18.441,-18.437,-18.431,-18.408,-18.394,-18.378,-18.374,-18.361,-18.339,-18.319,-18.308,-18.293,-18.274,-18.243,-18.23,-18.208,-18.2,-18.182,-18.168,-18.144,-18.13,-18.125,-18.115,-18.107,-18.091,-18.086,-18.087,-18.099,-18.104,-18.116,-18.141,-18.171,-18.209,-18.242,-18.272,-18.313,-18.353,-18.397,-18.41,-18.428,-18.459,-18.484,-18.514,-18.523,-18.53,-18.536,-18.549,-18.558,-18.56,-18.556,-18.56,-18.567,-18.575,-18.573,-18.561,-18.561,-18.571,-18.572,-18.57,-18.561,-18.551,-18.556,-18.559,-18.559,-18.55,-18.55,-18.552,-18.558,-18.558,-18.554,-18.548,-18.545,-18.555,-18.555,-18.545,-18.543,-18.541,-18.551,-18.552,-18.55,-18.544,-18.54,-18.545,-18.556,-18.558,-18.552,-18.548,-18.559,-18.565,-18.566,-18.553,-18.556,-18.559,-18.57,-18.566,-18.562,-18.56,-18.565,-18.572,-18.577,-18.566,-18.56,-18.564,-18.574,-18.575,-18.571,-18.567,-18.574,-18.579,-18.58,-18.57,-18.571,-18.576,-18.581,-18.578,-18.575,-18.57,-18.572,-18.577,-18.58,-18.571,-18.568,-18.567,-18.575,-18.577,-18.579,-18.57,-18.572,-18.575,-18.583,-18.574,-18.567,-18.577,-18.581,-18.582,-18.58,-18.569,-18.577,-18.581,-18.582,-18.582,-18.573,-18.571,-18.575,-18.583,-18.58,-18.565,-18.571,-18.572,-18.577,-18.578,-18.572,-18.57,-18.58,-18.582,-18.58,-18.569,-18.576,-18.581,-18.584,-18.584,-18.569,-18.557,-18.559,-18.561,-18.56,-18.552,-18.54,-18.523,-18.519,-18.511,-18.483,-18.453,-18.462,-18.493,-18.509,-18.506,-18.499,-18.509,-18.519,-18.53,-18.532,-18.544,-18.554,-18.577,-18.589,-18.59,-18.589,-18.587,-18.591,-18.602,-18.601,-18.594,-18.596,-18.603,-18.605,-18.603,-18.599,-18.599,-18.6,-18.607,-18.618,-18.65,-18.7,-18.673,-18.536,-18.32,-18.077,-17.826,-17.409,-17.239,-17.442,-17.886,-18.318,-18.621,-18.725,-18.66,-18.59,-18.522,-18.519,-18.529,-18.547,-18.543,-18.539,-18.543,-18.547,-18.547,-18.538,-18.521,-18.527,-18.522,-18.521,-18.511,-18.503,-18.497,-18.498,-18.493,-18.488,-18.479,-18.48,-18.477,-18.48,-18.468,-18.455,-18.447,-18.447,-18.443,-18.434,-18.415,-18.407,-18.402,-18.401,-18.384,-18.365,-18.352,-18.343,-18.331,-18.311,-18.289,-18.281,-18.263,-18.247,-18.228,-18.204,-18.189,-18.171,-18.163,-18.142,-18.125,-18.11,-18.101,-18.091,-18.088,-18.071,-18.069,-18.066,-18.078,-18.092,-18.106,-18.131,-18.147,-18.178,-18.22,-18.251,-18.286,-18.326,-18.37,-18.409,-18.434,-18.451,-18.48,-18.499,-18.518,-18.524,-18.53,-18.537,-18.548,-18.558,-18.556,-18.548,-18.55,-18.552,-18.559,-18.558,-18.55,-18.551,-18.553,-18.555,-18.556,-18.541,-18.539,-18.541,-18.544,-18.544,-18.541,-18.537,-18.54,-18.545,-18.544,-18.535,-18.533,-18.533,-18.541,-18.542,-18.536,-18.54,-18.538,-18.547,-18.547,-18.537,-18.535,-18.537,-18.547,-18.552,-18.552,-18.544,-18.544,-18.554,-18.558,-18.549,-18.548,-18.55,-18.561,-18.566,-18.563,-18.555,-18.559,-18.561,-18.57,-18.569,-18.568,-18.569,-18.568,-18.578,-18.579,-18.567,-18.564,-18.57,-18.575,-18.578,-18.574,-18.574,-18.58,-18.584,-18.59,-18.58,-18.569,-18.568,-18.578,-18.579,-18.573,-18.578,-18.581,-18.587,-18.587,-18.584,-18.58,-18.579,-18.584,-18.59,-18.589,-18.589,-18.587,-18.591,-18.589,-18.595,-18.589,-18.586,-18.59,-18.599,-18.589,-18.581,-18.576,-18.59,-18.592,-18.581,-18.568,-18.552,-18.549,-18.543,-18.53,-18.495,-18.479,-18.495,-18.523,-18.539,-18.529,-18.529,-18.551,-18.574,-18.574,-18.586,-18.594,-18.614,-18.621,-18.629,-18.63,-18.634,-18.634,-18.639,-18.639,-18.634,-18.631,-18.635,-18.635,-18.636,-18.637,-18.632,-18.637,-18.642,-18.648,-18.644,-18.652,-18.707,-18.745,-18.674,-18.495,-18.247,-17.975,-17.645,-17.445,-17.321,-17.425,-17.874,-18.307,-18.685,-18.764,-18.727,-18.642,-18.586,-18.565,-18.561,-18.571,-18.571,-18.576,-18.571,-18.569,-18.551,-18.561,-18.563,-18.571,-18.561,-18.557,-18.537,-18.536,-18.542,-18.547,-18.534,-18.526,-18.52,-18.521,-18.505,-18.496,-18.493,-18.494,-18.483,-18.48,-18.462,-18.456,-18.454,-18.451,-18.442,-18.43,-18.407,-18.398,-18.384,-18.38,-18.361,-18.342,-18.326,-18.321,-18.298,-18.27,-18.249,-18.235,-18.222,-18.208,-18.185,-18.167,-18.161,-18.15,-18.144,-18.134,-18.119,-18.111,-18.111,-18.119,-18.128,-18.135,-18.154,-18.183,-18.219,-18.252,-18.28,-18.314,-18.353,-18.396,-18.434,-18.458,-18.484,-18.507,-18.518,-18.533,-18.543,-18.549,-18.561,-18.57,-18.575,-18.576,-18.579,-18.584,-18.589,-18.587,-18.581,-18.577,-18.58,-18.578,-18.579,-18.569,-18.567,-18.567,-18.571,-18.573,-18.568,-18.556,-18.556,-18.559,-18.565,-18.563,-18.558,-18.559,-18.567,-18.568,-18.564,-18.55,-18.551,-18.552,-18.561,-18.562,-18.558,-18.565,-18.566,-18.566,-18.568,-18.564,-18.56,-18.57,-18.582,-18.582,-18.574,-18.574,-18.581,-18.586,-18.584,-18.579,-18.586,-18.586,-18.588,-18.586,-18.583,-18.584,-18.584,-18.59,-18.59,-18.586,-18.583,-18.586,-18.593,-18.595,-18.593,-18.585,-18.586,-18.59,-18.591,-18.592,-18.587,-18.585,-18.586,-18.581,-18.584,-18.573,-18.569,-18.569,-18.564,-18.552,-18.531,-18.507,-18.483,-18.493,-18.506,-18.523,-18.531,-18.533,-18.537,-18.55,-18.542,-18.549,-18.578,-18.603,-18.613,-18.609,-18.61,-18.618,-18.628,-18.622,-18.622,-18.619,-18.628,-18.636,-18.631,-18.627,-18.622,-18.625,-18.63,-18.636,-18.631,-18.628,-18.633,-18.659,-18.713,-18.739,-18.656,-18.581,-18.373,-18.105,-17.817,-17.417,-17.28,-17.412,-17.856,-18.293,-18.647,-18.748,-18.719,-18.654,-18.582,-18.557,-18.549,-18.574,-18.568,-18.578,-18.561,-18.571,-18.565,-18.577,-18.56,-18.557,-18.547,-18.552,-18.546,-18.549,-18.53,-18.528,-18.516,-18.521,-18.51,-18.51,-18.501,-18.505,-18.497,-18.495,-18.476,-18.475,-18.464,-18.467,-18.453,-18.445,-18.431,-18.426,-18.416,-18.408,-18.387,-18.37,-18.359,-18.348,-18.336,-18.311,-18.287,-18.273,-18.258,-18.238,-18.216,-18.202,-18.192,-18.19,-18.172,-18.162,-18.142,-18.124,-18.126,-18.125,-18.123,-18.12,-18.137,-18.159,-18.192,-18.212,-18.243,-18.278,-18.326,-18.36,-18.397,-18.408,-18.445,-18.478,-18.506,-18.525,-18.538,-18.548,-18.566,-18.582,-18.596,-18.592,-18.597,-18.597,-18.605,-18.61,-18.613,-18.608,-18.609,-18.609,-18.611,-18.609,-18.6,-18.601,-18.607,-18.605,-18.604,-18.593,-18.591,-18.592,-18.594,-18.589,-18.581,-18.582,-18.589,-18.59,-18.589,-18.58,-18.589,-18.596,-18.596,-18.588,-18.582,-18.582,-18.594,-18.598,-18.601,-18.593,-18.594,-18.601,-18.608,-18.608,-18.604,-18.602,-18.609,-18.612,-18.616,-18.61,-18.612,-18.615,-18.618,-18.62,-18.619,-18.61,-18.615,-18.624,-18.625,-18.623,-18.619,-18.615,-18.626,-18.631,-18.625,-18.617,-18.619,-18.627,-18.629,-18.624,-18.62,-18.62,-18.626,-18.631,-18.628,-18.621,-18.624,-18.629,-18.63,-18.631,-18.631,-18.633,-18.632,-18.638,-18.632,-18.628,-18.628,-18.636,-18.633,-18.629,-18.616,-18.613,-18.621,-18.623,-18.62,-18.61,-18.604,-18.583,-18.58,-18.567,-18.534,-18.516,-18.531,-18.566,-18.58,-18.576,-18.565,-18.583,-18.589,-18.591,-18.599,-18.618,-18.639,-18.657,-18.658,-18.66,-18.651,-18.657,-18.659,-18.671,-18.665,-18.663,-18.662,-18.669,-18.667,-18.663,-18.656,-18.66,-18.665,-18.669,-18.685,-18.726,-18.766,-18.716,-18.648,-18.448,-18.184,-17.945,-17.557,-17.306,-17.391,-17.81,-18.269,-18.621,-18.779,-18.749,-18.665,-18.61,-18.582,-18.596,-18.608,-18.598,-18.602,-18.604,-18.607,-18.602,-18.592,-18.584,-18.587,-18.587,-18.584,-18.568,-18.568,-18.559,-18.561,-18.559,-18.553,-18.542,-18.544,-18.54,-18.537,-18.525,-18.519,-18.513,-18.508,-18.503,-18.495,-18.478,-18.473,-18.469,-18.459,-18.448,-18.43,-18.414,-18.404,-18.388,-18.37,-18.348,-18.329,-18.314,-18.295,-18.276,-18.255,-18.24,-18.232,-18.221,-18.205,-18.183,-18.167,-18.157,-18.153,-18.147,-18.131,-18.126,-18.134,-18.148,-18.157,-18.175,-18.198,-18.233,-18.274,-18.308,-18.341,-18.385,-18.422,-18.438,-18.474,-18.506,-18.525,-18.543,-18.564,-18.579,-18.585,-18.591,-18.595,-18.61,-18.615,-18.613,-18.609,-18.606,-18.611,-18.62,-18.616,-18.609,-18.615,-18.616,-18.617,-18.614,-18.6,-18.601,-18.604,-18.607,-18.602,-18.59,-18.589,-18.59,-18.592,-18.587,-18.583,-18.58,-18.582,-18.589,-18.588,-18.583,-18.58,-18.582,-18.592,-18.599,-18.594,-18.591,-18.593,-18.599,-18.603,-18.599,-18.592,-18.599,-18.607,-18.612,-18.608,-18.601,-18.606,-18.62,-18.622,-18.608,-18.61,-18.613,-18.613,-18.616,-18.611,-18.606,-18.612,-18.618,-18.623,-18.614,-18.606,-18.605,-18.612,-18.621,-18.617,-18.611,-18.611,-18.616,-18.619,-18.617,-18.61,-18.608,-18.609,-18.618,-18.616,-18.608,-18.607,-18.613,-18.619,-18.618,-18.607,-18.61,-18.616,-18.625,-18.629,-18.622,-18.62,-18.619,-18.622,-18.623,-18.613,-18.611,-18.612,-18.616,-18.622,-18.622,-18.619,-18.617,-18.615,-18.609,-18.6,-18.597,-18.601,-18.601,-18.594,-18.574,-18.565,-18.547,-18.522,-18.516,-18.521,-18.53,-18.551,-18.56,-18.563,-18.568,-18.569,-18.577,-18.597,-18.616,-18.631,-18.633,-18.636,-18.644,-18.651,-18.652,-18.64,-18.64,-18.654,-18.662,-18.661,-18.656,-18.644,-18.654,-18.657,-18.658,-18.655,-18.649,-18.658,-18.675,-18.721,-18.752,-18.675,-18.507,-18.27,-18.012,-17.672,-17.337,-17.321,-17.679,-18.147,-18.361,-18.683,-18.784,-18.738,-18.679,-18.594,-18.571,-18.568,-18.598,-18.585,-18.599,-18.578,-18.592,-18.582,-18.597,-18.579,-18.581,-18.573,-18.584,-18.572,-18.569,-18.554,-18.558,-18.546,-18.558,-18.544,-18.534,-18.525,-18.531,-18.525,-18.523,-18.506,-18.505,-18.493,-18.492,-18.479,-18.469,-18.458,-18.458,-18.451,-18.435,-18.422,-18.403,-18.39,-18.379,-18.363,-18.34,-18.31,-18.3,-18.29,-18.272,-18.248,-18.225,-18.218,-18.205,-18.192,-18.172,-18.162,-18.157,-18.153,-18.148,-18.144,-18.137,-18.152,-18.171,-18.198,-18.219,-18.238,-18.273,-18.316,-18.356,-18.393,-18.422,-18.462,-18.497,-18.53,-18.545,-18.562,-18.577,-18.595,-18.604,-18.613,-18.609,-18.611,-18.613,-18.625,-18.631,-18.626,-18.622,-18.624,-18.632,-18.629,-18.613,-18.616,-18.615,-18.626,-18.621,-18.611,-18.608,-18.609,-18.607,-18.61,-18.605,-18.607,-18.602,-18.61,-18.608,-18.608,-18.598,-18.604,-18.603,-18.607,-18.595,-18.591,-18.601,-18.611,-18.612,-18.61,-18.601,-18.608,-18.614,-18.62,-18.621,-18.614,-18.61,-18.614,-18.621,-18.623,-18.611,-18.611,-18.617,-18.63,-18.621,-18.616,-18.618,-18.625,-18.632,-18.631,-18.624,-18.627,-18.63,-18.629,-18.626,-18.622,-18.616,-18.622,-18.633,-18.634,-18.628,-18.621,-18.622,-18.626,-18.629,-18.63,-18.628,-18.628,-18.635,-18.635,-18.626,-18.619,-18.622,-18.623,-18.626,-18.616,-18.611,-18.614,-18.614,-18.61,-18.607,-18.587,-18.58,-18.557,-18.531,-18.519,-18.518,-18.539,-18.568,-18.571,-18.566,-18.562,-18.572,-18.585,-18.592,-18.61,-18.622,-18.631,-18.639,-18.642,-18.648,-18.643,-18.64,-18.641,-18.646,-18.646,-18.636,-18.63,-18.637,-18.641,-18.642,-18.634,-18.635,-18.638,-18.644,-18.641,-18.654,-18.708,-18.743,-18.666,-18.493,-18.227,-17.931,-17.585,-17.34,-17.326,-17.674,-18.129,-18.552,-18.788,-18.765,-18.704,-18.637,-18.593,-18.577,-18.591,-18.595,-18.597,-18.601,-18.609,-18.611,-18.612,-18.6,-18.596,-18.595,-18.598,-18.59,-18.58,-18.57,-18.573,-18.578,-18.573,-18.554,-18.555,-18.555,-18.553,-18.549,-18.534,-18.521,-18.519,-18.513,-18.51,-18.493,-18.479,-18.474,-18.463,-18.457,-18.436,-18.416,-18.405,-18.394,-18.38,-18.349,-18.326,-18.319,-18.305,-18.287,-18.264,-18.241,-18.221,-18.211,-18.198,-18.178,-18.162,-18.148,-18.141,-18.142,-18.126,-18.113,-18.114,-18.127,-18.144,-18.164,-18.182,-18.197,-18.234,-18.271,-18.311,-18.332,-18.363,-18.408,-18.442,-18.471,-18.484,-18.508,-18.527,-18.55,-18.556,-18.554,-18.56,-18.575,-18.576,-18.577,-18.57,-18.568,-18.568,-18.571,-18.574,-18.568,-18.561,-18.563,-18.571,-18.565,-18.559,-18.557,-18.561,-18.567,-18.566,-18.567,-18.567,-18.577,-18.584,-18.589,-18.584,-18.579,-18.592,-18.599,-18.606,-18.594,-18.588,-18.594,-18.595,-18.599,-18.604,-18.599,-18.598,-18.6,-18.606,-18.602,-18.6,-18.61,-18.618,-18.625,-18.624,-18.62,-18.621,-18.628,-18.639,-18.64,-18.634,-18.637,-18.643,-18.651,-18.651,-18.645,-18.647,-18.649,-18.656,-18.65,-18.649,-18.654,-18.656,-18.662,-18.66,-18.651,-18.647,-18.648,-18.658,-18.658,-18.662,-18.658,-18.661,-18.666,-18.666,-18.666,-18.66,-18.665,-18.672,-18.676,-18.666,-18.654,-18.653,-18.658,-18.658,-18.647,-18.641,-18.62,-18.618,-18.605,-18.581,-18.551,-18.553,-18.575,-18.601,-18.602,-18.587,-18.583,-18.601,-18.602,-18.605,-18.628,-18.644,-18.66,-18.662,-18.658,-18.654,-18.649,-18.653,-18.658,-18.664,-18.651,-18.648,-18.652,-18.656,-18.66,-18.655,-18.654,-18.652,-18.656,-18.67,-18.705,-18.749,-18.712,-18.572,-18.352,-18.219,-17.967,-17.602,-17.319,-17.322,-17.702,-18.152,-18.552,-18.753,-18.754,-18.668,-18.601,-18.551,-18.556,-18.566,-18.573,-18.564,-18.566,-18.559,-18.567,-18.558,-18.552,-18.544,-18.545,-18.537,-18.536,-18.524,-18.519,-18.516,-18.522,-18.517,-18.506,-18.497,-18.496,-18.497,-18.491,-18.472,-18.467,-18.465,-18.466,-18.464,-18.451,-18.439,-18.43,-18.423,-18.414,-18.399,-18.378,-18.364,-18.357,-18.348,-18.324,-18.305,-18.286,-18.272,-18.252,-18.235,-18.21,-18.199,-18.185,-18.18,-18.161,-18.143,-18.127,-18.123,-18.118,-18.113,-18.097,-18.101,-18.117,-18.135,-18.152,-18.17,-18.198,-18.241,-18.277,-18.313,-18.349,-18.389,-18.43,-18.451,-18.472,-18.487,-18.507,-18.53,-18.549,-18.558,-18.561,-18.568,-18.576,-18.585,-18.587,-18.584,-18.58,-18.585,-18.59,-18.589,-18.577,-18.581,-18.58,-18.584,-18.584,-18.579,-18.571,-18.569,-18.57,-18.572,-18.558,-18.55,-18.552,-18.558,-18.562,-18.556,-18.547,-18.55,-18.551,-18.556,-18.548,-18.542,-18.543,-18.548,-18.551,-18.547,-18.547,-18.546,-18.551,-18.556,-18.558,-18.554,-18.554,-18.556,-18.561,-18.562,-18.553,-18.556,-18.562,-18.567,-18.57,-18.566,-18.559,-18.564,-18.57,-18.574,-18.571,-18.567,-18.573,-18.576,-18.579,-18.576,-18.568,-18.572,-18.58,-18.58,-18.574,-18.569,-18.57,-18.574,-18.575,-18.574,-18.568,-18.573,-18.577,-18.58,-18.579,-18.57,-18.569,-18.575,-18.581,-18.579,-18.572,-18.567,-18.58,-18.583,-18.576,-18.57,-18.573,-18.578,-18.576,-18.564,-18.554,-18.556,-18.56,-18.56,-18.553,-18.529,-18.516,-18.51,-18.491,-18.463,-18.464,-18.479,-18.51,-18.516,-18.518,-18.517,-18.528,-18.531,-18.547,-18.565,-18.578,-18.59,-18.588,-18.6,-18.606,-18.608,-18.6,-18.604,-18.609,-18.619,-18.609,-18.605,-18.608,-18.614,-18.62,-18.608,-18.603,-18.614,-18.617,-18.646,-18.699,-18.694,-18.655,-18.508,-18.276,-18.014,-17.721,-17.335,-17.243,-17.514,-17.973,-18.393,-18.672,-18.731,-18.668,-18.606,-18.535,-18.532,-18.536,-18.56,-18.55,-18.553,-18.546,-18.548,-18.549,-18.554,-18.537,-18.536,-18.523,-18.529,-18.522,-18.519,-18.506,-18.508,-18.509,-18.511,-18.491,-18.483,-18.476,-18.481,-18.469,-18.458,-18.442,-18.446,-18.448,-18.446,-18.435,-18.423,-18.41,-18.406,-18.395,-18.379,-18.358,-18.344,-18.332,-18.318,-18.297,-18.271,-18.258,-18.24,-18.226,-18.205,-18.184,-18.171,-18.159,-18.149,-18.142,-18.121,-18.111,-18.105,-18.102,-18.098,-18.091,-18.091,-18.108,-18.129,-18.158,-18.181,-18.213,-18.252,-18.293,-18.329,-18.363,-18.38,-18.424,-18.458,-18.49,-18.509,-18.524,-18.539,-18.553,-18.569,-18.57,-18.573,-18.587,-18.591,-18.596,-18.593,-18.589,-18.594,-18.599,-18.597,-18.597,-18.592,-18.591,-18.594,-18.596,-18.592,-18.583,-18.582,-18.589,-18.587,-18.581,-18.574,-18.578,-18.581,-18.584,-18.577,-18.575,-18.576,-18.582,-18.585,-18.58,-18.575,-18.572,-18.579,-18.587,-18.59,-18.585,-18.58,-18.588,-18.593,-18.595,-18.583,-18.588,-18.593,-18.597,-18.601,-18.596,-18.599,-18.602,-18.603,-18.605,-18.599,-18.598,-18.595,-18.606,-18.604,-18.602,-18.601,-18.608,-18.611,-18.617,-18.611,-18.608,-18.608,-18.609,-18.605,-18.6,-18.598,-18.609,-18.612,-18.615,-18.613,-18.607,-18.605,-18.61,-18.615,-18.614,-18.61,-18.606,-18.614,-18.614,-18.616,-18.612,-18.616,-18.608,-18.603,-18.6,-18.598,-18.594,-18.587,-18.587,-18.582,-18.564,-18.556,-18.528,-18.509,-18.508,-18.518,-18.541,-18.552,-18.548,-18.561,-18.567,-18.567,-18.582,-18.607,-18.624,-18.637,-18.639,-18.649,-18.652,-18.652,-18.649,-18.64,-18.639,-18.651,-18.654,-18.652,-18.648,-18.647,-18.65,-18.662,-18.66,-18.652,-18.65,-18.66,-18.683,-18.736,-18.746,-18.656,-18.473,-18.224,-18.071,-17.776,-17.405,-17.332,-17.527,-17.986,-18.411,-18.742,-18.782,-18.743,-18.671,-18.603,-18.575,-18.568,-18.592,-18.586,-18.591,-18.582,-18.59,-18.585,-18.591,-18.575,-18.572,-18.566,-18.577,-18.567,-18.565,-18.544,-18.555,-18.552,-18.552,-18.539,-18.531,-18.524,-18.53,-18.526,-18.521,-18.498,-18.494,-18.492,-18.494,-18.483,-18.466,-18.451,-18.447,-18.439,-18.426,-18.407,-18.39,-18.38,-18.371,-18.355,-18.332,-18.312,-18.295,-18.282,-18.261,-18.235,-18.221,-18.21,-18.205,-18.199,-18.181,-18.164,-18.157,-18.156,-18.157,-18.147,-18.149,-18.161,-18.178,-18.212,-18.226,-18.253,-18.295,-18.336,-18.376,-18.409,-18.437,-18.475,-18.494,-18.523,-18.546,-18.56,-18.574,-18.593,-18.601,-18.609,-18.606,-18.609,-18.621,-18.63,-18.62,-18.614,-18.616,-18.621,-18.624,-18.622,-18.62,-18.615,-18.618,-18.623,-18.619,-18.605,-18.61,-18.607,-18.61,-18.612,-18.602,-18.6,-18.603,-18.61,-18.608,-18.6,-18.602,-18.6,-18.603,-18.601,-18.596,-18.598,-18.599,-18.6,-18.607,-18.606,-18.601,-18.601,-18.608,-18.616,-18.612,-18.608,-18.612,-18.62,-18.621,-18.618,-18.612,-18.61,-18.618,-18.622,-18.619,-18.614,-18.615,-18.621,-18.621,-18.623,-18.614,-18.616,-18.619,-18.623,-18.623,-18.614,-18.611,-18.62,-18.624,-18.62,-18.618,-18.614,-18.619,-18.622,-18.616,-18.604,-18.607,-18.611,-18.621,-18.622,-18.617,-18.605,-18.603,-18.603,-18.6,-18.599,-18.594,-18.587,-18.578,-18.568,-18.556,-18.531,-18.505,-18.502,-18.511,-18.536,-18.545,-18.542,-18.548,-18.56,-18.562,-18.559,-18.568,-18.592,-18.611,-18.619,-18.618,-18.618,-18.619,-18.627,-18.627,-18.624,-18.623,-18.631,-18.632,-18.626,-18.618,-18.621,-18.625,-18.631,-18.632,-18.624,-18.618,-18.629,-18.668,-18.723,-18.709,-18.589,-18.377,-18.116,-17.838,-17.448,-17.281,-17.385,-17.805,-18.248,-18.612,-18.727,-18.716,-18.689,-18.607,-18.569,-18.529,-18.551,-18.555,-18.569,-18.551,-18.56,-18.545,-18.559,-18.552,-18.552,-18.535,-18.542,-18.53,-18.54,-18.521,-18.524,-18.515,-18.513,-18.511,-18.513,-18.499,-18.499,-18.496,-18.496,-18.483,-18.473,-18.465,-18.457,-18.449,-18.439,-18.425,-18.421,-18.409,-18.399,-18.383,-18.37,-18.357,-18.345,-18.331,-18.314,-18.291,-18.272,-18.256,-18.24,-18.227,-18.202,-18.184,-18.171,-18.161,-18.152,-18.135,-18.123,-18.117,-18.114,-18.113,-18.11,-18.11,-18.119,-18.155,-18.18,-18.212,-18.234,-18.272,-18.312,-18.357,-18.392,-18.417,-18.45,-18.485,-18.511,-18.531,-18.536,-18.555,-18.565,-18.58,-18.577,-18.582,-18.582,-18.589,-18.589,-18.59,-18.584,-18.587,-18.594,-18.602,-18.593,-18.589,-18.589,-18.594,-18.588,-18.591,-18.581,-18.576,-18.58,-18.584,-18.582,-18.581,-18.573,-18.578,-18.578,-18.583,-18.574,-18.567,-18.57,-18.579,-18.584,-18.578,-18.576,-18.58,-18.588,-18.591,-18.582,-18.584,-18.584,-18.593,-18.6,-18.597,-18.597,-18.594,-18.599,-18.604,-18.599,-18.599,-18.598,-18.602,-18.613,-18.609,-18.603,-18.601,-18.605,-18.614,-18.612,-18.609,-18.606,-18.611,-18.606,-18.609,-18.606,-18.6,-18.61,-18.617,-18.618,-18.608,-18.607,-18.607,-18.613,-18.614,-18.608,-18.605,-18.616,-18.622,-18.617,-18.612,-18.605,-18.612,-18.617,-18.612,-18.611,-18.604,-18.609,-18.615,-18.622,-18.616,-18.612,-18.613,-18.615,-18.625,-18.618,-18.611,-18.615,-18.614,-18.62,-18.61,-18.61,-18.613,-18.612,-18.61,-18.611,-18.605,-18.604,-18.6,-18.596,-18.576,-18.562,-18.547,-18.524,-18.511,-18.516,-18.54,-18.551,-18.557,-18.561,-18.564,-18.566,-18.569,-18.588,-18.599,-18.615,-18.631,-18.635,-18.638,-18.648,-18.647,-18.641,-18.642,-18.647,-18.653,-18.651,-18.648,-18.642,-18.644,-18.652,-18.656,-18.646,-18.645,-18.653,-18.667,-18.725,-18.759,-18.671,-18.499,-18.264,-18.021,-17.71,-17.327,-17.309,-17.66,-18.133,-18.507,-18.732,-18.745,-18.661,-18.614,-18.566,-18.56,-18.574,-18.582,-18.587,-18.59,-18.578,-18.578,-18.574,-18.579,-18.573,-18.563,-18.561,-18.558,-18.555,-18.55,-18.532,-18.528,-18.527,-18.527,-18.522,-18.508,-18.501,-18.5,-18.499,-18.501,-18.49,-18.473,-18.466,-18.466,-18.455,-18.447,-18.432,-18.424,-18.415,-18.401,-18.383,-18.365,-18.35,-18.338,-18.327,-18.302,-18.276,-18.261,-18.256,-18.239,-18.215,-18.193,-18.176,-18.167,-18.157,-18.139,-18.12,-18.108,-18.109,-18.108,-18.105,-18.099,-18.106,-18.134,-18.163,-18.185,-18.211,-18.242,-18.267,-18.309,-18.354,-18.383,-18.419,-18.454,-18.484,-18.509,-18.525,-18.532,-18.551,-18.567,-18.571,-18.576,-18.572,-18.581,-18.589,-18.585,-18.582,-18.579,-18.579,-18.58,-18.585,-18.578,-18.573,-18.571,-18.575,-18.575,-18.57,-18.562,-18.56,-18.563,-18.564,-18.561,-18.552,-18.555,-18.557,-18.557,-18.553,-18.55,-18.553,-18.557,-18.557,-18.557,-18.551,-18.549,-18.555,-18.56,-18.56,-18.559,-18.563,-18.565,-18.569,-18.57,-18.568,-18.566,-18.577,-18.582,-18.58,-18.578,-18.578,-18.577,-18.582,-18.585,-18.58,-18.575,-18.578,-18.581,-18.587,-18.583,-18.578,-18.58,-18.581,-18.589,-18.585,-18.583,-18.583,-18.588,-18.592,-18.586,-18.58,-18.585,-18.585,-18.589,-18.586,-18.577,-18.579,-18.594,-18.595,-18.591,-18.585,-18.588,-18.592,-18.594,-18.588,-18.581,-18.579,-18.589,-18.594,-18.599,-18.591,-18.591,-18.587,-18.596,-18.597,-18.596,-18.592,-18.596,-18.597,-18.598,-18.596,-18.592,-18.596,-18.598,-18.601,-18.593,-18.58,-18.581,-18.591,-18.588,-18.58,-18.571,-18.551,-18.548,-18.539,-18.512,-18.483,-18.488,-18.512,-18.537,-18.532,-18.524,-18.535,-18.55,-18.559,-18.572,-18.58,-18.602,-18.618,-18.62,-18.622,-18.619,-18.618,-18.622,-18.631,-18.633,-18.626,-18.622,-18.627,-18.632,-18.637,-18.625,-18.632,-18.634,-18.644,-18.644,-18.658,-18.706,-18.726,-18.631,-18.452,-18.32,-18.071,-17.784,-17.407,-17.286,-17.505,-17.946,-18.393,-18.695,-18.769,-18.702,-18.638,-18.558,-18.559,-18.553,-18.574,-18.558,-18.576,-18.567,-18.579,-18.561,-18.566,-18.55,-18.562,-18.555,-18.554,-18.534,-18.539,-18.529,-18.544,-18.528,-18.524,-18.514,-18.513,-18.503,-18.507,-18.493,-18.491,-18.485,-18.488,-18.477,-18.463,-18.447,-18.441,-18.433,-18.429,-18.41,-18.396,-18.383,-18.376,-18.366,-18.344,-18.323,-18.303,-18.292,-18.274,-18.251,-18.231,-18.214,-18.198,-18.193,-18.167,-18.149,-18.14,-18.14,-18.127,-18.114,-18.097,-18.098,-18.107,-18.119,-18.127,-18.148,-18.171,-18.209,-18.237,-18.275,-18.305,-18.345,-18.388,-18.416,-18.444,-18.473,-18.493,-18.524,-18.54,-18.555,-18.555,-18.569,-18.573,-18.587,-18.586,-18.584,-18.584,-18.591,-18.592,-18.594,-18.58,-18.583,-18.587,-18.597,-18.593,-18.582,-18.568,-18.569,-18.573,-18.581,-18.572,-18.573,-18.573,-18.576,-18.57,-18.567,-18.561,-18.565,-18.561,-18.569,-18.555,-18.563,-18.571,-18.576,-18.576,-18.579,-18.57,-18.569,-18.577,-18.583,-18.577,-18.571,-18.574,-18.579,-18.587,-18.589,-18.579,-18.584,-18.589,-18.594,-18.587,-18.584,-18.585,-18.599,-18.605,-18.605,-18.594,-18.591,-18.593,-18.598,-18.596,-18.589,-18.59,-18.598,-18.604,-18.607,-18.593,-18.594,-18.598,-18.606,-18.605,-18.598,-18.598,-18.598,-18.602,-18.603,-18.599,-18.592,-18.591,-18.597,-18.605,-18.596,-18.592,-18.592,-18.602,-18.605,-18.605,-18.594,-18.591,-18.59,-18.59,-18.589,-18.587,-18.581,-18.582,-18.581,-18.564,-18.552,-18.534,-18.508,-18.493,-18.493,-18.505,-18.532,-18.541,-18.536,-18.547,-18.544,-18.555,-18.571,-18.6,-18.619,-18.621,-18.611,-18.62,-18.621,-18.627,-18.611,-18.623,-18.619,-18.631,-18.625,-18.624,-18.615,-18.627,-18.623,-18.627,-18.619,-18.622,-18.622,-18.644,-18.692,-18.741,-18.682,-18.616,-18.416,-18.148,-17.862,-17.479,-17.31,-17.361,-17.772,-18.21,-18.601,-18.75,-18.717,-18.657,-18.584,-18.55,-18.531,-18.557,-18.549,-18.561,-18.541,-18.55,-18.546,-18.563,-18.546,-18.539,-18.527,-18.531,-18.53,-18.53,-18.508,-18.511,-18.502,-18.508,-18.494,-18.486,-18.477,-18.483,-18.483,-18.48,-18.462,-18.456,-18.444,-18.446,-18.439,-18.424,-18.41,-18.402,-18.397,-18.388,-18.371,-18.355,-18.339,-18.327,-18.318,-18.296,-18.275,-18.255,-18.237,-18.215,-18.193,-18.182,-18.173,-18.151,-18.148,-18.127,-18.114,-18.102,-18.098,-18.098,-18.093,-18.081,-18.094,-18.112,-18.139,-18.163,-18.189,-18.221,-18.257,-18.29,-18.336,-18.349,-18.386,-18.422,-18.456,-18.479,-18.494,-18.507,-18.528,-18.541,-18.553,-18.548,-18.552,-18.558,-18.571,-18.57,-18.567,-18.563,-18.563,-18.566,-18.567,-18.557,-18.557,-18.558,-18.564,-18.56,-18.559,-18.549,-18.55,-18.549,-18.556,-18.548,-18.549,-18.547,-18.549,-18.549,-18.55,-18.544,-18.55,-18.55,-18.554,-18.548,-18.548,-18.549,-18.55,-18.552,-18.554,-18.549,-18.552,-18.557,-18.566,-18.564,-18.561,-18.558,-18.568,-18.575,-18.574,-18.572,-18.576,-18.575,-18.582,-18.582,-18.576,-18.571,-18.577,-18.582,-18.582,-18.575,-18.571,-18.573,-18.578,-18.584,-18.574,-18.574,-18.578,-18.583,-18.59,-18.585,-18.576,-18.582,-18.588,-18.589,-18.586,-18.58,-18.584,-18.586,-18.593,-18.596,-18.583,-18.585,-18.587,-18.593,-18.584,-18.585,-18.582,-18.592,-18.594,-18.588,-18.586,-18.587,-18.587,-18.589,-18.585,-18.572,-18.571,-18.575,-18.573,-18.567,-18.538,-18.534,-18.515,-18.492,-18.484,-18.487,-18.509,-18.525,-18.531,-18.534,-18.538,-18.544,-18.547,-18.571,-18.581,-18.589,-18.595,-18.608,-18.62,-18.621,-18.618,-18.62,-18.62,-18.629,-18.629,-18.625,-18.617,-18.622,-18.632,-18.63,-18.624,-18.621,-18.624,-18.654,-18.686,-18.732,-18.686,-18.534,-18.315,-18.068,-17.788,-17.373,-17.265,-17.504,-17.965,-18.393,-18.67,-18.738,-18.676,-18.619,-18.553,-18.547,-18.555,-18.569,-18.567,-18.571,-18.56,-18.564,-18.558,-18.566,-18.561,-18.557,-18.542,-18.54,-18.541,-18.54,-18.525,-18.521,-18.517,-18.517,-18.509,-18.5,-18.49,-18.492,-18.489,-18.489,-18.479,-18.468,-18.458,-18.459,-18.45,-18.44,-18.421,-18.407,-18.401,-18.394,-18.376,-18.361,-18.342,-18.329,-18.311,-18.293,-18.266,-18.249,-18.237,-18.231,-18.213,-18.188,-18.169,-18.158,-18.153,-18.136,-18.123,-18.109,-18.111,-18.107,-18.101,-18.096,-18.106,-18.124,-18.147,-18.175,-18.199,-18.232,-18.277,-18.297,-18.337,-18.369,-18.407,-18.44,-18.474,-18.505,-18.516,-18.531,-18.543,-18.563,-18.573,-18.571,-18.568,-18.58,-18.59,-18.59,-18.586,-18.578,-18.586,-18.59,-18.588,-18.586,-18.576,-18.575,-18.58,-18.581,-18.578,-18.563,-18.564,-18.573,-18.569,-18.568,-18.564,-18.563,-18.568,-18.57,-18.565,-18.557,-18.557,-18.557,-18.561,-18.566,-18.562,-18.565,-18.566,-18.569,-18.57,-18.564,-18.57,-18.57,-18.581,-18.58,-18.575,-18.572,-18.58,-18.588,-18.588,-18.578,-18.584,-18.585,-18.588,-18.594,-18.592,-18.584,-18.595,-18.593,-18.596,-18.592,-18.587,-18.588,-18.595,-18.599,-18.591,-18.584,-18.588,-18.6,-18.6,-18.594,-18.591,-18.591,-18.592,-18.596,-18.601,-18.585,-18.589,-18.593,-18.601,-18.597,-18.592,-18.592,-18.596,-18.6,-18.597,-18.597,-18.588,-18.597,-18.599,-18.598,-18.587,-18.59,-18.597,-18.599,-18.597,-18.594,-18.589,-18.597,-18.602,-18.601,-18.598,-18.594,-18.595,-18.604,-18.602,-18.594,-18.593,-18.588,-18.589,-18.583,-18.58,-18.575,-18.573,-18.572,-18.564,-18.545,-18.525,-18.504,-18.473,-18.481,-18.494,-18.513,-18.524,-18.521,-18.533,-18.545,-18.538,-18.548,-18.571,-18.59,-18.605,-18.605,-18.606,-18.61,-18.618,-18.619,-18.612,-18.609,-18.62,-18.623,-18.621,-18.619,-18.613,-18.616,-18.619,-18.618,-18.618,-18.627,-18.676,-18.727,-18.652,-18.47,-18.35,-18.111,-17.857,-17.482,-17.253,-17.402,-17.845,-18.309,-18.63,-18.746,-18.676,-18.619,-18.545,-18.54,-18.531,-18.545,-18.544,-18.554,-18.549,-18.556,-18.54,-18.548,-18.539,-18.547,-18.533,-18.529,-18.518,-18.521,-18.514,-18.513,-18.492,-18.494,-18.49,-18.492,-18.478,-18.471,-18.461,-18.462,-18.455,-18.449,-18.439,-18.429,-18.419,-18.42,-18.405,-18.392,-18.37,-18.361,-18.35,-18.343,-18.323,-18.305,-18.291,-18.283,-18.265,-18.237,-18.219,-18.199,-18.188,-18.172,-18.162,-18.134,-18.12,-18.11,-18.11,-18.095,-18.078,-18.07,-18.071,-18.07,-18.075,-18.078,-18.102,-18.133,-18.166,-18.191,-18.226,-18.262,-18.309,-18.348,-18.37,-18.395,-18.428,-18.455,-18.49,-18.506,-18.519,-18.526,-18.539,-18.547,-18.553,-18.549,-18.554,-18.56,-18.569,-18.569,-18.562,-18.554,-18.562,-18.569,-18.573,-18.565,-18.56,-18.559,-18.566,-18.562,-18.558,-18.549,-18.555,-18.556,-18.56,-18.556,-18.554,-18.557,-18.568,-18.568,-18.564,-18.562,-18.565,-18.57,-18.574,-18.571,-18.565,-18.565,-18.575,-18.581,-18.586,-18.579,-18.585,-18.592,-18.599,-18.599,-18.599,-18.6,-18.607,-18.616,-18.618,-18.611,-18.613,-18.625,-18.634,-18.632,-18.628,-18.624,-18.629,-18.634,-18.637,-18.63,-18.626,-18.628,-18.641,-18.64,-18.632,-18.632,-18.637,-18.642,-18.637,-18.636,-18.632,-18.636,-18.643,-18.643,-18.637,-18.631,-18.633,-18.644,-18.642,-18.641,-18.631,-18.628,-18.636,-18.643,-18.641,-18.638,-18.639,-18.642,-18.643,-18.64,-18.628,-18.63,-18.633,-18.639,-18.64,-18.631,-18.624,-18.625,-18.626,-18.617,-18.605,-18.587,-18.58,-18.567,-18.533,-18.52,-18.53,-18.557,-18.571,-18.565,-18.559,-18.576,-18.581,-18.589,-18.607,-18.621,-18.637,-18.64,-18.647,-18.65,-18.647,-18.643,-18.644,-18.655,-18.655,-18.654,-18.652,-18.653,-18.656,-18.657,-18.656,-18.645,-18.644,-18.656,-18.685,-18.742,-18.729,-18.617,-18.412,-18.151,-17.863,-17.482,-17.326,-17.435,-17.861,-18.303,-18.66,-18.776,-18.737,-18.68,-18.606,-18.574,-18.551,-18.576,-18.576,-18.593,-18.572,-18.585,-18.566,-18.579,-18.565,-18.564,-18.544,-18.561,-18.553,-18.56,-18.536,-18.539,-18.531,-18.535,-18.525,-18.52,-18.506,-18.512,-18.504,-18.502,-18.486,-18.475,-18.462,-18.455,-18.453,-18.446,-18.428,-18.426,-18.412,-18.397,-18.377,-18.362,-18.352,-18.341,-18.328,-18.312,-18.286,-18.275,-18.261,-18.252,-18.231,-18.201,-18.184,-18.175,-18.172,-18.157,-18.136,-18.123,-18.125,-18.121,-18.113,-18.104,-18.118,-18.133,-18.163,-18.177,-18.2,-18.232,-18.255,-18.295,-18.344,-18.366,-18.403,-18.432,-18.47,-18.499,-18.517,-18.527,-18.551,-18.562,-18.574,-18.569,-18.573,-18.578,-18.586,-18.583,-18.583,-18.581,-18.587,-18.584,-18.589,-18.575,-18.571,-18.566,-18.575,-18.576,-18.575,-18.56,-18.564,-18.567,-18.573,-18.565,-18.555,-18.551,-18.559,-18.56,-18.558,-18.551,-18.553,-18.549,-18.554,-18.547,-18.546,-18.546,-18.551,-18.553,-18.551,-18.545,-18.554,-18.558,-18.565,-18.567,-18.552,-18.555,-18.565,-18.565,-18.574,-18.571,-18.567,-18.575,-18.579,-18.581,-18.581,-18.579,-18.584,-18.591,-18.605,-18.607,-18.607,-18.617,-18.626,-18.628,-18.626,-18.625,-18.626,-18.637,-18.64,-18.635,-18.634,-18.618,-18.623,-18.628,-18.618,-18.607,-18.609,-18.597,-18.574,-18.55,-18.537,-18.54,-18.553,-18.582,-18.591,-18.585,-18.602,-18.618,-18.639,-18.653,-18.658,-18.666,-18.668,-18.683,-18.687,-18.683,-18.674,-18.682,-18.685,-18.69,-18.682,-18.677,-18.682,-18.684,-18.683,-18.677,-18.674,-18.676,-18.691,-18.739,-18.763,-18.774,-18.682,-18.501,-18.242,-17.943,-17.577,-17.357,-17.368,-17.73,-18.184,-18.59,-18.799,-18.772,-18.713,-18.644,-18.601,-18.575,-18.592,-18.599,-18.606,-18.592,-18.591,-18.585,-18.594,-18.59,-18.58,-18.565,-18.567,-18.568,-18.571,-18.551,-18.548,-18.542,-18.555,-18.548,-18.532,-18.526,-18.526,-18.519,-18.517,-18.513,-18.499,-18.494,-18.487,-18.478,-18.468,-18.449,-18.44,-18.437,-18.427,-18.407,-18.389,-18.38,-18.37,-18.353,-18.331,-18.312,-18.298,-18.278,-18.259,-18.253,-18.23,-18.211,-18.203,-18.197,-18.183,-18.164,-18.151,-18.145,-18.145,-18.136,-18.131,-18.151,-18.165,-18.193,-18.218,-18.243,-18.275,-18.31,-18.355,-18.377,-18.406,-18.438,-18.465,-18.501,-18.52,-18.538,-18.546,-18.561,-18.576,-18.587,-18.586,-18.593,-18.595,-18.608,-18.603,-18.591,-18.589,-18.593,-18.606,-18.609,-18.6,-18.593,-18.59,-18.594,-18.595,-18.593,-18.589,-18.588,-18.591,-18.593,-18.589,-18.585,-18.587,-18.597,-18.588,-18.581,-18.572,-18.572,-18.577,-18.578,-18.573,-18.567,-18.57,-18.572,-18.57,-18.572,-18.568,-18.567,-18.574,-18.576,-18.576,-18.568,-18.568,-18.57,-18.579,-18.577,-18.565,-18.574,-18.583,-18.582,-18.589,-18.587,-18.578,-18.582,-18.595,-18.59,-18.597,-18.593,-18.593,-18.608,-18.607,-18.594,-18.587,-18.584,-18.585,-18.57,-18.541,-18.531,-18.552,-18.557,-18.579,-18.613,-18.623,-18.642,-18.657,-18.676,-18.712,-18.73,-18.759,-18.78,-18.789,-18.797,-18.789,-18.795,-18.802,-18.805,-18.805,-18.805,-18.817,-18.819,-18.822,-18.824,-18.823,-18.825,-18.821,-18.825,-18.838,-18.881,-18.893,-18.801,-18.609,-18.338,-18.042,-17.668,-17.411,-17.436,-17.814,-18.265,-18.656,-18.809,-18.849,-18.83,-18.741,-18.689,-18.651,-18.675,-18.676,-18.678,-18.662,-18.66,-18.65,-18.648,-18.629,-18.623,-18.609,-18.611,-18.598,-18.585,-18.573,-18.573,-18.567,-18.561,-18.548,-18.537,-18.526,-18.531,-18.52,-18.513,-18.495,-18.488,-18.475,-18.466,-18.453,-18.436,-18.421,-18.415,-18.405,-18.393,-18.374,-18.354,-18.345,-18.329,-18.313,-18.285,-18.266,-18.251,-18.234,-18.217,-18.191,-18.171,-18.155,-18.145,-18.134,-18.116,-18.1,-18.094,-18.089,-18.084,-18.077,-18.071,-18.081,-18.102,-18.127,-18.148,-18.175,-18.206,-18.241,-18.28,-18.327,-18.361,-18.388,-18.414,-18.445,-18.462,-18.473,-18.485,-18.505,-18.524,-18.535,-18.532,-18.536,-18.545,-18.555,-18.557,-18.553,-18.549,-18.559,-18.553,-18.56,-18.553,-18.558,-18.559,-18.551,-18.562,-18.555,-18.543,-18.549,-18.551,-18.557,-18.551,-18.555,-18.549,-18.548,-18.553,-18.557,-18.547,-18.552,-18.556,-18.562,-18.555,-18.554,-18.564,-18.574,-18.582,-18.578,-18.57,-18.583,-18.597,-18.613,-18.615,-18.614,-18.627,-18.629,-18.638,-18.639,-18.639,-18.648,-18.654,-18.668,-18.665,-18.665,-18.665,-18.67,-18.681,-18.681,-18.674,-18.66,-18.663,-18.669,-18.655,-18.649,-18.63,-18.621,-18.615,-18.591,-18.567,-18.555,-18.566,-18.582,-18.598,-18.593,-18.608,-18.609,-18.624,-18.641,-18.654,-18.666,-18.668,-18.67,-18.674,-18.667,-18.66,-18.655,-18.662,-18.665,-18.664,-18.653,-18.66,-18.652,-18.65,-18.649,-18.644,-18.639,-18.644,-18.66,-18.696,-18.736,-18.693,-18.54,-18.307,-18.161,-17.87,-17.484,-17.303,-17.335,-17.732,-18.17,-18.577,-18.767,-18.747,-18.679,-18.609,-18.56,-18.548,-18.563,-18.562,-18.568,-18.56,-18.557,-18.554,-18.554,-18.55,-18.549,-18.543,-18.548,-18.545,-18.542,-18.524,-18.522,-18.522,-18.521,-18.512,-18.509,-18.501,-18.495,-18.487,-18.482,-18.479,-18.479,-18.473,-18.466,-18.457,-18.441,-18.425,-18.419,-18.406,-18.402,-18.383,-18.365,-18.353,-18.346,-18.331,-18.315,-18.289,-18.272,-18.262,-18.238,-18.21,-18.197,-18.196,-18.19,-18.177,-18.157,-18.146,-18.137,-18.138,-18.124,-18.127,-18.133,-18.139,-18.162,-18.184,-18.193,-18.232,-18.273,-18.311,-18.349,-18.377,-18.405,-18.442,-18.471,-18.476,-18.491,-18.5,-18.513,-18.533,-18.542,-18.549,-18.55,-18.55,-18.559,-18.564,-18.558,-18.536,-18.55,-18.561,-18.564,-18.553,-18.551,-18.546,-18.547,-18.551,-18.561,-18.542,-18.541,-18.544,-18.545,-18.544,-18.534,-18.531,-18.525,-18.54,-18.541,-18.535,-18.53,-18.53,-18.534,-18.541,-18.535,-18.53,-18.538,-18.537,-18.544,-18.54,-18.535,-18.546,-18.55,-18.555,-18.549,-18.544,-18.546,-18.545,-18.545,-18.548,-18.543,-18.541,-18.542,-18.539,-18.531,-18.516,-18.507,-18.497,-18.473,-18.447,-18.44,-18.447,-18.47,-18.493,-18.492,-18.498,-18.505,-18.524,-18.553,-18.568,-18.573,-18.575,-18.577,-18.584,-18.582,-18.578,-18.581,-18.584,-18.583,-18.584,-18.58,-18.582,-18.579,-18.587,-18.587,-18.58,-18.572,-18.585,-18.595,-18.64,-18.693,-18.665,-18.532,-18.318,-18.044,-17.726,-17.363,-17.248,-17.266,-17.613,-18.07,-18.469,-18.721,-18.692,-18.661,-18.589,-18.546,-18.516,-18.53,-18.533,-18.532,-18.516,-18.522,-18.524,-18.528,-18.512,-18.507,-18.498,-18.505,-18.504,-18.503,-18.492,-18.49,-18.488,-18.487,-18.477,-18.472,-18.468,-18.47,-18.466,-18.459,-18.44,-18.436,-18.429,-18.424,-18.418,-18.408,-18.398,-18.395,-18.387,-18.375,-18.359,-18.339,-18.327,-18.317,-18.308,-18.284,-18.259,-18.246,-18.238,-18.224,-18.199,-18.177,-18.164,-18.16,-18.15,-18.136,-18.121,-18.115,-18.11,-18.116,-18.12,-18.123,-18.142,-18.167,-18.195,-18.218,-18.243,-18.273,-18.319,-18.353,-18.381,-18.402,-18.436,-18.459,-18.482,-18.492,-18.501,-18.504,-18.522,-18.532,-18.539,-18.531,-18.534,-18.537,-18.55,-18.552,-18.545,-18.537,-18.541,-18.548,-18.548,-18.542,-18.536,-18.544,-18.541,-18.537,-18.532,-18.528,-18.533,-18.534,-18.531,-18.522,-18.519,-18.523,-18.525,-18.526,-18.523,-18.512,-18.512,-18.52,-18.523,-18.52,-18.518,-18.522,-18.531,-18.537,-18.533,-18.529,-18.531,-18.534,-18.543,-18.545,-18.537,-18.537,-18.54,-18.547,-18.547,-18.546,-18.54,-18.533,-18.522,-18.516,-18.502,-18.498,-18.5,-18.496,-18.473,-18.454,-18.431,-18.439,-18.463,-18.479,-18.498,-18.494,-18.502,-18.521,-18.539,-18.556,-18.57,-18.578,-18.589,-18.595,-18.593,-18.59,-18.597,-18.605,-18.608,-18.604,-18.608,-18.612,-18.62,-18.624,-18.623,-18.618,-18.62,-18.628,-18.637,-18.641,-18.673,-18.731,-18.73,-18.618,-18.414,-18.161,-17.879,-17.484,-17.265,-17.348,-17.547,-18,-18.406,-18.411,-18.72,-18.725,-18.622,-18.576,-18.548,-18.572,-18.546,-18.569,-18.548,-18.572,-18.543,-18.551,-18.529,-18.546,-18.528,-18.541,-18.516,-18.524,-18.505,-18.518,-18.502,-18.512,-18.491,-18.501,-18.487,-18.493,-18.474,-18.471,-18.457,-18.463,-18.45,-18.449,-18.43,-18.424,-18.415,-18.411,-18.399,-18.387,-18.37,-18.368,-18.356,-18.343,-18.318,-18.305,-18.29,-18.283,-18.261,-18.235,-18.215,-18.205,-18.201,-18.189,-18.176,-18.166,-18.159,-18.153,-18.151,-18.14,-18.138,-18.144,-18.169,-18.188,-18.208,-18.234,-18.271,-18.308,-18.345,-18.372,-18.409,-18.444,-18.481,-18.503,-18.524,-18.528,-18.547,-18.56,-18.569,-18.571,-18.574,-18.577,-18.587,-18.585,-18.589,-18.58,-18.584,-18.583,-18.586,-18.579,-18.57,-18.564,-18.569,-18.569,-18.567,-18.555,-18.562,-18.564,-18.568,-18.56,-18.553,-18.545,-18.551,-18.549,-18.554,-18.548,-18.551,-18.552,-18.56,-18.552,-18.549,-18.546,-18.551,-18.55,-18.554,-18.549,-18.551,-18.555,-18.562,-18.563,-18.565,-18.56,-18.562,-18.565,-18.571,-18.562,-18.558,-18.567,-18.578,-18.577,-18.574,-18.569,-18.572,-18.574,-18.582,-18.574,-18.569,-18.57,-18.57,-18.574,-18.569,-18.565,-18.564,-18.565,-18.567,-18.545,-18.527,-18.521,-18.518,-18.525,-18.524,-18.493,-18.462,-18.449,-18.465,-18.478,-18.485,-18.5,-18.505,-18.512,-18.517,-18.52,-18.529,-18.553,-18.568,-18.569,-18.569,-18.568,-18.572,-18.578,-18.577,-18.571,-18.566,-18.574,-18.581,-18.581,-18.575,-18.575,-18.578,-18.577,-18.577,-18.582,-18.574,-18.584,-18.63,-18.695,-18.675,-18.545,-18.336,-18.094,-17.81,-17.392,-17.186,-17.325,-17.763,-18.201,-18.565,-18.691,-18.653,-18.625,-18.563,-18.524,-18.504,-18.518,-18.514,-18.534,-18.524,-18.527,-18.514,-18.526,-18.515,-18.521,-18.505,-18.507,-18.5,-18.509,-18.488,-18.487,-18.478,-18.483,-18.478,-18.48,-18.467,-18.463,-18.455,-18.452,-18.449,-18.445,-18.427,-18.426,-18.422,-18.419,-18.402,-18.388,-18.378,-18.367,-18.35,-18.337,-18.319,-18.314,-18.299,-18.291,-18.283,-18.256,-18.223,-18.214,-18.202,-18.179,-18.156,-18.142,-18.137,-18.132,-18.12,-18.104,-18.101,-18.103,-18.11,-18.117,-18.124,-18.132,-18.16,-18.19,-18.228,-18.259,-18.298,-18.338,-18.377,-18.407,-18.429,-18.448,-18.473,-18.492,-18.512,-18.512,-18.523,-18.528,-18.544,-18.548,-18.546,-18.54,-18.546,-18.553,-18.559,-18.552,-18.543,-18.549,-18.554,-18.553,-18.55,-18.543,-18.542,-18.54,-18.545,-18.54,-18.53,-18.53,-18.537,-18.532,-18.53,-18.526,-18.527,-18.53,-18.537,-18.533,-18.526,-18.521,-18.527,-18.529,-18.529,-18.523,-18.526,-18.527,-18.537,-18.534,-18.532,-18.534,-18.536,-18.542,-18.544,-18.541,-18.54,-18.539,-18.545,-18.553,-18.553,-18.548,-18.552,-18.556,-18.56,-18.551,-18.553,-18.553,-18.559,-18.562,-18.556,-18.552,-18.554,-18.561,-18.564,-18.559,-18.557,-18.557,-18.563,-18.567,-18.562,-18.552,-18.553,-18.56,-18.563,-18.562,-18.56,-18.559,-18.565,-18.569,-18.569,-18.563,-18.559,-18.565,-18.569,-18.568,-18.565,-18.562,-18.564,-18.566,-18.564,-18.557,-18.553,-18.559,-18.569,-18.572,-18.562,-18.558,-18.563,-18.565,-18.564,-18.56,-18.557,-18.56,-18.566,-18.566,-18.564,-18.559,-18.555,-18.561,-18.565,-18.563,-18.557,-18.558,-18.565,-18.566,-18.559,-18.553,-18.554,-18.561,-18.562,-18.557,-18.552,-18.552,-18.557,-18.565,-18.566,-18.561,-18.56,-18.56,-18.565,-18.562,-18.557,-18.557,-18.556,-18.566,-18.563,-18.558,-18.552,-18.562,-18.564,-18.563,-18.552,-18.548,-18.551,-18.564,-18.562,-18.562,-18.548,-18.541,-18.539,-18.529,-18.511,-18.484,-18.485,-18.505,-18.524,-18.518,-18.512,-18.522,-18.534,-18.542,-18.541,-18.554,-18.568,-18.587,-18.588,-18.589,-18.585,-18.592,-18.596,-18.601,-18.604,-18.595,-18.595,-18.6,-18.602,-18.598,-18.589,-18.59,-18.595,-18.611,-18.653,-18.706,-18.673,-18.543,-18.442,-18.217,-17.951,-17.574,-17.246,-17.27,-17.619,-18.06
