-2.2833,-2.2785,-2.2797,-2.2805,-2.2676,-2.2629,-2.264,-2.2743,-2.2761,-2.2675,-2.2635,-2.2661,-2.271,-2.2776,-2.2783,-2.2743,-2.2718,-2.2839,-2.2914,-2.2965,-2.2918,-2.2956,-2.3025,-2.3116,-2.3146,-2.3058,-2.3025,-2.3117,-2.3201,-2.321,-2.3125,-2.31,-2.3006,-2.2969,-2.2835,-2.2708,-2.2637,-2.2721,-2.2728,-2.2413,-2.2125,-2.1915,-2.2014,-2.2307,-2.2483,-2.2564,-2.2632,-2.2759,-2.2903,-2.2981,-2.3049,-2.3039,-2.3057,-2.3128,-2.3178,-2.3203,-2.3154,-2.308,-2.315,-2.3173,-2.3131,-2.3048,-2.2997,-2.3027,-2.3143,-2.3175,-2.3254,-2.3073,-2.207,-2.0473,-1.8412,-1.7098,-1.5222,-1.591,-1.988,-2.4368,-2.7931,-2.6746,-2.5572,-2.4835,-2.4101,-2.3399,-2.2917,-2.2865,-2.271,-2.2763,-2.2647,-2.2583,-2.2537,-2.26,-2.2558,-2.2598,-2.2471,-2.2438,-2.247,-2.2474,-2.2397,-2.2334,-2.2193,-2.224,-2.2215,-2.22,-2.2123,-2.2017,-2.1968,-2.2007,-2.1934,-2.1807,-2.1654,-2.1592,-2.1532,-2.1424,-2.1329,-2.1178,-2.1005,-2.097,-2.0848,-2.0658,-2.0393,-2.0208,-2.0095,-1.9935,-1.9674,-1.9363,-1.9108,-1.8944,-1.8758,-1.8545,-1.8296,-1.8176,-1.814,-1.804,-1.7964,-1.7848,-1.7746,-1.7773,-1.7799,-1.7871,-1.8007,-1.8244,-1.8666,-1.911,-1.9562,-1.9957,-2.0347,-2.0792,-2.1244,-2.1563,-2.1781,-2.1949,-2.2201,-2.239,-2.2444,-2.2503,-2.2594,-2.2656,-2.2825,-2.2907,-2.2894,-2.2899,-2.2894,-2.2935,-2.295,-2.2938,-2.289,-2.2853,-2.2915,-2.2957,-2.2895,-2.2831,-2.2809,-2.2813,-2.2821,-2.2765,-2.2689,-2.2586,-2.265,-2.2636,-2.2593,-2.255,-2.2442,-2.247,-2.2517,-2.2512,-2.2469,-2.2426,-2.2468,-2.2554,-2.2573,-2.2528,-2.2503,-2.2568,-2.2584,-2.2631,-2.2634,-2.2592,-2.2581,-2.2683,-2.2735,-2.2716,-2.2663,-2.2641,-2.2758,-2.2767,-2.2744,-2.2636,-2.2625,-2.2681,-2.2746,-2.2667,-2.2617,-2.2603,-2.2625,-2.2608,-2.2414,-2.2247,-2.2157,-2.2146,-2.2312,-2.2226,-2.1842,-2.1534,-2.1454,-2.1656,-2.1889,-2.1975,-2.2088,-2.2197,-2.2431,-2.2523,-2.2541,-2.2591,-2.2696,-2.2778,-2.2836,-2.2785,-2.2724,-2.2718,-2.2821,-2.2854,-2.2792,-2.2683,-2.2675,-2.2785,-2.2814,-2.28,-2.2853,-2.294,-2.263,-2.1137,-1.9168,-1.6825,-1.4712,-1.47,-1.6822,-2.1462,-2.6283,-2.7756,-2.6286,-2.5084,-2.4348,-2.3411,-2.2924,-2.2756,-2.2593,-2.2548,-2.2507,-2.2437,-2.2457,-2.2523,-2.2474,-2.2367,-2.2295,-2.2285,-2.2346,-2.2377,-2.2309,-2.2236,-2.2188,-2.2268,-2.2234,-2.2167,-2.2092,-2.2048,-2.2053,-2.2035,-2.19,-2.174,-2.1609,-2.1593,-2.1551,-2.1399,-2.1187,-2.1124,-2.1046,-2.0958,-2.0833,-2.0633,-2.0451,-2.0277,-2.0215,-2.0047,-1.9738,-1.9435,-1.9267,-1.9078,-1.8819,-1.8601,-1.8359,-1.8238,-1.8158,-1.8025,-1.7876,-1.7805,-1.7711,-1.7727,-1.7754,-1.7709,-1.7763,-1.7885,-1.8264,-1.8652,-1.9009,-1.9383,-1.9823,-2.0319,-2.0827,-2.1236,-2.1465,-2.1692,-2.2083,-2.2267,-2.23,-2.2354,-2.2407,-2.248,-2.2734,-2.2803,-2.2774,-2.2768,-2.2662,-2.2728,-2.2624,-2.2859,-2.2969,-2.2904,-2.2756,-2.2759,-2.286,-2.2432,-2.2388,-2.2548,-2.2811,-2.2604,-2.2458,-2.2094,-2.1971,-2.2326,-2.2442,-2.2087,-2.1951,-2.2173,-2.1955,-2.1751,-2.1543,-2.1396,-2.1181,-2.1088,-2.0906,-2.0699,-2.0769,-2.0616,-2.048,-2.0711,-2.0583,-2.0323,-2.0422,-2.054,-2.0453,-2.043,-2.0528,-2.0537,-2.0407,-2.0379,-2.0053,-2.014,-1.9939,-2.0067,-1.9736,-1.9602,-1.988,-1.9788,-1.9713,-1.975,-1.9574,-1.9288,-1.9506,-1.9575,-1.9507,-1.9296,-1.9357,-1.957,-1.9402,-1.9128,-1.9318,-1.9317,-1.9475,-1.9539,-1.9758,-1.9632,-1.9564,-1.9615,-1.966,-1.9693,-1.9545,-1.9086,-1.9243,-1.981,-1.9632,-1.9715,-1.9407,-1.9085,-1.9158,-1.9019,-1.9354,-1.9267,-1.931,-2.0025,-2.0065,-2.0207,-2.02,-2.0266,-2.0289,-2.0394,-2.053,-2.0503,-2.0576,-2.0609,-2.0687,-2.0844,-2.0844,-2.0729,-2.066,-2.1023,-2.11,-2.1154,-2.1359,-2.1317,-2.0755,-1.9139,-1.6978,-1.4504,-1.3295,-1.4971,-1.695,-2.1661,-2.6258,-2.5851,-2.4533,-2.3732,-2.3307,-2.2427,-2.2191,-2.2197,-2.2169,-2.2269,-2.232,-2.2317,-2.2432,-2.2581,-2.2548,-2.2591,-2.2644,-2.287,-2.3005,-2.3007,-2.3057,-2.2954,-2.2906,-2.3121,-2.3298,-2.3326,-2.3357,-2.3301,-2.3399,-2.3389,-2.3458,-2.3427,-2.3379,-2.332,-2.3257,-2.318,-2.3021,-2.2829,-2.2807,-2.2753,-2.2704,-2.2416,-2.2273,-2.2112,-2.1993,-2.177,-2.1555,-2.1241,-2.1039,-2.0906,-2.0634,-2.0395,-2.0138,-1.9974,-1.9808,-1.9702,-1.9544,-1.9357,-1.9231,-1.9204,-1.9194,-1.9174,-1.9113,-1.9268,-1.9491,-1.9818,-2.0095,-2.0335,-2.0705,-2.1223,-2.1643,-2.1966,-2.2227,-2.2438,-2.2793,-2.2958,-2.3086,-2.3101,-2.3106,-2.3231,-2.3387,-2.3462,-2.3446,-2.3433,-2.339,-2.3465,-2.3459,-2.3424,-2.3348,-2.3367,-2.3465,-2.3492,-2.3402,-2.3326,-2.3353,-2.3435,-2.3453,-2.3342,-2.3265,-2.3291,-2.3246,-2.329,-2.321,-2.3139,-2.3126,-2.3144,-2.3125,-2.3034,-2.304,-2.2971,-2.3011,-2.3096,-2.2985,-2.2962,-2.2965,-2.3032,-2.3113,-2.3063,-2.304,-2.3029,-2.3047,-2.3192,-2.3185,-2.3129,-2.3088,-2.3133,-2.3246,-2.3267,-2.3173,-2.311,-2.3114,-2.3226,-2.3242,-2.3223,-2.3123,-2.3136,-2.3192,-2.3175,-2.3164,-2.3176,-2.3137,-2.3198,-2.3237,-2.3164,-2.3089,-2.3073,-2.3073,-2.3145,-2.2994,-2.2834,-2.2788,-2.2809,-2.2932,-2.2785,-2.2541,-2.2294,-2.2118,-2.2065,-2.219,-2.2356,-2.2372,-2.2462,-2.2571,-2.264,-2.2774,-2.2724,-2.2778,-2.2921,-2.285,-2.2822,-2.27,-2.2745,-2.2792,-2.2769,-2.2674,-2.2532,-2.2525,-2.2654,-2.2681,-2.2707,-2.2665,-2.2658,-2.241,-2.1051,-1.9206,-1.7153,-1.5149,-1.5646,-1.8875,-2.2819,-2.6347,-2.5802,-2.464,-2.4185,-2.3469,-2.2984,-2.2482,-2.2422,-2.2219,-2.2181,-2.2048,-2.1999,-2.1969,-2.2043,-2.1947,-2.1928,-2.1791,-2.1868,-2.1904,-2.1961,-2.1777,-2.177,-2.1769,-2.1786,-2.1808,-2.175,-2.1579,-2.1584,-2.1531,-2.1555,-2.1483,-2.1431,-2.1311,-2.1297,-2.1216,-2.1093,-2.0904,-2.0783,-2.0769,-2.0658,-2.0568,-2.0344,-2.0109,-1.9961,-1.9835,-1.9629,-1.9388,-1.9105,-1.8993,-1.8813,-1.8716,-1.8511,-1.8233,-1.8083,-1.8058,-1.7969,-1.7837,-1.7694,-1.7563,-1.7585,-1.7602,-1.7672,-1.772,-1.786,-1.8233,-1.8576,-1.8886,-1.9182,-1.9597,-2.0085,-2.0324,-2.0698,-2.0997,-2.1162,-2.1474,-2.1634,-2.1842,-2.1956,-2.2056,-2.2151,-2.236,-2.2448,-2.2457,-2.2416,-2.2506,-2.2542,-2.2611,-2.2568,-2.2512,-2.254,-2.2603,-2.2574,-2.2506,-2.2411,-2.2466,-2.2458,-2.2455,-2.2342,-2.2273,-2.2234,-2.2265,-2.2278,-2.2259,-2.2191,-2.217,-2.2225,-2.227,-2.2252,-2.2237,-2.219,-2.2333,-2.234,-2.2385,-2.2336,-2.2299,-2.2379,-2.2437,-2.2428,-2.2402,-2.2354,-2.2472,-2.2527,-2.2497,-2.2423,-2.2402,-2.2429,-2.25,-2.2416,-2.221,-2.2027,-2.199,-2.1981,-2.2004,-2.2026,-2.1851,-2.1502,-2.1353,-2.1293,-2.1335,-2.152,-2.1679,-2.1872,-2.2009,-2.2155,-2.212,-2.2232,-2.2365,-2.2367,-2.2355,-2.2358,-2.2367,-2.2434,-2.2471,-2.2484,-2.2423,-2.2428,-2.2415,-2.2457,-2.2404,-2.2384,-2.234,-2.2499,-2.2665,-2.2634,-2.1631,-1.9813,-1.7841,-1.5574,-1.4681,-1.6602,-2.086,-2.2841,-2.6381,-2.6037,-2.4785,-2.4416,-2.3483,-2.3186,-2.2605,-2.2637,-2.209,-2.2255,-2.2065,-2.2275,-2.2023,-2.216,-2.1923,-2.2191,-2.204,-2.2175,-2.1887,-2.1979,-2.1876,-2.2024,-2.1866,-2.189,-2.1672,-2.1767,-2.1703,-2.173,-2.1566,-2.154,-2.1486,-2.149,-2.1346,-2.126,-2.1045,-2.1,-2.0893,-2.0849,-2.0578,-2.0428,-2.0319,-2.0241,-2.0059,-1.9878,-1.9633,-1.9394,-1.921,-1.9021,-1.8752,-1.8465,-1.825,-1.8131,-1.7998,-1.7796,-1.759,-1.744,-1.7408,-1.7349,-1.7279,-1.7151,-1.7208,-1.7322,-1.7584,-1.784,-1.8182,-1.8485,-1.9011,-1.9485,-1.994,-2.0298,-2.0659,-2.0945,-2.1313,-2.149,-2.1606,-2.164,-2.1823,-2.1958,-2.2097,-2.2024,-2.2076,-2.2138,-2.2308,-2.2334,-2.2319,-2.2264,-2.2326,-2.2334,-2.2447,-2.2433,-2.2372,-2.2298,-2.2431,-2.2373,-2.2361,-2.2242,-2.2204,-2.2233,-2.2238,-2.2124,-2.2134,-2.202,-2.2052,-2.2122,-2.207,-2.1961,-2.188,-2.1905,-2.201,-2.1966,-2.1951,-2.1855,-2.1954,-2.2025,-2.2058,-2.1999,-2.2005,-2.2029,-2.2144,-2.2114,-2.2136,-2.2069,-2.2077,-2.2134,-2.2237,-2.2216,-2.2234,-2.2141,-2.2246,-2.2281,-2.2255,-2.218,-2.2203,-2.225,-2.2324,-2.2286,-2.2223,-2.2214,-2.227,-2.2325,-2.2288,-2.2243,-2.2226,-2.2255,-2.2337,-2.2319,-2.2262,-2.2248,-2.23,-2.2379,-2.2379,-2.23,-2.227,-2.2303,-2.2393,-2.2427,-2.2378,-2.2252,-2.2107,-2.2099,-2.2125,-2.2132,-2.2045,-2.1988,-2.1887,-2.1692,-2.1449,-2.1371,-2.1561,-2.1919,-2.2001,-2.2002,-2.2002,-2.2161,-2.2287,-2.2459,-2.2471,-2.2443,-2.2443,-2.2527,-2.2566,-2.2574,-2.2524,-2.2447,-2.2417,-2.249,-2.2533,-2.2461,-2.2427,-2.2533,-2.273,-2.2687,-2.1842,-2.0198,-1.8014,-1.5672,-1.4549,-1.587,-1.9885,-2.479,-2.7406,-2.6854,-2.536,-2.4409,-2.3571,-2.2946,-2.2655,-2.2495,-2.2235,-2.2262,-2.2286,-2.2365,-2.2279,-2.2229,-2.2138,-2.2245,-2.2244,-2.2185,-2.2082,-2.2053,-2.2071,-2.2129,-2.2089,-2.2028,-2.1944,-2.1954,-2.1987,-2.1969,-2.1921,-2.1839,-2.1724,-2.1769,-2.1666,-2.1564,-2.1374,-2.1316,-2.128,-2.1207,-2.0994,-2.0877,-2.076,-2.0741,-2.0604,-2.0406,-2.0195,-1.9945,-1.9825,-1.9635,-1.9423,-1.9122,-1.8865,-1.8753,-1.8636,-1.8386,-1.8167,-1.8017,-1.7956,-1.7903,-1.7787,-1.7698,-1.7652,-1.7677,-1.7846,-1.8024,-1.825,-1.8559,-1.8995,-1.9492,-1.9947,-2.0345,-2.071,-2.1139,-2.1554,-2.1839,-2.2006,-2.2112,-2.2326,-2.2495,-2.2607,-2.2658,-2.2633,-2.2737,-2.281,-2.2868,-2.2929,-2.2868,-2.2833,-2.296,-2.2987,-2.2964,-2.2934,-2.294,-2.3025,-2.3034,-2.3041,-2.2948,-2.2949,-2.3007,-2.2999,-2.2949,-2.2897,-2.2827,-2.2862,-2.2875,-2.2887,-2.2796,-2.2742,-2.276,-2.2823,-2.2794,-2.2738,-2.2666,-2.2659,-2.2729,-2.2738,-2.2674,-2.2626,-2.267,-2.2795,-2.2786,-2.2796,-2.2721,-2.2734,-2.2833,-2.2914,-2.2883,-2.2805,-2.2795,-2.2877,-2.2933,-2.2923,-2.2878,-2.2885,-2.2899,-2.2942,-2.2945,-2.2935,-2.2881,-2.2946,-2.3035,-2.2943,-2.2913,-2.2897,-2.2911,-2.2971,-2.2983,-2.297,-2.2904,-2.2944,-2.3,-2.3032,-2.2997,-2.2943,-2.2967,-2.301,-2.3055,-2.3001,-2.2956,-2.2969,-2.3047,-2.3054,-2.3035,-2.3023,-2.2983,-2.3067,-2.3117,-2.3073,-2.3004,-2.3003,-2.3043,-2.3104,-2.3061,-2.2998,-2.2975,-2.304,-2.3114,-2.313,-2.3053,-2.3018,-2.3133,-2.3169,-2.3117,-2.3148,-2.3064,-2.3094,-2.3168,-2.3228,-2.3172,-2.3061,-2.3097,-2.3222,-2.322,-2.321,-2.3193,-2.3197,-2.3275,-2.3265,-2.3242,-2.3158,-2.3197,-2.3298,-2.3288,-2.3267,-2.3162,-2.3093,-2.305,-2.3163,-2.3119,-2.2964,-2.2816,-2.2778,-2.2699,-2.2736,-2.2862,-2.2862,-2.2945,-2.3028,-2.3079,-2.315,-2.3224,-2.3368,-2.3478,-2.3441,-2.3417,-2.3348,-2.3428,-2.3513,-2.3515,-2.3421,-2.3352,-2.336,-2.3448,-2.3491,-2.3532,-2.3563,-2.3479,-2.2379,-2.0721,-1.8474,-1.6007,-1.5741,-1.7838,-2.2197,-2.464,-2.7994,-2.711,-2.551,-2.5259,-2.422,-2.3796,-2.3263,-2.344,-2.3239,-2.3426,-2.3114,-2.331,-2.3133,-2.3322,-2.3046,-2.3165,-2.2922,-2.3131,-2.3028,-2.3178,-2.2984,-2.305,-2.2935,-2.3044,-2.2942,-2.3077,-2.2892,-2.292,-2.2918,-2.2925,-2.2778,-2.2736,-2.2617,-2.2687,-2.2538,-2.2458,-2.2269,-2.2205,-2.2159,-2.2148,-2.2002,-2.1796,-2.1605,-2.1532,-2.1397,-2.1219,-2.0969,-2.0728,-2.0633,-2.045,-2.0272,-2.0006,-1.9766,-1.9721,-1.9637,-1.9452,-1.9361,-1.9179,-1.918,-1.9155,-1.9181,-1.9028,-1.9055,-1.9151,-1.9433,-1.9652,-1.998,-2.0241,-2.0745,-2.1232,-2.1736,-2.2045,-2.2353,-2.2715,-2.3107,-2.334,-2.3529,-2.3571,-2.3745,-2.3818,-2.4001,-2.4086,-2.4069,-2.4096,-2.4258,-2.4284,-2.4356,-2.422,-2.4199,-2.4251,-2.4358,-2.4318,-2.4311,-2.4244,-2.4263,-2.4249,-2.422,-2.4153,-2.4119,-2.4174,-2.4258,-2.4222,-2.4217,-2.4133,-2.4095,-2.4147,-2.4194,-2.407,-2.411,-2.4071,-2.4145,-2.4148,-2.4155,-2.4062,-2.414,-2.4248,-2.4324,-2.4266,-2.4327,-2.4341,-2.447,-2.4567,-2.462,-2.4503,-2.4509,-2.4574,-2.4677,-2.4701,-2.473,-2.47,-2.4757,-2.4766,-2.4728,-2.4705,-2.4688,-2.477,-2.4856,-2.4795,-2.473,-2.4704,-2.4757,-2.489,-2.4927,-2.4846,-2.4839,-2.4842,-2.4932,-2.498,-2.4947,-2.4912,-2.4936,-2.5033,-2.5059,-2.5006,-2.4959,-2.5037,-2.5075,-2.5089,-2.5059,-2.5043,-2.5029,-2.5058,-2.5083,-2.5105,-2.5015,-2.4984,-2.5009,-2.5075,-2.508,-2.5011,-2.4979,-2.5049,-2.5048,-2.5041,-2.5047,-2.497,-2.5015,-2.5055,-2.4989,-2.5013,-2.4981,-2.5005,-2.5075,-2.5096,-2.504,-2.5029,-2.4993,-2.4989,-2.5063,-2.507,-2.4958,-2.5008,-2.5076,-2.5006,-2.4924,-2.4862,-2.4811,-2.4925,-2.479,-2.4643,-2.4533,-2.4431,-2.4292,-2.4535,-2.4675,-2.4525,-2.4451,-2.4593,-2.478,-2.4859,-2.4864,-2.4856,-2.498,-2.5026,-2.4994,-2.4969,-2.4803,-2.484,-2.4803,-2.4866,-2.4801,-2.4776,-2.4767,-2.4869,-2.4949,-2.4904,-2.4353,-2.2831,-2.1065,-1.916,-1.7526,-1.816,-2.0906,-2.4923,-2.8429,-2.77,-2.6573,-2.623,-2.5684,-2.5201,-2.4653,-2.4575,-2.4279,-2.4303,-2.4258,-2.4272,-2.4085,-2.4007,-2.396,-2.4162,-2.4027,-2.3972,-2.3873,-2.3933,-2.396,-2.3925,-2.3773,-2.3757,-2.3802,-2.3787,-2.3765,-2.3683,-2.353,-2.362,-2.3557,-2.3557,-2.348,-2.3374,-2.3264,-2.3239,-2.3172,-2.2992,-2.2829,-2.2728,-2.2662,-2.2576,-2.2413,-2.2249,-2.204,-2.1968,-2.1776,-2.1628,-2.1455,-2.1144,-2.1005,-2.0884,-2.074,-2.0512,-2.031,-2.0223,-2.0164,-2.0073,-1.9998,-1.9831,-1.9858,-1.9935,-1.9975,-1.996,-1.9988,-2.0189,-2.0593,-2.0793,-2.1136,-2.1395,-2.1736,-2.2245,-2.2649,-2.289,-2.3141,-2.3381,-2.3678,-2.385,-2.3954,-2.4053,-2.4163,-2.4335,-2.4433,-2.4426,-2.4413,-2.4408,-2.4513,-2.4509,-2.4545,-2.451,-2.4439,-2.4483,-2.4523,-2.449,-2.444,-2.4361,-2.4425,-2.4457,-2.4439,-2.4256,-2.421,-2.4211,-2.4245,-2.4239,-2.4203,-2.4086,-2.4173,-2.415,-2.4143,-2.4154,-2.4132,-2.411,-2.419,-2.4246,-2.4214,-2.424,-2.4223,-2.4334,-2.4399,-2.4438,-2.4277,-2.4295,-2.4442,-2.4457,-2.4482,-2.4387,-2.4357,-2.441,-2.447,-2.4442,-2.4361,-2.4312,-2.4398,-2.4427,-2.441,-2.434,-2.4281,-2.4306,-2.4361,-2.4339,-2.4305,-2.4212,-2.4246,-2.429,-2.4294,-2.4207,-2.4159,-2.4169,-2.4186,-2.4246,-2.4154,-2.41,-2.4037,-2.4078,-2.4049,-2.396,-2.387,-2.3829,-2.3873,-2.3729,-2.3581,-2.3327,-2.3382,-2.3647,-2.3733,-2.3647,-2.3626,-2.3592,-2.3711,-2.3893,-2.3994,-2.3999,-2.3986,-2.4012,-2.4139,-2.4109,-2.4071,-2.4015,-2.4002,-2.404,-2.4068,-2.4025,-2.3993,-2.4048,-2.4172,-2.4229,-2.3825,-2.2275,-2.141,-1.9619,-1.7341,-1.65,-1.7971,-2.1947,-2.6216,-2.8103,-2.6989,-2.617,-2.5504,-2.4923,-2.4448,-2.4125,-2.3891,-2.3737,-2.3794,-2.3813,-2.3764,-2.3703,-2.3637,-2.3663,-2.3713,-2.3666,-2.3574,-2.3529,-2.3524,-2.3579,-2.3508,-2.3464,-2.3382,-2.3411,-2.3429,-2.3424,-2.3327,-2.3223,-2.3211,-2.3236,-2.3168,-2.3023,-2.29,-2.286,-2.281,-2.2724,-2.2586,-2.2439,-2.2294,-2.2278,-2.2164,-2.1958,-2.1716,-2.1534,-2.137,-2.1192,-2.0921,-2.0621,-2.0342,-2.026,-2.0019,-1.9887,-1.9659,-1.955,-1.9426,-1.9356,-1.9273,-1.9136,-1.9101,-1.9109,-1.9181,-1.9315,-1.9474,-1.9719,-1.9915,-2.0385,-2.0849,-2.1447,-2.1839,-2.224,-2.2756,-2.3029,-2.3255,-2.332,-2.352,-2.3715,-2.3914,-2.3953,-2.3975,-2.404,-2.4178,-2.426,-2.4316,-2.4278,-2.4314,-2.4361,-2.4423,-2.4381,-2.4344,-2.437,-2.4422,-2.4424,-2.4427,-2.4392,-2.4298,-2.4241,-2.43,-2.4295,-2.419,-2.4088,-2.4085,-2.4122,-2.4111,-2.3967,-2.3958,-2.3937,-2.3978,-2.3945,-2.3871,-2.3821,-2.3831,-2.3913,-2.3956,-2.3947,-2.391,-2.392,-2.3925,-2.405,-2.4005,-2.3943,-2.397,-2.4048,-2.41,-2.4106,-2.4037,-2.4,-2.408,-2.4138,-2.4124,-2.4007,-2.3995,-2.4072,-2.4193,-2.4156,-2.4075,-2.4023,-2.4042,-2.4111,-2.4143,-2.4045,-2.397,-2.401,-2.409,-2.4102,-2.404,-2.3946,-2.3987,-2.4063,-2.4126,-2.4035,-2.397,-2.4036,-2.4106,-2.4131,-2.4097,-2.4038,-2.3902,-2.3983,-2.3986,-2.3891,-2.3892,-2.3806,-2.3693,-2.3641,-2.3402,-2.3419,-2.3577,-2.3673,-2.3704,-2.3713,-2.366,-2.381,-2.4027,-2.4158,-2.4181,-2.4135,-2.4103,-2.4143,-2.4207,-2.4222,-2.4142,-2.4069,-2.4086,-2.414,-2.4172,-2.4091,-2.4106,-2.4292,-2.4404,-2.3947,-2.2357,-2.0299,-1.8144,-1.637,-1.6451,-1.8428,-2.2762,-2.7435,-2.879,-2.7358,-2.6208,-2.548,-2.4604,-2.4135,-2.4074,-2.3834,-2.3728,-2.3677,-2.3761,-2.3791,-2.3718,-2.3605,-2.3535,-2.3639,-2.3644,-2.3632,-2.3587,-2.3485,-2.3465,-2.3547,-2.3544,-2.3464,-2.3388,-2.3372,-2.3397,-2.3388,-2.3293,-2.3156,-2.3117,-2.3158,-2.3039,-2.2867,-2.2723,-2.2638,-2.2639,-2.2566,-2.242,-2.2209,-2.2038,-2.1963,-2.1819,-2.163,-2.1329,-2.107,-2.0954,-2.0819,-2.0546,-2.0228,-1.9993,-1.9875,-1.9728,-1.9549,-1.9351,-1.9238,-1.9214,-1.9169,-1.9075,-1.8949,-1.8861,-1.8921,-1.9081,-1.9282,-1.9478,-1.9766,-2.0219,-2.0783,-2.1251,-2.1636,-2.2023,-2.2432,-2.2849,-2.3172,-2.332,-2.3441,-2.3528,-2.3742,-2.3885,-2.3904,-2.3974,-2.3985,-2.4078,-2.4232,-2.4214,-2.4171,-2.4174,-2.4239,-2.4295,-2.4238,-2.4196,-2.4229,-2.4253,-2.4295,-2.428,-2.4202,-2.4152,-2.4164,-2.4227,-2.418,-2.4094,-2.4046,-2.4062,-2.4043,-2.4009,-2.3972,-2.3873,-2.3907,-2.3936,-2.3904,-2.3847,-2.3822,-2.3839,-2.3924,-2.3914,-2.3851,-2.3801,-2.3781,-2.3867,-2.3961,-2.3954,-2.3897,-2.3827,-2.3978,-2.4018,-2.3979,-2.396,-2.3909,-2.4017,-2.406,-2.3989,-2.3919,-2.3971,-2.4037,-2.4105,-2.4054,-2.3966,-2.3925,-2.3975,-2.4068,-2.4057,-2.3988,-2.3945,-2.3972,-2.4075,-2.4092,-2.406,-2.3998,-2.4055,-2.4116,-2.413,-2.4063,-2.4026,-2.4026,-2.4099,-2.409,-2.4055,-2.4019,-2.4006,-2.4063,-2.4078,-2.4062,-2.4006,-2.3952,-2.4074,-2.4093,-2.4069,-2.4006,-2.3982,-2.3999,-2.4049,-2.4005,-2.3844,-2.3851,-2.3874,-2.3912,-2.3903,-2.3879,-2.3685,-2.3559,-2.3493,-2.345,-2.3592,-2.3666,-2.3669,-2.3741,-2.3832,-2.3819,-2.3949,-2.4075,-2.4183,-2.4229,-2.4168,-2.4092,-2.41,-2.4204,-2.4224,-2.4185,-2.4115,-2.4045,-2.4141,-2.4135,-2.4174,-2.4254,-2.4211,-2.3996,-2.2562,-2.0586,-1.8347,-1.6322,-1.6888,-1.9915,-2.4538,-2.8794,-2.8181,-2.6675,-2.6045,-2.5192,-2.4823,-2.418,-2.4102,-2.4007,-2.4029,-2.3952,-2.3863,-2.3858,-2.3954,-2.3929,-2.3841,-2.3721,-2.3761,-2.3795,-2.3822,-2.3764,-2.3677,-2.3716,-2.3777,-2.3739,-2.3699,-2.3607,-2.362,-2.3634,-2.3682,-2.359,-2.3471,-2.3367,-2.3389,-2.3355,-2.3253,-2.3049,-2.2878,-2.2918,-2.2796,-2.2642,-2.2457,-2.2331,-2.2167,-2.2033,-2.1921,-2.1693,-2.1379,-2.1181,-2.1054,-2.0867,-2.0527,-2.0325,-2.0141,-2.0022,-1.995,-1.9787,-1.9541,-1.942,-1.944,-1.9463,-1.9289,-1.9355,-1.9431,-1.9731,-1.9881,-2.0214,-2.047,-2.0852,-2.1356,-2.1853,-2.2302,-2.2599,-2.295,-2.3311,-2.3615,-2.3834,-2.396,-2.4038,-2.4261,-2.4391,-2.4491,-2.4442,-2.4485,-2.4618,-2.4648,-2.4716,-2.4702,-2.4622,-2.4618,-2.4833,-2.4882,-2.4821,-2.478,-2.4741,-2.4805,-2.4798,-2.4768,-2.4655,-2.4707,-2.4751,-2.4825,-2.4739,-2.4674,-2.469,-2.4691,-2.4688,-2.4675,-2.4588,-2.4539,-2.4661,-2.4696,-2.4646,-2.4562,-2.46,-2.4657,-2.4655,-2.4685,-2.469,-2.4657,-2.4693,-2.4845,-2.4832,-2.4852,-2.4862,-2.4883,-2.4961,-2.4964,-2.4931,-2.4843,-2.4823,-2.4975,-2.4886,-2.4925,-2.479,-2.4787,-2.4833,-2.4864,-2.4888,-2.4808,-2.4814,-2.4855,-2.4932,-2.4823,-2.4768,-2.4836,-2.4921,-2.5008,-2.4946,-2.481,-2.481,-2.4909,-2.4999,-2.4942,-2.4822,-2.484,-2.4913,-2.4963,-2.4952,-2.4845,-2.473,-2.4772,-2.4797,-2.4775,-2.454,-2.4362,-2.429,-2.4433,-2.4604,-2.461,-2.4534,-2.4568,-2.4706,-2.4843,-2.4942,-2.4979,-2.4986,-2.5101,-2.5121,-2.5103,-2.5055,-2.5067,-2.5148,-2.5079,-2.5073,-2.498,-2.4992,-2.5003,-2.5065,-2.5132,-2.519,-2.4704,-2.3324,-2.1575,-1.964,-1.7769,-1.8294,-2.1398,-2.5418,-2.9115,-2.8515,-2.7268,-2.6871,-2.6269,-2.5705,-2.51,-2.5064,-2.4911,-2.4831,-2.4762,-2.4732,-2.4513,-2.4536,-2.4578,-2.4624,-2.4489,-2.4527,-2.4324,-2.4473,-2.4374,-2.4439,-2.4229,-2.4279,-2.437,-2.4317,-2.4268,-2.4262,-2.4131,-2.4066,-2.4042,-2.4041,-2.3938,-2.3759,-2.3666,-2.3671,-2.3404,-2.3173,-2.305,-2.3133,-2.3037,-2.2886,-2.2634,-2.2427,-2.2296,-2.2174,-2.1996,-2.1892,-2.1582,-2.1356,-2.1229,-2.1071,-2.0776,-2.0426,-2.0314,-2.0295,-2.0224,-2.0108,-1.9993,-1.9904,-2.0005,-1.9938,-1.996,-2.0007,-2.0203,-2.0581,-2.097,-2.1309,-2.156,-2.1885,-2.2266,-2.2774,-2.3249,-2.3452,-2.373,-2.395,-2.4208,-2.428,-2.4432,-2.4453,-2.4622,-2.4739,-2.4873,-2.4795,-2.4792,-2.4872,-2.4999,-2.4983,-2.5014,-2.4912,-2.4989,-2.5044,-2.5139,-2.5035,-2.4988,-2.495,-2.5033,-2.5018,-2.4898,-2.4731,-2.488,-2.4891,-2.4888,-2.4861,-2.4755,-2.4791,-2.4878,-2.492,-2.4928,-2.4856,-2.48,-2.4825,-2.4874,-2.494,-2.4939,-2.4871,-2.4962,-2.5073,-2.5095,-2.5037,-2.5036,-2.5138,-2.5157,-2.5208,-2.5131,-2.5083,-2.5202,-2.5264,-2.5281,-2.5271,-2.5163,-2.5162,-2.5219,-2.5234,-2.5191,-2.5128,-2.5071,-2.5169,-2.5069,-2.4984,-2.494,-2.4873,-2.4712,-2.4632,-2.4435,-2.4423,-2.4528,-2.4687,-2.4746,-2.4649,-2.4641,-2.4666,-2.4851,-2.4903,-2.5005,-2.496,-2.488,-2.4888,-2.496,-2.498,-2.49,-2.4819,-2.4809,-2.4884,-2.4812,-2.4761,-2.4708,-2.4859,-2.5015,-2.4965,-2.453,-2.2898,-2.1065,-1.9044,-1.7186,-1.7612,-2.087,-2.508,-2.8922,-2.8305,-2.7137,-2.6561,-2.571,-2.5217,-2.4709,-2.4694,-2.4277,-2.4298,-2.4252,-2.4351,-2.4193,-2.4177,-2.4074,-2.4148,-2.4139,-2.4176,-2.4028,-2.4053,-2.4003,-2.4064,-2.3998,-2.3918,-2.3761,-2.3858,-2.3854,-2.3845,-2.3699,-2.3663,-2.3679,-2.3712,-2.3609,-2.3463,-2.3308,-2.3258,-2.3196,-2.3154,-2.293,-2.2764,-2.2622,-2.257,-2.2395,-2.2206,-2.1907,-2.1698,-2.1583,-2.1375,-2.1074,-2.0784,-2.056,-2.0486,-2.0365,-2.0136,-1.9895,-1.9723,-1.9659,-1.9604,-1.9507,-1.9387,-1.9336,-1.9438,-1.9644,-1.9858,-2.013,-2.0482,-2.0957,-2.1521,-2.1969,-2.2354,-2.274,-2.2945,-2.333,-2.368,-2.3848,-2.3998,-2.4167,-2.4352,-2.4468,-2.4541,-2.4566,-2.4593,-2.4742,-2.4847,-2.4845,-2.4791,-2.4809,-2.4903,-2.494,-2.4909,-2.486,-2.4838,-2.4926,-2.4966,-2.4986,-2.4886,-2.4811,-2.4833,-2.4893,-2.4878,-2.4791,-2.4691,-2.4766,-2.4746,-2.475,-2.4659,-2.4613,-2.4636,-2.4701,-2.4611,-2.4594,-2.4565,-2.4549,-2.4623,-2.4673,-2.4639,-2.4616,-2.4586,-2.4718,-2.4754,-2.4725,-2.471,-2.4728,-2.4802,-2.4882,-2.4822,-2.4777,-2.4743,-2.4911,-2.4921,-2.4892,-2.4811,-2.4811,-2.4855,-2.4964,-2.4912,-2.484,-2.4819,-2.4856,-2.4903,-2.4927,-2.4818,-2.4773,-2.4828,-2.4882,-2.4874,-2.4778,-2.4749,-2.4731,-2.4798,-2.4731,-2.4642,-2.4659,-2.4597,-2.4562,-2.4432,-2.424,-2.4146,-2.4275,-2.4479,-2.4519,-2.453,-2.4525,-2.4575,-2.4765,-2.4895,-2.4904,-2.4899,-2.4937,-2.5029,-2.5066,-2.5048,-2.5026,-2.4939,-2.4967,-2.5002,-2.4979,-2.494,-2.4886,-2.503,-2.5239,-2.5235,-2.4491,-2.2803,-2.0679,-1.8414,-1.7087,-1.8391,-2.2408,-2.7202,-3.0215,-2.892,-2.7978,-2.7073,-2.6142,-2.5567,-2.503,-2.5025,-2.4689,-2.4786,-2.4719,-2.4849,-2.4692,-2.4692,-2.4537,-2.4734,-2.4619,-2.4638,-2.4455,-2.4543,-2.4532,-2.4629,-2.4556,-2.4479,-2.4345,-2.442,-2.4425,-2.4424,-2.428,-2.4235,-2.4231,-2.4259,-2.4118,-2.4019,-2.3829,-2.3814,-2.374,-2.3663,-2.3455,-2.3272,-2.3147,-2.3096,-2.302,-2.2808,-2.2555,-2.2365,-2.2234,-2.2043,-2.1794,-2.1494,-2.1274,-2.1166,-2.0964,-2.0739,-2.0512,-2.0389,-2.0352,-2.0246,-2.0108,-1.9946,-1.9948,-2.0068,-2.0165,-2.0311,-2.0505,-2.0784,-2.1272,-2.1796,-2.2278,-2.2655,-2.3051,-2.352,-2.3987,-2.4265,-2.4483,-2.4657,-2.4856,-2.5054,-2.5194,-2.5193,-2.5224,-2.5342,-2.5469,-2.548,-2.5496,-2.546,-2.5507,-2.5536,-2.5589,-2.5522,-2.5498,-2.5457,-2.5556,-2.5572,-2.5595,-2.5514,-2.551,-2.5532,-2.5593,-2.5521,-2.5444,-2.5394,-2.5479,-2.5473,-2.5417,-2.5332,-2.5314,-2.5302,-2.5355,-2.5317,-2.5245,-2.5162,-2.5177,-2.5215,-2.5233,-2.5157,-2.5077,-2.5137,-2.5256,-2.528,-2.5213,-2.5188,-2.5251,-2.53,-2.5375,-2.5332,-2.5297,-2.5359,-2.5404,-2.5432,-2.5434,-2.5381,-2.5358,-2.5442,-2.5492,-2.5451,-2.5415,-2.5383,-2.5513,-2.555,-2.5527,-2.5488,-2.5499,-2.5566,-2.5609,-2.5604,-2.5501,-2.5488,-2.55,-2.5591,-2.5634,-2.5569,-2.5524,-2.556,-2.5596,-2.5609,-2.558,-2.5489,-2.5558,-2.5597,-2.5589,-2.5536,-2.5487,-2.5485,-2.5605,-2.5622,-2.5576,-2.549,-2.5464,-2.5569,-2.5603,-2.5561,-2.5496,-2.5516,-2.5566,-2.5586,-2.548,-2.5384,-2.5295,-2.5395,-2.5449,-2.5283,-2.5063,-2.5026,-2.4883,-2.4971,-2.5161,-2.5137,-2.511,-2.5166,-2.5326,-2.5468,-2.5531,-2.5563,-2.5668,-2.5715,-2.5751,-2.5718,-2.5697,-2.5733,-2.5763,-2.5721,-2.5633,-2.5607,-2.5619,-2.5764,-2.5876,-2.594,-2.5914,-2.5397,-2.3947,-2.1941,-1.9715,-1.8139,-1.9064,-2.2523,-2.7288,-3.0956,-2.9745,-2.8163,-2.7676,-2.6885,-2.6227,-2.5892,-2.5907,-2.5665,-2.5814,-2.5757,-2.5753,-2.5666,-2.574,-2.5792,-2.5752,-2.5663,-2.5608,-2.5578,-2.5603,-2.564,-2.5603,-2.5537,-2.5625,-2.5695,-2.5663,-2.5558,-2.5511,-2.5376,-2.5432,-2.5403,-2.5376,-2.5244,-2.5162,-2.5145,-2.5044,-2.4891,-2.4684,-2.4563,-2.457,-2.4498,-2.4266,-2.4099,-2.3938,-2.3791,-2.36,-2.3425,-2.3299,-2.3073,-2.2915,-2.2808,-2.2576,-2.2341,-2.2237,-2.2084,-2.2048,-2.1876,-2.1664,-2.1519,-2.1471,-2.153,-2.1541,-2.1555,-2.1592,-2.1884,-2.2189,-2.255,-2.2723,-2.3089,-2.3486,-2.4057,-2.453,-2.4938,-2.5233,-2.5539,-2.5839,-2.6081,-2.6264,-2.6406,-2.6504,-2.6667,-2.6788,-2.679,-2.6767,-2.6897,-2.7009,-2.7055,-2.7029,-2.7016,-2.705,-2.7099,-2.7184,-2.7216,-2.718,-2.7169,-2.7196,-2.729,-2.7297,-2.7254,-2.716,-2.7159,-2.7176,-2.7138,-2.7101,-2.7011,-2.701,-2.7077,-2.7025,-2.7014,-2.6907,-2.6866,-2.6943,-2.699,-2.6968,-2.6832,-2.6781,-2.6883,-2.6949,-2.6908,-2.6834,-2.6817,-2.6909,-2.6946,-2.6898,-2.688,-2.6848,-2.697,-2.7046,-2.6999,-2.6901,-2.6867,-2.6962,-2.6994,-2.6951,-2.6848,-2.6838,-2.684,-2.6937,-2.6893,-2.6914,-2.6816,-2.6839,-2.6915,-2.686,-2.6833,-2.6768,-2.6831,-2.686,-2.6829,-2.6796,-2.6677,-2.6665,-2.6679,-2.6706,-2.6635,-2.6541,-2.6389,-2.6261,-2.6205,-2.5982,-2.5963,-2.6093,-2.6223,-2.6192,-2.6122,-2.6175,-2.6222,-2.6387,-2.645,-2.6493,-2.6427,-2.6435,-2.6419,-2.6466,-2.6481,-2.6422,-2.6331,-2.6323,-2.6339,-2.6358,-2.6285,-2.6205,-2.6265,-2.6338,-2.6268,-2.5156,-2.3378,-2.1581,-2.0559,-1.9034,-1.9722,-2.2998,-2.6736,-3.0239,-2.9352,-2.8277,-2.7738,-2.7175,-2.6762,-2.6321,-2.6046,-2.5788,-2.5701,-2.5744,-2.577,-2.5598,-2.5524,-2.5429,-2.5453,-2.5475,-2.5498,-2.5443,-2.5429,-2.5362,-2.5469,-2.5392,-2.5354,-2.5266,-2.5307,-2.5318,-2.5315,-2.5183,-2.5109,-2.5067,-2.5203,-2.5095,-2.4932,-2.4745,-2.4791,-2.4785,-2.4733,-2.4669,-2.4411,-2.4296,-2.4182,-2.405,-2.3938,-2.3666,-2.3442,-2.3261,-2.3031,-2.2804,-2.2648,-2.2404,-2.2259,-2.2127,-2.1926,-2.174,-2.1574,-2.1525,-2.1478,-2.146,-2.138,-2.1238,-2.1265,-2.1369,-2.1501,-2.171,-2.2044,-2.2494,-2.2994,-2.3463,-2.3864,-2.4142,-2.4577,-2.4985,-2.5181,-2.5289,-2.5455,-2.5553,-2.5769,-2.6012,-2.6107,-2.6115,-2.6128,-2.6336,-2.6339,-2.6368,-2.6349,-2.6366,-2.6534,-2.6591,-2.6574,-2.651,-2.6471,-2.6511,-2.6451,-2.6459,-2.6351,-2.6352,-2.6269,-2.634,-2.6298,-2.619,-2.609,-2.6022,-2.6033,-2.5998,-2.5897,-2.584,-2.5886,-2.5897,-2.5906,-2.5861,-2.5805,-2.5844,-2.5938,-2.5886,-2.5766,-2.5793,-2.5802,-2.5936,-2.601,-2.5968,-2.5915,-2.5871,-2.5928,-2.5973,-2.5953,-2.5845,-2.5811,-2.5869,-2.5887,-2.5825,-2.5777,-2.5683,-2.5774,-2.5671,-2.563,-2.5583,-2.5513,-2.5413,-2.528,-2.5135,-2.4927,-2.4996,-2.5182,-2.5252,-2.5289,-2.5256,-2.5217,-2.5365,-2.5457,-2.5526,-2.5466,-2.5396,-2.5425,-2.5546,-2.5563,-2.5547,-2.5441,-2.5386,-2.5494,-2.5522,-2.548,-2.5416,-2.5397,-2.5529,-2.5624,-2.5493,-2.4458,-2.2793,-2.0945,-1.8658,-1.7911,-1.9939,-2.4288,-2.8778,-3.001,-2.854,-2.7927,-2.7213,-2.6468,-2.591,-2.5425,-2.5283,-2.5009,-2.5093,-2.5094,-2.5066,-2.4994,-2.4925,-2.4878,-2.4991,-2.4928,-2.4893,-2.4839,-2.4886,-2.4937,-2.4882,-2.4852,-2.4758,-2.4692,-2.4767,-2.4768,-2.4751,-2.4603,-2.4515,-2.4551,-2.4562,-2.4477,-2.4305,-2.4172,-2.4152,-2.4061,-2.3977,-2.3813,-2.369,-2.3589,-2.3429,-2.331,-2.3105,-2.2873,-2.2683,-2.2504,-2.2321,-2.2003,-2.1712,-2.1482,-2.14,-2.1205,-2.095,-2.0737,-2.0644,-2.0596,-2.0511,-2.0409,-2.0345,-2.04,-2.0547,-2.0643,-2.0842,-2.114,-2.1497,-2.2008,-2.2533,-2.3009,-2.3381,-2.3777,-2.4194,-2.4539,-2.4719,-2.4916,-2.5029,-2.5283,-2.5428,-2.5484,-2.5453,-2.5485,-2.5652,-2.5727,-2.575,-2.5739,-2.5712,-2.5789,-2.5852,-2.5881,-2.5857,-2.5825,-2.5816,-2.5888,-2.5876,-2.5848,-2.5744,-2.5759,-2.5792,-2.5773,-2.5696,-2.5602,-2.5582,-2.5659,-2.5651,-2.5591,-2.5506,-2.5534,-2.5562,-2.5566,-2.5467,-2.5421,-2.5405,-2.5504,-2.552,-2.5468,-2.5428,-2.5433,-2.5536,-2.5568,-2.5576,-2.5565,-2.5528,-2.5634,-2.5694,-2.5704,-2.5602,-2.556,-2.5633,-2.5698,-2.5726,-2.5669,-2.5596,-2.5577,-2.5668,-2.5646,-2.5609,-2.5542,-2.5521,-2.5634,-2.571,-2.5485,-2.5375,-2.5614,-2.5669,-2.5687,-2.5642,-2.5561,-2.5588,-2.5677,-2.5589,-2.5578,-2.555,-2.5443,-2.5442,-2.5597,-2.57,-2.5727,-2.5604,-2.561,-2.5689,-2.5628,-2.5559,-2.5541,-2.5581,-2.5614,-2.5622,-2.5536,-2.5547,-2.5479,-2.5579,-2.5537,-2.544,-2.5354,-2.5324,-2.5277,-2.5176,-2.4895,-2.4794,-2.5093,-2.5296,-2.5257,-2.5274,-2.5156,-2.5153,-2.543,-2.5662,-2.5649,-2.5602,-2.5655,-2.5795,-2.5819,-2.586,-2.5756,-2.5708,-2.5793,-2.5801,-2.5797,-2.577,-2.5694,-2.5877,-2.5952,-2.5878,-2.4549,-2.3703,-2.1725,-1.9393,-1.8025,-1.8868,-2.2469,-2.7222,-3.0843,-2.9673,-2.8148,-2.7399,-2.661,-2.6081,-2.5892,-2.566,-2.5518,-2.5522,-2.5638,-2.5634,-2.5491,-2.5428,-2.5428,-2.5473,-2.5521,-2.5443,-2.5351,-2.5367,-2.5422,-2.5426,-2.5363,-2.5293,-2.5286,-2.5361,-2.5337,-2.5261,-2.5132,-2.5039,-2.5032,-2.5013,-2.489,-2.474,-2.4667,-2.4574,-2.4517,-2.4444,-2.429,-2.4067,-2.3943,-2.3889,-2.3817,-2.3593,-2.3322,-2.3184,-2.3117,-2.2861,-2.2556,-2.2309,-2.2123,-2.1882,-2.1692,-2.1531,-2.1385,-2.1214,-2.1136,-2.1131,-2.0996,-2.0849,-2.0777,-2.0849,-2.0886,-2.1034,-2.1222,-2.1499,-2.1931,-2.2427,-2.279,-2.3193,-2.356,-2.4076,-2.4445,-2.4802,-2.4897,-2.5049,-2.5273,-2.5512,-2.5606,-2.5647,-2.5657,-2.5813,-2.599,-2.5993,-2.6002,-2.5943,-2.5961,-2.6013,-2.6102,-2.6062,-2.5967,-2.5975,-2.6096,-2.6113,-2.6098,-2.6062,-2.6019,-2.607,-2.6108,-2.6065,-2.5992,-2.5921,-2.5975,-2.599,-2.5942,-2.5871,-2.5822,-2.5904,-2.5942,-2.587,-2.5779,-2.5737,-2.5788,-2.5786,-2.5801,-2.5787,-2.5719,-2.5769,-2.5837,-2.5879,-2.5832,-2.5763,-2.5813,-2.5897,-2.5919,-2.5833,-2.5801,-2.5836,-2.593,-2.5939,-2.5872,-2.5815,-2.5827,-2.5911,-2.5921,-2.5875,-2.5853,-2.5809,-2.592,-2.5966,-2.5937,-2.5845,-2.5843,-2.5893,-2.5928,-2.5875,-2.5853,-2.5846,-2.5884,-2.5943,-2.5905,-2.5837,-2.5806,-2.5837,-2.5896,-2.5878,-2.5841,-2.5788,-2.5832,-2.5878,-2.5912,-2.5838,-2.5757,-2.58,-2.5855,-2.587,-2.5858,-2.5768,-2.5777,-2.5855,-2.5866,-2.5783,-2.5715,-2.5741,-2.5832,-2.5843,-2.5793,-2.5723,-2.5696,-2.5756,-2.5837,-2.5751,-2.5651,-2.5656,-2.5747,-2.5809,-2.578,-2.5765,-2.5717,-2.5829,-2.5892,-2.5884,-2.5826,-2.576,-2.5871,-2.5902,-2.5937,-2.588,-2.5812,-2.5879,-2.5936,-2.594,-2.5873,-2.5817,-2.5779,-2.5884,-2.5745,-2.5662,-2.5683,-2.5596,-2.5529,-2.5473,-2.5229,-2.5272,-2.5517,-2.5569,-2.5586,-2.5607,-2.5591,-2.5659,-2.5827,-2.601,-2.6053,-2.6008,-2.6073,-2.6107,-2.617,-2.6133,-2.6089,-2.6065,-2.6217,-2.6251,-2.6174,-2.6187,-2.6235,-2.635,-2.6351,-2.559,-2.3879,-2.1715,-1.9537,-1.8886,-2.0231,-2.3861,-2.8475,-3.1192,-2.9799,-2.8419,-2.7825,-2.6848,-2.6437,-2.6283,-2.6223,-2.6101,-2.6099,-2.604,-2.6128,-2.6107,-2.6084,-2.5981,-2.5968,-2.6047,-2.6047,-2.5981,-2.6001,-2.5902,-2.5968,-2.6019,-2.6037,-2.594,-2.59,-2.5872,-2.5921,-2.5741,-2.5655,-2.5603,-2.5624,-2.5528,-2.5393,-2.5248,-2.5161,-2.5056,-2.4969,-2.4805,-2.4635,-2.4461,-2.4298,-2.4323,-2.4155,-2.3961,-2.3694,-2.3547,-2.3453,-2.3265,-2.2995,-2.2706,-2.2577,-2.252,-2.251,-2.2257,-2.2098,-2.2078,-2.1998,-2.1996,-2.1841,-2.1697,-2.1593,-2.1685,-2.1794,-2.1912,-2.2006,-2.2281,-2.2716,-2.3092,-2.3486,-2.3836,-2.3936,-2.4373,-2.4805,-2.5127,-2.5385,-2.5608,-2.5791,-2.6044,-2.6187,-2.6215,-2.6264,-2.6349,-2.6525,-2.6597,-2.6579,-2.6532,-2.6627,-2.6724,-2.6717,-2.6773,-2.6741,-2.6744,-2.6758,-2.6822,-2.6671,-2.6584,-2.6561,-2.6664,-2.6618,-2.6547,-2.6479,-2.6351,-2.6388,-2.6442,-2.6395,-2.6183,-2.6098,-2.6191,-2.6199,-2.6128,-2.6065,-2.6001,-2.6018,-2.6055,-2.6073,-2.5972,-2.5974,-2.5956,-2.6105,-2.6136,-2.6046,-2.6048,-2.6152,-2.6104,-2.6184,-2.6095,-2.5994,-2.6076,-2.6129,-2.6205,-2.617,-2.6061,-2.6,-2.6081,-2.6017,-2.6133,-2.6099,-2.5962,-2.6009,-2.6037,-2.6067,-2.5903,-2.5903,-2.5993,-2.6017,-2.5966,-2.588,-2.5839,-2.5868,-2.5927,-2.5963,-2.59,-2.5804,-2.5773,-2.5875,-2.597,-2.5855,-2.5806,-2.5757,-2.5853,-2.5947,-2.5842,-2.5807,-2.5782,-2.5784,-2.5738,-2.5704,-2.5621,-2.5646,-2.5732,-2.5625,-2.5554,-2.5328,-2.52,-2.5192,-2.5273,-2.553,-2.5315,-2.5303,-2.541,-2.5619,-2.5684,-2.5701,-2.5683,-2.5822,-2.5823,-2.5765,-2.5656,-2.5643,-2.5783,-2.5795,-2.5832,-2.5702,-2.5651,-2.5649,-2.5781,-2.5843,-2.5836,-2.56,-2.4438,-2.2798,-2.0992,-1.8989,-1.8768,-2.1032,-2.4991,-2.8777,-2.9055,-2.7818,-2.7331,-2.6918,-2.6742,-2.6164,-2.5759,-2.5554,-2.5442,-2.5462,-2.5409,-2.5275,-2.5185,-2.5238,-2.5255,-2.5195,-2.5099,-2.5063,-2.5178,-2.518,-2.5074,-2.5061,-2.5007,-2.5016,-2.5079,-2.506,-2.4992,-2.4856,-2.4834,-2.4829,-2.4826,-2.4691,-2.4624,-2.46,-2.4618,-2.4539,-2.4337,-2.4152,-2.4042,-2.4005,-2.3942,-2.3742,-2.3494,-2.3297,-2.3299,-2.3146,-2.2939,-2.27,-2.2477,-2.2315,-2.2136,-2.1894,-2.1625,-2.1444,-2.1383,-2.1285,-2.1123,-2.1002,-2.0913,-2.0885,-2.0896,-2.0908,-2.0861,-2.1017,-2.1139,-2.1492,-2.1892,-2.2162,-2.2486,-2.2975,-2.3427,-2.3787,-2.4062,-2.4279,-2.4566,-2.4882,-2.5061,-2.5118,-2.5143,-2.5266,-2.5387,-2.5462,-2.5562,-2.5464,-2.5454,-2.5548,-2.5608,-2.5566,-2.5524,-2.5444,-2.55,-2.5622,-2.5577,-2.547,-2.5355,-2.5432,-2.5448,-2.5368,-2.5211,-2.5178,-2.5149,-2.5137,-2.5049,-2.4903,-2.4862,-2.4867,-2.4989,-2.4972,-2.4918,-2.4808,-2.4845,-2.4883,-2.4852,-2.4847,-2.4852,-2.484,-2.4904,-2.5003,-2.5001,-2.4999,-2.4985,-2.5101,-2.5156,-2.5062,-2.5028,-2.4989,-2.5061,-2.5113,-2.5066,-2.5003,-2.4968,-2.5004,-2.5044,-2.5013,-2.5023,-2.4924,-2.5051,-2.5048,-2.4961,-2.4845,-2.4744,-2.4809,-2.4775,-2.4824,-2.4687,-2.4622,-2.4484,-2.4399,-2.4199,-2.4197,-2.4284,-2.4376,-2.4436,-2.4414,-2.4361,-2.4481,-2.4589,-2.4739,-2.476,-2.4735,-2.4683,-2.4713,-2.4795,-2.4816,-2.4785,-2.4709,-2.4665,-2.4689,-2.4744,-2.4735,-2.4699,-2.4705,-2.4877,-2.481,-2.3907,-2.2163,-2.0204,-1.7994,-1.7013,-1.8577,-2.2501,-2.6716,-2.8723,-2.7736,-2.6811,-2.6532,-2.5774,-2.5191,-2.4803,-2.4705,-2.447,-2.4343,-2.4299,-2.4381,-2.4333,-2.4223,-2.412,-2.4136,-2.4224,-2.4269,-2.4215,-2.4145,-2.4146,-2.4189,-2.4184,-2.4082,-2.4042,-2.4011,-2.4023,-2.4059,-2.3949,-2.3924,-2.3884,-2.3848,-2.3844,-2.3789,-2.3616,-2.3522,-2.3497,-2.3461,-2.3354,-2.3137,-2.303,-2.2891,-2.28,-2.26,-2.2497,-2.2207,-2.2045,-2.1877,-2.1635,-2.1366,-2.1067,-2.0875,-2.0774,-2.0623,-2.0404,-2.0248,-2.0186,-2.0114,-2.0026,-1.9883,-1.9839,-1.9969,-2.0155,-2.0401,-2.0509,-2.0796,-2.1139,-2.1589,-2.208,-2.2482,-2.2839,-2.3237,-2.3699,-2.404,-2.4224,-2.4319,-2.4466,-2.462,-2.4719,-2.4781,-2.484,-2.4848,-2.4972,-2.5129,-2.5138,-2.511,-2.5064,-2.5077,-2.5164,-2.5181,-2.5133,-2.5037,-2.5109,-2.519,-2.5164,-2.5143,-2.5048,-2.4958,-2.5035,-2.4964,-2.4866,-2.4846,-2.4845,-2.4889,-2.4869,-2.4778,-2.4695,-2.4638,-2.4692,-2.4692,-2.4698,-2.4637,-2.4566,-2.4667,-2.4759,-2.4761,-2.4705,-2.4614,-2.4778,-2.4846,-2.4826,-2.4799,-2.4796,-2.4904,-2.492,-2.4983,-2.4966,-2.4954,-2.4985,-2.509,-2.5138,-2.5141,-2.5077,-2.5174,-2.5246,-2.5311,-2.5292,-2.5228,-2.5234,-2.5313,-2.5327,-2.5258,-2.5227,-2.5221,-2.5297,-2.5362,-2.5248,-2.5255,-2.524,-2.5271,-2.534,-2.5334,-2.5279,-2.5239,-2.5342,-2.5353,-2.533,-2.5225,-2.5201,-2.5246,-2.5292,-2.5221,-2.5218,-2.5195,-2.5307,-2.5313,-2.5255,-2.5235,-2.5128,-2.5098,-2.5144,-2.5237,-2.5125,-2.5063,-2.5085,-2.513,-2.5137,-2.5097,-2.5027,-2.5071,-2.5096,-2.5095,-2.5015,-2.4893,-2.4949,-2.4986,-2.5035,-2.4975,-2.4848,-2.4718,-2.4788,-2.4794,-2.4739,-2.4697,-2.4701,-2.471,-2.4617,-2.4505,-2.4354,-2.448,-2.469,-2.4699,-2.4735,-2.4756,-2.4792,-2.4862,-2.5019,-2.5164,-2.515,-2.5217,-2.5218,-2.5318,-2.5376,-2.5335,-2.5309,-2.533,-2.5423,-2.5452,-2.5407,-2.5413,-2.5556,-2.5689,-2.535,-2.385,-2.1958,-2.0894,-1.8642,-1.7942,-1.948,-2.329,-2.7837,-2.9985,-2.8577,-2.7297,-2.674,-2.5844,-2.5597,-2.5389,-2.5355,-2.5226,-2.5296,-2.5287,-2.5438,-2.5289,-2.5228,-2.5081,-2.5153,-2.5114,-2.5052,-2.4831,-2.4845,-2.4772,-2.4853,-2.478,-2.4783,-2.4663,-2.4704,-2.4723,-2.4754,-2.4609,-2.4496,-2.4401,-2.4481,-2.4407,-2.4297,-2.4212,-2.4112,-2.4036,-2.3989,-2.3798,-2.3664,-2.3447,-2.3391,-2.3289,-2.3033,-2.2757,-2.2573,-2.2435,-2.2284,-2.2047,-2.1775,-2.1537,-2.1369,-2.1243,-2.1042,-2.0812,-2.0658,-2.0581,-2.0504,-2.0401,-2.0199,-2.0142,-2.0111,-2.0233,-2.0348,-2.0442,-2.0481,-2.0765,-2.1227,-2.162,-2.198,-2.2322,-2.2692,-2.319,-2.3491,-2.3744,-2.3765,-2.3996,-2.4206,-2.4392,-2.4509,-2.4601,-2.4579,-2.4735,-2.4796,-2.4871,-2.4873,-2.4836,-2.4906,-2.4983,-2.4906,-2.481,-2.4828,-2.4956,-2.4941,-2.4842,-2.4829,-2.479,-2.4801,-2.4832,-2.4749,-2.4718,-2.4639,-2.4666,-2.4668,-2.4661,-2.4571,-2.4475,-2.4476,-2.4555,-2.4501,-2.4438,-2.4361,-2.4295,-2.4349,-2.4415,-2.4362,-2.4344,-2.4269,-2.4317,-2.4425,-2.4359,-2.4318,-2.4302,-2.4411,-2.4516,-2.4479,-2.4388,-2.4385,-2.4504,-2.455,-2.4551,-2.4473,-2.4443,-2.4477,-2.4535,-2.4533,-2.4492,-2.4426,-2.4415,-2.45,-2.4497,-2.4454,-2.437,-2.4356,-2.4424,-2.4455,-2.4367,-2.4305,-2.4339,-2.4408,-2.4421,-2.4386,-2.4335,-2.4348,-2.4464,-2.4443,-2.44,-2.4408,-2.4355,-2.4389,-2.4393,-2.4426,-2.4373,-2.4346,-2.4421,-2.4464,-2.4449,-2.4362,-2.4342,-2.4416,-2.4502,-2.4412,-2.4356,-2.4317,-2.4387,-2.4426,-2.4415,-2.4322,-2.4307,-2.4324,-2.4371,-2.4376,-2.4313,-2.4283,-2.426,-2.4375,-2.4337,-2.4252,-2.4205,-2.4224,-2.4312,-2.4354,-2.4229,-2.4194,-2.4189,-2.4258,-2.4246,-2.4267,-2.4138,-2.4039,-2.4099,-2.4094,-2.4037,-2.3999,-2.3844,-2.3735,-2.3666,-2.3526,-2.3588,-2.3678,-2.3721,-2.3774,-2.3717,-2.375,-2.3853,-2.3982,-2.4045,-2.4118,-2.4073,-2.3985,-2.3994,-2.4109,-2.4111,-2.4004,-2.3915,-2.3937,-2.3983,-2.4023,-2.4029,-2.4044,-2.4124,-2.3739,-2.2221,-2.0111,-1.7894,-1.6361,-1.6478,-1.8416,-2.2554,-2.7129,-2.8552,-2.6982,-2.5858,-2.5282,-2.4397,-2.3945,-2.3852,-2.3742,-2.3685,-2.3644,-2.358,-2.3657,-2.3668,-2.3538,-2.3398,-2.3346,-2.3345,-2.3446,-2.342,-2.3365,-2.3342,-2.3333,-2.3336,-2.335,-2.3282,-2.3151,-2.3128,-2.3189,-2.3096,-2.3063,-2.2907,-2.2885,-2.2816,-2.2757,-2.2626,-2.2466,-2.2407,-2.2377,-2.2315,-2.2171,-2.1913,-2.1776,-2.1715,-2.159,-2.1377,-2.1101,-2.0834,-2.0689,-2.055,-2.0289,-2.0009,-1.9774,-1.9664,-1.9531,-1.9342,-1.908,-1.8994,-1.8975,-1.9003,-1.8942,-1.887,-1.8739,-1.8878,-1.9046,-1.9184,-1.9408,-1.971,-2.0126,-2.0606,-2.1023,-2.1399,-2.1734,-2.2226,-2.2623,-2.2915,-2.305,-2.3266,-2.3385,-2.3593,-2.3813,-2.3858,-2.3874,-2.3866,-2.4064,-2.4206,-2.4209,-2.4219,-2.4198,-2.4214,-2.4338,-2.4257,-2.4189,-2.4121,-2.4268,-2.4224,-2.4214,-2.4199,-2.4075,-2.4081,-2.4141,-2.4099,-2.4083,-2.4037,-2.4096,-2.4129,-2.4065,-2.3956,-2.388,-2.3892,-2.3975,-2.3929,-2.38,-2.3796,-2.3805,-2.3946,-2.3917,-2.3918,-2.3859,-2.3835,-2.3993,-2.4077,-2.4039,-2.406,-2.4041,-2.4161,-2.4244,-2.4309,-2.4277,-2.4251,-2.4271,-2.4398,-2.4352,-2.4375,-2.4341,-2.4401,-2.4447,-2.4405,-2.4351,-2.431,-2.4296,-2.4427,-2.4372,-2.435,-2.4323,-2.4324,-2.4379,-2.4334,-2.4296,-2.4223,-2.4258,-2.4366,-2.4361,-2.4318,-2.4222,-2.4238,-2.4375,-2.4357,-2.4346,-2.4296,-2.4278,-2.4347,-2.4309,-2.4294,-2.4253,-2.4261,-2.4351,-2.4377,-2.4343,-2.4353,-2.4437,-2.4467,-2.4499,-2.4511,-2.4472,-2.438,-2.445,-2.4474,-2.4477,-2.4509,-2.4498,-2.4432,-2.4459,-2.4501,-2.4505,-2.4391,-2.4392,-2.4469,-2.4423,-2.4296,-2.3996,-2.4035,-2.4053,-2.3994,-2.3921,-2.3716,-2.3549,-2.3512,-2.3329,-2.3281,-2.3365,-2.3434,-2.3388,-2.3422,-2.334,-2.3298,-2.331,-2.3457,-2.3573,-2.3449,-2.3411,-2.3331,-2.3471,-2.3475,-2.3458,-2.3317,-2.3275,-2.3345,-2.3377,-2.3297,-2.3225,-2.3146,-2.3195,-2.2808,-2.1358,-1.9476,-1.7443,-1.5787,-1.6341,-1.896,-2.2872,-2.646,-2.5856,-2.4734,-2.445,-2.385,-2.3345,-2.285,-2.285,-2.2727,-2.2662,-2.2402,-2.2466,-2.2441,-2.2524,-2.2383,-2.2419,-2.2339,-2.2424,-2.235,-2.2383,-2.2302,-2.2321,-2.2415,-2.2533,-2.2453,-2.2371,-2.2335,-2.2454,-2.244,-2.2454,-2.2326,-2.2156,-2.2142,-2.2163,-2.211,-2.2022,-2.1804,-2.1774,-2.1742,-2.1634,-2.1514,-2.1347,-2.12,-2.1163,-2.1019,-2.0863,-2.0571,-2.0384,-2.0325,-2.0134,-1.9912,-1.9586,-1.9423,-1.9374,-1.9251,-1.9117,-1.896,-1.8874,-1.891,-1.8849,-1.879,-1.8662,-1.8707,-1.8797,-1.8957,-1.9046,-1.9291,-1.9656,-1.9896,-2.0265,-2.0777,-2.1079,-2.1406,-2.1726,-2.2193,-2.243,-2.2639,-2.2711,-2.2977,-2.3165,-2.3242,-2.3274,-2.3321,-2.3399,-2.3542,-2.3519,-2.351,-2.3475,-2.3527,-2.3592,-2.3679,-2.3611,-2.3563,-2.3475,-2.3561,-2.3583,-2.355,-2.3404,-2.3421,-2.3476,-2.3497,-2.3419,-2.3283,-2.3222,-2.3257,-2.3312,-2.3279,-2.316,-2.3152,-2.3172,-2.3266,-2.3288,-2.3248,-2.3191,-2.3218,-2.3338,-2.3416,-2.3375,-2.336,-2.3395,-2.3519,-2.3532,-2.3535,-2.3506,-2.3497,-2.3593,-2.3598,-2.3514,-2.348,-2.3518,-2.3601,-2.3656,-2.3573,-2.353,-2.3476,-2.3537,-2.3594,-2.3503,-2.3399,-2.3395,-2.3452,-2.3492,-2.3391,-2.3157,-2.2979,-2.2901,-2.2833,-2.2961,-2.2995,-2.2977,-2.2956,-2.3079,-2.3088,-2.3127,-2.32,-2.3305,-2.3399,-2.338,-2.3372,-2.3295,-2.3279,-2.3391,-2.3349,-2.3235,-2.3094,-2.3147,-2.3286,-2.3261,-2.3231,-2.3209,-2.3268,-2.3227,-2.2329,-2.059,-1.8618,-1.6304,-1.5512,-1.7358,-2.1459,-2.5668,-2.7355,-2.6294,-2.5447,-2.4789,-2.3976,-2.3458,-2.3159,-2.3124,-2.2895,-2.2915,-2.2779,-2.2809,-2.285,-2.2859,-2.2737,-2.2724,-2.2733,-2.2823,-2.2801
