3.4342,3.4379,3.3996,3.3153,3.2743,3.2327,3.2805,3.2484,3.1529,3.1271,3.1534,3.1637,3.119,3.0675,3.062,3.0899,3.074,2.9944,3.0459,3.0653,3.0844,2.9892,3.0104,3.0308,3.0493,3.0799,3.0315,3.0188,3.0324,3.065,3.09,3.0443,3.0147,3.0408,3.0319,3.0295,3.1007,3.0917,3.0678,3.0586,3.0351,3.0345,3.0644,3.0783,3.0937,3.0413,2.9877,3.0473,3.0891,3.1206,3.0327,2.9934,3.0453,3.0538,3.0379,3.0451,3.0454,3.0725,3.0447,3.0622,3.0739,3.0511,3.0457,3.091,3.0181,3.0012,3.0416,3.0619,3.098,3.1087,3.1208,3.0584,3.0617,3.0574,3.1235,3.1274,3.1168,3.1377,3.1955,3.1471,3.0634,3.1352,3.0622,3.0517,3.0596,3.0321,3.0554,3.0275,3.0422,3.0289,2.9667,3.0374,3.042,2.9915,2.9676,3.0096,3.0033,2.9995,2.9568,2.9595,3.0373,2.9891,2.9935,3.1407,3.3653,3.5623,3.7179,3.6656,3.5617,3.1558,2.7295,2.4694,2.5614,2.7379,2.7868,2.8665,2.951,2.9791,3.0089,3.0262,3.002,3.0415,3.0781,3.0922,3.061,3.055,3.0207,3.0541,3.0689,3.1123,3.1298,3.1128,3.1083,3.1184,3.0832,3.0788,3.1011,3.1439,3.204,3.1871,3.1717,3.1222,3.1106,3.1415,3.1531,3.195,3.1829,3.2102,3.2315,3.2282,3.222,3.2335,3.2527,3.2957,3.3453,3.2911,3.3947,3.4316,3.361,3.3891,3.3982,3.4063,3.4417,3.4475,3.485,3.5381,3.5217,3.5057,3.4935,3.4698,3.5201,3.5433,3.5297,3.4899,3.4621,3.4578,3.4078,3.3865,3.3598,3.3248,3.2909,3.2327,3.1739,3.1461,3.117,3.1379,3.1216,3.0603,3.0434,3.0179,3.037,3.0528,3.0038,2.9798,3.007,3.0173,3.0678,3.0484,3.0208,3.0478,3.0313,2.9858,3.0193,3.0665,2.9996,2.9996,3.0341,3.07,3.0588,3.0252,3.0418,3.0665,3.027,3.0653,3.1121,3.0091,3.0994,3.0531,3.0011,3.0356,3.0438,3.0666,3.067,3.068,3.0613,3.1113,3.0577,3.0312,3.0658,3.1079,3.0771,3.0335,3.0298,3.0497,3.0417,3.0845,3.0886,3.0486,3.0589,3.0848,3.0493,3.0106,3.0275,3.0686,3.1196,3.0766,3.033,3.0126,3.0253,3.0586,3.0818,3.1016,3.031,3.0764,3.1106,3.124,3.106,3.1355,3.157,3.1668,3.1911,3.2363,3.1846,3.1602,3.1183,3.14,3.1048,3.1185,3.1226,3.1049,3.0856,3.1232,3.1067,3.0766,3.0673,3.0833,3.0847,3.0955,3.1509,3.1104,3.0972,3.0848,3.0852,3.0925,3.1308,3.1182,3.0922,3.2486,3.4665,3.5701,3.7389,3.7676,3.6504,3.2396,2.896,2.6966,2.8059,2.9095,2.9591,2.9876,3.073,3.1017,3.104,3.1073,3.1338,3.1522,3.1573,3.1692,3.1727,3.1733,3.1489,3.1992,3.2332,3.1937,3.16,3.1746,3.1593,3.173,3.2087,3.2058,3.1441,3.1809,3.1938,3.2094,3.1795,3.2183,3.2464,3.2154,3.2286,3.2427,3.2301,3.2768,3.2612,3.2785,3.2998,3.2962,3.3248,3.3334,3.3296,3.3423,3.3795,3.3611,3.3854,3.4298,3.4608,3.4766,3.4973,3.4625,3.4912,3.4879,3.5098,3.5076,3.5104,3.5463,3.5631,3.5664,3.5646,3.519,3.4947,3.505,3.478,3.4707,3.4367,3.3116,3.3252,3.3036,3.289,3.2855,3.2422,3.2278,3.1662,3.1427,3.1417,3.1361,3.1184,3.1365,3.1248,3.1102,3.1603,3.117,3.0821,3.0946,3.0971,3.0828,3.09,3.0982,3.0997,3.1187,3.1283,3.1303,3.1197,3.1438,3.137,3.1391,3.1557,3.2028,3.1714,3.1009,3.1151,3.1647,3.1546,3.1426,3.1455,3.1726,3.2106,3.2158,3.1493,3.1379,3.1847,3.1621,3.1424,3.1871,3.2053,3.1249,3.1129,3.1553,3.1587,3.176,3.1875,3.1637,3.1589,3.1828,3.1664,3.1739,3.154,3.1851,3.1883,3.1973,3.2233,3.2345,3.2502,3.2623,3.299,3.281,3.2338,3.2402,3.2332,3.2006,3.1387,3.1701,3.186,3.1424,3.1473,3.189,3.1795,3.1947,3.1606,3.1309,3.1751,3.1518,3.1503,3.1464,3.1675,3.141,3.1636,3.1881,3.1542,3.1784,3.2421,3.409,3.6177,3.7881,3.8672,3.7539,3.3354,2.9693,2.7366,2.8373,2.9468,2.9581,3.0194,3.0654,3.1674,3.1984,3.2073,3.1541,3.1833,3.1992,3.2086,3.2139,3.2277,3.195,3.2114,3.2176,3.2396,3.2602,3.2791,3.2466,3.2217,3.2409,3.2493,3.2563,3.2633,3.223,3.2318,3.2378,3.2695,3.2667,3.2466,3.2439,3.2619,3.2958,3.3135,3.3061,3.2718,3.2844,3.3174,3.3288,3.3547,3.385,3.396,3.428,3.4185,3.4042,3.4374,3.4767,3.4873,3.5025,3.5306,3.5479,3.5432,3.5632,3.5512,3.5592,3.5515,3.5618,3.5788,3.5535,3.5348,3.5291,3.5297,3.513,3.4379,3.4343,3.3821,3.3293,3.2785,3.257,3.2462,3.2023,3.2097,3.1573,3.117,3.1301,3.1318,3.1111,3.1195,3.146,3.1126,3.0608,3.0706,3.1178,3.1162,3.1082,3.1143,3.1168,3.0649,3.0903,3.0964,3.09,3.1208,3.1177,3.1236,3.1315,3.1222,3.1605,3.1745,3.1408,3.1325,3.0952,3.1213,3.1257,3.1385,3.1719,3.1684,3.1559,3.163,3.1476,3.1371,3.145,3.189,3.1658,3.1565,3.1395,3.1586,3.1249,3.1726,3.1508,3.1341,3.1423,3.1297,3.1366,3.1175,3.1477,3.1483,3.1482,3.126,3.1476,3.1642,3.1534,3.1174,3.1096,3.1339,3.1426,3.1549,3.1766,3.1801,3.1684,3.1509,3.1652,3.2107,3.2296,3.2126,3.2263,3.2308,3.2045,3.1685,3.1968,3.207,3.1315,3.1082,3.1385,3.1217,3.1151,3.1191,3.0944,3.0725,3.0805,3.1047,3.1081,3.11,3.1284,3.1223,3.1255,3.0994,3.1071,3.1104,3.1033,3.0724,3.2581,3.4303,3.629,3.7995,3.7582,3.5048,3.0497,2.6263,2.6132,2.7522,2.8736,2.9185,2.9526,3.0184,3.0705,3.1099,3.0967,3.097,3.1228,3.1475,3.134,3.0794,3.0965,3.1163,3.1006,3.1404,3.1328,3.1396,3.1555,3.1543,3.132,3.1191,3.1246,3.1395,3.1429,3.1562,3.178,3.1548,3.1566,3.1686,3.1703,3.1778,3.1814,3.1995,3.1974,3.2086,3.2199,3.232,3.2404,3.2591,3.3084,3.3425,3.3337,3.3278,3.3372,3.4009,3.3529,3.3908,3.4553,3.472,3.4578,3.4582,3.5003,3.5036,3.5055,3.5221,3.5367,3.5487,3.552,3.5292,3.4891,3.515,3.5236,3.455,3.3923,3.3603,3.2842,3.2894,3.2237,3.1872,3.1719,3.1321,3.1109,3.1206,3.1114,3.0462,3.0518,3.0569,3.0439,3.0631,3.0829,3.0488,3.0284,3.0209,3.014,3.0012,3.0303,3.0113,2.9995,3.0489,3.0402,3.0111,3.012,3.1061,3.083,2.9932,3.0092,3.049,3.0061,3.0401,3.0764,3.0251,3.0113,3.0144,3.0442,3.081,3.0662,3.0811,3.0514,3.0266,3.0591,3.0809,3.0757,3.0318,3.0276,3.0126,3.0312,3.0496,3.0908,3.0454,3.0298,3.07,3.0547,3.0793,3.0568,3.0192,3.0199,3.034,3.0444,3.0427,3.0362,3.0391,3.043,3.0775,3.0755,3.0183,3.0351,3.0314,3.0537,3.0611,3.0483,3.0173,3.0382,3.0491,3.0348,3.0675,3.0427,3.0277,3.027,3.0468,3.0802,3.1207,3.0934,3.0752,3.0781,3.0936,3.1679,3.2009,3.1246,3.127,3.1096,3.1499,3.1065,3.0819,3.0828,3.0713,3.0709,3.0526,3.0594,3.035,3.0371,3.072,3.0574,2.9926,3.0396,3.0638,3.0834,3.0597,3.0304,3.0271,3.0175,3.0229,3.0322,3.0428,3.1279,3.2806,3.4883,3.7183,3.8023,3.6436,3.2776,2.8291,2.4726,2.6033,2.7882,2.8121,2.9383,2.9862,3.0288,3.0342,3.0714,3.1085,3.1303,3.0866,3.0505,3.0696,3.1136,3.125,3.1153,3.1108,3.1634,3.1439,3.1129,3.1285,3.1936,3.156,3.1537,3.1285,3.1101,3.1543,3.1833,3.1705,3.1717,3.1674,3.1562,3.1749,3.1721,3.1926,3.2305,3.228,3.2101,3.2188,3.2409,3.2543,3.2752,3.2951,3.295,3.3487,3.4144,3.3959,3.3692,3.3816,3.4071,3.4195,3.4619,3.4496,3.4245,3.435,3.451,3.5058,3.515,3.4704,3.4759,3.5097,3.4789,3.479,3.4728,3.4154,3.3934,3.3797,3.3189,3.2673,3.2673,3.2727,3.2264,3.1402,3.1123,3.1142,3.0753,3.0624,3.0493,3.0333,3.0251,3.0343,3.0156,3.0431,3.0583,3.0122,2.9704,2.9737,2.9836,3.0232,3.0066,2.9852,2.9913,3.002,3.002,3.0361,2.9926,2.987,3.0016,3,3.0064,3.0427,3.0226,2.9823,3.0152,3.0358,3.046,3.046,3.0551,3.0313,2.9936,3.0157,3.0405,3.054,3.049,3.045,3.1091,3.0543,2.9841,2.9971,2.9968,3.0258,3.0212,3.0486,3.0848,3.0533,3.0445,3.0355,2.995,3.0288,3.0471,3.0439,3.032,3.0115,3.0622,3.0766,3.0155,3.0313,3.0515,3.0726,3.0864,3.0643,3.0722,3.073,3.0768,3.1027,3.1062,3.1419,3.1516,3.1127,3.1415,3.1507,3.1574,3.1811,3.1087,3.0715,3.0778,3.0668,3.0562,3.0459,3.0524,3.0662,3.0938,3.0327,3.0239,3.0611,3.0509,3.0263,3.0257,3.021,3.0497,3.0897,3.0777,3.0244,3.0081,3.0322,3.1291,3.2864,3.4879,3.6902,3.7394,3.556,3.1941,2.835,2.6202,2.7302,2.8582,2.8883,2.9065,2.9846,3.052,3.0385,3.0618,3.0689,3.126,3.1074,3.0791,3.094,3.133,3.1511,3.1218,3.0997,3.0992,3.1198,3.1277,3.1433,3.157,3.1185,3.0963,3.1184,3.1414,3.1542,3.1412,3.1322,3.1824,3.2084,3.2092,3.1762,3.1708,3.1907,3.1981,3.2265,3.2396,3.1999,3.2218,3.2715,3.2743,3.2996,3.3282,3.3225,3.3496,3.3764,3.3863,3.4091,3.4107,3.3961,3.4166,3.4647,3.4522,3.4425,3.4389,3.4751,3.5,3.4919,3.4957,3.4951,3.4809,3.4527,3.4601,3.4435,3.4096,3.3756,3.3286,3.303,3.2651,3.2467,3.2152,3.2031,3.1542,3.1264,3.1303,3.114,3.1032,3.0974,3.048,3.0619,3.1112,3.1188,3.0632,3.0219,3.0706,3.0925,3.0567,3.0448,3.068,3.0727,3.0662,3.0789,3.1052,3.0998,3.1159,3.102,3.1344,3.0991,3.1173,3.1006,3.1002,3.1192,3.1168,3.0939,3.1471,3.1468,3.1168,3.113,3.153,3.1291,3.1308,3.113,3.0981,3.0942,3.1146,3.1207,3.0979,3.1223,3.0792,3.0857,3.1014,3.1336,3.1179,3.0866,3.1089,3.1263,3.1445,3.1719,3.1676,3.1777,3.1546,3.1599,3.1874,3.229,3.2087,3.2112,3.1851,3.1685,3.1821,3.1447,3.1396,3.1293,3.1025,3.1198,3.1111,3.1091,3.1083,3.1053,3.1021,3.1133,3.104,3.1145,3.1078,3.1175,3.1016,3.0838,3.0792,3.0922,3.0887,3.1072,3.2147,3.3554,3.5381,3.7375,3.7964,3.637,3.2121,3.0169,2.7241,2.7625,2.8258,2.8837,2.975,3.0131,3.066,3.0709,3.1275,3.1156,3.1334,3.1041,3.1265,3.1188,3.1405,3.1335,3.1913,3.1585,3.1778,3.1663,3.1593,3.1603,3.1592,3.156,3.1736,3.1579,3.1907,3.1883,3.1623,3.1393,3.1675,3.1531,3.1825,3.1884,3.2127,3.2065,3.2103,3.2008,3.231,3.2461,3.2522,3.2785,3.2624,3.2913,3.3243,3.336,3.3467,3.3593,3.3596,3.3944,3.3998,3.4247,3.4354,3.4662,3.4662,3.4615,3.4544,3.4557,3.4762,3.4721,3.4786,3.4801,3.4948,3.4474,3.4216,3.3967,3.3711,3.3373,3.2585,3.2133,3.1791,3.1511,3.1392,3.1029,3.0489,3.0579,3.0481,3.0245,3.0168,3.0234,3.0184,3.0154,3.019,3.0487,3.0155,2.9542,2.9558,2.9913,3.0184,3.0044,2.9856,3.0239,3.0247,2.9883,2.9831,3.0033,3.0138,3.0155,3.0294,3.0296,3.0226,3.0234,3.064,3.0941,3.0356,3.0109,3.0084,3.0193,3.0618,3.0763,3.0221,3.0504,3.0205,3.0301,3.0469,3.0189,3.0385,3.0358,3.0691,3.0378,3.0177,3.0145,3.0194,3.0194,3.0306,3.0502,3.0355,2.9975,2.9969,3.0204,3.0136,3.0397,3.0329,3.0201,3.04,3.0958,3.0586,3.0623,3.0649,3.0611,3.0694,3.1265,3.1484,3.1417,3.1334,3.0955,3.0637,3.0616,3.0755,3.0307,3.0248,3.0366,3.0348,3.0101,3.0512,3.0221,2.9868,3.01,3.0004,3.0005,3.0114,3.0153,3.0104,3.0092,3.009,3.0033,3.0202,3.0028,2.9956,3.05,3.2097,3.3952,3.6017,3.7265,3.6144,3.4824,2.859,2.4653,2.576,2.7097,2.7812,2.8051,2.8911,2.9435,2.9967,3.0137,3.0467,3.0186,3.0275,3.0362,3.0552,3.0376,3.041,3.0474,3.0746,3.0798,3.0605,3.024,3.0237,3.0415,3.0551,3.0523,3.0664,3.0628,3.0546,3.0591,3.0751,3.0784,3.0931,3.0949,3.0882,3.0814,3.1129,3.1231,3.1282,3.1326,3.1705,3.1852,3.1364,3.1365,3.15,3.1911,3.2219,3.253,3.2508,3.262,3.2874,3.3047,3.371,3.3498,3.3674,3.3409,3.3606,3.365,3.4016,3.4258,3.3968,3.3869,3.3606,3.3467,3.3764,3.3671,3.3239,3.2701,3.2425,3.1979,3.1499,3.14,3.1241,3.045,3.0337,2.9942,2.9772,2.9552,2.9509,2.9681,2.9136,2.9267,2.9116,2.9176,2.9193,2.9286,2.9184,2.9171,2.8989,2.9131,2.9027,2.8988,2.9004,2.9537,2.9033,2.8631,2.9083,2.9094,2.9166,2.9268,2.9377,2.9439,2.9355,2.9363,2.9222,2.9388,2.9433,2.9195,2.9268,2.9551,2.9944,2.9428,2.9641,2.9558,2.9163,2.9286,2.9309,2.9568,2.9406,2.9781,2.9494,2.9118,2.918,2.9432,2.9354,2.9707,2.9609,2.8911,2.9075,2.9323,2.9732,2.9649,2.8903,2.9374,2.9453,2.9565,2.9111,2.9164,2.9565,2.9229,2.9107,2.9223,2.9076,2.9188,2.9728,2.9888,2.9227,2.9237,2.9145,2.9105,2.9243,2.9249,2.9434,2.9557,2.9228,2.9069,2.9017,2.9074,2.9258,2.9223,2.9081,2.9473,2.9497,2.9351,2.9535,2.9639,2.9697,2.9795,2.9968,3.0083,3.0657,3.0488,2.9865,2.9446,2.9536,2.9821,2.9458,2.9226,2.9197,2.9196,2.9029,2.8811,2.8825,2.9134,2.9212,2.8991,2.8751,2.8873,2.9112,2.9215,2.9103,2.8908,2.9089,2.8718,2.879,2.9064,3.0455,3.2147,3.4032,3.5912,3.5601,3.3188,2.9128,2.4575,2.3711,2.4585,2.5875,2.6963,2.7604,2.8632,2.8929,2.9125,2.9142,2.8975,2.8951,2.9086,2.9475,2.9484,2.9351,2.9231,2.9134,2.9378,2.9531,2.9568,2.9593,2.9596,2.9714,2.932,2.9446,2.9513,2.9305,2.9507,2.9751,2.9655,2.9474,2.9591,2.9753,2.9765,2.9881,3.0476,3.0446,2.9976,3.0184,3.0388,3.0349,3.0605,3.0497,3.0567,3.0999,3.1069,3.1407,3.1331,3.1459,3.1862,3.1899,3.2051,3.2176,3.2169,3.2604,3.252,3.2723,3.274,3.2466,3.29,3.2846,3.282,3.258,3.2534,3.2473,3.2292,3.1853,3.1359,3.0979,3.0601,3.0434,3.0229,2.9941,2.9709,2.9057,2.8817,2.8716,2.8178,2.8199,2.8194,2.81,2.8188,2.8315,2.8398,2.7852,2.7866,2.7925,2.7951,2.8446,2.8292,2.8159,2.814,2.8027,2.8093,2.8021,2.8214,2.8267,2.8152,2.8256,2.8672,2.8181,2.7837,2.8076,2.8363,2.8182,2.8114,2.8605,2.829,2.8316,2.846,2.8456,2.8517,2.8793,2.8326,2.8323,2.8271,2.8305,2.8144,2.847,2.8654,2.8628,2.8569,2.8639,2.8331,2.8358,2.8175,2.8101,2.8247,2.8555,2.8446,2.8194,2.8221,2.8322,2.8747,2.8271,2.795,2.8107,2.8126,2.8328,2.8427,2.8363,2.8512,2.8373,2.8265,2.8282,2.8087,2.8076,2.8363,2.859,2.8518,2.8036,2.8274,2.8645,2.8559,2.7981,2.8577,2.8504,2.8033,2.8292,2.8511,2.8668,2.8211,2.8123,2.8005,2.8265,2.8361,2.8082,2.8431,2.8309,2.829,2.8507,2.8213,2.845,2.8288,2.8152,2.8327,2.8278,2.8301,2.8393,2.8459,2.8447,2.8179,2.807,2.8251,2.8439,2.8821,2.874,2.8731,2.8897,2.9022,2.8907,2.9565,2.9476,2.9571,2.9557,2.9291,2.8839,2.8746,2.8904,2.9143,2.8493,2.823,2.8291,2.8261,2.8183,2.8506,2.8536,2.837,2.8423,2.8368,2.8421,2.8423,2.8423,2.8431,2.8807,2.8899,2.7949,2.7953,2.9427,3.0892,3.2857,3.4814,3.5205,3.4691,3.2345,2.7436,2.3203,2.3736,2.5622,2.6319,2.6903,2.7435,2.8286,2.8711,2.8877,2.8778,2.8849,2.8434,2.8821,2.89,2.8794,2.8675,2.9158,2.9264,2.919,2.8978,2.9159,2.9181,2.9018,2.9041,2.9311,2.9086,2.8956,2.9191,2.9469,2.9442,2.9401,2.9368,2.9457,2.9653,2.9948,2.9974,2.9675,2.9896,3.0004,3.0243,3.0492,3.0223,3.0083,3.0462,3.0587,3.0875,3.1165,3.1563,3.1602,3.1397,3.1729,3.1997,3.1867,3.2136,3.2323,3.2393,3.2564,3.2647,3.2545,3.2744,3.2864,3.2633,3.2575,3.27,3.2621,3.2177,3.1924,3.2052,3.1436,3.1136,3.084,3.0357,3.0001,2.9703,2.9402,2.9057,2.8783,2.8615,2.8534,2.8521,2.8571,2.8212,2.8129,2.7929,2.7965,2.8134,2.7912,2.8356,2.8408,2.8262,2.773,2.7865,2.8023,2.82,2.819,2.772,2.8083,2.8152,2.8073,2.8244,2.8409,2.8288,2.8423,2.7905,2.8178,2.8607,2.8541,2.8329,2.8484,2.8587,2.8535,2.8334,2.8473,2.8613,2.8541,2.8563,2.8325,2.8338,2.8379,2.8574,2.8455,2.8214,2.8138,2.8375,2.8385,2.8569,2.8514,2.8086,2.8081,2.8188,2.8207,2.8541,2.8347,2.8131,2.8197,2.8261,2.8426,2.8371,2.844,2.8418,2.8359,2.8579,2.8758,2.9123,2.8646,2.8301,2.8427,2.8347,2.8774,2.8688,2.821,2.8158,2.859,2.8592,2.8486,2.8182,2.8466,2.8774,2.8999,2.9014,2.8867,2.8972,2.8811,2.8971,2.9437,2.9458,2.9815,2.984,2.9618,2.9285,2.9168,2.8804,2.902,2.9396,2.886,2.8534,2.8584,2.8726,2.8964,2.8896,2.8799,2.8843,2.8999,2.9079,2.8824,2.8617,2.8785,2.8855,2.8804,2.8879,2.8914,2.9657,3.1242,3.3083,3.4446,3.5252,3.4548,3.0764,2.8648,2.5472,2.5066,2.6647,2.6825,2.7269,2.7996,2.875,2.8679,2.9088,2.9055,2.9582,2.938,2.9479,2.9402,2.9542,2.9156,2.9448,2.9624,2.967,2.9543,2.9868,2.96,2.9657,2.9894,2.993,2.9891,2.9872,2.957,2.9567,2.9849,3.0114,2.9826,2.9911,3.0224,3.0484,3.058,3.0548,3.0389,3.0645,3.0731,3.0713,3.0597,3.1169,3.1233,3.1297,3.1522,3.1703,3.1525,3.1745,3.1959,3.2307,3.2982,3.2574,3.2613,3.2654,3.2718,3.2709,3.3027,3.3027,3.3124,3.3156,3.3162,3.305,3.3327,3.2819,3.26,3.2621,3.2033,3.1908,3.145,3.1096,3.1102,3.0545,3.0068,3.0439,3.0137,2.9523,2.954,2.9054,2.8909,2.889,2.8939,2.8935,2.8996,2.8956,2.8728,2.8864,2.9021,2.89,2.9128,2.9172,2.8982,2.8914,2.881,2.8866,2.9161,2.9132,2.924,2.9141,2.9163,2.9042,2.9255,2.9329,2.9257,2.9134,2.937,2.9551,2.9531,2.9484,2.9542,2.9676,2.9624,2.9977,2.9883,2.9226,2.8998,2.9292,2.9503,2.9337,2.9654,2.9639,2.9318,2.9146,2.9125,2.9136,2.9261,2.9518,2.9616,2.9753,2.9508,2.9528,2.9651,2.9619,3.0082,3.0404,3.0539,3.0491,3.0047,3.012,3.0304,3.0123,2.9766,2.9447,2.9345,2.9222,2.924,2.9257,2.9654,2.9572,2.9298,2.8867,2.8878,2.8913,2.9236,2.9369,2.9158,2.9426,2.9347,2.9093,2.9113,2.9077,2.9109,3.0579,3.2116,3.3906,3.5687,3.601,3.431,3.0175,2.6688,2.5023,2.6331,2.7277,2.7718,2.8261,2.8695,2.9353,2.9359,2.9717,2.9748,2.9783,2.9724,2.9916,2.9963,3.0154,3.0037,2.9987,3.0491,3.0305,2.9704,2.9992,3.0039,3.0082,3.0151,2.9872,3.0125,3.0199,3.0314,3.0566,3.0525,3.0602,3.0453,3.061,3.0775,3.071,3.0837,3.1022,3.0989,3.1245,3.0938,3.1179,3.1578,3.1778,3.1726,3.2091,3.2209,3.251,3.2494,3.268,3.2795,3.2787,3.3041,3.3279,3.3591,3.331,3.3235,3.3349,3.3636,3.3668,3.3683,3.3927,3.3501,3.3407,3.3071,3.2696,3.2563,3.2309,3.1935,3.1594,3.1361,3.1215,3.0647,3.0386,3.0392,3.0107,2.9545,2.9362,2.9396,2.9563,2.9626,2.9288,2.9093,2.9049,2.9117,2.9036,2.8946,2.8955,2.9135,2.8947,2.9324,2.9335,2.918,2.9137,2.9127,2.9316,2.9343,2.9274,2.9154,2.9343,2.9572,2.9485,2.9331,2.9549,2.9533,2.929,2.9413,2.9219,2.9295,2.9385,2.9743,2.986,2.976,2.9484,2.9443,2.9705,2.9858,2.9707,2.9377,2.9183,2.9705,2.9874,2.9887,2.993,2.9776,2.9943,3.0043,3.0364,3.0374,3.0479,3.0327,3.0203,3.0116,2.9692,2.9711,2.9635,2.9416,2.9331,2.9159,2.9435,2.9672,2.9554,2.9287,2.9181,2.9062,2.8947,2.9325,2.9398,2.9421,2.9227,2.8926,2.902,2.9118,2.9065,2.9364,3.0561,3.2142,3.3565,3.5436,3.6233,3.4813,3.035,2.6069,2.4501,2.5715,2.6739,2.7388,2.8141,2.8875,2.9708,2.9262,2.9511,2.9517,2.9671,2.9651,2.9932,2.998,2.9496,2.9487,2.9689,2.9879,2.9931,3.0004,3.0005,3.0064,2.9755,2.9815,2.9745,2.998,3.0075,3.0125,3.0074,3.0167,3.0307,3.0107,3.0158,3.0302,3.0717,3.0848,3.0757,3.0805,3.0839,3.093,3.0988,3.116,3.1505,3.1629,3.2016,3.2112,3.2407,3.2269,3.2631,3.2726,3.2947,3.3226,3.3062,3.3226,3.3203,3.3633,3.3705,3.3372,3.3658,3.3552,3.3821,3.3722,3.3381,3.3096,3.2566,3.2321,3.1861,3.1519,3.1175,3.0885,3.0731,3.0285,2.9697,2.9704,2.9352,2.9235,2.8925,2.8995,2.8998,2.8739,2.8749,2.8521,2.8728,2.8834,2.8448,2.8598,2.8688,2.8617,2.8441,2.834,2.8408,2.8577,2.8782,2.8686,2.8614,2.8709,2.8699,2.8833,2.9131,2.9092,2.8928,2.8732,2.866,2.8544,2.8498,2.8698,2.8874,2.9016,2.917,2.9153,2.9234,2.925,2.9258,2.9322,2.944,2.93,2.9258,2.9416,2.9724,3.0024,3.0229,2.9941,2.9875,2.9602,2.9267,2.9224,2.912,2.8957,2.8991,2.9019,2.8858,2.8492,2.8779,2.8712,2.8576,2.8589,2.8571,2.8775,2.8723,2.8656,2.8516,2.8528,2.8879,2.896,2.8626,2.869,2.9329,3.0816,3.279,3.3895,3.5835,3.5853,3.3302,2.8906,2.455,2.3532,2.4838,2.6431,2.7089,2.7813,2.8362,2.8741,2.8845,2.8985,2.9038,2.918,2.9286,2.9184,2.9044,2.9128,2.9136,2.9598,2.9305,2.9377,2.9171,2.9214,2.9488,2.9609,2.9376,2.9411,2.9368,2.922,2.9332,2.9544,2.9709,2.9726,2.9964,3.0252,2.9922,2.9833,2.9909,2.9821,3.0082,3.0467,3.0538,3.0479,3.0644,3.0946,3.1279,3.142,3.1565,3.166,3.176,3.2296,3.2718,3.2567,3.2568,3.2958,3.294,3.2938,3.2972,3.311,3.3301,3.3415,3.3617,3.3341,3.2716,3.2506,3.2414,3.2153,3.2125,3.1172,3.0506,3.0271,2.9866,2.946,2.9171,2.9221,2.887,2.8849,2.8671,2.8309,2.8239,2.8256,2.8368,2.838,2.8288,2.8069,2.8275,2.8327,2.8216,2.8466,2.8228,2.8263,2.8451,2.8402,2.8221,2.8372,2.8404,2.8519,2.851,2.8483,2.8392,2.8248,2.8441,2.8316,2.8345,2.8256,2.8445,2.8643,2.8817,2.8599,2.8702,2.8589,2.8505,2.8565,2.8929,2.8965,2.8943,2.8627,2.8574,2.8361,2.8517,2.8617,2.872,2.8562,2.8595,2.8648,2.8551,2.8578,2.8589,2.8787,2.8621,2.863,2.874,2.8525,2.8366,2.8383,2.8483,2.848,2.8718,2.9243,2.8661,2.8755,2.8884,2.8878,2.9051,2.8855,2.9055,2.9364,2.9673,2.9794,2.9674,2.9642,2.9591,2.9316,2.8722,2.8909,2.8934,2.8655,2.8574,2.8487,2.8579,2.8559,2.8811,2.8953,2.8547,2.8551,2.8729,2.88,2.8472,2.8342,2.8503,2.8358,2.8606,2.87,2.8581,2.8868,3.0402,3.2293,3.3929,3.4827,3.5143,3.3718,2.975,2.5558,2.3,2.4167,2.5789,2.6619,2.7709,2.8253,2.8596,2.8878,2.915,2.8668,2.8528,2.8881,2.8864,2.8813,2.9124,2.9093,2.9041,2.9208,2.9413,2.9003,2.9188,2.92,2.9099,2.9069,2.9257,2.9265,2.92,2.9327,2.9569,2.9499,2.9126,2.9396,2.9401,2.9764,2.975,2.9752,2.9578,2.9799,3.0001,2.9931,3.0282,3.0409,3.0735,3.0906,3.096,3.1112,3.1502,3.158,3.179,3.1831,3.2021,3.2072,3.2112,3.2327,3.253,3.2724,3.2859,3.3003,3.2899,3.3167,3.2889,3.2861,3.2856,3.2457,3.1997,3.1948,3.1745,3.1185,3.0801,3.0447,3.0157,2.9698,2.927,2.885,2.8845,2.8798,2.8662,2.8775,2.8416,2.8202,2.8143,2.8079,2.8217,2.819,2.7918,2.7941,2.8041,2.8013,2.8067,2.8156,2.8242,2.7895,2.7912,2.8107,2.8077,2.8059,2.8026,2.8063,2.8305,2.8256,2.8028,2.8254,2.8207,2.8083,2.8133,2.8138,2.8046,2.8056,2.8398,2.8576,2.8024,2.8044,2.8102,2.8195,2.8222,2.8432,2.843,2.8079,2.8032,2.7971,2.7941,2.8073,2.8105,2.7968,2.8048,2.8156,2.8057,2.8095,2.8028,2.8098,2.7885,2.7972,2.7896,2.8161,2.8241,2.8288,2.8087,2.786,2.7786,2.8132,2.8129,2.8007,2.7741,2.7852,2.7896,2.7784,2.7856,2.7916,2.7838,2.7958,2.8068,2.7994,2.7922,2.8063,2.8,2.8026,2.8096,2.7787,2.7833,2.8035,2.809,2.7766,2.7927,2.7898,2.7906,2.7825,2.8032,2.796,2.7963,2.7987,2.8103,2.8001,2.7987,2.7947,2.816,2.8152,2.8111,2.8028,2.8327,2.8414,2.8203,2.8114,2.818,2.798,2.7821,2.8161,2.8212,2.8123,2.8066,2.8043,2.8103,2.818,2.8097,2.8178,2.8251,2.8443,2.8379,2.8086,2.8081,2.8178,2.8241,2.8434,2.8348,2.7926,2.8129,2.822,2.8136,2.8154,2.8275,2.8159,2.8117,2.8486,2.8367,2.8266,2.8357,2.8519,2.8602,2.867,2.879,2.8948,2.9157,2.8735,2.855,2.8412,2.8709,2.852,2.8026,2.7933,2.8178,2.8262,2.8165,2.8212,2.7946,2.8221,2.8088,2.7874,2.7934,2.8114,2.8278,2.8179,2.7875,2.7988,2.8252,2.9125,3.0731,3.2476,3.4182,3.4285,3.3102,2.9973,2.5686,2.3041,2.4492,2.5872,2.6362,2.7204,2.7521,2.7967,2.8263,2.846,2.8544,2.8428,2.8309,2.8462,2.8554,2.8699,2.8898,2.89,2.8738,2.8743,2.8812,2.8797,2.855,2.8502,2.8579,2.8595,2.8628,2.8757,2.865,2.882,2.8998,2.8951,2.8905,2.8898,2.917,2.9326,2.9215,2.9166,2.9433,2.9495,2.9448,2.9763,2.98,2.9927,3.0016,3.0202,3.0299,3.0311,3.0461,3.0698,3.0897,3.101,3.127,3.1276,3.1401,3.157,3.2167,3.2315,3.2125,3.1774,3.175,3.196,3.2049,3.2193,3.2256,3.218,3.2113,3.2004,3.1638,3.1383,3.0889,3.0695,3.021,3.0024,2.9799,2.9432,2.9257,2.8817,2.8674,2.8688,2.8468,2.8277,2.8202,2.8246,2.8149,2.8132,2.8112,2.8305,2.8007,2.799,2.8189,2.8004,2.8017,2.8096,2.8028,2.8093,2.8113,2.828,2.8304,2.8095,2.8002,2.8114,2.8266,2.8351,2.837,2.8521,2.8464,2.8366,2.8577,2.8773,2.8394,2.8391,2.8584,2.8519,2.8751,2.8677,2.8762,2.8667,2.8711,2.8588,2.8783,2.8726,2.8706,2.8855,2.8564,2.8422,2.8655,2.8716,2.8647,2.8568,2.8683,2.872,2.8968,2.8754,2.8768,2.8803,2.8874,2.8755,2.8458,2.8858,2.8963,2.8941,2.8871,2.8645,2.8619,2.8746,2.8812,2.8817,2.8834,2.8872,2.8818,2.9032,2.9083,2.9046,2.8787,2.8742,2.9083,2.8991,2.9099,2.8665,2.8799,2.9,2.8993,2.8862,2.8866,2.9269,2.9271,2.9166,2.9317,2.9385,2.9175,2.9334,2.9512,2.9443,2.968,2.9954,2.9805,2.9625,2.9625,2.9606,2.9305,2.9397,2.9355,2.9211,2.9203,2.9178,2.8796,2.8835,2.9062,2.9237,2.9179,2.9073,2.8947,2.9042,2.9212,2.9241,2.9215,2.9137,2.8966,2.9359,3.0527,3.2081,3.3765,3.541,3.5425,3.3867,2.9899,2.8198,2.5201,2.5947,2.7397,2.7434,2.8167,2.856,2.9207,2.9247,2.9621,2.9306,2.9679,2.9495,2.9886,2.96,2.9632,2.962,3.0006,2.9783,2.9854,2.9848,3.0135,2.9904,2.9938,2.9959,3.0084,3.0038,3.0036,2.9934,2.9842,2.9998,3.0174,3.0117,3.0073,3.0224,3.0311,3.0485,3.0565,3.0486,3.0802,3.0816,3.0953,3.092,3.1166,3.1413,3.1776,3.1453,3.1787,3.1949,3.2185,3.2571,3.2482,3.2663,3.2892,3.2894,3.2955,3.3194,3.324,3.3489,3.3489,3.3383,3.345,3.3515,3.3276,3.3371,3.3018,3.2868,3.2446,3.2013,3.1694,3.1348,3.0778,3.0216,3.0157,2.993,2.9644,2.9284,2.9453,2.9321,2.9051,2.8985,2.8937,2.8905,2.8798,2.8942,2.8769,2.8848,2.8555,2.8435,2.8711,2.8839,2.8761,2.8706,2.843,2.8765,2.8521,2.8556,2.8906,2.8858,2.8856,2.8823,2.8643,2.8726,2.8784,2.8966,2.8869,2.8912,2.8878,2.8964,2.9008,2.9275,2.9134,2.904,2.9168,2.9063,2.8897,2.9047,2.9116,2.9169,2.9027,2.8975,2.9136,2.8956,2.885,2.8992,2.9171,2.9257,2.8984,2.906,2.8945,2.8956,2.9199,2.8937,2.8829,2.8889,2.8911,2.8823,2.8861,2.8895,2.8995,2.9146,2.9194,2.907,2.8987,2.9101,2.901,2.911,2.891,2.8787,2.9074,2.9074,2.9068,2.9041,2.8809,2.8719,2.9083,2.9037,2.9136,2.9179,2.9389,2.9376,2.9427,2.9494,2.9759,2.9984,2.9787,2.9305,2.9347,2.9384,2.9378,2.9335,2.9202,2.9147,2.9093,2.9013,2.9034,2.8961,2.8847,2.8967,2.8952,2.9092,2.9191,2.9112,2.9079,2.8871,2.8974,2.9113,2.9007,2.9023,2.998,3.1495,3.3382,3.5403,3.6011,3.4643,3.0858,2.6553,2.3859,2.5136,2.6488,2.72,2.7818,2.8349,2.9096,2.9054,2.9303,2.9394,2.9522,2.9444,2.9545,2.9525,2.9541,2.9387,2.9534,2.952,2.9788,2.9946,2.9856,2.9604,2.9744,2.979,2.9917,2.9751,2.9773,2.9694,2.9805,2.9813,3.0053,3.0159,3.043,3.0516,3.0169,2.9963,3.0239,3.0537,3.0652,3.0605,3.0939,3.1283,3.127,3.1042,3.1088,3.1578,3.1815,3.2075,3.2168,3.2264,3.2507,3.2863,3.3142,3.3159,3.3221,3.3374,3.3463,3.3654,3.3888,3.4008,3.3879,3.3786,3.3609,3.3379,3.3198,3.3057,3.2523,3.2202,3.1888,3.15,3.0933,3.0586,3.023,2.9841,2.9684,2.9518,2.9452,2.9186,2.9332,2.9289,2.9044,2.8852,2.875,2.8835,2.87,2.8663,2.8942,2.9049,2.9025,2.9123,2.8479,2.8333,2.8556,2.8491,2.878,2.9059,2.8675,2.8707,2.8754,2.888,2.8869,2.8737,2.8806,2.9041,2.9026,2.8894,2.878,2.8794,2.8984,2.9189,2.8991,2.9186,2.8949,2.8844,2.919,2.8997,2.8985,2.9001,2.8943,2.8957,2.8941,2.9142,2.9121,2.9126,2.9148,2.8967,2.9082,2.9188,2.9039,2.8954,2.9123,2.9087,2.9086,2.8878,2.8801,2.9009,2.9085,2.898,2.9041,2.9097,2.913,2.9228,2.9163,2.9018,2.8944,2.8976,2.9056,2.923,2.9144,2.9093,2.9151,2.942,2.8929,2.8877,2.9052,2.8883,2.9124,2.9154,2.9025,2.9115,2.9051,2.9,2.8896,2.8888,2.9076,2.9247,2.9068,2.8885,2.8921,2.8976,2.8967,2.9004,2.9096,2.8956,2.9012,2.9182,2.9264,2.8945,2.882,2.8835,2.9113,2.9189,2.8793,2.8924,2.8837,2.8808,2.8809,2.8893,2.8903,2.9026,2.9198,2.9241,2.9311,2.9171,2.9329,2.9518,2.963,2.9442,2.9207,2.9359,2.9304,2.9184,2.916,2.9173,2.894,2.8949,2.9107,2.9039,2.9003,2.8993,2.8966,2.899,2.8795,2.8852,2.8935,2.891,2.8954,2.901,2.8891,2.8919,3.016,3.1799,3.3712,3.5428,3.5641,3.4299,3.2654,2.8205,2.3871,2.4127,2.575,2.6703,2.7517,2.8217,2.8731,2.9038,2.9048,2.9016,2.9215,2.9334,2.9514,2.9474,2.9306,2.9184,2.9322,2.9501,2.9565,2.9541,2.9398,2.9437,2.9436,2.9605,2.9406,2.9423,2.9488,2.9477,2.9482,2.9624,2.9794,2.9744,2.9871,2.9943,3.0141,2.9883,3.003,3.0323,3.0338,3.0472,3.0585,3.045,3.081,3.0863,3.067,3.0979,3.1615,3.1776,3.171,3.1816,3.2082,3.2474,3.2761,3.2844,3.3025,3.3003,3.3015,3.3126,3.3205,3.3256,3.3262,3.3544,3.3644,3.3353,3.3358,3.3153,3.2789,3.2342,3.1936,3.1371,3.0978,3.0689,3.0416,3.007,2.9664,2.9582,2.9467,2.9097,2.89,2.8819,2.8646,2.8578,2.8566,2.8664,2.8511,2.8549,2.8579,2.859,2.8303,2.8478,2.854,2.8561,2.8724,2.8843,2.8603,2.8325,2.8381,2.8491,2.8537,2.872,2.8772,2.8719,2.8922,2.8793,2.8577,2.8522,2.8862,2.892,2.8887,2.8821,2.8816,2.8965,2.9024,2.9071,2.8897,2.9313,2.9063,2.8741,2.8662,2.8705,2.8921,2.888,2.8984,2.8863,2.8851,2.8858,2.9153,2.9047,2.8817,2.8716,2.8765,2.8767,2.8849,2.8853,2.899,2.8955,2.8678,2.8753,2.8909,2.9214,2.9217,2.8937,2.8841,2.8771,2.8715,2.8737,2.8916,2.8869,2.8872,2.8905,2.88,2.9008,2.9012,2.8934,2.8734,2.8758,2.8905,2.8877,2.8982,2.9087,2.8963,2.8765,2.8846,2.8968,2.8911,2.8841,2.9128,2.9071,2.8626,2.878,2.8769,2.8688,2.8898,2.8806,2.8798,2.8923,2.8866,2.8919,2.8876,2.8933,2.8814,2.8774,2.8703,2.8775,2.8916,2.8778,2.872,2.869,2.8839,2.9143,2.9067,2.8892,2.8953,2.8905,2.9121,2.935,2.9112,2.9452,2.947,2.9448,2.905,2.9089,2.907,2.8856,2.9093,2.8997,2.868,2.8614,2.8663,2.8708,2.8779,2.8869,2.8781,2.8734,2.8693,2.8636,2.8673,2.8701,2.8684,2.8639,2.8501,2.88,3.011,3.1456,3.3412,3.5068,3.508,3.377,2.9589,2.4874,2.3486,2.528,2.6224,2.6675,2.7842,2.8453,2.8884,2.8964,2.8776,2.867,2.8724,2.8578,2.893,2.9111,2.931,2.8975,2.9077,2.9204,2.9163,2.9079,2.928,2.9516,2.9395,2.9373,2.9522,2.9175,2.9394,2.9321,2.9264,2.9322,2.9427,2.9556,2.9923,3.0171,2.9748,2.9659,2.9961,3.0175,3.0135,3.0151,3.0284,3.0614,3.0824,3.107,3.132,3.1374,3.1199,3.164,3.1799,3.2068,3.2197,3.2495,3.2594,3.2608,3.2642,3.293,3.3024,3.3144,3.335,3.3395,3.3098,3.3216,3.3337,3.3063,3.297,3.2906,3.249,3.2315,3.1807,3.1392,3.1129,3.061,3.0278,2.9995,2.9931,2.9756,2.9707,2.9274,2.9059,2.8903,2.9009,2.8831,2.9,2.8712,2.8421,2.8584,2.8603,2.8532,2.8765,2.8776,2.8913,2.8924,2.8789,2.8456,2.8674,2.8752,2.8513,2.8675,2.8751,2.9087,2.8824,2.8855,2.8868,2.8771,2.8999,2.9034,2.9144,2.9111,2.9008,2.9124,2.9331,2.9289,2.9576,2.9211,2.9258,2.9403,2.9036,2.9112,2.9104,2.8966,2.9313,2.9268,2.9311,2.935,2.9156,2.9578,2.9202,2.8961,2.9122,2.9264,2.9324,2.9406,2.9443,2.9579,2.9338,2.9157,2.9248,2.9223,2.9164,2.9076,2.925,2.9587,2.9682,2.9581,2.9359,2.9347,2.9363,2.9587,2.9334,2.9373,2.9374,2.9397,2.958,2.9352,2.9708,2.9491,2.9211,2.9623,2.9535,2.9346,2.9598,2.9633,2.9467,2.9546,2.9563,2.98,2.9888,2.9893,2.9726,2.9889,2.9957,3.0002,3.0103,3.0313,3.0335,3.0277,3.0075,2.9792,2.9564,2.9678,2.9879,2.9783,2.9605,2.9524,2.9581,2.9612,3.0032,3.0028,2.9581,2.9336,2.9463,2.9493,2.9412,2.9413,2.9412,2.9679,3.0163,3.1448,3.3236,3.4616,3.6022,3.5877,3.3805,2.9709,2.5993,2.6208,2.7589,2.827,2.8651,2.9052,2.9249,2.9342,2.9599,2.97,2.9823,2.9887,3.0231,3.0332,3.0262,3.0424,3.0621,3.0551,3.0426,3.0283,3.0516,3.0526,3.0718,3.0767,3.0769,3.0563,3.0392,3.0372,3.0518,3.0925,3.0908,3.0756,3.0751,3.1016,3.0975,3.1098,3.1433,3.1256,3.1246,3.1506,3.1602,3.1442,3.1442,3.1655,3.2204,3.2364,3.2421,3.2323,3.2421,3.2786,3.2986,3.3252,3.346,3.3601,3.3961,3.375,3.3658,3.3896,3.4055,3.4146,3.4109,3.4247,3.4204,3.4159,3.3697,3.3558,3.3436,3.3284,3.2886,3.2676,3.2352,3.1888,3.1491,3.1199,3.0916,3.0471,3.0133,3.0041,3.0096,3.0022,2.983,2.9802,2.9574,2.967,2.9519,2.964,2.9896,2.9636,2.931,2.9449,2.9442,2.9448,2.9598,2.9656,2.9775,2.9713,2.982,2.9556,2.9892,3.0006,2.9774,2.9881,2.9655,2.9716,3.0021,2.9972,2.9959,2.9816,2.9765,2.9905,2.9936,3.0006,3.003,3.0105,3.0217,3.0028,3.0098,3.0111,2.9992,3.0002,2.9906,2.9854,2.9878,2.9749,2.9822,2.9744,2.9739,2.9797,2.977,2.9721,2.9636,2.9881,2.9781,2.9477,2.943,2.9686,2.9432,2.9422,2.9583,2.9653,2.9698,2.9555,2.9596,2.9705,2.9762,2.9545,2.9493,2.9657,2.9881,2.9639,2.9829,3.0066,3.0022,3.0201,3.0248,3.0504,3.0548,3.0274,3.0153,2.9816,2.981,2.9931,2.9704,2.9508,2.9395,2.9275,2.9421,2.9464,2.932,2.9327,2.9244,2.921,2.9324,2.9253,2.9248,2.9253,2.9281,2.9351,2.932,2.9568,3.0266,3.1511,3.3425,3.5433,3.6273,3.5132,3.121,2.8841,2.4776,2.4205,2.6033,2.6999,2.7893,2.812,2.8966,2.9241,2.9845,2.9509,2.9506,2.9577,2.9837,2.978,2.9684,2.9595,2.9669,2.9743,3.0399,3.0276,3.0491,3.0206,2.9993,2.9995,2.9928,2.9895,3.0161,3.0147,3.0215,3.0186,3.0477,3.0611,3.0591,3.076,3.0716,3.065,3.074,3.0926,3.1227,3.1162,3.1074,3.1085,3.1084,3.1581,3.1853,3.2017,3.2093,3.2171,3.2487,3.2617,3.2808,3.2886,3.3122,3.3441,3.3616,3.3511,3.3656,3.374,3.3666,3.3783,3.3716,3.3998,3.396,3.3892,3.3588,3.3444,3.3175,3.2638,3.1963,3.1525,3.0972,3.0551,3.0378,3.0125,2.9689,2.962,2.9435,2.9265,2.9157,2.91,2.8977,2.8958,2.887,2.8726,2.8735,2.8737,2.8619,2.8985,2.8929,2.8466,2.8493,2.8712,2.8656,2.8672,2.862,2.832,2.8366,2.8708,2.8635,2.8648,2.8832,2.8947,2.8813,2.8674,2.8649,2.8771,2.8972,2.8823,2.8956,2.8957,2.8991,2.9145,2.9006,2.9106,2.913,2.8928,2.8902,2.8926,2.8831,2.8904,2.8828,2.9015,2.8928,2.8781,2.8888,2.8887,2.8891,2.881,2.8801,2.8968,2.8899,2.8989,2.8927,2.9006,2.8833,2.8848,2.8954,2.8994,2.8986,2.8914,2.8773,2.871,2.8844,2.8901,2.8727,2.8679,2.8869,2.8989,2.8916,2.8987,2.8887,2.8807,2.8967,2.9003,2.9201,2.924,2.9348,2.9327,2.9405,2.9464,2.9468,2.9576,2.9868,2.9886,2.9763,2.9771,2.9496,2.9161,2.9292,2.9218,2.904,2.889,2.8793,2.8787,2.8509,2.862,2.8622,2.8739,2.8925,2.8914,2.8917,2.8718,2.8541,2.86,2.8712,2.8665,2.8609,2.8475,2.9039,3.0637,3.2558,3.4098,3.5611,3.5362,3.2918,2.8245,2.4079,2.3968,2.5445,2.6502,2.6933,2.7666,2.8349,2.8703,2.9184,2.9142,2.9174,2.9187,2.9387,2.9451,2.9475,2.9498,2.9549,2.9502,2.9503,2.9538,2.9645,2.9714,2.9622,2.9428,2.9486,2.9736,2.9684,2.9484,2.9676,2.9935,3.0124,2.9837,2.9783,2.9925,3.0038,3.0098,3.0396,3.032,3.0389,3.0444,3.048,3.0794,3.1016,3.1006,3.1004,3.125,3.1705,3.1812,3.1762,3.2074,3.2163,3.2412,3.2653,3.2777,3.315,3.314,3.3161,3.3373,3.3449,3.3602,3.3477,3.3396,3.3548,3.3513,3.34,3.3276,3.31,3.2715,3.2047,3.1522,3.1101,3.0765,3.0387,2.9923,2.978,2.9643,2.9337,2.9008,2.8858,2.8582,2.855,2.8601,2.8527,2.8337,2.8396,2.8461,2.862,2.8441,2.8203,2.8252,2.8411,2.8434,2.8356,2.831,2.8461,2.8413,2.8249,2.8527,2.8414,2.848,2.8551,2.8411,2.845,2.8753,2.8692,2.8775,2.8725,2.8643,2.851,2.8538,2.8506,2.8594,2.8871,2.8809,2.8619,2.8682,2.8771,2.8908,2.8768,2.8609,2.8646,2.8587,2.8665,2.8685,2.8649,2.8747,2.859,2.8508,2.8564,2.8504,2.8578,2.8543,2.8605,2.8677,2.837,2.8389,2.8409,2.859,2.8666,2.8781,2.8848,2.8576,2.8222,2.8736,2.882,2.8789,2.838,2.8493,2.864,2.8762,2.8821,2.8908,2.895,2.8783,2.9071,2.8826,2.8931,2.9044,2.9012,2.9115,2.9188,2.9172,2.9107,2.8973,2.9084,2.9111,2.9112,2.9211,2.8995,2.9012,2.9111,2.9063,2.9235,2.9081,2.9227,2.9229,2.9181,2.921,2.9169,2.9202,2.9182,2.9518,2.9764,2.9613,2.9771,2.9727,2.9522,2.9689,2.9958,3.0091,3.0188,3.0361,3.0241,3.0004,2.9855,2.9627,2.9961,2.9781,2.9353,2.9419,2.9514,2.9649,2.9896,2.9628,2.9161,2.9097,2.9375,2.9609,2.9448,2.9427,2.9445,2.9573,2.9527,2.939,2.9652,3.1017,3.2495,3.4362,3.6367,3.6478,3.4826,3.06,2.583,2.4237,2.5999,2.6937,2.7692,2.8482,2.9082,2.9704,2.9806,3.007,3.0074,3.0241,3.0177,3.0087,2.9997,3.0405,3.0271,3.0265,3.0305,3.0515,3.066,3.0394,3.0355,3.0421,3.0472,3.0561,3.065,3.0823,3.0787,3.0828,3.0843,3.0781,3.0862,3.0894,3.0969,3.1275,3.1156,3.0946,3.1282,3.1326,3.1494,3.1611,3.1653,3.1913,3.2086,3.2655,3.2505,3.2326,3.2905,3.3008,3.3396,3.3623,3.3188,3.3624,3.4022,3.4272,3.4554,3.4378,3.426,3.5251,3.4274,3.3924,3.4694,3.4361,3.4279,3.4552,3.4606,3.4733,3.3969,3.3244,3.3105,3.2553,3.2281,3.1788,3.153,3.118,3.1399,3.0874,3.0743,3.0863,3.05,3.0075,3.0504,3.0233,3.0167,2.9725,2.9713,2.9719,2.9589,2.9727,2.9669,2.9441,2.969,2.9828,2.9995,2.976,3.0158,3.023,2.9883,2.9721,2.976,3.0081,2.9438,2.9038,2.946,2.9875,2.9793,2.9787,2.9637,2.9609,2.9822,2.973,2.9818,3.0063,2.9641,2.9758,3.0062,3.0254,3.0068,2.9921,2.9848,2.9626,2.955,2.964,2.9651,2.9434,2.9363,2.9388,2.9574,2.9583,2.9355,2.9352,2.9432,2.9972,2.9698,2.8877,2.923,2.9309,2.9042,2.9302,2.9284,2.9265,2.9035,2.9008,2.9077,2.9245,2.9137,2.9056,2.9282,2.9419,2.9336,2.9413,2.9385,2.9659,2.968,2.8967,2.9156,2.9602,2.9325,2.9203,2.9173,2.9397,2.9503,2.9555,2.9459,2.9417,2.9406,2.9215,2.9692,2.9531,2.9675,2.9618,2.9164,2.9181,2.9463,2.9826,3.0049,2.9928,2.9592,2.9933,2.9902,2.9752,2.9583,3.0136,3.0171,3.0456,3.0654,3.0421,3.0375,2.998,2.9785,2.9892,2.9873,2.9657,2.9734,2.9577,2.9575,2.9757,3.0022,3.0019,2.9556,2.9342,2.955,2.9794,2.9804,2.9821,2.954,2.9294,2.9229,2.9884,3.127,3.2769,3.4579,3.6119,3.6091,3.4116,3.055,2.6922,2.6087,2.7323,2.8239,2.8148,2.8765,2.9428,2.9392,2.966,3.0071,2.9857,2.9798,2.9822,2.9893,3.0257,3.0297,3.0045,3.0298,3.0585,3.043,3.0107,3.0454,3.0696,3.0678,3.0384,3.0253,3.0325,3.0342,3.0466,3.0315,3.0345,3.0684,3.0919,3.0792,3.0998,3.0925,3.1488,3.1518,3.094,3.1084,3.1157,3.1772,3.1815,3.145,3.2507,3.2544,3.2367,3.2521,3.2285,3.2157,3.2418,3.2736,3.3666,3.4028,3.3106,3.3645,3.3399,3.3465,3.371,3.3637,3.3628,3.4066,3.4241,3.3799,3.4009,3.3756,3.3687,3.3424,3.3271,3.2991,3.2459,3.2406,3.228,3.1363,3.0982,3.0594,3.0658,3.0479,3.0146,2.988,2.9932,2.9984,3.0035,3.0044,2.955,2.9903,2.9952,2.9594,2.9515,2.9725,3.0113,2.9807,2.9786,2.9831,2.9873,2.9985,2.9988,2.981,2.9974,2.9751,2.9661,2.999,3.0176,3.0164,3.0452,3.0327,2.9797,3.021,3.0268,3.045,3.0172,3.0501,3.0321,3.0457,3.0405,3.0188,3.036,3.0501,3.077,3.0357,3.0038,3.0254,3.0231,3.0408,3.0368,3.052,3.0195,2.9914,3.0059,2.9933,3.0066,3.0166,3.023,3.0139,3.0442,3.0193,2.9958,3.0176,3.0536,3.1043,3.1053,3.0513,3.0807,3.1111,3.0977,3.0907,3.1066,3.1079,3.0823,3.0803,3.0697,3.0847,3.0691,3.0525,3.0323,3.0187,3.0144,3.0166,3.0456,3.0193,2.9895,3.0145,3.0264,3.0412,3.0366,3.0394,3.017,3.0413,3.0416,3.0206,3.0111,3.0625,3.1984,3.3963,3.6017,3.7259,3.6875,3.3618,2.9632,2.6118,2.6587,2.778,2.8325,2.9044,2.9485,2.9814,3.0535,3.0818,2.9894,3.0239,3.0579,3.0663,3.0735
