-15.248,-15.251,-15.248,-15.257,-15.266,-15.308,-15.348,-15.335,-15.209,-14.961,-14.841,-14.595,-14.438,-14.622,-14.847,-15.03,-15.185,-15.34,-15.31,-15.371,-15.437,-15.385,-15.333,-15.279,-15.262,-15.247,-15.242,-15.241,-15.238,-15.238,-15.234,-15.229,-15.22,-15.217,-15.212,-15.205,-15.195,-15.19,-15.183,-15.182,-15.176,-15.167,-15.158,-15.151,-15.148,-15.139,-15.126,-15.113,-15.103,-15.095,-15.089,-15.076,-15.056,-15.042,-15.027,-15.014,-14.996,-14.974,-14.956,-14.938,-14.924,-14.91,-14.893,-14.883,-14.873,-14.866,-14.854,-14.845,-14.847,-14.849,-14.851,-14.861,-14.881,-14.912,-14.944,-14.984,-15.024,-15.057,-15.093,-15.135,-15.17,-15.198,-15.227,-15.253,-15.275,-15.292,-15.3,-15.311,-15.325,-15.329,-15.337,-15.342,-15.348,-15.356,-15.364,-15.367,-15.366,-15.366,-15.369,-15.372,-15.367,-15.364,-15.363,-15.365,-15.368,-15.369,-15.37,-15.365,-15.37,-15.371,-15.373,-15.373,-15.367,-15.363,-15.365,-15.362,-15.363,-15.356,-15.355,-15.354,-15.357,-15.356,-15.354,-15.348,-15.345,-15.345,-15.351,-15.355,-15.361,-15.36,-15.359,-15.364,-15.369,-15.372,-15.372,-15.378,-15.38,-15.38,-15.378,-15.379,-15.387,-15.387,-15.387,-15.384,-15.388,-15.394,-15.397,-15.397,-15.393,-15.395,-15.402,-15.402,-15.405,-15.402,-15.403,-15.404,-15.411,-15.411,-15.415,-15.417,-15.414,-15.416,-15.419,-15.42,-15.418,-15.421,-15.419,-15.417,-15.416,-15.421,-15.43,-15.433,-15.433,-15.427,-15.423,-15.427,-15.434,-15.438,-15.429,-15.434,-15.431,-15.438,-15.435,-15.433,-15.438,-15.44,-15.444,-15.444,-15.443,-15.443,-15.443,-15.45,-15.45,-15.449,-15.449,-15.448,-15.455,-15.461,-15.454,-15.447,-15.442,-15.439,-15.423,-15.422,-15.425,-15.411,-15.404,-15.379,-15.366,-15.358,-15.371,-15.381,-15.39,-15.401,-15.406,-15.413,-15.424,-15.453,-15.466,-15.495,-15.497,-15.497,-15.497,-15.5,-15.501,-15.496,-15.505,-15.509,-15.51,-15.509,-15.504,-15.504,-15.504,-15.509,-15.527,-15.57,-15.586,-15.505,-15.322,-15.095,-14.86,-14.663,-14.811,-15.029,-15.125,-15.295,-15.564,-15.619,-15.623,-15.65,-15.563,-15.509,-15.451,-15.446,-15.435,-15.438,-15.429,-15.43,-15.425,-15.426,-15.411,-15.404,-15.391,-15.392,-15.384,-15.377,-15.368,-15.368,-15.356,-15.354,-15.349,-15.341,-15.337,-15.327,-15.316,-15.308,-15.303,-15.29,-15.273,-15.26,-15.246,-15.231,-15.21,-15.194,-15.175,-15.156,-15.133,-15.121,-15.101,-15.082,-15.065,-15.048,-15.034,-15.018,-15.005,-14.989,-14.987,-14.985,-14.982,-14.977,-14.986,-15.002,-15.027,-15.05,-15.087,-15.123,-15.163,-15.182,-15.225,-15.261,-15.288,-15.319,-15.346,-15.371,-15.39,-15.407,-15.417,-15.428,-15.442,-15.45,-15.457,-15.46,-15.464,-15.468,-15.478,-15.475,-15.477,-15.477,-15.481,-15.482,-15.483,-15.477,-15.478,-15.471,-15.47,-15.473,-15.47,-15.469,-15.469,-15.466,-15.465,-15.46,-15.453,-15.448,-15.447,-15.442,-15.442,-15.439,-15.443,-15.444,-15.44,-15.433,-15.436,-15.434,-15.434,-15.434,-15.429,-15.43,-15.43,-15.431,-15.434,-15.429,-15.431,-15.435,-15.439,-15.438,-15.439,-15.439,-15.442,-15.441,-15.44,-15.442,-15.442,-15.439,-15.438,-15.442,-15.445,-15.444,-15.443,-15.435,-15.432,-15.439,-15.44,-15.428,-15.439,-15.444,-15.443,-15.445,-15.438,-15.442,-15.437,-15.435,-15.433,-15.434,-15.432,-15.434,-15.43,-15.43,-15.431,-15.434,-15.436,-15.432,-15.423,-15.421,-15.428,-15.43,-15.428,-15.422,-15.418,-15.422,-15.426,-15.427,-15.422,-15.418,-15.416,-15.416,-15.422,-15.416,-15.411,-15.412,-15.418,-15.424,-15.419,-15.418,-15.419,-15.418,-15.414,-15.41,-15.413,-15.417,-15.414,-15.42,-15.424,-15.42,-15.419,-15.429,-15.419,-15.419,-15.422,-15.424,-15.422,-15.419,-15.41,-15.403,-15.391,-15.386,-15.392,-15.382,-15.361,-15.355,-15.329,-15.316,-15.335,-15.325,-15.332,-15.351,-15.359,-15.365,-15.368,-15.389,-15.42,-15.436,-15.447,-15.441,-15.44,-15.443,-15.445,-15.444,-15.453,-15.452,-15.429,-15.442,-15.457,-15.45,-15.457,-15.452,-15.469,-15.516,-15.536,-15.484,-15.362,-15.138,-14.906,-14.688,-14.697,-14.896,-15.052,-15.177,-15.38,-15.591,-15.59,-15.634,-15.577,-15.499,-15.439,-15.429,-15.424,-15.426,-15.431,-15.422,-15.42,-15.433,-15.429,-15.41,-15.415,-15.414,-15.419,-15.401,-15.397,-15.387,-15.389,-15.384,-15.386,-15.385,-15.382,-15.386,-15.394,-15.39,-15.395,-15.375,-15.376,-15.362,-15.368,-15.355,-15.343,-15.34,-15.322,-15.306,-15.294,-15.276,-15.254,-15.251,-15.23,-15.199,-15.2,-15.19,-15.178,-15.169,-15.152,-15.138,-15.145,-15.143,-15.155,-15.162,-15.179,-15.2,-15.222,-15.268,-15.304,-15.336,-15.371,-15.408,-15.437,-15.469,-15.497,-15.514,-15.549,-15.567,-15.577,-15.593,-15.605,-15.627,-15.638,-15.645,-15.646,-15.657,-15.658,-15.661,-15.667,-15.67,-15.666,-15.665,-15.672,-15.669,-15.673,-15.677,-15.667,-15.667,-15.66,-15.664,-15.668,-15.666,-15.672,-15.665,-15.663,-15.653,-15.648,-15.642,-15.644,-15.647,-15.64,-15.642,-15.639,-15.63,-15.634,-15.618,-15.623,-15.625,-15.62,-15.629,-15.618,-15.618,-15.618,-15.621,-15.623,-15.614,-15.617,-15.612,-15.615,-15.62,-15.623,-15.623,-15.626,-15.626,-15.622,-15.618,-15.619,-15.625,-15.628,-15.63,-15.63,-15.625,-15.625,-15.628,-15.627,-15.628,-15.622,-15.626,-15.624,-15.619,-15.618,-15.614,-15.617,-15.618,-15.616,-15.617,-15.609,-15.614,-15.617,-15.618,-15.617,-15.615,-15.611,-15.614,-15.616,-15.617,-15.616,-15.618,-15.615,-15.614,-15.617,-15.615,-15.612,-15.613,-15.615,-15.615,-15.616,-15.619,-15.623,-15.619,-15.62,-15.621,-15.623,-15.623,-15.622,-15.625,-15.626,-15.628,-15.628,-15.628,-15.62,-15.622,-15.625,-15.628,-15.623,-15.621,-15.621,-15.616,-15.618,-15.621,-15.613,-15.612,-15.611,-15.611,-15.614,-15.607,-15.6,-15.597,-15.59,-15.58,-15.567,-15.559,-15.559,-15.542,-15.531,-15.506,-15.486,-15.499,-15.501,-15.506,-15.516,-15.526,-15.53,-15.528,-15.544,-15.572,-15.596,-15.597,-15.599,-15.6,-15.603,-15.596,-15.597,-15.591,-15.589,-15.585,-15.582,-15.575,-15.574,-15.571,-15.573,-15.592,-15.625,-15.645,-15.624,-15.501,-15.27,-15.046,-14.804,-14.716,-15.034,-15.176,-15.273,-15.521,-15.642,-15.659,-15.671,-15.608,-15.531,-15.486,-15.464,-15.462,-15.449,-15.454,-15.443,-15.447,-15.433,-15.432,-15.414,-15.415,-15.4,-15.394,-15.378,-15.374,-15.364,-15.362,-15.35,-15.346,-15.335,-15.331,-15.319,-15.31,-15.3,-15.292,-15.274,-15.268,-15.254,-15.24,-15.223,-15.205,-15.187,-15.17,-15.148,-15.127,-15.1,-15.085,-15.062,-15.045,-15.02,-14.999,-14.985,-14.97,-14.962,-14.952,-14.943,-14.938,-14.936,-14.937,-14.947,-14.963,-14.985,-15.014,-15.048,-15.086,-15.132,-15.172,-15.209,-15.24,-15.271,-15.294,-15.317,-15.336,-15.345,-15.358,-15.372,-15.381,-15.388,-15.396,-15.401,-15.405,-15.41,-15.414,-15.416,-15.416,-15.419,-15.419,-15.419,-15.413,-15.41,-15.402,-15.4,-15.397,-15.396,-15.395,-15.397,-15.394,-15.39,-15.384,-15.385,-15.379,-15.378,-15.374,-15.375,-15.363,-15.363,-15.362,-15.363,-15.352,-15.352,-15.35,-15.343,-15.34,-15.34,-15.341,-15.342,-15.342,-15.348,-15.344,-15.344,-15.344,-15.345,-15.341,-15.346,-15.347,-15.347,-15.346,-15.349,-15.352,-15.348,-15.35,-15.353,-15.354,-15.356,-15.355,-15.352,-15.349,-15.35,-15.353,-15.356,-15.351,-15.35,-15.348,-15.35,-15.347,-15.351,-15.35,-15.348,-15.346,-15.347,-15.346,-15.34,-15.342,-15.342,-15.34,-15.337,-15.338,-15.338,-15.343,-15.34,-15.341,-15.334,-15.335,-15.335,-15.339,-15.336,-15.335,-15.333,-15.329,-15.326,-15.327,-15.333,-15.33,-15.327,-15.325,-15.324,-15.322,-15.32,-15.321,-15.321,-15.323,-15.325,-15.322,-15.325,-15.325,-15.323,-15.323,-15.323,-15.325,-15.315,-15.319,-15.32,-15.318,-15.322,-15.323,-15.32,-15.318,-15.315,-15.319,-15.316,-15.305,-15.297,-15.285,-15.289,-15.306,-15.262,-15.257,-15.239,-15.224,-15.234,-15.231,-15.25,-15.249,-15.239,-15.256,-15.267,-15.279,-15.326,-15.323,-15.334,-15.334,-15.34,-15.365,-15.348,-15.361,-15.382,-15.377,-15.376,-15.378,-15.385,-15.368,-15.352,-15.382,-15.393,-15.46,-15.483,-15.458,-15.323,-15.063,-14.834,-14.62,-14.66,-14.941,-15.073,-15.2,-15.442,-15.484,-15.485,-15.542,-15.518,-15.445,-15.428,-15.388,-15.374,-15.366,-15.356,-15.354,-15.346,-15.342,-15.319,-15.322,-15.31,-15.297,-15.285,-15.267,-15.252,-15.245,-15.236,-15.236,-15.232,-15.236,-15.23,-15.227,-15.222,-15.217,-15.209,-15.204,-15.193,-15.18,-15.17,-15.16,-15.144,-15.128,-15.11,-15.094,-15.07,-15.053,-15.038,-15.004,-14.98,-14.968,-14.956,-14.938,-14.921,-14.915,-14.891,-14.885,-14.877,-14.874,-14.886,-14.904,-14.915,-14.935,-14.961,-15.002,-15.038,-15.071,-15.11,-15.15,-15.193,-15.218,-15.228,-15.254,-15.275,-15.3,-15.316,-15.331,-15.344,-15.322,-15.345,-15.355,-15.355,-15.365,-15.369,-15.376,-15.386,-15.384,-15.38,-15.378,-15.39,-15.392,-15.375,-15.377,-15.387,-15.358,-15.371,-15.38,-15.376,-15.374,-15.371,-15.37,-15.364,-15.369,-15.359,-15.363,-15.353,-15.367,-15.36,-15.351,-15.35,-15.351,-15.35,-15.357,-15.352,-15.344,-15.35,-15.345,-15.349,-15.352,-15.354,-15.359,-15.362,-15.364,-15.37,-15.365,-15.371,-15.378,-15.376,-15.375,-15.376,-15.378,-15.379,-15.38,-15.385,-15.384,-15.386,-15.383,-15.387,-15.39,-15.392,-15.395,-15.386,-15.395,-15.397,-15.4,-15.402,-15.402,-15.404,-15.41,-15.411,-15.41,-15.416,-15.415,-15.412,-15.418,-15.425,-15.423,-15.421,-15.423,-15.425,-15.423,-15.427,-15.428,-15.436,-15.435,-15.441,-15.437,-15.442,-15.446,-15.451,-15.447,-15.451,-15.451,-15.455,-15.453,-15.449,-15.447,-15.45,-15.448,-15.456,-15.456,-15.457,-15.455,-15.453,-15.452,-15.456,-15.457,-15.458,-15.458,-15.46,-15.451,-15.438,-15.428,-15.416,-15.425,-15.419,-15.402,-15.396,-15.365,-15.364,-15.383,-15.382,-15.384,-15.398,-15.413,-15.415,-15.428,-15.451,-15.481,-15.488,-15.488,-15.5,-15.502,-15.51,-15.513,-15.514,-15.512,-15.515,-15.518,-15.522,-15.521,-15.522,-15.523,-15.538,-15.575,-15.61,-15.569,-15.425,-15.193,-15.081,-14.852,-14.673,-14.903,-15.07,-15.167,-15.374,-15.619,-15.662,-15.688,-15.629,-15.556,-15.505,-15.48,-15.482,-15.478,-15.482,-15.472,-15.475,-15.471,-15.478,-15.472,-15.471,-15.462,-15.461,-15.454,-15.449,-15.443,-15.44,-15.433,-15.433,-15.419,-15.419,-15.408,-15.408,-15.4,-15.39,-15.378,-15.369,-15.353,-15.345,-15.33,-15.312,-15.293,-15.271,-15.249,-15.225,-15.209,-15.189,-15.171,-15.151,-15.131,-15.113,-15.102,-15.089,-15.08,-15.074,-15.071,-15.064,-15.065,-15.071,-15.08,-15.095,-15.111,-15.141,-15.174,-15.211,-15.253,-15.293,-15.335,-15.373,-15.406,-15.431,-15.46,-15.476,-15.501,-15.52,-15.535,-15.543,-15.55,-15.559,-15.564,-15.568,-15.571,-15.576,-15.578,-15.578,-15.584,-15.58,-15.584,-15.585,-15.582,-15.581,-15.581,-15.58,-15.575,-15.575,-15.575,-15.571,-15.572,-15.569,-15.569,-15.566,-15.558,-15.55,-15.552,-15.554,-15.553,-15.547,-15.547,-15.544,-15.541,-15.542,-15.538,-15.535,-15.535,-15.534,-15.532,-15.532,-15.533,-15.531,-15.534,-15.538,-15.535,-15.535,-15.536,-15.537,-15.54,-15.54,-15.537,-15.538,-15.542,-15.546,-15.542,-15.54,-15.542,-15.541,-15.543,-15.542,-15.543,-15.543,-15.545,-15.548,-15.546,-15.546,-15.546,-15.549,-15.549,-15.547,-15.546,-15.545,-15.546,-15.548,-15.546,-15.546,-15.545,-15.548,-15.544,-15.545,-15.543,-15.544,-15.545,-15.545,-15.546,-15.544,-15.543,-15.542,-15.547,-15.546,-15.542,-15.545,-15.544,-15.55,-15.546,-15.55,-15.546,-15.541,-15.544,-15.542,-15.544,-15.545,-15.544,-15.543,-15.544,-15.546,-15.547,-15.553,-15.553,-15.554,-15.555,-15.551,-15.552,-15.556,-15.555,-15.548,-15.545,-15.541,-15.529,-15.522,-15.52,-15.519,-15.498,-15.488,-15.462,-15.439,-15.452,-15.455,-15.458,-15.466,-15.476,-15.482,-15.491,-15.515,-15.545,-15.558,-15.561,-15.564,-15.565,-15.569,-15.567,-15.566,-15.562,-15.566,-15.568,-15.575,-15.572,-15.565,-15.565,-15.573,-15.593,-15.636,-15.645,-15.555,-15.349,-15.115,-14.876,-14.715,-14.865,-15.07,-15.19,-15.296,-15.558,-15.665,-15.674,-15.702,-15.614,-15.563,-15.505,-15.499,-15.488,-15.487,-15.476,-15.482,-15.47,-15.47,-15.462,-15.465,-15.456,-15.448,-15.437,-15.431,-15.418,-15.415,-15.405,-15.405,-15.396,-15.387,-15.375,-15.368,-15.364,-15.351,-15.335,-15.323,-15.312,-15.299,-15.281,-15.268,-15.26,-15.238,-15.226,-15.206,-15.184,-15.161,-15.145,-15.126,-15.106,-15.083,-15.067,-15.047,-15.036,-15.025,-15.016,-15.009,-15.007,-15.012,-15.017,-15.028,-15.036,-15.063,-15.098,-15.129,-15.172,-15.209,-15.249,-15.286,-15.322,-15.352,-15.378,-15.403,-15.426,-15.441,-15.461,-15.471,-15.483,-15.493,-15.501,-15.502,-15.505,-15.506,-15.513,-15.513,-15.519,-15.517,-15.518,-15.518,-15.519,-15.516,-15.514,-15.511,-15.511,-15.508,-15.509,-15.509,-15.511,-15.51,-15.511,-15.507,-15.502,-15.501,-15.498,-15.492,-15.493,-15.489,-15.488,-15.487,-15.489,-15.489,-15.487,-15.488,-15.488,-15.488,-15.488,-15.484,-15.487,-15.486,-15.495,-15.493,-15.494,-15.493,-15.496,-15.499,-15.502,-15.503,-15.505,-15.509,-15.514,-15.513,-15.515,-15.513,-15.513,-15.513,-15.509,-15.505,-15.504,-15.503,-15.505,-15.502,-15.5,-15.499,-15.497,-15.501,-15.502,-15.501,-15.498,-15.492,-15.496,-15.497,-15.497,-15.491,-15.492,-15.495,-15.495,-15.496,-15.494,-15.495,-15.495,-15.497,-15.496,-15.489,-15.489,-15.489,-15.488,-15.486,-15.478,-15.481,-15.48,-15.481,-15.478,-15.475,-15.47,-15.47,-15.47,-15.47,-15.467,-15.468,-15.467,-15.469,-15.466,-15.464,-15.462,-15.461,-15.458,-15.456,-15.457,-15.455,-15.452,-15.454,-15.448,-15.446,-15.445,-15.442,-15.437,-15.428,-15.422,-15.41,-15.405,-15.394,-15.396,-15.386,-15.365,-15.345,-15.32,-15.326,-15.339,-15.332,-15.339,-15.354,-15.352,-15.363,-15.371,-15.406,-15.424,-15.435,-15.432,-15.434,-15.433,-15.433,-15.43,-15.431,-15.429,-15.427,-15.427,-15.427,-15.425,-15.423,-15.427,-15.445,-15.485,-15.514,-15.459,-15.295,-15.044,-14.821,-14.609,-14.662,-14.852,-15.001,-15.136,-15.335,-15.5,-15.495,-15.555,-15.517,-15.438,-15.38,-15.348,-15.339,-15.339,-15.338,-15.328,-15.326,-15.32,-15.314,-15.308,-15.297,-15.295,-15.288,-15.276,-15.271,-15.262,-15.252,-15.248,-15.245,-15.24,-15.23,-15.217,-15.208,-15.201,-15.194,-15.178,-15.165,-15.157,-15.137,-15.126,-15.111,-15.099,-15.089,-15.064,-15.05,-15.027,-15.003,-14.975,-14.959,-14.937,-14.919,-14.899,-14.885,-14.878,-14.863,-14.852,-14.843,-14.849,-14.86,-14.872,-14.875,-14.9,-14.928,-14.963,-15.003,-15.041,-15.081,-15.123,-15.156,-15.188,-15.221,-15.245,-15.271,-15.289,-15.305,-15.321,-15.325,-15.327,-15.332,-15.344,-15.342,-15.344,-15.346,-15.348,-15.351,-15.354,-15.359,-15.36,-15.36,-15.359,-15.352,-15.346,-15.347,-15.346,-15.346,-15.34,-15.34,-15.336,-15.339,-15.335,-15.336,-15.329,-15.32,-15.323,-15.322,-15.317,-15.316,-15.312,-15.313,-15.317,-15.313,-15.315,-15.308,-15.31,-15.31,-15.31,-15.305,-15.302,-15.302,-15.306,-15.305,-15.3,-15.302,-15.296,-15.299,-15.3,-15.299,-15.298,-15.295,-15.302,-15.303,-15.302,-15.305,-15.306,-15.304,-15.312,-15.31,-15.315,-15.311,-15.312,-15.312,-15.312,-15.318,-15.315,-15.313,-15.311,-15.315,-15.315,-15.313,-15.317,-15.317,-15.313,-15.315,-15.312,-15.315,-15.316,-15.315,-15.31,-15.308,-15.308,-15.304,-15.308,-15.305,-15.307,-15.306,-15.305,-15.305,-15.302,-15.298,-15.289,-15.284,-15.274,-15.26,-15.251,-15.263,-15.266,-15.247,-15.234,-15.211,-15.202,-15.197,-15.207,-15.206,-15.203,-15.216,-15.227,-15.24,-15.246,-15.269,-15.297,-15.308,-15.309,-15.311,-15.307,-15.313,-15.311,-15.31,-15.313,-15.311,-15.31,-15.309,-15.309,-15.317,-15.314,-15.323,-15.35,-15.387,-15.392,-15.291,-15.059,-14.814,-14.558,-14.467,-14.703,-14.915,-15.096,-15.286,-15.349,-15.311,-15.333,-15.429,-15.422,-15.356,-15.31,-15.273,-15.257,-15.256,-15.253,-15.259,-15.249,-15.251,-15.244,-15.24,-15.234,-15.223,-15.212,-15.209,-15.201,-15.193,-15.187,-15.183,-15.179,-15.177,-15.163,-15.16,-15.15,-15.14,-15.13,-15.119,-15.108,-15.098,-15.081,-15.072,-15.059,-15.043,-15.028,-15.011,-14.993,-14.983,-14.959,-14.942,-14.925,-14.907,-14.892,-14.878,-14.866,-14.856,-14.849,-14.843,-14.842,-14.844,-14.856,-14.875,-14.905,-14.935,-14.973,-15.017,-15.059,-15.079,-15.116,-15.153,-15.194,-15.223,-15.249,-15.266,-15.283,-15.303,-15.32,-15.331,-15.341,-15.349,-15.356,-15.364,-15.37,-15.374,-15.377,-15.382,-15.388,-15.387,-15.391,-15.388,-15.388,-15.389,-15.393,-15.393,-15.393,-15.392,-15.397,-15.4,-15.402,-15.399,-15.399,-15.397,-15.398,-15.399,-15.393,-15.391,-15.385,-15.386,-15.385,-15.377,-15.376,-15.377,-15.381,-15.383,-15.382,-15.382,-15.386,-15.387,-15.387,-15.387,-15.39,-15.389,-15.392,-15.39,-15.39,-15.392,-15.392,-15.395,-15.397,-15.399,-15.397,-15.397,-15.397,-15.396,-15.396,-15.397,-15.401,-15.405,-15.405,-15.404,-15.406,-15.411,-15.413,-15.413,-15.414,-15.414,-15.415,-15.415,-15.417,-15.416,-15.415,-15.417,-15.419,-15.42,-15.42,-15.416,-15.424,-15.427,-15.43,-15.43,-15.43,-15.44,-15.44,-15.442,-15.443,-15.443,-15.444,-15.447,-15.45,-15.453,-15.448,-15.445,-15.433,-15.429,-15.414,-15.404,-15.411,-15.415,-15.411,-15.404,-15.396,-15.375,-15.381,-15.396,-15.398,-15.408,-15.412,-15.429,-15.436,-15.448,-15.465,-15.494,-15.512,-15.515,-15.519,-15.521,-15.521,-15.519,-15.524,-15.52,-15.522,-15.519,-15.521,-15.522,-15.521,-15.527,-15.535,-15.567,-15.604,-15.58,-15.452,-15.218,-14.999,-14.762,-14.688,-14.98,-15.092,-15.195,-15.509,-15.658,-15.684,-15.692,-15.615,-15.553,-15.51,-15.498,-15.499,-15.488,-15.494,-15.489,-15.485,-15.475,-15.473,-15.465,-15.463,-15.453,-15.446,-15.432,-15.429,-15.42,-15.416,-15.4,-15.398,-15.387,-15.384,-15.378,-15.368,-15.356,-15.345,-15.329,-15.32,-15.303,-15.289,-15.272,-15.259,-15.243,-15.221,-15.2,-15.181,-15.161,-15.148,-15.125,-15.088,-15.073,-15.053,-15.045,-15.029,-15.013,-15.002,-14.998,-14.993,-14.994,-14.997,-15.014,-15.037,-15.071,-15.11,-15.149,-15.185,-15.227,-15.273,-15.307,-15.334,-15.366,-15.397,-15.415,-15.437,-15.454,-15.472,-15.49,-15.5,-15.506,-15.507,-15.517,-15.522,-15.531,-15.533,-15.536,-15.536,-15.539,-15.542,-15.546,-15.543,-15.545,-15.542,-15.543,-15.538,-15.535,-15.528,-15.52,-15.518,-15.515,-15.509,-15.503,-15.5,-15.496,-15.49,-15.485,-15.481,-15.481,-15.481,-15.482,-15.481,-15.487,-15.485,-15.488,-15.492,-15.493,-15.489,-15.491,-15.491,-15.49,-15.489,-15.487,-15.487,-15.485,-15.483,-15.482,-15.483,-15.481,-15.482,-15.483,-15.486,-15.488,-15.489,-15.491,-15.49,-15.49,-15.492,-15.492,-15.493,-15.495,-15.496,-15.494,-15.492,-15.495,-15.498,-15.494,-15.496,-15.494,-15.498,-15.5,-15.5,-15.497,-15.497,-15.498,-15.499,-15.499,-15.496,-15.497,-15.496,-15.498,-15.496,-15.497,-15.499,-15.498,-15.501,-15.501,-15.501,-15.499,-15.499,-15.503,-15.503,-15.5,-15.502,-15.499,-15.501,-15.499,-15.499,-15.497,-15.499,-15.499,-15.495,-15.497,-15.497,-15.497,-15.497,-15.5,-15.493,-15.488,-15.479,-15.474,-15.464,-15.452,-15.454,-15.458,-15.455,-15.436,-15.43,-15.399,-15.392,-15.404,-15.407,-15.411,-15.419,-15.433,-15.434,-15.447,-15.465,-15.495,-15.51,-15.516,-15.518,-15.517,-15.518,-15.52,-15.52,-15.519,-15.521,-15.515,-15.517,-15.521,-15.524,-15.525,-15.53,-15.553,-15.592,-15.601,-15.513,-15.304,-15.073,-14.828,-14.658,-14.693,-15.001,-15.12,-15.23,-15.53,-15.636,-15.656,-15.664,-15.588,-15.524,-15.48,-15.462,-15.464,-15.458,-15.462,-15.454,-15.451,-15.446,-15.444,-15.438,-15.44,-15.425,-15.416,-15.401,-15.4,-15.391,-15.385,-15.378,-15.378,-15.37,-15.368,-15.357,-15.348,-15.34,-15.332,-15.321,-15.31,-15.293,-15.278,-15.26,-15.253,-15.237,-15.216,-15.198,-15.18,-15.16,-15.138,-15.112,-15.094,-15.077,-15.06,-15.045,-15.03,-15.02,-15.011,-15.004,-15.003,-15.005,-15.016,-15.034,-15.049,-15.075,-15.114,-15.149,-15.194,-15.238,-15.281,-15.318,-15.353,-15.387,-15.419,-15.441,-15.46,-15.476,-15.487,-15.503,-15.509,-15.513,-15.516,-15.521,-15.524,-15.531,-15.532,-15.533,-15.539,-15.544,-15.551,-15.552,-15.551,-15.549,-15.546,-15.548,-15.544,-15.541,-15.542,-15.539,-15.543,-15.542,-15.536,-15.534,-15.535,-15.536,-15.534,-15.529,-15.525,-15.522,-15.523,-15.521,-15.518,-15.516,-15.518,-15.521,-15.521,-15.52,-15.519,-15.521,-15.522,-15.526,-15.519,-15.525,-15.526,-15.528,-15.529,-15.526,-15.531,-15.535,-15.533,-15.534,-15.533,-15.532,-15.534,-15.537,-15.538,-15.535,-15.539,-15.537,-15.538,-15.541,-15.537,-15.54,-15.542,-15.546,-15.547,-15.549,-15.543,-15.547,-15.548,-15.549,-15.547,-15.549,-15.549,-15.554,-15.551,-15.554,-15.552,-15.551,-15.553,-15.553,-15.551,-15.551,-15.551,-15.551,-15.557,-15.559,-15.555,-15.554,-15.555,-15.553,-15.553,-15.553,-15.555,-15.557,-15.555,-15.554,-15.552,-15.551,-15.553,-15.553,-15.554,-15.552,-15.552,-15.554,-15.555,-15.554,-15.553,-15.553,-15.551,-15.549,-15.55,-15.546,-15.543,-15.544,-15.544,-15.541,-15.539,-15.539,-15.536,-15.536,-15.537,-15.537,-15.537,-15.534,-15.532,-15.532,-15.523,-15.508,-15.496,-15.488,-15.489,-15.474,-15.457,-15.435,-15.412,-15.424,-15.431,-15.432,-15.433,-15.447,-15.454,-15.453,-15.458,-15.481,-15.515,-15.521,-15.523,-15.521,-15.522,-15.522,-15.529,-15.527,-15.537,-15.542,-15.553,-15.553,-15.56,-15.557,-15.561,-15.568,-15.578,-15.616,-15.643,-15.578,-15.408,-15.161,-14.93,-14.713,-14.791,-15.055,-15.165,-15.3,-15.578,-15.642,-15.663,-15.659,-15.558,-15.512,-15.464,-15.465,-15.456,-15.456,-15.445,-15.445,-15.436,-15.437,-15.427,-15.427,-15.418,-15.418,-15.406,-15.405,-15.394,-15.393,-15.384,-15.383,-15.371,-15.364,-15.356,-15.353,-15.345,-15.34,-15.326,-15.317,-15.301,-15.292,-15.276,-15.262,-15.243,-15.228,-15.204,-15.19,-15.169,-15.148,-15.128,-15.108,-15.085,-15.063,-15.049,-15.03,-15.022,-15.015,-15.004,-14.996,-14.99,-14.99,-14.993,-15.006,-15.024,-15.047,-15.083,-15.122,-15.162,-15.197,-15.235,-15.269,-15.309,-15.337,-15.363,-15.375,-15.392,-15.412,-15.429,-15.436,-15.446,-15.453,-15.464,-15.465,-15.465,-15.469,-15.477,-15.48,-15.48,-15.482,-15.479,-15.485,-15.485,-15.484,-15.486,-15.485,-15.48,-15.48,-15.476,-15.478,-15.476,-15.471,-15.472,-15.475,-15.471,-15.459,-15.457,-15.45,-15.447,-15.451,-15.452,-15.448,-15.448,-15.443,-15.443,-15.438,-15.432,-15.43,-15.432,-15.432,-15.436,-15.433,-15.428,-15.433,-15.431,-15.433,-15.437,-15.429,-15.431,-15.435,-15.435,-15.435,-15.439,-15.435,-15.44,-15.44,-15.442,-15.446,-15.448,-15.451,-15.453,-15.453,-15.455,-15.461,-15.462,-15.466,-15.462,-15.466,-15.467,-15.47,-15.464,-15.46,-15.467,-15.467,-15.468,-15.463,-15.462,-15.461,-15.458,-15.456,-15.461,-15.452,-15.455,-15.456,-15.446,-15.451,-15.452,-15.449,-15.45,-15.446,-15.45,-15.45,-15.45,-15.45,-15.447,-15.446,-15.447,-15.449,-15.445,-15.447,-15.449,-15.444,-15.451,-15.44,-15.442,-15.443,-15.446,-15.449,-15.446,-15.439,-15.44,-15.435,-15.43,-15.432,-15.428,-15.428,-15.417,-15.408,-15.401,-15.405,-15.386,-15.377,-15.352,-15.341,-15.351,-15.36,-15.358,-15.363,-15.374,-15.383,-15.392,-15.411,-15.441,-15.453,-15.456,-15.457,-15.458,-15.458,-15.458,-15.46,-15.459,-15.46,-15.453,-15.449,-15.449,-15.451,-15.449,-15.452,-15.468,-15.509,-15.542,-15.515,-15.369,-15.112,-14.994,-14.743,-14.603,-14.817,-15.02,-15.204,-15.379,-15.493,-15.45,-15.511,-15.577,-15.53,-15.476,-15.426,-15.405,-15.393,-15.391,-15.387,-15.384,-15.383,-15.378,-15.375,-15.368,-15.362,-15.358,-15.35,-15.345,-15.337,-15.334,-15.323,-15.317,-15.311,-15.305,-15.302,-15.294,-15.284,-15.281,-15.276,-15.263,-15.258,-15.243,-15.232,-15.226,-15.21,-15.192,-15.177,-15.161,-15.14,-15.124,-15.106,-15.084,-15.065,-15.046,-15.03,-15.017,-15.004,-14.997,-14.991,-14.989,-14.987,-14.992,-14.997,-15.013,-15.047,-15.079,-15.114,-15.153,-15.197,-15.235,-15.27,-15.308,-15.339,-15.37,-15.395,-15.415,-15.434,-15.45,-15.465,-15.479,-15.482,-15.49,-15.497,-15.504,-15.51,-15.512,-15.517,-15.523,-15.527,-15.531,-15.532,-15.531,-15.529,-15.53,-15.529,-15.53,-15.526,-15.526,-15.527,-15.529,-15.528,-15.527,-15.522,-15.524,-15.526,-15.522,-15.52,-15.518,-15.513,-15.514,-15.508,-15.505,-15.505,-15.504,-15.506,-15.502,-15.503,-15.508,-15.507,-15.505,-15.508,-15.507,-15.508,-15.513,-15.516,-15.517,-15.519,-15.523,-15.528,-15.532,-15.533,-15.532,-15.533,-15.537,-15.541,-15.541,-15.539,-15.541,-15.542,-15.545,-15.546,-15.546,-15.545,-15.552,-15.555,-15.554,-15.554,-15.552,-15.549,-15.555,-15.557,-15.555,-15.557,-15.56,-15.56,-15.563,-15.564,-15.567,-15.571,-15.572,-15.577,-15.575,-15.581,-15.585,-15.593,-15.596,-15.599,-15.6,-15.608,-15.612,-15.61,-15.615,-15.616,-15.615,-15.619,-15.62,-15.621,-15.617,-15.614,-15.614,-15.615,-15.616,-15.615,-15.614,-15.62,-15.622,-15.621,-15.622,-15.624,-15.623,-15.63,-15.633,-15.624,-15.621,-15.623,-15.616,-15.601,-15.594,-15.603,-15.604,-15.588,-15.578,-15.555,-15.541,-15.557,-15.566,-15.576,-15.581,-15.593,-15.595,-15.597,-15.614,-15.645,-15.663,-15.668,-15.672,-15.671,-15.67,-15.667,-15.667,-15.669,-15.663,-15.661,-15.658,-15.654,-15.654,-15.65,-15.652,-15.664,-15.704,-15.723,-15.657,-15.481,-15.24,-15.016,-14.804,-14.892,-15.135,-15.173,-15.287,-15.577,-15.77,-15.792,-15.8,-15.724,-15.658,-15.612,-15.597,-15.593,-15.594,-15.595,-15.588,-15.585,-15.579,-15.58,-15.57,-15.565,-15.55,-15.546,-15.538,-15.535,-15.53,-15.524,-15.511,-15.513,-15.507,-15.509,-15.502,-15.494,-15.484,-15.474,-15.468,-15.456,-15.44,-15.43,-15.411,-15.396,-15.379,-15.367,-15.349,-15.33,-15.311,-15.292,-15.267,-15.243,-15.226,-15.213,-15.197,-15.18,-15.168,-15.159,-15.154,-15.153,-15.15,-15.159,-15.166,-15.19,-15.223,-15.238,-15.271,-15.291,-15.35,-15.395,-15.432,-15.464,-15.497,-15.532,-15.552,-15.577,-15.595,-15.609,-15.621,-15.634,-15.643,-15.647,-15.651,-15.658,-15.658,-15.662,-15.66,-15.663,-15.667,-15.668,-15.663,-15.665,-15.666,-15.661,-15.657,-15.656,-15.647,-15.645,-15.646,-15.645,-15.638,-15.635,-15.634,-15.63,-15.632,-15.628,-15.623,-15.62,-15.62,-15.617,-15.616,-15.61,-15.61,-15.605,-15.605,-15.603,-15.601,-15.596,-15.594,-15.592,-15.596,-15.59,-15.589,-15.595,-15.593,-15.593,-15.594,-15.591,-15.587,-15.593,-15.594,-15.596,-15.594,-15.592,-15.596,-15.597,-15.594,-15.597,-15.598,-15.597,-15.597,-15.591,-15.592,-15.596,-15.597,-15.6,-15.599,-15.597,-15.597,-15.6,-15.603,-15.602,-15.6,-15.598,-15.6,-15.602,-15.605,-15.603,-15.605,-15.604,-15.607,-15.604,-15.6,-15.602,-15.605,-15.609,-15.61,-15.605,-15.607,-15.609,-15.613,-15.611,-15.609,-15.612,-15.612,-15.614,-15.615,-15.614,-15.613,-15.611,-15.613,-15.615,-15.615,-15.612,-15.61,-15.613,-15.617,-15.615,-15.614,-15.611,-15.616,-15.618,-15.616,-15.616,-15.619,-15.617,-15.615,-15.614,-15.613,-15.618,-15.618,-15.618,-15.618,-15.618,-15.619,-15.622,-15.624,-15.625,-15.626,-15.623,-15.617,-15.615,-15.606,-15.599,-15.588,-15.581,-15.587,-15.582,-15.558,-15.543,-15.516,-15.517,-15.535,-15.532,-15.537,-15.549,-15.559,-15.558,-15.563,-15.575,-15.608,-15.625,-15.628,-15.632,-15.632,-15.635,-15.632,-15.632,-15.629,-15.629,-15.628,-15.635,-15.63,-15.63,-15.627,-15.632,-15.651,-15.688,-15.717,-15.675,-15.526,-15.285,-15.06,-14.825,-14.818,-15.123,-15.225,-15.339,-15.643,-15.745,-15.761,-15.765,-15.677,-15.645,-15.59,-15.563,-15.559,-15.558,-15.553,-15.55,-15.547,-15.54,-15.541,-15.534,-15.524,-15.512,-15.503,-15.49,-15.484,-15.478,-15.472,-15.464,-15.462,-15.452,-15.444,-15.438,-15.433,-15.423,-15.411,-15.397,-15.388,-15.37,-15.355,-15.337,-15.319,-15.295,-15.276,-15.256,-15.232,-15.208,-15.182,-15.156,-15.147,-15.126,-15.103,-15.085,-15.067,-15.058,-15.045,-15.028,-15.023,-15.019,-15.025,-15.032,-15.045,-15.065,-15.101,-15.132,-15.169,-15.207,-15.246,-15.285,-15.301,-15.335,-15.363,-15.385,-15.407,-15.433,-15.451,-15.459,-15.47,-15.476,-15.481,-15.486,-15.488,-15.484,-15.49,-15.497,-15.499,-15.497,-15.498,-15.5,-15.5,-15.5,-15.497,-15.489,-15.486,-15.484,-15.479,-15.473,-15.477,-15.473,-15.467,-15.462,-15.459,-15.453,-15.453,-15.452,-15.444,-15.44,-15.44,-15.439,-15.434,-15.436,-15.432,-15.43,-15.426,-15.429,-15.419,-15.421,-15.416,-15.416,-15.416,-15.415,-15.415,-15.414,-15.412,-15.413,-15.412,-15.417,-15.413,-15.413,-15.416,-15.414,-15.414,-15.409,-15.407,-15.407,-15.401,-15.401,-15.403,-15.401,-15.401,-15.402,-15.399,-15.398,-15.399,-15.398,-15.399,-15.402,-15.401,-15.396,-15.398,-15.391,-15.399,-15.393,-15.393,-15.389,-15.394,-15.388,-15.389,-15.391,-15.386,-15.386,-15.387,-15.38,-15.376,-15.377,-15.375,-15.375,-15.373,-15.372,-15.367,-15.368,-15.368,-15.369,-15.367,-15.366,-15.364,-15.366,-15.358,-15.366,-15.359,-15.36,-15.36,-15.356,-15.355,-15.354,-15.357,-15.357,-15.349,-15.347,-15.351,-15.352,-15.358,-15.358,-15.354,-15.352,-15.339,-15.333,-15.319,-15.312,-15.317,-15.303,-15.293,-15.277,-15.26,-15.252,-15.274,-15.265,-15.268,-15.277,-15.279,-15.291,-15.303,-15.32,-15.35,-15.361,-15.367,-15.368,-15.373,-15.375,-15.363,-15.37,-15.368,-15.371,-15.372,-15.377,-15.375,-15.367,-15.367,-15.373,-15.391,-15.427,-15.453,-15.405,-15.23,-14.975,-14.726,-14.528,-14.596,-14.862,-15.04,-15.195,-15.371,-15.357,-15.363,-15.466,-15.444,-15.391,-15.366,-15.314,-15.295,-15.286,-15.271,-15.28,-15.267,-15.27,-15.262,-15.264,-15.253,-15.245,-15.234,-15.232,-15.217,-15.219,-15.215,-15.211,-15.21,-15.205,-15.197,-15.194,-15.187,-15.177,-15.16,-15.154,-15.144,-15.135,-15.119,-15.109,-15.099,-15.088,-15.065,-15.043,-15.019,-15.001,-14.98,-14.961,-14.941,-14.917,-14.908,-14.895,-14.877,-14.865,-14.855,-14.841,-14.831,-14.833,-14.841,-14.854,-14.872,-14.9,-14.932,-14.968,-15.005,-15.042,-15.08,-15.117,-15.148,-15.179,-15.199,-15.229,-15.251,-15.269,-15.283,-15.295,-15.307,-15.316,-15.329,-15.329,-15.333,-15.338,-15.349,-15.348,-15.352,-15.358,-15.361,-15.361,-15.357,-15.354,-15.357,-15.357,-15.359,-15.35,-15.354,-15.352,-15.351,-15.346,-15.351,-15.346,-15.345,-15.346,-15.339,-15.337,-15.339,-15.334,-15.344,-15.341,-15.342,-15.337,-15.341,-15.337,-15.343,-15.34,-15.334,-15.334,-15.341,-15.338,-15.339,-15.344,-15.34,-15.349,-15.352,-15.348,-15.351,-15.354,-15.36,-15.357,-15.361,-15.361,-15.364,-15.364,-15.367,-15.369,-15.371,-15.373,-15.374,-15.382,-15.377,-15.381,-15.382,-15.381,-15.379,-15.375,-15.38,-15.387,-15.386,-15.386,-15.387,-15.388,-15.392,-15.394,-15.399,-15.394,-15.401,-15.405,-15.4,-15.4,-15.397,-15.388,-15.386,-15.369,-15.366,-15.378,-15.369,-15.363,-15.363,-15.345,-15.322,-15.325,-15.333,-15.344,-15.341,-15.351,-15.364,-15.371,-15.385,-15.405,-15.433,-15.456,-15.456,-15.462,-15.458,-15.469,-15.472,-15.475,-15.474,-15.475,-15.479,-15.477,-15.484,-15.485,-15.488,-15.496,-15.534,-15.584,-15.593,-15.47,-15.234,-15.004,-14.734,-14.626,-14.869,-15.031,-15.187,-15.422,-15.554,-15.553,-15.576,-15.647,-15.592,-15.533,-15.477,-15.462,-15.456,-15.455,-15.454,-15.453,-15.454,-15.452,-15.446,-15.448,-15.433,-15.431,-15.424,-15.419,-15.413,-15.412,-15.405,-15.405,-15.399,-15.397,-15.389,-15.387,-15.383,-15.375,-15.363,-15.355,-15.345,-15.34,-15.329,-15.316,-15.301,-15.286,-15.269,-15.244,-15.23,-15.206,-15.196,-15.18,-15.155,-15.136,-15.118,-15.103,-15.09,-15.079,-15.069,-15.069,-15.067,-15.074,-15.085,-15.11,-15.135,-15.174,-15.216,-15.257,-15.295,-15.335,-15.358,-15.39,-15.426,-15.451,-15.481,-15.499,-15.522,-15.538,-15.549,-15.554,-15.566,-15.572,-15.58,-15.582,-15.589,-15.588,-15.6,-15.596,-15.604,-15.607,-15.609,-15.614,-15.615,-15.612,-15.613,-15.617,-15.614,-15.612,-15.614,-15.617,-15.613,-15.616,-15.615,-15.614,-15.614,-15.61,-15.613,-15.612,-15.609,-15.61,-15.61,-15.609,-15.612,-15.612,-15.612,-15.612,-15.616,-15.619,-15.618,-15.614,-15.615,-15.616,-15.618,-15.623,-15.626,-15.628,-15.631,-15.633,-15.637,-15.635,-15.635,-15.635,-15.639,-15.639,-15.641,-15.638,-15.641,-15.642,-15.643,-15.642,-15.642,-15.647,-15.65,-15.649,-15.649,-15.655,-15.655,-15.655,-15.656,-15.658,-15.659,-15.658,-15.663,-15.667,-15.664,-15.664,-15.663,-15.659,-15.66,-15.66,-15.658,-15.661,-15.662,-15.663,-15.661,-15.665,-15.665,-15.658,-15.662,-15.652,-15.645,-15.63,-15.616,-15.625,-15.627,-15.616,-15.609,-15.602,-15.581,-15.57,-15.582,-15.585,-15.59,-15.598,-15.609,-15.611,-15.624,-15.64,-15.657,-15.682,-15.692,-15.693,-15.693,-15.697,-15.699,-15.697,-15.697,-15.697,-15.7,-15.699,-15.698,-15.698,-15.7,-15.717,-15.751,-15.796,-15.771,-15.645,-15.537,-15.305,-15.039,-14.82,-14.938,-15.15,-15.244,-15.439,-15.734,-15.815,-15.837,-15.822,-15.712,-15.666,-15.633,-15.645,-15.629,-15.64,-15.622,-15.625,-15.613,-15.618,-15.601,-15.604,-15.591,-15.59,-15.577,-15.579,-15.563,-15.571,-15.56,-15.555,-15.541,-15.542,-15.527,-15.525,-15.513,-15.506,-15.49,-15.484,-15.47,-15.459,-15.438,-15.424,-15.408,-15.388,-15.371,-15.35,-15.325,-15.305,-15.283,-15.262,-15.236,-15.216,-15.195,-15.181,-15.165,-15.155,-15.144,-15.138,-15.137,-15.14,-15.149,-15.163,-15.188,-15.221,-15.259,-15.3,-15.341,-15.377,-15.415,-15.449,-15.485,-15.507,-15.534,-15.555,-15.575,-15.588,-15.602,-15.601,-15.613,-15.621,-15.628,-15.63,-15.635,-15.634,-15.64,-15.641,-15.646,-15.64,-15.642,-15.641,-15.64,-15.637,-15.632,-15.625,-15.627,-15.618,-15.618,-15.612,-15.614,-15.608,-15.608,-15.607,-15.605,-15.599,-15.599,-15.599,-15.602,-15.597,-15.597,-15.593,-15.595,-15.589,-15.588,-15.585,-15.59,-15.586,-15.587,-15.584,-15.586,-15.585,-15.588,-15.587,-15.585,-15.586,-15.588,-15.587,-15.587,-15.588,-15.585,-15.584,-15.588,-15.585,-15.587,-15.583,-15.583,-15.583,-15.58,-15.577,-15.58,-15.579,-15.579,-15.579,-15.578,-15.576,-15.576,-15.575,-15.578,-15.577,-15.572,-15.575,-15.574,-15.574,-15.576,-15.574,-15.569,-15.57,-15.568,-15.571,-15.568,-15.566,-15.569,-15.568,-15.569,-15.567,-15.567,-15.569,-15.574,-15.572,-15.569,-15.567,-15.569,-15.567,-15.563,-15.566,-15.563,-15.568,-15.568,-15.57,-15.566,-15.562,-15.565,-15.568,-15.567,-15.565,-15.564,-15.563,-15.565,-15.565,-15.562,-15.563,-15.564,-15.566,-15.567,-15.565,-15.558,-15.557,-15.55,-15.543,-15.526,-15.525,-15.526,-15.519,-15.508,-15.48,-15.458,-15.481,-15.485,-15.488,-15.497,-15.513,-15.515,-15.515,-15.533,-15.564,-15.583,-15.591,-15.594,-15.598,-15.593,-15.596,-15.598,-15.597,-15.597,-15.594,-15.59,-15.592,-15.593,-15.593,-15.592,-15.605,-15.639,-15.677,-15.663,-15.544,-15.311,-15.088,-14.954,-14.739,-14.852,-15.082,-15.166,-15.347,-15.64,-15.726,-15.744,-15.714,-15.614,-15.573,-15.539,-15.545,-15.53,-15.545,-15.532,-15.536,-15.52,-15.526,-15.517,-15.52,-15.502,-15.502,-15.483,-15.486,-15.477,-15.482,-15.466,-15.463,-15.456,-15.455,-15.446,-15.444,-15.428,-15.425,-15.408,-15.402,-15.385,-15.379,-15.368,-15.355,-15.337,-15.321,-15.303,-15.285,-15.265,-15.246,-15.224,-15.203,-15.185,-15.164,-15.148,-15.13,-15.114,-15.1,-15.093,-15.09,-15.093,-15.093,-15.098,-15.105,-15.132,-15.153,-15.192,-15.224,-15.27,-15.307,-15.352,-15.383,-15.421,-15.452,-15.483,-15.5,-15.52,-15.535,-15.554,-15.563,-15.574,-15.574,-15.577,-15.584,-15.597,-15.596,-15.603,-15.601,-15.604,-15.608,-15.614,-15.607,-15.606,-15.609,-15.609,-15.6,-15.595,-15.584,-15.579,-15.58,-15.581,-15.579,-15.577,-15.574,-15.57,-15.569,-15.568,-15.56,-15.559,-15.554,-15.554,-15.549,-15.546,-15.544,-15.542,-15.542,-15.54,-15.538,-15.538,-15.536,-15.536,-15.538,-15.535,-15.535,-15.539,-15.532,-15.536,-15.531,-15.532,-15.534,-15.533,-15.531,-15.526,-15.521,-15.523,-15.525,-15.522,-15.524,-15.524,-15.519,-15.521,-15.516,-15.518,-15.515,-15.52,-15.52,-15.521,-15.514,-15.516,-15.519,-15.517,-15.514,-15.517,-15.515,-15.511,-15.509,-15.507,-15.504,-15.504,-15.507,-15.505,-15.507,-15.508,-15.504,-15.501,-15.504,-15.499,-15.502,-15.494,-15.497,-15.495,-15.493,-15.498,-15.499,-15.5,-15.493,-15.489,-15.487,-15.487,-15.491,-15.491,-15.493,-15.491,-15.482,-15.482,-15.484,-15.489,-15.488,-15.483,-15.482,-15.481,-15.482,-15.475,-15.475,-15.476,-15.481,-15.475,-15.477,-15.477,-15.483,-15.485,-15.478,-15.471,-15.473,-15.455,-15.45,-15.435,-15.436,-15.426,-15.411,-15.396,-15.378,-15.369,-15.378,-15.38,-15.382,-15.397,-15.407,-15.411,-15.423,-15.433,-15.463,-15.478,-15.484,-15.478,-15.479,-15.483,-15.48,-15.481,-15.475,-15.475,-15.477,-15.478,-15.476,-15.482,-15.48,-15.489,-15.51,-15.557,-15.571,-15.562,-15.433,-15.182,-14.948,-14.684,-14.624,-14.914,-15.063,-15.207,-15.425,-15.489,-15.489,-15.568,-15.581,-15.508,-15.469,-15.424,-15.412,-15.407,-15.407,-15.395,-15.394,-15.389,-15.386,-15.377,-15.37,-15.355,-15.355,-15.345,-15.342,-15.331,-15.321,-15.324,-15.319,-15.314,-15.298,-15.286,-15.285,-15.275,-15.275,-15.265,-15.249,-15.239,-15.229,-15.215,-15.206,-15.192,-15.17,-15.152,-15.132,-15.108,-15.088,-15.063,-15.041,-15.022,-15.008,-14.985,-14.974,-14.959,-14.953,-14.944,-14.94,-14.939,-14.94,-14.946,-14.966,-14.99,-15.018,-15.051,-15.092,-15.125,-15.167,-15.209,-15.241,-15.273,-15.301,-15.323,-15.343,-15.361,-15.368,-15.384,-15.396,-15.408,-15.415,-15.416,-15.419,-15.42,-15.426,-15.434,-15.432,-15.442,-15.44,-15.449,-15.44,-15.444,-15.446,-15.445,-15.439,-15.444,-15.445,-15.446,-15.443,-15.439,-15.443,-15.447,-15.439,-15.441,-15.439,-15.438,-15.435,-15.439,-15.433,-15.432,-15.431,-15.43,-15.432,-15.432,-15.43,-15.431,-15.433,-15.433,-15.433,-15.436,-15.439,-15.44,-15.446,-15.448,-15.447,-15.45,-15.454,-15.454,-15.451,-15.454,-15.456,-15.459,-15.456,-15.462,-15.46,-15.46,-15.465,-15.472,-15.471,-15.47,-15.474,-15.476,-15.479,-15.484,-15.485,-15.488,-15.49,-15.489,-15.491,-15.492,-15.493,-15.494,-15.492,-15.496,-15.497,-15.497,-15.501,-15.503,-15.507,-15.505,-15.508,-15.507,-15.511,-15.509,-15.514,-15.515,-15.514,-15.521,-15.523,-15.52,-15.516,-15.514,-15.508,-15.503,-15.495,-15.487,-15.49,-15.495,-15.492,-15.476,-15.464,-15.44,-15.446,-15.458,-15.462,-15.473,-15.481,-15.502,-15.501,-15.507,-15.535,-15.564,-15.577,-15.583,-15.581,-15.583,-15.587,-15.588,-15.589,-15.582,-15.589,-15.601,-15.609,-15.607,-15.603,-15.605,-15.614,-15.645,-15.694,-15.711,-15.629,-15.43,-15.196,-14.926,-14.809,-14.764,-15.021,-15.182,-15.296,-15.586,-15.677,-15.701,-15.763,-15.736,-15.654,-15.606,-15.579,-15.585,-15.574,-15.584,-15.572,-15.579,-15.569,-15.572,-15.561,-15.563,-15.552,-15.553,-15.544,-15.544,-15.53,-15.532,-15.529,-15.523,-15.509,-15.509,-15.503,-15.503,-15.49,-15.487,-15.476,-15.469,-15.459,-15.451,-15.439,-15.424,-15.407,-15.386,-15.371,-15.355,-15.329,-15.309,-15.291,-15.275,-15.252,-15.236,-15.217,-15.203,-15.197,-15.186,-15.18,-15.178,-15.18,-15.192,-15.196,-15.215,-15.244,-15.284,-15.326,-15.363,-15.405,-15.441,-15.479,-15.512,-15.545,-15.57,-15.593,-15.614,-15.634,-15.643,-15.654,-15.661,-15.668,-15.672,-15.678,-15.682,-15.689,-15.687,-15.694,-15.697,-15.704,-15.703,-15.708,-15.709,-15.711,-15.704,-15.708,-15.707,-15.71,-15.705,-15.694,-15.683,-15.688,-15.7,-15.71,-15.701,-15.693,-15.685,-15.682,-15.679,-15.679,-15.688,-15.688,-15.688,-15.687,-15.682,-15.679,-15.685,-15.69,-15.687,-15.688,-15.671,-15.678,-15.687,-15.687,-15.687,-15.694,-15.693,-15.694,-15.696,-15.704,-15.705,-15.702,-15.702,-15.701,-15.7,-15.706,-15.713,-15.709,-15.714,-15.714,-15.712,-15.71,-15.713,-15.72,-15.716,-15.718,-15.724,-15.724,-15.724,-15.729,-15.728,-15.728,-15.731,-15.732,-15.735,-15.739,-15.741,-15.737,-15.743,-15.744,-15.738,-15.739,-15.737,-15.739,-15.737,-15.735,-15.735,-15.738,-15.738,-15.739,-15.743,-15.739,-15.731,-15.732,-15.734,-15.733,-15.737,-15.736,-15.741,-15.738,-15.728,-15.727,-15.74,-15.735,-15.728,-15.738,-15.74,-15.724,-15.738,-15.745,-15.741,-15.732,-15.735,-15.738,-15.729,-15.73,-15.739,-15.73,-15.739,-15.741,-15.731,-15.722,-15.7,-15.684,-15.703,-15.702,-15.67,-15.656,-15.634,-15.623,-15.65,-15.647,-15.63,-15.636,-15.652,-15.655,-15.649,-15.674,-15.703,-15.729,-15.738,-15.738,-15.725,-15.727,-15.734,-15.731,-15.721,-15.721,-15.722,-15.722,-15.72,-15.724,-15.724,-15.716,-15.733,-15.786,-15.825,-15.754,-15.583,-15.339,-15.098,-14.964,-14.825,-15.098,-15.204,-15.285,-15.63,-15.801,-15.852,-15.836,-15.768,-15.69,-15.654,-15.629,-15.655,-15.641,-15.646,-15.63,-15.639,-15.624,-15.639,-15.626,-15.616,-15.603,-15.616,-15.592,-15.598,-15.578,-15.582,-15.569,-15.577,-15.564,-15.56,-15.54,-15.544,-15.534,-15.524,-15.518,-15.505,-15.486,-15.481,-15.473,-15.465,-15.439,-15.422,-15.402,-15.38,-15.365,-15.334,-15.332,-15.305,-15.29,-15.269,-15.252,-15.237,-15.212,-15.21,-15.194,-15.193,-15.192,-15.194,-15.212,-15.223,-15.241,-15.271,-15.302,-15.339,-15.382,-15.415,-15.46,-15.495,-15.526,-15.56,-15.579,-15.596,-15.621,-15.642,-15.648,-15.651,-15.662,-15.666,-15.679,-15.676,-15.686,-15.681,-15.683,-15.686,-15.691,-15.685,-15.691,-15.684,-15.693,-15.686,-15.677,-15.677,-15.678,-15.672,-15.67,-15.665,-15.665,-15.659,-15.656,-15.65,-15.649,-15.646,-15.643,-15.637,-15.645,-15.64,-15.64,-15.629,-15.633,-15.629,-15.626,-15.62,-15.626,-15.618,-15.627,-15.619,-15.616,-15.616,-15.619,-15.617,-15.621,-15.621,-15.622,-15.618,-15.622,-15.615,-15.615,-15.622,-15.629,-15.624,-15.622,-15.615,-15.618,-15.616,-15.624,-15.619,-15.622
