2.8138,2.7954,2.8551,2.8162,2.7974,2.8201,2.8356,2.7455,2.7239,2.6885,2.6479,2.5871,2.5439,2.4662,2.4342,2.4015,2.3541,2.3191,2.2704,2.2409,2.1972,2.2031,2.197,2.1659,2.164,2.1579,2.2003,2.182,2.1969,2.1875,2.1881,2.1797,2.2003,2.2071,2.1965,2.2226,2.19,2.2288,2.2233,2.2131,2.2168,2.2334,2.2234,2.2211,2.2094,2.1944,2.1946,2.2143,2.1523,2.1547,2.1085,2.0423,2.0401,2.0359,1.9824,1.8838,2.0145,2.1271,2.1458,2.0815,2.0715,2.1563,2.1414,2.1431,2.125,2.1276,2.1196,2.1493,2.1414,2.1572,2.1797,2.2051,2.1776,2.1892,2.1899,2.1509,2.1712,2.2196,2.2145,2.1918,2.1834,2.1722,2.1967,2.2123,2.2129,2.1607,2.1553,2.1678,2.1766,2.1655,2.197,2.1637,2.1615,2.2535,2.2471,2.2744,2.3039,2.3038,2.2936,2.2687,2.2874,2.2648,2.2419,2.2427,2.2428,2.2387,2.2383,2.1828,2.1225,2.1624,2.1505,2.1369,2.1253,2.1264,2.1094,2.079,2.0912,2.0601,2.0532,2.0949,2.0882,2.1079,2.1633,2.3014,2.3951,2.542,2.6997,2.9032,3.0138,2.7175,2.1677,1.6704,1.6118,1.729,1.9018,2.0667,2.1603,2.1913,2.182,2.1745,2.1768,2.1799,2.1652,2.153,2.1629,2.1573,2.1547,2.157,2.1763,2.1843,2.1807,2.2055,2.2035,2.1884,2.1951,2.212,2.2156,2.2428,2.25,2.2645,2.2718,2.2779,2.2943,2.2983,2.3056,2.3319,2.3499,2.3518,2.3496,2.3613,2.3921,2.3993,2.4162,2.4177,2.4195,2.4633,2.4705,2.4784,2.4862,2.5108,2.5348,2.5615,2.5562,2.5658,2.5743,2.5881,2.6093,2.6064,2.6305,2.6203,2.6267,2.6424,2.6267,2.611,2.6075,2.5745,2.5144,2.4704,2.4281,2.3567,2.3448,2.2942,2.2511,2.253,2.2012,2.1651,2.1508,2.1188,2.1031,2.0986,2.1023,2.1219,2.1347,2.1242,2.099,2.1209,2.1096,2.0997,2.1068,2.1015,2.1213,2.1133,2.1208,2.1336,2.1255,2.1291,2.1384,2.1166,2.0929,2.113,2.1065,2.1144,2.1128,2.1103,2.1043,2.1142,2.1043,2.1181,2.0917,2.1001,2.098,2.0861,2.0974,2.09,2.0935,2.0797,2.0804,2.0697,2.0858,2.0798,2.0849,2.0635,2.0606,2.0522,2.0539,2.0506,2.0225,2.0178,2.0245,2.0151,2.0376,2.0639,2.0543,2.0834,2.0622,2.048,2.0161,2.1275,2.1951,2.151,2.1788,2.1512,2.1327,2.1361,2.0929,2.0447,1.9944,1.9539,1.9077,1.8285,1.7798,1.7066,1.6631,1.6169,1.5798,1.5464,1.507,1.4719,1.4635,1.4333,1.4324,1.4285,1.4465,1.4992,1.624,1.8188,2.0066,2.2283,2.5051,2.6783,2.6051,2.1787,1.6295,1.408,1.4211,1.546,1.7061,1.8179,1.9426,2.0027,1.9971,1.978,1.9851,1.9965,2.0313,2.0499,2.0823,2.0984,2.1348,2.1437,2.1467,2.155,2.1718,2.1711,2.1682,2.1637,2.1628,2.1642,2.1661,2.1682,2.1863,2.176,2.1618,2.1744,2.1624,2.1811,2.1847,2.1995,2.1997,2.2218,2.2545,2.2784,2.2804,2.2833,2.3266,2.3746,2.4123,2.4359,2.4534,2.5056,2.5369,2.5716,2.6119,2.6313,2.6577,2.6845,2.7229,2.7428,2.7285,2.7451,2.7796,2.8019,2.8101,2.8222,2.8188,2.8114,2.8007,2.7646,2.7123,2.6866,2.6418,2.5929,2.5557,2.505,2.4375,2.4416,2.4036,2.3759,2.338,2.3096,2.2619,2.2318,2.2114,2.1981,2.1705,2.1514,2.1317,2.1132,2.0877,2.0618,2.0529,2.0589,2.0301,2.0153,2.0034,2.0026,1.9847,1.9681,1.96,1.9549,1.9573,1.9311,1.9237,1.9053,1.8972,1.888,1.8987,1.8891,1.8956,1.8862,1.8814,1.8949,1.905,1.9128,1.9255,1.9348,1.9465,1.9482,1.9518,1.9626,1.9774,1.9971,2.0017,1.9901,1.9974,1.9893,1.9769,1.9351,1.9286,1.9034,1.8929,1.8832,1.8827,1.8744,1.8632,1.8635,1.8665,1.8784,1.8848,1.8762,1.8588,1.8625,1.9008,1.9076,1.8913,1.8969,1.8978,1.9069,1.9807,2.0719,2.2236,2.3624,2.5232,2.7556,2.8936,2.7946,2.4609,1.9101,1.7868,1.9957,2.1629,2.3548,2.4058,2.5303,2.5495,2.5756,2.5602,2.5499,2.5495,2.5689,2.5611,2.5511,2.5536,2.5493,2.5626,2.555,2.5362,2.5678,2.5648,2.5599,2.5763,2.5891,2.6084,2.6223,2.6429,2.6396,2.6238,2.6358,2.6683,2.6609,2.6664,2.668,2.6968,2.7096,2.7278,2.721,2.735,2.7473,2.7596,2.7718,2.789,2.7887,2.7989,2.8128,2.8183,2.8256,2.8335,2.8447,2.851,2.8474,2.8394,2.8461,2.847,2.8497,2.8441,2.8281,2.8146,2.799,2.7694,2.7402,2.6904,2.6483,2.6181,2.5661,2.5183,2.4732,2.4223,2.376,2.3326,2.3115,2.2943,2.2798,2.2453,2.2299,2.2218,2.212,2.1999,2.1832,2.1837,2.1759,2.1697,2.1684,2.1725,2.1658,2.1639,2.1736,2.1712,2.1604,2.1713,2.1615,2.1823,2.1727,2.1771,2.1666,2.1832,2.179,2.1728,2.1842,2.1783,2.1712,2.1634,2.19,2.1814,2.1833,2.1633,2.1675,2.1591,2.1672,2.1637,2.1919,2.1972,2.2147,2.2044,2.1883,2.2108,2.2411,2.2629,2.252,2.263,2.2563,2.2288,2.2221,2.2224,2.1845,2.1594,2.1518,2.145,2.1207,2.1233,2.0959,2.0763,2.1052,2.0953,2.0713,2.0582,2.0913,2.0939,2.0832,2.0898,2.071,2.0816,2.0844,2.0877,2.1186,2.1832,2.3232,2.4615,2.6052,2.8267,3.0093,3.0207,2.6894,2.069,1.7274,1.7867,1.8871,1.9512,2.0576,2.138,2.16,2.1649,2.1588,2.1708,2.1558,2.1509,2.1605,2.1734,2.1841,2.1741,2.2008,2.1948,2.1885,2.2172,2.2038,2.2317,2.2181,2.2355,2.2629,2.2873,2.2843,2.2784,2.2947,2.3043,2.3229,2.324,2.3268,2.3563,2.3594,2.3918,2.4074,2.4116,2.427,2.4509,2.4767,2.4988,2.5107,2.4901,2.5442,2.5861,2.5921,2.6338,2.6581,2.6879,2.7245,2.7633,2.7992,2.7885,2.7903,2.7971,2.8009,2.8086,2.7873,2.7625,2.7592,2.7107,2.6607,2.6157,2.5732,2.527,2.4771,2.4512,2.3959,2.3726,2.3453,2.3149,2.2767,2.2515,2.2433,2.2355,2.21,2.2083,2.1991,2.1844,2.1878,2.1766,2.1723,2.1644,2.169,2.1654,2.1705,2.1812,2.1719,2.1731,2.1897,2.1902,2.2004,2.1943,2.2022,2.2173,2.2279,2.2481,2.259,2.2655,2.2883,2.2934,2.3006,2.3091,2.289,2.3143,2.3228,2.3248,2.3227,2.3192,2.3135,2.3149,2.3152,2.3186,2.3101,2.2932,2.3041,2.2897,2.3113,2.3077,2.3137,2.3427,2.3664,2.3453,2.3402,2.355,2.3797,2.3901,2.4034,2.3917,2.4187,2.4048,2.3948,2.368,2.3619,2.318,2.2925,2.3053,2.3045,2.2836,2.2703,2.2574,2.2588,2.2646,2.2483,2.2345,2.2393,2.2528,2.2501,2.2406,2.2397,2.2403,2.2405,2.2549,2.2935,2.3746,2.5017,2.6708,2.8318,3.0722,3.2311,3.1848,2.8093,2.2044,1.9486,2.0271,2.0912,2.1552,2.2243,2.3201,2.3639,2.3571,2.3572,2.3576,2.3567,2.3722,2.3717,2.3574,2.3816,2.3786,2.3659,2.3803,2.382,2.3907,2.3922,2.394,2.3958,2.4005,2.4214,2.4214,2.4397,2.4351,2.4386,2.4563,2.4754,2.4814,2.4748,2.4777,2.4996,2.5161,2.5202,2.5241,2.5544,2.5526,2.588,2.6069,2.6088,2.638,2.6491,2.6728,2.6897,2.7097,2.7212,2.7415,2.7474,2.7766,2.7841,2.7938,2.7838,2.8043,2.8169,2.8304,2.8178,2.8228,2.8074,2.7806,2.7405,2.7097,2.68,2.6507,2.6036,2.5605,2.5264,2.4846,2.461,2.4445,2.4199,2.4017,2.3688,2.3737,2.3585,2.3526,2.3295,2.3242,2.3311,2.3385,2.3308,2.3127,2.3137,2.3294,2.3348,2.3317,2.3275,2.3244,2.3325,2.3277,2.3433,2.3462,2.3443,2.3557,2.347,2.3543,2.3518,2.3504,2.3586,2.3599,2.3733,2.3659,2.3659,2.3634,2.3651,2.3738,2.3714,2.3624,2.357,2.3616,2.368,2.3536,2.3507,2.3565,2.3553,2.3601,2.3503,2.3392,2.3342,2.3385,2.3437,2.3492,2.3448,2.328,2.3304,2.3439,2.3386,2.3347,2.3309,2.3301,2.3361,2.352,2.3399,2.323,2.3282,2.328,2.3438,2.3324,2.3211,2.3214,2.3353,2.3344,2.3387,2.3289,2.3342,2.3277,2.3377,2.3411,2.3291,2.3159,2.3197,2.3386,2.3397,2.3334,2.3394,2.3363,2.3401,2.3359,2.3459,2.328,2.3374,2.3432,2.3479,2.3548,2.3412,2.3487,2.3812,2.3885,2.3881,2.3835,2.3871,2.3789,2.4019,2.4196,2.4313,2.4199,2.4244,2.4193,2.4228,2.4117,2.3906,2.3839,2.3786,2.3658,2.3546,2.3434,2.3307,2.3318,2.3271,2.319,2.3111,2.3207,2.3274,2.332,2.3294,2.3123,2.314,2.3421,2.3419,2.3268,2.3375,2.4201,2.4883,2.618,2.7415,2.919,3.1734,3.3354,3.2907,2.9278,2.308,2.0934,2.1517,2.1925,2.2531,2.3596,2.4342,2.4357,2.4476,2.4348,2.4258,2.4184,2.4271,2.4084,2.4232,2.4163,2.4244,2.4225,2.4299,2.4246,2.4406,2.4407,2.4545,2.4541,2.4637,2.4632,2.4614,2.4812,2.4966,2.4908,2.4979,2.4959,2.5033,2.5223,2.5405,2.547,2.5531,2.563,2.5765,2.5916,2.6061,2.6209,2.6346,2.6558,2.6717,2.6843,2.6903,2.7154,2.7394,2.7573,2.7747,2.7826,2.791,2.8253,2.8186,2.8327,2.8417,2.8384,2.8581,2.8761,2.8768,2.8677,2.8483,2.8341,2.8087,2.7789,2.7295,2.702,2.6637,2.6227,2.5964,2.5793,2.5371,2.5164,2.5016,2.478,2.4739,2.4386,2.4322,2.4388,2.4307,2.4205,2.4087,2.4104,2.4135,2.4126,2.3993,2.4023,2.3973,2.4039,2.4057,2.402,2.4098,2.411,2.4161,2.4212,2.4292,2.4151,2.4095,2.4279,2.4378,2.4619,2.4421,2.4518,2.4836,2.4728,2.447,2.4528,2.4226,2.4357,2.4474,2.4478,2.4078,2.4019,2.4127,2.414,2.427,2.4057,2.4033,2.4039,2.4017,2.4032,2.3945,2.3832,2.3841,2.3971,2.4021,2.3938,2.393,2.3779,2.3821,2.3875,2.3765,2.3919,2.3795,2.3847,2.3859,2.3777,2.3841,2.3766,2.3669,2.3582,2.3654,2.3584,2.3465,2.3537,2.361,2.3595,2.3504,2.3543,2.355,2.349,2.3534,2.3563,2.3594,2.35,2.354,2.3593,2.3652,2.3448,2.3446,2.3613,2.3695,2.3447,2.3577,2.3427,2.3491,2.3578,2.3567,2.3487,2.3579,2.362,2.3679,2.3525,2.3424,2.3476,2.3576,2.3583,2.3624,2.354,2.3507,2.3504,2.3631,2.3598,2.3679,2.3739,2.3741,2.4013,2.4328,2.4146,2.3976,2.4077,2.4125,2.4235,2.4148,2.4121,2.3957,2.3918,2.3891,2.3734,2.3477,2.34,2.3376,2.3404,2.3367,2.3171,2.317,2.3267,2.3203,2.3188,2.3176,2.3222,2.3154,2.3232,2.3211,2.3383,2.4219,2.5493,2.6955,2.8549,3.0914,3.2926,3.3305,3.0511,2.4623,2.0639,2.0763,2.1741,2.2265,2.3418,2.4222,2.4318,2.4356,2.4411,2.4448,2.4483,2.445,2.4495,2.4559,2.4651,2.4718,2.4759,2.4701,2.4782,2.4874,2.4912,2.5005,2.5149,2.5175,2.5374,2.5418,2.5418,2.5499,2.5684,2.5944,2.5986,2.6021,2.5989,2.6123,2.6373,2.6475,2.6477,2.6443,2.672,2.6926,2.7137,2.7287,2.7294,2.7449,2.7748,2.792,2.8054,2.8185,2.8384,2.8554,2.8723,2.8942,2.9034,2.9051,2.9236,2.9387,2.9378,2.9449,2.9449,2.9629,2.9585,2.9492,2.9189,2.8974,2.8683,2.8332,2.8087,2.7742,2.7328,2.6907,2.6631,2.6476,2.5936,2.567,2.554,2.5405,2.5198,2.4992,2.49,2.4864,2.4876,2.476,2.478,2.4714,2.4669,2.4747,2.4731,2.4701,2.4573,2.4646,2.4738,2.4791,2.4874,2.4792,2.4738,2.4824,2.4876,2.4875,2.4785,2.4819,2.4928,2.4918,2.4916,2.4895,2.4953,2.497,2.4996,2.4997,2.4988,2.4946,2.4965,2.4989,2.5064,2.4913,2.4802,2.4832,2.4874,2.4883,2.4822,2.4676,2.4753,2.4844,2.475,2.4657,2.4652,2.4671,2.47,2.4614,2.454,2.4614,2.449,2.4564,2.463,2.4608,2.4485,2.4495,2.4551,2.4636,2.4585,2.4467,2.444,2.4434,2.4522,2.4425,2.4421,2.4402,2.4443,2.4433,2.4526,2.4512,2.4332,2.435,2.4433,2.4494,2.4399,2.4397,2.4332,2.4437,2.44,2.4338,2.4369,2.4452,2.4491,2.4436,2.4382,2.4293,2.4382,2.4352,2.4374,2.4404,2.4337,2.4436,2.4511,2.4458,2.4426,2.4278,2.4381,2.4429,2.4522,2.4486,2.4379,2.4558,2.464,2.447,2.4511,2.4536,2.45,2.4709,2.5043,2.5016,2.4994,2.4959,2.4912,2.4993,2.4875,2.4731,2.472,2.4635,2.4605,2.4529,2.4314,2.4232,2.4143,2.417,2.4196,2.4174,2.4037,2.4147,2.4213,2.4166,2.4152,2.3995,2.4061,2.4067,2.424,2.4606,2.5506,2.688,2.8419,3.0428,3.2851,3.4245,3.3534,2.9603,2.3565,2.1675,2.1654,2.2346,2.2985,2.4058,2.5066,2.5049,2.5288,2.5225,2.5219,2.5087,2.5126,2.4957,2.516,2.5218,2.539,2.5272,2.5238,2.5267,2.536,2.5428,2.5635,2.5453,2.5431,2.5715,2.5803,2.5783,2.5859,2.5852,2.5932,2.599,2.6064,2.6298,2.621,2.6333,2.6631,2.6724,2.7046,2.6896,2.7117,2.7245,2.7446,2.7525,2.7627,2.7808,2.8156,2.8363,2.8404,2.8691,2.8897,2.903,2.9239,2.9476,2.9462,2.9653,2.9751,2.9881,3.0069,3.0006,2.9899,2.9948,2.9898,2.9676,2.9387,2.8983,2.8487,2.8151,2.7651,2.7158,2.6913,2.6573,2.6271,2.5949,2.5606,2.5436,2.529,2.5186,2.4948,2.5025,2.4898,2.4758,2.4594,2.477,2.4688,2.4648,2.4681,2.4633,2.4492,2.4616,2.4571,2.4573,2.4679,2.4739,2.4718,2.4667,2.4706,2.4722,2.4683,2.477,2.4636,2.4582,2.4566,2.464,2.468,2.4694,2.4517,2.4618,2.4723,2.4656,2.458,2.46,2.4661,2.4606,2.4586,2.4546,2.4534,2.465,2.4631,2.4548,2.4398,2.4381,2.4384,2.4481,2.448,2.4421,2.4455,2.4417,2.442,2.4336,2.433,2.4262,2.4313,2.4421,2.4373,2.4311,2.4274,2.419,2.4338,2.4347,2.4286,2.4293,2.4248,2.4166,2.4282,2.4269,2.4118,2.4126,2.4046,2.4169,2.4153,2.3864,2.3988,2.4157,2.4109,2.4122,2.4026,2.3872,2.4046,2.4052,2.4052,2.4041,2.3937,2.3977,2.4075,2.4095,2.4059,2.3926,2.4003,2.4108,2.4052,2.392,2.3847,2.4018,2.4204,2.3991,2.3947,2.3905,2.3981,2.4022,2.3997,2.3931,2.3899,2.387,2.3896,2.3886,2.3899,2.3825,2.3748,2.3748,2.3837,2.387,2.3812,2.3812,2.3901,2.398,2.4018,2.425,2.4341,2.4256,2.4383,2.4376,2.4393,2.4309,2.4274,2.4178,2.4094,2.4073,2.3986,2.378,2.3748,2.3721,2.3479,2.3421,2.3448,2.348,2.3447,2.3529,2.3439,2.3353,2.3372,2.3384,2.3351,2.3218,2.3467,2.4184,2.5346,2.6729,2.8014,3.0307,3.2737,3.3658,3.1097,2.5644,2.0783,2.0484,2.1415,2.1877,2.3274,2.3842,2.4057,2.4125,2.4354,2.4154,2.4227,2.4114,2.4099,2.4222,2.4286,2.4224,2.4329,2.4315,2.4301,2.4233,2.4298,2.4323,2.4433,2.464,2.4566,2.4585,2.4644,2.4686,2.4845,2.4832,2.4909,2.4914,2.5088,2.5271,2.5339,2.5272,2.5443,2.5813,2.5831,2.5807,2.5871,2.6069,2.631,2.6529,2.6679,2.6807,2.6883,2.7017,2.7388,2.7454,2.7582,2.717,2.7258,2.7189,2.6912,2.8122,2.864,2.8951,2.9046,2.8693,2.8707,2.8618,2.8519,2.8356,2.8026,2.7683,2.7268,2.689,2.6368,2.5722,2.5281,2.5288,2.5084,2.4869,2.4648,2.437,2.4113,2.4037,2.3807,2.3697,2.3765,2.3771,2.3715,2.3658,2.3773,2.3835,2.3759,2.3709,2.3708,2.3824,2.3902,2.3823,2.3762,2.3923,2.3973,2.3947,2.3907,2.3974,2.396,2.407,2.4133,2.404,2.4057,2.3999,2.3986,2.4035,2.3937,2.4004,2.3997,2.3876,2.3926,2.4134,2.3884,2.3891,2.3856,2.3842,2.3761,2.3676,2.3557,2.3663,2.3706,2.366,2.3665,2.3475,2.3583,2.3616,2.3444,2.3481,2.3394,2.3414,2.3496,2.3533,2.3388,2.3367,2.3435,2.3508,2.346,2.3385,2.3331,2.3362,2.3348,2.335,2.3379,2.3361,2.3201,2.336,2.3401,2.345,2.3293,2.3298,2.3278,2.3347,2.3244,2.3267,2.3165,2.3404,2.3395,2.337,2.3314,2.3187,2.3334,2.3218,2.3326,2.3277,2.3296,2.3256,2.33,2.3355,2.3342,2.3156,2.3226,2.3342,2.3434,2.326,2.3306,2.3305,2.344,2.3356,2.3318,2.3167,2.3301,2.3368,2.3403,2.3374,2.3151,2.3196,2.3286,2.3298,2.3375,2.3222,2.3208,2.3312,2.3432,2.3332,2.3309,2.3273,2.3454,2.3433,2.3381,2.3282,2.3201,2.3417,2.3436,2.3405,2.3443,2.3381,2.3328,2.3437,2.3673,2.3589,2.3656,2.3989,2.404,2.405,2.4063,2.3977,2.4065,2.4073,2.4066,2.3962,2.3703,2.3702,2.3661,2.3602,2.3388,2.331,2.325,2.3403,2.3551,2.3367,2.3291,2.3241,2.3297,2.332,2.3362,2.3275,2.3265,2.3503,2.4171,2.5304,2.6679,2.8022,3.023,3.2649,3.3802,3.3175,2.9384,2.3538,2.0535,2.0898,2.1775,2.242,2.3679,2.4256,2.4277,2.4365,2.4297,2.4245,2.435,2.435,2.4433,2.4389,2.4388,2.4447,2.4563,2.4568,2.4528,2.4577,2.4587,2.4844,2.4787,2.4783,2.48,2.4875,2.4967,2.509,2.514,2.5227,2.5282,2.5365,2.5451,2.5535,2.5589,2.5749,2.5899,2.5956,2.614,2.6163,2.625,2.6376,2.6592,2.6765,2.6833,2.7073,2.727,2.7398,2.7625,2.7846,2.7994,2.8195,2.8338,2.8397,2.8453,2.8666,2.8683,2.8779,2.8948,2.8891,2.8828,2.8829,2.8815,2.8481,2.8109,2.7714,2.7371,2.7041,2.668,2.6041,2.5642,2.5393,2.5164,2.4958,2.4723,2.4521,2.4253,2.4246,2.4163,2.4134,2.392,2.3877,2.3883,2.392,2.3893,2.3828,2.3736,2.3953,2.3886,2.3853,2.3654,2.379,2.4082,2.4,2.4287,2.427,2.3977,2.4022,2.4128,2.4151,2.4024,2.4442,2.4453,2.4218,2.4094,2.4686,2.4737,2.4461,2.4126,2.4177,2.4279,2.4345,2.4518,2.4494,2.4482,2.4426,2.4472,2.4467,2.4462,2.4598,2.4628,2.4378,2.4385,2.4505,2.4462,2.4399,2.4282,2.4305,2.4342,2.4304,2.4278,2.4192,2.424,2.4206,2.4284,2.4135,2.413,2.4016,2.4015,2.4134,2.4134,2.3904,2.3977,2.3948,2.3946,2.4021,2.3902,2.3852,2.385,2.3922,2.3943,2.3744,2.3734,2.3744,2.3957,2.3781,2.368,2.3637,2.3669,2.3769,2.3793,2.3691,2.3654,2.3543,2.3627,2.3744,2.3672,2.3679,2.365,2.3705,2.3611,2.3564,2.3557,2.3608,2.3571,2.3609,2.3658,2.3613,2.346,2.3539,2.3672,2.3622,2.3498,2.3456,2.3557,2.3595,2.3474,2.3548,2.3606,2.3475,2.3498,2.3547,2.353,2.3506,2.3573,2.3502,2.3542,2.3555,2.3531,2.3412,2.3497,2.3553,2.344,2.3283,2.3476,2.3525,2.3653,2.359,2.3539,2.3787,2.3761,2.4006,2.4215,2.42,2.4042,2.4136,2.4241,2.4258,2.4107,2.3955,2.3981,2.4091,2.3892,2.3626,2.3418,2.3368,2.3448,2.342,2.3423,2.3363,2.334,2.3366,2.3332,2.3386,2.3384,2.3319,2.3411,2.3535,2.4,2.4973,2.6114,2.7612,2.9544,3.1883,3.3385,3.236,2.8088,2.2125,2.0281,2.0969,2.1639,2.2758,2.3899,2.4325,2.4263,2.4355,2.4301,2.4371,2.4358,2.4425,2.4272,2.4384,2.4388,2.4567,2.4546,2.4607,2.459,2.463,2.464,2.4755,2.4752,2.4793,2.4828,2.4893,2.4913,2.499,2.5039,2.509,2.5252,2.5324,2.5327,2.5428,2.5517,2.5672,2.57,2.5815,2.5897,2.608,2.6329,2.6371,2.6467,2.6608,2.6844,2.7066,2.7198,2.7366,2.7307,2.7511,2.7686,2.7974,2.8114,2.8068,2.825,2.838,2.8611,2.853,2.8442,2.8575,2.8651,2.8616,2.8383,2.8105,2.7863,2.7416,2.7016,2.6525,2.6287,2.5861,2.5468,2.5274,2.5078,2.453,2.4397,2.4294,2.412,2.3844,2.3684,2.3679,2.3706,2.3645,2.3527,2.3502,2.3463,2.3513,2.3502,2.3532,2.3486,2.3306,2.3462,2.3499,2.3618,2.3625,2.3568,2.3556,2.361,2.3585,2.371,2.3644,2.3549,2.3702,2.3681,2.3625,2.354,2.3582,2.3539,2.3609,2.3567,2.3583,2.3482,2.3489,2.3503,2.3431,2.3381,2.3204,2.3334,2.3275,2.3357,2.3113,2.3267,2.3297,2.3249,2.3221,2.3128,2.3059,2.3161,2.3211,2.3176,2.321,2.2965,2.3029,2.3101,2.3177,2.2979,2.293,2.2941,2.3036,2.3029,2.2881,2.2729,2.2936,2.2934,2.3022,2.2992,2.294,2.2829,2.2944,2.2899,2.2802,2.2731,2.269,2.2821,2.2906,2.2818,2.2681,2.2754,2.2792,2.2792,2.2822,2.2797,2.2598,2.2813,2.2827,2.2837,2.272,2.2678,2.2775,2.2799,2.2794,2.2697,2.2685,2.2697,2.2987,2.2847,2.277,2.2642,2.2694,2.271,2.2706,2.275,2.2574,2.2708,2.2785,2.2838,2.2613,2.2669,2.2639,2.2805,2.2765,2.2614,2.2783,2.2584,2.2576,2.2588,2.2583,2.2703,2.2604,2.283,2.279,2.2686,2.2605,2.2623,2.2648,2.298,2.3021,2.3033,2.3307,2.3308,2.3292,2.325,2.3162,2.3311,2.3342,2.323,2.3373,2.3264,2.3049,2.2852,2.2692,2.2633,2.2536,2.2573,2.2694,2.2566,2.253,2.2602,2.2494,2.2479,2.2545,2.2649,2.2552,2.2528,2.3075,2.4192,2.5442,2.6814,2.8783,3.0987,3.208,3.0635,2.6564,2.0735,1.9629,2.0568,2.1056,2.1912,2.2764,2.3189,2.3404,2.3507,2.3546,2.3528,2.3522,2.3534,2.3572,2.3717,2.3534,2.3453,2.3641,2.3791,2.3742,2.3762,2.3611,2.3778,2.3847,2.4101,2.3977,2.4028,2.4095,2.4268,2.4386,2.4299,2.4248,2.4345,2.4468,2.4639,2.4656,2.4693,2.4822,2.4993,2.5021,2.5147,2.5125,2.5282,2.5516,2.5689,2.5893,2.5903,2.5899,2.6136,2.6364,2.6428,2.6628,2.6856,2.6932,2.7095,2.7252,2.7326,2.7331,2.741,2.756,2.7547,2.7544,2.7371,2.7247,2.7165,2.7057,2.6765,2.6299,2.5838,2.531,2.5058,2.4606,2.423,2.3908,2.375,2.3582,2.3337,2.3206,2.2986,2.3043,2.2853,2.2905,2.2717,2.2633,2.2684,2.2792,2.2894,2.273,2.2678,2.2745,2.2949,2.2827,2.2893,2.2795,2.2945,2.3047,2.3053,2.3129,2.303,2.3166,2.314,2.324,2.3064,2.3159,2.3188,2.3265,2.3345,2.3221,2.3191,2.3237,2.3167,2.3313,2.3296,2.3199,2.3155,2.3157,2.3327,2.3246,2.3226,2.3301,2.3235,2.3259,2.3246,2.3114,2.316,2.3123,2.3227,2.3172,2.3151,2.3032,2.305,2.3256,2.3217,2.3086,2.3154,2.3143,2.3045,2.319,2.3094,2.3115,2.3094,2.3173,2.3185,2.3013,2.3032,2.3055,2.3014,2.3083,2.3132,2.292,2.3009,2.3086,2.3134,2.306,2.2933,2.29,2.2885,2.2992,2.2974,2.2877,2.2932,2.3078,2.3073,2.2978,2.2867,2.2865,2.2825,2.2937,2.2997,2.2869,2.2816,2.291,2.2928,2.2948,2.288,2.2839,2.2945,2.288,2.2813,2.2819,2.2815,2.2843,2.2842,2.2791,2.2853,2.2873,2.2851,2.2861,2.2943,2.2825,2.2711,2.2801,2.2824,2.2894,2.2825,2.2692,2.2827,2.282,2.2841,2.2966,2.2769,2.2867,2.3011,2.302,2.3072,2.3187,2.3408,2.3432,2.3491,2.3523,2.3525,2.3356,2.3374,2.3356,2.3296,2.3346,2.3187,2.2921,2.2916,2.2832,2.2787,2.2792,2.2644,2.279,2.2788,2.28,2.2681,2.2642,2.2657,2.2704,2.2908,2.3296,2.4134,2.547,2.6977,2.8751,3.0934,3.2436,3.1477,2.7621,2.1678,1.9649,2.0454,2.1015,2.1989,2.2649,2.3492,2.3441,2.3618,2.37,2.3797,2.3693,2.355,2.3604,2.3744,2.3774,2.3831,2.3664,2.3755,2.3843,2.3918,2.3986,2.3946,2.3984,2.4153,2.4287,2.4288,2.4119,2.4141,2.4347,2.4406,2.4581,2.4545,2.4476,2.4521,2.4675,2.4839,2.4724,2.4694,2.469,2.4869,2.5,2.5087,2.502,2.5367,2.5439,2.54,2.5655,2.5846,2.6099,2.6187,2.6317,2.6455,2.646,2.6674,2.6944,2.6953,2.7033,2.7092,2.7156,2.7205,2.7321,2.7259,2.7119,2.6897,2.6723,2.644,2.6062,2.5686,2.5267,2.4802,2.45,2.4153,2.3659,2.3373,2.3142,2.3096,2.2815,2.2487,2.2434,2.2378,2.2421,2.2297,2.2254,2.2121,2.206,2.2157,2.2244,2.2019,2.2024,2.2042,2.2158,2.2124,2.2165,2.2054,2.2175,2.2165,2.2317,2.2351,2.225,2.2071,2.2229,2.2126,2.2112,2.2139,2.2173,2.2393,2.2144,2.2227,2.2078,2.1871,2.2113,2.2283,2.2067,2.1952,2.2114,2.2179,2.2137,2.2053,2.2339,2.2069,2.2018,2.2301,2.2118,2.2172,2.2079,2.2196,2.2359,2.233,2.2406,2.2596,2.2255,2.2294,2.2357,2.2259,2.2334,2.2209,2.2136,2.2235,2.2147,2.2172,2.2084,2.2083,2.2026,2.1989,2.2017,2.1943,2.1792,2.1878,2.1834,2.1815,2.1983,2.1738,2.1571,2.1775,2.1532,2.162,2.1688,2.1581,2.1371,2.1256,2.1306,2.1472,2.1274,2.1121,2.1241,2.1142,2.1125,2.1183,2.133,2.1278,2.1155,2.1063,2.1263,2.1314,2.1005,2.104,2.1149,2.1254,2.1219,2.1089,2.1109,2.0875,2.1135,2.1355,2.1347,2.1013,2.0903,2.1049,2.1186,2.115,2.103,2.098,2.1117,2.111,2.1099,2.0955,2.1008,2.0988,2.1066,2.1307,2.1176,2.0876,2.1189,2.1257,2.1205,2.1631,2.1577,2.1578,2.1582,2.1662,2.1613,2.1507,2.1379,2.1481,2.1255,2.1217,2.0964,2.0811,2.0903,2.0904,2.0841,2.0687,2.0561,2.0567,2.0586,2.068,2.0686,2.061,2.0614,2.0811,2.1218,2.2073,2.335,2.4869,2.669,2.8859,3.0484,2.9411,2.5325,1.9423,1.7643,1.8372,1.9055,1.9421,2.0657,2.1571,2.1514,2.1548,2.1527,2.1574,2.1509,2.1848,2.1463,2.17,2.1569,2.1712,2.1728,2.1764,2.1859,2.1856,2.1881,2.2018,2.1918,2.194,2.2066,2.23,2.2358,2.241,2.2393,2.2533,2.2727,2.2765,2.2836,2.2934,2.3057,2.3162,2.3367,2.3368,2.3374,2.4188,2.3837,2.3873,2.4104,2.3841,2.4237,2.5125,2.4367,2.4604,2.5368,2.468,2.509,2.5274,2.5384,2.5272,2.5418,2.552,2.5788,2.5762,2.5765,2.5741,2.5932,2.591,2.5727,2.5545,2.5447,2.5056,2.4744,2.4442,2.399,2.3465,2.3194,2.2954,2.2642,2.215,2.2077,2.1888,2.1931,2.1776,2.1471,2.1467,2.1448,2.1594,2.1383,2.1429,2.1363,2.1364,2.1509,2.1487,2.1552,2.1389,2.1565,2.1593,2.178,2.1757,2.1622,2.1617,2.1913,2.188,2.1797,2.1862,2.1776,2.1927,2.1968,2.1981,2.1912,2.1717,2.1755,2.1813,2.1793,2.1825,2.1639,2.1728,2.1749,2.1728,2.1718,2.1749,2.1682,2.1752,2.1878,2.1668,2.1678,2.1631,2.1732,2.1725,2.1794,2.1625,2.1607,2.1625,2.1656,2.1686,2.1612,2.1649,2.1678,2.1686,2.1759,2.1767,2.1678,2.1717,2.1759,2.1845,2.1773,2.1756,2.1748,2.1757,2.1701,2.1766,2.1679,2.1806,2.1867,2.1845,2.1754,2.171,2.1661,2.1695,2.1616,2.1502,2.1443,2.1494,2.1544,2.1468,2.132,2.1303,2.1306,2.136,2.1408,2.1265,2.1189,2.1188,2.1247,2.1246,2.1199,2.1251,2.1154,2.1209,2.1188,2.1225,2.1075,2.1178,2.1279,2.1191,2.1169,2.1104,2.1149,2.1159,2.1151,2.1138,2.1208,2.1144,2.115,2.12,2.1222,2.1196,2.1124,2.1138,2.1233,2.1389,2.1294,2.117,2.136,2.144,2.1343,2.1544,2.1902,2.2104,2.2006,2.2054,2.2047,2.2331,2.2202,2.2054,2.2196,2.2136,2.2008,2.1978,2.1804,2.1698,2.1688,2.1739,2.1604,2.164,2.1697,2.1639,2.1669,2.1588,2.1728,2.1631,2.1532,2.1937,2.2556,2.3878,2.5358,2.6798,2.8869,3.0973,3.1616,2.8538,2.2993,1.8585,1.8567,1.9652,2.0348,2.1692,2.2187,2.2413,2.2512,2.2562,2.2531,2.2488,2.2428,2.2465,2.2552,2.2597,2.2557,2.2586,2.2674,2.2825,2.2859,2.2768,2.2739,2.284,2.3068,2.3089,2.3141,2.3225,2.3091,2.3209,2.3518,2.3548,2.35,2.3509,2.3676,2.3668,2.3868,2.3945,2.409,2.4265,2.4436,2.4466,2.4516,2.4726,2.5008,2.5205,2.5196,2.5374,2.5454,2.5608,2.5956,2.6167,2.627,2.641,2.643,2.6611,2.6714,2.6785,2.6812,2.6943,2.7001,2.7101,2.7169,2.6964,2.6811,2.6607,2.6479,2.6179,2.5596,2.5108,2.4772,2.4418,2.4098,2.3721,2.335,2.3092,2.2936,2.2672,2.2447,2.2303,2.2176,2.2178,2.2119,2.2047,2.1942,2.1963,2.2038,2.2098,2.1936,2.1889,2.1935,2.1902,2.2045,2.2126,2.1923,2.1881,2.1946,2.2047,2.2047,2.1751,2.1878,2.1849,2.1936,2.1847,2.1792,2.1802,2.1857,2.1978,2.1831,2.1715,2.1785,2.1747,2.1825,2.1732,2.1791,2.1767,2.1815,2.1786,2.1609,2.1571,2.1763,2.1721,2.1575,2.1549,2.1651,2.1555,2.1594,2.1789,2.1678,2.1784,2.1732,2.1676,2.1565,2.1713,2.1683,2.1738,2.1623,2.1588,2.1651,2.1648,2.1542,2.1469,2.1488,2.1566,2.1551,2.1489,2.1364,2.1454,2.1549,2.1594,2.1583,2.1522,2.1604,2.1523,2.1489,2.1368,2.1458,2.1474,2.165,2.1573,2.1493,2.1438,2.1581,2.1668,2.1602,2.1646,2.156,2.1629,2.1661,2.1746,2.1802,2.1743,2.1909,2.1873,2.1919,2.1798,2.1843,2.1839,2.1872,2.194,2.1822,2.1849,2.1739,2.1733,2.1775,2.1835,2.1759,2.1781,2.1801,2.185,2.1803,2.194,2.1846,2.1755,2.2002,2.2074,2.204,2.2259,2.2324,2.2167,2.2371,2.2256,2.2313,2.2303,2.2219,2.2341,2.2173,2.1984,2.1916,2.1766,2.168,2.1534,2.1376,2.1434,2.1344,2.154,2.141,2.1229,2.1332,2.1326,2.1376,2.1511,2.1708,2.2586,2.3977,2.4724,2.6216,2.8167,3.0182,3.1048,2.8937,2.4181,1.854,1.8325,1.9342,1.9904,2.0897,2.1719,2.2233,2.2126,2.2321,2.2352,2.2413,2.2137,2.2301,2.2304,2.2271,2.2406,2.2368,2.2226,2.2481,2.2491,2.2419,2.248,2.2328,2.2442,2.2699,2.262,2.2506,2.2704,2.2712,2.2864,2.2892,2.2786,2.2768,2.2806,2.3047,2.3031,2.3157,2.3065,2.3266,2.3438,2.3427,2.3521,2.367,2.377,2.3922,2.4028,2.4319,2.4341,2.4613,2.4895,2.4889,2.5138,2.5189,2.524,2.5324,2.5667,2.55,2.5657,2.561,2.5774,2.5994,2.5854,2.5753,2.5763,2.5532,2.5171,2.4925,2.439,2.4097,2.3665,2.3336,2.2968,2.2485,2.238,2.224,2.187,2.1794,2.1654,2.1341,2.1202,2.1268,2.1239,2.1117,2.1062,2.11,2.1076,2.1205,2.1011,2.107,2.1128,2.1117,2.1127,2.1333,2.1323,2.1287,2.1336,2.1383,2.1439,2.1237,2.1427,2.1343,2.1495,2.1391,2.1289,2.1351,2.143,2.1338,2.1309,2.1284,2.1037,2.1302,2.1361,2.1382,2.1258,2.1178,2.1092,2.1195,2.1217,2.1147,2.1066,2.1149,2.1106,2.1197,2.1077,2.0915,2.1093,2.0929,2.1019,2.0967,2.091,2.0982,2.0943,2.1019,2.094,2.0884,2.0849,2.095,2.0852,2.0852,2.084,2.0787,2.0848,2.0771,2.0813,2.067,2.0724,2.0887,2.0879,2.0854,2.0546,2.0602,2.0615,2.0632,2.0783,2.0506,2.0735,2.0722,2.082,2.0887,2.0929,2.0837,2.0949,2.0996,2.0988,2.1118,2.1263,2.1348,2.1442,2.1643,2.1687,2.1663,2.1526,2.1599,2.1622,2.1535,2.1657,2.1397,2.1179,2.1235,2.1129,2.0954,2.1026,2.1157,2.1108,2.1218,2.1212,2.128,2.1471,2.1444,2.1293,2.1424,2.2066,2.3288,2.3978,2.5124,2.6893,2.8918,3.049,2.9953,2.7104,2.0989,1.8242,1.9199,2.0037,2.0846,2.1412,2.2174,2.2469,2.2604,2.2589,2.2578,2.248,2.2689,2.2781,2.2796,2.2837,2.2766,2.2661,2.2808,2.277,2.294,2.3068,2.3053,2.3025,2.311,2.3182,2.3098,2.3197,2.3397,2.3531,2.3536,2.3563,2.3657,2.3684,2.3937,2.4045,2.3944,2.4064,2.4233,2.4533,2.4602,2.4594,2.4635,2.472,2.4968,2.5195,2.5363,2.5379,2.5556,2.5761,2.5909,2.6061,2.604,2.6208,2.6477,2.6615,2.6678,2.6706,2.6773,2.6774,2.6864,2.6947,2.6774,2.6699,2.6427,2.6052,2.5737,2.5319,2.4882,2.4434,2.4097,2.3761,2.357,2.3165,2.2848,2.2879,2.2777,2.2524,2.235,2.2238,2.2202,2.2413,2.2213,2.2122,2.2142,2.2205,2.2207,2.2199,2.2181,2.2234,2.2308,2.2334,2.2264,2.2161,2.237,2.2353,2.2419,2.2306,2.2318,2.2332,2.2452,2.2516,2.2349,2.2304,2.2248,2.228,2.247,2.2342,2.2191,2.2203,2.215,2.2236,2.2166,2.2156,2.213,2.2073,2.221,2.2122,2.1827,2.1901,2.1749,2.1752,2.1763,2.1952,2.1881,2.1743,2.165,2.1757,2.1772,2.1669,2.1816,2.1617,2.1725,2.1548,2.1607,2.14,2.1433,2.1793,2.1765,2.163,2.153,2.1541,2.1467,2.1378,2.1324,2.1372,2.1352,2.0823,2.0768,2.1361,2.1218,2.1473,2.1286,2.1143,2.0965,2.1095,2.1255,2.1271,2.1365,2.1338,2.1251,2.1211,2.1396,2.1468,2.1325,2.1302,2.1341,2.1545,2.15,2.1388,2.1384,2.1531,2.1676,2.1489,2.1826,2.1778,2.2157,2.2579,2.2327,2.241,2.2479,2.2276,2.2452,2.2415,2.2218,2.1902,2.1614,2.1586,2.1625,2.1588,2.1663,2.1658,2.1696,2.1632,2.1687,2.1718,2.1565,2.1474,2.1728,2.1844,2.2865,2.4581,2.5309,2.7494,2.982,3.1655,3.1244,2.7516,2.1866,1.8263,1.8656,1.9779,2.0174,2.1253,2.2311,2.2227,2.2401,2.2232,2.2316,2.2375,2.2332,2.2368,2.2312,2.2456,2.2596,2.2441,2.1998,2.2222,2.2813,2.2618,2.2876,2.2952,2.2933,2.295,2.3102,2.305,2.3127,2.3026,2.3049,2.2955,2.3141,2.3238,2.3183,2.3346,2.3524,2.3584,2.3783,2.4059,2.4002,2.3847,2.4244,2.4559,2.4656,2.4442,2.4616,2.513,2.5151,2.5425,2.5598,2.5944,2.6397,2.6441,2.6463,2.6641,2.681,2.7088,2.7196,2.7107,2.7137,2.7189,2.7297,2.7096,2.6852,2.6575,2.6184,2.5947,2.5494,2.5079,2.4663,2.4237,2.3773,2.3523,2.3131,2.301,2.2709,2.2808,2.25,2.2373,2.2418,2.2288,2.1866,2.2209,2.2443,2.2101,2.2136,2.2356,2.2363,2.2308,2.2347,2.2329,2.2384,2.2442,2.2392,2.2119,2.2207,2.2227,2.2307,2.2178,2.2096,2.206,2.2257,2.232,2.227,2.2037,2.2072,2.2083,2.1714,2.1814,2.2084,2.1654,2.1646,2.1659,2.2174,2.1948,2.2303,2.2347,2.2284,2.2246,2.1977,2.1963,2.1922,2.1995,2.1892,2.2132,2.194,2.1956,2.1917,2.2162,2.2156,2.2171,2.2211,2.234,2.23,2.2563,2.2384,2.2472,2.2532,2.2465,2.2618,2.2682,2.2853,2.299,2.3169,2.3238,2.3222,2.3317,2.3197,2.3618,2.3547,2.3747,2.3531,2.3264,2.3437,2.3313,2.3001,2.2821,2.2779,2.2799,2.2664,2.2305,2.2088,2.2083,2.1898,2.1736,2.188,2.1613,2.1421,2.1517,2.1567,2.17,2.1479,2.1406,2.1451,2.1419,2.1964,2.3205,2.4548,2.6197,2.8427,3.0608,3.1402,3.1081,2.7137,2.1266,1.7037,1.7381,1.8989,2.0014,2.1291,2.2155,2.2576,2.2228,2.2135,2.1986,2.2026,2.1898,2.1882,2.1904,2.1952,2.1993,2.2026,2.1869,2.2045,2.2087,2.2238,2.2068,2.2186,2.2103,2.2209,2.2241,2.2569,2.26,2.2567,2.2689,2.2801,2.279,2.2873,2.272,2.2904,2.2951,2.3035,2.3107,2.3322,2.3239,2.3536,2.3602,2.3687,2.3795,2.3844,2.3895,2.4045,2.4023,2.4277,2.4361,2.4348,2.4516,2.4465,2.4538,2.4567,2.4688,2.481,2.4998,2.4968,2.495,2.46,2.4629,2.4354,2.4092,2.3619,2.3092,2.2659,2.2207,2.1673,2.1318,2.0951,2.0491,2.0129,1.9927,1.9876,1.9734,1.9661,1.9627,1.9679,1.9585,1.968,1.9572,1.9594,1.9805,1.9852,1.9937,2.0094,2.0396,2.0556,2.0686,2.06,2.0785,2.0944,2.0955,2.0954,2.0923,2.0933,2.0918,2.0995,2.0827,2.0446,2.0393,2.0406,2.0336,2.0149,1.986,1.9825,1.9844,1.9775,1.965,1.9435,1.9355,1.9434,1.9404,1.9385,1.9494,1.968,1.9714,1.9781,1.977,1.974,1.9812,1.9734,2.016,2.0343,2.053,2.0385,2.0317,2.0176,2.002,1.9739,1.9498,1.945,1.9268,1.9097,1.8784,1.8532,1.854,1.8597,1.8432,1.838,1.8259,1.8258,1.8133,1.8263,1.7982,1.789,1.8105,1.7926,1.793,1.7744,1.7896,1.8672,1.9899,2.1317,2.2864,2.5045,2.5971,2.6765,2.5125,2.0426,1.4825,1.3314,1.4716,1.5894,1.652,1.8062,1.8978,1.893,1.8979,1.8793,1.888,1.8786,1.9,1.8816,1.9045,1.8897,1.9123,1.9083,1.931,1.9279,1.9439,1.946,1.9756,1.9686,1.9871,1.9852,2.0044,2.0087,2.0318,2.0306,2.0531,2.0539,2.0649,2.0919,2.1122,2.1246,2.146,2.1493,2.1733,2.1913,2.2128,2.2253,2.259,2.2913,2.3154,2.3274,2.3632,2.3876,2.4158,2.4512,2.4682,2.4956,2.4984,2.5025,2.5199,2.5335,2.5335,2.5429,2.5583,2.5793,2.5674,2.5607,2.53,2.4929,2.459,2.4171,2.3698,2.3514,2.3406,2.2714,2.2598,2.2269,2.2371,2.2316,2.2256,2.2318,2.1898,2.1939,2.196,2.2084,2.2125,2.2209,2.2221,2.2305,2.2232,2.261,2.2468,2.2487,2.236,2.2468,2.2501,2.2582,2.2613,2.2672,2.2555,2.2664,2.265,2.2802,2.2534,2.2568,2.2637,2.2765,2.2489,2.246,2.2509,2.2398,2.2299,2.2256,2.1982,2.2024,2.1966,2.1786,2.1614,2.1656,2.149,2.1505,2.1456,2.1428,2.1405,2.1685,2.1502,2.1385,2.1518,2.1688,2.1972,2.2036,2.2058,2.2287,2.1886,2.1789,2.1497,2.1276,2.1164,2.0973,2.0796,2.0623,2.0953,2.0668,2.0479,2.0259,2.0166,2.0234,2.0149,2.0098,2.0071,1.9886,1.9868,1.9956,1.9782,1.9681,1.9938,2.0806,2.2095,2.3251,2.4792,2.5894,2.8345,2.904,2.7432,2.3033,1.7154,1.6412,1.7447,1.8262,1.9054,2.0146,2.0791,2.0894,2.0953,2.0668,2.0789,2.0976,2.114,2.09,2.1056,2.0959,2.1081,2.1122,2.1173,2.1077,2.1065,2.0958,2.1234,2.1361,2.1378,2.1366,2.148,2.1677,2.1877,2.1826,2.2083,2.2043,2.2193,2.2182,2.2318,2.2271,2.2361,2.267,2.2758,2.2691,2.2928,2.3043,2.3323,2.3286,2.3474,2.3564,2.3868,2.4015,2.4347,2.4551,2.4419,2.4702,2.4851,2.5209,2.5293,2.531,2.5288,2.5216,2.5455,2.5616,2.5512,2.5171,2.4911,2.4798,2.4404,2.3818,2.3365,2.304,2.2835,2.2232,2.1917,2.1651,2.1413,2.1336,2.1043,2.1035,2.0858,2.0742,2.0834,2.0725,2.0663,2.0616,2.0543,2.0675,2.06,2.0593,2.0522,2.0606,2.0758,2.0739,2.0807,2.0742,2.0703,2.0794,2.0821,2.0825,2.0858,2.0717,2.074,2.1027,2.0934,2.096,2.0787,2.0893,2.0935,2.0811,2.0916,2.0785,2.0626,2.0863,2.083,2.0987,2.0873,2.1105,2.1188,2.128,2.118,2.1211,2.1326,2.1581,2.1692,2.1816,2.1736,2.1801,2.1558,2.1533,2.1142,2.1039,2.0977,2.0629,2.0828,2.0622,2.0349,2.026,2.038,2.0412,2.0424,2.0321,2.0118,2.0106,2.0309,2.0255,2.0013,2.0185,2.0058,2.0117,2.0351,2.0717,2.1919,2.313,2.4417,2.6662,2.8988,2.9759,2.7815,2.5658,1.9649,1.7279,1.7984,1.8228,1.9157,1.9905,2.0926,2.0775,2.1172,2.1285,2.125,2.1113,2.1133,2.1116,2.1398,2.1241,2.1485,2.1359,2.1561,2.1614,2.1745,2.1775,2.1955,2.1802,2.1956,2.2204,2.243,2.2214,2.2643,2.2365,2.2686,2.2968,2.2788,2.2862,2.3074,2.3026,2.3308,2.3437,2.3416,2.3504,2.3796,2.3932,2.414,2.4243,2.449,2.4812,2.4854,2.5104,2.5155,2.5321,2.5432,2.5628,2.5691,2.5858,2.6006,2.5896,2.6195,2.6129,2.6079,2.6053,2.6011,2.5851,2.5555,2.5278,2.4673,2.4324,2.4028,2.352,2.2847,2.274,2.2405,2.2113,2.21,2.1722,2.1594,2.1364,2.1416,2.1439,2.1287,2.1287,2.1467,2.1149,2.1258,2.1205,2.1144,2.123,2.1025,2.1384,2.1258,2.1452,2.1215,2.1354,2.1338,2.1437,2.1361,2.1393,2.1316,2.1542,2.13,2.1271,2.1342,2.1492,2.1261,2.1511,2.1444,2.112,2.123,2.1178,2.1178,2.1125,2.1358,2.1118,2.1104,2.1329,2.114,2.1362,2.093,2.0942,2.1214,2.1228,2.1569,2.1514,2.1637,2.1495,2.1523,2.1763,2.191,2.1989,2.2643,2.2202,2.1957,2.18,2.1675,2.1749,2.1341,2.1254,2.1125,2.0858,2.0932,2.0846,2.0644,2.0563,2.053,2.0585,2.0481,2.0449,2.0197,2.0352,2.0296,2.0379,2.0373,2.0289,2.0232,2.0692,2.1599,2.2703,2.4055,2.5652,2.5709,2.9176,3.0301,2.8336,2.3654,1.8099,1.7658,1.806,1.8598,1.9562,2.0722,2.0867,2.1072,2.1023,2.0979,2.0872,2.0937,2.1011,2.0887,2.0936,2.0992,2.1104,2.1162,2.0937,2.1273,2.1189,2.1387,2.1401,2.1526,2.1574,2.1742,2.1852,2.2071,2.2064,2.2183,2.2174,2.2452,2.2552,2.2666,2.2773,2.2831,2.3025,2.3187,2.3412,2.3547,2.3649,2.3824,2.4076,2.4277,2.4479,2.4687,2.4911,2.5183,2.5376,2.5509,2.5663,2.5717,2.6066,2.617,2.6214,2.6258,2.6355,2.6501,2.6618,2.6668,2.6432,2.6231,2.5999,2.5666,2.5142,2.4604,2.4159,2.3866,2.3426,2.3073,2.269,2.2323,2.2113,2.1991,2.1722,2.1583,2.1462,2.1342,2.1358,2.1234,2.1037,2.095,2.1006,2.1026,2.1029,2.1006,2.0761,2.0828,2.0947,2.0954,2.0912,2.0832,2.0858,2.0963,2.0942,2.0804,2.0773,2.0681,2.078,2.0731,2.0723,2.0475,2.0454,2.0479,2.0356,2.033,2.0182,2.0109,2.0102,2.0009,1.9975,1.9932,1.9932,1.9912,1.9762,1.986,2.0042,1.9977,2.0024,2.01,2.0194,2.0145,2.015,2.028,2.0414,2.0439,2.0402,2.0383,2.0498,2.0531,2.0605,2.0504,2.0528,2.0571,2.0655,2.0604,2.0545,2.0431,2.0408,2.0474,2.0473,2.0475,2.0542,2.0442,2.0529,2.0576,2.0563,2.0573,2.0598,2.057,2.0637,2.0638,2.07,2.0715,2.079,2.0759,2.0791,2.0745,2.0717,2.0707,2.0784,2.0597,2.0753,2.0756,2.072,2.0816,2.0782,2.0758,2.067,2.0815,2.0846,2.0765,2.0713,2.0753,2.0708,2.0808,2.0798,2.0793,2.0768,2.0691,2.0728,2.0762,2.0743,2.0648,2.0574,2.0718,2.0748,2.0752,2.0715,2.0744,2.0694,2.091,2.078,2.0777,2.0842,2.0912,2.106,2.1306,2.1214,2.117,2.1239,2.127,2.1206,2.1038,2.0892,2.0918,2.0961,2.0893,2.0719,2.0481,2.0399,2.0448,2.0412,2.0373,2.0334,2.0364,2.048,2.046,2.0361,2.0266,2.0237,2.0326,2.0556,2.0871,2.1845,2.3214,2.4604,2.6526,2.9,3.0735,2.9913,2.593,1.988,1.7365,1.7723,1.8108,1.885,2.0178,2.0977,2.1117,2.1247,2.11,2.1289,2.1179,2.1036,2.0957,2.1131,2.1087,2.102,2.1174,2.1088,2.0979,2.1136,2.1024,2.1027,2.1144,2.1315,2.1227,2.1207,2.1497,2.1511,2.1501,2.1584,2.1417,2.1626,2.1761,2.1724,2.1836,2.1903,2.2079,2.2065,2.2265,2.2578,2.2651,2.2645,2.2619,2.2819,2.2989,2.3209,2.3269,2.3362,2.3574,2.3723,2.4122,2.4279,2.4287,2.4358,2.4651,2.4934,2.4949,2.4929,2.5154,2.5299,2.5334,2.5479,2.5405,2.5134,2.4918,2.4681,2.4411,2.4069,2.3669,2.3239,2.2751,2.2511,2.2184,2.1776,2.1542,2.147,2.1354,2.1167,2.0838,2.0783,2.0895,2.0926,2.0856,2.0676,2.0757,2.069,2.0764,2.0557,2.0527,2.0523,2.0654,2.0906,2.074,2.054,2.0599,2.0635,2.0822,2.0732,2.0618,2.0784,2.0654,2.0626,2.0701,2.0799,2.0684,2.0668,2.0828,2.0797,2.0747,2.0604,2.0478,2.0626,2.0586,2.0784,2.055,2.0429,2.0547,2.0643,2.0682,2.0749,2.0525,2.0473,2.0438,2.0489,2.0342,2.0152,2.0255,2.0413,2.0351,2.0348,2.0226,2.0288,2.0418,2.0308,2.0268,2.0231,2.0328,2.0405,2.0166,2.0296,2.039,2.0155,2.0253,2.0126,2.0029,2.016,2.0045,2.0248,2.0377,2.0331,2.0037,2.03,2.0229,2.0089,2.035,2.0003,2.0074,1.9982,2.0117,2.0114,2.0275,1.9982,2.0103,2.0004,2.0058,2.0026,2.0111,2.0147,2.0142,2.007,2.0017,2.0084,2.0024,2.0001
