3.2741,3.2624,3.268,3.279,3.2707,3.2661,3.267,3.2629,3.2683,3.2706,3.2614,3.2519,3.2683,3.2665,3.2709,3.2687,3.2563,3.2727,3.2694,3.276,3.2643,3.2684,3.2891,3.3247,3.3229,3.3224,3.313,3.3112,3.344,3.3634,3.347,3.3514,3.3494,3.3533,3.3421,3.3123,3.2982,3.2945,3.2539,3.2487,3.2542,3.2341,3.2367,3.2397,3.2562,3.2482,3.2395,3.2438,3.249,3.2497,3.2466,3.2418,3.2474,3.2018,3.1249,3.0815,3.0971,3.1816,3.4276,3.844,4.2657,4.5634,4.7759,4.9625,4.4731,3.8297,3.2322,2.892,2.7978,2.7012,2.7835,2.9022,2.998,3.1107,3.2163,3.2058,3.2364,3.23,3.2497,3.2367,3.2667,3.2471,3.2563,3.2528,3.2733,3.2615,3.2818,3.2673,3.2743,3.2805,3.2721,3.2664,3.2758,3.2801,3.2899,3.279,3.2703,3.2807,3.286,3.2848,3.2849,3.2823,3.2862,3.2923,3.2972,3.2952,3.2995,3.2979,3.2936,3.3083,3.3132,3.2975,3.3075,3.2982,3.3028,3.3091,3.3226,3.32,3.3208,3.3248,3.3367,3.353,3.3374,3.3508,3.3579,3.3709,3.3768,3.383,3.3891,3.3891,3.3945,3.4011,3.4087,3.4094,3.4195,3.4244,3.4172,3.4115,3.4093,3.4158,3.4089,3.4008,3.3891,3.3784,3.3755,3.3685,3.351,3.3518,3.3371,3.3487,3.3487,3.3485,3.3259,3.3333,3.3256,3.3413,3.3328,3.3295,3.3171,3.3276,3.3321,3.3318,3.3261,3.3296,3.3217,3.3322,3.3354,3.3323,3.3109,3.3211,3.3274,3.3192,3.3157,3.3173,3.3063,3.3176,3.3208,3.3196,3.3144,3.3073,3.3108,3.3128,3.3142,3.3119,3.2984,3.311,3.314,3.3119,3.3006,3.3021,3.3073,3.2995,3.2913,3.2863,3.2942,3.2989,3.2987,3.2954,3.2902,3.2905,3.2913,3.3068,3.2933,3.2944,3.2965,3.3042,3.3049,3.3018,3.2988,3.2999,3.2972,3.291,3.3001,3.2937,3.2964,3.2859,3.2905,3.3107,3.2926,3.2892,3.2933,3.2997,3.2939,3.2845,3.29,3.2899,3.2949,3.2859,3.3041,3.3203,3.3419,3.3481,3.3284,3.322,3.3624,3.3801,3.3807,3.3811,3.3739,3.3709,3.3626,3.3316,3.3323,3.3222,3.2767,3.2562,3.2631,3.2633,3.2552,3.2498,3.2529,3.2578,3.2596,3.2529,3.2605,3.2605,3.2674,3.2705,3.2614,3.2099,3.1323,3.0889,3.122,3.1909,3.4173,3.8236,4.276,4.571,4.7529,4.958,4.5137,3.8401,3.2612,2.9081,2.7955,2.691,2.758,2.8683,2.9551,3.0737,3.1931,3.1992,3.2329,3.2303,3.2365,3.2136,3.2465,3.2362,3.2477,3.2254,3.2464,3.2352,3.2576,3.2456,3.2498,3.2493,3.2582,3.25,3.2513,3.2458,3.2551,3.2536,3.2694,3.2583,3.2659,3.2539,3.2557,3.2599,3.2593,3.2593,3.2697,3.2588,3.2572,3.2727,3.2719,3.2719,3.27,3.2699,3.2801,3.2819,3.2826,3.2793,3.2884,3.3043,3.2958,3.2961,3.2934,3.3037,3.3158,3.3221,3.3225,3.3379,3.3321,3.3463,3.3512,3.3623,3.3661,3.3721,3.3764,3.3827,3.3798,3.3843,3.3865,3.3908,3.3796,3.3847,3.3745,3.3722,3.3686,3.3575,3.3309,3.3291,3.322,3.3202,3.3109,3.3017,3.2911,3.2934,3.2936,3.2965,3.2833,3.29,3.2874,3.2965,3.2878,3.2852,3.2716,3.2787,3.2741,3.2865,3.2803,3.2816,3.2847,3.2819,3.2663,3.2764,3.2714,3.2643,3.2725,3.275,3.2584,3.2643,3.2621,3.2655,3.2682,3.2705,3.2583,3.2584,3.2562,3.2685,3.2572,3.2524,3.2578,3.2668,3.2553,3.2561,3.2513,3.2545,3.2509,3.246,3.2481,3.2519,3.2365,3.24,3.2504,3.2492,3.2402,3.2413,3.2445,3.2483,3.2437,3.24,3.2396,3.2413,3.2554,3.2482,3.2452,3.254,3.2434,3.2788,3.2925,3.2968,3.2991,3.2884,3.2941,3.3123,3.325,3.3203,3.338,3.3335,3.3493,3.3127,3.2891,3.2808,3.2815,3.2327,3.2224,3.2151,3.2191,3.2301,3.2335,3.224,3.2202,3.2169,3.2237,3.234,3.2256,3.2275,3.2302,3.2301,3.1829,3.097,3.0677,3.088,3.1743,3.4266,3.8467,4.2532,4.5284,4.7162,4.8571,4.389,3.7423,3.4332,3.0031,2.824,2.7118,2.7034,2.7569,2.8893,3.0406,3.1331,3.1991,3.2041,3.2154,3.2209,3.233,3.2239,3.2384,3.2368,3.2522,3.2448,3.2515,3.2484,3.2507,3.2514,3.2616,3.2572,3.2536,3.2607,3.2725,3.266,3.258,3.2561,3.2639,3.2641,3.2765,3.2692,3.2693,3.2675,3.2892,3.2899,3.2782,3.2742,3.2887,3.2974,3.2952,3.2874,3.2925,3.2914,3.3004,3.307,3.3157,3.3071,3.3189,3.3185,3.3332,3.3276,3.3334,3.3232,3.3465,3.3565,3.3586,3.3648,3.3737,3.379,3.3777,3.3882,3.389,3.3812,3.405,3.4116,3.4056,3.3995,3.403,3.4044,3.4066,3.396,3.3842,3.3754,3.3692,3.3554,3.3462,3.3353,3.3249,3.3189,3.3248,3.3277,3.3156,3.3101,3.3072,3.3073,3.3038,3.2974,3.2929,3.3075,3.3043,3.3064,3.3069,3.2998,3.301,3.3096,3.3145,3.3136,3.303,3.3069,3.308,3.3113,3.3173,3.3111,3.3017,3.3109,3.3102,3.3008,3.2953,3.291,3.2971,3.2993,3.2913,3.2888,3.2832,3.2933,3.2945,3.2835,3.2726,3.2838,3.2817,3.2802,3.2741,3.2739,3.2731,3.2822,3.2806,3.2681,3.2716,3.2763,3.2688,3.2889,3.2811,3.2776,3.2769,3.2809,3.2856,3.281,3.2795,3.2669,3.2724,3.2834,3.2705,3.2724,3.2764,3.2675,3.2691,3.275,3.2812,3.303,3.3169,3.3363,3.3276,3.308,3.3231,3.3565,3.3591,3.3663,3.3482,3.3506,3.3385,3.3308,3.3207,3.3089,3.2998,3.2542,3.2501,3.2424,3.2431,3.2403,3.2432,3.2504,3.2392,3.2488,3.2392,3.2429,3.2532,3.2552,3.2532,3.2152,3.1331,3.0845,3.0877,3.1085,3.2363,3.5372,3.9785,4.3955,4.6149,4.8736,4.8903,4.6221,3.9844,3.1122,2.8606,2.748,2.7059,2.8269,2.9541,3.1019,3.1861,3.2239,3.2242,3.2344,3.2346,3.2376,3.2449,3.2512,3.2468,3.2587,3.2554,3.2614,3.2568,3.2694,3.2547,3.2645,3.2704,3.2846,3.2755,3.2644,3.2669,3.2759,3.2769,3.2819,3.2696,3.2614,3.2691,3.2808,3.2747,3.2748,3.2683,3.2773,3.2819,3.2852,3.2753,3.2747,3.2833,3.2838,3.2897,3.2827,3.2907,3.2877,3.2928,3.2957,3.301,3.2841,3.296,3.3125,3.3246,3.3251,3.3319,3.3286,3.3382,3.3473,3.349,3.3519,3.3592,3.3772,3.3754,3.3753,3.3778,3.3843,3.3937,3.4009,3.3926,3.3881,3.3751,3.3718,3.3728,3.3577,3.3522,3.3401,3.3408,3.3265,3.325,3.3137,3.31,3.3034,3.3141,3.319,3.3038,3.2993,3.3135,3.3081,3.3094,3.2968,3.3099,3.3075,3.3085,3.3225,3.3116,3.2894,3.3096,3.3107,3.303,3.2983,3.2952,3.2871,3.2937,3.2864,3.2773,3.2852,3.2959,3.2633,3.2619,3.2637,3.2647,3.2632,3.2832,3.2901,3.2531,3.2398,3.2498,3.2582,3.2467,3.253,3.2356,3.2374,3.2505,3.2573,3.2241,3.2184,3.2291,3.2358,3.2316,3.22,3.2261,3.2118,3.2252,3.2244,3.2204,3.2195,3.2179,3.2186,3.222,3.2144,3.2215,3.2101,3.2182,3.2158,3.2151,3.2245,3.2129,3.2163,3.229,3.2144,3.2211,3.2248,3.2175,3.2141,3.2256,3.2126,3.2083,3.2126,3.2302,3.2244,3.2245,3.2348,3.2182,3.2271,3.2269,3.232,3.2224,3.235,3.2433,3.2464,3.2498,3.2561,3.271,3.2904,3.2867,3.2788,3.2915,3.3091,3.3141,3.3346,3.327,3.3217,3.3111,3.2968,3.2848,3.2785,3.2201,3.2162,3.2208,3.2229,3.2144,3.2203,3.2148,3.2139,3.2179,3.2212,3.2251,3.2107,3.2242,3.2283,3.2039,3.1438,3.0677,3.0522,3.0876,3.2253,3.5352,3.9629,4.3929,4.5859,4.8311,4.7771,4.4764,3.8725,3.2301,2.9093,2.7474,2.671,2.6851,2.8251,2.9394,3.0711,3.1328,3.1836,3.1818,3.187,3.1733,3.1899,3.1837,3.2006,3.1914,3.1878,3.1935,3.206,3.1966,3.2231,3.2078,3.2162,3.2009,3.2143,3.2032,3.191,3.1965,3.2041,3.2106,3.2234,3.2101,3.2096,3.1996,3.2132,3.2121,3.2144,3.2156,3.2237,3.2173,3.2294,3.2216,3.2169,3.203,3.219,3.2269,3.233,3.2329,3.2359,3.2341,3.2278,3.2414,3.2343,3.2473,3.2561,3.2658,3.2613,3.2667,3.2889,3.2957,3.2891,3.3021,3.2965,3.3062,3.3109,3.311,3.3255,3.3377,3.3347,3.3544,3.3399,3.351,3.336,3.3284,3.3329,3.3302,3.3155,3.3048,3.2938,3.2897,3.2739,3.2822,3.2717,3.2651,3.2565,3.2622,3.2615,3.2675,3.2503,3.2592,3.2609,3.2521,3.255,3.2649,3.2585,3.2703,3.2585,3.2515,3.2427,3.2562,3.251,3.2579,3.2535,3.2508,3.2408,3.2551,3.2638,3.2551,3.2447,3.2435,3.2399,3.2439,3.2453,3.2403,3.2349,3.2487,3.2386,3.237,3.2378,3.2305,3.2329,3.2425,3.2302,3.2214,3.2209,3.23,3.2299,3.2225,3.2225,3.2234,3.2298,3.2179,3.2051,3.2091,3.2146,3.2149,3.2174,3.2124,3.2124,3.2114,3.2164,3.2227,3.2138,3.2096,3.2023,3.2139,3.2271,3.2247,3.2447,3.2541,3.2652,3.2734,3.2536,3.2602,3.2857,3.3004,3.3124,3.2925,3.2875,3.2882,3.2689,3.2613,3.2559,3.2315,3.1796,3.1994,3.191,3.1849,3.1914,3.1826,3.1834,3.1892,3.1897,3.1829,3.1841,3.178,3.1918,3.178,3.1512,3.0703,3.0234,3.0393,3.1076,3.1963,3.5043,3.9421,4.3239,4.5459,4.7623,4.7243,4.1208,3.4878,3.0091,2.7854,2.6593,2.6449,2.7097,2.8115,2.9633,3.0605,3.132,3.1582,3.1734,3.1594,3.1671,3.1604,3.1769,3.1857,3.1909,3.1908,3.1925,3.1867,3.2034,3.1919,3.2016,3.2101,3.2102,3.2162,3.2157,3.1991,3.2002,3.2062,3.2246,3.2233,3.2275,3.2121,3.2222,3.2247,3.2294,3.2281,3.2312,3.2299,3.2354,3.2351,3.2351,3.2369,3.2478,3.2421,3.2541,3.2368,3.2429,3.25,3.2598,3.2721,3.2717,3.2779,3.2684,3.2802,3.3001,3.3013,3.2974,3.3029,3.309,3.3141,3.3224,3.3244,3.3289,3.344,3.3544,3.347,3.3381,3.3435,3.3599,3.354,3.3502,3.3427,3.3243,3.3227,3.3245,3.3112,3.2899,3.2882,3.2833,3.2979,3.2801,3.2674,3.2403,3.2482,3.259,3.2519,3.247,3.2546,3.2504,3.2541,3.2448,3.231,3.2328,3.236,3.2494,3.2555,3.2485,3.2411,3.2453,3.2378,3.2627,3.2534,3.235,3.2479,3.2566,3.2503,3.2363,3.2394,3.246,3.2516,3.2484,3.244,3.2323,3.246,3.2351,3.2449,3.2239,3.2392,3.233,3.2317,3.2404,3.2429,3.2253,3.2315,3.2459,3.2298,3.2315,3.2299,3.2301,3.2345,3.2382,3.2287,3.2416,3.2394,3.218,3.2413,3.2372,3.2313,3.2386,3.2457,3.2357,3.2254,3.2273,3.2211,3.238,3.2393,3.2404,3.2657,3.2867,3.2933,3.2952,3.2728,3.2805,3.3012,3.3191,3.3268,3.3257,3.3125,3.3041,3.3084,3.2807,3.2706,3.2462,3.2092,3.1984,3.2032,3.1958,3.1975,3.1952,3.2049,3.1975,3.2015,3.1869,3.1968,3.1956,3.2002,3.2004,3.1877,3.1365,3.0585,3.0512,3.0652,3.1739,3.4598,3.8828,4.3027,4.5608,4.7958,4.828,4.255,3.6198,3.0828,2.8046,2.7058,2.6484,2.6917,2.8228,2.9782,3.083,3.1578,3.1609,3.1873,3.167,3.1745,3.171,3.1986,3.1903,3.2026,3.1926,3.2034,3.2055,3.2052,3.2171,3.2038,3.1971,3.2045,3.2129,3.2131,3.2115,3.2219,3.2182,3.2252,3.2137,3.2245,3.2191,3.2233,3.2228,3.2259,3.2211,3.2218,3.2419,3.2407,3.2392,3.2426,3.2372,3.2404,3.2452,3.2434,3.248,3.2479,3.2582,3.2505,3.2572,3.2579,3.2624,3.2685,3.2854,3.2813,3.2841,3.2892,3.3029,3.3181,3.3234,3.3062,3.3204,3.3325,3.3376,3.3364,3.36,3.3524,3.3494,3.355,3.3662,3.3446,3.3363,3.3373,3.3292,3.3306,3.3227,3.3074,3.2953,3.2924,3.296,3.2877,3.2862,3.2607,3.2738,3.2731,3.2729,3.2644,3.2599,3.2576,3.2735,3.2712,3.261,3.256,3.2717,3.2669,3.2611,3.2612,3.2594,3.2494,3.2568,3.2606,3.254,3.2525,3.2477,3.2512,3.2568,3.2428,3.2456,3.2401,3.2472,3.253,3.2426,3.2423,3.2348,3.2368,3.2338,3.222,3.2234,3.2358,3.2378,3.2355,3.2257,3.2212,3.2302,3.2302,3.232,3.2283,3.2193,3.2194,3.2252,3.226,3.2235,3.211,3.2139,3.2139,3.2205,3.2243,3.2137,3.21,3.2192,3.2239,3.2193,3.2111,3.2063,3.2233,3.2138,3.2182,3.2119,3.2139,3.2178,3.2165,3.2152,3.2066,3.2184,3.2144,3.2336,3.2472,3.2631,3.271,3.2612,3.2635,3.2814,3.2935,3.2946,3.314,3.2966,3.2981,3.2998,3.2717,3.2583,3.2495,3.2067,3.1909,3.1839,3.1814,3.1883,3.1906,3.1847,3.1923,3.1831,3.187,3.1897,3.1791,3.1827,3.1946,3.1805,3.1144,3.0634,3.0323,3.0451,3.1426,3.3906,3.8103,4.2175,4.5082,4.6843,4.8776,4.3892,3.7344,3.1525,2.8368,2.7269,2.636,2.6956,2.8031,2.9707,3.0785,3.1321,3.1432,3.155,3.155,3.1814,3.1701,3.1789,3.1681,3.1884,3.1809,3.1852,3.1785,3.1948,3.1857,3.2035,3.1873,3.1922,3.1856,3.1908,3.1929,3.1934,3.1813,3.1934,3.1876,3.2074,3.201,3.2035,3.1992,3.1984,3.2084,3.2078,3.1962,3.2074,3.2141,3.2165,3.2223,3.2137,3.2204,3.219,3.2275,3.2237,3.2267,3.24,3.2296,3.2394,3.2399,3.2433,3.2466,3.2481,3.2602,3.2717,3.2725,3.2761,3.2855,3.2962,3.2983,3.3073,3.2984,3.3064,3.32,3.3272,3.3483,3.3344,3.3112,3.3171,3.3241,3.3159,3.309,3.2915,3.3018,3.2873,3.2834,3.2541,3.2551,3.2492,3.2416,3.2368,3.233,3.2179,3.2251,3.2272,3.2319,3.2149,3.2165,3.2259,3.2283,3.2202,3.2024,3.2031,3.2115,3.2113,3.213,3.1954,3.1978,3.1875,3.202,3.1906,3.1866,3.1945,3.1941,3.1962,3.2001,3.1885,3.1857,3.1789,3.1821,3.1839,3.1854,3.1808,3.1814,3.185,3.19,3.1785,3.1768,3.1714,3.1867,3.178,3.1721,3.1713,3.1663,3.1782,3.1695,3.166,3.1728,3.1611,3.1638,3.1688,3.163,3.1622,3.1633,3.1628,3.1629,3.1714,3.1749,3.1761,3.2072,3.2355,3.2262,3.2069,3.197,3.2323,3.2514,3.2716,3.2609,3.2488,3.2606,3.2611,3.235,3.2214,3.2046,3.172,3.1585,3.1584,3.1615,3.1627,3.1536,3.1614,3.1583,3.1659,3.1447,3.1693,3.1701,3.1592,3.1531,3.145,3.1198,3.0515,3.0049,3.0016,3.0625,3.2911,3.6914,4.1115,4.4095,4.5771,4.7897,4.4396,3.8005,3.2008,2.8355,2.7158,2.6144,2.6518,2.7193,2.8675,2.9259,3.0506,3.1129,3.1367,3.1361,3.1395,3.1499,3.1632,3.1621,3.1689,3.1691,3.1737,3.1715,3.1762,3.176,3.1811,3.1788,3.1924,3.1833,3.1835,3.1835,3.1945,3.1975,3.1943,3.1755,3.1896,3.1905,3.2076,3.2037,3.2037,3.1986,3.1959,3.2048,3.2177,3.2045,3.2046,3.2026,3.2189,3.2213,3.212,3.2102,3.2163,3.2254,3.2162,3.238,3.2283,3.239,3.2412,3.2529,3.2514,3.2605,3.2657,3.2732,3.2847,3.2796,3.2878,3.2948,3.2988,3.3033,3.3122,3.3176,3.3194,3.3237,3.3179,3.3163,3.3129,3.3032,3.3021,3.305,3.2927,3.2716,3.2629,3.267,3.253,3.246,3.2304,3.2317,3.2316,3.2282,3.2179,3.2225,3.2165,3.2211,3.2203,3.224,3.2207,3.2287,3.2212,3.2254,3.2196,3.2165,3.2175,3.2138,3.219,3.2178,3.2024,3.2141,3.2122,3.2195,3.215,3.2141,3.2051,3.2083,3.2013,3.204,3.2046,3.2091,3.1901,3.1961,3.201,3.1922,3.1971,3.1981,3.1932,3.1989,3.193,3.1847,3.1806,3.1914,3.185,3.1822,3.1859,3.1756,3.1865,3.1917,3.1854,3.1745,3.1772,3.1873,3.1862,3.1811,3.1777,3.174,3.1791,3.1948,3.1843,3.1697,3.1746,3.1849,3.1779,3.1957,3.2182,3.2348,3.2344,3.2313,3.2207,3.2255,3.2543,3.2804,3.2843,3.2523,3.2573,3.2454,3.2272,3.2276,3.2141,3.1696,3.1452,3.1452,3.1467,3.1523,3.1481,3.1446,3.1451,3.1458,3.1511,3.1441,3.1374,3.1527,3.1592,3.1472,3.1206,3.0374,2.9837,2.9988,3.0857,3.3101,3.7236,4.1507,4.4723,4.6579,4.8789,4.4111,3.7534,3.1762,2.8144,2.7649,2.6313,2.6299,2.7375,2.8972,3.0183,3.1111,3.1252,3.1577,3.1337,3.1565,3.1509,3.1557,3.1601,3.1731,3.1689,3.1684,3.1655,3.1811,3.1806,3.183,3.1783,3.1798,3.1834,3.1859,3.178,3.1836,3.1813,3.1935,3.1965,3.1868,3.1927,3.2014,3.1928,3.1972,3.2035,3.2022,3.1972,3.2047,3.2149,3.2045,3.2057,3.2114,3.2093,3.2062,3.2088,3.2176,3.2103,3.2206,3.2258,3.2264,3.232,3.2363,3.2399,3.2477,3.2634,3.2526,3.2576,3.2596,3.2715,3.2827,3.2845,3.282,3.2982,3.3005,3.3048,3.3075,3.3206,3.3284,3.3283,3.3129,3.3124,3.304,3.3073,3.3077,3.2966,3.2738,3.2704,3.2602,3.2605,3.2577,3.2609,3.2553,3.2396,3.2453,3.2538,3.2435,3.2322,3.24,3.2467,3.2536,3.2556,3.2403,3.2351,3.2515,3.2526,3.2318,3.2328,3.2377,3.2332,3.2359,3.237,3.2274,3.2287,3.2203,3.239,3.2327,3.2301,3.2233,3.2267,3.233,3.2207,3.2231,3.2242,3.2331,3.2121,3.2166,3.2158,3.2059,3.217,3.2198,3.2104,3.2014,3.2053,3.2063,3.2118,3.2125,3.2098,3.2,3.1974,3.2123,3.2091,3.2044,3.2046,3.1991,3.2074,3.2149,3.2122,3.1992,3.1918,3.197,3.1973,3.1935,3.1916,3.1904,3.2017,3.2008,3.2049,3.1944,3.1959,3.1956,3.1985,3.198,3.1957,3.1993,3.1969,3.1965,3.1929,3.1968,3.1958,3.2006,3.1944,3.1858,3.1872,3.183,3.1908,3.2063,3.1905,3.1906,3.1912,3.2015,3.209,3.2024,3.217,3.2357,3.2439,3.2491,3.2404,3.2548,3.2727,3.2711,3.2885,3.2883,3.2819,3.2642,3.2583,3.2445,3.2299,3.1833,3.1595,3.1652,3.1726,3.1807,3.1683,3.1645,3.1719,3.1781,3.1738,3.1747,3.1663,3.1689,3.17,3.1576,3.0905,3.0189,3.0088,3.0398,3.107,3.3636,3.7798,4.2015,4.4982,4.7004,4.8718,4.3689,3.7149,3.1404,2.8157,2.7022,2.6059,2.6834,2.8079,2.9747,3.068,3.122,3.1234,3.1422,3.1393,3.1573,3.1403,3.1595,3.1534,3.1807,3.1619,3.1671,3.1585,3.1777,3.1669,3.1821,3.1636,3.1776,3.1689,3.1834,3.1866,3.1869,3.1695,3.1804,3.1817,3.1944,3.1894,3.1849,3.1833,3.2039,3.1963,3.1871,3.1848,3.1883,3.1989,3.2023,3.1982,3.1934,3.1937,3.2065,3.2096,3.1986,3.2023,3.2085,3.2168,3.2141,3.2114,3.2154,3.2305,3.2301,3.2381,3.2413,3.2502,3.2534,3.2647,3.2726,3.28,3.27,3.2832,3.2889,3.2957,3.2979,3.3064,3.3038,3.3194,3.3151,3.3134,3.3036,3.2956,3.2878,3.2808,3.2644,3.2667,3.2502,3.2498,3.2445,3.2418,3.2289,3.2235,3.2155,3.2287,3.2195,3.225,3.2185,3.2172,3.2159,3.2154,3.2128,3.2044,3.2038,3.2078,3.2117,3.2115,3.204,3.2092,3.2082,3.2052,3.198,3.1953,3.1895,3.2086,3.2063,3.1978,3.1885,3.192,3.1944,3.1939,3.1898,3.1836,3.1931,3.185,3.1918,3.1861,3.1806,3.1955,3.1881,3.1805,3.1806,3.1789,3.1829,3.1901,3.1776,3.1658,3.1609,3.176,3.1727,3.1733,3.1704,3.168,3.1661,3.1763,3.1736,3.1768,3.1687,3.1694,3.1698,3.175,3.175,3.1486,3.1554,3.1664,3.1694,3.1658,3.1658,3.1653,3.1695,3.1737,3.1706,3.1636,3.1598,3.1652,3.1733,3.1719,3.1634,3.1623,3.1707,3.1685,3.1817,3.1706,3.1561,3.1724,3.1635,3.1617,3.1638,3.1684,3.183,3.206,3.2206,3.2208,3.2259,3.2067,3.2199,3.238,3.2455,3.2518,3.2545,3.2766,3.2714,3.2372,3.22,3.216,3.1682,3.139,3.1462,3.1481,3.1625,3.164,3.1676,3.1565,3.1654,3.1607,3.1555,3.1627,3.1613,3.161,3.1502,3.0963,3.0413,3.0086,3.0172,3.1267,3.4226,3.8599,4.2628,4.4972,4.6967,4.7546,4.21,3.5706,3.2669,2.9154,2.7556,2.6556,2.6583,2.7212,2.8438,2.9928,3.089,3.1541,3.1517,3.1576,3.1558,3.1712,3.1755,3.183,3.1783,3.1901,3.1988,3.2115,3.2037,3.189,3.196,3.2097,3.1897,3.1938,3.2041,3.1988,3.2021,3.2121,3.1972,3.208,3.2103,3.2147,3.222,3.2216,3.2102,3.2113,3.2217,3.2333,3.227,3.2274,3.2216,3.2392,3.2327,3.2362,3.2313,3.2312,3.2441,3.2508,3.2421,3.2399,3.2456,3.2579,3.266,3.2706,3.2785,3.284,3.2848,3.2928,3.2933,3.2889,3.2994,3.3038,3.3212,3.3158,3.3207,3.3249,3.3379,3.3425,3.3488,3.3363,3.3398,3.3385,3.3371,3.3263,3.3173,3.3108,3.3054,3.2971,3.2784,3.2723,3.2726,3.2593,3.2628,3.2678,3.2512,3.241,3.243,3.2418,3.2499,3.2442,3.2458,3.2456,3.2491,3.2414,3.246,3.2442,3.2451,3.2482,3.2505,3.2357,3.2353,3.2443,3.2407,3.2436,3.2426,3.2436,3.2371,3.2358,3.2358,3.2351,3.2299,3.2285,3.2357,3.2301,3.2287,3.2243,3.2304,3.2323,3.228,3.2266,3.2172,3.2093,3.2201,3.2165,3.2097,3.2023,3.2072,3.2142,3.2191,3.2044,3.204,3.2021,3.1944,3.2007,3.2198,3.2109,3.2,3.2055,3.2121,3.2013,3.1972,3.1833,3.1857,3.2176,3.1976,3.1888,3.1918,3.1868,3.1931,3.2017,3.1897,3.1964,3.1948,3.2033,3.1984,3.1954,3.1903,3.1926,3.2048,3.1996,3.1953,3.1897,3.1885,3.2167,3.2414,3.2548,3.2396,3.2263,3.2552,3.2782,3.2724,3.2769,3.2718,3.2797,3.2719,3.2504,3.2322,3.2313,3.1821,3.1725,3.1679,3.1568,3.1625,3.1638,3.1643,3.1717,3.1568,3.1616,3.1696,3.175,3.1648,3.168,3.1632,3.1021,3.0321,3.0079,3.0203,3.1448,3.434,3.8574,4.2813,4.5259,4.7591,4.9003,4.5715,3.9151,3.2839,2.8879,2.7324,2.6406,2.6556,2.7635,2.9175,3.0528,3.1309,3.1465,3.1413,3.1434,3.1516,3.1644,3.1625,3.1659,3.1746,3.1839,3.1876,3.185,3.1757,3.18,3.1873,3.1904,3.1992,3.1941,3.1912,3.2019,3.1993,3.1972,3.2002,3.2005,3.2017,3.206,3.1997,3.2076,3.2136,3.2134,3.2063,3.2057,3.2117,3.2116,3.21,3.2135,3.2298,3.2158,3.2155,3.2197,3.2188,3.2261,3.2321,3.2243,3.2361,3.2527,3.254,3.2451,3.245,3.2602,3.2704,3.2718,3.2783,3.2809,3.2852,3.2896,3.3029,3.3037,3.3009,3.2977,3.3179,3.3288,3.3229,3.3147,3.3104,3.3091,3.304,3.3049,3.2744,3.2702,3.2656,3.267,3.2631,3.2528,3.2474,3.2454,3.2469,3.2327,3.2334,3.2209,3.2299,3.2276,3.2314,3.2298,3.2227,3.2242,3.23,3.2299,3.2311,3.2195,3.2215,3.2256,3.2234,3.2286,3.2121,3.2157,3.2306,3.2323,3.2222,3.2204,3.2199,3.2272,3.2255,3.2192,3.2201,3.2236,3.2193,3.226,3.2149,3.2131,3.2168,3.2217,3.225,3.2229,3.2028,3.2078,3.2081,3.2203,3.2183,3.2024,3.2088,3.2076,3.2199,3.2087,3.1981,3.1997,3.2041,3.2149,3.2096,3.2073,3.2022,3.2058,3.2008,3.2059,3.2114,3.1928,3.1954,3.2021,3.2142,3.2047,3.1974,3.207,3.2085,3.2074,3.2009,3.1922,3.2014,3.2012,3.2117,3.196,3.1938,3.195,3.2123,3.198,3.1983,3.1943,3.1928,3.2022,3.2047,3.1947,3.1933,3.1954,3.1929,3.228,3.2342,3.2421,3.2499,3.2457,3.2446,3.2556,3.2779,3.277,3.2888,3.287,3.2853,3.2802,3.2529,3.2412,3.2396,3.1943,3.1728,3.1697,3.1652,3.1745,3.1717,3.1671,3.1631,3.175,3.185,3.1714,3.1657,3.1776,3.1777,3.1394,3.0644,3.0263,3.0136,3.0351,3.1745,3.5051,3.9326,4.3272,4.5373,4.7935,4.7529,4.1307,3.5022,3.008,2.7747,2.6649,2.6328,2.6935,2.8203,2.9809,3.0755,3.1205,3.1173,3.1284,3.133,3.1472,3.1439,3.146,3.1451,3.1511,3.153,3.1586,3.1505,3.1535,3.1543,3.1687,3.1629,3.1553,3.1588,3.1657,3.1582,3.17,3.1665,3.159,3.1645,3.1771,3.1658,3.174,3.1699,3.1696,3.1793,3.1726,3.1662,3.1728,3.1775,3.1966,3.1869,3.1814,3.1843,3.1886,3.2042,3.2004,3.2017,3.1998,3.1997,3.2125,3.2182,3.2169,3.2297,3.2249,3.2397,3.2385,3.2489,3.2505,3.26,3.2612,3.2729,3.267,3.2757,3.293,3.2948,3.3084,3.2999,3.2973,3.2982,3.297,3.2952,3.2829,3.2725,3.2655,3.2671,3.2582,3.2406,3.2318,3.2218,3.2121,3.2181,3.205,3.1959,3.2076,3.2168,3.1975,3.1934,3.1876,3.1844,3.1815,3.1915,3.1935,3.1902,3.1912,3.1958,3.1959,3.1943,3.1889,3.187,3.1983,3.1983,3.186,3.1757,3.177,3.1781,3.1884,3.183,3.1739,3.182,3.1813,3.1819,3.1869,3.1777,3.1749,3.1773,3.1743,3.1741,3.1646,3.1579,3.1658,3.1672,3.1696,3.159,3.1586,3.1626,3.1685,3.1655,3.16,3.1613,3.1569,3.1595,3.161,3.1565,3.1562,3.1609,3.1545,3.1638,3.1589,3.1566,3.1583,3.1622,3.1735,3.1566,3.1621,3.1999,3.2157,3.2232,3.2053,3.1921,3.2253,3.2428,3.2612,3.2541,3.2475,3.2461,3.2444,3.2303,3.2092,3.2036,3.1631,3.1364,3.1428,3.1387,3.138,3.144,3.1435,3.1545,3.1441,3.1459,3.1368,3.1381,3.1501,3.1496,3.143,3.1049,3.0499,2.9917,2.9983,3.0548,3.2622,3.6673,4.0864,4.4027,4.5667,4.7787,4.444,3.8026,3.2182,2.8575,2.7139,2.6052,2.6331,2.662,2.7819,2.9041,3.0313,3.1002,3.1388,3.1285,3.135,3.1367,3.159,3.1505,3.1569,3.1564,3.1613,3.1525,3.1717,3.1645,3.1682,3.1722,3.18,3.1801,3.1776,3.1762,3.1739,3.178,3.1838,3.1787,3.1817,3.1842,3.1834,3.1835,3.1804,3.1844,3.1907,3.1895,3.2051,3.1917,3.1892,3.1986,3.2018,3.2044,3.2064,3.2023,3.2141,3.2182,3.2148,3.2227,3.2197,3.2345,3.2293,3.2449,3.2513,3.2504,3.2605,3.2672,3.2771,3.2762,3.2777,3.2909,3.2947,3.3057,3.3046,3.3059,3.3037,3.3177,3.3165,3.3213,3.3133,3.2993,3.3008,3.289,3.2725,3.2666,3.259,3.2536,3.2399,3.2348,3.225,3.2214,3.2101,3.2169,3.2149,3.2127,3.1975,3.2029,3.2083,3.2042,3.2042,3.2108,3.2105,3.2065,3.2125,3.2103,3.2066,3.2082,3.2017,3.2088,3.2102,3.2092,3.1982,3.1976,3.2069,3.2091,3.2038,3.1977,3.206,3.2079,3.2041,3.199,3.2019,3.1927,3.1965,3.2031,3.1976,3.1989,3.1917,3.1962,3.1933,3.1869,3.1836,3.188,3.1939,3.1912,3.1829,3.1776,3.1797,3.1773,3.1864,3.1836,3.1798,3.1729,3.1851,3.1919,3.1871,3.1799,3.1668,3.1828,3.1819,3.174,3.173,3.1736,3.1872,3.1914,3.1952,3.2109,3.2223,3.2276,3.2263,3.2196,3.2335,3.2571,3.2658,3.267,3.2606,3.2414,3.2427,3.2288,3.2163,3.2024,3.1701,3.1501,3.1478,3.1447,3.1419,3.1484,3.1436,3.1452,3.1532,3.1466,3.1429,3.1439,3.1462,3.1618,3.1426,3.1093,3.0369,2.9771,2.9971,3.0582,3.2724,3.6731,4.1035,4.4378,4.6077,4.7743,4.7524,4.1451,3.5119,2.9953,2.7552,2.6604,2.6019,2.7116,2.8574,2.9992,3.086,3.1216,3.1274,3.1301,3.1283,3.131,3.1372,3.1474,3.1483,3.1507,3.1434,3.162,3.1542,3.1645,3.161,3.17,3.1694,3.1738,3.1753,3.1752,3.1707,3.1768,3.1744,3.1872,3.1822,3.1744,3.178,3.1815,3.1871,3.1839,3.1763,3.1944,3.188,3.1984,3.1982,3.1926,3.1993,3.2012,3.2099,3.2037,3.2067,3.2034,3.2046,3.2133,3.2138,3.2153,3.2238,3.2384,3.2462,3.2456,3.2495,3.2532,3.2619,3.2793,3.2892,3.277,3.2683,3.2936,3.2997,3.3148,3.3011,3.2857,3.3062,3.3117,3.3102,3.2976,3.2953,3.2868,3.283,3.28,3.271,3.2619,3.2623,3.2494,3.2468,3.2324,3.2297,3.2227,3.2197,3.2244,3.2196,3.2147,3.2145,3.2179,3.2244,3.2205,3.2117,3.211,3.2207,3.2186,3.2155,3.2147,3.2127,3.2116,3.2285,3.2223,3.2119,3.2091,3.2161,3.2217,3.2125,3.2088,3.2045,3.2098,3.2175,3.2056,3.1982,3.2031,3.2089,3.205,3.191,3.188,3.1805,3.1845,3.1846,3.1838,3.179,3.1806,3.1781,3.1844,3.1828,3.1779,3.1834,3.1845,3.1851,3.1884,3.1886,3.1853,3.1826,3.1732,3.1765,3.1792,3.1874,3.1807,3.1738,3.1805,3.1779,3.1682,3.169,3.163,3.1772,3.1922,3.1751,3.1553,3.1678,3.1694,3.1661,3.1714,3.1944,3.2204,3.2371,3.2347,3.2299,3.2234,3.234,3.2611,3.2807,3.2817,3.2805,3.2705,3.2636,3.2528,3.2271,3.2233,3.2017,3.1692,3.1575,3.1383,3.1362,3.1583,3.1554,3.1561,3.1498,3.1469,3.1486,3.1548,3.1548,3.1575,3.15,3.1345,3.0937,3.0152,2.9897,3.0149,3.1444,3.4331,3.8698,4.2837,4.5166,4.7811,4.8041,4.2078,3.5633,3.0206,2.7695,2.7171,2.6208,2.6509,2.7887,2.9391,3.054,3.1182,3.1277,3.1264,3.1354,3.1397,3.1412,3.1343,3.1335,3.1453,3.1371,3.1509,3.148,3.1584,3.1471,3.1527,3.1597,3.1647,3.161,3.1565,3.1629,3.1767,3.1654,3.1701,3.1642,3.1768,3.1665,3.173,3.1718,3.1755,3.1713,3.1819,3.1856,3.176,3.1818,3.1825,3.1785,3.1791,3.1764,3.1784,3.1839,3.1881,3.1879,3.1915,3.1923,3.1964,3.2042,3.2174,3.2055,3.213,3.2263,3.2328,3.2405,3.2307,3.2412,3.2655,3.2709,3.2767,3.2726,3.275,3.287,3.2975,3.3063,3.2925,3.287,3.2807,3.2858,3.2789,3.2674,3.2545,3.2459,3.2375,3.2324,3.2173,3.2138,3.2157,3.2146,3.2137,3.2008,3.1989,3.1934,3.1837,3.1958,3.1914,3.1891,3.1844,3.1875,3.1992,3.1866,3.1835,3.1767,3.1753,3.1842,3.1793,3.1714,3.1675,3.1727,3.1717,3.175,3.1732,3.1635,3.1565,3.1721,3.1695,3.1647,3.1623,3.1644,3.1674,3.1702,3.1654,3.162,3.1593,3.1617,3.1647,3.1624,3.1488,3.1486,3.1522,3.1577,3.1503,3.1519,3.1521,3.1412,3.1425,3.1512,3.1453,3.1417,3.1436,3.136,3.1303,3.1323,3.1375,3.1458,3.1495,3.138,3.1277,3.1415,3.148,3.1502,3.1513,3.1665,3.1772,3.1853,3.2015,3.1737,3.1711,3.2074,3.2219,3.2336,3.2215,3.2101,3.206,3.1884,3.1773,3.1655,3.1316,3.101,3.1083,3.1051,3.1039,3.1108,3.1034,3.1009,3.1075,3.1091,3.0972,3.0936,3.105,3.112,3.1106,3.0926,3.0328,2.9596,2.9498,2.9728,3.0733,3.3881,3.8416,4.2185,4.4281,4.5037,4.6916,4.3549,3.7262,3.1439,2.79,2.6711,2.5605,2.6026,2.6488,2.7956,2.9189,3.0269,3.0704,3.0939,3.0864,3.1015,3.1015,3.1146,3.1173,3.1213,3.1203,3.1186,3.1263,3.1395,3.1286,3.1289,3.1273,3.134,3.1406,3.1471,3.1448,3.1574,3.1393,3.1442,3.1445,3.146,3.1513,3.1609,3.1601,3.1658,3.1689,3.1626,3.1659,3.1813,3.1722,3.1592,3.1746,3.1784,3.1838,3.1842,3.1776,3.1813,3.1908,3.2013,3.2113,3.1978,3.2071,3.2131,3.2246,3.2269,3.2329,3.2313,3.2472,3.2408,3.2542,3.2539,3.2695,3.2754,3.2845,3.2915,3.3012,3.2879,3.2938,3.3027,3.2976,3.287,3.2857,3.2712,3.2647,3.2655,3.2459,3.2323,3.2288,3.234,3.227,3.2017,3.1966,3.1943,3.1901,3.194,3.1945,3.1855,3.1883,3.1855,3.1861,3.1823,3.18,3.1772,3.1771,3.1847,3.1801,3.1855,3.1865,3.181,3.1889,3.1882,3.1951,3.1853,3.1793,3.187,3.1921,3.1841,3.1803,3.1912,3.1893,3.1827,3.1788,3.1713,3.1758,3.1753,3.1752,3.1646,3.166,3.164,3.1561,3.1563,3.158,3.1549,3.156,3.1515,3.1513,3.1405,3.1315,3.1374,3.1409,3.1455,3.1424,3.1393,3.1383,3.1486,3.1444,3.1469,3.168,3.1639,3.1733,3.1935,3.194,3.1851,3.184,3.1885,3.2287,3.2267,3.2235,3.2354,3.2188,3.2161,3.1878,3.1811,3.1726,3.1574,3.121,3.1194,3.1099,3.1007,3.0979,3.1068,3.108,3.1115,3.11,3.1158,3.1107,3.1054,3.1085,3.1048,3.0979,3.0672,3.0006,2.9359,2.953,3.022,3.2572,3.6653,4.0909,4.4067,4.4889,4.7444,4.6845,4.0575,3.4353,2.9291,2.7107,2.5968,2.5702,2.6576,2.7974,2.9341,3.0416,3.0707,3.0776,3.0825,3.0831,3.0992,3.099,3.0915,3.1021,3.1065,3.12,3.1166,3.112,3.1256,3.1179,3.1315,3.1258,3.1309,3.1285,3.1329,3.1268,3.127,3.1299,3.1308,3.1334,3.1394,3.1338,3.1327,3.1329,3.1355,3.1443,3.1427,3.1378,3.1387,3.1518,3.1571,3.1446,3.1487,3.147,3.1507,3.1612,3.1559,3.1589,3.1594,3.1635,3.1735,3.1835,3.1941,3.1891,3.1902,3.1974,3.2032,3.2061,3.207,3.2186,3.2276,3.2323,3.2427,3.2369,3.2467,3.257,3.2654,3.2503,3.2483,3.247,3.2422,3.2404,3.2275,3.2155,3.215,3.2152,3.2119,3.1972,3.1782,3.1683,3.1701,3.1822,3.1701,3.1622,3.1666,3.1618,3.1595,3.1499,3.1523,3.1554,3.1575,3.1633,3.1592,3.1545,3.1651,3.1633,3.1582,3.1525,3.1514,3.162,3.1466,3.1448,3.1351,3.1362,3.1387,3.1313,3.1423,3.144,3.1293,3.1331,3.1381,3.1413,3.1291,3.1254,3.1203,3.124,3.129,3.1237,3.1132,3.1148,3.1186,3.1231,3.1175,3.1049,3.1115,3.1125,3.1129,3.1143,3.1069,3.0998,3.0931,3.1086,3.1005,3.1011,3.1019,3.1042,3.1098,3.1052,3.1004,3.0892,3.0992,3.097,3.1156,3.1004,3.0953,3.0875,3.0913,3.0965,3.0951,3.0909,3.089,3.0869,3.0942,3.0918,3.0855,3.0866,3.0801,3.0987,3.1047,3.0995,3.0891,3.093,3.0913,3.1067,3.0927,3.0933,3.1,3.1057,3.0982,3.0966,3.0906,3.0958,3.1012,3.1044,3.099,3.0943,3.0951,3.1067,3.1058,3.1074,3.0927,3.0978,3.1059,3.1006,3.1102,3.1304,3.1532,3.164,3.1455,3.1464,3.1651,3.1747,3.1906,3.1937,3.1848,3.1865,3.1687,3.1507,3.1512,3.1389,3.0916,3.0672,3.0781,3.0837,3.08,3.0872,3.1025,3.0787,3.0835,3.0767,3.0829,3.0809,3.0933,3.0905,3.0689,2.995,2.9271,2.922,2.9618,3.0237,3.2651,3.6776,4.113,4.4274,4.6357,4.8165,4.32,3.6699,3.0799,2.7398,2.6359,2.5349,2.6168,2.7339,2.8803,2.9777,3.0499,3.0567,3.078,3.058,3.0703,3.07,3.0886,3.0837,3.0904,3.083,3.0883,3.0871,3.1102,3.0999,3.1105,3.1035,3.1058,3.103,3.1199,3.1091,3.1088,3.1037,3.1133,3.1162,3.1192,3.1077,3.1073,3.1137,3.1196,3.1055,3.1172,3.105,3.1064,3.1242,3.1109,3.1147,3.1214,3.1204,3.1419,3.1411,3.1278,3.1205,3.1243,3.1324,3.1214,3.13,3.1123,3.1392,3.1404,3.1459,3.1551,3.1418,3.158,3.1649,3.1713,3.18,3.1766,3.1842,3.1783,3.1902,3.191,3.1918,3.2029,3.2153,3.2003,3.1844,3.1811,3.1782,3.1863,3.1905,3.1667,3.1498,3.1386,3.1437,3.1434,3.1256,3.1046,3.1145,3.1087,3.1057,3.1231,3.1071,3.0863,3.1161,3.1158,3.0816,3.0753,3.0938,3.0924,3.1097,3.1012,3.119,3.0974,3.1109,3.1198,3.0904,3.07,3.1146,3.1136,3.1283,3.1125,3.1107,3.122,3.1263,3.1472,3.1329,3.0935,3.107,3.1066,3.1561,3.1794,3.1877,3.1395,3.1357,3.1486,3.1457,3.1568,3.1344,3.113,3.1433,3.1664,3.1153,3.1198,3.1517,3.1498,3.1215,3.0936,3.0872,3.1052,3.1467,3.1132,3.1013,3.092,3.0666,3.0853,3.0964,3.1214,3.1091,3.1221,3.1374,3.1384,3.1373,3.1438,3.1856,3.1854,3.1608,3.1497,3.1776,3.2207,3.1872,3.2118,3.1902,3.1875,3.1905,3.1725,3.1727,3.1408,3.1439,3.1688,3.1754,3.1718,3.1415,3.1359,3.169,3.1576,3.1356,3.1625,3.1507,3.142,3.1308,3.1621,3.1433,3.1388,3.1653,3.1664,3.1404,3.1755,3.1592,3.1779,3.1698,3.1669,3.1708,3.1838,3.1421,3.1297,3.1647,3.1582,3.1596,3.1305,3.1431,3.1735,3.1886,3.1857,3.1834,3.2064,3.1947,3.1612,3.1818,3.196,3.1751,3.1956,3.1911,3.1962,3.1999,3.1977,3.1562,3.1483,3.0997,3.0837,3.087,3.074,3.09,3.0997,3.0732,3.0882,3.0642,3.0771,3.13,3.0847,3.1215,3.0803,3.0861,3.0137,2.9579,2.926,2.9581,3.0989,3.4458,3.8464,4.221,4.3628,4.5319,4.715,4.2913,3.6216,3.0892,2.7787,2.6359,2.539,2.5472,2.6435,2.8104,2.9396,3.0201,2.9925,3.0498,3.0832,3.0896,3.0712,3.0747,3.0818,3.0598,3.0699,3.1007,3.0857,3.0853,3.1007,3.1191,3.1021,3.0612,3.0786,3.1074,3.1309,3.119,3.1298,3.0987,3.1117,3.1201,3.1266,3.0876,3.1171,3.1141,3.125,3.1231,3.1337,3.1371,3.1337,3.1238,3.1238,3.1141,3.1122,3.084,3.0892,3.0783,3.1126,3.1043,3.0929,3.1145,3.0885,3.0935,3.0934,3.0931,3.1184,3.1455,3.1439,3.1392,3.1361,3.1366,3.1537,3.1811,3.1867,3.1932,3.2329,3.2226,3.2098,3.2016,3.2016,3.2093,3.1558,3.1928,3.1812,3.1386,3.1788,3.1996,3.122,3.1563,3.1593,3.1082,3.149,3.1132,3.0595,3.1245,3.1303,3.0652,3.0845,3.0744,3.1014,3.1242,3.1085,3.0949,3.0907,3.0722,3.0819,3.0815,3.0739,3.0861,3.067,3.061,3.0822,3.0639,3.0749,3.0499,3.0566,3.07,3.0866,3.0762,3.0696,3.085,3.0722,3.0665,3.0821,3.0654,3.0718,3.0787,3.106,3.1454,3.1195,3.1228,3.0906,3.1075,3.0905,3.0551,3.1059,3.0744,3.1059,3.1275,3.0738,3.0795,3.0942,3.1389,3.0843,3.1041,3.0859,3.0712,3.081,3.0992,3.0847,3.1273,3.1069,3.0682,3.1052,3.1028,3.102,3.0786,3.0683,3.0609,3.058,3.0665,3.0308,3.053,3.0612,3.0218,3.0389,3.044,3.0685,3.0919,3.0631,3.0346,3.0564,3.0493,3.0979,3.094,3.1284,3.1518,3.1533,3.1091,3.117,3.2142,3.2108,3.1918,3.159,3.1615,3.1458,3.1554,3.1272,3.1075,3.1093,3.046,3.021,3.0333,3.0473,3.0385,3.0083,3.049,3.0445,3.0366,3.0544,3.0704,3.0501,3.0585,3.0477,3.0131,2.9242,2.8726,2.9464,3.0078,3.0974,3.4238,3.8777,4.2953,4.4896,4.7583,4.6213,3.9848,3.3664,2.8978,2.6835,2.5394,2.5212,2.6061,2.7427,2.9015,3.0244,3.0226,3.0478,3.0516,3.0239,3.0232,3.0315,3.1038,3.1349,3.0693,3.061,3.0848,3.0909,3.1146,3.0949,3.092,3.1155,3.0934,3.0685,3.1041,3.0925,3.0884,3.1347,3.0986,3.1012,3.1,3.1036,3.1068,3.1152,3.0988,3.1026,3.1396,3.1383,3.1194,3.1074,3.1466,3.1781,3.1104,3.1567,3.1695,3.1498,3.1298,3.1485,3.1258,3.1169,3.1188,3.1323,3.1744,3.1819,3.1546,3.1357,3.139,3.1706,3.1732,3.2027,3.181,3.2039,3.2133,3.2073,3.2082,3.1884,3.2307,3.2362,3.2221,3.1903,3.233,3.233,3.1959,3.1775,3.177,3.1943,3.1779,3.1405,3.1454,3.1565,3.1355,3.1512,3.1569,3.1091,3.1368,3.1327,3.1388,3.1261,3.1189,3.1499,3.1321,3.1578,3.1537,3.1229,3.1338,3.125,3.1398,3.1046,3.1254,3.1245,3.1232,3.1128,3.11,3.0899,3.1078,3.0968,3.0881,3.078,3.0858,3.1081,3.0986,3.0613,3.0594,3.1348,3.1667,3.1237,3.1082,3.16,3.1529,3.1542,3.113,3.1267,3.1891,3.1713,3.1769,3.1589,3.1541,3.163,3.1622,3.1718,3.1736,3.178,3.1685,3.1511,3.1339,3.166,3.1803,3.1439,3.1771,3.1601,3.1835,3.1564,3.1531,3.1567,3.1782,3.1676,3.1474,3.1941,3.1616,3.1631,3.1698,3.1617,3.1405,3.1752,3.177,3.2055,3.2101,3.1847,3.2174,3.2068,3.1866,3.2436,3.2202,3.2097,3.2113,3.253,3.2097,3.209,3.1887,3.1941,3.2027,3.1213,3.1221,3.0956,3.1016,3.1116,3.0915,3.1134,3.1231,3.1073,3.093,3.0907,3.108,3.0974,3.1226,3.0803,2.9942,2.9181,2.939,2.9897,3.1871,3.5541,3.9714,4.3183,4.5004,4.7193,4.7921,4.2381,3.5589,3.0286,2.7059,2.6405,2.5301,2.6525,2.7975,2.9664,3.0226,3.0754,3.0629,3.0666,3.0649,3.0834,3.1146,3.1078,3.1049,3.084,3.1023,3.1037,3.084,3.1071,3.1066,3.0921,3.1157,3.129,3.1039,3.114,3.1144,3.1355,3.1014,3.1243,3.1201,3.1347,3.1365,3.1124,3.1224,3.1229,3.1227,3.1557,3.1562,3.0997,3.1646,3.1522,3.1504,3.15,3.1559,3.1684,3.1714,3.1395,3.1466,3.1454,3.157,3.1765,3.1908,3.2034,3.1824,3.2083,3.192,3.1846,3.2369,3.2177,3.2392,3.2372,3.2291,3.2136,3.2333,3.2602,3.2463,3.2703,3.2642,3.2493,3.2476,3.2462,3.2351,3.2222,3.2689,3.2042,3.2357,3.236,3.2188,3.1895,3.1488,3.1726,3.1728,3.1858,3.1586,3.1834,3.1696,3.1592,3.1951,3.1686,3.1687,3.1392,3.1737,3.1276,3.1533,3.1407,3.1532,3.0913,3.1017,3.1439,3.1508,3.1572,3.104,3.1176,3.1229,3.1109,3.138,3.1396,3.1468,3.1264,3.1062,3.1509,3.1294,3.1209,3.1322,3.1294,3.1199,3.1056,3.1033,3.1546,3.1369,3.1069,3.0937,3.1339,3.1159,3.1151,3.1186,3.1135,3.0993,3.0775,3.0794,3.1031,3.0861,3.1001,3.0904,3.0846,3.1034,3.0754,3.0921,3.0838,3.0991,3.0984,3.0936,3.0894,3.0794,3.104,3.0974,3.0979,3.1237,3.1414,3.1403,3.1366,3.1329,3.0945,3.11,3.1364,3.1404,3.1828,3.1723,3.1732,3.1198,3.1173,3.1053,3.0973,3.0752,3.048,3.0447,3.0451,3.0633,3.0618,3.0568,3.0401,3.054,3.0649,3.0623,3.0406,3.0749,3.0581,3.0168,2.9725,2.9251,2.9307,2.9141,2.9938,3.2287,3.6356,4.0633,4.3554,4.4917,4.6839,4.2777,3.616,3.0398,2.7371,2.6106,2.5377,2.5861,2.6738,2.8068,2.9332,2.9894,3.002,3.0784,3.0756,3.0588,3.0771,3.089,3.0766,3.0901,3.064,3.0951,3.0648,3.1093,3.097,3.0911,3.0906,3.0993,3.0996,3.1265,3.1066,3.1023,3.0935,3.1121,3.1527,3.1543,3.1254,3.0968,3.1158,3.1369,3.1794,3.1504,3.1372,3.1564,3.1438,3.1432,3.1398,3.1314,3.1546,3.1668,3.1454,3.1142,3.1079,3.1082,3.1396,3.1169,3.15,3.1506,3.1449,3.1616,3.1701,3.1813,3.161,3.1879,3.1882,3.2367,3.2226,3.2173,3.2201,3.2132,3.2643,3.2477,3.2276,3.2342,3.2403,3.2448,3.2386,3.2136,3.1883,3.2224,3.1801,3.1971,3.1831,3.1813,3.1782,3.1568,3.1673,3.1397,3.1243,3.136,3.1323,3.1233,3.137,3.1217,3.1102,3.1285,3.1337,3.1346,3.1272,3.1175,3.131,3.1567,3.1347,3.1236,3.1397,3.1285,3.1609,3.1296,3.1179,3.1384,3.1075,3.1347,3.1502,3.1761,3.1572,3.1361,3.1292,3.1609,3.1566,3.135,3.142,3.145,3.1302,3.1167,3.1337,3.1379,3.1253,3.1324,3.1443,3.1257,3.1423,3.1355,3.1609,3.1491,3.1685,3.1935,3.2023,3.1668,3.1733,3.1818,3.2001,3.2243,3.2049,3.2605,3.2572,3.2179,3.2346,3.2234,3.1748,3.1609,3.1223,3.1205,3.1237,3.0603,3.0877,3.1004,3.1294,3.0953,3.0955,3.0817,3.0887,3.1077,3.1113,3.0844,3.0903,3.0596,2.9697,2.9386,2.9575,2.9796,3.1622,3.5578,3.9934,4.3094,4.4866,4.7456,4.6755,4.118,3.4858,2.9634,2.689,2.5857,2.5539,2.6068,2.7495,2.8751,3.0057,3.0338,3.0696,3.0858,3.0768,3.0921,3.0741,3.1064,3.0802,3.0935,3.0935,3.0943,3.1105,3.1155,3.1151,3.1022,3.081,3.095,3.1363,3.1352,3.1142,3.1225,3.1242,3.1278,3.1351,3.1275,3.1597,3.1293,3.1178,3.1668,3.1703,3.1835,3.1767,3.1844,3.167,3.1571,3.1451,3.1785,3.1869,3.1655,3.1498,3.1571,3.1571,3.1556,3.1621,3.1578,3.1512,3.1611,3.1539,3.168,3.1916,3.1976,3.2216,3.1958,3.2082,3.2172,3.2262,3.2473,3.259,3.2667,3.2381,3.267,3.2412,3.2543,3.2462,3.2544,3.2365,3.2198,3.203,3.2041,3.1732,3.1736,3.2005,3.1665,3.1535,3.1373,3.1568,3.1219,3.1277,3.1518,3.135,3.1435,3.1431
