10.403,10.458,10.444,10.456,10.425,10.412,10.378,10.402,10.415,10.449,10.425,10.442,10.441,10.473,10.447,10.434,10.415,10.42,10.442,10.468,10.424,10.407,10.414,10.474,10.474,10.456,10.45,10.479,10.533,10.558,10.546,10.547,10.561,10.596,10.624,10.603,10.595,10.599,10.606,10.632,10.657,10.633,10.635,10.649,10.689,10.69,10.653,10.643,10.659,10.693,10.674,10.624,10.594,10.608,10.604,10.575,10.542,10.528,10.526,10.5,10.501,10.464,10.455,10.454,10.496,10.518,10.517,10.465,10.467,10.471,10.491,10.47,10.442,10.458,10.488,10.496,10.484,10.478,10.458,10.478,10.495,10.503,10.491,10.479,10.502,10.531,10.533,10.479,10.48,10.474,10.496,10.512,10.463,10.46,10.457,10.477,10.496,10.452,10.449,10.431,10.435,10.466,10.438,10.408,10.426,10.465,10.512,10.514,10.504,10.496,10.533,10.562,10.568,10.57,10.588,10.609,10.568,10.537,10.529,10.488,10.487,10.463,10.397,10.369,10.342,10.367,10.392,10.389,10.367,10.36,10.371,10.393,10.362,10.353,10.352,10.377,10.403,10.386,10.358,10.262,10.237,10.311,10.46,10.716,11.082,11.358,11.297,10.706,10.226,10.175,10.231,10.337,10.404,10.402,10.361,10.368,10.374,10.389,10.376,10.366,10.358,10.381,10.413,10.416,10.383,10.397,10.377,10.41,10.383,10.358,10.347,10.375,10.395,10.389,10.339,10.353,10.395,10.419,10.436,10.403,10.407,10.435,10.466,10.497,10.481,10.47,10.468,10.5,10.53,10.502,10.493,10.499,10.524,10.555,10.528,10.509,10.536,10.558,10.548,10.548,10.538,10.507,10.515,10.517,10.532,10.479,10.456,10.454,10.448,10.418,10.371,10.354,10.362,10.401,10.369,10.318,10.32,10.336,10.363,10.361,10.363,10.338,10.342,10.351,10.354,10.345,10.333,10.335,10.391,10.367,10.378,10.357,10.35,10.394,10.412,10.398,10.371,10.386,10.402,10.417,10.395,10.377,10.361,10.377,10.385,10.385,10.36,10.325,10.342,10.344,10.36,10.343,10.374,10.415,10.458,10.438,10.392,10.413,10.443,10.466,10.491,10.515,10.479,10.454,10.463,10.474,10.406,10.368,10.343,10.329,10.322,10.286,10.289,10.319,10.329,10.329,10.302,10.288,10.299,10.334,10.348,10.349,10.283,10.287,10.304,10.266,10.218,10.212,10.312,10.543,10.905,11.24,11.323,10.881,10.343,10.165,10.206,10.263,10.324,10.343,10.354,10.364,10.351,10.316,10.32,10.362,10.374,10.331,10.343,10.359,10.385,10.361,10.359,10.359,10.364,10.364,10.383,10.38,10.341,10.345,10.353,10.387,10.375,10.374,10.394,10.412,10.42,10.438,10.46,10.461,10.486,10.523,10.496,10.481,10.475,10.506,10.564,10.585,10.551,10.529,10.526,10.56,10.574,10.575,10.55,10.571,10.565,10.587,10.573,10.539,10.526,10.525,10.504,10.471,10.441,10.432,10.437,10.447,10.402,10.362,10.349,10.357,10.38,10.36,10.347,10.321,10.363,10.395,10.369,10.345,10.345,10.372,10.395,10.404,10.373,10.366,10.377,10.402,10.388,10.352,10.364,10.371,10.399,10.42,10.397,10.374,10.398,10.403,10.41,10.369,10.353,10.347,10.351,10.367,10.337,10.346,10.377,10.414,10.438,10.41,10.389,10.399,10.428,10.444,10.469,10.471,10.452,10.465,10.474,10.458,10.403,10.371,10.357,10.325,10.296,10.248,10.233,10.247,10.264,10.242,10.23,10.235,10.211,10.255,10.274,10.245,10.24,10.267,10.275,10.264,10.183,10.165,10.243,10.449,10.755,11.105,11.358,11.136,10.493,10.13,10.133,10.179,10.216,10.288,10.358,10.35,10.283,10.251,10.269,10.284,10.304,10.296,10.309,10.34,10.377,10.386,10.365,10.352,10.379,10.364,10.358,10.332,10.321,10.327,10.363,10.392,10.393,10.38,10.397,10.419,10.437,10.43,10.418,10.451,10.501,10.524,10.514,10.513,10.533,10.549,10.577,10.541,10.542,10.573,10.602,10.613,10.612,10.613,10.591,10.635,10.64,10.619,10.61,10.599,10.596,10.57,10.558,10.521,10.475,10.471,10.486,10.457,10.447,10.42,10.415,10.431,10.457,10.409,10.385,10.404,10.42,10.417,10.417,10.408,10.401,10.417,10.404,10.367,10.369,10.416,10.45,10.453,10.422,10.405,10.402,10.418,10.451,10.441,10.442,10.41,10.419,10.459,10.428,10.402,10.398,10.417,10.448,10.43,10.394,10.387,10.379,10.409,10.415,10.412,10.433,10.475,10.508,10.531,10.492,10.494,10.521,10.567,10.617,10.611,10.568,10.558,10.537,10.555,10.505,10.446,10.431,10.436,10.424,10.397,10.365,10.375,10.396,10.413,10.413,10.383,10.387,10.404,10.438,10.431,10.385,10.349,10.34,10.326,10.321,10.368,10.561,10.891,11.35,11.567,11.555,10.937,10.328,10.263,10.333,10.394,10.433,10.472,10.457,10.454,10.407,10.416,10.413,10.459,10.455,10.444,10.449,10.488,10.486,10.511,10.473,10.442,10.432,10.436,10.431,10.453,10.414,10.421,10.441,10.464,10.47,10.426,10.433,10.488,10.532,10.507,10.49,10.513,10.531,10.576,10.59,10.596,10.58,10.608,10.631,10.663,10.656,10.634,10.668,10.697,10.739,10.726,10.713,10.715,10.745,10.743,10.702,10.665,10.669,10.66,10.662,10.645,10.6,10.577,10.581,10.588,10.58,10.542,10.536,10.549,10.591,10.575,10.555,10.547,10.562,10.586,10.567,10.549,10.533,10.557,10.552,10.561,10.547,10.543,10.546,10.575,10.583,10.568,10.56,10.581,10.621,10.619,10.617,10.605,10.62,10.648,10.668,10.639,10.628,10.616,10.635,10.668,10.668,10.639,10.621,10.653,10.663,10.634,10.626,10.617,10.631,10.647,10.671,10.702,10.725,10.766,10.767,10.738,10.73,10.754,10.789,10.791,10.801,10.764,10.751,10.711,10.754,10.726,10.647,10.576,10.587,10.579,10.584,10.567,10.545,10.547,10.56,10.567,10.53,10.529,10.534,10.551,10.558,10.554,10.508,10.464,10.425,10.473,10.54,10.716,11.057,11.501,11.761,11.345,10.637,10.344,10.405,10.482,10.548,10.529,10.501,10.502,10.525,10.531,10.505,10.508,10.499,10.519,10.551,10.53,10.533,10.524,10.53,10.517,10.465,10.466,10.478,10.512,10.493,10.459,10.437,10.458,10.477,10.505,10.508,10.507,10.515,10.533,10.58,10.573,10.56,10.593,10.611,10.657,10.642,10.636,10.646,10.669,10.689,10.7,10.695,10.694,10.699,10.743,10.752,10.729,10.718,10.726,10.741,10.734,10.691,10.644,10.63,10.62,10.615,10.585,10.552,10.555,10.563,10.558,10.52,10.511,10.517,10.521,10.511,10.52,10.518,10.497,10.534,10.536,10.544,10.518,10.492,10.529,10.571,10.569,10.513,10.512,10.518,10.544,10.551,10.549,10.546,10.551,10.587,10.615,10.586,10.565,10.568,10.596,10.6,10.568,10.549,10.577,10.589,10.577,10.564,10.534,10.541,10.555,10.562,10.53,10.53,10.519,10.546,10.612,10.593,10.592,10.616,10.621,10.624,10.641,10.663,10.678,10.712,10.706,10.69,10.668,10.643,10.614,10.607,10.572,10.513,10.492,10.493,10.511,10.528,10.488,10.473,10.478,10.519,10.512,10.494,10.484,10.485,10.521,10.512,10.46,10.388,10.372,10.433,10.576,10.825,11.016,11.377,11.589,11.19,10.536,10.244,10.329,10.396,10.5,10.505,10.509,10.463,10.463,10.464,10.457,10.447,10.461,10.486,10.527,10.534,10.538,10.524,10.521,10.543,10.526,10.509,10.48,10.494,10.506,10.511,10.497,10.486,10.513,10.562,10.585,10.582,10.568,10.585,10.614,10.646,10.635,10.607,10.626,10.652,10.704,10.689,10.655,10.64,10.677,10.697,10.698,10.711,10.716,10.737,10.719,10.761,10.742,10.723,10.726,10.726,10.692,10.672,10.639,10.628,10.628,10.622,10.576,10.549,10.552,10.556,10.535,10.517,10.51,10.502,10.525,10.539,10.506,10.508,10.533,10.5,10.506,10.5,10.473,10.49,10.496,10.512,10.506,10.512,10.479,10.515,10.55,10.557,10.552,10.542,10.55,10.571,10.558,10.529,10.513,10.523,10.549,10.531,10.504,10.489,10.493,10.502,10.502,10.461,10.447,10.448,10.483,10.523,10.533,10.524,10.52,10.546,10.564,10.552,10.577,10.598,10.6,10.589,10.601,10.56,10.521,10.502,10.501,10.445,10.368,10.354,10.383,10.381,10.373,10.354,10.333,10.353,10.377,10.35,10.351,10.342,10.35,10.363,10.366,10.327,10.264,10.211,10.26,10.362,10.565,10.912,11.241,11.346,10.874,10.302,10.11,10.184,10.279,10.339,10.35,10.34,10.355,10.388,10.395,10.356,10.309,10.33,10.372,10.385,10.38,10.365,10.366,10.395,10.412,10.385,10.365,10.347,10.37,10.404,10.39,10.372,10.383,10.42,10.439,10.434,10.414,10.416,10.453,10.482,10.498,10.487,10.477,10.5,10.548,10.553,10.549,10.539,10.554,10.575,10.58,10.555,10.576,10.585,10.598,10.626,10.623,10.594,10.574,10.578,10.583,10.57,10.5,10.493,10.49,10.498,10.474,10.437,10.428,10.427,10.437,10.416,10.392,10.399,10.392,10.433,10.436,10.402,10.406,10.422,10.433,10.421,10.409,10.404,10.428,10.458,10.444,10.419,10.418,10.436,10.459,10.456,10.466,10.458,10.467,10.47,10.472,10.467,10.452,10.431,10.441,10.462,10.448,10.414,10.427,10.44,10.5,10.499,10.499,10.496,10.485,10.539,10.527,10.512,10.526,10.528,10.554,10.561,10.531,10.505,10.485,10.451,10.436,10.363,10.324,10.347,10.363,10.387,10.331,10.331,10.337,10.354,10.361,10.318,10.317,10.328,10.347,10.363,10.327,10.268,10.231,10.226,10.334,10.565,10.908,11.235,11.327,10.894,10.329,10.137,10.175,10.263,10.337,10.366,10.334,10.33,10.332,10.36,10.373,10.342,10.313,10.344,10.366,10.377,10.335,10.353,10.356,10.387,10.386,10.34,10.333,10.352,10.363,10.384,10.372,10.359,10.35,10.375,10.415,10.391,10.39,10.424,10.435,10.487,10.46,10.446,10.455,10.47,10.507,10.512,10.486,10.533,10.554,10.566,10.551,10.533,10.542,10.566,10.603,10.602,10.573,10.542,10.562,10.559,10.539,10.511,10.477,10.463,10.466,10.442,10.41,10.374,10.387,10.39,10.382,10.371,10.372,10.367,10.383,10.42,10.386,10.343,10.373,10.364,10.393,10.398,10.355,10.359,10.408,10.439,10.434,10.418,10.394,10.399,10.428,10.438,10.429,10.418,10.44,10.464,10.462,10.423,10.412,10.422,10.471,10.481,10.477,10.466,10.501,10.512,10.533,10.504,10.502,10.543,10.572,10.56,10.525,10.521,10.497,10.477,10.458,10.444,10.391,10.358,10.362,10.38,10.344,10.335,10.339,10.346,10.37,10.367,10.332,10.345,10.348,10.343,10.339,10.313,10.261,10.236,10.284,10.359,10.55,10.869,11.241,11.422,11.071,10.424,10.138,10.199,10.28,10.358,10.362,10.343,10.359,10.362,10.354,10.359,10.329,10.36,10.379,10.402,10.385,10.337,10.36,10.381,10.4,10.363,10.343,10.366,10.395,10.392,10.363,10.355,10.348,10.384,10.414,10.405,10.388,10.389,10.408,10.455,10.479,10.445,10.461,10.503,10.537,10.55,10.52,10.5,10.538,10.576,10.608,10.573,10.579,10.596,10.634,10.655,10.627,10.61,10.598,10.599,10.603,10.557,10.517,10.515,10.505,10.518,10.456,10.391,10.397,10.406,10.421,10.395,10.368,10.368,10.402,10.406,10.408,10.381,10.389,10.386,10.417,10.427,10.415,10.383,10.396,10.435,10.444,10.432,10.375,10.407,10.414,10.422,10.402,10.41,10.441,10.469,10.477,10.45,10.427,10.425,10.443,10.467,10.45,10.457,10.487,10.53,10.553,10.532,10.49,10.519,10.555,10.557,10.549,10.521,10.504,10.502,10.496,10.493,10.423,10.356,10.343,10.347,10.349,10.32,10.322,10.343,10.371,10.363,10.356,10.35,10.339,10.364,10.367,10.336,10.321,10.284,10.281,10.267,10.303,10.475,10.767,11.2,11.49,11.279,10.609,10.171,10.196,10.289,10.353,10.363,10.353,10.374,10.392,10.36,10.328,10.335,10.351,10.369,10.385,10.37,10.353,10.376,10.415,10.437,10.394,10.36,10.364,10.388,10.383,10.384,10.381,10.409,10.424,10.418,10.395,10.424,10.45,10.469,10.488,10.491,10.485,10.506,10.526,10.551,10.551,10.533,10.55,10.583,10.619,10.626,10.603,10.592,10.637,10.67,10.65,10.627,10.625,10.633,10.641,10.618,10.575,10.525,10.517,10.521,10.493,10.453,10.443,10.461,10.477,10.466,10.406,10.396,10.423,10.447,10.454,10.437,10.422,10.423,10.457,10.486,10.446,10.422,10.439,10.468,10.483,10.467,10.479,10.465,10.471,10.493,10.481,10.462,10.469,10.512,10.588,10.59,10.505,10.5,10.543,10.558,10.579,10.58,10.607,10.635,10.717,10.717,10.692,10.695,10.704,10.764,10.768,10.753,10.777,10.791,10.799,10.771,10.717,10.689,10.686,10.678,10.662,10.605,10.552,10.511,10.517,10.508,10.492,10.474,10.481,10.496,10.49,10.48,10.457,10.44,10.448,10.49,10.421,10.351,10.318,10.326,10.383,10.521,10.741,11.142,11.562,11.53,10.899,10.306,10.211,10.305,10.383,10.447,10.4,10.374,10.387,10.422,10.401,10.374,10.368,10.372,10.404,10.426,10.43,10.392,10.415,10.434,10.451,10.421,10.377,10.372,10.416,10.425,10.389,10.369,10.406,10.435,10.455,10.443,10.426,10.42,10.48,10.519,10.542,10.543,10.56,10.566,10.61,10.604,10.597,10.606,10.61,10.657,10.668,10.662,10.642,10.696,10.709,10.71,10.675,10.683,10.697,10.686,10.672,10.655,10.606,10.594,10.595,10.576,10.555,10.513,10.517,10.54,10.561,10.538,10.53,10.528,10.542,10.566,10.586,10.575,10.567,10.58,10.583,10.602,10.56,10.563,10.557,10.579,10.584,10.558,10.553,10.551,10.6,10.585,10.541,10.549,10.585,10.616,10.633,10.605,10.581,10.59,10.612,10.615,10.596,10.588,10.568,10.602,10.619,10.584,10.56,10.554,10.617,10.679,10.678,10.651,10.655,10.686,10.725,10.702,10.707,10.728,10.734,10.729,10.714,10.671,10.658,10.646,10.633,10.586,10.547,10.54,10.518,10.549,10.533,10.508,10.497,10.521,10.532,10.548,10.517,10.493,10.496,10.517,10.549,10.503,10.437,10.393,10.466,10.603,10.812,11.207,11.628,11.722,11.168,10.536,10.39,10.466,10.57,10.626,10.606,10.57,10.553,10.569,10.597,10.594,10.554,10.553,10.573,10.614,10.601,10.607,10.602,10.607,10.625,10.631,10.587,10.588,10.603,10.619,10.612,10.597,10.584,10.597,10.624,10.654,10.648,10.628,10.634,10.671,10.709,10.708,10.732,10.735,10.762,10.778,10.781,10.775,10.801,10.805,10.838,10.827,10.824,10.832,10.872,10.898,10.894,10.863,10.846,10.844,10.856,10.824,10.773,10.758,10.759,10.75,10.705,10.649,10.63,10.626,10.651,10.642,10.62,10.597,10.579,10.589,10.616,10.608,10.576,10.587,10.611,10.638,10.618,10.596,10.589,10.598,10.62,10.61,10.6,10.618,10.615,10.638,10.616,10.608,10.603,10.608,10.639,10.65,10.625,10.627,10.638,10.644,10.629,10.621,10.591,10.587,10.616,10.601,10.588,10.587,10.572,10.591,10.572,10.58,10.556,10.562,10.586,10.605,10.605,10.629,10.657,10.698,10.708,10.672,10.693,10.718,10.762,10.778,10.75,10.697,10.715,10.713,10.732,10.679,10.625,10.556,10.564,10.587,10.551,10.535,10.517,10.541,10.578,10.586,10.562,10.53,10.565,10.574,10.572,10.548,10.546,10.552,10.55,10.486,10.468,10.524,10.713,11.074,11.543,11.791,11.461,10.776,10.441,10.497,10.547,10.583,10.617,10.615,10.637,10.597,10.572,10.583,10.586,10.615,10.599,10.589,10.622,10.632,10.653,10.655,10.616,10.592,10.587,10.637,10.62,10.594,10.616,10.63,10.642,10.651,10.62,10.622,10.627,10.666,10.693,10.702,10.679,10.708,10.764,10.788,10.77,10.767,10.791,10.803,10.839,10.832,10.828,10.849,10.889,10.912,10.873,10.872,10.876,10.913,10.948,10.946,10.893,10.866,10.876,10.867,10.857,10.798,10.763,10.757,10.784,10.778,10.722,10.713,10.727,10.723,10.707,10.706,10.7,10.71,10.745,10.756,10.736,10.733,10.7,10.729,10.725,10.707,10.684,10.72,10.734,10.732,10.697,10.664,10.68,10.712,10.725,10.711,10.701,10.708,10.71,10.73,10.734,10.716,10.7,10.7,10.722,10.724,10.66,10.678,10.694,10.71,10.71,10.677,10.673,10.689,10.711,10.703,10.676,10.65,10.652,10.674,10.717,10.71,10.738,10.742,10.766,10.775,10.779,10.767,10.806,10.828,10.858,10.827,10.796,10.784,10.787,10.754,10.696,10.665,10.641,10.632,10.63,10.624,10.586,10.573,10.615,10.624,10.626,10.6,10.569,10.574,10.615,10.61,10.589,10.55,10.499,10.51,10.547,10.651,10.755,11.099,11.528,11.731,11.322,10.643,10.395,10.445,10.523,10.579,10.577,10.589,10.614,10.586,10.558,10.548,10.553,10.585,10.616,10.622,10.602,10.585,10.605,10.628,10.625,10.575,10.573,10.572,10.595,10.581,10.557,10.548,10.57,10.591,10.576,10.554,10.588,10.622,10.686,10.697,10.679,10.658,10.693,10.719,10.737,10.75,10.737,10.749,10.772,10.782,10.751,10.745,10.764,10.793,10.832,10.821,10.796,10.798,10.835,10.835,10.799,10.749,10.738,10.754,10.738,10.719,10.664,10.631,10.63,10.628,10.606,10.566,10.558,10.587,10.608,10.594,10.549,10.538,10.565,10.602,10.583,10.58,10.554,10.543,10.583,10.599,10.584,10.555,10.553,10.585,10.605,10.586,10.582,10.576,10.606,10.621,10.592,10.575,10.583,10.605,10.602,10.588,10.563,10.557,10.546,10.586,10.588,10.543,10.528,10.557,10.562,10.551,10.521,10.517,10.525,10.563,10.584,10.582,10.588,10.609,10.633,10.644,10.648,10.641,10.672,10.682,10.719,10.66,10.643,10.614,10.617,10.615,10.541,10.484,10.481,10.491,10.468,10.465,10.449,10.465,10.482,10.505,10.495,10.463,10.462,10.476,10.48,10.461,10.438,10.422,10.376,10.381,10.424,10.529,10.753,11.177,11.508,11.429,10.801,10.32,10.288,10.386,10.415,10.474,10.494,10.478,10.507,10.51,10.473,10.447,10.474,10.494,10.514,10.502,10.499,10.486,10.525,10.552,10.523,10.497,10.493,10.503,10.509,10.478,10.448,10.479,10.491,10.516,10.51,10.496,10.499,10.528,10.587,10.576,10.564,10.564,10.615,10.659,10.634,10.616,10.608,10.635,10.646,10.672,10.664,10.649,10.674,10.662,10.655,10.602,10.595,10.582,10.578,10.581,10.579,10.541,10.521,10.515,10.503,10.447,10.421,10.414,10.426,10.443,10.395,10.359,10.374,10.368,10.4,10.389,10.367,10.368,10.368,10.405,10.381,10.354,10.373,10.393,10.413,10.402,10.368,10.351,10.363,10.409,10.442,10.418,10.397,10.429,10.43,10.43,10.421,10.404,10.413,10.446,10.439,10.402,10.394,10.393,10.396,10.4,10.37,10.365,10.379,10.409,10.418,10.4,10.377,10.401,10.45,10.502,10.499,10.469,10.476,10.516,10.536,10.519,10.495,10.521,10.515,10.484,10.462,10.386,10.338,10.328,10.35,10.336,10.312,10.31,10.344,10.336,10.319,10.293,10.315,10.291,10.322,10.342,10.297,10.288,10.28,10.246,10.204,10.181,10.263,10.357,10.598,10.994,11.304,11.243,10.649,10.159,10.123,10.188,10.219,10.254,10.309,10.332,10.311,10.265,10.268,10.286,10.311,10.324,10.287,10.267,10.286,10.325,10.338,10.329,10.312,10.294,10.321,10.335,10.314,10.303,10.285,10.318,10.34,10.322,10.306,10.312,10.364,10.395,10.382,10.355,10.373,10.427,10.459,10.471,10.441,10.424,10.44,10.484,10.508,10.492,10.481,10.523,10.54,10.542,10.521,10.563,10.54,10.549,10.549,10.496,10.481,10.461,10.484,10.485,10.392,10.386,10.379,10.396,10.396,10.348,10.318,10.324,10.335,10.355,10.336,10.304,10.315,10.325,10.348,10.339,10.328,10.302,10.318,10.357,10.342,10.322,10.319,10.343,10.351,10.358,10.351,10.332,10.371,10.4,10.375,10.361,10.362,10.383,10.405,10.392,10.379,10.361,10.365,10.363,10.372,10.357,10.347,10.357,10.371,10.368,10.35,10.32,10.369,10.431,10.457,10.461,10.463,10.437,10.475,10.509,10.493,10.477,10.463,10.481,10.492,10.475,10.441,10.408,10.386,10.37,10.315,10.274,10.272,10.303,10.33,10.301,10.275,10.279,10.298,10.304,10.287,10.261,10.265,10.284,10.287,10.281,10.19,10.179,10.232,10.408,10.689,11.056,11.356,11.214,10.605,10.155,10.102,10.137,10.228,10.321,10.348,10.329,10.282,10.277,10.285,10.304,10.296,10.278,10.291,10.319,10.356,10.352,10.338,10.325,10.354,10.361,10.35,10.306,10.307,10.328,10.355,10.364,10.348,10.32,10.337,10.367,10.395,10.383,10.387,10.412,10.454,10.466,10.449,10.45,10.476,10.505,10.511,10.507,10.522,10.526,10.55,10.583,10.563,10.53,10.56,10.598,10.63,10.61,10.576,10.575,10.584,10.56,10.531,10.49,10.437,10.449,10.463,10.45,10.411,10.409,10.403,10.416,10.411,10.386,10.387,10.391,10.412,10.428,10.415,10.425,10.418,10.415,10.411,10.395,10.379,10.413,10.449,10.457,10.404,10.382,10.404,10.438,10.453,10.44,10.438,10.452,10.463,10.472,10.469,10.431,10.453,10.449,10.474,10.467,10.422,10.424,10.433,10.449,10.412,10.38,10.388,10.426,10.468,10.499,10.501,10.499,10.507,10.535,10.544,10.527,10.53,10.555,10.6,10.58,10.539,10.514,10.518,10.52,10.483,10.398,10.38,10.389,10.392,10.403,10.382,10.367,10.371,10.377,10.4,10.389,10.358,10.355,10.371,10.389,10.374,10.317,10.277,10.268,10.315,10.433,10.629,11.037,11.47,11.583,11.348,10.63,10.197,10.278,10.332,10.411,10.412,10.415,10.4,10.416,10.401,10.394,10.385,10.404,10.422,10.441,10.437,10.44,10.464,10.47,10.482,10.486,10.419,10.391,10.41,10.441,10.443,10.431,10.437,10.459,10.487,10.498,10.471,10.47,10.517,10.564,10.562,10.558,10.587,10.609,10.631,10.636,10.605,10.622,10.673,10.696,10.714,10.712,10.718,10.739,10.773,10.774,10.75,10.733,10.763,10.788,10.766,10.718,10.688,10.672,10.671,10.66,10.636,10.6,10.592,10.602,10.599,10.596,10.544,10.52,10.551,10.56,10.541,10.53,10.547,10.568,10.59,10.568,10.558,10.522,10.54,10.559,10.591,10.563,10.552,10.559,10.583,10.579,10.56,10.559,10.565,10.582,10.58,10.561,10.561,10.57,10.599,10.596,10.547,10.556,10.551,10.572,10.582,10.549,10.544,10.532,10.555,10.576,10.56,10.543,10.563,10.579,10.646,10.663,10.642,10.651,10.68,10.714,10.72,10.717,10.717,10.73,10.757,10.778,10.723,10.69,10.689,10.678,10.629,10.575,10.534,10.555,10.579,10.567,10.532,10.542,10.541,10.57,10.572,10.535,10.538,10.531,10.545,10.562,10.545,10.493,10.457,10.455,10.527,10.667,10.922,11.401,11.789,11.614,10.902,10.408,10.425,10.51,10.596,10.602,10.56,10.573,10.577,10.601,10.588,10.584,10.562,10.577,10.613,10.608,10.605,10.636,10.623,10.649,10.641,10.584,10.56,10.571,10.604,10.619,10.593,10.593,10.584,10.607,10.633,10.629,10.636,10.642,10.672,10.709,10.706,10.702,10.736,10.745,10.789,10.785,10.772,10.819,10.832,10.87,10.855,10.848,10.865,10.896,10.925,10.918,10.911,10.895,10.893,10.927,10.903,10.852,10.82,10.787,10.815,10.787,10.751,10.726,10.726,10.725,10.715,10.701,10.669,10.687,10.7,10.698,10.672,10.644,10.673,10.679,10.726,10.695,10.666,10.651,10.702,10.698,10.695,10.681,10.674,10.677,10.708,10.692,10.668,10.686,10.699,10.714,10.725,10.706,10.692,10.695,10.714,10.711,10.664,10.667,10.667,10.686,10.702,10.654,10.636,10.66,10.655,10.659,10.639,10.616,10.62,10.646,10.68,10.687,10.691,10.725,10.726,10.741,10.761,10.761,10.76,10.805,10.829,10.795,10.754,10.741,10.733,10.722,10.688,10.622,10.572,10.587,10.591,10.598,10.564,10.561,10.569,10.594,10.612,10.572,10.552,10.56,10.594,10.604,10.562,10.509,10.458,10.486,10.503,10.574,10.759,11.114,11.523,11.699,11.209,10.543,10.352,10.438,10.497,10.566,10.57,10.562,10.592,10.604,10.548,10.525,10.56,10.58,10.61,10.601,10.579,10.585,10.597,10.621,10.61,10.563,10.542,10.554,10.556,10.571,10.567,10.555,10.57,10.589,10.603,10.569,10.591,10.603,10.647,10.67,10.671,10.619,10.668,10.704,10.729,10.714,10.707,10.704,10.738,10.773,10.775,10.758,10.778,10.796,10.83,10.8,10.787,10.799,10.791,10.79,10.789,10.747,10.709,10.724,10.689,10.693,10.646,10.587,10.601,10.645,10.617,10.549,10.541,10.549,10.568,10.591,10.554,10.554,10.548,10.545,10.556,10.529,10.514,10.509,10.523,10.546,10.559,10.536,10.512,10.537,10.541,10.549,10.542,10.545,10.599,10.612,10.596,10.556,10.56,10.578,10.616,10.604,10.568,10.552,10.537,10.573,10.566,10.54,10.506,10.528,10.578,10.58,10.557,10.585,10.605,10.655,10.664,10.624,10.621,10.671,10.693,10.715,10.687,10.663,10.67,10.656,10.65,10.623,10.559,10.521,10.515,10.503,10.466,10.426,10.441,10.445,10.485,10.473,10.447,10.45,10.454,10.47,10.45,10.419,10.433,10.39,10.352,10.35,10.351,10.465,10.733,11.156,11.46,11.4,10.804,10.349,10.305,10.343,10.398,10.423,10.458,10.494,10.504,10.484,10.451,10.446,10.483,10.491,10.499,10.478,10.514,10.541,10.555,10.531,10.527,10.518,10.532,10.568,10.564,10.541,10.556,10.572,10.577,10.589,10.564,10.557,10.603,10.632,10.664,10.669,10.646,10.677,10.716,10.722,10.718,10.698,10.734,10.799,10.794,10.768,10.764,10.779,10.825,10.842,10.826,10.794,10.813,10.825,10.819,10.779,10.749,10.713,10.703,10.699,10.651,10.6,10.59,10.622,10.605,10.551,10.501,10.498,10.505,10.525,10.538,10.492,10.473,10.513,10.505,10.535,10.498,10.471,10.521,10.535,10.528,10.52,10.484,10.505,10.537,10.564,10.51,10.493,10.509,10.529,10.563,10.56,10.559,10.546,10.575,10.6,10.571,10.58,10.574,10.624,10.644,10.624,10.626,10.643,10.684,10.695,10.648,10.653,10.676,10.719,10.752,10.733,10.661,10.667,10.652,10.658,10.645,10.547,10.512,10.496,10.513,10.49,10.443,10.466,10.457,10.493,10.48,10.45,10.439,10.46,10.461,10.443,10.432,10.385,10.362,10.333,10.354,10.434,10.69,11.055,11.353,11.353,10.845,10.32,10.22,10.282,10.378,10.393,10.392,10.374,10.396,10.43,10.421,10.377,10.374,10.352,10.387,10.393,10.382,10.376,10.407,10.431,10.432,10.371,10.361,10.396,10.417,10.422,10.409,10.373,10.393,10.427,10.432,10.386,10.38,10.409,10.4,10.474,10.444,10.417,10.427,10.483,10.524,10.499,10.478,10.496,10.524,10.532,10.542,10.506,10.493,10.526,10.57,10.559,10.542,10.526,10.529,10.546,10.513,10.468,10.422,10.444,10.453,10.44,10.388,10.34,10.344,10.348,10.351,10.337,10.306,10.299,10.318,10.313,10.316,10.276,10.286,10.3,10.342,10.301,10.263,10.272,10.314,10.323,10.312,10.281,10.276,10.317,10.328,10.323,10.303,10.318,10.316,10.342,10.344,10.317,10.293,10.342,10.375,10.401,10.391,10.393,10.389,10.464,10.451,10.416,10.426,10.461,10.5,10.511,10.458,10.399,10.387,10.416,10.41,10.323,10.281,10.264,10.278,10.317,10.258,10.233,10.251,10.269,10.29,10.26,10.239,10.235,10.274,10.298,10.267,10.198,10.146,10.171,10.2,10.28,10.495,10.849,11.206,11.309,10.807,10.213,10.045,10.123,10.212,10.279,10.292,10.259,10.269,10.276,10.309,10.269,10.253,10.235,10.299,10.336,10.282,10.258,10.294,10.306,10.301,10.3,10.277,10.265,10.295,10.341,10.297,10.264,10.284,10.31,10.341,10.363,10.314,10.309,10.348,10.384,10.403,10.37,10.382,10.405,10.433,10.446,10.431,10.433,10.472,10.465,10.48,10.453,10.497,10.524,10.543,10.56,10.531,10.495,10.481,10.481,10.486,10.444,10.407,10.403,10.398,10.403,10.36,10.321,10.317,10.33,10.333,10.284,10.279,10.281,10.301,10.337,10.325,10.301,10.274,10.303,10.33,10.315,10.329,10.289,10.282,10.306,10.329,10.298,10.277,10.304,10.329,10.351,10.301,10.272,10.287,10.336,10.378,10.345,10.326,10.345,10.377,10.425,10.394,10.382,10.376,10.442,10.468,10.43,10.452,10.473,10.446,10.46,10.414,10.383,10.379,10.396,10.368,10.329,10.255,10.267,10.28,10.311,10.292,10.261,10.247,10.259,10.279,10.272,10.245,10.235,10.263,10.288,10.265,10.191,10.128,10.139,10.221,10.42,10.673,11.027,11.323,11.201,10.604,10.116,10.018,10.114,10.246,10.318,10.276,10.245,10.247,10.272,10.294,10.275,10.254,10.249,10.267,10.307,10.324,10.296,10.311,10.309,10.326,10.328,10.295,10.268,10.302,10.344,10.352,10.315,10.306,10.281,10.343,10.368,10.34,10.319,10.367,10.387,10.444,10.4,10.397,10.396,10.445,10.467,10.47,10.447,10.464,10.513,10.548,10.517,10.488,10.504,10.525,10.58,10.537,10.507,10.504,10.516,10.513,10.484,10.423,10.411,10.418,10.419,10.407,10.367,10.339,10.329,10.347,10.343,10.307,10.28,10.323,10.379,10.352,10.321,10.304,10.306,10.36,10.35,10.324,10.332,10.329,10.348,10.357,10.349,10.31,10.304,10.331,10.36,10.329,10.311,10.333,10.37,10.382,10.37,10.352,10.346,10.368,10.371,10.389,10.376,10.379,10.429,10.471,10.449,10.431,10.42,10.441,10.493,10.489,10.446,10.431,10.435,10.455,10.388,10.361,10.312,10.297,10.31,10.324,10.297,10.269,10.261,10.275,10.294,10.248,10.235,10.259,10.29,10.282,10.284,10.216,10.225,10.177,10.175,10.171,10.177,10.301,10.577,11.04,11.431,11.374,10.769,10.193,10.126,10.179,10.22,10.3,10.324,10.341,10.326,10.28,10.272,10.265,10.316,10.31,10.303,10.3,10.316,10.344,10.353,10.325,10.31,10.323,10.322,10.351,10.302,10.292,10.298,10.321,10.348,10.334,10.333,10.352,10.385,10.407,10.421,10.365,10.386,10.427,10.459,10.465,10.443,10.453,10.495,10.541,10.56,10.53,10.529,10.569,10.61,10.609,10.579,10.58,10.612,10.628,10.622,10.587,10.55,10.535,10.54,10.545,10.492,10.456,10.438,10.448,10.452,10.414,10.385,10.403,10.432,10.442,10.428,10.378,10.396,10.418,10.421,10.446,10.395,10.396,10.433,10.475,10.454,10.41,10.374,10.411,10.431,10.45,10.411,10.413,10.452,10.466,10.441,10.413,10.432,10.445,10.494,10.509,10.473,10.432,10.437,10.478,10.479,10.441,10.413,10.418,10.438,10.456,10.458,10.478,10.502,10.568,10.563,10.54,10.516,10.553,10.591,10.61,10.616,10.569,10.564,10.575,10.579,10.543,10.471,10.417,10.419,10.43,10.418,10.382,10.392,10.412,10.438,10.413,10.388,10.367,10.394,10.415,10.406,10.409,10.368,10.359,10.37,10.325,10.274,10.283,10.382,10.659,11.048,11.451,11.578,11.063,10.433,10.22,10.257,10.3,10.377,10.411,10.412,10.399,10.362,10.379,10.362,10.382,10.361,10.341,10.343,10.395,10.438,10.449,10.397,10.369,10.369,10.369,10.359,10.359,10.349,10.355,10.381,10.39,10.364,10.341,10.355,10.396,10.452,10.411,10.418,10.433,10.466,10.471,10.479,10.46,10.463,10.516,10.55,10.532,10.525,10.544,10.558,10.594,10.611,10.588,10.605,10.626,10.641,10.642,10.596,10.571,10.562,10.575,10.532,10.48,10.444,10.445,10.468,10.435,10.39,10.377,10.378,10.395,10.416,10.362,10.356,10.367,10.389,10.413,10.371,10.363,10.386,10.42,10.427,10.384,10.372,10.382,10.413,10.427,10.409,10.382,10.384,10.39,10.421,10.415,10.382,10.387,10.427,10.464,10.442,10.411,10.389,10.411,10.448,10.427,10.407,10.388,10.389,10.422,10.4,10.376,10.377,10.381,10.4,10.412,10.399,10.359,10.377,10.42,10.48,10.487,10.494,10.502,10.516,10.553,10.546,10.532,10.557,10.6,10.618,10.565,10.498,10.493,10.489,10.474,10.434,10.379,10.349,10.373,10.412,10.393,10.366,10.362,10.375,10.403,10.401,10.355,10.353,10.407,10.422,10.406,10.344,10.313,10.3,10.285,10.314,10.366,10.571,10.94,11.435,11.65,11.147,10.448,10.185,10.259,10.349,10.39,10.384,10.375,10.422,10.436,10.384,10.354,10.363,10.405,10.426,10.405,10.393,10.419,10.45,10.45,10.427,10.381,10.371,10.368,10.39,10.383,10.371,10.385,10.4,10.445,10.44,10.418,10.409,10.442,10.494,10.503,10.502,10.484,10.524,10.56,10.588,10.559,10.523,10.57,10.609,10.652,10.633,10.619,10.643,10.666,10.696,10.65,10.644,10.658,10.668,10.688,10.673,10.616,10.59,10.589,10.585,10.565,10.497,10.474,10.48,10.519,10.488,10.452,10.452,10.467,10.475,10.469,10.449,10.423,10.449,10.472,10.47,10.452,10.422,10.436,10.474,10.462,10.425,10.423,10.437,10.477,10.485,10.451,10.421,10.452,10.479,10.507,10.499,10.492,10.468,10.473,10.494,10.472,10.437,10.446,10.468,10.478,10.449,10.442,10.418,10.453,10.482,10.466,10.434,10.431,10.446,10.464,10.462,10.448,10.415,10.422,10.444,10.454,10.437,10.425,10.458,10.517,10.563,10.552,10.535,10.552,10.602,10.622,10.61,10.619,10.61,10.602,10.634,10.622,10.563,10.535,10.538,10.497,10.458,10.396,10.395,10.409,10.442,10.436,10.401,10.403,10.422,10.438,10.439,10.397,10.375,10.438,10.452,10.441,10.364,10.275,10.276,10.359,10.515,10.764,11.179,11.543,11.429,10.78,10.246,10.223,10.318,10.391,10.445,10.435,10.421,10.374,10.388,10.412,10.397,10.383,10.383,10.417,10.468,10.439,10.417,10.427,10.435,10.454,10.419,10.394,10.378,10.403,10.412,10.39,10.371,10.366,10.392,10.401,10.455,10.425,10.408,10.452,10.493,10.525,10.497,10.476,10.519,10.547,10.568,10.541,10.543,10.556,10.612,10.621,10.594,10.609,10.611,10.621,10.656,10.661,10.621,10.604,10.627,10.654,10.615,10.535,10.522,10.503,10.507,10.491,10.43,10.403,10.435,10.437,10.414,10.376,10.374,10.365,10.385,10.406,10.377,10.368,10.369,10.395,10.403,10.361,10.34,10.368,10.405,10.407,10.394,10.356,10.354,10.392,10.427,10.418,10.395,10.388,10.411,10.441,10.434,10.4,10.417,10.401,10.413,10.399,10.362,10.372,10.392,10.425,10.399,10.383,10.37,10.369,10.41,10.395,10.348,10.33,10.329,10.367,10.374,10.358,10.35,10.383,10.424,10.458,10.424,10.379,10.428,10.489,10.501,10.482,10.486,10.46,10.489,10.512,10.446,10.396,10.366,10.366,10.332,10.316,10.277,10.283,10.255,10.298,10.304,10.264,10.247,10.259,10.305,10.319,10.253,10.254,10.262,10.272,10.187,10.129,10.16,10.2,10.372,10.654,10.993,11.292,11.181,10.55,10.101,10.092,10.14,10.202,10.273,10.291,10.255,10.231,10.246,10.266,10.264,10.23,10.222,10.233,10.256,10.318,10.304,10.279,10.248,10.256,10.298,10.259,10.226,10.233,10.253,10.284,10.27,10.269,10.249,10.284,10.3,10.328,10.314,10.3,10.332,10.365,10.395,10.36,10.362,10.39,10.427,10.413,10.408,10.387,10.401,10.442,10.469,10.46,10.43,10.456,10.494,10.519,10.47,10.435,10.425,10.425,10.475,10.427,10.375,10.351,10.384,10.336,10.32,10.255,10.27,10.288,10.29,10.291,10.235,10.226,10.272,10.291,10.292,10.264,10.236,10.234,10.282,10.293,10.246,10.233,10.239,10.295,10.295,10.245,10.208,10.224,10.286,10.291,10.247,10.261,10.267,10.292,10.273,10.247,10.243,10.22,10.249,10.254,10.216,10.192,10.182,10.213,10.225,10.213,10.174,10.179,10.199,10.229,10.231,10.235,10.243,10.288,10.315,10.292,10.281,10.253,10.288,10.323,10.355,10.342,10.289,10.287,10.276,10.248,10.17,10.111,10.136,10.137,10.142,10.118,10.096,10.091,10.121,10.106,10.106,10.071,10.08,10.103,10.137,10.127,10.083,10.045,10.001,9.9889,9.9985,10.098,10.394,10.798,11.101,11.004,10.435,9.9319,9.8791,9.9697,10.044,10.059,10.092,10.096,10.138,10.13,10.066,10.042,10.072,10.127,10.15,10.114,10.102,10.113,10.113,10.155,10.113,10.101,10.116,10.133,10.136,10.129,10.111,10.114,10.152,10.166,10.165,10.159,10.154,10.191,10.22,10.232,10.216,10.221,10.267,10.294,10.29,10.265,10.251,10.292,10.32,10.35,10.319,10.308,10.313,10.375,10.381,10.364,10.334,10.32,10.357,10.386,10.334,10.305,10.297,10.281,10.267,10.221,10.184,10.188,10.184,10.195,10.161,10.155,10.14,10.158,10.181,10.179,10.146,10.147,10.177,10.194,10.184,10.15,10.163,10.187,10.187,10.178,10.142,10.15,10.171,10.207,10.206,10.175,10.159,10.157,10.218,10.22,10.172,10.169,10.181,10.21,10.186,10.152,10.151,10.14,10.14,10.185,10.184,10.171,10.197,10.225,10.242,10.213,10.21,10.228,10.245,10.287,10.304,10.268,10.252,10.272,10.295,10.253,10.178,10.143,10.115,10.125,10.114,10.087,10.081,10.11,10.135,10.124,10.093,10.065,10.1,10.13,10.122,10.093,10.075,10.064,10.044,10.017,10.013,10.084,10.325,10.711,11.097,11.135,10.634,10.039,9.9019,9.9606,10.017,10.042,10.105,10.126,10.161,10.121,10.101,10.091,10.094,10.144,10.123,10.116,10.13,10.148,10.175,10.149,10.11,10.109,10.13,10.114,10.118,10.094,10.063,10.073,10.097,10.12,10.099,10.079,10.09,10.154,10.176,10.146,10.145,10.164,10.224,10.253,10.237,10.202,10.227,10.262,10.294,10.283,10.264,10.285,10.305,10.36,10.333,10.341,10.349,10.368,10.399,10.371,10.312,10.309,10.315,10.307,10.282,10.228,10.231,10.234,10.263,10.228,10.181,10.15,10.166,10.206,10.193,10.178,10.178,10.194,10.231,10.244,10.214,10.177,10.184,10.21,10.234,10.21,10.201,10.212,10.245,10.281,10.238,10.209,10.227,10.258,10.285,10.266,10.26,10.258,10.278,10.294,10.269,10.246,10.237,10.23,10.259,10.231,10.184,10.201,10.212,10.265,10.311,10.323,10.306,10.323,10.38,10.395,10.357,10.381,10.396,10.415,10.423,10.377,10.341,10.322,10.321,10.301,10.231,10.215,10.203,10.225,10.254,10.243,10.198,10.205,10.223,10.228,10.223,10.199,10.195,10.231,10.238,10.175,10.091,10.087,10.157,10.345,10.614,11.003,11.358,11.388,10.955,10.284,10.037,10.101,10.19,10.295,10.32,10.294,10.28,10.278,10.319,10.332,10.289,10.274,10.305,10.351,10.372,10.336,10.33,10.344,10.374,10.375,10.332,10.29,10.287,10.312,10.324,10.311,10.289,10.31,10.337,10.381,10.383,10.384,10.405,10.447,10.488,10.489,10.471,10.495,10.514,10.544,10.554,10.534,10.52,10.549,10.584,10.594,10.568,10.56,10.578,10.637,10.635,10.599,10.587,10.575,10.589,10.57,10.517,10.494,10.48,10.478,10.491,10.452,10.409,10.411,10.409,10.428,10.393,10.372,10.381,10.387,10.418,10.401,10.387,10.379,10.401,10.425,10.392,10.373,10.373,10.379,10.407,10.402,10.375,10.366,10.373,10.417,10.44,10.407,10.408,10.419,10.453,10.465,10.433,10.426,10.44,10.452,10.453,10.434,10.397,10.382,10.429,10.468,10.481,10.466,10.507,10.511,10.541,10.523,10.509,10.529,10.564,10.598,10.57,10.522,10.515,10.506,10.482,10.468,10.38,10.345,10.357,10.36,10.376,10.353,10.324,10.346,10.376,10.39,10.356,10.35,10.373,10.39,10.404,10.372,10.284,10.252,10.319,10.421,10.514,10.811,11.251,11.59,11.351,10.608,10.207,10.234,10.348,10.437,10.445,10.404,10.401,10.408,10.429,10.418,10.406,10.393,10.43,10.455,10.468,10.428,10.44,10.458,10.494,10.473,10.413,10.386,10.402,10.439,10.447,10.417,10.424,10.446,10.498,10.509,10.495,10.477,10.497,10.537,10.54,10.535,10.547,10.559,10.586,10.6,10.6,10.601,10.603,10.636,10.661,10.653,10.626,10.638,10.674,10.714,10.68,10.669,10.651,10.651,10.661,10.637,10.589,10.543,10.55,10.563,10.541,10.496,10.484,10.482,10.499,10.485,10.449,10.423,10.454,10.486,10.493,10.458,10.447,10.452,10.46,10.475,10.445,10.434,10.432,10.466,10.49,10.486,10.461,10.428,10.437,10.495,10.492,10.472,10.465,10.497,10.518,10.502,10.465,10.468,10.496,10.524,10.504,10.474,10.456,10.489
