-2.3701,-2.3984,-2.4509,-2.4871,-2.5295,-2.564,-2.5781,-2.5969,-2.61,-2.6401,-2.6643,-2.6635,-2.676,-2.678,-2.6816,-2.6849,-2.688,-2.6724,-2.6858,-2.6999,-2.6859,-2.6882,-2.6901,-2.6833,-2.6914,-2.6872,-2.676,-2.6665,-2.6722,-2.6809,-2.679,-2.6694,-2.6678,-2.6543,-2.6525,-2.6577,-2.6633,-2.668,-2.6533,-2.6478,-2.6522,-2.6586,-2.6552,-2.6472,-2.655,-2.65,-2.6581,-2.6638,-2.6597,-2.6619,-2.6504,-2.6656,-2.6643,-2.6658,-2.674,-2.6724,-2.6775,-2.666,-2.6678,-2.6644,-2.6593,-2.6709,-2.6742,-2.6799,-2.6778,-2.6775,-2.6806,-2.689,-2.669,-2.6669,-2.6539,-2.6607,-2.675,-2.6705,-2.6721,-2.6659,-2.654,-2.6658,-2.6646,-2.6618,-2.6445,-2.6637,-2.663,-2.6569,-2.6478,-2.6371,-2.6565,-2.6595,-2.6511,-2.6621,-2.6352,-2.635,-2.6473,-2.6492,-2.6527,-2.6467,-2.6474,-2.6503,-2.6551,-2.6436,-2.6378,-2.6308,-2.6437,-2.6481,-2.6539,-2.6343,-2.6345,-2.6345,-2.6323,-2.6309,-2.6433,-2.6395,-2.6355,-2.6373,-2.6528,-2.638,-2.622,-2.6196,-2.6355,-2.6408,-2.6393,-2.6302,-2.6196,-2.6302,-2.6171,-2.617,-2.6019,-2.5834,-2.576,-2.5681,-2.5771,-2.5762,-2.6034,-2.6082,-2.6053,-2.6017,-2.6058,-2.6135,-2.6184,-2.6388,-2.6305,-2.6304,-2.6183,-2.6227,-2.6305,-2.6382,-2.6262,-2.6174,-2.6242,-2.6286,-2.6296,-2.6283,-2.6235,-2.6184,-2.5685,-2.4371,-2.2604,-2.1106,-2.0075,-2.0599,-2.3195,-2.7255,-3.0527,-2.9647,-2.8401,-2.8046,-2.7552,-2.7124,-2.6604,-2.6293,-2.6038,-2.6032,-2.5964,-2.5992,-2.5809,-2.5759,-2.5953,-2.5893,-2.5683,-2.5633,-2.5685,-2.5837,-2.57,-2.56,-2.5729,-2.5626,-2.5433,-2.566,-2.5639,-2.5672,-2.5658,-2.5513,-2.5266,-2.552,-2.5526,-2.5437,-2.5439,-2.5274,-2.5228,-2.5137,-2.5109,-2.5074,-2.4953,-2.475,-2.4573,-2.463,-2.4482,-2.4463,-2.4596,-2.4338,-2.4083,-2.4006,-2.383,-2.3586,-2.3522,-2.3387,-2.3201,-2.3081,-2.2977,-2.2689,-2.2562,-2.247,-2.2457,-2.2184,-2.1918,-2.2185,-2.2354,-2.2117,-2.2151,-2.2138,-2.215,-2.2396,-2.2751,-2.3008,-2.336,-2.3728,-2.4218,-2.4671,-2.4999,-2.5155,-2.5501,-2.5766,-2.6013,-2.6375,-2.6389,-2.6309,-2.6606,-2.68,-2.6807,-2.6735,-2.6723,-2.6658,-2.6878,-2.6703,-2.6801,-2.69,-2.6869,-2.6821,-2.6727,-2.6685,-2.654,-2.6632,-2.6781,-2.6785,-2.6608,-2.6546,-2.6558,-2.671,-2.6784,-2.6739,-2.6632,-2.6534,-2.6594,-2.6643,-2.6653,-2.6617,-2.6546,-2.6578,-2.6577,-2.6742,-2.6711,-2.6708,-2.6752,-2.6756,-2.6798,-2.6671,-2.6611,-2.6767,-2.6868,-2.6867,-2.677,-2.6775,-2.6756,-2.6803,-2.6919,-2.6846,-2.6833,-2.6785,-2.6864,-2.6923,-2.6854,-2.6726,-2.6835,-2.688,-2.6941,-2.6876,-2.6785,-2.6824,-2.6852,-2.6925,-2.6899,-2.6865,-2.6845,-2.6799,-2.6839,-2.7011,-2.6952,-2.6936,-2.6709,-2.6938,-2.6893,-2.6896,-2.6722,-2.6706,-2.6759,-2.6646,-2.6652,-2.6524,-2.6453,-2.639,-2.6315,-2.6365,-2.6509,-2.6565,-2.6548,-2.6643,-2.6688,-2.6812,-2.6813,-2.6836,-2.702,-2.7031,-2.6981,-2.6934,-2.6821,-2.6867,-2.6893,-2.6971,-2.6934,-2.6827,-2.6859,-2.6841,-2.6936,-2.6988,-2.6931,-2.6362,-2.4882,-2.3077,-2.1387,-2.0197,-2.107,-2.4114,-2.8119,-3.1503,-3.0471,-2.9365,-2.8901,-2.8174,-2.7564,-2.7171,-2.6927,-2.6749,-2.6869,-2.655,-2.6532,-2.6474,-2.6623,-2.6526,-2.6549,-2.6453,-2.6467,-2.6424,-2.6466,-2.6376,-2.6287,-2.6268,-2.6373,-2.6301,-2.6369,-2.6259,-2.6184,-2.6139,-2.6235,-2.6109,-2.6081,-2.5978,-2.598,-2.593,-2.5914,-2.5763,-2.5795,-2.5689,-2.5646,-2.5558,-2.5409,-2.5288,-2.5155,-2.504,-2.5031,-2.4913,-2.4712,-2.4561,-2.4468,-2.432,-2.4013,-2.3721,-2.3652,-2.3479,-2.3273,-2.3074,-2.2911,-2.2663,-2.2716,-2.2585,-2.2497,-2.2367,-2.222,-2.2327,-2.2262,-2.2369,-2.2586,-2.2785,-2.3146,-2.3528,-2.3912,-2.437,-2.4765,-2.5127,-2.5603,-2.6036,-2.6157,-2.6373,-2.6547,-2.6886,-2.7064,-2.7228,-2.7085,-2.7186,-2.7368,-2.7444,-2.7399,-2.7338,-2.729,-2.7405,-2.7408,-2.7379,-2.7362,-2.727,-2.7234,-2.7318,-2.7397,-2.7255,-2.7185,-2.722,-2.7103,-2.7147,-2.7093,-2.7021,-2.6987,-2.7038,-2.6874,-2.6969,-2.6984,-2.6861,-2.6893,-2.7005,-2.6998,-2.7023,-2.6881,-2.7045,-2.6977,-2.6973,-2.7016,-2.6963,-2.7165,-2.7231,-2.7086,-2.7091,-2.695,-2.7,-2.7165,-2.7106,-2.7206,-2.7138,-2.7144,-2.7188,-2.7203,-2.7167,-2.7112,-2.7153,-2.7163,-2.7181,-2.7152,-2.7059,-2.7003,-2.7171,-2.7258,-2.7143,-2.714,-2.7181,-2.7203,-2.7241,-2.7161,-2.7052,-2.7076,-2.7208,-2.7169,-2.7149,-2.7155,-2.7047,-2.7117,-2.7125,-2.7174,-2.7181,-2.7144,-2.7055,-2.7187,-2.7128,-2.711,-2.7057,-2.7106,-2.7206,-2.7165,-2.7121,-2.7083,-2.7089,-2.7154,-2.7197,-2.7028,-2.6972,-2.7137,-2.7183,-2.7008,-2.7027,-2.6816,-2.6788,-2.6812,-2.6783,-2.6656,-2.6505,-2.6387,-2.6279,-2.6474,-2.6734,-2.6693,-2.6627,-2.6764,-2.6788,-2.7007,-2.692,-2.7035,-2.71,-2.7051,-2.7067,-2.7029,-2.6934,-2.7016,-2.7025,-2.6918,-2.6927,-2.6949,-2.6976,-2.7014,-2.7088,-2.7077,-2.6512,-2.5313,-2.377,-2.2932,-2.0634,-2.0732,-2.2884,-2.7352,-3.2023,-3.1532,-2.9833,-2.9114,-2.8432,-2.7571,-2.719,-2.6965,-2.6812,-2.6704,-2.6774,-2.6713,-2.6595,-2.6542,-2.6549,-2.6454,-2.6378,-2.6389,-2.6311,-2.6403,-2.6415,-2.6289,-2.6371,-2.6246,-2.6152,-2.6286,-2.6308,-2.6191,-2.6183,-2.6033,-2.6115,-2.6053,-2.6058,-2.5905,-2.5827,-2.5768,-2.5805,-2.5675,-2.5563,-2.5401,-2.5355,-2.5394,-2.5261,-2.5153,-2.4941,-2.4889,-2.4849,-2.475,-2.4532,-2.4269,-2.4168,-2.4053,-2.3871,-2.3567,-2.3423,-2.3151,-2.3076,-2.2849,-2.2693,-2.2588,-2.2385,-2.2299,-2.2285,-2.2169,-2.2028,-2.1996,-2.211,-2.2163,-2.2298,-2.2615,-2.2863,-2.3216,-2.3593,-2.4098,-2.4511,-2.4935,-2.5352,-2.5668,-2.5999,-2.6279,-2.6396,-2.6555,-2.6819,-2.6907,-2.6879,-2.6941,-2.7059,-2.7083,-2.712,-2.718,-2.71,-2.7219,-2.7105,-2.7092,-2.7243,-2.7154,-2.6994,-2.7146,-2.7118,-2.7049,-2.704,-2.7013,-2.7045,-2.6877,-2.6902,-2.6952,-2.6861,-2.6752,-2.6887,-2.6936,-2.6859,-2.6834,-2.6799,-2.6818,-2.677,-2.6711,-2.6754,-2.6704,-2.6703,-2.6872,-2.6823,-2.6845,-2.6833,-2.6954,-2.6894,-2.678,-2.6755,-2.6989,-2.6969,-2.6963,-2.6928,-2.6934,-2.6963,-2.6972,-2.6942,-2.6904,-2.6973,-2.6845,-2.6838,-2.6995,-2.7052,-2.6951,-2.6928,-2.6824,-2.7001,-2.6942,-2.6934,-2.6849,-2.6759,-2.6907,-2.6907,-2.6836,-2.6887,-2.6926,-2.6988,-2.6896,-2.6927,-2.6894,-2.6762,-2.6932,-2.7,-2.6887,-2.6807,-2.6893,-2.6915,-2.6976,-2.6983,-2.6788,-2.6702,-2.6837,-2.6914,-2.7036,-2.6965,-2.6843,-2.6767,-2.6894,-2.6848,-2.6868,-2.6753,-2.6792,-2.6902,-2.6931,-2.6833,-2.6763,-2.6634,-2.6834,-2.6874,-2.6753,-2.6751,-2.6669,-2.6807,-2.6943,-2.6775,-2.6674,-2.6746,-2.6691,-2.6623,-2.6607,-2.6561,-2.639,-2.6565,-2.6403,-2.6243,-2.6122,-2.5969,-2.6055,-2.6346,-2.6354,-2.6301,-2.6293,-2.631,-2.6504,-2.6637,-2.667,-2.6748,-2.6657,-2.6574,-2.6713,-2.6701,-2.6681,-2.6624,-2.6668,-2.6646,-2.6599,-2.6579,-2.6657,-2.6771,-2.6804,-2.6617,-2.545,-2.3919,-2.2133,-2.0432,-2.0303,-2.163,-2.5568,-3.0417,-3.188,-3.0182,-2.9074,-2.8207,-2.7247,-2.6927,-2.6611,-2.6437,-2.6311,-2.6386,-2.6306,-2.631,-2.6119,-2.6133,-2.6199,-2.6248,-2.6307,-2.6207,-2.6104,-2.6064,-2.596,-2.604,-2.5934,-2.5949,-2.5923,-2.5969,-2.5927,-2.5783,-2.5715,-2.5718,-2.5686,-2.571,-2.5632,-2.5572,-2.5465,-2.5384,-2.5254,-2.5278,-2.519,-2.5096,-2.5008,-2.4897,-2.4929,-2.4758,-2.4498,-2.4471,-2.4212,-2.4239,-2.3995,-2.3742,-2.3587,-2.3504,-2.3368,-2.315,-2.2923,-2.2604,-2.2521,-2.2382,-2.2199,-2.2127,-2.1974,-2.1824,-2.192,-2.1744,-2.1619,-2.1658,-2.1733,-2.1815,-2.2062,-2.2358,-2.2708,-2.3129,-2.3388,-2.3798,-2.4263,-2.4591,-2.5011,-2.526,-2.5755,-2.5947,-2.5981,-2.6077,-2.6334,-2.6594,-2.6661,-2.6515,-2.6615,-2.6646,-2.6641,-2.6638,-2.6663,-2.6704,-2.6691,-2.6683,-2.6728,-2.6679,-2.663,-2.663,-2.6696,-2.6634,-2.6555,-2.6453,-2.6465,-2.6439,-2.6485,-2.6351,-2.6367,-2.6318,-2.6449,-2.6416,-2.6279,-2.6261,-2.6254,-2.6348,-2.6313,-2.6372,-2.6216,-2.6214,-2.6247,-2.6232,-2.6278,-2.6376,-2.6355,-2.6399,-2.645,-2.6424,-2.6368,-2.6353,-2.6408,-2.6495,-2.6505,-2.6415,-2.642,-2.6467,-2.6447,-2.6528,-2.6479,-2.6443,-2.6382,-2.6462,-2.6496,-2.6449,-2.6438,-2.6364,-2.6365,-2.644,-2.6479,-2.6309,-2.6348,-2.6386,-2.6486,-2.6455,-2.6407,-2.6388,-2.6376,-2.6371,-2.6414,-2.6378,-2.6352,-2.6374,-2.6492,-2.6447,-2.6431,-2.6399,-2.6444,-2.6522,-2.6498,-2.6488,-2.6358,-2.6372,-2.647,-2.6497,-2.6457,-2.6408,-2.6374,-2.6464,-2.6441,-2.6511,-2.6365,-2.6373,-2.657,-2.6565,-2.6526,-2.65,-2.6451,-2.6505,-2.6537,-2.6478,-2.6502,-2.6491,-2.6558,-2.661,-2.6577,-2.6544,-2.6492,-2.6521,-2.6577,-2.6372,-2.6319,-2.6184,-2.626,-2.6339,-2.6152,-2.6019,-2.593,-2.5789,-2.5784,-2.603,-2.6094,-2.6125,-2.6112,-2.628,-2.6302,-2.6375,-2.6396,-2.6446,-2.6547,-2.6524,-2.6512,-2.6485,-2.6437,-2.6457,-2.6424,-2.6452,-2.6384,-2.6426,-2.6409,-2.6513,-2.653,-2.6139,-2.4911,-2.3375,-2.1752,-2.086,-2.0078,-2.086,-2.3994,-2.8262,-3.0723,-3.0122,-2.8872,-2.8233,-2.7438,-2.6796,-2.6511,-2.6179,-2.6181,-2.6055,-2.6031,-2.5968,-2.5976,-2.5932,-2.5925,-2.593,-2.5952,-2.5819,-2.5776,-2.5702,-2.5771,-2.5673,-2.5645,-2.5599,-2.5678,-2.5668,-2.5686,-2.5556,-2.5527,-2.5477,-2.5516,-2.5419,-2.5301,-2.5171,-2.5169,-2.5237,-2.517,-2.5059,-2.4937,-2.4739,-2.4657,-2.4656,-2.4663,-2.4448,-2.4307,-2.4135,-2.4043,-2.3893,-2.3675,-2.3584,-2.3407,-2.3229,-2.2991,-2.2755,-2.2506,-2.2398,-2.2312,-2.2206,-2.203,-2.1904,-2.1801,-2.1765,-2.1587,-2.1505,-2.1493,-2.1329,-2.1468,-2.1538,-2.1676,-2.1907,-2.2177,-2.2551,-2.3003,-2.343,-2.3854,-2.4013,-2.4258,-2.4689,-2.4936,-2.5316,-2.5314,-2.561,-2.5773,-2.5853,-2.5958,-2.5899,-2.5977,-2.6056,-2.6135,-2.6102,-2.6062,-2.6138,-2.6015,-2.6136,-2.6084,-2.6079,-2.5999,-2.6022,-2.6051,-2.5986,-2.5963,-2.6026,-2.5921,-2.6006,-2.5894,-2.5907,-2.5769,-2.5779,-2.5942,-2.5883,-2.5779,-2.5629,-2.5595,-2.5736,-2.5787,-2.5711,-2.5797,-2.5744,-2.589,-2.5917,-2.5859,-2.5798,-2.5771,-2.5884,-2.5873,-2.5871,-2.5851,-2.5808,-2.5972,-2.5846,-2.5942,-2.5819,-2.5884,-2.5942,-2.5992,-2.594,-2.5823,-2.5755,-2.5841,-2.5917,-2.5965,-2.5969,-2.588,-2.5949,-2.595,-2.5911,-2.5791,-2.5846,-2.5798,-2.5823,-2.5898,-2.5915,-2.5829,-2.5781,-2.593,-2.5909,-2.5859,-2.5776,-2.5824,-2.5904,-2.5933,-2.5904,-2.5928,-2.5899,-2.5856,-2.6042,-2.5979,-2.5908,-2.5924,-2.5966,-2.5961,-2.5953,-2.5859,-2.5812,-2.5762,-2.5755,-2.5816,-2.5734,-2.5631,-2.5512,-2.5435,-2.5394,-2.5277,-2.5308,-2.5536,-2.5621,-2.5647,-2.5605,-2.5678,-2.587,-2.6007,-2.6014,-2.5958,-2.5962,-2.5907,-2.5929,-2.5977,-2.6011,-2.591,-2.5904,-2.597,-2.6019,-2.5925,-2.5883,-2.5985,-2.6051,-2.5556,-2.4287,-2.2625,-2.1014,-1.9955,-2.0325,-2.2937,-2.6801,-2.9991,-2.9346,-2.8578,-2.8091,-2.7525,-2.7118,-2.6456,-2.6231,-2.5937,-2.5769,-2.5687,-2.5657,-2.5741,-2.5704,-2.5626,-2.5665,-2.5461,-2.5695,-2.558,-2.557,-2.5449,-2.5505,-2.5466,-2.5446,-2.5436,-2.5425,-2.5321,-2.5268,-2.5349,-2.5354,-2.529,-2.5222,-2.5223,-2.5282,-2.5137,-2.5079,-2.4923,-2.4964,-2.4898,-2.4778,-2.4685,-2.4667,-2.4571,-2.4574,-2.4488,-2.4292,-2.4171,-2.3994,-2.3874,-2.3827,-2.3662,-2.3309,-2.3218,-2.3105,-2.2915,-2.278,-2.2537,-2.2327,-2.2311,-2.22,-2.21,-2.1872,-2.1805,-2.1846,-2.1814,-2.1797,-2.1848,-2.1877,-2.2009,-2.2304,-2.2636,-2.3046,-2.347,-2.3893,-2.4339,-2.4806,-2.5152,-2.5398,-2.5746,-2.6091,-2.6265,-2.6335,-2.6455,-2.6598,-2.6727,-2.682,-2.6861,-2.6928,-2.6925,-2.6947,-2.699,-2.6978,-2.7004,-2.6898,-2.6949,-2.7009,-2.696,-2.6943,-2.684,-2.6803,-2.6737,-2.6779,-2.6717,-2.6685,-2.6699,-2.6768,-2.6776,-2.6713,-2.6655,-2.6683,-2.6773,-2.6769,-2.6786,-2.6638,-2.6693,-2.6868,-2.6989,-2.6959,-2.6919,-2.6966,-2.6984,-2.7005,-2.7113,-2.7056,-2.7067,-2.7108,-2.7247,-2.7219,-2.7183,-2.715,-2.7224,-2.7305,-2.7339,-2.738,-2.7278,-2.7269,-2.7363,-2.7338,-2.7274,-2.723,-2.7295,-2.7334,-2.7451,-2.7349,-2.7156,-2.7276,-2.7381,-2.7324,-2.7397,-2.7372,-2.7346,-2.7302,-2.7323,-2.7396,-2.7345,-2.7279,-2.7441,-2.7413,-2.7351,-2.7314,-2.7323,-2.7388,-2.7449,-2.7369,-2.7225,-2.7157,-2.7142,-2.7144,-2.7194,-2.7019,-2.6848,-2.6732,-2.6737,-2.6814,-2.7076,-2.7115,-2.7137,-2.7247,-2.7325,-2.7332,-2.7395,-2.7455,-2.7572,-2.7635,-2.7528,-2.7513,-2.7521,-2.7574,-2.7532,-2.7541,-2.7405,-2.7487,-2.7365,-2.7514,-2.7526,-2.7553,-2.7175,-2.5931,-2.4333,-2.2829,-2.0984,-2.0899,-2.321,-2.5585,-3.0091,-3.3119,-3.1498,-3.0225,-2.9479,-2.8594,-2.798,-2.7661,-2.7304,-2.7287,-2.7317,-2.7297,-2.7218,-2.7034,-2.7139,-2.7182,-2.7144,-2.6986,-2.6912,-2.698,-2.701,-2.6996,-2.694,-2.6844,-2.689,-2.685,-2.6837,-2.6841,-2.6699,-2.6715,-2.6616,-2.667,-2.6598,-2.6507,-2.6377,-2.6418,-2.6424,-2.6399,-2.6186,-2.6152,-2.6118,-2.6016,-2.6039,-2.5752,-2.5627,-2.5522,-2.5433,-2.5349,-2.5074,-2.4894,-2.4673,-2.4578,-2.4349,-2.4192,-2.3953,-2.365,-2.3507,-2.3329,-2.3202,-2.3021,-2.2984,-2.2871,-2.2704,-2.2592,-2.2525,-2.2467,-2.2636,-2.2681,-2.2864,-2.3061,-2.3532,-2.3952,-2.4447,-2.4825,-2.5225,-2.5756,-2.6124,-2.637,-2.6659,-2.6793,-2.6902,-2.7143,-2.7278,-2.7418,-2.7436,-2.7484,-2.7561,-2.7681,-2.772,-2.7753,-2.7687,-2.7643,-2.7674,-2.7784,-2.7729,-2.7711,-2.7657,-2.7692,-2.7661,-2.7643,-2.76,-2.757,-2.7596,-2.7569,-2.7491,-2.744,-2.7443,-2.748,-2.7471,-2.7358,-2.7394,-2.7397,-2.7443,-2.7323,-2.7377,-2.7315,-2.7223,-2.7327,-2.7411,-2.7413,-2.7382,-2.7275,-2.7255,-2.737,-2.7438,-2.7388,-2.7334,-2.7351,-2.7459,-2.749,-2.7426,-2.7347,-2.739,-2.7416,-2.7471,-2.7455,-2.7398,-2.7401,-2.7472,-2.7498,-2.746,-2.7414,-2.7369,-2.7397,-2.7442,-2.7462,-2.7437,-2.733,-2.7341,-2.7417,-2.7424,-2.732,-2.728,-2.7312,-2.7373,-2.7397,-2.736,-2.7329,-2.7351,-2.7305,-2.7333,-2.7317,-2.7299,-2.7194,-2.724,-2.7301,-2.732,-2.7232,-2.7248,-2.7281,-2.7212,-2.7157,-2.7169,-2.7085,-2.7107,-2.7151,-2.7174,-2.7161,-2.7085,-2.7251,-2.7271,-2.7204,-2.7119,-2.7049,-2.692,-2.6914,-2.6966,-2.6947,-2.6759,-2.6596,-2.647,-2.641,-2.6503,-2.6643,-2.6759,-2.6795,-2.6895,-2.6842,-2.6975,-2.7074,-2.7135,-2.725,-2.725,-2.723,-2.7181,-2.719,-2.7221,-2.7184,-2.7125,-2.7068,-2.7129,-2.7224,-2.7133,-2.7137,-2.7206,-2.7079,-2.5965,-2.4486,-2.2653,-2.078,-2.0428,-2.1028,-2.3757,-2.8642,-3.2735,-3.1756,-3.0044,-2.9382,-2.8226,-2.7555,-2.7171,-2.7069,-2.6848,-2.7012,-2.6832,-2.6877,-2.6694,-2.6851,-2.679,-2.6788,-2.6701,-2.6713,-2.6676,-2.6751,-2.6682,-2.6556,-2.6579,-2.6522,-2.6452,-2.6608,-2.6466,-2.6479,-2.6549,-2.6479,-2.6412,-2.6373,-2.622,-2.6285,-2.6183,-2.6069,-2.5958,-2.5969,-2.6011,-2.5943,-2.581,-2.5636,-2.5448,-2.5429,-2.5334,-2.5253,-2.5056,-2.4796,-2.4687,-2.4568,-2.4345,-2.4088,-2.379,-2.3618,-2.3495,-2.3299,-2.3166,-2.2992,-2.2765,-2.2597,-2.2632,-2.252,-2.2323,-2.2218,-2.2263,-2.2265,-2.2266,-2.2309,-2.2525,-2.2971,-2.3186,-2.3493,-2.4137,-2.4541,-2.5081,-2.5495,-2.5896,-2.6034,-2.6234,-2.6504,-2.6828,-2.6951,-2.6956,-2.706,-2.7132,-2.7255,-2.7387,-2.7358,-2.7337,-2.7282,-2.7331,-2.7474,-2.7345,-2.7306,-2.7356,-2.7391,-2.7427,-2.7414,-2.7403,-2.7273,-2.7318,-2.7328,-2.725,-2.7126,-2.7159,-2.7151,-2.7211,-2.7148,-2.7062,-2.7008,-2.7071,-2.7129,-2.708,-2.6961,-2.7034,-2.6997,-2.7059,-2.7102,-2.7036,-2.6911,-2.7024,-2.707,-2.7011,-2.6989,-2.6992,-2.6985,-2.7085,-2.7108,-2.7065,-2.7019,-2.7019,-2.7155,-2.7217,-2.7146,-2.7143,-2.7109,-2.7172,-2.7139,-2.7118,-2.7138,-2.7026,-2.7089,-2.7189,-2.7196,-2.7116,-2.7163,-2.7167,-2.7226,-2.716,-2.7207,-2.7129,-2.7102,-2.7156,-2.7083,-2.7103,-2.7104,-2.7158,-2.7217,-2.7244,-2.7262,-2.7147,-2.7135,-2.7272,-2.7264,-2.7248,-2.727,-2.7208,-2.7268,-2.7276,-2.7273,-2.7283,-2.7241,-2.7278,-2.7352,-2.7286,-2.727,-2.7121,-2.7149,-2.726,-2.7334,-2.7372,-2.7295,-2.7276,-2.7304,-2.7309,-2.729,-2.7196,-2.725,-2.7351,-2.7329,-2.7279,-2.7226,-2.7178,-2.7201,-2.733,-2.736,-2.7275,-2.7279,-2.7244,-2.7282,-2.7162,-2.698,-2.7036,-2.702,-2.6999,-2.6945,-2.6702,-2.6522,-2.64,-2.6461,-2.6673,-2.6857,-2.68,-2.6872,-2.6997,-2.7101,-2.7254,-2.7313,-2.7294,-2.7241,-2.729,-2.7355,-2.7221,-2.7227,-2.726,-2.7278,-2.7235,-2.7217,-2.7232,-2.7244,-2.7406,-2.7348,-2.692,-2.5605,-2.4061,-2.2374,-2.0864,-2.098,-2.1713,-2.4864,-2.9353,-3.2328,-3.0942,-2.9569,-2.9119,-2.8156,-2.7725,-2.7358,-2.7194,-2.7021,-2.7039,-2.6938,-2.696,-2.6714,-2.6795,-2.6756,-2.6812,-2.6703,-2.6739,-2.658,-2.6651,-2.6615,-2.665,-2.6592,-2.6553,-2.6495,-2.6517,-2.6432,-2.654,-2.6386,-2.6462,-2.6321,-2.6373,-2.6296,-2.6205,-2.6137,-2.6015,-2.5945,-2.5954,-2.5722,-2.5698,-2.5619,-2.55,-2.5336,-2.5173,-2.5025,-2.511,-2.4873,-2.474,-2.4545,-2.4284,-2.4269,-2.4022,-2.3811,-2.359,-2.3436,-2.3286,-2.3213,-2.3142,-2.2802,-2.2657,-2.2625,-2.2628,-2.2477,-2.2283,-2.219,-2.229,-2.2353,-2.2433,-2.2652,-2.2777,-2.3189,-2.3625,-2.3955,-2.4241,-2.4665,-2.5028,-2.5429,-2.5531,-2.5963,-2.607,-2.6325,-2.6639,-2.6744,-2.6865,-2.6828,-2.6874,-2.7064,-2.7138,-2.7056,-2.704,-2.7084,-2.7054,-2.7137,-2.6996,-2.7016,-2.6991,-2.7157,-2.7098,-2.7129,-2.693,-2.6956,-2.6856,-2.6797,-2.6754,-2.6936,-2.6867,-2.6911,-2.6764,-2.6798,-2.6771,-2.6661,-2.6693,-2.6892,-2.6814,-2.6735,-2.6643,-2.6699,-2.6695,-2.6787,-2.674,-2.6747,-2.6797,-2.6813,-2.6927,-2.6823,-2.6817,-2.6815,-2.6809,-2.6785,-2.6872,-2.6941,-2.6934,-2.6822,-2.6902,-2.6859,-2.6877,-2.6845,-2.6899,-2.6956,-2.6895,-2.69,-2.6791,-2.6749,-2.689,-2.688,-2.6853,-2.6832,-2.6856,-2.6881,-2.6949,-2.6907,-2.6793,-2.6625,-2.684,-2.683,-2.6962,-2.6876,-2.6825,-2.6814,-2.6937,-2.6896,-2.6881,-2.6871,-2.6857,-2.6929,-2.6948,-2.6921,-2.6862,-2.6952,-2.6897,-2.6906,-2.6975,-2.6892,-2.6925,-2.6868,-2.693,-2.685,-2.6856,-2.689,-2.6943,-2.6911,-2.684,-2.6776,-2.6662,-2.6683,-2.6685,-2.6678,-2.6546,-2.6428,-2.6284,-2.6297,-2.6259,-2.6391,-2.6433,-2.6651,-2.6699,-2.664,-2.6721,-2.6735,-2.6945,-2.7022,-2.6987,-2.6915,-2.7018,-2.6973,-2.6959,-2.6998,-2.6891,-2.6884,-2.6931,-2.7025,-2.7015,-2.7002,-2.6985,-2.6612,-2.554,-2.3866,-2.2213,-2.1335,-2.075,-2.1633,-2.5328,-2.913,-3.1086,-2.9761,-2.8986,-2.8738,-2.8254,-2.7624,-2.7263,-2.7165,-2.6948,-2.686,-2.6774,-2.6756,-2.6753,-2.6789,-2.6701,-2.6746,-2.6687,-2.6678,-2.6606,-2.6696,-2.6617,-2.6587,-2.6507,-2.6637,-2.661,-2.6576,-2.6486,-2.6387,-2.6413,-2.6421,-2.6316,-2.6252,-2.6255,-2.624,-2.6177,-2.6257,-2.6152,-2.608,-2.5964,-2.6036,-2.5968,-2.5729,-2.5549,-2.5511,-2.5489,-2.5382,-2.525,-2.5108,-2.4887,-2.4767,-2.4627,-2.4385,-2.4219,-2.4026,-2.3862,-2.3825,-2.3605,-2.347,-2.3319,-2.3302,-2.3159,-2.3041,-2.2979,-2.2849,-2.2971,-2.2948,-2.2932,-2.3001,-2.3276,-2.3685,-2.4128,-2.4533,-2.4864,-2.5258,-2.5828,-2.6079,-2.6406,-2.6709,-2.691,-2.7203,-2.736,-2.7482,-2.7624,-2.7906,-2.7982,-2.797,-2.8032,-2.8025,-2.8087,-2.8115,-2.8081,-2.8074,-2.8094,-2.8133,-2.8097,-2.8122,-2.8158,-2.8173,-2.8068,-2.795,-2.8023,-2.7996,-2.7849,-2.7876,-2.7794,-2.7705,-2.7751,-2.7855,-2.7825,-2.7689,-2.778,-2.785,-2.7903,-2.7868,-2.7695,-2.7888,-2.7887,-2.7919,-2.7963,-2.7989,-2.8001,-2.8053,-2.8089,-2.815,-2.8045,-2.8047,-2.8218,-2.8139,-2.8162,-2.8163,-2.8149,-2.8207,-2.8208,-2.8225,-2.8185,-2.8224,-2.8203,-2.8102,-2.8264,-2.8218,-2.8249,-2.8117,-2.8275,-2.8312,-2.8291,-2.8178,-2.8175,-2.828,-2.8282,-2.8256,-2.8218,-2.8232,-2.8167,-2.8327,-2.8265,-2.8272,-2.8197,-2.8247,-2.8374,-2.835,-2.8269,-2.8144,-2.8155,-2.8314,-2.8372,-2.8279,-2.8279,-2.8276,-2.8324,-2.8334,-2.8282,-2.8218,-2.8247,-2.835,-2.8262,-2.8239,-2.8214,-2.8084,-2.808,-2.8061,-2.8023,-2.8023,-2.7743,-2.7688,-2.7632,-2.7472,-2.7496,-2.7746,-2.7913,-2.7957,-2.7978,-2.794,-2.8044,-2.8205,-2.8384,-2.8308,-2.8334,-2.8266,-2.8353,-2.8307,-2.8389,-2.8276,-2.817,-2.816,-2.8281,-2.8256,-2.8232,-2.8204,-2.8307,-2.8097,-2.6774,-2.523,-2.3497,-2.169,-2.1815,-2.3656,-2.5623,-3.0282,-3.3751,-3.2421,-3.1004,-3.0285,-2.9212,-2.8473,-2.8208,-2.8135,-2.794,-2.7998,-2.7904,-2.7871,-2.7837,-2.7853,-2.7768,-2.7656,-2.769,-2.7711,-2.7679,-2.7618,-2.7571,-2.7517,-2.7651,-2.758,-2.7522,-2.7332,-2.7377,-2.7442,-2.739,-2.7358,-2.7261,-2.7204,-2.7189,-2.7111,-2.7044,-2.6976,-2.6905,-2.6859,-2.6799,-2.6782,-2.6584,-2.6546,-2.6486,-2.6397,-2.6308,-2.6161,-2.5892,-2.5758,-2.5649,-2.5438,-2.521,-2.4917,-2.4758,-2.4586,-2.441,-2.418,-2.3857,-2.3885,-2.3775,-2.37,-2.3568,-2.3381,-2.3192,-2.3203,-2.3198,-2.3192,-2.3183,-2.3331,-2.3625,-2.4006,-2.4344,-2.4803,-2.5262,-2.5619,-2.6127,-2.652,-2.6889,-2.7119,-2.7391,-2.7576,-2.7721,-2.7872,-2.7954,-2.799,-2.8167,-2.8213,-2.8294,-2.8224,-2.8222,-2.8395,-2.8491,-2.8393,-2.8382,-2.8362,-2.8395,-2.8354,-2.8328,-2.8289,-2.8283,-2.8279,-2.827,-2.8264,-2.8154,-2.8138,-2.8191,-2.8134,-2.8148,-2.8053,-2.7893,-2.7976,-2.8009,-2.8013,-2.7935,-2.782,-2.7874,-2.7902,-2.8005,-2.7942,-2.7926,-2.7901,-2.7891,-2.8007,-2.7954,-2.7923,-2.7855,-2.7922,-2.7986,-2.7982,-2.7934,-2.7939,-2.8001,-2.8165,-2.8082,-2.8006,-2.8085,-2.8078,-2.8074,-2.8083,-2.8067,-2.8069,-2.7995,-2.8026,-2.8044,-2.8058,-2.8036,-2.7961,-2.8087,-2.8083,-2.802,-2.7968,-2.7943,-2.8045,-2.8059,-2.798,-2.7953,-2.7938,-2.8057,-2.8079,-2.7959,-2.7925,-2.7948,-2.7973,-2.7988,-2.7983,-2.7996,-2.7948,-2.7908,-2.8031,-2.8033,-2.7938,-2.7957,-2.7933,-2.7965,-2.7961,-2.7952,-2.7912,-2.7909,-2.7957,-2.7922,-2.7924,-2.7858,-2.785,-2.793,-2.7949,-2.7887,-2.7817,-2.7902,-2.7952,-2.7949,-2.7923,-2.7841,-2.7823,-2.7908,-2.7908,-2.7918,-2.7797,-2.7676,-2.7673,-2.7654,-2.7648,-2.7602,-2.7478,-2.7241,-2.7202,-2.7112,-2.7013,-2.7206,-2.7363,-2.7475,-2.75,-2.7525,-2.7577,-2.7643,-2.7807,-2.7803,-2.776,-2.7738,-2.7748,-2.7861,-2.7876,-2.7829,-2.7788,-2.7764,-2.7797,-2.7793,-2.7842,-2.7816,-2.7876,-2.7713,-2.6842,-2.5413,-2.358,-2.1773,-2.1385,-2.2477,-2.6215,-3.1044,-3.3412,-3.1741,-3.0316,-3.0066,-2.9047,-2.8317,-2.7862,-2.7758,-2.7594,-2.7622,-2.7552,-2.7484,-2.7431,-2.7501,-2.7378,-2.7354,-2.7266,-2.7381,-2.7275,-2.7307,-2.7144,-2.7166,-2.7227,-2.7196,-2.7162,-2.7081,-2.7029,-2.7031,-2.7062,-2.7029,-2.6909,-2.6845,-2.6842,-2.6769,-2.6693,-2.6539,-2.6514,-2.6434,-2.6416,-2.6359,-2.621,-2.6075,-2.6077,-2.5989,-2.5881,-2.5693,-2.5583,-2.5366,-2.5279,-2.5056,-2.4909,-2.4648,-2.4431,-2.4255,-2.4075,-2.389,-2.3637,-2.3442,-2.341,-2.3246,-2.3093,-2.2982,-2.2801,-2.2744,-2.2775,-2.2804,-2.2748,-2.2787,-2.2994,-2.3317,-2.364,-2.3977,-2.4401,-2.4869,-2.5374,-2.5782,-2.6151,-2.6405,-2.6715,-2.7061,-2.7226,-2.7407,-2.7461,-2.7526,-2.7725,-2.7786,-2.7872,-2.785,-2.7847,-2.7844,-2.7922,-2.7954,-2.7904,-2.7893,-2.7862,-2.7954,-2.7938,-2.7854,-2.7884,-2.7884,-2.796,-2.7899,-2.7833,-2.7783,-2.7748,-2.7753,-2.7783,-2.7723,-2.7704,-2.7667,-2.768,-2.775,-2.7696,-2.7659,-2.7608,-2.7714,-2.767,-2.7619,-2.7611,-2.7567,-2.7665,-2.7728,-2.7696,-2.7678,-2.7666,-2.771,-2.7728,-2.7739,-2.7686,-2.7691,-2.7696,-2.7794,-2.7871,-2.7807,-2.7756,-2.7815,-2.7826,-2.7888,-2.7861,-2.7816,-2.7729,-2.7832,-2.7864,-2.7843,-2.779,-2.7835,-2.7806,-2.7847,-2.7811,-2.7791,-2.7819,-2.783,-2.7848,-2.7807,-2.7803,-2.7767,-2.7812,-2.7828,-2.7862,-2.7778,-2.7743,-2.7874,-2.7907,-2.7887,-2.7847,-2.7817,-2.7773,-2.7822,-2.7894,-2.7827,-2.7759,-2.7745,-2.7811,-2.7852,-2.7849,-2.7789,-2.7728,-2.7812,-2.7853,-2.785,-2.7804,-2.7814,-2.7904,-2.7865,-2.7888,-2.7876,-2.7791,-2.7816,-2.7875,-2.794,-2.7774,-2.7817,-2.7827,-2.7876,-2.7857,-2.7879,-2.7772,-2.7764,-2.7861,-2.7859,-2.7825,-2.7763,-2.7786,-2.7777,-2.7769,-2.763,-2.7617,-2.7593,-2.7509,-2.7483,-2.7327,-2.7216,-2.7025,-2.7001,-2.7079,-2.7327,-2.7372,-2.7392,-2.7488,-2.7589,-2.7717,-2.7766,-2.7799,-2.7853,-2.7892,-2.7864,-2.7815,-2.7802,-2.7794,-2.7768,-2.7825,-2.7726,-2.7773,-2.7735,-2.7866,-2.7909,-2.7755,-2.6914,-2.5426,-2.375,-2.2076,-2.1523,-2.2461,-2.5804,-2.8496,-3.2954,-3.299,-3.0817,-3.0188,-2.9037,-2.8486,-2.7797,-2.7781,-2.7448,-2.7646,-2.7477,-2.7641,-2.7342,-2.7474,-2.7287,-2.7462,-2.7249,-2.7268,-2.7155,-2.7244,-2.7138,-2.7226,-2.7072,-2.7152,-2.6941,-2.7105,-2.702,-2.7072,-2.6949,-2.6981,-2.692,-2.6912,-2.6814,-2.6772,-2.6643,-2.6695,-2.6677,-2.6578,-2.6423,-2.6381,-2.6308,-2.623,-2.614,-2.6008,-2.5847,-2.573,-2.5656,-2.5484,-2.5262,-2.5037,-2.4886,-2.4679,-2.4529,-2.4315,-2.4124,-2.3879,-2.3791,-2.3574,-2.3356,-2.3227,-2.312,-2.3043,-2.3068,-2.2913,-2.2824,-2.2689,-2.2751,-2.275,-2.2951,-2.315,-2.3456,-2.3744,-2.4263,-2.4662,-2.5104,-2.5386,-2.5852,-2.6264,-2.6553,-2.6778,-2.69,-2.7014,-2.7395,-2.7491,-2.7619,-2.7495,-2.7608,-2.7721,-2.7822,-2.7785,-2.7815,-2.7727,-2.7809,-2.7778,-2.7784,-2.7676,-2.7744,-2.769,-2.7692,-2.7702,-2.7692,-2.7611,-2.7618,-2.7656,-2.7543,-2.7515,-2.7421,-2.7445,-2.7428,-2.7396,-2.7404,-2.736,-2.738,-2.7337,-2.7374,-2.7298,-2.7301,-2.7294,-2.7417,-2.7405,-2.7419,-2.735,-2.7362,-2.7388,-2.7467,-2.7381,-2.7414,-2.7418,-2.7417,-2.741,-2.7469,-2.7448,-2.7479,-2.7433,-2.7415,-2.7404,-2.7445,-2.7398,-2.7455,-2.7482,-2.7442,-2.7443,-2.7323,-2.738,-2.7417,-2.7441,-2.7417,-2.7308,-2.7302,-2.7356,-2.7318,-2.7378,-2.7316,-2.7302,-2.7239,-2.722,-2.7206,-2.7249,-2.7191,-2.7339,-2.7347,-2.7334,-2.7302,-2.7236,-2.7216,-2.7251,-2.7349,-2.7264,-2.7199,-2.7268,-2.7223,-2.7241,-2.7213,-2.7228,-2.7181,-2.7225,-2.7222,-2.7216,-2.7199,-2.7209,-2.7245,-2.7294,-2.7212,-2.7166,-2.7141,-2.718,-2.7255,-2.7267,-2.7115,-2.6995,-2.7083,-2.7101,-2.6984,-2.6969,-2.675,-2.6712,-2.6699,-2.6489,-2.6486,-2.6656,-2.6702,-2.6906,-2.6927,-2.6944,-2.6933,-2.7063,-2.7315,-2.7304,-2.7242,-2.7179,-2.7231,-2.7318,-2.7335,-2.7235,-2.712,-2.7231,-2.7261,-2.7194,-2.7211,-2.7261,-2.727,-2.7168,-2.6198,-2.4563,-2.2945,-2.1297,-2.0935,-2.2499,-2.6375,-3.0287,-3.1234,-2.996,-2.9263,-2.8856,-2.8253,-2.7657,-2.7296,-2.7228,-2.702,-2.7126,-2.6865,-2.6831,-2.6782,-2.6633,-2.6605,-2.6876,-2.674,-2.6685,-2.6612,-2.6564,-2.6604,-2.6462,-2.6446,-2.6719,-2.6521,-2.6451,-2.638,-2.6541,-2.6279,-2.6331,-2.6496,-2.637,-2.6246,-2.6241,-2.6225,-2.6203,-2.6222,-2.6182,-2.6064,-2.5986,-2.5952,-2.5817,-2.5747,-2.5638,-2.5601,-2.5428,-2.519,-2.5017,-2.5045,-2.4743,-2.4751,-2.4745,-2.4442,-2.4325,-2.4203,-2.3828,-2.3908,-2.3817,-2.3504,-2.3471,-2.3286,-2.3231,-2.3119,-2.3108,-2.3046,-2.3024,-2.2967,-2.3106,-2.3377,-2.3667,-2.3976,-2.398,-2.4482,-2.5024,-2.5532,-2.5823,-2.6164,-2.6516,-2.6819,-2.6886,-2.7238,-2.75,-2.7485,-2.7568,-2.7768,-2.7724,-2.807,-2.7823,-2.7954,-2.8167,-2.8105,-2.8124,-2.7972,-2.7969,-2.7778,-2.7811,-2.7941,-2.8075,-2.7805,-2.7649,-2.7923,-2.7963,-2.7766,-2.7681,-2.7796,-2.7792,-2.7879,-2.7783,-2.7508,-2.7688,-2.7763,-2.7752,-2.7761,-2.7881,-2.7808,-2.7579,-2.7695,-2.7603,-2.7762,-2.7856,-2.7806,-2.7713,-2.8185,-2.7969,-2.7873,-2.8069,-2.7957,-2.7921,-2.8114,-2.8063,-2.7732,-2.7807,-2.7884,-2.7926,-2.8072,-2.8007,-2.7871,-2.8031,-2.8029,-2.7994,-2.7872,-2.8005,-2.7965,-2.7966,-2.8009,-2.8191,-2.7986,-2.7816,-2.7658,-2.7677,-2.7773,-2.7869,-2.7826,-2.7696,-2.7606,-2.7278,-2.7268,-2.7853,-2.8119,-2.8047,-2.8044,-2.8162,-2.8188,-2.8193,-2.8423,-2.837,-2.8597,-2.859,-2.8488,-2.8441,-2.8502,-2.8555,-2.8418,-2.8527,-2.8614,-2.8588,-2.8588,-2.8573,-2.8668,-2.8662,-2.7892,-2.6571,-2.4836,-2.3119,-2.1998,-2.2542,-2.579,-3.0094,-3.3093,-3.2092,-3.1329,-3.0466,-3.0175,-2.9671,-2.8784,-2.8618,-2.8398,-2.8448,-2.8266,-2.8189,-2.8012,-2.8151,-2.7917,-2.8207,-2.7994,-2.8184,-2.7781,-2.8172,-2.8091,-2.7821,-2.7754,-2.7803,-2.7677,-2.7669,-2.7753,-2.812,-2.7688,-2.7736,-2.765,-2.7825,-2.7896,-2.7628,-2.7482,-2.7276,-2.7461,-2.7221,-2.7113,-2.7235,-2.6959,-2.6899,-2.684,-2.6634,-2.6798,-2.6451,-2.6233,-2.6139,-2.6016,-2.5808,-2.5653,-2.5307,-2.5023,-2.4778,-2.4667,-2.4532,-2.4364,-2.4261,-2.419,-2.3982,-2.3602,-2.3502,-2.3658,-2.3461,-2.3496,-2.3499,-2.3406,-2.361,-2.4221,-2.443,-2.4823,-2.5181,-2.5671,-2.5964,-2.6361,-2.6772,-2.7239,-2.7415,-2.7711,-2.7893,-2.7942,-2.7979,-2.8073,-2.831,-2.8344,-2.8229,-2.8369,-2.835,-2.8429,-2.8356,-2.8481,-2.8474,-2.8425,-2.8399,-2.829,-2.808,-2.8113,-2.8109,-2.8037,-2.8008,-2.8039,-2.7967,-2.7851,-2.7765,-2.7759,-2.7682,-2.7648,-2.7638,-2.7632,-2.7592,-2.7517,-2.7434,-2.7334,-2.726,-2.734,-2.7258,-2.7183,-2.7327,-2.7391,-2.731,-2.7286,-2.7161,-2.7163,-2.7347,-2.734,-2.7241,-2.7119,-2.7287,-2.7278,-2.7311,-2.7211,-2.6922,-2.6791,-2.6766,-2.6673,-2.6675,-2.6663,-2.6557,-2.6122,-2.6167,-2.6083,-2.6234,-2.6413,-2.6557,-2.6534,-2.6666,-2.6775,-2.6842,-2.6875,-2.7018,-2.7021,-2.7046,-2.6908,-2.6967,-2.7045,-2.7005,-2.7043,-2.6872,-2.6927,-2.6957,-2.698,-2.6899,-2.6864,-2.6885,-2.6942,-2.7053,-2.646,-2.5159,-2.3262,-2.1499,-1.9773,-1.9869,-2.2699,-2.7222,-3.1345,-3.1012,-2.9746,-2.9076,-2.8029,-2.7464,-2.7008,-2.6822,-2.657,-2.653,-2.6427,-2.6506,-2.6519,-2.6558,-2.639,-2.651,-2.6437,-2.6382,-2.6395,-2.6459,-2.6488,-2.6534,-2.6471,-2.6416,-2.6369,-2.6475,-2.6592,-2.6537,-2.6533,-2.6412,-2.6418,-2.6434,-2.6378,-2.6416,-2.6399,-2.6332,-2.6329,-2.629,-2.6186,-2.6059,-2.5921,-2.5821,-2.5797,-2.569,-2.5401,-2.5227,-2.5187,-2.5074,-2.4889,-2.4638,-2.4404,-2.435,-2.4217,-2.3959,-2.374,-2.3453,-2.3207,-2.3123,-2.3033,-2.2905,-2.2827,-2.266,-2.2602,-2.2603,-2.2583,-2.2667,-2.2903,-2.3203,-2.3573,-2.4092,-2.4587,-2.4815,-2.5303,-2.5781,-2.6195,-2.6586,-2.6896,-2.7205,-2.7493,-2.7629,-2.7702,-2.7807,-2.7986,-2.8022,-2.8125,-2.8193,-2.8166,-2.8151,-2.8233,-2.8302,-2.8227,-2.8117,-2.817,-2.8191,-2.8289,-2.8318,-2.8193,-2.8149,-2.8075,-2.8215,-2.8271,-2.8141,-2.8114,-2.8053,-2.8118,-2.8035,-2.8101,-2.8031,-2.8005,-2.8031,-2.8045,-2.7965,-2.8053,-2.7965,-2.797,-2.7966,-2.7938,-2.7956,-2.7954,-2.7987,-2.8005,-2.798,-2.7923,-2.7932,-2.7974,-2.8039,-2.803,-2.8037,-2.8021,-2.7901,-2.8137,-2.8174,-2.8079,-2.7921,-2.7717,-2.7643,-2.7534,-2.755,-2.7528,-2.7506,-2.7339,-2.6966,-2.6844,-2.6957,-2.7143,-2.7323,-2.7504,-2.7521,-2.7614,-2.769,-2.7808,-2.7921,-2.7922,-2.7904,-2.7913,-2.7911,-2.8061,-2.8002,-2.7969,-2.7941,-2.7966,-2.8021,-2.7927,-2.7966,-2.7957,-2.8042,-2.8099,-2.8129,-2.7853,-2.6675,-2.5053,-2.3168,-2.2179,-2.0663,-2.1133,-2.4875,-2.9963,-3.4083,-3.2832,-3.1204,-3.0295,-2.9236,-2.8675,-2.8333,-2.8018,-2.7978,-2.803,-2.8119,-2.8159,-2.8169,-2.8296,-2.8363,-2.8427,-2.8417,-2.8175,-2.8159,-2.8099,-2.7939,-2.7912,-2.7754,-2.7659,-2.7552,-2.7564,-2.7507,-2.7381,-2.7256,-2.7188,-2.717,-2.7118,-2.7039,-2.6893,-2.6831,-2.6776,-2.677,-2.6623,-2.6486,-2.6342,-2.6307,-2.6187,-2.6009,-2.5855,-2.5664,-2.5563,-2.5488,-2.5208,-2.494,-2.4761,-2.4594,-2.4376,-2.414,-2.3817,-2.3558,-2.3497,-2.3362,-2.3165,-2.2972,-2.2751,-2.2613,-2.2578,-2.2449,-2.2414,-2.2482,-2.2518,-2.2827,-2.3098,-2.3475,-2.3942,-2.446,-2.4999,-2.548,-2.5927,-2.6319,-2.6441,-2.6759,-2.7139,-2.7281,-2.7365,-2.7469,-2.7668,-2.7746,-2.7787,-2.7793,-2.7894,-2.7826,-2.7857,-2.7927,-2.7899,-2.789,-2.7857,-2.7936,-2.792,-2.7906,-2.7894,-2.7904,-2.7933,-2.792,-2.7932,-2.7832,-2.7846,-2.7815,-2.7898,-2.7867,-2.7812,-2.7804,-2.7809,-2.7834,-2.7868,-2.7749,-2.7745,-2.7711,-2.773,-2.7742,-2.7743,-2.7714,-2.77,-2.7738,-2.7739,-2.7689,-2.7669,-2.7709,-2.7806,-2.784,-2.776,-2.7771,-2.7722,-2.7772,-2.7877,-2.7814,-2.7785,-2.7816,-2.7851,-2.78,-2.7774,-2.7803,-2.772,-2.7802,-2.7822,-2.7782,-2.7713,-2.7621,-2.7706,-2.7815,-2.7724,-2.7717,-2.7638,-2.7693,-2.7848,-2.7812,-2.7718,-2.7778,-2.7729,-2.772,-2.7638,-2.7463,-2.7326,-2.7422,-2.7368,-2.7409,-2.7125,-2.6834,-2.6696,-2.6647,-2.698,-2.7212,-2.7232,-2.7299,-2.7422,-2.763,-2.7666,-2.7748,-2.7765,-2.7786,-2.7876,-2.7829,-2.787,-2.7836,-2.7912,-2.7867,-2.7876,-2.781,-2.7811,-2.7784,-2.7847,-2.7869,-2.7977,-2.781,-2.7061,-2.5468,-2.3575,-2.1749,-2.0803,-2.1942,-2.5901,-2.8598,-3.3283,-3.336,-3.1116,-3.0399,-2.9245,-2.8613,-2.7951,-2.7903,-2.7518,-2.7739,-2.7538,-2.7608,-2.7362,-2.747,-2.734,-2.742,-2.7331,-2.7395,-2.7243,-2.7384,-2.7248,-2.728,-2.7195,-2.7224,-2.7134,-2.7249,-2.713,-2.7111,-2.6923,-2.6977,-2.6955,-2.6969,-2.6757,-2.6757,-2.6726,-2.669,-2.6536,-2.6487,-2.641,-2.6399,-2.6331,-2.6246,-2.6068,-2.5959,-2.5849,-2.5667,-2.5553,-2.5371,-2.5129,-2.4951,-2.4839,-2.4596,-2.4362,-2.4144,-2.3946,-2.3801,-2.3586,-2.3357,-2.3119,-2.3045,-2.3025,-2.2868,-2.2766,-2.2643,-2.2571,-2.2611,-2.2823,-2.3012,-2.3326,-2.3662,-2.4177,-2.4649,-2.5216,-2.5591,-2.6056,-2.6486,-2.6918,-2.7197,-2.7462,-2.7481,-2.765,-2.7807,-2.7963,-2.7978,-2.8054,-2.799,-2.8135,-2.8158,-2.8178,-2.8135,-2.8184,-2.819,-2.8267,-2.8207,-2.8223,-2.8205,-2.8233,-2.8248,-2.8287,-2.8236,-2.8158,-2.82,-2.8211,-2.8201,-2.8183,-2.8117,-2.8131,-2.8125,-2.8055,-2.8019,-2.7995,-2.798,-2.799,-2.8007,-2.8021,-2.7952,-2.7992,-2.7995,-2.8027,-2.7952,-2.799,-2.7909,-2.8022,-2.8047,-2.802,-2.8009,-2.7997,-2.8086,-2.8127,-2.8065,-2.8088,-2.8058,-2.8048,-2.8084,-2.8062,-2.8035,-2.8039,-2.8053,-2.8083,-2.8098,-2.806,-2.8,-2.8035,-2.8051,-2.8071,-2.8053,-2.7977,-2.8046,-2.8063,-2.8095,-2.8047,-2.7963,-2.8021,-2.8059,-2.7924,-2.7769,-2.7587,-2.7635,-2.7695,-2.7725,-2.7664,-2.7469,-2.7194,-2.7019,-2.7061,-2.7394,-2.7609,-2.7623,-2.774,-2.7949,-2.797,-2.8035,-2.8092,-2.8212,-2.8216,-2.8268,-2.8227,-2.819,-2.8232,-2.8245,-2.8253,-2.8232,-2.8147,-2.81,-2.8208,-2.826,-2.8321,-2.8394,-2.8194,-2.7355,-2.5731,-2.3833,-2.1931,-2.136,-2.3121,-2.7507,-3.2486,-3.4256,-3.232,-3.0981,-3.0606,-2.9606,-2.877,-2.8356,-2.82,-2.8021,-2.8022,-2.7942,-2.7846,-2.7828,-2.7796,-2.7786,-2.7736,-2.7694,-2.7691,-2.7639,-2.7608,-2.761,-2.748,-2.747,-2.7445,-2.7419,-2.7416,-2.7383,-2.7302,-2.7291,-2.7277,-2.7227,-2.7116,-2.7019,-2.6998,-2.6968,-2.6913,-2.6806,-2.6701,-2.6635,-2.6576,-2.6493,-2.6297,-2.6198,-2.611,-2.6026,-2.585,-2.5671,-2.5487,-2.5287,-2.5134,-2.4877,-2.4652,-2.4418,-2.4161,-2.3991,-2.3794,-2.3625,-2.3359,-2.3186,-2.31,-2.3028,-2.2874,-2.2756,-2.2737,-2.2731,-2.2771,-2.2971,-2.3178,-2.3423,-2.3919,-2.4427,-2.4914,-2.5344,-2.5783,-2.6242,-2.6645,-2.6982,-2.7171,-2.7387,-2.7607,-2.7811,-2.7956,-2.8015,-2.8086,-2.8104,-2.8201,-2.8255,-2.8276,-2.8205,-2.8274,-2.8253,-2.8283,-2.8284,-2.8264,-2.8302,-2.827,-2.837,-2.8361,-2.8341,-2.8318,-2.8296,-2.8311,-2.8288,-2.825,-2.8242,-2.8146,-2.8158,-2.8176,-2.8148,-2.8062,-2.8088,-2.816,-2.8048,-2.8059,-2.808,-2.8078,-2.8021,-2.8033,-2.8091,-2.8211,-2.8184,-2.8166,-2.8197,-2.8157,-2.8137,-2.8068,-2.8116,-2.8193,-2.8122,-2.8152,-2.816,-2.8228,-2.8244,-2.8183,-2.8172,-2.8235,-2.8189,-2.8199,-2.8076,-2.7861,-2.773,-2.7834,-2.7855,-2.7874,-2.7748,-2.7461,-2.7144,-2.705,-2.7092,-2.7391,-2.7544,-2.7544,-2.7666,-2.7818,-2.7904,-2.7954,-2.7999,-2.8055,-2.8079,-2.8135,-2.8108,-2.805,-2.8155,-2.8199,-2.8201,-2.8067,-2.8025,-2.8042,-2.8098,-2.8067,-2.8066,-2.82,-2.8003,-2.718,-2.5427,-2.347,-2.1727,-2.0751,-2.2687,-2.7209,-3.1485,-3.2804,-3.1534,-3.0456,-3.0094,-2.9508,-2.8785,-2.8244,-2.8005,-2.7677,-2.7601,-2.7614,-2.7532,-2.7457,-2.7516,-2.7477,-2.7482,-2.7416,-2.7389,-2.7414,-2.7404,-2.7272,-2.7269,-2.729,-2.7266,-2.7235,-2.7191,-2.7093,-2.709,-2.7071,-2.7001,-2.6977,-2.6869,-2.6859,-2.6889,-2.6736,-2.6592,-2.6609,-2.6483,-2.6394,-2.6337,-2.6151,-2.6057,-2.5909,-2.5828,-2.5731,-2.5574,-2.5399,-2.5146,-2.5003,-2.491,-2.4694,-2.4445,-2.419,-2.3918,-2.3829,-2.3734,-2.3499,-2.3377,-2.323,-2.314,-2.3017,-2.29,-2.2829,-2.2739,-2.2845,-2.2994,-2.3238,-2.3443,-2.3833,-2.4244,-2.4737,-2.5184,-2.5602,-2.6041,-2.6483,-2.6828,-2.7083,-2.7334,-2.7509,-2.7678,-2.7833,-2.7956,-2.7966,-2.799,-2.8102,-2.8194,-2.8234,-2.8229,-2.8185,-2.8219,-2.8234,-2.8264,-2.8203,-2.8086,-2.8145,-2.8161,-2.8174,-2.8095,-2.7959,-2.7995,-2.8014,-2.7956,-2.7923,-2.7918,-2.7814,-2.7851,-2.791,-2.7883,-2.786,-2.7806,-2.7862,-2.7901,-2.7954,-2.7877,-2.7845,-2.7904,-2.7976,-2.7883,-2.7921,-2.7921,-2.7937,-2.8029,-2.8056,-2.8027,-2.8016,-2.804,-2.8036,-2.8056,-2.8051,-2.8066,-2.7974,-2.8069,-2.8082,-2.801,-2.7979,-2.7975,-2.8065,-2.8146,-2.8138,-2.8066,-2.8023,-2.8102,-2.8058,-2.7975,-2.7895,-2.7712,-2.7697,-2.7711,-2.7758,-2.7754,-2.7479,-2.7171,-2.7046,-2.7093,-2.7369,-2.7436,-2.7605,-2.7752,-2.7946,-2.7962,-2.7973,-2.8084,-2.8159,-2.8235,-2.8222,-2.8204,-2.8181,-2.8176,-2.8218,-2.8297,-2.8221,-2.817,-2.8266,-2.8235,-2.8209,-2.8238,-2.831,-2.8334,-2.8351,-2.7551,-2.5837,-2.3996,-2.216,-2.1136,-2.1472,-2.4024,-2.8513,-3.2596,-3.2309,-3.0991,-3.0482,-2.9689,-2.9143,-2.8646,-2.8415,-2.8167,-2.8019,-2.7925,-2.7977,-2.7931,-2.7943,-2.788,-2.7812,-2.7779,-2.7872,-2.7799,-2.7711,-2.7669,-2.7692,-2.7686,-2.7727,-2.7684,-2.7591,-2.7543,-2.7528,-2.7461,-2.7415,-2.7292,-2.7325,-2.7357,-2.7268,-2.7139,-2.7098,-2.7052,-2.7012,-2.6903,-2.6856,-2.6773,-2.6664,-2.6536,-2.6423,-2.6322,-2.6162,-2.601,-2.5811,-2.5685,-2.546,-2.5253,-2.5014,-2.4823,-2.4635,-2.448,-2.4239,-2.405,-2.4002,-2.3925,-2.3793,-2.3651,-2.3524,-2.3435,-2.3385,-2.3475,-2.3544,-2.3665,-2.3916,-2.4295,-2.4731,-2.5108,-2.5518,-2.5935,-2.6498,-2.6894,-2.7214,-2.7541,-2.766,-2.783,-2.8095,-2.8207,-2.8321,-2.845,-2.8554,-2.8677,-2.8702,-2.8731,-2.8753,-2.8744,-2.8753,-2.8785,-2.8741,-2.8727,-2.8731,-2.8811,-2.878,-2.8752,-2.8668,-2.8596,-2.8628,-2.8722,-2.8576,-2.8517,-2.8464,-2.8512,-2.851,-2.8481,-2.8502,-2.8478,-2.8399,-2.8444,-2.8456,-2.8443,-2.8466,-2.8508,-2.8546,-2.8558,-2.8493,-2.8498,-2.8532,-2.8619,-2.8619,-2.8596,-2.8614,-2.859,-2.8672,-2.8693,-2.862,-2.8599,-2.8551,-2.8641,-2.8676,-2.8705,-2.8612,-2.861,-2.8696,-2.8721,-2.8714,-2.866,-2.8669,-2.8625,-2.8761,-2.8732,-2.866,-2.8625,-2.8685,-2.877,-2.8765,-2.8744,-2.87,-2.8756,-2.8772,-2.8725,-2.8678,-2.8698,-2.874,-2.8735,-2.8796,-2.8786,-2.8731,-2.8766,-2.886,-2.8878,-2.8865,-2.8767,-2.8827,-2.8866,-2.8889,-2.8883,-2.8872,-2.889,-2.8884,-2.8908,-2.8911,-2.8861,-2.8889,-2.8906,-2.8921,-2.8907,-2.8943,-2.8913,-2.8943,-2.8971,-2.9017,-2.9006,-2.8958,-2.8982,-2.8943,-2.8823,-2.8661,-2.8558,-2.8635,-2.8653,-2.86,-2.8473,-2.8128,-2.8007,-2.7979,-2.8073,-2.8379,-2.8545,-2.8606,-2.8675,-2.8855,-2.8907,-2.9011,-2.9012,-2.9097,-2.9143,-2.9185,-2.9105,-2.9063,-2.9142,-2.9155,-2.9095,-2.9029,-2.9041,-2.9059,-2.9058,-2.9025,-2.9061,-2.9089,-2.8925,-2.7972,-2.6497,-2.4603,-2.2732,-2.2398,-2.3645,-2.7673,-3.2552,-3.4438,-3.2752,-3.1482,-3.0767,-2.9769,-2.9265,-2.8981,-2.8938,-2.8767,-2.8814,-2.8711,-2.8632,-2.8594,-2.8615,-2.8616,-2.8595,-2.8492,-2.8496,-2.8469,-2.8526,-2.8416,-2.8327,-2.8308,-2.8348,-2.8258,-2.823,-2.8102,-2.8085,-2.8139,-2.8107,-2.8028,-2.7978,-2.785,-2.7833,-2.7785,-2.7731,-2.7587,-2.7526,-2.7481,-2.7442,-2.7333,-2.7221,-2.7084,-2.699,-2.6899,-2.6733,-2.6517,-2.6333,-2.6246,-2.6113,-2.5926,-2.5714,-2.543,-2.523,-2.5055,-2.4902,-2.4712,-2.4512,-2.437,-2.4225,-2.4105,-2.4012,-2.3844,-2.3761,-2.3793,-2.3816,-2.3842,-2.3988,-2.4054,-2.4387,-2.4849,-2.5241,-2.5619,-2.6061,-2.6552,-2.6952,-2.7345,-2.7577,-2.7829,-2.8098,-2.8287,-2.8426,-2.8519,-2.8602,-2.8687,-2.8718,-2.8768,-2.8796,-2.8787,-2.8733,-2.8815,-2.8838,-2.8824,-2.8868,-2.88,-2.8841,-2.8849,-2.8806,-2.8747,-2.8707,-2.8668,-2.8668,-2.8666,-2.8607,-2.8536,-2.8567,-2.8596,-2.8541,-2.8514,-2.8442,-2.8504,-2.845,-2.8485,-2.8524,-2.8444,-2.8405,-2.8402,-2.8454,-2.8484,-2.8419,-2.8438,-2.8495,-2.8595,-2.8513,-2.8501,-2.8496,-2.8554,-2.8629,-2.8713,-2.8645,-2.8581,-2.8641,-2.872,-2.8695,-2.8667,-2.8665,-2.867,-2.8675,-2.8729,-2.8685,-2.873,-2.8748,-2.8759,-2.8691,-2.8645,-2.8657,-2.8648,-2.8682,-2.8715,-2.8665,-2.865,-2.8618,-2.8711,-2.8723,-2.8694,-2.867,-2.8661,-2.8711,-2.8729,-2.8675,-2.8702,-2.8638,-2.8688,-2.8694,-2.8733,-2.871,-2.8661,-2.8715,-2.8734,-2.8657,-2.8679,-2.8643,-2.8624,-2.8727,-2.8722,-2.8693,-2.8639,-2.8625,-2.868,-2.87,-2.8613,-2.8627,-2.8607,-2.8667,-2.8692,-2.8608,-2.8614,-2.8649,-2.8653,-2.8642,-2.8579,-2.8584,-2.8523,-2.8605,-2.8611,-2.8608,-2.8531,-2.8501,-2.8575,-2.8633,-2.8571,-2.8558,-2.8534,-2.8593,-2.8665,-2.8566,-2.8564,-2.8552,-2.853,-2.8618,-2.8593,-2.8599,-2.8545,-2.8518,-2.8583,-2.8568,-2.8508,-2.848,-2.8499,-2.8372,-2.8244,-2.8181,-2.8071,-2.8159,-2.8121,-2.7948,-2.7852,-2.7687,-2.7581,-2.7592,-2.7761,-2.8006,-2.8124,-2.806,-2.813,-2.8357,-2.8436,-2.8484,-2.8435,-2.8452,-2.8515,-2.8506,-2.8492,-2.8497,-2.8483,-2.8487,-2.8476,-2.8466,-2.8406,-2.8431,-2.8585,-2.861,-2.82,-2.6894,-2.5288,-2.3598,-2.2071,-2.2296,-2.4107,-2.8865,-3.3584,-3.3323,-3.1504,-3.062,-2.9697,-2.8916,-2.8561,-2.8332,-2.8169,-2.8185,-2.8124,-2.8174,-2.8145,-2.8172,-2.8035,-2.8017,-2.8037,-2.8048,-2.8006,-2.7867,-2.7877,-2.7918,-2.7889,-2.7854,-2.7804,-2.7763,-2.7754,-2.775,-2.7627,-2.7603,-2.7533,-2.7501,-2.7471,-2.7426,-2.7337,-2.7203,-2.7201,-2.7173,-2.7075,-2.7041,-2.6904,-2.6801,-2.6735,-2.6596,-2.647,-2.6295,-2.6211,-2.6053,-2.5941,-2.5823,-2.5558,-2.5377,-2.5253,-2.4997,-2.4792,-2.455,-2.4341,-2.424,-2.415,-2.3944,-2.3804,-2.3707,-2.3613,-2.3538,-2.3458,-2.3404,-2.3372,-2.3488,-2.3621,-2.3686,-2.3956,-2.4257,-2.4668,-2.5139,-2.5579,-2.589,-2.6299,-2.6681,-2.7091,-2.7374,-2.7632,-2.7792,-2.7913,-2.8041,-2.8182,-2.8272,-2.8316,-2.8372,-2.8429,-2.8412,-2.8445,-2.843,-2.8392,-2.841,-2.8472,-2.8414,-2.8375,-2.8369,-2.8377,-2.8403,-2.8384,-2.8288,-2.8243,-2.8228,-2.824,-2.8175,-2.8177,-2.81,-2.8083,-2.8093,-2.808,-2.8042,-2.7943,-2.8
