-2.8353,-2.8489,-2.8798,-2.8577,-2.8426,-2.8384,-2.7985,-2.7937,-2.7617,-2.8034,-2.8289,-2.8411,-2.8257,-2.7906,-2.7681,-2.8,-2.822,-2.7982,-2.7995,-2.782,-2.7898,-2.791,-2.8869,-2.9041,-2.8744,-2.8741,-2.8639,-2.8686,-2.8791,-2.8833,-2.8582,-2.839,-2.8343,-2.8361,-2.833,-2.8859,-2.896,-2.857,-2.7155,-2.4961,-2.184,-1.9479,-2.0286,-2.4144,-2.6906,-2.8083,-2.9473,-3.0092,-3.0095,-2.9619,-2.8249,-2.8214,-2.8391,-2.8122,-2.8373,-2.8482,-2.8628,-2.8701,-2.8726,-2.8474,-2.8161,-2.8203,-2.8662,-2.8511,-2.8264,-2.8145,-2.8347,-2.8279,-2.7983,-2.7964,-2.8119,-2.7933,-2.8083,-2.8108,-2.7794,-2.764,-2.7928,-2.7914,-2.778,-2.745,-2.7485,-2.7451,-2.7136,-2.7009,-2.7304,-2.7135,-2.6876,-2.6897,-2.6854,-2.6624,-2.6499,-2.6454,-2.6121,-2.6299,-2.6399,-2.6144,-2.6377,-2.645,-2.6329,-2.6201,-2.6286,-2.6299,-2.6432,-2.6435,-2.6423,-2.6607,-2.6764,-2.6918,-2.7258,-2.7436,-2.7532,-2.7754,-2.7707,-2.7524,-2.7401,-2.8041,-2.8591,-2.8635,-2.8928,-2.8822,-2.8575,-2.8352,-2.8493,-2.844,-2.8564,-2.8913,-2.8679,-2.8585,-2.8594,-2.8496,-2.8247,-2.8416,-2.8705,-2.8384,-2.8056,-2.8154,-2.8385,-2.8496,-2.8471,-2.8288,-2.8182,-2.8302,-2.8359,-2.8571,-2.8319,-2.8089,-2.8167,-2.8467,-2.8595,-2.8305,-2.7732,-2.7999,-2.8534,-2.8122,-2.8045,-2.8923,-2.8938,-2.8717,-2.829,-2.7887,-2.8207,-2.8243,-2.8329,-2.8073,-2.7717,-2.7659,-2.8189,-2.8275,-2.7975,-2.8005,-2.8051,-2.8098,-2.7916,-2.8084,-2.8217,-2.8172,-2.8243,-2.8383,-2.8973,-2.8733,-2.8349,-2.829,-2.8549,-2.8777,-2.8615,-2.8459,-2.85,-2.8576,-2.8471,-2.831,-2.8631,-2.7837,-2.6156,-2.3468,-2.1193,-1.9847,-2.2008,-2.5462,-2.6839,-2.7832,-2.9294,-3.0049,-3.001,-2.9104,-2.8187,-2.8488,-2.8508,-2.8536,-2.8718,-2.8385,-2.7962,-2.8637,-2.8427,-2.8438,-2.8554,-2.8485,-2.8443,-2.8768,-2.8412,-2.8217,-2.8318,-2.8365,-2.7911,-2.8022,-2.8118,-2.8007,-2.8214,-2.8058,-2.8065,-2.7808,-2.7635,-2.7496,-2.766,-2.7747,-2.7532,-2.7461,-2.7273,-2.7027,-2.7257,-2.7328,-2.7078,-2.6954,-2.6891,-2.6234,-2.6202,-2.6944,-2.653,-2.6482,-2.6664,-2.6547,-2.6403,-2.6207,-2.6215,-2.634,-2.6507,-2.6286,-2.6383,-2.623,-2.6278,-2.6909,-2.7106,-2.739,-2.7475,-2.7396,-2.7395,-2.785,-2.803,-2.8244,-2.8316,-2.8381,-2.8435,-2.8436,-2.8395,-2.8483,-2.8682,-2.8655,-2.8549,-2.8428,-2.8413,-2.8349,-2.86,-2.8456,-2.853,-2.8571,-2.8536,-2.8642,-2.8777,-2.8551,-2.8323,-2.8566,-2.8665,-2.8356,-2.8521,-2.8215,-2.8202,-2.8256,-2.8345,-2.8396,-2.8211,-2.8478,-2.8401,-2.8335,-2.8278,-2.8238,-2.816,-2.8174,-2.8454,-2.8915,-2.8824,-2.856,-2.865,-2.8837,-2.863,-2.8602,-2.8371,-2.8076,-2.8007,-2.7971,-2.8018,-2.7834,-2.7931,-2.8405,-2.8374,-2.8019,-2.8111,-2.8139,-2.7898,-2.7839,-2.7831,-2.8217,-2.8537,-2.8844,-2.8997,-2.872,-2.8777,-2.8926,-2.8636,-2.8351,-2.8906,-2.8672,-2.8501,-2.8849,-2.8821,-2.8762,-2.831,-2.7594,-2.5409,-2.2485,-2.1494,-1.9987,-2.109,-2.5189,-2.7259,-2.7985,-2.9087,-3.0235,-2.9906,-2.9218,-2.8228,-2.8121,-2.8434,-2.8675,-2.817,-2.8317,-2.9051,-2.8539,-2.8396,-2.8622,-2.8605,-2.8645,-2.8231,-2.7953,-2.8335,-2.8184,-2.7642,-2.7816,-2.8504,-2.8598,-2.8453,-2.7832,-2.7573,-2.7817,-2.7905,-2.6663,-2.7245,-2.8302,-2.7862,-2.762,-2.736,-2.7269,-2.7156,-2.7284,-2.6844,-2.6911,-2.5763,-2.5482,-2.7431,-2.7162,-2.6425,-2.6305,-2.6246,-2.6291,-2.6393,-2.6216,-2.5601,-2.5718,-2.5758,-2.6352,-2.6308,-2.5532,-2.5886,-2.588,-2.6015,-2.7098,-2.6896,-2.6961,-2.6947,-2.6738,-2.7055,-2.799,-2.791,-2.7704,-2.7835,-2.7962,-2.799,-2.803,-2.8522,-2.8018,-2.7929,-2.8217,-2.8225,-2.8856,-2.8421,-2.8023,-2.846,-2.8466,-2.8453,-2.8462,-2.8271,-2.8149,-2.8077,-2.8253,-2.8489,-2.8133,-2.7928,-2.7792,-2.8297,-2.8192,-2.799,-2.7943,-2.7915,-2.7813,-2.7548,-2.7499,-2.8516,-2.8769,-2.8418,-2.8397,-2.8362,-2.8375,-2.7998,-2.7873,-2.8017,-2.8145,-2.8287,-2.8428,-2.7769,-2.8042,-2.8402,-2.8201,-2.8013,-2.7417,-2.7331,-2.8068,-2.7658,-2.7405,-2.763,-2.7726,-2.7611,-2.7606,-2.802,-2.7905,-2.7865,-2.7762,-2.8244,-2.8521,-2.8654,-2.8323,-2.8461,-2.8786,-2.8405,-2.8001,-2.8185,-2.8634,-2.8789,-2.8692,-2.8552,-2.8375,-2.7107,-2.5182,-2.2353,-1.9903,-1.8806,-2.205,-2.5879,-2.772,-2.9114,-2.9541,-2.9566,-2.9414,-2.829,-2.815,-2.8309,-2.819,-2.8214,-2.8259,-2.8274,-2.8158,-2.8347,-2.783,-2.8254,-2.842,-2.8503,-2.8234,-2.8438,-2.8077,-2.7874,-2.747,-2.7531,-2.789,-2.8011,-2.7946,-2.7946,-2.804,-2.7414,-2.7344,-2.7826,-2.753,-2.7359,-2.6817,-2.6998,-2.723,-2.7058,-2.7078,-2.6743,-2.6485,-2.6656,-2.5968,-2.6015,-2.6313,-2.6275,-2.6019,-2.5588,-2.573,-2.6256,-2.6051,-2.5834,-2.5764,-2.5827,-2.5942,-2.6312,-2.5827,-2.5803,-2.6179,-2.6131,-2.594,-2.6612,-2.6809,-2.67,-2.7351,-2.7453,-2.7391,-2.7694,-2.8462,-2.835,-2.8228,-2.8108,-2.8043,-2.8151,-2.8614,-2.8798,-2.8937,-2.8739,-2.8437,-2.8289,-2.8594,-2.8764,-2.8516,-2.8508,-2.8736,-2.8854,-2.8927,-2.8769,-2.8616,-2.843,-2.8407,-2.8424,-2.8434,-2.8129,-2.7918,-2.8484,-2.9036,-2.8729,-2.8771,-2.8725,-2.8692,-2.8144,-2.8305,-2.8593,-2.8555,-2.8627,-2.8916,-2.8938,-2.8894,-2.8643,-2.8683,-2.8603,-2.8327,-2.8141,-2.7909,-2.8313,-2.8184,-2.7545,-2.7941,-2.8197,-2.8671,-2.8512,-2.8194,-2.8032,-2.7962,-2.8189,-2.8897,-2.887,-2.8758,-2.9103,-2.8851,-2.8784,-2.8888,-2.8755,-2.8785,-2.9056,-2.8899,-2.8576,-2.9175,-2.9262,-2.9125,-2.8544,-2.7433,-2.5584,-2.396,-2.1101,-1.8943,-2.0989,-2.529,-2.7482,-2.8753,-3.0327,-3.0574,-3.0332,-2.8277,-2.8275,-2.875,-2.8753,-2.8181,-2.869,-2.9493,-2.896,-2.8635,-2.8744,-2.8795,-2.89,-2.9202,-2.9096,-2.8766,-2.8431,-2.8464,-2.8664,-2.841,-2.8337,-2.8521,-2.882,-2.8593,-2.8172,-2.7919,-2.7596,-2.7756,-2.838,-2.8468,-2.8252,-2.8241,-2.7942,-2.7548,-2.7465,-2.7584,-2.7505,-2.6985,-2.6643,-2.6907,-2.6987,-2.6826,-2.6797,-2.6945,-2.6842,-2.6743,-2.6624,-2.6578,-2.6424,-2.6239,-2.6329,-2.665,-2.6725,-2.6562,-2.6703,-2.6534,-2.6807,-2.7316,-2.7343,-2.7337,-2.7394,-2.7893,-2.8444,-2.8572,-2.8711,-2.8868,-2.8784,-2.849,-2.863,-2.876,-2.8911,-2.9005,-2.9521,-2.9217,-2.9167,-2.9227,-2.8939,-2.9266,-2.9176,-2.908,-2.9208,-2.9137,-2.8848,-2.8789,-2.9085,-2.925,-2.8667,-2.9155,-2.9305,-2.9183,-2.9072,-2.9035,-2.9353,-2.9107,-2.8874,-2.9064,-2.9014,-2.8539,-2.8727,-2.9276,-2.9208,-2.9118,-2.9102,-2.9024,-2.884,-2.8856,-2.873,-2.8584,-2.8517,-2.8437,-2.8528,-2.8558,-2.88,-2.8649,-2.8574,-2.866,-2.8738,-2.8684,-2.8704,-2.8854,-2.8958,-2.8878,-2.8794,-2.9195,-2.9489,-2.9243,-2.9037,-2.9124,-2.9231,-2.9436,-2.9513,-2.9365,-2.9201,-2.9293,-2.9207,-2.8901,-2.7786,-2.5605,-2.3072,-2.0972,-2.1031,-2.3956,-2.7093,-2.812,-2.8822,-3.0037,-3.0797,-3.0219,-2.9557,-2.8933,-2.9065,-2.9022,-2.9109,-2.9386,-2.9218,-2.9246,-2.9141,-2.9136,-2.9259,-2.9046,-2.8978,-2.9201,-2.9183,-2.9011,-2.904,-2.9105,-2.9109,-2.8902,-2.8742,-2.8896,-2.8751,-2.874,-2.8776,-2.8799,-2.8591,-2.856,-2.8686,-2.8175,-2.8171,-2.8274,-2.8152,-2.8207,-2.8132,-2.7726,-2.787,-2.7613,-2.745,-2.7278,-2.7042,-2.7352,-2.7534,-2.7382,-2.7091,-2.7164,-2.7361,-2.722,-2.6992,-2.7047,-2.6907,-2.683,-2.6802,-2.7235,-2.7196,-2.7282,-2.7392,-2.7748,-2.7967,-2.8176,-2.8292,-2.853,-2.8454,-2.8275,-2.8484,-2.9025,-2.9325,-2.9162,-2.9398,-2.929,-2.9324,-2.9235,-2.9281,-2.9001,-2.9044,-2.924,-2.9241,-2.9252,-2.8852,-2.9134,-2.9485,-2.9324,-2.9079,-2.897,-2.8936,-2.8931,-2.9206,-2.911,-2.9047,-2.8957,-2.9018,-2.8823,-2.867,-2.8965,-2.9065,-2.9034,-2.9016,-2.9046,-2.8897,-2.8817,-2.8755,-2.8745,-2.8843,-2.8599,-2.8108,-2.8169,-2.8227,-2.8665,-2.872,-2.9074,-2.9301,-2.8697,-2.839,-2.8746,-2.9094,-2.9146,-2.9229,-2.9047,-2.913,-2.927,-2.9516,-2.9468,-2.9056,-2.8885,-2.8928,-2.9106,-2.9345,-2.9514,-3.0066,-2.9474,-2.9023,-2.8483,-2.6449,-2.4051,-2.1524,-1.9932,-2.2791,-2.6339,-2.8038,-2.9608,-3.0695,-3.0808,-3.0185,-2.9434,-2.8753,-2.8857,-2.8971,-2.9113,-2.9412,-2.964,-2.9472,-2.9029,-2.8802,-2.9231,-2.8603,-2.8574,-2.9263,-2.9633,-2.9375,-2.916,-2.8949,-2.8938,-2.8724,-2.8781,-2.873,-2.8609,-2.8688,-2.8699,-2.8817,-2.8721,-2.8265,-2.8291,-2.8305,-2.8016,-2.7728,-2.7805,-2.7798,-2.7845,-2.7829,-2.7526,-2.7702,-2.7339,-2.7248,-2.7431,-2.7561,-2.7072,-2.6969,-2.7251,-2.7152,-2.7409,-2.716,-2.7011,-2.7013,-2.6893,-2.6752,-2.6959,-2.7412,-2.7505,-2.7662,-2.7796,-2.7902,-2.8062,-2.8307,-2.8462,-2.8395,-2.8625,-2.8916,-2.9267,-2.9245,-2.9364,-2.9146,-2.9037,-2.9362,-2.9205,-2.9146,-2.948,-2.955,-2.9816,-2.9675,-2.9417,-2.931,-2.9432,-2.9371,-2.9158,-2.933,-2.9188,-2.9368,-2.9479,-2.9476,-2.9357,-2.9393,-2.9433,-2.9121,-2.888,-2.9365,-2.9553,-2.938,-2.9255,-2.9296,-2.914,-2.9068,-2.9124,-2.9273,-2.9174,-2.8885,-2.8581,-2.889,-2.888,-2.8804,-2.8965,-2.891,-2.9129,-2.9097,-2.867,-2.8977,-2.9311,-2.9313,-2.946,-2.9594,-2.967,-2.9714,-2.9622,-2.9514,-2.9568,-2.9717,-2.9812,-2.9648,-2.9598,-2.9782,-2.9671,-3.0008,-3.008,-2.9512,-2.8652,-2.6809,-2.3689,-2.0696,-1.9879,-2.3832,-2.7543,-2.8934,-3.075,-3.1151,-3.0834,-3.0572,-2.9429,-2.9452,-2.9564,-2.9577,-2.9555,-2.968,-2.9776,-2.9428,-2.9457,-2.9523,-2.9536,-2.9337,-2.9448,-2.9663,-2.9943,-2.9547,-2.9437,-2.929,-2.9243,-2.953,-2.9614,-2.9351,-2.9265,-2.9202,-2.921,-2.9041,-2.8905,-2.8597,-2.8652,-2.8727,-2.8739,-2.8406,-2.8405,-2.8524,-2.7839,-2.7687,-2.8112,-2.7963,-2.8,-2.7851,-2.7781,-2.7619,-2.7391,-2.7576,-2.7586,-2.7434,-2.7454,-2.7442,-2.7356,-2.7531,-2.7424,-2.755,-2.7573,-2.773,-2.7959,-2.8025,-2.8113,-2.8379,-2.858,-2.8798,-2.9018,-2.8913,-2.8868,-2.9307,-2.9261,-2.9654,-2.9769,-2.9716,-2.9849,-2.9914,-3.0137,-3.0158,-3.0026,-2.9953,-2.9909,-2.9846,-2.9784,-2.9707,-2.9669,-2.979,-2.9864,-2.9818,-2.9532,-2.9483,-2.9714,-2.9735,-2.984,-2.9727,-2.9694,-2.9645,-2.9557,-2.9375,-2.9738,-2.998,-2.983,-2.9649,-2.9211,-2.9549,-2.9541,-2.943,-2.959,-2.9629,-2.971,-2.9419,-2.9199,-2.9186,-2.9099,-2.916,-2.9101,-2.9315,-2.931,-2.9212,-2.9188,-2.9054,-2.9173,-2.953,-2.9628,-2.9835,-2.9688,-2.9411,-2.9616,-3.0012,-3.0247,-3.0099,-3.0141,-2.9921,-2.9806,-2.998,-3.0148,-3.0001,-3.0443,-3.0393,-2.9995,-2.8881,-2.6633,-2.3658,-2.0892,-2.03,-2.4442,-2.6838,-2.8659,-3.0577,-3.1094,-3.1248,-3.0436,-2.9618,-2.9811,-2.9892,-2.985,-3.0135,-2.9911,-3.0227,-3.0233,-3.0177,-2.9869,-2.9841,-2.9647,-2.9679,-2.9819,-3.0001,-2.9803,-2.9907,-2.9915,-2.9787,-2.956,-2.9649,-2.9648,-2.9346,-2.9051,-2.9298,-2.9369,-2.935,-2.9285,-2.9047,-2.8864,-2.8869,-2.8836,-2.855,-2.8416,-2.8455,-2.8421,-2.839,-2.8246,-2.8024,-2.8128,-2.8118,-2.7883,-2.7666,-2.764,-2.7747,-2.782,-2.7735,-2.7591,-2.7741,-2.7897,-2.7719,-2.7697,-2.7794,-2.7903,-2.8019,-2.8247,-2.8393,-2.8533,-2.8689,-2.8748,-2.8945,-2.9448,-2.9444,-2.9502,-2.9782,-2.9998,-3.0032,-3.0129,-3.0168,-3.0009,-3.0107,-2.996,-3.0229,-3.0133,-3.0051,-2.999,-2.9902,-3.0133,-3.0158,-3.0173,-3.0097,-2.994,-2.9823,-2.9993,-2.9975,-2.9959,-2.9968,-3.0108,-3.0097,-3.0123,-3.0167,-2.993,-2.9907,-2.9908,-2.9864,-3.0014,-3.0196,-3.0097,-3.0174,-3.0094,-2.9936,-2.9872,-3.0165,-3.0158,-3.002,-3.0005,-2.9908,-2.9844,-2.9807,-2.9741,-2.963,-2.9571,-2.9587,-2.9618,-2.9699,-2.9844,-2.971,-2.9706,-2.966,-2.9851,-3.0057,-3.0219,-3.0411,-3.0424,-3.0316,-3.0292,-3.0043,-3.0009,-3.0293,-3.0258,-3.0202,-3.0692,-3.0649,-3.0703,-3.0789,-3.0657,-3.0192,-2.9095,-2.6812,-2.4055,-2.1843,-2.1445,-2.5485,-2.8817,-3.0198,-3.1278,-3.1703,-3.1734,-3.0665,-3.0176,-3.0299,-3.0698,-3.0635,-3.0684,-3.0746,-3.076,-3.0474,-3.0592,-3.0607,-3.0609,-3.0593,-3.0514,-3.0553,-3.0521,-3.0274,-3.0193,-3.053,-3.0416,-3.0432,-3.0204,-3.019,-3.0079,-3.0102,-3.0113,-3.0162,-2.9808,-2.9737,-2.9903,-2.9748,-2.9695,-2.9607,-2.9506,-2.9436,-2.9194,-2.9161,-2.929,-2.9264,-2.9151,-2.8951,-2.8721,-2.8776,-2.8828,-2.8755,-2.8504,-2.8486,-2.8482,-2.8478,-2.862,-2.8462,-2.8573,-2.8465,-2.838,-2.8611,-2.8548,-2.8649,-2.8901,-2.9158,-2.9194,-2.9368,-2.9753,-2.9885,-3.009,-3.0124,-3.0047,-3.0187,-3.0325,-3.0401,-3.0502,-3.0602,-3.03,-3.036,-3.0624,-3.0451,-3.032,-3.0513,-3.0544,-3.0626,-3.0696,-3.0545,-3.0545,-3.0478,-3.0574,-3.0437,-3.0373,-3.0431,-3.0447,-3.035,-3.0331,-3.0414,-3.0313,-3.037,-3.0423,-3.0426,-3.0408,-3.0208,-3.0436,-3.0513,-3.0509,-3.0566,-3.0623,-3.0536,-3.0419,-3.0324,-3.036,-3.0468,-3.0355,-3.0257,-3.0164,-3.0123,-3.0114,-3.0053,-2.9892,-3.0015,-2.998,-3.0011,-3.0039,-3.0056,-3.0026,-3.0306,-3.0469,-3.0486,-3.0655,-3.0685,-3.0821,-3.0749,-3.0587,-3.0678,-3.0678,-3.0572,-3.0456,-3.0182,-3.0515,-3.0783,-3.0458,-2.9738,-2.846,-2.6199,-2.4071,-2.2465,-2.3488,-2.7077,-2.9059,-2.9414,-3.04,-3.1142,-3.2031,-3.1935,-3.1204,-3.0412,-3.0334,-3.0498,-3.0346,-3.0331,-3.0317,-3.0399,-3.0352,-3.0367,-3.005,-3.0164,-3.0283,-3.0284,-3.0096,-3.0114,-3.0119,-3.0179,-3.0022,-2.9943,-2.9827,-3.0034,-2.9873,-2.9968,-2.9778,-2.9793,-2.9749,-2.9714,-2.9515,-2.9307,-2.9227,-2.9415,-2.9444,-2.9115,-2.9029,-2.9031,-2.9002,-2.9046,-2.8934,-2.8814,-2.8645,-2.8777,-2.8594,-2.8478,-2.8578,-2.8478,-2.8278,-2.8281,-2.83,-2.8292,-2.8279,-2.8462,-2.849,-2.8444,-2.8451,-2.8451,-2.8679,-2.8798,-2.8927,-2.9111,-2.9248,-2.9425,-2.9618,-2.9543,-2.9678,-2.9813,-3.0083,-3.0198,-3.0195,-3.0044,-3.0055,-3.0254,-3.0182,-3.0186,-3.0131,-3.0244,-3.0131,-3.0041,-3.022,-3.0159,-3.0248,-2.9836,-2.9932,-3.0062,-3.0055,-2.9928,-2.9883,-2.9946,-2.9881,-2.9793,-2.9911,-2.9783,-2.9786,-2.9807,-2.9946,-2.9965,-2.9996,-3.0011,-3.0028,-3.0112,-3.0159,-3.0168,-3.0325,-3.0218,-3.0126,-3.0083,-3.0195,-3.0122,-3.0058,-3.0019,-2.9809,-2.9666,-2.9687,-2.9679,-2.9555,-2.9654,-2.9884,-2.9958,-2.9931,-2.9765,-2.9803,-2.97,-2.9981,-3.0125,-3.0288,-3.0306,-3.0285,-3.0396,-3.0396,-3.0334,-3.0416,-3.0305,-3.0267,-3.033,-3.0441,-3.0525,-3.0467,-3.0308,-2.9868,-2.8784,-2.6867,-2.4346,-2.2075,-2.19,-2.5062,-2.8259,-2.9283,-3.0352,-3.1598,-3.1643,-3.0936,-2.9941,-2.9899,-3.0138,-2.9943,-3.0235,-3.0041,-3.0208,-3.017,-3.0195,-2.9954,-3.0049,-3.003,-3.0009,-3.0066,-3.0016,-2.9937,-2.9929,-3.0079,-3.007,-2.9978,-3.0012,-2.9814,-2.9821,-2.9746,-2.9676,-2.9501,-2.9473,-2.9352,-2.9423,-2.9289,-2.9335,-2.936,-2.9104,-2.8957,-2.8819,-2.86,-2.86,-2.8569,-2.864,-2.8498,-2.838,-2.8261,-2.8181,-2.8063,-2.8089,-2.809,-2.7945,-2.8013,-2.8161,-2.8085,-2.8024,-2.7891,-2.7801,-2.7949,-2.8242,-2.8296,-2.8512,-2.8561,-2.8547,-2.8932,-2.9169,-2.93,-2.9298,-2.9555,-2.9725,-2.98,-2.9931,-2.9944,-2.9914,-3.0027,-3.0182,-3.0251,-3.0094,-3.0109,-3.0058,-3.0034,-3.018,-3.0175,-3.0077,-3.0079,-3.0048,-3.0135,-2.9962,-3.0008,-2.9913,-2.9911,-2.9883,-2.9946,-2.991,-2.9798,-2.9698,-2.9855,-2.9914,-2.9938,-2.9821,-2.9931,-2.9999,-3.0106,-3.007,-3.007,-3.0009,-2.9966,-3.0096,-3.0129,-3.0027,-2.9899,-2.9945,-2.9803,-2.9609,-2.9535,-2.9603,-2.9452,-2.929,-2.9468,-2.9578,-2.9548,-2.9509,-2.967,-2.969,-2.9771,-3.0055,-2.995,-3.0154,-3.0246,-3.0153,-3.0337,-3.0312,-3.0301,-3.0234,-3.0231,-3.019,-3.0195,-3.0258,-3.0571,-3.0537,-3.0156,-2.9231,-2.7131,-2.427,-2.1883,-2.0883,-2.4129,-2.7882,-2.9453,-3.0961,-3.1546,-3.1458,-3.1202,-2.9968,-2.9745,-3.0087,-2.9996,-3.0148,-3.0012,-3.0231,-3.0154,-3.0203,-2.9966,-3.0104,-3.0116,-3.0107,-3.0135,-3.0238,-2.999,-3.0028,-3.0061,-3.001,-2.995,-2.9956,-2.9867,-2.9844,-2.9757,-2.9619,-2.9588,-2.9627,-2.9467,-2.9459,-2.9274,-2.9162,-2.9258,-2.9087,-2.8919,-2.8845,-2.8673,-2.8606,-2.8436,-2.8349,-2.8435,-2.8423,-2.8418,-2.8263,-2.8221,-2.818,-2.8153,-2.8171,-2.8145,-2.8139,-2.802,-2.7988,-2.8067,-2.8186,-2.8112,-2.8236,-2.8463,-2.8597,-2.8801,-2.8922,-2.9076,-2.921,-2.9499,-2.9578,-2.9732,-2.9841,-2.9854,-2.993,-3.0167,-3.0263,-3.0118,-3.0118,-3.0356,-3.0399,-3.0361,-3.0383,-3.0271,-3.0252,-3.0219,-3.0297,-3.0143,-3.0032,-3.0125,-3.0158,-3.0076,-3.0082,-3.0102,-3.0153,-3.0193,-3.0276,-3.023,-3.0023,-3.0068,-3.0208,-3.0093,-3.0071,-3.0081,-3.0214,-3.0287,-3.0187,-3.0135,-3.028,-3.029,-3.0239,-3.0158,-3.0239,-3.0213,-2.9971,-2.997,-2.9882,-2.9784,-2.9718,-2.97,-2.9715,-2.9819,-2.9776,-2.9956,-2.9726,-2.9856,-2.9826,-2.9921,-3.0192,-3.0562,-3.052,-3.0412,-3.0277,-3.0364,-3.0451,-3.0458,-3.0528,-3.0419,-3.0348,-3.0317,-3.0466,-3.0764,-3.0606,-3.0387,-2.9339,-2.7301,-2.4599,-2.326,-2.1286,-2.2619,-2.6776,-2.8829,-3.0318,-3.1545,-3.177,-3.1249,-3.0322,-3.0159,-3.0342,-3.0309,-3.0601,-3.0366,-3.0432,-3.0371,-3.0417,-3.0303,-3.0299,-3.0223,-3.0258,-3.0154,-3.03,-3.0136,-3.0149,-3.0099,-3.0203,-3.0049,-3.0061,-3.006,-2.9955,-2.984,-2.9856,-2.9721,-2.9771,-2.9558,-2.9511,-2.947,-2.9508,-2.9469,-2.9325,-2.9116,-2.9031,-2.8874,-2.8767,-2.881,-2.8794,-2.8787,-2.8647,-2.8565,-2.8481,-2.846,-2.8397,-2.8307,-2.8285,-2.8305,-2.8249,-2.8205,-2.82,-2.8206,-2.8084,-2.8127,-2.8342,-2.8411,-2.8727,-2.8825,-2.9024,-2.9233,-2.9456,-2.9704,-2.9836,-2.9964,-3.0016,-3.023,-3.0321,-3.0342,-3.0492,-3.0471,-3.0503,-3.0547,-3.0538,-3.0609,-3.0294,-3.0385,-3.0402,-3.037,-3.059,-3.0434,-3.038,-3.0438,-3.0365,-3.0429,-3.0384,-3.0344,-3.0285,-3.0354,-3.0259,-3.0341,-3.0224,-3.0295,-3.0192,-3.0097,-3.014,-3.0252,-3.0131,-3.0277,-3.0388,-3.0267,-3.0284,-3.0419,-3.0385,-3.0267,-3.0381,-3.043,-3.0349,-3.0324,-3.0282,-3.0186,-2.9914,-2.9819,-2.9791,-2.9838,-2.9851,-2.9757,-2.9765,-2.9622,-2.9593,-2.9787,-2.979,-2.9932,-3.0023,-3.0104,-3.0217,-3.0324,-3.0344,-3.0214,-3.046,-3.0413,-3.036,-3.0275,-3.041,-3.0372,-3.0314,-3.0532,-3.0572,-3.0795,-3.0499,-3.0062,-2.9171,-2.6884,-2.418,-2.1742,-2.1374,-2.4791,-2.8151,-2.9345,-3.0652,-3.1341,-3.159,-3.1385,-3.0097,-3.0006,-3.0464,-3.0033,-2.973,-2.9959,-3.0021,-2.9866,-3.0266,-3.0329,-3.0145,-2.9896,-2.9567,-2.9719,-3.0265,-3.0153,-3.0146,-3.0027,-2.951,-2.9631,-2.9885,-2.9812,-2.9171,-2.8942,-2.9577,-2.9811,-2.9566,-2.9533,-2.9065,-2.8968,-2.8909,-2.8705,-2.9206,-2.8968,-2.8919,-2.8757,-2.8107,-2.7913,-2.809,-2.8212,-2.8317,-2.844,-2.8178,-2.8325,-2.7987,-2.7687,-2.8132,-2.8216,-2.8023,-2.7648,-2.7978,-2.8047,-2.7846,-2.7747,-2.7721,-2.7897,-2.8342,-2.8841,-2.879,-2.8936,-2.9068,-2.9336,-2.9251,-2.9316,-2.937,-2.9237,-2.9981,-3.0046,-3.0073,-2.9927,-2.9882,-3.0031,-3.0229,-3.0262,-2.9887,-2.9653,-3.0029,-2.9725,-2.96,-3.0097,-3.0069,-2.9935,-2.9797,-2.9848,-2.9355,-2.9283,-3.0029,-3.0308,-2.9898,-2.9808,-2.9615,-2.933,-2.9476,-2.9723,-2.9661,-2.882,-2.8967,-3.0356,-3.0174,-3.01,-2.9999,-2.977,-2.9699,-2.9225,-2.9598,-3.0081,-2.9772,-2.9444,-2.9118,-2.9695,-2.913,-2.871,-2.9148,-2.9447,-2.9863,-2.9579,-2.9273,-2.9678,-2.958,-2.9314,-2.9392,-3.0315,-3.0246,-2.9911,-3.013,-2.996,-3.0243,-2.9916,-2.982,-2.984,-3.0061,-3.0261,-2.9855,-3.0086,-3.0287,-2.9402,-2.7663,-2.4806,-2.1786,-2.0278,-2.1739,-2.6136,-2.8536,-2.8632,-2.9686,-3.111,-3.1068,-3.0149,-2.9561,-2.9308,-3.0086,-2.978,-3.0109,-2.9955,-2.9848,-2.9661,-2.9329,-2.9993,-3.03,-2.967,-2.9566,-2.9811,-2.9976,-3.0103,-2.9366,-2.8938,-2.9957,-3.0213,-2.9838,-2.943,-2.9257,-2.9062,-2.9658,-2.9268,-2.911,-2.9478,-2.88,-2.9124,-2.9397,-2.8597,-2.8462,-2.8913,-2.8919,-2.8736,-2.8345,-2.8494,-2.8086,-2.7871,-2.8465,-2.8414,-2.8139,-2.8119,-2.8107,-2.826,-2.8278,-2.8609,-2.7993,-2.7466,-2.7881,-2.7975,-2.7947,-2.784,-2.8569,-2.87,-2.8742,-2.9033,-2.8804,-2.9246,-2.9333,-2.9284,-2.9711,-2.9821,-2.9691,-3.038,-3,-2.9442,-2.9777,-3.0282,-3.0126,-3.035,-3.057,-3.0146,-3.0218,-3.042,-3.0175,-3.0055,-2.9877,-3.0183,-2.9607,-2.9792,-3.0057,-2.9898,-2.9931,-2.9742,-3.0521,-3.0252,-3.0021,-2.9898,-2.9917,-3.0002,-3.0135,-3.0221,-2.9711,-2.9577,-2.9519,-2.9459,-3.0465,-3.0781,-2.9943,-2.9932,-2.9891,-2.9838,-2.9394,-2.9456,-2.9645,-2.9723,-2.9959,-2.9539,-2.9902,-2.9514,-2.9293,-2.9506,-2.9851,-3.0035,-3.0118,-3.0621,-3.0666,-3.0678,-3.0302,-3.016,-3.018,-3.034,-3.0643,-3.049,-3.0459,-3.0375,-3.0358,-3.08,-3.0336,-3.0173,-2.938,-2.7301,-2.4091,-2.2144,-2.2284,-2.5703,-2.8385,-2.939,-3.0835,-3.1531,-3.126,-3.0927,-3.0368,-3.0246,-3.0662,-3.0408,-3.0339,-3.004,-3.0059,-3.027,-3.0558,-3.0395,-3.0291,-3.0107,-2.9789,-3.0392,-3.006,-3.0138,-3.054,-3.009,-3.0508,-3.0449,-3.0114,-2.9909,-2.9483,-2.9375,-2.9607,-2.9812,-2.9569,-2.9666,-2.9489,-2.8848,-2.9273,-2.9321,-2.9595,-2.9087,-2.8974,-2.9041,-2.8979,-2.8788,-2.8748,-2.8782,-2.8753,-2.8483,-2.8614,-2.7888,-2.7822,-2.9265,-2.8683,-2.8097,-2.8401,-2.8388,-2.8334,-2.8687,-2.8385,-2.8074,-2.8864,-2.8706,-2.8949,-2.9306,-2.9413,-2.9449,-2.9589,-2.9747,-2.9727,-2.9938,-2.9867,-3.0336,-3.0517,-3.0304,-3.0703,-3.0355,-3.0259,-3.0382,-3.067,-3.0542,-3.0608,-3.0347,-3.0401,-3.0211,-3.0254,-3.0812,-3.0445,-3.0346,-3.0158,-3.0149,-3.0256,-3.0506,-3.025,-3.0246,-3.0084,-3.0159,-3.0097,-3.0222,-3.0338,-3.0314,-3.0645,-3.0633,-3.0576,-3.0277,-3.0151,-3.0222,-3.0085,-3.0065,-3.0159,-2.991,-2.9893,-3.0036,-2.9974,-3.007,-2.9957,-2.9981,-3.0078,-3.019,-3.0147,-2.9985,-2.9543,-3.0192,-3.0933,-3.0941,-3.0807,-3.0497,-3.0243,-3.0483,-3.0965,-3.0877,-3.068,-3.0266,-3.0216,-3.0693,-3.0904,-3.0706,-3.0876,-3.0138,-2.8409,-2.56,-2.2785,-2.1615,-2.4581,-2.8015,-2.9106,-3.05,-3.1554,-3.1444,-3.1075,-3.0492,-3.0866,-3.0769,-3.0361,-3.0643,-3.066,-3.0983,-3.0552,-3.0815,-3.0586,-3.0518,-3.0224,-3.0184,-3.0167,-3.0235,-3.0435,-3.0237,-3.0312,-3.0308,-3.0351,-3.0185,-2.9994,-3.0087,-3.0041,-3.0094,-3.0183,-2.9746,-2.9436,-2.9881,-2.9589,-2.9667,-2.9775,-2.9372,-2.9253,-2.9419,-2.8809,-2.8593,-2.8406,-2.8742,-2.9224,-2.8968,-2.8654,-2.8752,-2.9077,-2.8734,-2.8549,-2.8692,-2.8596,-2.8458,-2.8597,-2.8671,-2.8452,-2.8424,-2.8756,-2.8698,-2.844,-2.8795,-2.9249,-2.9791,-2.9916,-3.0093,-3.0111,-2.9843,-2.9664,-3.0003,-3.0023,-3.053,-3.0729,-3.0517,-3.0707,-3.0729,-3.0545,-3.0576,-3.0477,-3.0857,-3.0575,-3.0151,-3.0435,-3.0736,-3.0677,-3.0786,-3.0324,-2.9796,-3.0487,-3.0408,-3.0561,-3.0584,-3.0683,-3.0455,-3.0604,-3.0586,-3.0492,-3.0177,-3.0148,-3.0093,-3.0479,-3.0542,-3.0233,-3.0038,-3.0139,-3.0185,-3.0253,-2.983,-2.9796,-3.0038,-2.9915,-3.0133,-3.033,-2.9782,-2.9698,-3.0035,-3.0553,-3.0233,-3.0564,-3.0774,-3.0952,-3.0877,-3.066,-3.0704,-3.0579,-3.1095,-3.0938,-3.0662,-3.0321,-3.0068,-3.0688,-3.0827,-3.0987,-3.01,-2.8462,-2.6536,-2.374,-2.2087,-2.3327,-2.7084,-2.8988,-3.0559,-3.115,-3.1636,-3.119,-2.9824,-3.0087,-3.044,-3.0231,-3.0548,-3.0724,-3.0798,-3.0452,-2.9623,-2.953,-3.0599,-3.0918,-3.0673,-3.0348,-3.0082,-2.9817,-2.9295,-3.0203,-3.035,-3.0343,-3.0186,-3.0087,-2.9678,-2.929,-2.9418,-2.9714,-2.9677,-2.958,-2.97,-2.9611,-2.9373,-2.937,-2.9161,-2.8694,-2.9135,-2.9351,-2.8955,-2.8293,-2.8246,-2.8533,-2.8572,-2.819,-2.8257,-2.8575,-2.8283,-2.8127,-2.8178,-2.827,-2.8287,-2.827,-2.8302,-2.8083,-2.8176,-2.8376,-2.8012,-2.8484,-2.8984,-2.8931,-2.889,-2.9368,-2.9688,-2.9681,-2.979,-2.9744,-3.0122,-3.0099,-3.0195,-3.0249,-3.0293,-3.0419,-3.0371,-3.0152,-3.0172,-2.9978,-3.0154,-2.9767,-3.0025,-3.049,-3.0384,-3.0181,-3.0299,-3.0266,-3.0075,-3.0075,-3.001,-2.985,-2.9648,-2.9991,-3.0208,-3.0156,-3.0037,-3.014,-2.9959,-3.0239,-3.0308,-3.0229,-2.9923,-2.9844,-3.0249,-3.0164,-2.959,-2.9795,-2.9888,-2.9965,-2.9778,-2.9748,-2.9877,-3.0088,-2.9723,-2.963,-3.0039,-3.0314,-3.0366,-3.0536,-3.0297,-3.0117,-3.0096,-3.0338,-3.096,-3.0807,-3.087,-3.0544,-3.0468,-3.065,-3.0676,-3.0909,-3.1024,-3.0562,-2.9166,-2.6912,-2.4331,-2.257,-2.3379,-2.6803,-2.9141,-2.9976,-3.1099,-3.1919,-3.153,-3.075,-3.019,-3.0395,-3.0593,-3.0393,-3.0203,-3.0581,-3.0654,-3.0733,-3.0593,-3.0547,-3.0694,-3.0399,-3.0346,-3.0419,-3.0403,-3.0201,-3.0253,-3.0205,-3.0017,-2.9941,-2.9905,-3.0251,-3.0068,-2.9706,-2.966,-2.9788,-2.9946,-2.9808,-2.9785,-2.9447,-2.9526,-2.911,-2.8937,-2.8854,-2.9066,-2.9181,-2.9171,-2.8869,-2.8532,-2.8092,-2.845,-2.8617,-2.8305,-2.8597,-2.8962,-2.8754,-2.8714,-2.8314,-2.8319,-2.8576,-2.8574,-2.8216,-2.8149,-2.8668,-2.872,-2.8816,-2.9167,-2.9279,-2.936,-2.9508,-2.962,-2.9785,-2.9952,-2.9996,-3.0227,-3.006,-2.9906,-3.0218,-3.0256,-3.0136,-3.0203,-3.0065,-2.9838,-3.0098,-3.0252,-3.0301,-3.0256,-3.02,-3.0075,-2.9907,-2.9929,-3.0035,-2.988,-2.9797,-2.9979,-2.9989,-2.9977,-2.9993,-3.0034,-3.0035,-3.0008,-2.9965,-2.995,-2.9848,-2.9856,-2.9749,-2.9655,-2.9558,-2.9534,-2.9467,-2.9434,-2.9393,-2.9351,-2.9377,-2.9501,-2.9507,-2.9433,-2.9354,-2.9264,-2.9613,-2.9679,-2.9796,-2.9931,-3.0215,-3.0238,-3.0261,-3.0204,-3.0007,-3.0068,-3.02,-3.0159,-3.0207,-3.0262,-3.0366,-3.0547,-3.0342,-3.0072,-2.8998,-2.7064,-2.4453,-2.2266,-2.1956,-2.4521,-2.7286,-2.8611,-3.0604,-3.2398,-3.2501,-3.2012,-3.0665,-3.034,-3.0746,-3.1088,-3.1498,-3.1329,-3.1243,-3.1081,-3.1177,-3.1377,-3.1437,-3.1238,-3.1337,-3.1263,-3.1335,-3.1461,-3.148,-3.1418,-3.1349,-3.1273,-3.1519,-3.1399,-3.1236,-3.0892,-3.085,-3.0846,-3.0943,-3.0908,-3.0671,-3.0404,-3.0447,-3.0234,-3.029,-3.0131,-2.9945,-2.9866,-3.0195,-3.0055,-2.9924,-2.9906,-2.9795,-2.9579,-2.9607,-2.9355,-2.903,-2.9157,-2.9013,-2.9104,-2.9113,-2.9069,-2.8718,-2.8789,-2.9095,-2.8964,-2.9124,-2.9361,-2.9288,-2.9406,-2.9812,-3.0017,-3.0097,-2.9844,-2.9836,-3.017,-3.0135,-3.0268,-3.0638,-3.0628,-3.057,-3.048,-3.0506,-3.0451,-3.0311,-3.0121,-2.9972,-2.9899,-2.9769,-3.0071,-3.0068,-2.9942,-2.9661,-2.9677,-2.9571,-2.9609,-2.9867,-2.9764,-2.9585,-2.9574,-2.9673,-2.9565,-2.9611,-2.9724,-2.9698,-2.9602,-2.9434,-2.9604,-2.9478,-2.934,-2.9322,-2.939,-2.9213,-2.9272,-2.9086,-2.909,-2.9296,-2.9336,-2.9196,-2.9246,-2.9266,-2.9221,-2.9204,-2.9116,-2.9289,-2.9487,-2.9639,-2.974,-2.9761,-2.9817,-2.977,-2.9638,-2.9719,-2.9802,-2.9853,-2.9754,-2.959,-2.9711,-2.9896,-3.0124,-3.0213,-2.9763,-2.8786,-2.6742,-2.4101,-2.1573,-2.0631,-2.3684,-2.7754,-2.91,-3.0222,-3.1291,-3.1196,-3.064,-2.937,-2.9326,-2.9406,-2.9287,-2.9561,-2.9656,-2.9689,-2.969,-2.9589,-2.9544,-2.9426,-2.9498,-2.9578,-2.9382,-2.931,-2.9243,-2.9273,-2.925,-2.9298,-2.9223,-2.9026,-2.9232,-2.9183,-2.9029,-2.8924,-2.8699,-2.8411,-2.88,-2.8846,-2.8654,-2.8556,-2.8249,-2.824,-2.8294,-2.8344,-2.7916,-2.7783,-2.7829,-2.7716,-2.7523,-2.7452,-2.757,-2.7924,-2.7782,-2.7487,-2.7259,-2.7277,-2.7559,-2.7519,-2.7455,-2.7308,-2.7292,-2.7697,-2.7808,-2.7792,-2.7946,-2.7694,-2.7911,-2.8507,-2.8786,-2.8831,-2.9019,-2.9078,-2.9246,-2.9571,-2.9491,-2.9427,-2.9487,-2.9803,-2.9705,-2.9668,-2.9809,-2.9632,-2.942,-2.9706,-2.9618,-2.9629,-2.9916,-2.9546,-2.9301,-2.9315,-2.9542,-2.9569,-2.9652,-2.9375,-2.9504,-2.9396,-2.9298,-2.9293,-2.928,-2.9026,-2.8602,-2.8934,-2.9652,-2.9507,-2.9439,-2.9345,-2.9047,-2.867,-2.8519,-2.8895,-2.904,-2.8929,-2.8746,-2.8929,-2.8699,-2.8805,-2.899,-2.905,-2.875,-2.8766,-2.891,-2.9459,-2.9695,-2.9562,-2.9539,-2.9172,-2.8962,-2.9539,-2.9764,-2.9788,-2.976,-2.9511,-2.9511,-2.9684,-2.9839,-2.9724,-2.9215,-2.826,-2.6158,-2.3452,-2.162,-2.1553,-2.4853,-2.782,-2.8223,-2.9055,-3.059,-3.1323,-3.0964,-2.9947,-2.9263,-2.9436,-2.9395,-2.945,-2.9569,-2.9597,-2.9582,-2.9438,-2.9263,-2.9452,-2.9494,-2.9551,-2.9474,-2.9566,-2.9403,-2.927,-2.934,-2.9117,-2.9107,-2.9127,-2.9379,-2.9009,-2.893,-2.934,-2.8986,-2.9014,-2.8813,-2.8864,-2.8997,-2.8741,-2.8655,-2.8497,-2.8379,-2.8321,-2.8046,-2.8136,-2.8353,-2.7972,-2.7793,-2.8051,-2.8108,-2.8003,-2.8056,-2.7951,-2.7736,-2.7844,-2.7655,-2.7662,-2.7965,-2.7912,-2.753,-2.7872,-2.8202,-2.8165,-2.827,-2.816,-2.8231,-2.8403,-2.872,-2.9205,-2.9176,-2.9091,-2.9207,-2.9281,-2.9487,-2.9567,-2.9755,-2.9597,-2.97,-2.9985,-2.9897,-2.9558,-2.973,-2.9815,-2.9944,-2.9912,-2.9638,-2.938,-2.9607,-2.9778,-2.9729,-2.952,-2.9688,-2.9538,-2.9348,-2.9581,-2.9727,-2.9543,-2.9326,-2.935,-2.9406,-2.9257,-2.9212,-2.9258,-2.9187,-2.9129,-2.9169,-2.928,-2.9089,-2.8838,-2.8674,-2.8911,-2.9229,-2.9206,-2.9109,-2.9228,-2.933,-2.9379,-2.9588,-2.9625,-2.9691,-2.9725,-2.9722,-2.9803,-2.9875,-2.9671,-2.9305,-2.9672,-2.9943,-2.98,-3.0044,-3.0121,-2.9905,-2.9144,-2.7712,-2.6757,-2.4706,-2.2548,-2.1562,-2.4011,-2.7485,-2.8727,-2.9323,-3.027,-3.149,-3.1119,-3.0623,-2.9551,-2.9411,-2.9516,-2.9689,-2.984,-2.981,-2.9736,-2.95,-2.9517,-2.9417,-2.9284,-2.9712,-2.9677,-2.975,-2.9805,-2.9408,-2.9459,-2.9695,-2.954,-2.9312,-2.9368,-2.9383,-2.9347,-2.9316,-2.9156,-2.918,-2.9129,-2.894,-2.8939,-2.8899,-2.8889,-2.8569,-2.8565,-2.8537,-2.8458,-2.8156,-2.8162,-2.8346,-2.8094,-2.7701,-2.7966,-2.8118,-2.8024,-2.8027,-2.8001,-2.7798,-2.7892,-2.7732,-2.772,-2.7757,-2.7912,-2.7791,-2.7782,-2.7868,-2.8339,-2.8682,-2.872,-2.8936,-2.9153,-2.8971,-2.8799,-2.9055,-2.9568,-2.9674,-2.9898,-3.0135,-2.9904,-2.9922,-2.9843,-2.9844,-2.9886,-2.99,-2.9858,-3.0173,-3.0099,-3.007,-2.9778,-2.9593,-2.9913,-3.0166,-2.999,-2.9908,-2.9952,-2.9976,-2.9832,-2.954,-2.964,-2.9718,-2.9839,-2.9793,-2.9664,-2.9564,-2.9773,-2.9457,-2.9239,-2.9484,-2.9263,-2.9213,-2.9313,-2.917,-2.9227,-2.9113,-2.8945,-2.923,-2.941,-2.9507,-2.9608,-2.9689,-2.9663,-2.9834,-3.0257,-3.0131,-3.0062,-3.0104,-3.0124,-3.0158,-3.009,-3.0231,-3.0099,-3.004,-2.999,-3.0166,-3.0385,-2.9881,-2.8678,-2.6582,-2.3972,-2.1904,-2.1398,-2.3901,-2.7433,-2.8929,-2.9784,-3.1011,-3.1878,-3.1458,-3.0524,-2.9737,-3.0021,-3.0356,-3.0195,-3.0123,-3.0157,-3.0153,-3.0113,-3.0027,-2.9853,-2.981,-2.9942,-3.0142,-3.0267,-3.0103,-3.0098,-3.0037,-2.9983,-2.9947,-2.9751,-2.9932,-2.9776,-2.9805,-2.9812,-2.9689,-2.9652,-2.9594,-2.9539,-2.9447,-2.9373,-2.9235,-2.9112,-2.89,-2.8806,-2.8769,-2.8644,-2.8819,-2.8633,-2.8549,-2.8574,-2.8522,-2.8399,-2.8213,-2.8184,-2.8363,-2.807,-2.8067,-2.8081,-2.8011,-2.8123,-2.8233,-2.8382,-2.8442,-2.8569,-2.8846,-2.8933,-2.9024,-2.9017,-2.9208,-2.9479,-2.9679,-2.9787,-2.9964,-3.0262,-3.0428,-3.0393,-3.0422,-3.0393,-3.0316,-3.0447,-3.0401,-3.0482,-3.0401,-3.0466,-3.0522,-3.0473,-3.0519,-3.064,-3.0422,-3.0396,-3.0492,-3.0505,-3.051,-3.0407,-3.0361,-3.033,-3.0435,-3.0545,-3.038,-3.039,-3.034,-3.029,-3.0046,-3.0128,-3.039,-3.0235,-3.0168,-3.0001,-3.0019,-2.9914,-2.986,-2.9882,-2.9777,-2.9508,-2.9323,-3.0189,-3.0493,-3.0311,-3.014,-2.9861,-3.0306,-3.0436,-3.0552,-3.0871,-3.0816,-3.0688,-3.0662,-3.0704,-3.0705,-3.0638,-3.0374,-3.0469,-3.0762,-3.0723,-3.1108,-3.0955,-3.029,-2.9018,-2.6858,-2.4689,-2.2528,-2.2589,-2.435,-2.7882,-2.9522,-3.0453,-3.1519,-3.1721,-3.174,-3.0675,-3.026,-3.0552,-3.0547,-3.055,-3.093,-3.0793,-3.0811,-3.0321,-3.045,-3.0561,-3.0765,-3.0385,-3.0425,-3.0202,-3.0458,-3.0513,-3.0496,-3.059,-3.0356,-3.0056,-3.0214,-3.0263,-3.0148,-3.0105,-2.9864,-2.9827,-2.981,-2.9776,-2.9639,-2.9858,-2.9337,-2.9279,-2.9474,-2.9057,-2.8808,-2.9075,-2.8967,-2.9013,-2.8884,-2.847,-2.8208,-2.8639,-2.8616,-2.8333,-2.8296,-2.799,-2.802,-2.7823,-2.8033,-2.8367,-2.8563,-2.8594,-2.8564,-2.8621,-2.8838,-2.9021,-2.9044,-2.9326,-2.9699,-2.9932,-2.9873,-2.9494,-2.9794,-3.0303,-3.0437,-3.0055,-3.0434,-3.0849,-3.0736,-3.0547,-3.0342,-3.03,-3.0484,-3.0809,-3.0633,-3.0486,-3.0359,-3.0745,-3.0414,-3.0291,-3.0683,-3.0523,-3.008,-3.0164,-3.0517,-3.0786,-3.0523,-3.048,-3.0501,-3.0343,-3.0427,-3.0356,-3.0235,-3.0062,-3.0362,-3.05,-3.0226,-3.0334,-3.0541,-3.0616,-3.0294,-3.0083,-3.0081,-3.011,-3.0082,-3.0203,-3.0236,-3.0148,-2.9841,-2.9972,-2.977,-2.9892,-2.997,-2.9879,-2.9665,-2.9806,-2.9963,-2.9848,-3.0056,-2.9897,-3.0122,-3.0551,-3.0708,-3.071,-3.0657,-3.0501,-3.0485,-3.0385,-3.0551,-3.0512,-3.0415,-3.0667,-3.0715,-3.0844,-3.1043,-3.1038,-3.0262,-2.8538,-2.5884,-2.2732,-2.0156,-2.1757,-2.6258,-2.9201,-3.0746,-3.2029,-3.1944,-3.1441,-3.0133,-3.0087,-3.0353,-3.0426,-3.0743,-3.0647,-3.0613,-3.0505,-3.0535,-3.0438,-3.0446,-3.0304,-3.0463,-3.0251,-3.0212,-3.0113,-3.0152,-2.9895,-2.9957,-2.966,-2.987,-3.0132,-3.0122,-2.9968,-2.9994,-2.9703,-2.9568,-2.965,-2.955,-2.9233,-2.9287,-2.9254,-2.9272,-2.9129,-2.9027,-2.88,-2.8629,-2.8456,-2.8506,-2.8485,-2.8359,-2.8301,-2.8105,-2.8093,-2.7987,-2.7989,-2.7983,-2.7877,-2.7852,-2.7792,-2.7708,-2.7804,-2.7917,-2.8032,-2.8103,-2.828,-2.8525,-2.8707,-2.8981,-2.9165,-2.9428,-2.9627,-2.9809,-2.9966,-3.0017,-3.0101,-3.0194,-3.0303,-3.0408,-3.049,-3.0483,-3.057,-3.046,-3.0456,-3.0544,-3.0515,-3.0559,-3.0663,-3.0647,-3.0627,-3.0635,-3.0601,-3.0552,-3.0627,-3.0617,-3.0683,-3.0573,-3.0533,-3.0468,-3.0503,-3.0503,-3.0418,-3.0443,-3.0522,-3.0522,-3.0534,-3.0587,-3.0509,-3.0506,-3.0559,-3.0477,-3.0412,-3.0305,-3.0384,-3.0578,-3.0817,-3.0802,-3.0818,-3.0704,-3.0752,-3.0711,-3.059,-3.0442,-3.0361,-3.0216,-3.0161,-3.011,-3.0056,-3.0293,-3.0235,-3.0166,-3.0112,-3.002,-3.0047,-2.9939,-2.9879,-3.0344,-3.0383,-3.0486,-3.0868,-3.0868,-3.0787,-3.0841,-3.0711,-3.0644,-3.0806,-3.0746,-3.0589,-3.0586,-3.0779,-3.0724,-3.0657,-3.0957,-3.111,-3.0681,-2.9231,-2.6679,-2.3372,-2.0652,-2.1284,-2.5727,-2.9302,-3.0921,-3.2279,-3.2288,-3.2083,-3.0589,-3.0382,-3.0618,-3.0604,-3.0748,-3.0715,-3.0728,-3.0609,-3.0641,-3.0572,-3.0725,-3.0673,-3.0669,-3.0614,-3.0592,-3.0336,-3.0223,-3.0234,-3.0241,-3.0128,-3.0348,-3.0377,-3.0262,-3.0242,-3.0191,-3.0021,-2.9826,-2.9766,-2.9863,-2.9918,-2.9796,-2.9577,-2.951,-2.9282,-2.9261,-2.918,-2.9023,-2.8886,-2.8824,-2.8661,-2.8557,-2.8477,-2.8486,-2.8399,-2.8266,-2.8204,-2.814,-2.8093,-2.8041,-2.8017,-2.7979,-2.8064,-2.8103,-2.8143,-2.8302,-2.8417,-2.8663,-2.8824,-2.9046,-2.9269,-2.9516,-2.9669,-2.9845,-3.0002,-3.0117,-3.0313,-3.0425,-3.0508,-3.0503,-3.0548,-3.0554,-3.0557,-3.0616,-3.068,-3.0704,-3.0757,-3.0736,-3.0643,-3.0634,-3.0667,-3.0752,-3.0732,-3.0671,-3.0658,-3.0688,-3.0741,-3.0681,-3.0583,-3.0717,-3.0765,-3.0762,-3.074,-3.0714,-3.0703,-3.064,-3.0718,-3.0723,-3.0659,-3.0728,-3.0743,-3.0622,-3.0699,-3.0759,-3.0709,-3.0642,-3.0747,-3.0793,-3.0723,-3.0707,-3.0791,-3.0785,-3.0788,-3.0768,-3.0945,-3.0929,-3.088,-3.0862,-3.091,-3.0935,-3.0908,-3.0891,-3.0839,-3.0873,-3.0899,-3.0896,-3.0812,-3.0759,-3.0724,-3.0597,-3.0569,-3.0394,-3.0339,-3.0386,-3.0426,-3.0426,-3.0215,-3.0132,-3.0215,-3.0201,-3.0243,-3.0128,-3.0172,-3.0471,-3.0614,-3.0682,-3.093,-3.0967,-3.0934,-3.0937,-3.0849,-3.0918,-3.0943,-3.0915,-3.0905,-3.0768,-3.0815,-3.097,-3.1269,-3.1097,-3.036,-2.8946,-2.6412,-2.3252,-2.0869,-2.1754,-2.6008,-2.9215,-3.0495,-3.1285,-3.227,-3.2312,-3.1618,-3.0464,-3.0436,-3.0756,-3.0651,-3.0789,-3.0635,-3.0703,-3.0562,-3.0688,-3.0585,-3.0632,-3.0616,-3.0654,-3.0529,-3.06,-3.0436,-3.0481,-3.0376,-3.0501,-3.0336,-3.0323,-3.0239,-3.0317,-3.0184,-3.0168,-3.0052,-2.9984,-2.9894,-2.9847,-2.9822,-2.9684,-2.9561,-2.952,-2.9314,-2.9214,-2.9152,-2.9024,-2.8952,-2.8781,-2.8765,-2.8658,-2.8557,-2.8525,-2.8453,-2.8352,-2.8196,-2.8249,-2.8192,-2.817,-2.8154,-2.8046,-2.8128,-2.8104,-2.8192,-2.8308,-2.845,-2.8544,-2.8638,-2.8845,-2.908,-2.9234,-2.9477,-2.9582,-2.9814,-2.9964,-3.0127,-3.0326,-3.0415,-3.0451,-3.0437,-3.0507,-3.054,-3.0609,-3.0618,-3.0578,-3.0555,-3.0586,-3.0537,-3.0477,-3.0566,-3.0622,-3.064,-3.0587,-3.0551,-3.0474,-3.0526,-3.0541,-3.0464,-3.0451,-3.0481,-3.0473,-3.0562,-3.0534,-3.0537,-3.0501,-3.0428,-3.045,-3.044,-3.052,-3.0552,-3.045,-3.0481,-3.0458,-3.0553,-3.0559,-3.0531,-3.0525,-3.0552,-3.0647,-3.0695,-3.0646,-3.078,-3.0705,-3.0624,-3.0641,-3.0723,-3.0646,-3.0681,-3.0798,-3.0758,-3.0637,-3.0661,-3.0646,-3.0646,-3.0626,-3.0679,-3.0758,-3.0736,-3.071,-3.0722,-3.0713,-3.0783,-3.0747,-3.0715,-3.0585,-3.0444,-3.0393,-3.038,-3.0366,-3.0247,-3.0348,-3.0287,-3.0149,-3.0142,-3.0169,-3.0202,-3.011,-3.0158,-3.0197,-3.033,-3.0427,-3.0592,-3.0723,-3.0829,-3.0727,-3.0785,-3.0821,-3.0783,-3.0839,-3.0872,-3.0864,-3.0771,-3.0777,-3.099,-3.1055,-3.0667,-2.9713,-2.7953,-2.5057,-2.2183,-2.0771,-2.335,-2.7747,-2.9669,-3.0953,-3.2138,-3.2303,-3.2132,-3.1049,-3.0344,-3.0511,-3.0642,-3.0674,-3.0723,-3.0785,-3.0719,-3.0746,-3.0641,-3.0695,-3.0658,-3.0599,-3.0532,-3.0624,-3.0539,-3.0469,-3.0412,-3.0434,-3.0351,-3.0321,-3.033,-3.0253,-3.0263,-3.0175,-3.0048,-3.0045,-2.9954,-2.9905,-2.9812,-2.9815,-2.9711,-2.9552,-2.9418,-2.93,-2.9213,-2.9113,-2.8968,-2.8893,-2.8789,-2.8806,-2.879,-2.8684,-2.8555,-2.8555,-2.8429,-2.8414,-2.8354,-2.8403,-2.8326,-2.8301,-2.8285,-2.8309,-2.827,-2.8281,-2.8434,-2.8532,-2.8669,-2.8832,-2.8966,-2.92,-2.9327,-2.9654,-2.9815,-2.9958,-3.0125,-3.0205,-3.0282,-3.0375,-3.0489,-3.0561,-3.0661,-3.0692,-3.0729,-3.0655,-3.0641,-3.0686,-3.0726,-3.0718,-3.0681,-3.0667,-3.0663,-3.0597,-3.0638,-3.0583,-3.0675,-3.0581,-3.0457,-3.0459,-3.0529,-3.054,-3.0519,-3.0413,-3.0424,-3.0453,-3.0391,-3.0421,-3.0427,-3.05,-3.0526,-3.0567,-3.0498,-3.0587,-3.0679,-3.0623,-3.0711,-3.0704,-3.0661,-3.0779,-3.0741,-3.075,-3.078,-3.0874,-3.0894,-3.0793,-3.0741,-3.0837,-3.0855,-3.0899,-3.0861,-3.0857,-3.0796,-3.0795,-3.0822,-3.0865,-3.09,-3.0903,-3.0853,-3.08,-3.0793,-3.0718,-3.0552,-3.0552,-3.0453,-3.0462,-3.0532,-3.0425,-3.0274,-3.0247,-3.0329,-3.032,-3.0267,-3.0153,-3.0245,-3.0252,-3.033,-3.0496,-3.0766,-3.0862,-3.0905,-3.0908,-3.0944,-3.0908,-3.0906,-3.0885,-3.0841,-3.0813,-3.0766,-3.0892,-3.1057,-3.1114,-3.0601,-2.9516,-2.7568,-2.47,-2.2122,-2.1126,-2.4353,-2.8313,-2.9949,-3.1159,-3.2291,-3.246,-3.195,-3.0588,-3.0591,-3.0825,-3.0832,-3.0925,-3.0888,-3.0882,-3.0825,-3.0864,-3.0787,-3.082,-3.0695,-3.0695,-3.0686,-3.0771,-3.0749,-3.0683,-3.0645,-3.06,-3.0494,-3.0458,-3.0294,-3.0234,-3.0233,-3.0317,-3.0263,-3.0209,-3.0141,-3.0044,-2.9932,-2.9896,-2.9796,-2.9651,-2.9503,-2.9466,-2.9474,-2.9396,-2.9276,-2.9155,-2.9027,-2.8884,-2.8844,-2.8776,-2.8648,-2.87,-2.8619,-2.8555,-2.8554,-2.8633,-2.852,-2.847,-2.8486,-2.8403,-2.8489,-2.8514,-2.8596,-2.878,-2.8929,-2.9109,-2.9382,-2.9604,-2.9833,-2.9914,-3.0088,-3.0338,-3.0387,-3.0494,-3.0594,-3.0561,-3.0775,-3.0976,-3.0978,-3.0961,-3.0963,-3.0991,-3.1052,-3.0985,-3.108,-3.1071,-3.0905,-3.0937,-3.0955,-3.0835,-3.0795,-3.0887,-3.0876,-3.0907,-3.0814,-3.0754,-3.0792,-3.0842,-3.0863,-3.0798,-3.077,-3.0761,-3.0823,-3.0794,-3.0767,-3.0803,-3.0874,-3.0866,-3.0853,-3.0971,-3.1031,-3.0919,-3.0879,-3.0961,-3.101,-3.1002,-3.0974,-3.1052,-3.1115,-3.1155,-3.1067,-3.1099,-3.1104,-3.1098,-3.1145,-3.1186,-3.1113,-3.1097,-3.1048,-3.1003,-3.1059,-3.0912,-3.0874,-3.0821,-3.0725,-3.0784,-3.0695,-3.062,-3.0653,-3.0559,-3.0571,-3.0671,-3.062,-3.0504,-3.0476,-3.0459,-3.0582,-3.078,-3.1036,-3.1264,-3.1251,-3.1191,-3.1116,-3.1176,-3.1272,-3.121,-3.1105,-3.1083,-3.102,-3.1122,-3.122,-3.1232,-3.0408,-2.9109,-2.7068,-2.4657,-2.2653,-2.2128,-2.5312,-2.897,-2.9809,-3.0715,-3.1939,-3.2373,-3.2599,-3.2072,-3.0875,-3.0898,-3.0955,-3.0824,-3.1015,-3.1064,-3.1122,-3.1182,-3.1089,-3.0941,-3.0918,-3.0927,-3.0809,-3.0791,-3.0843,-3.0799,-3.0789,-3.0625,-3.0662,-3.0548,-3.0485,-3.0421,-3.0407,-3.0275,-3.0357,-3.0213,-3.0172,-3.0051,-3.0028,-3.0079,-2.9978,-2.9794,-2.9697,-2.9595,-2.9593,-2.9543,-2.9412,-2.9363,-2.9228,-2.9108,-2.912,-2.9048,-2.8986,-2.8908,-2.892,-2.8913,-2.8831,-2.875,-2.8706,-2.8604,-2.8698,-2.877,-2.8712,-2.8722,-2.8973,-2.897,-2.9041,-2.9159,-2.9404,-2.9594,-2.9693,-3.0059,-3.0187,-3.0252,-3.0308,-3.039,-3.064,-3.0723,-3.0785,-3.0905,-3.0858,-3.0745,-3.084,-3.0898,-3.0853,-3.0899,-3.0819,-3.0802,-3.0759,-3.0938,-3.0771,-3.0834,-3.0992,-3.0857,-3.0732,-3.0645,-3.0653,-3.0759,-3.0784,-3.07,-3.0551,-3.0573,-3.0589,-3.0746,-3.0836,-3.0787,-3.0725,-3.0762,-3.0758,-3.0734,-3.0834,-3.0839,-3.0798,-3.0853,-3.0982,-3.1039,-3.1027,-3.0964,-3.0859,-3.0718,-3.0618,-3.0574,-3.0586,-3.0522,-3.0393,-3.041,-3.0388,-3.0426,-3.0705,-3.0681,-3.0468,-3.0451,-3.0493,-3.0561,-3.0576,-3.0749,-3.076,-3.0983,-3.0954,-3.0872,-3.0813,-3.0744,-3.0905,-3.0747,-3.0758,-3.1115,-3.1268,-3.1131,-3.0734,-2.978,-2.8058,-2.5905,-2.3765,-2.2058,-2.303,-2.6747,-2.8948,-2.9482,-3.0564,-3.2157,-3.2604,-3.1913,-3.0709,-3.0221,-3.0645,-3.0794,-3.0765,-3.0703,-3.0794,-3.0623,-3.0956,-3.0704,-3.0587,-3.0709,-3.0586,-3.033,-3.0252,-3.0227,-3.0568,-3.053,-3.0401,-3.0395,-3.0348,-3.034,-3.0221,-3.0244,-3.0187,-3.0248,-3.0106,-3.001,-2.9971,-2.9912,-2.9914,-2.9713,-2.9524,-2.9536,-2.9421,-2.9329,-2.9335,-2.9207,-2.9026,-2.8943,-2.9012,-2.9037,-2.8879,-2.8785,-2.846,-2.8555,-2.884,-2.8865,-2.8942,-2.891,-2.8919,-2.8777,-2.8457,-2.8651,-2.8946,-2.9019,-2.9339,-2.9706,-2.9813,-2.9897,-2.9911,-3.0212,-3.0437,-3.0299,-3.0391,-3.0509,-3.0531,-3.0667,-3.0717,-3.0825,-3.0671,-3.0831,-3.107,-3.1023,-3.1012,-3.1021,-3.1078,-3.0859,-3.0751,-3.0729,-3.0835,-3.0809,-3.0792,-3.0795,-3.079,-3.0697,-3.051,-3.0489,-3.0595,-3.0678,-3.0489,-3.0569,-3.0647,-3.0659,-3.0585,-3.0436,-3.0522,-3.0576,-3.0694,-3.0722,-3.0763,-3.0763,-3.0923,-3.0815,-3.0592,-3.0474,-3.0399,-3.0322,-3.0391,-3.0317,-3.0137,-3.0259,-3.0544,-3.0603,-3.0436,-3.0427,-3.0465,-3.0491,-3.0435,-3.0648,-3.0836,-3.1058,-3.0992,-3.0945,-3.1105,-3.1232,-3.0906,-3.0965,-3.0971,-3.0837,-3.1041,-3.1188,-3.1151,-3.0683,-2.9655,-2.7686,-2.4933,-2.2884,-2.1858,-2.4872,-2.8284,-2.9621,-3.0463,-3.1754,-3.2788,-3.2561,-3.1964,-3.0711,-3.0873,-3.109,-3.1082,-3.0997,-3.1,-3.0986,-3.1067,-3.1088,-3.0897,-3.0905,-3.0988,-3.0916,-3.0856,-3.0505,-3.0541,-3.0574,-3.0601,-3.0601,-3.0441,-3.05
