-2.3034,-2.3076,-2.252,-2.2511,-2.3175,-2.322,-2.2936,-2.3121,-2.2737,-2.2725,-2.2649,-2.2616,-2.2991,-2.3084,-2.2901,-2.2792,-2.2592,-2.2628,-2.2414,-2.2747,-2.2774,-2.3133,-2.2875,-2.2745,-2.2238,-2.2043,-2.2437,-2.2904,-2.2625,-2.257,-2.2859,-2.2673,-2.2622,-2.2821,-2.2621,-2.275,-2.2821,-2.3144,-2.2899,-2.2868,-2.2545,-2.2563,-2.2592,-2.2517,-2.244,-2.2241,-2.2228,-2.2354,-2.225,-2.2442,-2.2556,-2.2442,-2.2292,-2.2797,-2.2706,-2.2909,-2.3253,-2.2696,-2.2608,-2.315,-2.3194,-2.3274,-2.3245,-2.3065,-2.3135,-2.3055,-2.3109,-2.3228,-2.3582,-2.3261,-2.22,-2.0601,-1.8752,-1.6047,-1.3486,-1.3883,-1.8292,-2.107,-2.3123,-2.5033,-2.4952,-2.4374,-2.2871,-2.2509,-2.2568,-2.2798,-2.3057,-2.2891,-2.2484,-2.2982,-2.3038,-2.2685,-2.2927,-2.2613,-2.2967,-2.2931,-2.3204,-2.2585,-2.2737,-2.2718,-2.2247,-2.2706,-2.3096,-2.2945,-2.2663,-2.2152,-2.2069,-2.1959,-2.2862,-2.2589,-2.2036,-2.1942,-2.216,-2.209,-2.1661,-2.1831,-2.2089,-2.175,-2.1075,-2.0939,-2.1585,-2.1117,-2.1168,-2.0966,-2.0868,-2.0976,-2.0439,-2.0447,-2.0545,-2.0247,-2.0801,-2.0627,-2.0468,-2.0252,-2.009,-2.0317,-2.0916,-2.0901,-2.0962,-2.1234,-2.1213,-2.1461,-2.1501,-2.1715,-2.2469,-2.2423,-2.2091,-2.236,-2.2369,-2.2568,-2.338,-2.2887,-2.2947,-2.3184,-2.3225,-2.3703,-2.3404,-2.3466,-2.3354,-2.3328,-2.3288,-2.3088,-2.3129,-2.3585,-2.3306,-2.3005,-2.2702,-2.3592,-2.3635,-2.3489,-2.3131,-2.2848,-2.2917,-2.356,-2.3354,-2.3209,-2.3364,-2.3327,-2.3243,-2.3209,-2.334,-2.3351,-2.3454,-2.3424,-2.3303,-2.3529,-2.3804,-2.3544,-2.3626,-2.3435,-2.2843,-2.2759,-2.3198,-2.3845,-2.4139,-2.3822,-2.3588,-2.3254,-2.3114,-2.2995,-2.3154,-2.3104,-2.2896,-2.3202,-2.3235,-2.2922,-2.2903,-2.3368,-2.2844,-2.289,-2.2935,-2.341,-2.3714,-2.3612,-2.3534,-2.3491,-2.2909,-2.364,-2.3758,-2.392,-2.3644,-2.3716,-2.3699,-2.3772,-2.3905,-2.2914,-2.2388,-2.1091,-1.832,-1.5846,-1.4399,-1.6117,-2.0554,-2.2638,-2.3344,-2.3735,-2.4738,-2.4714,-2.2974,-2.2862,-2.312,-2.3084,-2.3582,-2.354,-2.3558,-2.3462,-2.3422,-2.3098,-2.3172,-2.3105,-2.3059,-2.3264,-2.3131,-2.2757,-2.2757,-2.3036,-2.2775,-2.3099,-2.345,-2.295,-2.2698,-2.2681,-2.2995,-2.2736,-2.2561,-2.226,-2.2587,-2.2575,-2.2302,-2.1838,-2.1926,-2.2112,-2.2305,-2.1932,-2.172,-2.1539,-2.1202,-2.1899,-2.1632,-2.1381,-2.1244,-2.1086,-2.0934,-2.0527,-2.0613,-2.1439,-2.1365,-2.1099,-2.0912,-2.049,-2.0784,-2.096,-2.0688,-2.1159,-2.1181,-2.1179,-2.1638,-2.1873,-2.2304,-2.2284,-2.2332,-2.249,-2.2777,-2.2538,-2.2873,-2.3301,-2.3234,-2.334,-2.3322,-2.3411,-2.3519,-2.3293,-2.3645,-2.3617,-2.3684,-2.3616,-2.3468,-2.3383,-2.3432,-2.3396,-2.3246,-2.2844,-2.3126,-2.3065,-2.3324,-2.3706,-2.3343,-2.3185,-2.3242,-2.3224,-2.2823,-2.3026,-2.2845,-2.2589,-2.3992,-2.3881,-2.3625,-2.3338,-2.3227,-2.3777,-2.3591,-2.3535,-2.3432,-2.3539,-2.3551,-2.3435,-2.3319,-2.3412,-2.3093,-2.3487,-2.3175,-2.3228,-2.3353,-2.3366,-2.3099,-2.2974,-2.3277,-2.321,-2.2757,-2.3007,-2.3228,-2.3078,-2.3268,-2.3416,-2.3567,-2.3759,-2.3714,-2.3751,-2.3643,-2.3713,-2.3368,-2.3225,-2.3398,-2.3613,-2.3685,-2.3846,-2.3702,-2.3916,-2.3649,-2.2469,-2.018,-1.799,-1.5861,-1.4892,-1.5626,-1.9468,-2.237,-2.3192,-2.4243,-2.484,-2.4787,-2.3935,-2.3433,-2.346,-2.3273,-2.3378,-2.38,-2.3727,-2.3699,-2.3652,-2.3629,-2.3494,-2.3428,-2.3281,-2.3437,-2.3367,-2.3386,-2.3412,-2.3495,-2.3391,-2.3286,-2.3164,-2.3249,-2.3163,-2.3058,-2.2943,-2.2669,-2.2197,-2.3096,-2.2963,-2.2518,-2.2385,-2.2493,-2.2435,-2.2102,-2.2501,-2.2092,-2.2171,-2.2085,-2.1824,-2.1721,-2.124,-2.1349,-2.1353,-2.1823,-2.1838,-2.1563,-2.1492,-2.1355,-2.1248,-2.0742,-2.0455,-2.1235,-2.1577,-2.1407,-2.1236,-2.1238,-2.122,-2.1133,-2.1589,-2.2147,-2.2477,-2.2716,-2.2909,-2.2922,-2.2984,-2.2764,-2.3233,-2.3394,-2.3059,-2.376,-2.387,-2.347,-2.2969,-2.2652,-2.3245,-2.4021,-2.3774,-2.348,-2.3442,-2.3756,-2.2914,-2.3515,-2.4134,-2.4103,-2.3871,-2.3338,-2.2711,-2.2472,-2.3292,-2.3693,-2.3606,-2.3709,-2.3747,-2.3299,-2.3105,-2.3214,-2.3984,-2.3562,-2.3203,-2.3554,-2.3371,-2.2908,-2.3715,-2.3939,-2.3955,-2.3785,-2.3363,-2.331,-2.3372,-2.3264,-2.3384,-2.3361,-2.3537,-2.3413,-2.3383,-2.3181,-2.3273,-2.3389,-2.2527,-2.3074,-2.3847,-2.3389,-2.3938,-2.3706,-2.3605,-2.3343,-2.3597,-2.429,-2.404,-2.3715,-2.3949,-2.3897,-2.3853,-2.371,-2.3978,-2.3638,-2.3705,-2.3314,-2.1625,-1.9198,-1.6668,-1.4886,-1.5776,-2.0173,-2.2801,-2.364,-2.4383,-2.4893,-2.4869,-2.3806,-2.329,-2.3716,-2.3892,-2.4039,-2.3785,-2.3495,-2.3226,-2.3321,-2.3908,-2.3831,-2.3629,-2.3789,-2.3773,-2.3621,-2.3529,-2.3527,-2.3292,-2.3364,-2.3516,-2.2988,-2.311,-2.3365,-2.3434,-2.3353,-2.2684,-2.2686,-2.282,-2.3188,-2.2886,-2.3035,-2.2757,-2.274,-2.2605,-2.2642,-2.2237,-2.2297,-2.224,-2.1924,-2.1609,-2.1747,-2.1844,-2.1763,-2.1727,-2.1767,-2.1598,-2.1573,-2.1485,-2.1332,-2.1366,-2.1679,-2.1542,-2.1493,-2.1307,-2.0969,-2.2007,-2.1846,-2.1984,-2.1998,-2.2096,-2.2588,-2.2668,-2.2671,-2.2797,-2.3218,-2.3266,-2.3436,-2.3444,-2.3311,-2.3725,-2.387,-2.3813,-2.3857,-2.3796,-2.378,-2.3733,-2.3394,-2.3985,-2.418,-2.3829,-2.3645,-2.329,-2.3236,-2.3509,-2.4139,-2.385,-2.3646,-2.3511,-2.4055,-2.3598,-2.3012,-2.3621,-2.4129,-2.3475,-2.2971,-2.339,-2.34,-2.3993,-2.3979,-2.4109,-2.3995,-2.3873,-2.3789,-2.3716,-2.3059,-2.2955,-2.4376,-2.4081,-2.3572,-2.3887,-2.3825,-2.3078,-2.352,-2.3663,-2.3985,-2.3159,-2.3063,-2.3573,-2.3548,-2.344,-2.3771,-2.4369,-2.4187,-2.4111,-2.3568,-2.3811,-2.4252,-2.3795,-2.3864,-2.4207,-2.3616,-2.327,-2.4611,-2.445,-2.3529,-2.3137,-2.3429,-2.1744,-1.8872,-1.6227,-1.5079,-1.7039,-2.0558,-2.2377,-2.2542,-2.364,-2.491,-2.5772,-2.484,-2.4389,-2.3891,-2.4386,-2.3897,-2.3889,-2.3663,-2.3212,-2.3603,-2.4319,-2.3813,-2.4036,-2.3643,-2.3784,-2.3817,-2.3894,-2.3832,-2.3571,-2.3856,-2.4037,-2.3487,-2.3201,-2.3056,-2.3654,-2.3655,-2.3315,-2.3525,-2.3335,-2.3323,-2.3282,-2.3312,-2.3117,-2.2565,-2.2846,-2.3187,-2.2906,-2.2233,-2.2725,-2.2833,-2.2182,-2.1883,-2.252,-2.2411,-2.2353,-2.2536,-2.2194,-2.2085,-2.1948,-2.2049,-2.2001,-2.218,-2.2108,-2.1422,-2.1803,-2.2378,-2.2295,-2.2182,-2.2244,-2.2618,-2.2387,-2.2478,-2.2781,-2.3389,-2.3558,-2.3658,-2.3631,-2.391,-2.4189,-2.4225,-2.3996,-2.3909,-2.3974,-2.4543,-2.4481,-2.4458,-2.4234,-2.4201,-2.4117,-2.3996,-2.4222,-2.4409,-2.3946,-2.4415,-2.4339,-2.389,-2.4104,-2.4123,-2.3878,-2.3929,-2.3953,-2.4159,-2.4071,-2.4208,-2.4022,-2.3874,-2.4001,-2.419,-2.4204,-2.4341,-2.4367,-2.411,-2.4202,-2.3792,-2.3731,-2.3879,-2.4185,-2.4096,-2.4442,-2.4238,-2.3697,-2.3933,-2.397,-2.4044,-2.4061,-2.4097,-2.398,-2.3578,-2.3589,-2.4047,-2.4771,-2.4745,-2.4589,-2.4612,-2.4625,-2.4667,-2.3963,-2.419,-2.4096,-2.4578,-2.48,-2.4657,-2.4485,-2.4556,-2.4036,-2.2625,-2.1727,-1.9785,-1.785,-1.6441,-1.7332,-2.0848,-2.3225,-2.3834,-2.4475,-2.5749,-2.5928,-2.571,-2.4393,-2.4035,-2.4275,-2.4424,-2.4544,-2.4474,-2.4278,-2.3866,-2.4139,-2.4516,-2.4606,-2.4527,-2.4706,-2.4401,-2.4238,-2.428,-2.4378,-2.4164,-2.3997,-2.4036,-2.4089,-2.4191,-2.4236,-2.4107,-2.4033,-2.3896,-2.3763,-2.3784,-2.3778,-2.3284,-2.322,-2.3355,-2.3096,-2.3219,-2.342,-2.3602,-2.3298,-2.3115,-2.307,-2.2822,-2.2787,-2.2572,-2.2787,-2.2804,-2.28,-2.2777,-2.2628,-2.2516,-2.2519,-2.2562,-2.2561,-2.2659,-2.2676,-2.2586,-2.2832,-2.2896,-2.2902,-2.3025,-2.309,-2.3113,-2.3379,-2.391,-2.4102,-2.4153,-2.4422,-2.4556,-2.471,-2.4752,-2.4855,-2.4863,-2.4828,-2.4831,-2.482,-2.4804,-2.4711,-2.446,-2.4501,-2.4606,-2.4715,-2.4704,-2.4708,-2.4722,-2.4534,-2.4562,-2.4603,-2.4485,-2.4623,-2.4621,-2.4614,-2.4388,-2.4353,-2.4473,-2.4518,-2.4527,-2.4644,-2.4592,-2.4471,-2.4592,-2.4582,-2.4508,-2.4365,-2.4142,-2.4136,-2.4386,-2.4475,-2.3969,-2.4301,-2.4564,-2.4469,-2.4488,-2.4343,-2.431,-2.4318,-2.4344,-2.4383,-2.4659,-2.4767,-2.4788,-2.4655,-2.4419,-2.5024,-2.5055,-2.4839,-2.4927,-2.4817,-2.4932,-2.49,-2.4834,-2.4934,-2.4785,-2.4039,-2.2856,-2.0849,-1.8568,-1.6469,-1.6587,-2.0302,-2.3315,-2.3947,-2.4687,-2.6023,-2.6382,-2.5751,-2.4576,-2.4397,-2.4712,-2.4794,-2.4801,-2.4698,-2.4649,-2.4599,-2.4654,-2.4552,-2.4629,-2.4556,-2.4688,-2.4568,-2.4619,-2.4522,-2.445,-2.408,-2.4246,-2.4323,-2.434,-2.3915,-2.3867,-2.4024,-2.394,-2.4129,-2.426,-2.3923,-2.3914,-2.3623,-2.3752,-2.3723,-2.3294,-2.3357,-2.3233,-2.3131,-2.3177,-2.2926,-2.2801,-2.2824,-2.2796,-2.2687,-2.2823,-2.2651,-2.2691,-2.2696,-2.2382,-2.2514,-2.2476,-2.2579,-2.2397,-2.2222,-2.2323,-2.2651,-2.2657,-2.2746,-2.2921,-2.3265,-2.3442,-2.3519,-2.355,-2.3698,-2.3869,-2.4209,-2.4351,-2.4359,-2.4628,-2.458,-2.4616,-2.4575,-2.4507,-2.4526,-2.4678,-2.4543,-2.4432,-2.465,-2.4594,-2.4629,-2.476,-2.4791,-2.4575,-2.453,-2.4471,-2.4472,-2.4434,-2.44,-2.4461,-2.4369,-2.425,-2.4461,-2.4367,-2.4266,-2.4381,-2.4435,-2.4291,-2.4297,-2.4375,-2.428,-2.428,-2.4052,-2.3821,-2.3987,-2.4079,-2.4023,-2.3728,-2.3753,-2.3767,-2.4019,-2.3867,-2.3793,-2.3902,-2.3914,-2.4026,-2.4306,-2.4432,-2.4473,-2.4576,-2.4597,-2.455,-2.4478,-2.4621,-2.461,-2.4597,-2.4536,-2.4535,-2.4354,-2.441,-2.447,-2.4421,-2.4014,-2.3281,-2.1585,-1.8959,-1.6823,-1.5911,-1.796,-2.1688,-2.3512,-2.4443,-2.5479,-2.5841,-2.5799,-2.4504,-2.4206,-2.4433,-2.4451,-2.4515,-2.43,-2.4399,-2.4244,-2.4287,-2.424,-2.4389,-2.4177,-2.4071,-2.4022,-2.3927,-2.4096,-2.4171,-2.4016,-2.3944,-2.3872,-2.4039,-2.3946,-2.3768,-2.3741,-2.3759,-2.3555,-2.3482,-2.3664,-2.3538,-2.3354,-2.3298,-2.3266,-2.323,-2.3023,-2.2795,-2.2771,-2.2791,-2.2641,-2.2543,-2.2264,-2.2226,-2.2154,-2.2075,-2.2321,-2.2321,-2.1993,-2.184,-2.2157,-2.2137,-2.2125,-2.1999,-2.1874,-2.1952,-2.193,-2.1997,-2.2368,-2.2597,-2.2602,-2.2781,-2.2881,-2.3234,-2.3374,-2.3574,-2.3628,-2.3661,-2.3889,-2.4009,-2.3953,-2.4097,-2.4196,-2.4248,-2.4294,-2.4246,-2.4246,-2.414,-2.4267,-2.436,-2.4195,-2.4073,-2.4069,-2.434,-2.4242,-2.414,-2.4083,-2.4033,-2.4056,-2.4057,-2.3972,-2.3754,-2.3771,-2.4107,-2.4136,-2.4086,-2.3898,-2.3831,-2.4179,-2.4117,-2.4141,-2.4048,-2.3937,-2.4028,-2.4014,-2.3923,-2.3871,-2.381,-2.3591,-2.361,-2.369,-2.3635,-2.3518,-2.3485,-2.3678,-2.364,-2.3589,-2.3574,-2.3665,-2.3636,-2.3688,-2.3897,-2.4058,-2.3976,-2.3949,-2.404,-2.4171,-2.4217,-2.4306,-2.4226,-2.4213,-2.4104,-2.4123,-2.4105,-2.4204,-2.4188,-2.3756,-2.2802,-2.1084,-1.8606,-1.6221,-1.4846,-1.7423,-2.1534,-2.3145,-2.4231,-2.5406,-2.5528,-2.5213,-2.4132,-2.3801,-2.3831,-2.3905,-2.398,-2.3978,-2.4111,-2.406,-2.398,-2.3771,-2.3832,-2.3824,-2.3874,-2.3856,-2.3712,-2.3735,-2.3826,-2.3717,-2.3686,-2.3558,-2.352,-2.3513,-2.3365,-2.3092,-2.3128,-2.3159,-2.339,-2.3238,-2.3145,-2.3072,-2.2861,-2.2766,-2.274,-2.2614,-2.2394,-2.2345,-2.2311,-2.2131,-2.2061,-2.1974,-2.1905,-2.1867,-2.163,-2.1501,-2.1639,-2.1745,-2.1386,-2.1348,-2.1547,-2.1529,-2.1444,-2.1302,-2.1403,-2.1558,-2.16,-2.1766,-2.189,-2.2079,-2.2182,-2.2404,-2.2558,-2.2661,-2.2817,-2.3115,-2.3314,-2.3367,-2.3567,-2.3679,-2.3723,-2.3624,-2.3739,-2.3605,-2.3769,-2.3992,-2.3855,-2.3894,-2.3917,-2.3853,-2.3848,-2.3789,-2.374,-2.372,-2.3641,-2.3669,-2.3721,-2.3543,-2.352,-2.3619,-2.355,-2.371,-2.3674,-2.3545,-2.3485,-2.3659,-2.3676,-2.3631,-2.3693,-2.3792,-2.3777,-2.3669,-2.3811,-2.3792,-2.3696,-2.3728,-2.3938,-2.3926,-2.3827,-2.3728,-2.4114,-2.4067,-2.3955,-2.3915,-2.3879,-2.3795,-2.3734,-2.3558,-2.3456,-2.351,-2.3574,-2.346,-2.3251,-2.3128,-2.3533,-2.3676,-2.3547,-2.3406,-2.3261,-2.3346,-2.3445,-2.3733,-2.4034,-2.3881,-2.38,-2.3835,-2.3911,-2.3938,-2.3838,-2.3848,-2.3795,-2.3881,-2.3872,-2.3958,-2.4061,-2.3842,-2.3433,-2.2205,-2.0386,-1.9066,-1.4989,-1.425,-1.7828,-2.1591,-2.3434,-2.4677,-2.5314,-2.4918,-2.3685,-2.313,-2.3507,-2.3349,-2.3426,-2.349,-2.3561,-2.3309,-2.3705,-2.3648,-2.3597,-2.3419,-2.3338,-2.3406,-2.3083,-2.3126,-2.3577,-2.3265,-2.3186,-2.3075,-2.2936,-2.3085,-2.3294,-2.3253,-2.3031,-2.2995,-2.299,-2.278,-2.2533,-2.248,-2.2503,-2.2611,-2.2702,-2.2404,-2.2241,-2.1827,-2.1657,-2.1694,-2.173,-2.1607,-2.1635,-2.1681,-2.1641,-2.1404,-2.1382,-2.1228,-2.1288,-2.1122,-2.1194,-2.1144,-2.1189,-2.0953,-2.1042,-2.0873,-2.1054,-2.1335,-2.1158,-2.1275,-2.1478,-2.1835,-2.2266,-2.2235,-2.2165,-2.2645,-2.2839,-2.2995,-2.3029,-2.326,-2.3213,-2.3471,-2.3575,-2.3567,-2.356,-2.3588,-2.3405,-2.3441,-2.3123,-2.3336,-2.366,-2.35,-2.355,-2.3562,-2.358,-2.3762,-2.3626,-2.342,-2.3301,-2.3471,-2.3616,-2.3376,-2.3579,-2.3413,-2.3295,-2.3442,-2.3323,-2.35,-2.3432,-2.3394,-2.3601,-2.3579,-2.3339,-2.3345,-2.3455,-2.359,-2.3439,-2.3667,-2.3604,-2.3839,-2.3904,-2.3798,-2.3684,-2.3609,-2.3602,-2.3657,-2.3654,-2.3789,-2.3848,-2.379,-2.3929,-2.3855,-2.38,-2.3768,-2.3638,-2.3363,-2.3182,-2.3403,-2.3663,-2.3676,-2.3463,-2.3405,-2.3282,-2.3347,-2.3458,-2.3285,-2.3019,-2.3025,-2.3218,-2.3355,-2.3395,-2.3714,-2.3709,-2.3629,-2.3651,-2.3726,-2.3691,-2.3594,-2.3816,-2.3636,-2.3636,-2.3758,-2.3738,-2.376,-2.3865,-2.3738,-2.2939,-2.1809,-1.9601,-1.6882,-1.4982,-1.5527,-1.9266,-2.2247,-2.2598,-2.3021,-2.4701,-2.5469,-2.4927,-2.3624,-2.3303,-2.3556,-2.3591,-2.3707,-2.3616,-2.3671,-2.387,-2.3789,-2.365,-2.3435,-2.3478,-2.3375,-2.3234,-2.3492,-2.3508,-2.3284,-2.3334,-2.3546,-2.3332,-2.3359,-2.3397,-2.3344,-2.306,-2.2945,-2.2993,-2.2954,-2.3113,-2.2968,-2.277,-2.2634,-2.2604,-2.2392,-2.218,-2.2211,-2.23,-2.2369,-2.2139,-2.2114,-2.1952,-2.1898,-2.1748,-2.1746,-2.173,-2.1461,-2.1489,-2.1536,-2.155,-2.1783,-2.1567,-2.1256,-2.1535,-2.1489,-2.1458,-2.1508,-2.1588,-2.1631,-2.1791,-2.1886,-2.1969,-2.2102,-2.2419,-2.2852,-2.298,-2.2928,-2.3265,-2.3338,-2.3404,-2.3698,-2.3624,-2.3588,-2.3926,-2.3687,-2.3445,-2.3753,-2.3949,-2.3664,-2.3707,-2.3548,-2.3655,-2.3788,-2.3742,-2.3611,-2.3414,-2.3348,-2.3391,-2.3559,-2.3529,-2.3587,-2.3607,-2.3434,-2.3375,-2.3409,-2.3552,-2.3397,-2.3342,-2.3427,-2.341,-2.3411,-2.3621,-2.3718,-2.3394,-2.3257,-2.3629,-2.3642,-2.3743,-2.3659,-2.3546,-2.3583,-2.3652,-2.367,-2.3743,-2.3837,-2.3755,-2.3679,-2.3601,-2.353,-2.3401,-2.376,-2.3908,-2.3892,-2.3802,-2.3652,-2.3461,-2.3537,-2.3624,-2.3732,-2.3568,-2.379,-2.3663,-2.3285,-2.2992,-2.3147,-2.3575,-2.3231,-2.3261,-2.3614,-2.3295,-2.2924,-2.3059,-2.3096,-2.3174,-2.338,-2.3774,-2.367,-2.3728,-2.3872,-2.3266,-2.3327,-2.3837,-2.3748,-2.3693,-2.3577,-2.3528,-2.3307,-2.3153,-2.3648,-2.3436,-2.1931,-2.0176,-1.7642,-1.5575,-1.5055,-1.7714,-2.1638,-2.2457,-2.3131,-2.4647,-2.5354,-2.4625,-2.3583,-2.2909,-2.2988,-2.3377,-2.3679,-2.345,-2.3536,-2.3738,-2.3612,-2.3249,-2.3406,-2.3373,-2.3119,-2.287,-2.3077,-2.386,-2.3535,-2.3188,-2.3134,-2.317,-2.3253,-2.2941,-2.2456,-2.2494,-2.2833,-2.31,-2.3055,-2.3101,-2.263,-2.2498,-2.2969,-2.255,-2.2359,-2.232,-2.2239,-2.2077,-2.1938,-2.1659,-2.1981,-2.1502,-2.1286,-2.1587,-2.1666,-2.154,-2.1315,-2.1151,-2.0778,-2.144,-2.1691,-2.143,-2.1243,-2.1251,-2.1224,-2.0794,-2.1078,-2.1422,-2.1137,-2.116,-2.1235,-2.2395,-2.2663,-2.2273,-2.2431,-2.2403,-2.3021,-2.2963,-2.3256,-2.3343,-2.3158,-2.3029,-2.3017,-2.3553,-2.3482,-2.3184,-2.3628,-2.358,-2.334,-2.3696,-2.3358,-2.3246,-2.3246,-2.3084,-2.3229,-2.3402,-2.349,-2.3375,-2.3217,-2.2895,-2.319,-2.3328,-2.3181,-2.3178,-2.3063,-2.3055,-2.3238,-2.3235,-2.2993,-2.3337,-2.309,-2.3068,-2.2883,-2.332,-2.3668,-2.3425,-2.3311,-2.3272,-2.3451,-2.3581,-2.351,-2.3338,-2.3477,-2.3005,-2.3187,-2.3732,-2.3424,-2.3539,-2.3404,-2.3438,-2.3796,-2.3504,-2.3701,-2.3411,-2.3589,-2.3597,-2.3488,-2.3537,-2.3445,-2.3339,-2.3326,-2.3546,-2.3353,-2.3036,-2.2923,-2.3178,-2.3331,-2.3217,-2.3188,-2.3399,-2.3275,-2.3106,-2.3023,-2.2918,-2.2559,-2.2737,-2.3142,-2.308,-2.3175,-2.3442,-2.3533,-2.3536,-2.306,-2.3361,-2.3924,-2.3723,-2.3748,-2.3629,-2.3451,-2.3586,-2.3704,-2.3182,-2.2227,-2.0291,-1.8006,-1.5623,-1.3959,-1.4656,-1.7791,-2.1248,-2.2503,-2.3916,-2.4614,-2.4834,-2.3864,-2.3033,-2.326,-2.3505,-2.335,-2.3214,-2.3234,-2.3011,-2.3242,-2.3379,-2.3117,-2.3175,-2.3201,-2.3031,-2.2866,-2.3389,-2.3198,-2.3323,-2.3158,-2.3116,-2.3219,-2.3023,-2.2787,-2.294,-2.2848,-2.2845,-2.289,-2.2535,-2.2339,-2.2221,-2.2588,-2.2171,-2.2154,-2.2107,-2.2135,-2.1938,-2.183,-2.1732,-2.1426,-2.211,-2.1896,-2.155,-2.1455,-2.1239,-2.1299,-2.1165,-2.1119,-2.0807,-2.0832,-2.0988,-2.1128,-2.1074,-2.1157,-2.1112,-2.1082,-2.1098,-2.1256,-2.1203,-2.1496,-2.1221,-2.1632,-2.2219,-2.2298,-2.2477,-2.286,-2.3088,-2.2904,-2.3051,-2.3128,-2.314,-2.3379,-2.3514,-2.3471,-2.3637,-2.3611,-2.332,-2.3431,-2.3506,-2.3412,-2.3431,-2.3721,-2.3506,-2.3401,-2.3414,-2.3403,-2.329,-2.3359,-2.3397,-2.3558,-2.3512,-2.3092,-2.3123,-2.3174,-2.3159,-2.3202,-2.3283,-2.301,-2.3023,-2.3278,-2.3689,-2.364,-2.3449,-2.3555,-2.345,-2.3181,-2.3065,-2.3541,-2.3817,-2.391,-2.36,-2.3666,-2.3783,-2.3306,-2.3292,-2.3729,-2.376,-2.3475,-2.3387,-2.3738,-2.3922,-2.3924,-2.3658,-2.374,-2.3564,-2.3603,-2.3318,-2.3911,-2.4035,-2.3871,-2.375,-2.3673,-2.3407,-2.2908,-2.3089,-2.3526,-2.3372,-2.3349,-2.3652,-2.3462,-2.328,-2.3086,-2.3276,-2.3208,-2.3573,-2.3652,-2.3644,-2.3705,-2.3873,-2.4057,-2.4071,-2.4161,-2.4001,-2.3915,-2.3919,-2.3897,-2.4052,-2.4082,-2.4183,-2.3823,-2.2802,-2.1065,-1.8647,-1.6054,-1.488,-1.6738,-2.042,-2.2535,-2.3633,-2.4644,-2.5197,-2.4574,-2.3421,-2.3241,-2.3406,-2.4034,-2.3997,-2.3895,-2.4154,-2.4122,-2.3938,-2.3811,-2.3692,-2.3681,-2.3728,-2.3743,-2.3558,-2.3215,-2.3539,-2.3426,-2.3416,-2.3231,-2.3431,-2.3613,-2.3641,-2.3707,-2.3326,-2.3408,-2.3469,-2.3293,-2.3048,-2.3042,-2.3179,-2.2808,-2.28,-2.2702,-2.2595,-2.2469,-2.2391,-2.2112,-2.2026,-2.2146,-2.2264,-2.1975,-2.1842,-2.1826,-2.1817,-2.1851,-2.2105,-2.1967,-2.1726,-2.1822,-2.1695,-2.1376,-2.1938,-2.1847,-2.1711,-2.166,-2.193,-2.2073,-2.2058,-2.247,-2.2705,-2.2808,-2.2806,-2.3074,-2.3452,-2.353,-2.3802,-2.3788,-2.3889,-2.3936,-2.3968,-2.4057,-2.4062,-2.4202,-2.4046,-2.4217,-2.4138,-2.3938,-2.4044,-2.4155,-2.4422,-2.4401,-2.4188,-2.3933,-2.3897,-2.4151,-2.4042,-2.4086,-2.4032,-2.3969,-2.3754,-2.3745,-2.4106,-2.4196,-2.4063,-2.417,-2.3924,-2.3913,-2.3962,-2.3916,-2.3914,-2.4251,-2.4244,-2.4083,-2.4216,-2.4271,-2.3861,-2.4341,-2.4502,-2.4432,-2.4163,-2.4337,-2.4382,-2.4446,-2.4418,-2.4253,-2.4443,-2.4485,-2.4283,-2.4181,-2.4188,-2.4019,-2.3953,-2.3672,-2.4015,-2.3975,-2.4138,-2.4047,-2.3946,-2.3954,-2.3617,-2.3777,-2.4007,-2.4123,-2.4498,-2.4601,-2.4495,-2.439,-2.4357,-2.4326,-2.448,-2.4439,-2.4358,-2.447,-2.4616,-2.4754,-2.4652,-2.4633,-2.4075,-2.3117,-2.163,-1.938,-1.6975,-1.5485,-1.7509,-2.1453,-2.3049,-2.3689,-2.4879,-2.6184,-2.6033,-2.5051,-2.4252,-2.3735,-2.4597,-2.4763,-2.4592,-2.4506,-2.424,-2.4203,-2.4435,-2.4335,-2.4082,-2.4214,-2.4244,-2.4255,-2.4397,-2.4406,-2.409,-2.4515,-2.434,-2.4133,-2.4023,-2.3917,-2.369,-2.3912,-2.3901,-2.3909,-2.3843,-2.3757,-2.339,-2.3403,-2.3552,-2.3405,-2.3313,-2.3368,-2.317,-2.292,-2.2681,-2.2795,-2.269,-2.2558,-2.2884,-2.279,-2.268,-2.2128,-2.191,-2.2492,-2.2584,-2.2439,-2.2533,-2.2278,-2.2325,-2.2172,-2.212,-2.2176,-2.2375,-2.2577,-2.286,-2.2855,-2.3191,-2.3308,-2.3151,-2.3609,-2.4057,-2.4055,-2.4165,-2.4259,-2.4104,-2.4324,-2.4509,-2.4497,-2.4766,-2.4783,-2.4575,-2.4464,-2.4947,-2.4842,-2.4702,-2.468,-2.4726,-2.4899,-2.4822,-2.4642,-2.454,-2.4676,-2.4494,-2.4436,-2.4579,-2.4729,-2.4603,-2.4569,-2.4376,-2.4594,-2.4868,-2.4669,-2.4742,-2.4532,-2.4301,-2.4376,-2.4516,-2.4691,-2.4952,-2.4891,-2.4896,-2.4803,-2.4883,-2.4677,-2.4761,-2.4886,-2.4987,-2.4878,-2.4661,-2.4847,-2.4449,-2.4681,-2.4743,-2.4503,-2.4431,-2.4611,-2.4666,-2.4576,-2.4474,-2.4404,-2.4238,-2.44,-2.4809,-2.4901,-2.4835,-2.4991,-2.5045,-2.5066,-2.4761,-2.467,-2.5054,-2.5074,-2.5247,-2.5204,-2.5076,-2.5063,-2.4917,-2.4508,-2.3302,-2.2356,-2.0293,-1.8242,-1.6608,-1.7416,-2.1364,-2.3581,-2.4412,-2.5312,-2.6481,-2.6348,-2.576,-2.4559,-2.4625,-2.5027,-2.5025,-2.5129,-2.5008,-2.4958,-2.4863,-2.4762,-2.4976,-2.4999,-2.5127,-2.5048,-2.4952,-2.4756,-2.4755,-2.4681,-2.494,-2.4791,-2.4791,-2.4771,-2.4667,-2.4643,-2.4518,-2.4511,-2.4292,-2.4361,-2.4341,-2.433,-2.4174,-2.4037,-2.3734,-2.3993,-2.4064,-2.3834,-2.3645,-2.3549,-2.3329,-2.2872,-2.2598,-2.2938,-2.3522,-2.3148,-2.3051,-2.2876,-2.3078,-2.2976,-2.2723,-2.2929,-2.2865,-2.2825,-2.2793,-2.2934,-2.2957,-2.2891,-2.2634,-2.2961,-2.3582,-2.395,-2.4145,-2.4317,-2.4237,-2.4279,-2.4649,-2.4713,-2.4829,-2.5132,-2.4994,-2.5141,-2.496,-2.5268,-2.5109,-2.5302,-2.5397,-2.5234,-2.4837,-2.5284,-2.5305,-2.5323,-2.54,-2.5348,-2.5247,-2.5154,-2.4989,-2.5086,-2.5293,-2.4916,-2.4876,-2.4857,-2.4943,-2.5017,-2.4809,-2.4803,-2.4881,-2.5314,-2.5052,-2.4747,-2.4613,-2.4909,-2.5074,-2.5039,-2.5089,-2.5224,-2.5101,-2.5164,-2.5449,-2.5184,-2.5018,-2.4848,-2.5033,-2.5004,-2.4795,-2.462,-2.484,-2.4919,-2.4745,-2.4196,-2.4242,-2.4661,-2.4401,-2.4473,-2.4696,-2.4617,-2.4958,-2.5073,-2.5074,-2.5044,-2.5066,-2.5075,-2.4916,-2.5191,-2.5566,-2.5357,-2.5228,-2.5297,-2.5206,-2.5123,-2.5019,-2.5381,-2.5208,-2.3811,-2.2264,-1.9478,-1.7176,-1.5964,-1.8178,-2.2306,-2.4129,-2.462,-2.549,-2.6648,-2.6567,-2.5904,-2.4796,-2.4675,-2.5032,-2.4834,-2.4928,-2.512,-2.4774,-2.4461,-2.4783,-2.5175,-2.5312,-2.5205,-2.4848,-2.4768,-2.4957,-2.5062,-2.495,-2.4922,-2.4865,-2.4736,-2.471,-2.4409,-2.4245,-2.4251,-2.4192,-2.4107,-2.4216,-2.4121,-2.4157,-2.3929,-2.4239,-2.4028,-2.3736,-2.3656,-2.3559,-2.3562,-2.3383,-2.3111,-2.3037,-2.345,-2.325,-2.2785,-2.2944,-2.2675,-2.2772,-2.2889,-2.2742,-2.2623,-2.282,-2.2426,-2.2352,-2.2342,-2.21,-2.279,-2.3267,-2.3258,-2.3232,-2.3329,-2.3729,-2.3704,-2.3994,-2.4338,-2.428,-2.4082,-2.488,-2.4958,-2.5096,-2.4911,-2.5009,-2.5221,-2.4957,-2.5032,-2.5206,-2.5103,-2.5083,-2.5236,-2.5332,-2.5103,-2.5041,-2.5391,-2.5104,-2.516,-2.4983,-2.4955,-2.5046,-2.5187,-2.4966,-2.5175,-2.5116,-2.5051,-2.4739,-2.4725,-2.4986,-2.5025,-2.4743,-2.4812,-2.4988,-2.4968,-2.4832,-2.4535,-2.4943,-2.5003,-2.5024,-2.5071,-2.5101,-2.5232,-2.5088,-2.5153,-2.5086,-2.5128,-2.4768,-2.4655,-2.5082,-2.5144,-2.4861,-2.4804,-2.4336,-2.4296,-2.4395,-2.4629,-2.462,-2.4493,-2.474,-2.4847,-2.4613,-2.4522,-2.4391,-2.421,-2.5069,-2.5399,-2.5037,-2.4907,-2.4983,-2.5387,-2.5061,-2.4966,-2.5127,-2.5347,-2.5416,-2.5288,-2.5368,-2.5464,-2.5013,-2.4165,-2.2565,-2.0409,-1.7784,-1.5824,-1.6604,-2.0669,-2.3634,-2.4886,-2.5773,-2.6603,-2.6179,-2.5711,-2.4587,-2.476,-2.4898,-2.4724,-2.5209,-2.5225,-2.5122,-2.5047,-2.4952,-2.4781,-2.4797,-2.4964,-2.4932,-2.4844,-2.4762,-2.4719,-2.4623,-2.4458,-2.461,-2.4581,-2.4492,-2.435,-2.474,-2.4459,-2.4448,-2.4277,-2.4135,-2.4083,-2.3945,-2.4019,-2.4069,-2.381,-2.3709,-2.3483,-2.3453,-2.3071,-2.3087,-2.322,-2.3256,-2.3253,-2.3013,-2.2773,-2.2669,-2.2735,-2.2923,-2.269,-2.2379,-2.2498,-2.2628,-2.2456,-2.2281,-2.2036,-2.2413,-2.2716,-2.2701,-2.2775,-2.3006,-2.318,-2.3173,-2.3276,-2.3811,-2.3965,-2.4002,-2.4314,-2.4401,-2.4306,-2.4766,-2.4877,-2.47,-2.5003,-2.5135,-2.4915,-2.5036,-2.5068,-2.5131,-2.5149,-2.5081,-2.4801,-2.4766,-2.4955,-2.5041,-2.4777,-2.4698,-2.4697,-2.4989,-2.5143,-2.5083,-2.4969,-2.4883,-2.4879,-2.4764,-2.4687,-2.4681,-2.4915,-2.4879,-2.4728,-2.4808,-2.4989,-2.4973,-2.5006,-2.4823,-2.4898,-2.5123,-2.5106,-2.5088,-2.4924,-2.4848,-2.4675,-2.4789,-2.4907,-2.5027,-2.5051,-2.5184,-2.4747,-2.4448,-2.5263,-2.5398,-2.5045,-2.5131,-2.5314,-2.509,-2.4797,-2.4408,-2.4093,-2.4818,-2.4831,-2.4598,-2.4568,-2.4383,-2.4593,-2.4328,-2.3973,-2.458,-2.4781,-2.4492,-2.4635,-2.4632,-2.4874,-2.501,-2.4975,-2.4887,-2.5024,-2.4857,-2.4711,-2.5008,-2.5114,-2.4749,-2.4727,-2.4645,-2.4788,-2.5202,-2.4697,-2.3577,-2.1968,-1.8996,-1.6311,-1.5271,-1.8042,-2.2076,-2.3062,-2.4233,-2.5801,-2.6014,-2.5922,-2.4642,-2.4397,-2.4592,-2.4674,-2.4534,-2.4812,-2.4734,-2.4568,-2.4367,-2.4436,-2.4768,-2.4329,-2.4428,-2.4512,-2.4711,-2.457,-2.4607,-2.4488,-2.4452,-2.4199,-2.4306,-2.4114,-2.3904,-2.4092,-2.4062,-2.4031,-2.3836,-2.3817,-2.373,-2.3763,-2.3653,-2.3568,-2.3483,-2.3288,-2.2865,-2.2814,-2.2959,-2.2945,-2.2897,-2.2785,-2.2752,-2.2732,-2.267,-2.2691,-2.2414,-2.2267,-2.2223,-2.2116,-2.2208,-2.2223,-2.22,-2.202,-2.2075,-2.2121,-2.2178,-2.224,-2.2347,-2.2569,-2.262,-2.276,-2.3056,-2.3341,-2.3603,-2.3865,-2.4208,-2.4149,-2.4067,-2.4387,-2.4363,-2.4422,-2.4155,-2.4083,-2.4573,-2.5078,-2.4982,-2.4792,-2.4683,-2.4868,-2.4727,-2.4714,-2.4723,-2.484,-2.4803,-2.4661,-2.4659,-2.4526,-2.4448,-2.4419,-2.4326,-2.4291,-2.4449,-2.454,-2.4692,-2.4603,-2.4574,-2.4531,-2.4435,-2.4093,-2.4396,-2.4491,-2.4347,-2.4422,-2.4524,-2.4432,-2.4737,-2.4624,-2.4505,-2.4624,-2.4575,-2.4796,-2.4707,-2.4543,-2.4735,-2.4866,-2.4704,-2.463,-2.4599,-2.4774,-2.4741,-2.465,-2.4473,-2.4339,-2.4257,-2.4473,-2.4543,-2.4414,-2.4267,-2.4168,-2.4356,-2.424,-2.4277,-2.4118,-2.4289,-2.4214,-2.4234,-2.429,-2.4441,-2.4505,-2.4567,-2.4842,-2.4976,-2.4716,-2.4717,-2.4708,-2.4902,-2.4753,-2.4644,-2.4726,-2.4748,-2.4766,-2.4338,-2.3286,-2.1536,-1.8662,-1.6298,-1.5631,-1.6748,-2.0567,-2.3304,-2.3872,-2.4718,-2.5863,-2.6207,-2.5587,-2.4496,-2.4378,-2.4552,-2.4563,-2.4652,-2.4516,-2.469,-2.4542,-2.45,-2.4408,-2.4569,-2.4557,-2.4443,-2.4374,-2.4287,-2.4291,-2.4265,-2.4264,-2.431,-2.4382,-2.4215,-2.3928,-2.3857,-2.3858,-2.3997,-2.4008,-2.3884,-2.3789,-2.3744,-2.3762,-2.3542,-2.3504,-2.3367,-2.3302,-2.3202,-2.3211,-2.2976,-2.2647,-2.2356,-2.2454,-2.2396,-2.1808,-2.2194,-2.2359,-2.2424,-2.2424,-2.2403,-2.2664,-2.2478,-2.2347,-2.2323,-2.2314,-2.2367,-2.2443,-2.2374,-2.2715,-2.2892,-2.2999,-2.292,-2.2911,-2.2992,-2.3474,-2.3504,-2.3708,-2.3972,-2.4035,-2.4547,-2.4124,-2.4264,-2.5214,-2.4771,-2.437,-2.4201,-2.4452,-2.4954,-2.489,-2.487,-2.4478,-2.4561,-2.4607,-2.4516,-2.5073,-2.4988,-2.4564,-2.4435,-2.4688,-2.4676,-2.4688,-2.4681,-2.4586,-2.4266,-2.4052,-2.4018,-2.4387,-2.4326,-2.4569,-2.4533,-2.4609,-2.441,-2.4153,-2.4429,-2.4771,-2.4684,-2.4563,-2.4505,-2.4737,-2.4925,-2.4424,-2.4288,-2.4801,-2.5102,-2.5099,-2.4762,-2.4601,-2.4843,-2.4523,-2.4354,-2.4448,-2.4506,-2.4061,-2.4104,-2.4488,-2.4536,-2.4319,-2.4447,-2.4154,-2.4058,-2.3977,-2.4273,-2.4465,-2.477,-2.4675,-2.5046,-2.4924,-2.4754,-2.4687,-2.497,-2.4988,-2.5072,-2.4883,-2.4439,-2.4544,-2.5159,-2.4882,-2.4019,-2.3018,-2.0832,-1.804,-1.613,-1.6492,-1.9987,-2.1829,-2.3079,-2.3849,-2.4999,-2.6704,-2.618,-2.5389,-2.4435,-2.425,-2.4581,-2.5059,-2.4602,-2.4483,-2.4294,-2.447,-2.4826,-2.4841,-2.4646,-2.4299,-2.4155,-2.4379,-2.4666,-2.4572,-2.4313,-2.4515,-2.4434,-2.4656,-2.4384,-2.4196,-2.4043,-2.418,-2.407,-2.3808,-2.3628,-2.4262,-2.4154,-2.3706,-2.3377,-2.3745,-2.3828,-2.3736,-2.3509,-2.3487,-2.3332,-2.3174,-2.3097,-2.2944,-2.2688,-2.2635,-2.2781,-2.2771,-2.2748,-2.2057,-2.1968,-2.2543,-2.261,-2.2378,-2.265,-2.2802,-2.2719,-2.2628,-2.2786,-2.3068,-2.319,-2.3177,-2.3402,-2.366,-2.3851,-2.409,-2.4279,-2.4284,-2.455,-2.4536,-2.4542,-2.4662,-2.4932,-2.4664,-2.4953,-2.4885,-2.4711,-2.47,-2.4603,-2.5038,-2.5233,-2.5167,-2.5182,-2.5011,-2.5056,-2.4957,-2.4873,-2.4732,-2.4842,-2.5005,-2.4911,-2.4797,-2.4636,-2.4462,-2.4296,-2.4461,-2.4499,-2.4735,-2.4864,-2.4861,-2.4849,-2.4595,-2.4429,-2.4469,-2.4637,-2.4806,-2.506,-2.4941,-2.4932,-2.4831,-2.4541,-2.4508,-2.4677,-2.4488,-2.4556,-2.4577,-2.4368,-2.4348,-2.4507,-2.4742,-2.4625,-2.4727,-2.474,-2.4412,-2.4465,-2.4741,-2.4773,-2.4886,-2.4878,-2.4784,-2.498,-2.5063,-2.4973,-2.5058,-2.5023,-2.4854,-2.4954,-2.4966,-2.5219,-2.5271,-2.5067,-2.4105,-2.2423,-2.0457,-1.7973,-1.5792,-1.7001,-2.0965,-2.3681,-2.4285,-2.5494,-2.6601,-2.6338,-2.5549,-2.4224,-2.4032,-2.4703,-2.4766,-2.498,-2.5191,-2.5058,-2.492,-2.4759,-2.4761,-2.4803,-2.4733,-2.4847,-2.4764,-2.4785,-2.4811,-2.47,-2.453,-2.4522,-2.4441,-2.4336,-2.4437,-2.4274,-2.4294,-2.4235,-2.4186,-2.4166,-2.4015,-2.4154,-2.396,-2.3898,-2.4063,-2.3791,-2.3378,-2.3112,-2.3056,-2.3211,-2.3528,-2.3395,-2.3031,-2.278,-2.2852,-2.2854,-2.2738,-2.2508,-2.2455,-2.2637,-2.2605,-2.2573,-2.2597,-2.2393,-2.2536,-2.2489,-2.2658,-2.2655,-2.2718,-2.3084,-2.34,-2.3617,-2.3771,-2.3981,-2.4248,-2.4231,-2.4378,-2.4491,-2.4778,-2.4765,-2.494,-2.5112,-2.5106,-2.502,-2.5044,-2.4886,-2.48,-2.5157,-2.5064,-2.4994,-2.5075,-2.5047,-2.5135,-2.5067,-2.4894,-2.4857,-2.4824,-2.4997,-2.4843,-2.4934,-2.5119,-2.4666,-2.4402,-2.4889,-2.481,-2.4899,-2.4737,-2.4559,-2.4573,-2.4267,-2.4198,-2.2975,-2.3417,-2.4801,-2.4784,-2.5539,-2.5639,-2.5377,-2.5212,-2.5193,-2.5318,-2.4968,-2.4996,-2.4839,-2.4781,-2.4647,-2.4611,-2.4391,-2.398,-2.3667,-2.3849,-2.3929,-2.4348,-2.4435,-2.4255,-2.4116,-2.4126,-2.4092,-2.4399,-2.4933,-2.5276,-2.5196,-2.5056,-2.4951,-2.4824,-2.4723,-2.4897,-2.4974,-2.5013,-2.4871,-2.4675,-2.4637,-2.4872,-2.4229,-2.2629,-2.0614,-1.9095,-1.6254,-1.4925,-1.8137,-2.2114,-2.3913,-2.4837,-2.5835,-2.6201,-2.5757,-2.4491,-2.4686,-2.4884,-2.4941,-2.4599,-2.4619,-2.4657,-2.462,-2.4532,-2.4527,-2.4406,-2.4621,-2.4557,-2.4323,-2.4237,-2.4694,-2.4593,-2.4387,-2.4285,-2.4329,-2.424,-2.4144,-2.4013,-2.3929,-2.4084,-2.4038,-2.4074,-2.4033,-2.4002,-2.3838,-2.3461,-2.3512,-2.3368,-2.3244,-2.3193,-2.3039,-2.287,-2.302,-2.2689,-2.2391,-2.2589,-2.2617,-2.2509,-2.2559,-2.2316,-2.218,-2.238,-2.2134,-2.2182,-2.1958,-2.1926,-2.2036,-2.1952,-2.1984,-2.2087,-2.2103,-2.2171,-2.2543,-2.313,-2.3102,-2.3145,-2.3776,-2.3858,-2.4117,-2.3981,-2.36,-2.3914,-2.4371,-2.4459,-2.4736,-2.468,-2.4646,-2.4622,-2.4649,-2.4559,-2.4485,-2.4482,-2.4619,-2.4642,-2.4574,-2.445,-2.4426,-2.4383,-2.434,-2.4521,-2.4645,-2.4368,-2.4241,-2.459,-2.4372,-2.4211,-2.4315,-2.434,-2.4226,-2.4299,-2.4241,-2.4177,-2.4421,-2.4457,-2.4505,-2.4502,-2.4173,-2.4201,-2.4415,-2.4192,-2.4125,-2.4738,-2.4675,-2.4627,-2.4745,-2.4761,-2.4589,-2.4437,-2.4227,-2.4054,-2.4153,-2.415,-2.4288,-2.4099,-2.3854,-2.4157,-2.4117,-2.414,-2.4127,-2.3832,-2.3939,-2.3843,-2.4168,-2.4262,-2.4722,-2.4828,-2.4724,-2.4498,-2.4268,-2.4216,-2.4396,-2.4759,-2.463,-2.4742,-2.4538,-2.4776,-2.4828,-2.4742,-2.4228,-2.3016,-2.1292,-1.9016,-1.6538,-1.5073,-1.7322,-1.963,-2.2758,-2.4283,-2.5167,-2.5897,-2.5584,-2.4704,-2.4053,-2.4534,-2.432,-2.4586,-2.4385,-2.444,-2.4206,-2.4303,-2.41,-2.4246,-2.4121,-2.4459,-2.4271,-2.4367,-2.4133,-2.4224,-2.3804,-2.3914,-2.4067,-2.4043,-2.3834,-2.3996,-2.3761,-2.3763,-2.3543,-2.3541,-2.3445,-2.3551,-2.3285,-2.3251,-2.3245,-2.306,-2.2809,-2.2922,-2.2718,-2.2544,-2.2462,-2.2474,-2.2458,-2.2339,-2.2146,-2.2137,-2.2234,-2.208,-2.1895,-2.202,-2.1834,-2.1661,-2.1633,-2.1509,-2.1312,-2.1453,-2.1699,-2.1688,-2.2066,-2.2118,-2.207,-2.2287,-2.2696,-2.2717,-2.3012,-2.3167,-2.3707,-2.3486,-2.3647,-2.3664,-2.3761,-2.378,-2.4185,-2.4153,-2.4064,-2.3975,-2.4274,-2.4316,-2.4165,-2.4104,-2.4219,-2.4185,-2.423,-2.4213,-2.4143,-2.4032,-2.4037,-2.4114,-2.3939,-2.3737,-2.3867,-2.3858,-2.3986,-2.3746,-2.3907,-2.4039,-2.4042,-2.3893,-2.4117,-2.3968,-2.3764,-2.3765,-2.3891,-2.3904,-2.4065,-2.4161,-2.3963,-2.3869,-2.3972,-2.3919,-2.4235,-2.4127,-2.411,-2.4133,-2.4077,-2.4329,-2.4307,-2.4013,-2.3956,-2.392,-2.3939,-2.385,-2.3994,-2.419,-2.4152,-2.4093,-2.4103,-2.4194,-2.4001,-2.3843,-2.3939,-2.3597,-2.357,-2.3647,-2.3605,-2.3542,-2.3449,-2.3442,-2.3594,-2.3622,-2.3694,-2.3482,-2.3279,-2.3369,-2.364,-2.4114,-2.4187,-2.408,-2.3894,-2.427,-2.413,-2.4015,-2.4142,-2.4159,-2.4108,-2.3864,-2.3895,-2.4155,-2.4152,-2.389,-2.2921,-2.115,-1.9076,-1.6082,-1.4077,-1.6037,-2.0199,-2.2474,-2.4061,-2.5087,-2.5341,-2.4994,-2.3435,-2.3289,-2.3581,-2.3795,-2.3986,-2.3854,-2.3782,-2.3904,-2.3881,-2.3794,-2.3599,-2.3572,-2.3523,-2.3454,-2.3503,-2.351,-2.3438,-2.3313,-2.3435,-2.3471,-2.3257,-2.3324,-2.3072,-2.3145,-2.3025,-2.2955,-2.2979,-2.2673,-2.2569,-2.2701,-2.2652,-2.2586,-2.2653,-2.2503,-2.2554,-2.2301,-2.2327,-2.2103,-2.1945,-2.1786,-2.1543,-2.1389,-2.1263,-2.1112,-2.0969,-2.1143,-2.1284,-2.1388,-2.1272,-2.1259,-2.116,-2.1059,-2.088,-2.1068,-2.1098,-2.1051,-2.1216,-2.152,-2.1521,-2.1925,-2.2006,-2.2421,-2.2589,-2.2748,-2.297,-2.3223,-2.328,-2.3084,-2.2942,-2.3272,-2.3507,-2.365,-2.375,-2.3807,-2.3578,-2.36,-2.3532,-2.3481,-2.3583,-2.3654,-2.3535,-2.3563,-2.3651,-2.3768,-2.3438,-2.3338,-2.3377,-2.3515,-2.3542,-2.3405,-2.3294,-2.332,-2.349,-2.3459,-2.3558,-2.3489,-2.3412,-2.3244,-2.3211,-2.3286,-2.3512,-2.37,-2.358,-2.3613,-2.3795,-2.3423,-2.3339,-2.3465,-2.3877,-2.3716,-2.3576,-2.36,-2.3793,-2.365,-2.3663,-2.3879,-2.3948,-2.3816,-2.3864,-2.3651,-2.3725,-2.3595,-2.3723,-2.3872,-2.3957,-2.3734,-2.3589,-2.3798,-2.3664,-2.3377,-2.3362,-2.3679,-2.3803,-2.405,-2.4059,-2.3996,-2.39,-2.3765,-2.3939,-2.3907,-2.3938,-2.3654,-2.3496,-2.3645,-2.335,-2.3445,-2.3474,-2.3447,-2.3416,-2.3474,-2.3287,-2.3226,-2.3007,-2.2903,-2.3184,-2.3463,-2.3489,-2.354,-2.3945,-2.4001,-2.3957,-2.3608,-2.3893,-2.3956,-2.378,-2.384,-2.3632,-2.3632,-2.3685,-2.3763,-2.3939,-2.373,-2.3124,-2.2167,-2.0406,-1.797,-1.5724,-1.4711,-1.5407,-2.0972,-2.2743,-2.3733,-2.5098,-2.5245,-2.4781,-2.3512,-2.3634,-2.3551,-2.3487,-2.3252,-2.3715,-2.3672,-2.3776,-2.3638,-2.3495,-2.3463,-2.354,-2.328,-2.3478,-2.3441,-2.3701,-2.3312,-2.3628,-2.3736,-2.3521,-2.3318,-2.3422,-2.3309,-2.3229,-2.3104,-2.2912,-2.3094,-2.3095,-2.2834,-2.2695,-2.2485,-2.2324,-2.2528,-2.2498,-2.2353,-2.2636,-2.2361,-2.2089,-2.2039,-2.197,-2.1961,-2.1912,-2.1763,-2.175,-2.1663,-2.164,-2.1475,-2.1646,-2.1197,-2.1024,-2.1509,-2.1283,-2.1336,-2.1269,-2.124,-2.1305,-2.1396,-2.1684,-2.1794,-2.1754,-2.2151,-2.2362,-2.2347,-2.2596,-2.294,-2.2939,-2.3193,-2.3102,-2.3268,-2.3415,-2.3458,-2.3644,-2.3561,-2.3507,-2.3735,-2.3431,-2.356,-2.363,-2.355,-2.3449,-2.3481,-2.3748,-2.3551,-2.3437,-2.3277,-2.2865,-2.3552,-2.361,-2.3464,-2.3208,-2.3052,-2.3698,-2.3404,-2.3261,-2.3404,-2.3105,-2.2784,-2.3502,-2.35,-2.3375,-2.3462,-2.3195,-2.2716,-2.324,-2.3603,-2.3082,-2.3593,-2.361,-2.3255,-2.3011,-2.2873,-2.3799,-2.3661,-2.3486,-2.3482,-2.3574,-2.2957,-2.3143,-2.3677,-2.3533,-2.3476,-2.334,-2.3128,-2.3337,-2.3496,-2.3457,-2.3319,-2.2425,-2.4253,-2.3864,-2.3026,-2.3615,-2.341,-2.3293,-2.3392,-2.3301,-2.29,-2.2314,-2.2558,-2.3106,-2.2997,-2.279,-2.2979,-2.2905,-2.2683,-2.2673,-2.332,-2.2707,-2.2623,-2.3457,-2.3308,-2.2936,-2.3211,-2.3292,-2.3732,-2.3976,-2.3422,-2.3018,-2.2759,-2.3618,-2.2947,-2.2948,-2.3565,-2.3283,-2.2014,-1.9562,-1.7263,-1.5297,-1.4468,-1.7065,-2.0792,-2.2211,-2.2484,-2.412,-2.5067,-2.4439,-2.3471,-2.2795,-2.3444,-2.3099,-2.3168,-2.334,-2.2901,-2.2967,-2.3648,-2.3239,-2.3559,-2.3262,-2.2537,-2.3098,-2.305,-2.2875,-2.258,-2.3087,-2.3553,-2.3118,-2.2733,-2.2588,-2.2826,-2.2629,-2.2448,-2.2601,-2.2894,-2.302,-2.2165,-2.2575,-2.2723,-2.2246,-2.1999,-2.1957,-2.2325,-2.1873,-2.1692,-2.1789,-2.165,-2.1367,-2.1148,-2.181,-2.132,-2.1315,-2.1165,-2.1285,-2.1141,-2.1434,-2.1185,-2.0689,-2.0608,-2.1407,-2.1384,-2.1037,-2.1113,-2.0819,-2.077,-2.1417,-2.2032,-2.2174,-2.2253,-2.1968,-2.2233,-2.2717,-2.2819,-2.2841,-2.2739,-2.3129,-2.3277,-2.2664,-2.3257,-2.323,-2.373,-2.3772,-2.3682,-2.3128,-2.3168,-2.3193,-2.4157,-2.3785,-2.3585,-2.2997,-2.3133,-2.3555,-2.3502,-2.3407,-2.3266,-2.3526,-2.2774,-2.3022,-2.3592,-2.3398,-2.289,-2.3302,-2.327,-2.3287,-2.301,-2.3238,-2.333,-2.3348,-2.3293,-2.3385,-2.3133,-2.3127,-2.2805,-2.2933,-2.3752,-2.3274,-2.3424,-2.3703,-2.36,-2.3578,-2.3676,-2.3669,-2.3336,-2.3379,-2.3397,-2.3521,-2.3177,-2.2753,-2.3751,-2.3432,-2.3333,-2.3165,-2.3181,-2.3186,-2.3077,-2.3371,-2.3288,-2.2779,-2.2974,-2.2893,-2.2997,-2.3229,-2.2932,-2.337,-2.3731,-2.3782,-2.377,-2.3508,-2.3336,-2.3759,-2.3721,-2.4007,-2.3342,-2.314,-2.3516,-2.4042,-2.3897,-2.3565,-2.2394,-2.1348,-1.9494,-1.7158,-1.5097,-1.5166,-1.885,-2.2272,-2.2841,-2.3612,-2.4743,-2.4971,-2.4515,-2.3597,-2.3596,-2.3582,-2.3626,-2.3232,-2.3488,-2.3969,-2.3519,-2.3731,-2.3829,-2.3668,-2.3571,-2.3305,-2.3231,-2.3725,-2.359,-2.34,-2.3438,-2.3195,-2.2936,-2.3485,-2.3556,-2.3347,-2.3239,-2.2878,-2.2987,-2.29,-2.2847,-2.3108,-2.2879,-2.2915,-2.2896,-2.2532,-2.2504,-2.2129,-2.2029,-2.2086,-2.2196,-2.2067,-2.2032,-2.1916,-2.148,-2.138,-2.156,-2.1435,-2.1488,-2.161,-2.168,-2.1495,-2.1635,-2.1507,-2.1436,-2.1431,-2.1288,-2.1688,-2.1797,-2.184,-2.2115,-2.1894,-2.2426,-2.3023,-2.2815,-2.2803,-2.3101,-2.3329,-2.368,-2.3673,-2.3802,-2.3809,-2.3675,-2.4219,-2.3994,-2.3916,-2.3831,-2.4202,-2.3937,-2.3892,-2.3939,-2.3995,-2.4155,-2.4011,-2.3903,-2.3967,-2.4055,-2.4049,-2.3874,-2.3747,-2.3713,-2.3688,-2.3877,-2.374,-2.3828,-2.381,-2.3889,-2.3566,-2.3528,-2.3461,-2.3556,-2.3747,-2.3894,-2.3949,-2.3906,-2.4023,-2.3932,-2.4015,-2.3577,-2.3698,-2.3856,-2.4046,-2.3783,-2.3566,-2.3741,-2.3435,-2.3607,-2.357,-2.3582,-2.3683,-2.3625,-2.3449,-2.3216,-2.3351,-2.3577,-2.3557,-2.3967,-2.4052,-2.4109,-2.4078,-2.4202,-2.4119,-2.4269,-2.4015,-2.3934,-2.4094,-2.427,-2.4158,-2.3824,-2.4141,-2.4367,-2.3884,-2.2876,-2.0626,-1.8734,-1.778,-1.5313,-1.5262,-1.939,-2.2542,-2.3684,-2.4319,-2.5299,-2.5358,-2.5138,-2.3925,-2.3553,-2.3828,-2.4116,-2.4168,-2.3996,-2.3983,-2.3685,-2.3654,-2.3652,-2.3925,-2.4127,-2.3894,-2.3729,-2.3883,-2.3949,-2.3883,-2.3768,-2.3717,-2.3757,-2.3663,-2.3625,-2.3546,-2.3406,-2.3406,-2.3334,-2.3335,-2.313,-2.3046,-2.2932,-2.3016,-2.2991,-2.2828,-2.2675,-2.2519,-2.2471,-2.2439,-2.2067,-2.2145,-2.2127,-2.2042,-2.1867,-2.1606,-2.1315,-2.1803,-2.1985,-2.1545,-2.1632,-2.1652,-2.151,-2.1553,-2.1604,-2.1581,-2.1697,-2.1594,-2.1645,-2.2165,-2.2485,-2.2652,-2.2796,-2.2948,-2.3083,-2.3322,-2.3598,-2.3537,-2.3515,-2.3943,-2.3936,-2.3828,-2.3964,-2.3976,-2.4116,-2.4112,-2.4286,-2.4206,-2.4085,-2.4128,-2.4225,-2.4245,-2.4214,-2.4108,-2.396,-2.3874,-2.4032,-2.4017,-2.3892,-2.4036,-2.4023,-2.3947,-2.4005,-2.3965,-2.403,-2.3994,-2.3807,-2.377,-2.3734,-2.3908,-2.3933,-2.3908,-2.3989,-2.3898,-2.3956,-2.4113,-2.3962,-2.383,-2.3924,-2.4049,-2.3911,-2.3767,-2.3861,-2.3866,-2.3637,-2.3631,-2.3648,-2.3592,-2.3579,-2.3499,-2.3493,-2.3558,-2.3561,-2.3618,-2.3487,-2.3478,-2.3275,-2.381,-2.4267,-2.4283,-2.4387,-2.4386,-2.4112,-2.4204,-2.4248,-2.4046,-2.4032,-2.4377,-2.4121,-2.4183,-2.436,-2.4436,-2.4232,-2.3459,-2.1848,-1.939,-1.6409,-1.4158,-1.5865,-2.038,-2.3043,-2.4237,-2.5428,-2.5604,-2.5451,-2.454,-2.3621,-2.3877,-2.4103,-2.4155,-2.4123,-2.4206,-2.4225,-2.408,-2.4091,-2.396,-2.3817,-2.4019,-2.4017,-2.3855,-2.3871,-2.3923,-2.3978,-2.3955,-2.3789,-2.355,-2.3461,-2.3706,-2.3527,-2.3424,-2.3506,-2.3402,-2.3229,-2.3137,-2.3339,-2.3186,-2.2872,-2.2711,-2.2689,-2.2576,-2.25,-2.2191,-2.2237,-2.2143,-2.218,-2.2044,-2.1829,-2.1852,-2.161,-2.1496,-2.1683,-2.1527,-2.1483,-2.1484,-2.1091,-2.1242,-2.1426,-2.1388,-2.1285,-2.1284,-2.174,-2.1823,-2.1991,-2.2266,-2.2454,-2.2612,-2.2943,-2.3073,-2.3159,-2.3339,-2.3564,-2.378,-2.3997,-2.3883,-2.4015,-2.3912,-2.3946,-2.4074,-2.4012,-2.4059,-2.3936,-2.416,-2.429,-2.4202,-2.414,-2.4185,-2.4133,-2.4224,-2.4227,-2.4211,-2.4153,-2.4155,-2.4147,-2.4165,-2.4244,-2.4071,-2.3953,-2.4021,-2.4228,-2.4101,-2.3875,-2.3967,-2.4313,-2.4335,-2.4283,-2.4245,-2.4393,-2.4223,-2.4082,-2.3976,-2.4237,-2.4404,-2.4302,-2.4497,-2.4438,-2.4348,-2.4029,-2.4101,-2.4289,-2.4237,-2.4127,-2.4103,-2.4093,-2.4009,-2.3937,-2.3878,-2.4018,-2.3911,-2.3814,-2.3777,-2.3898,-2.3947,-2.3972,-2.4077,-2.4029,-2.4525,-2.4597,-2.4408,-2.4558,-2.4467,-2.4367,-2.4549,-2.4668,-2.4583,-2.4491,-2.4297,-2.4581,-2.4681,-2.437,-2.3275,-2.1392,-1.8862,-1.6296,-1.5016,-1.763,-2.1721,-2.3422,-2.4394,-2.5475,-2.5996,-2.5553,-2.4234,-2.3837,-2.3911,-2.4128,-2.4621,-2.4412,-2.4295,-2.4429,-2.4503,-2.4425,-2.4383,-2.4305,-2.4231,-2.4272,-2.4255,-2.425,-2.4279,-2.4187,-2.4155,-2.3987,-2.3883,-2.3662,-2.3758,-2.3705,-2.3912,-2.3989,-2.3864,-2.3732,-2.3627,-2.3561,-2.3338,-2.3054,-2.3101,-2.3158,-2.3073,-2.2996,-2.2876,-2.2683,-2.2423,-2.2485,-2.2763,-2.2509,-2.2337,-2.2326,-2.221,-2.205,-2.2129,-2.2075,-2.2041,-2.2194,-2.197,-2.1975,-2.1927,-2.1932,-2.215,-2.2122,-2.2454,-2.2727,-2.2937,-2.3045,-2.3174,-2.3418,-2.3536,-2.3715,-2.3847,-2.3935,-2.4057,-2.4266,-2.4371,-2.4472,-2.4306,-2.4196,-2.4247,-2.4432,-2.4254,-2.4358,-2.4445,-2.443,-2.4793,-2.4715,-2.454,-2.4458,-2.4431,-2.4549,-2.4624,-2.4598,-2.4326,-2.4232,-2.4307,-2.4346,-2.4332,-2.4414,-2.4325,-2.4294,-2.4137,-2.408,-2.42,-2.4371,-2.4476,-2.4472,-2.4498,-2.4378,-2.425,-2.4007,-2.389,-2.4045,-2.4139,-2.4525,-2.4769,-2.4785,-2.4798,-2.4652,-2.4576,-2.4536,-2.4501,-2.4349,-2.4324,-2.4204,-2.4161,-2.3901,-2.3801,-2.3851,-2.3974,-2.4041,-2.3789,-2.3924,-2.4145,-2.4146,-2.4056,-2.4533,-2.4603,-2.4403,-2.4695,-2.4672,-2.4814,-2.4738,-2.4655,-2.4682,-2.444,-2.4335,-2.4445,-2.4611,-2.4793,-2.4451,-2.3813,-2.2303,-2.0201,-1.7602,-1.563,-1.6425,-2.0318,-2.305,-2.4035,-2.4935,-2.5851,-2.5904,-2.5331,-2.4285,-2.4251,-2.4427,-2.4383,-2.4411,-2.4355,-2.4459,-2.4238,-2.444,-2.4526,-2.4475,-2.4234,-2.4448,-2.4263,-2.4044,-2.4166,-2.4239,-2.4128,-2.4393
