-18.956,-18.956,-18.977,-19.018,-18.981,-18.946,-18.972,-18.969,-18.968,-18.958,-18.97,-18.986,-18.989,-18.963,-18.947,-18.94,-18.945,-18.981,-19,-18.989,-18.983,-18.985,-18.984,-18.994,-18.989,-19.008,-19.018,-19.002,-18.995,-18.967,-18.954,-18.973,-19.008,-19.029,-19.016,-18.983,-18.968,-18.967,-18.995,-18.973,-18.947,-18.934,-18.929,-18.947,-18.93,-18.89,-18.882,-18.904,-18.926,-18.935,-18.921,-18.911,-18.917,-18.941,-18.967,-18.981,-18.993,-18.969,-18.982,-18.982,-19.006,-19.001,-18.964,-18.964,-19.027,-19.046,-19.059,-19.035,-19.05,-19.081,-19.083,-19.041,-19.047,-19.111,-19.096,-19.09,-19.11,-19.169,-19.124,-18.959,-18.709,-18.467,-18.174,-17.788,-17.612,-17.662,-18.08,-18.549,-18.919,-19.052,-19.03,-18.946,-18.85,-18.812,-18.809,-18.862,-18.883,-18.93,-18.932,-18.947,-18.905,-18.888,-18.95,-19.031,-19.024,-18.971,-18.943,-18.972,-18.959,-18.927,-18.927,-18.931,-18.944,-18.952,-18.903,-18.87,-18.859,-18.875,-18.885,-18.927,-18.888,-18.86,-18.838,-18.83,-18.827,-18.85,-18.828,-18.775,-18.713,-18.715,-18.729,-18.77,-18.741,-18.699,-18.692,-18.722,-18.724,-18.707,-18.691,-18.638,-18.595,-18.572,-18.539,-18.536,-18.568,-18.615,-18.596,-18.57,-18.548,-18.483,-18.451,-18.574,-18.616,-18.611,-18.607,-18.615,-18.648,-18.71,-18.761,-18.745,-18.786,-18.847,-18.88,-18.845,-18.862,-18.869,-18.905,-18.918,-18.927,-18.865,-18.86,-18.885,-18.94,-18.966,-18.946,-18.903,-18.888,-18.9,-18.898,-18.914,-18.929,-18.909,-18.885,-18.883,-18.919,-18.902,-18.843,-18.808,-18.828,-18.816,-18.812,-18.844,-18.887,-18.87,-18.823,-18.818,-18.826,-18.829,-18.822,-18.816,-18.818,-18.821,-18.81,-18.804,-18.726,-18.768,-18.866,-18.822,-18.794,-18.793,-18.83,-18.872,-18.886,-18.866,-18.844,-18.85,-18.843,-18.851,-18.884,-18.885,-18.853,-18.837,-18.834,-18.885,-18.9,-18.852,-18.805,-18.807,-18.908,-18.907,-18.824,-18.744,-18.755,-18.819,-18.855,-18.873,-18.834,-18.837,-18.848,-18.869,-18.846,-18.814,-18.831,-18.849,-18.849,-18.837,-18.84,-18.863,-18.832,-18.843,-18.834,-18.843,-18.821,-18.768,-18.718,-18.722,-18.792,-18.793,-18.775,-18.762,-18.798,-18.801,-18.788,-18.764,-18.74,-18.779,-18.857,-18.892,-18.879,-18.843,-18.866,-18.845,-18.842,-18.859,-18.874,-18.85,-18.821,-18.822,-18.856,-18.902,-18.886,-18.835,-18.838,-18.862,-18.877,-18.824,-18.89,-18.958,-18.911,-18.786,-18.558,-18.307,-17.991,-17.619,-17.5,-17.704,-18.125,-18.347,-18.71,-18.975,-18.943,-18.888,-18.777,-18.741,-18.713,-18.766,-18.743,-18.772,-18.816,-18.815,-18.779,-18.766,-18.722,-18.668,-18.621,-18.725,-18.774,-18.789,-18.744,-18.687,-18.652,-18.651,-18.641,-18.646,-18.587,-18.605,-18.663,-18.716,-18.684,-18.654,-18.594,-18.596,-18.634,-18.623,-18.559,-18.559,-18.498,-18.461,-18.476,-18.512,-18.538,-18.518,-18.493,-18.472,-18.435,-18.356,-18.38,-18.4,-18.362,-18.315,-18.297,-18.298,-18.313,-18.276,-18.251,-18.229,-18.241,-18.244,-18.242,-18.232,-18.256,-18.281,-18.289,-18.299,-18.315,-18.309,-18.362,-18.468,-18.498,-18.475,-18.506,-18.528,-18.57,-18.675,-18.683,-18.654,-18.68,-18.697,-18.677,-18.646,-18.642,-18.6,-18.599,-18.665,-18.704,-18.688,-18.692,-18.713,-18.735,-18.669,-18.666,-18.717,-18.767,-18.7,-18.57,-18.581,-18.695,-18.724,-18.705,-18.647,-18.625,-18.592,-18.617,-18.674,-18.718,-18.671,-18.643,-18.642,-18.605,-18.558,-18.635,-18.718,-18.702,-18.69,-18.651,-18.598,-18.594,-18.618,-18.662,-18.662,-18.668,-18.669,-18.683,-18.66,-18.647,-18.679,-18.701,-18.657,-18.628,-18.664,-18.684,-18.682,-18.685,-18.697,-18.666,-18.672,-18.702,-18.736,-18.733,-18.694,-18.695,-18.737,-18.722,-18.715,-18.715,-18.738,-18.727,-18.72,-18.729,-18.738,-18.786,-18.838,-18.842,-18.803,-18.816,-18.801,-18.722,-18.714,-18.736,-18.774,-18.762,-18.796,-18.869,-18.862,-18.786,-18.847,-18.878,-18.917,-18.941,-18.945,-18.948,-19.016,-19.041,-19.061,-19.088,-19.126,-19.163,-19.122,-19.081,-19.021,-18.975,-19.006,-19.016,-18.931,-18.923,-18.966,-19.033,-19.063,-19.067,-19.082,-19.162,-19.3,-19.51,-19.614,-19.71,-19.799,-19.845,-19.762,-19.726,-19.724,-19.65,-19.586,-19.487,-19.411,-19.374,-19.352,-19.362,-19.356,-19.331,-19.258,-19.162,-19.137,-19.155,-19.214,-19.185,-19.079,-18.793,-18.539,-18.397,-18.094,-17.744,-17.669,-17.905,-18.31,-18.662,-19.009,-19.053,-18.939,-18.816,-18.747,-18.733,-18.726,-18.694,-18.699,-18.694,-18.617,-18.524,-18.511,-18.5,-18.481,-18.453,-18.433,-18.414,-18.392,-18.413,-18.468,-18.515,-18.497,-18.452,-18.519,-18.62,-18.656,-18.632,-18.587,-18.579,-18.574,-18.585,-18.567,-18.544,-18.523,-18.551,-18.583,-18.605,-18.572,-18.592,-18.591,-18.588,-18.516,-18.473,-18.472,-18.476,-18.485,-18.494,-18.48,-18.41,-18.35,-18.357,-18.399,-18.427,-18.419,-18.421,-18.451,-18.39,-18.294,-18.285,-18.337,-18.346,-18.323,-18.301,-18.361,-18.403,-18.433,-18.489,-18.502,-18.472,-18.563,-18.72,-18.705,-18.656,-18.604,-18.688,-18.781,-18.789,-18.751,-18.795,-18.817,-18.751,-18.764,-18.794,-18.822,-18.814,-18.815,-18.802,-18.765,-18.784,-18.839,-18.88,-18.828,-18.777,-18.733,-18.71,-18.764,-18.781,-18.837,-18.8,-18.763,-18.775,-18.782,-18.87,-18.833,-18.792,-18.841,-18.803,-18.715,-18.68,-18.799,-18.855,-18.806,-18.806,-18.782,-18.775,-18.761,-18.791,-18.797,-18.82,-18.829,-18.85,-18.838,-18.802,-18.767,-18.765,-18.85,-18.879,-18.825,-18.781,-18.807,-18.821,-18.825,-18.821,-18.8,-18.766,-18.842,-18.918,-18.899,-18.905,-18.828,-18.806,-18.798,-18.786,-18.775,-18.784,-18.81,-18.77,-18.692,-18.664,-18.711,-18.745,-18.749,-18.816,-18.843,-18.865,-18.841,-18.783,-18.877,-18.875,-18.907,-18.89,-18.873,-18.867,-18.889,-18.871,-18.835,-18.869,-18.898,-18.899,-18.909,-18.936,-18.905,-18.852,-18.826,-18.816,-18.867,-18.905,-18.884,-18.887,-18.908,-18.971,-18.967,-18.852,-18.659,-18.408,-18.114,-17.755,-17.585,-17.673,-18.081,-18.497,-18.898,-19.025,-19.001,-18.952,-18.89,-18.869,-18.816,-18.837,-18.847,-18.87,-18.843,-18.892,-18.886,-18.901,-18.877,-18.876,-18.837,-18.861,-18.862,-18.857,-18.853,-18.842,-18.822,-18.837,-18.837,-18.85,-18.798,-18.75,-18.757,-18.762,-18.767,-18.856,-18.886,-18.769,-18.622,-18.668,-18.781,-18.837,-18.809,-18.789,-18.792,-18.786,-18.779,-18.709,-18.634,-18.646,-18.618,-18.6,-18.607,-18.651,-18.631,-18.558,-18.587,-18.683,-18.656,-18.697,-18.769,-18.834,-18.799,-18.714,-18.71,-18.629,-18.62,-18.629,-18.689,-18.761,-18.917,-19.064,-19.201,-19.193,-19.247,-19.329,-19.34,-19.351,-19.401,-19.408,-19.423,-19.451,-19.507,-19.503,-19.475,-19.448,-19.447,-19.416,-19.359,-19.326,-19.32,-19.359,-19.426,-19.426,-19.41,-19.366,-19.313,-19.206,-19.108,-19.027,-19.016,-18.997,-18.938,-18.926,-18.915,-18.84,-18.811,-18.816,-18.886,-18.886,-18.788,-18.793,-18.79,-18.808,-18.815,-18.864,-18.949,-18.889,-18.883,-18.919,-18.947,-18.919,-18.965,-18.974,-18.988,-18.954,-18.922,-18.874,-18.85,-18.878,-18.882,-18.904,-18.91,-18.909,-18.89,-18.848,-18.843,-18.875,-18.843,-18.846,-18.901,-18.864,-18.806,-18.857,-18.935,-18.94,-18.929,-18.889,-18.876,-18.871,-18.877,-18.875,-18.879,-18.886,-18.842,-18.805,-18.757,-18.76,-18.781,-18.828,-18.855,-18.844,-18.828,-18.839,-18.835,-18.857,-18.862,-18.894,-18.916,-18.929,-18.932,-18.915,-18.916,-18.933,-18.911,-18.887,-18.899,-18.915,-18.937,-18.952,-18.947,-18.938,-18.927,-18.921,-18.93,-18.956,-18.959,-18.98,-19.018,-19.03,-18.927,-18.744,-18.505,-18.232,-17.843,-17.58,-17.603,-18.009,-18.463,-18.839,-19.047,-19.054,-18.971,-18.904,-18.881,-18.876,-18.881,-18.876,-18.874,-18.853,-18.87,-18.883,-18.879,-18.868,-18.873,-18.875,-18.877,-18.872,-18.858,-18.834,-18.831,-18.834,-18.835,-18.836,-18.825,-18.818,-18.83,-18.835,-18.829,-18.815,-18.83,-18.83,-18.826,-18.811,-18.795,-18.801,-18.791,-18.764,-18.761,-18.767,-18.763,-18.769,-18.746,-18.711,-18.691,-18.678,-18.656,-18.655,-18.63,-18.602,-18.575,-18.583,-18.541,-18.53,-18.513,-18.5,-18.498,-18.499,-18.475,-18.454,-18.46,-18.478,-18.506,-18.535,-18.56,-18.564,-18.617,-18.647,-18.684,-18.724,-18.747,-18.793,-18.844,-18.866,-18.884,-18.9,-18.917,-18.947,-18.961,-18.964,-18.957,-18.963,-18.979,-18.971,-18.964,-18.963,-18.965,-18.971,-18.978,-18.978,-18.972,-18.963,-18.952,-18.972,-18.966,-18.954,-18.955,-18.946,-18.947,-18.941,-18.937,-18.927,-18.935,-18.941,-18.93,-18.916,-18.923,-18.929,-18.932,-18.938,-18.91,-18.912,-18.91,-18.913,-18.919,-18.914,-18.91,-18.914,-18.925,-18.917,-18.906,-18.914,-18.918,-18.929,-18.927,-18.922,-18.917,-18.909,-18.916,-18.917,-18.925,-18.916,-18.917,-18.92,-18.928,-18.922,-18.916,-18.912,-18.915,-18.933,-18.941,-18.921,-18.924,-18.924,-18.939,-18.932,-18.924,-18.922,-18.934,-18.937,-18.952,-18.94,-18.937,-18.932,-18.949,-18.955,-18.941,-18.92,-18.918,-18.926,-18.949,-18.942,-18.937,-18.931,-18.955,-18.957,-18.948,-18.936,-18.937,-18.957,-18.95,-18.949,-18.96,-18.961,-18.975,-18.972,-18.975,-18.989,-19.015,-19.037,-19.029,-19.021,-19.005,-19.006,-18.987,-18.989,-18.974,-18.97,-18.952,-18.95,-18.943,-18.926,-18.919,-18.904,-18.881,-18.86,-18.866,-18.866,-18.902,-18.913,-18.903,-18.911,-18.906,-18.898,-18.939,-18.94,-18.946,-18.94,-18.93,-18.949,-18.974,-18.978,-18.965,-18.947,-18.913,-18.957,-18.98,-18.966,-18.944,-18.932,-18.955,-18.962,-18.945,-18.956,-18.959,-18.996,-19.059,-19.01,-18.937,-18.738,-18.466,-18.204,-17.808,-17.601,-17.642,-18.036,-18.489,-18.874,-19.047,-19.008,-18.953,-18.902,-18.874,-18.869,-18.892,-18.872,-18.857,-18.859,-18.856,-18.844,-18.861,-18.85,-18.854,-18.818,-18.826,-18.833,-18.819,-18.82,-18.825,-18.829,-18.829,-18.815,-18.809,-18.809,-18.78,-18.763,-18.761,-18.764,-18.763,-18.774,-18.748,-18.736,-18.723,-18.727,-18.717,-18.691,-18.676,-18.685,-18.666,-18.647,-18.624,-18.599,-18.6,-18.583,-18.583,-18.557,-18.547,-18.543,-18.521,-18.522,-18.503,-18.462,-18.464,-18.459,-18.453,-18.453,-18.437,-18.423,-18.434,-18.427,-18.423,-18.436,-18.454,-18.508,-18.527,-18.563,-18.584,-18.647,-18.654,-18.686,-18.737,-18.764,-18.797,-18.819,-18.811,-18.835,-18.845,-18.85,-18.855,-18.884,-18.874,-18.853,-18.863,-18.862,-18.88,-18.883,-18.849,-18.848,-18.856,-18.862,-18.878,-18.858,-18.861,-18.841,-18.845,-18.862,-18.839,-18.849,-18.845,-18.837,-18.86,-18.84,-18.835,-18.84,-18.86,-18.853,-18.854,-18.861,-18.857,-18.81,-18.847,-18.856,-18.827,-18.855,-18.837,-18.845,-18.856,-18.845,-18.846,-18.835,-18.854,-18.836,-18.853,-18.873,-18.827,-18.854,-18.847,-18.861,-18.85,-18.832,-18.856,-18.841,-18.862,-18.836,-18.848,-18.832,-18.855,-18.839,-18.852,-18.862,-18.808,-18.833,-18.853,-18.825,-18.815,-18.825,-18.831,-18.827,-18.837,-18.803,-18.821,-18.822,-18.829,-18.829,-18.798,-18.823,-18.818,-18.83,-18.816,-18.793,-18.799,-18.804,-18.802,-18.813,-18.794,-18.79,-18.805,-18.797,-18.792,-18.786,-18.776,-18.79,-18.77,-18.777,-18.761,-18.725,-18.733,-18.708,-18.683,-18.691,-18.692,-18.71,-18.729,-18.72,-18.716,-18.734,-18.742,-18.755,-18.775,-18.767,-18.803,-18.827,-18.78,-18.796,-18.82,-18.794,-18.819,-18.799,-18.814,-18.816,-18.82,-18.835,-18.815,-18.823,-18.815,-18.82,-18.82,-18.818,-18.846,-18.849,-18.901,-18.898,-18.793,-18.58,-18.327,-18.063,-17.669,-17.423,-17.502,-17.896,-18.338,-18.706,-18.886,-18.878,-18.825,-18.764,-18.721,-18.72,-18.761,-18.759,-18.754,-18.746,-18.755,-18.757,-18.758,-18.756,-18.739,-18.729,-18.744,-18.739,-18.72,-18.712,-18.714,-18.718,-18.728,-18.701,-18.678,-18.682,-18.676,-18.685,-18.681,-18.685,-18.663,-18.668,-18.644,-18.646,-18.635,-18.617,-18.616,-18.611,-18.594,-18.581,-18.568,-18.562,-18.554,-18.549,-18.529,-18.52,-18.495,-18.491,-18.48,-18.469,-18.43,-18.419,-18.401,-18.408,-18.409,-18.393,-18.366,-18.346,-18.372,-18.363,-18.362,-18.357,-18.382,-18.413,-18.43,-18.476,-18.487,-18.498,-18.557,-18.616,-18.657,-18.684,-18.708,-18.748,-18.796,-18.826,-18.841,-18.838,-18.855,-18.872,-18.897,-18.891,-18.899,-18.912,-18.9,-18.897,-18.9,-18.906,-18.911,-18.918,-18.908,-18.909,-18.922,-18.913,-18.914,-18.922,-18.904,-18.917,-18.91,-18.907,-18.918,-18.897,-18.888,-18.895,-18.904,-18.888,-18.896,-18.893,-18.905,-18.891,-18.878,-18.873,-18.886,-18.889,-18.909,-18.898,-18.883,-18.88,-18.888,-18.899,-18.898,-18.917,-18.896,-18.866,-18.891,-18.883,-18.909,-18.914,-18.903,-18.897,-18.914,-18.889,-18.885,-18.893,-18.895,-18.904,-18.897,-18.888,-18.86,-18.91,-18.889,-18.898,-18.906,-18.873,-18.892,-18.903,-18.905,-18.915,-18.879,-18.872,-18.888,-18.889,-18.888,-18.878,-18.882,-18.876,-18.893,-18.886,-18.891,-18.88,-18.886,-18.884,-18.871,-18.873,-18.872,-18.87,-18.859,-18.868,-18.838,-18.837,-18.8,-18.779,-18.795,-18.794,-18.814,-18.836,-18.821,-18.838,-18.828,-18.823,-18.839,-18.86,-18.889,-18.904,-18.9,-18.872,-18.898,-18.902,-18.901,-18.913,-18.915,-18.894,-18.894,-18.904,-18.889,-18.899,-18.89,-18.917,-18.916,-18.893,-18.912,-18.919,-18.965,-19.011,-18.903,-18.711,-18.483,-18.188,-18.006,-17.673,-17.54,-17.731,-18.171,-18.59,-18.932,-18.989,-18.966,-18.91,-18.837,-18.822,-18.789,-18.823,-18.812,-18.832,-18.804,-18.82,-18.8,-18.826,-18.806,-18.814,-18.786,-18.8,-18.771,-18.793,-18.768,-18.779,-18.759,-18.772,-18.775,-18.766,-18.757,-18.751,-18.74,-18.76,-18.732,-18.729,-18.716,-18.7,-18.695,-18.709,-18.696,-18.698,-18.663,-18.663,-18.654,-18.63,-18.616,-18.598,-18.606,-18.585,-18.574,-18.547,-18.526,-18.504,-18.496,-18.484,-18.464,-18.457,-18.451,-18.43,-18.422,-18.4,-18.397,-18.373,-18.393,-18.385,-18.392,-18.386,-18.417,-18.461,-18.472,-18.512,-18.552,-18.587,-18.625,-18.67,-18.686,-18.706,-18.715,-18.745,-18.783,-18.783,-18.802,-18.795,-18.804,-18.826,-18.841,-18.822,-18.812,-18.82,-18.838,-18.841,-18.84,-18.834,-18.825,-18.823,-18.824,-18.82,-18.823,-18.818,-18.821,-18.819,-18.827,-18.802,-18.82,-18.801,-18.808,-18.806,-18.805,-18.797,-18.805,-18.814,-18.813,-18.806,-18.812,-18.789,-18.803,-18.802,-18.809,-18.795,-18.806,-18.805,-18.805,-18.815,-18.8,-18.798,-18.811,-18.806,-18.8,-18.821,-18.792,-18.814,-18.812,-18.806,-18.803,-18.803,-18.82,-18.813,-18.815,-18.789,-18.795,-18.8,-18.794,-18.782,-18.772,-18.739,-18.716,-18.719,-18.709,-18.727,-18.722,-18.751,-18.757,-18.766,-18.765,-18.761,-18.806,-18.832,-18.84,-18.841,-18.83,-18.842,-18.842,-18.837,-18.826,-18.834,-18.837,-18.845,-18.852,-18.848,-18.837,-18.828,-18.837,-18.832,-18.86,-18.827,-18.84,-18.884,-18.926,-18.946,-18.851,-18.674,-18.43,-18.136,-17.775,-17.503,-17.478,-17.859,-18.327,-18.726,-18.935,-18.909,-18.886,-18.831,-18.789,-18.753,-18.757,-18.759,-18.767,-18.777,-18.78,-18.749,-18.758,-18.754,-18.765,-18.752,-18.75,-18.748,-18.735,-18.753,-18.722,-18.719,-18.724,-18.727,-18.722,-18.712,-18.702,-18.704,-18.699,-18.696,-18.678,-18.669,-18.666,-18.654,-18.665,-18.65,-18.634,-18.624,-18.607,-18.609,-18.574,-18.58,-18.551,-18.545,-18.525,-18.511,-18.49,-18.469,-18.46,-18.443,-18.437,-18.411,-18.384,-18.381,-18.366,-18.358,-18.346,-18.325,-18.33,-18.321,-18.343,-18.34,-18.344,-18.367,-18.402,-18.453,-18.469,-18.5,-18.539,-18.552,-18.593,-18.635,-18.657,-18.688,-18.698,-18.723,-18.745,-18.746,-18.748,-18.756,-18.77,-18.783,-18.776,-18.77,-18.776,-18.782,-18.781,-18.776,-18.783,-18.787,-18.761,-18.777,-18.76,-18.77,-18.771,-18.761,-18.764,-18.763,-18.75,-18.759,-18.759,-18.757,-18.753,-18.754,-18.753,-18.745,-18.748,-18.755,-18.734,-18.737,-18.742,-18.742,-18.752,-18.746,-18.738,-18.749,-18.746,-18.755,-18.75,-18.736,-18.755,-18.756,-18.754,-18.75,-18.76,-18.756,-18.746,-18.76,-18.756,-18.752,-18.751,-18.76,-18.765,-18.759,-18.74,-18.737,-18.755,-18.76,-18.766,-18.768,-18.756,-18.747,-18.76,-18.746,-18.75,-18.739,-18.732,-18.737,-18.734,-18.732,-18.725,-18.728,-18.689,-18.648,-18.635,-18.628,-18.649,-18.68,-18.7,-18.712,-18.697,-18.702,-18.71,-18.733,-18.754,-18.746,-18.754,-18.771,-18.767,-18.768,-18.749,-18.756,-18.757,-18.767,-18.777,-18.763,-18.757,-18.759,-18.766,-18.769,-18.77,-18.753,-18.764,-18.77,-18.814,-18.854,-18.817,-18.651,-18.44,-18.313,-18.054,-17.664,-17.419,-17.445,-17.846,-18.287,-18.654,-18.827,-18.829,-18.766,-18.721,-18.675,-18.678,-18.689,-18.693,-18.692,-18.691,-18.683,-18.688,-18.684,-18.689,-18.669,-18.654,-18.635,-18.645,-18.664,-18.646,-18.642,-18.639,-18.635,-18.632,-18.625,-18.606,-18.628,-18.612,-18.601,-18.602,-18.586,-18.567,-18.569,-18.572,-18.567,-18.544,-18.519,-18.518,-18.534,-18.509,-18.498,-18.486,-18.459,-18.448,-18.429,-18.404,-18.383,-18.381,-18.372,-18.34,-18.333,-18.297,-18.295,-18.27,-18.254,-18.268,-18.245,-18.229,-18.226,-18.228,-18.232,-18.228,-18.242,-18.252,-18.295,-18.308,-18.348,-18.389,-18.436,-18.48,-18.508,-18.539,-18.557,-18.569,-18.594,-18.606,-18.62,-18.641,-18.653,-18.664,-18.671,-18.668,-18.662,-18.687,-18.675,-18.685,-18.665,-18.667,-18.676,-18.676,-18.679,-18.66,-18.66,-18.655,-18.666,-18.668,-18.654,-18.669,-18.655,-18.648,-18.653,-18.645,-18.639,-18.647,-18.645,-18.648,-18.643,-18.638,-18.64,-18.638,-18.638,-18.645,-18.644,-18.635,-18.634,-18.646,-18.66,-18.658,-18.651,-18.652,-18.668,-18.662,-18.645,-18.656,-18.648,-18.669,-18.659,-18.66,-18.671,-18.669,-18.674,-18.693,-18.683,-18.688,-18.679,-18.668,-18.701,-18.707,-18.689,-18.691,-18.685,-18.69,-18.705,-18.699,-18.704,-18.703,-18.71,-18.703,-18.702,-18.693,-18.704,-18.704,-18.698,-18.689,-18.702,-18.702,-18.715,-18.714,-18.711,-18.706,-18.706,-18.701,-18.725,-18.728,-18.706,-18.714,-18.709,-18.708,-18.723,-18.708,-18.709,-18.718,-18.713,-18.714,-18.701,-18.702,-18.711,-18.715,-18.717,-18.711,-18.712,-18.717,-18.707,-18.699,-18.703,-18.71,-18.709,-18.71,-18.727,-18.71,-18.705,-18.703,-18.701,-18.705,-18.698,-18.692,-18.689,-18.701,-18.698,-18.683,-18.668,-18.664,-18.656,-18.654,-18.636,-18.584,-18.58,-18.608,-18.657,-18.65,-18.634,-18.629,-18.648,-18.656,-18.661,-18.664,-18.678,-18.691,-18.705,-18.715,-18.709,-18.703,-18.724,-18.717,-18.726,-18.723,-18.719,-18.719,-18.727,-18.721,-18.733,-18.72,-18.72,-18.729,-18.723,-18.732,-18.741,-18.799,-18.803,-18.722,-18.528,-18.308,-18.055,-17.713,-17.427,-17.427,-17.767,-18.221,-18.575,-18.822,-18.807,-18.743,-18.672,-18.661,-18.644,-18.651,-18.673,-18.658,-18.649,-18.653,-18.66,-18.645,-18.64,-18.638,-18.638,-18.634,-18.628,-18.624,-18.624,-18.622,-18.627,-18.618,-18.615,-18.606,-18.598,-18.609,-18.593,-18.586,-18.588,-18.564,-18.567,-18.55,-18.534,-18.533,-18.522,-18.528,-18.519,-18.496,-18.486,-18.477,-18.463,-18.449,-18.443,-18.419,-18.419,-18.388,-18.371,-18.343,-18.326,-18.313,-18.308,-18.283,-18.27,-18.241,-18.24,-18.227,-18.226,-18.214,-18.198,-18.19,-18.186,-18.203,-18.209,-18.221,-18.225,-18.254,-18.307,-18.328,-18.358,-18.413,-18.435,-18.49,-18.52,-18.545,-18.568,-18.594,-18.602,-18.64,-18.639,-18.637,-18.648,-18.655,-18.657,-18.664,-18.661,-18.654,-18.648,-18.663,-18.662,-18.661,-18.669,-18.668,-18.662,-18.663,-18.653,-18.657,-18.652,-18.66,-18.644,-18.654,-18.64,-18.638,-18.644,-18.641,-18.645,-18.646,-18.646,-18.65,-18.646,-18.634,-18.625,-18.648,-18.66,-18.644,-18.636,-18.636,-18.654,-18.663,-18.663,-18.665,-18.673,-18.664,-18.662,-18.674,-18.674,-18.661,-18.668,-18.676,-18.675,-18.68,-18.668,-18.664,-18.692,-18.669,-18.681,-18.677,-18.673,-18.686,-18.683,-18.679,-18.679,-18.683,-18.672,-18.676,-18.683,-18.68,-18.673,-18.675,-18.677,-18.677,-18.685,-18.673,-18.689,-18.693,-18.689,-18.681,-18.684,-18.681,-18.688,-18.691,-18.681,-18.68,-18.686,-18.687,-18.689,-18.687,-18.672,-18.667,-18.695,-18.704,-18.688,-18.674,-18.675,-18.671,-18.673,-18.685,-18.675,-18.676,-18.684,-18.684,-18.688,-18.679,-18.679,-18.676,-18.676,-18.675,-18.672,-18.672,-18.66,-18.669,-18.671,-18.638,-18.624,-18.599,-18.577,-18.58,-18.588,-18.604,-18.625,-18.628,-18.631,-18.641,-18.646,-18.649,-18.654,-18.672,-18.688,-18.693,-18.695,-18.71,-18.724,-18.727,-18.715,-18.719,-18.71,-18.713,-18.727,-18.731,-18.723,-18.721,-18.723,-18.721,-18.722,-18.702,-18.695,-18.718,-18.747,-18.786,-18.812,-18.776,-18.661,-18.44,-18.202,-17.942,-17.538,-17.375,-17.557,-17.984,-18.41,-18.728,-18.831,-18.794,-18.739,-18.657,-18.647,-18.651,-18.68,-18.685,-18.685,-18.662,-18.688,-18.682,-18.681,-18.668,-18.67,-18.678,-18.676,-18.663,-18.68,-18.663,-18.657,-18.659,-18.662,-18.661,-18.647,-18.642,-18.642,-18.641,-18.651,-18.634,-18.612,-18.617,-18.613,-18.612,-18.585,-18.581,-18.595,-18.568,-18.55,-18.533,-18.521,-18.523,-18.516,-18.497,-18.473,-18.476,-18.453,-18.429,-18.417,-18.409,-18.383,-18.363,-18.334,-18.332,-18.312,-18.309,-18.283,-18.28,-18.284,-18.275,-18.278,-18.258,-18.292,-18.312,-18.335,-18.35,-18.374,-18.411,-18.453,-18.5,-18.532,-18.565,-18.594,-18.65,-18.661,-18.685,-18.699,-18.728,-18.743,-18.741,-18.76,-18.755,-18.768,-18.777,-18.772,-18.779,-18.762,-18.769,-18.771,-18.776,-18.783,-18.766,-18.764,-18.764,-18.762,-18.756,-18.748,-18.757,-18.763,-18.772,-18.76,-18.744,-18.74,-18.751,-18.743,-18.747,-18.752,-18.733,-18.746,-18.749,-18.754,-18.739,-18.736,-18.763,-18.754,-18.766,-18.754,-18.75,-18.762,-18.768,-18.785,-18.763,-18.747,-18.764,-18.761,-18.754,-18.775,-18.768,-18.771,-18.776,-18.788,-18.784,-18.772,-18.789,-18.777,-18.782,-18.797,-18.781,-18.781,-18.789,-18.795,-18.783,-18.787,-18.788,-18.799,-18.802,-18.804,-18.805,-18.783,-18.793,-18.795,-18.801,-18.802,-18.802,-18.809,-18.803,-18.813,-18.809,-18.796,-18.803,-18.809,-18.802,-18.807,-18.815,-18.798,-18.802,-18.812,-18.801,-18.805,-18.803,-18.794,-18.812,-18.802,-18.803,-18.794,-18.788,-18.804,-18.783,-18.776,-18.764,-18.746,-18.717,-18.707,-18.706,-18.737,-18.749,-18.753,-18.763,-18.765,-18.773,-18.775,-18.79,-18.823,-18.838,-18.829,-18.844,-18.847,-18.84,-18.838,-18.834,-18.84,-18.844,-18.853,-18.843,-18.837,-18.832,-18.849,-18.849,-18.856,-18.856,-18.839,-18.844,-18.856,-18.86,-18.898,-18.948,-18.931,-18.799,-18.577,-18.305,-18.004,-17.631,-17.515,-17.686,-18.097,-18.307,-18.691,-18.963,-18.932,-18.906,-18.81,-18.79,-18.763,-18.775,-18.766,-18.782,-18.767,-18.792,-18.777,-18.786,-18.755,-18.771,-18.764,-18.766,-18.756,-18.767,-18.73,-18.746,-18.747,-18.766,-18.743,-18.725,-18.722,-18.738,-18.72,-18.718,-18.703,-18.693,-18.698,-18.695,-18.679,-18.676,-18.662,-18.663,-18.644,-18.64,-18.63,-18.605,-18.578,-18.576,-18.571,-18.555,-18.539,-18.518,-18.518,-18.496,-18.483,-18.45,-18.426,-18.422,-18.424,-18.401,-18.384,-18.372,-18.363,-18.359,-18.354,-18.347,-18.349,-18.355,-18.397,-18.402,-18.428,-18.446,-18.497,-18.532,-18.583,-18.607,-18.663,-18.677,-18.716,-18.74,-18.76,-18.764,-18.789,-18.808,-18.81,-18.817,-18.812,-18.814,-18.824,-18.831,-18.821,-18.828,-18.831,-18.838,-18.84,-18.83,-18.838,-18.82,-18.83,-18.836,-18.809,-18.803,-18.822,-18.813,-18.822,-18.815,-18.806,-18.805,-18.808,-18.805,-18.819,-18.804,-18.806,-18.816,-18.815,-18.82,-18.81,-18.798,-18.807,-18.818,-18.819,-18.813,-18.807,-18.806,-18.819,-18.829,-18.836,-18.827,-18.824,-18.825,-18.828,-18.833,-18.824,-18.83,-18.832,-18.838,-18.835,-18.828,-18.823,-18.836,-18.844,-18.836,-18.824,-18.827,-18.84,-18.859,-18.842,-18.844,-18.839,-18.843,-18.841,-18.846,-18.843,-18.828,-18.844,-18.844,-18.852,-18.848,-18.842,-18.837,-18.827,-18.839,-18.817,-18.807,-18.81,-18.813,-18.779,-18.761,-18.733,-18.72,-18.751,-18.769,-18.785,-18.772,-18.784,-18.788,-18.814,-18.833,-18.837,-18.866,-18.855,-18.86,-18.853,-18.861,-18.862,-18.862,-18.869,-18.874,-18.867,-18.86,-18.862,-18.863,-18.867,-18.875,-18.868,-18.865,-18.888,-18.863,-18.877,-18.899,-18.951,-18.92,-18.748,-18.51,-18.363,-18.109,-17.701,-17.536,-17.598,-18.006,-18.433,-18.805,-18.946,-18.939,-18.875,-18.816,-18.785,-18.786,-18.804,-18.777,-18.79,-18.772,-18.796,-18.791,-18.791,-18.771,-18.77,-18.778,-18.781,-18.767,-18.761,-18.75,-18.756,-18.757,-18.756,-18.74,-18.731,-18.718,-18.728,-18.722,-18.715,-18.716,-18.708,-18.702,-18.693,-18.676,-18.662,-18.648,-18.661,-18.659,-18.629,-18.6,-18.601,-18.593,-18.57,-18.551,-18.535,-18.523,-18.511,-18.489,-18.467,-18.44,-18.428,-18.428,-18.409,-18.391,-18.364,-18.363,-18.355,-18.352,-18.328,-18.333,-18.344,-18.333,-18.36,-18.384,-18.393,-18.443,-18.478,-18.524,-18.545,-18.576,-18.608,-18.655,-18.669,-18.701,-18.715,-18.735,-18.753,-18.766,-18.773,-18.783,-18.781,-18.784,-18.795,-18.792,-18.793,-18.798,-18.795,-18.814,-18.805,-18.788,-18.775,-18.779,-18.787,-18.798,-18.784,-18.776,-18.776,-18.774,-18.777,-18.774,-18.772,-18.748,-18.766,-18.751,-18.77,-18.765,-18.759,-18.765,-18.764,-18.761,-18.762,-18.737,-18.756,-18.758,-18.754,-18.757,-18.76,-18.773,-18.77,-18.776,-18.765,-18.77,-18.777,-18.764,-18.777,-18.777,-18.769,-18.771,-18.776,-18.776,-18.782,-18.779,-18.789,-18.789,-18.785,-18.772,-18.77,-18.771,-18.77,-18.778,-18.792,-18.781,-18.774,-18.77,-18.776,-18.782,-18.77,-18.771,-18.778,-18.776,-18.786,-18.775,-18.763,-18.767,-18.764,-18.771,-18.762,-18.75,-18.746,-18.773,-18.772,-18.778,-18.765,-18.763,-18.771,-18.769,-18.767,-18.747,-18.761,-18.759,-18.748,-18.753,-18.746,-18.736,-18.743,-18.732,-18.722,-18.716,-18.68,-18.665,-18.656,-18.64,-18.651,-18.673,-18.696,-18.711,-18.714,-18.698,-18.701,-18.746,-18.767,-18.761,-18.769,-18.77,-18.767,-18.778,-18.786,-18.775,-18.77,-18.78,-18.782,-18.79,-18.791,-18.773,-18.778,-18.777,-18.781,-18.775,-18.774,-18.794,-18.835,-18.866,-18.791,-18.72,-18.508,-18.271,-18.021,-17.641,-17.445,-17.53,-17.951,-18.392,-18.748,-18.879,-18.846,-18.786,-18.717,-18.702,-18.68,-18.703,-18.7,-18.709,-18.698,-18.708,-18.706,-18.711,-18.695,-18.693,-18.697,-18.69,-18.687,-18.69,-18.676,-18.668,-18.65,-18.643,-18.651,-18.661,-18.655,-18.644,-18.639,-18.646,-18.611,-18.615,-18.611,-18.59,-18.603,-18.587,-18.569,-18.561,-18.551,-18.544,-18.538,-18.523,-18.499,-18.477,-18.468,-18.457,-18.429,-18.415,-18.383,-18.364,-18.365,-18.367,-18.341,-18.306,-18.299,-18.284,-18.275,-18.262,-18.244,-18.245,-18.25,-18.254,-18.26,-18.251,-18.274,-18.296,-18.335,-18.373,-18.409,-18.419,-18.477,-18.497,-18.525,-18.571,-18.585,-18.623,-18.65,-18.666,-18.687,-18.701,-18.688,-18.707,-18.712,-18.728,-18.71,-18.721,-18.733,-18.74,-18.738,-18.728,-18.733,-18.722,-18.732,-18.712,-18.725,-18.702,-18.725,-18.714,-18.723,-18.71,-18.721,-18.72,-18.715,-18.713,-18.727,-18.725,-18.714,-18.712,-18.718,-18.71,-18.707,-18.707,-18.706,-18.71,-18.711,-18.703,-18.704,-18.709,-18.714,-18.714,-18.716,-18.707,-18.729,-18.718,-18.732,-18.72,-18.714,-18.733,-18.737,-18.734,-18.717,-18.732,-18.729,-18.73,-18.741,-18.726,-18.727,-18.732,-18.726,-18.74,-18.742,-18.736,-18.744,-18.738,-18.744,-18.736,-18.714,-18.74,-18.749,-18.756,-18.741,-18.737,-18.727,-18.724,-18.751,-18.738,-18.737,-18.738,-18.742,-18.744,-18.736,-18.738,-18.728,-18.754,-18.744,-18.751,-18.728,-18.732,-18.733,-18.756,-18.739,-18.74,-18.737,-18.737,-18.748,-18.752,-18.735,-18.749,-18.74,-18.74,-18.757,-18.746,-18.757,-18.746,-18.751,-18.762,-18.724,-18.733,-18.729,-18.734,-18.738,-18.735,-18.724,-18.711,-18.707,-18.708,-18.688,-18.662,-18.631,-18.64,-18.667,-18.69,-18.681,-18.682,-18.703,-18.722,-18.706,-18.692,-18.722,-18.737,-18.772,-18.769,-18.772,-18.754,-18.761,-18.759,-18.781,-18.787,-18.768,-18.775,-18.783,-18.79,-18.782,-18.77,-18.784,-18.793,-18.794,-18.785,-18.784,-18.826,-18.858,-18.818,-18.751,-18.554,-18.306,-18.052,-17.676,-17.468,-17.524,-17.908,-18.365,-18.739,-18.881,-18.863,-18.785,-18.715,-18.691,-18.695,-18.709,-18.714,-18.713,-18.709,-18.716,-18.716,-18.708,-18.694,-18.709,-18.698,-18.682,-18.672,-18.689,-18.679,-18.685,-18.677,-18.672,-18.667,-18.681,-18.661,-18.648,-18.625,-18.641,-18.628,-18.637,-18.637,-18.621,-18.603,-18.599,-18.59,-18.589,-18.581,-18.551,-18.534,-18.535,-18.527,-18.523,-18.479,-18.472,-18.45,-18.441,-18.423,-18.397,-18.38,-18.365,-18.366,-18.338,-18.308,-18.297,-18.296,-18.278,-18.277,-18.264,-18.231,-18.244,-18.263,-18.269,-18.277,-18.299,-18.336,-18.367,-18.404,-18.436,-18.476,-18.501,-18.547,-18.58,-18.609,-18.639,-18.66,-18.679,-18.689,-18.696,-18.711,-18.732,-18.741,-18.743,-18.749,-18.738,-18.757,-18.745,-18.75,-18.754,-18.744,-18.745,-18.761,-18.764,-18.753,-18.739,-18.742,-18.744,-18.75,-18.744,-18.751,-18.743,-18.727,-18.731,-18.75,-18.744,-18.745,-18.751,-18.744,-18.751,-18.743,-18.74,-18.734,-18.75,-18.751,-18.754,-18.742,-18.746,-18.741,-18.761,-18.756,-18.761,-18.773,-18.745,-18.771,-18.759,-18.775,-18.777,-18.769,-18.778,-18.783,-18.783,-18.782,-18.786,-18.774,-18.793,-18.786,-18.775,-18.789,-18.783,-18.791,-18.785,-18.784,-18.793,-18.799,-18.798,-18.807,-18.8,-18.786,-18.793,-18.8,-18.802,-18.797,-18.812,-18.812,-18.813,-18.808,-18.804,-18.804,-18.822,-18.828,-18.805,-18.813,-18.813,-18.828,-18.836,-18.821,-18.819,-18.817,-18.823,-18.833,-18.826,-18.827,-18.811,-18.825,-18.822,-18.824,-18.831,-18.818,-18.829,-18.824,-18.819,-18.82,-18.801,-18.81,-18.803,-18.78,-18.769,-18.765,-18.74,-18.72,-18.725,-18.731,-18.749,-18.758,-18.764,-18.77,-18.781,-18.774,-18.782,-18.807,-18.832,-18.841,-18.841,-18.844,-18.841,-18.837,-18.839,-18.846,-18.839,-18.843,-18.858,-18.859,-18.85,-18.842,-18.84,-18.845,-18.849,-18.855,-18.845,-18.837,-18.853,-18.898,-18.955,-18.914,-18.78,-18.546,-18.287,-18.002,-17.634,-17.515,-17.701,-17.917,-18.332,-18.743,-18.949,-18.938,-18.876,-18.836,-18.754,-18.748,-18.757,-18.773,-18.78,-18.77,-18.779,-18.771,-18.761,-18.769,-18.76,-18.753,-18.752,-18.74,-18.742,-18.738,-18.727,-18.72,-18.728,-18.728,-18.731,-18.713,-18.713,-18.7,-18.687,-18.692,-18.686,-18.681,-18.663,-18.666,-18.67,-18.63,-18.631,-18.623,-18.615,-18.615,-18.596,-18.577,-18.56,-18.548,-18.53,-18.515,-18.494,-18.48,-18.462,-18.455,-18.437,-18.412,-18.395,-18.378,-18.368,-18.356,-18.331,-18.317,-18.318,-18.344,-18.317,-18.319,-18.322,-18.345,-18.372,-18.398,-18.424,-18.457,-18.496,-18.537,-18.576,-18.6,-18.64,-18.681,-18.701,-18.703,-18.735,-18.742,-18.735,-18.771,-18.779,-18.768,-18.765,-18.777,-18.782,-18.786,-18.787,-18.785,-18.787,-18.797,-18.784,-18.764,-18.764,-18.775,-18.78,-18.778,-18.776,-18.761,-18.753,-18.768,-18.765,-18.755,-18.75,-18.756,-18.76,-18.774,-18.77,-18.755,-18.753,-18.75,-18.758,-18.757,-18.76,-18.755,-18.742,-18.744,-18.757,-18.763,-18.765,-18.755,-18.766,-18.768,-18.77,-18.763,-18.765,-18.773,-18.778,-18.78,-18.762,-18.783,-18.777,-18.778,-18.775,-18.762,-18.769,-18.776,-18.781,-18.794,-18.792,-18.777,-18.769,-18.77,-18.771,-18.778,-18.776,-18.777,-18.79,-18.795,-18.778,-18.767,-18.782,-18.784,-18.791,-18.792,-18.771,-18.758,-18.767,-18.758,-18.758,-18.76,-18.757,-18.73,-18.732,-18.714,-18.683,-18.666,-18.657,-18.689,-18.702,-18.705,-18.711,-18.723,-18.734,-18.74,-18.738,-18.768,-18.785,-18.79,-18.803,-18.802,-18.785,-18.791,-18.808,-18.799,-18.799,-18.794,-18.802,-18.797,-18.811,-18.802,-18.791,-18.794,-18.807,-18.802,-18.793,-18.798,-18.853,-18.906,-18.89,-18.787,-18.587,-18.344,-18.034,-17.654,-17.48,-17.509,-17.912,-18.333,-18.742,-18.918,-18.881,-18.83,-18.768,-18.741,-18.707,-18.714,-18.709,-18.729,-18.718,-18.745,-18.729,-18.737,-18.72,-18.728,-18.711,-18.716,-18.705,-18.708,-18.685,-18.718,-18.677,-18.687,-18.681,-18.678,-18.68,-18.676,-18.647,-18.668,-18.663,-18.646,-18.643,-18.636,-18.625,-18.611,-18.606,-18.602,-18.592,-18.572,-18.556,-18.544,-18.535,-18.507,-18.489,-18.49,-18.478,-18.461,-18.431,-18.401,-18.389,-18.389,-18.371,-18.369,-18.35,-18.324,-18.315,-18.302,-18.297,-18.293,-18.279,-18.269,-18.291,-18.301,-18.312,-18.344,-18.387,-18.417,-18.464,-18.493,-18.512,-18.542,-18.582,-18.623,-18.646,-18.661,-18.691,-18.698,-18.716,-18.725,-18.748,-18.745,-18.752,-18.76,-18.753,-18.751,-18.757,-18.765,-18.783,-18.755,-18.76,-18.759,-18.761,-18.756,-18.763,-18.754,-18.746,-18.749,-18.764,-18.752,-18.747,-18.744,-18.73,-18.746,-18.748,-18.748,-18.744,-18.734,-18.745,-18.749,-18.739,-18.734,-18.728,-18.733,-18.739,-18.74,-18.744,-18.741,-18.758,-18.752,-18.75,-18.748,-18.745,-18.75,-18.765,-18.752,-18.755,-18.753,-18.77,-18.769,-18.771,-18.754,-18.764,-18.754,-18.773,-18.787,-18.772,-18.766,-18.759,-18.768,-18.778,-18.775,-18.772,-18.772,-18.785,-18.772,-18.772,-18.774,-18.769,-18.77,-18.773,-18.773,-18.777,-18.772,-18.778,-18.792,-18.784,-18.782,-18.784,-18.775,-18.777,-18.782,-18.761,-18.769,-18.766,-18.79,-18.795,-18.784,-18.766,-18.781,-18.775,-18.773,-18.755,-18.757,-18.754,-18.76,-18.736,-18.742,-18.724,-18.693,-18.668,-18.671,-18.682,-18.682,-18.706,-18.715,-18.73,-18.735,-18.734,-18.746,-18.769,-18.783,-18.8,-18.796,-18.79,-18.802,-18.805,-18.805,-18.797,-18.796,-18.792,-18.815,-18.816,-18.809,-18.806,-18.805,-18.809,-18.806,-18.798,-18.816,-18.87,-18.896,-18.872,-18.756,-18.543,-18.295,-18.023,-17.637,-17.463,-17.589,-17.985,-18.422,-18.779,-18.901,-18.859,-18.802,-18.737,-18.739,-18.727,-18.744,-18.731,-18.747,-18.732,-18.753,-18.739,-18.734,-18.714,-18.72,-18.721,-18.728,-18.704,-18.713,-18.708,-18.702,-18.687,-18.697,-18.694,-18.691,-18.676,-18.686,-18.683,-18.679,-18.661,-18.665,-18.662,-18.646,-18.62,-18.616,-18.619,-18.605,-18.594,-18.565,-18.563,-18.56,-18.548,-18.537,-18.513,-18.509,-18.475,-18.463,-18.447,-18.435,-18.398,-18.391,-18.391,-18.356,-18.34,-18.334,-18.341,-18.321,-18.309,-18.286,-18.279,-18.286,-18.304,-18.32,-18.329,-18.359,-18.399,-18.439,-18.469,-18.486,-18.515,-18.556,-18.599,-18.643,-18.676,-18.688,-18.709,-18.731,-18.745,-18.752,-18.756,-18.776,-18.797,-18.779,-18.794,-18.783,-18.798,-18.796,-18.793,-18.779,-18.804,-18.793,-18.802,-18.794,-18.78,-18.778,-18.791,-18.778,-18.798,-18.79,-18.781,-18.774,-18.787,-18.789,-18.78,-18.775,-18.782,-18.762,-18.78,-18.777,-18.782,-18.778,-18.78,-18.779,-18.767,-18.79,-18.791,-18.783,-18.781,-18.788,-18.79,-18.773,-18.785,-18.797,-18.806,-18.801,-18.797,-18.798,-18.801,-18.805,-18.814,-18.801,-18.801,-18.81,-18.815,-18.812,-18.796,-18.805,-18.813,-18.826,-18.813,-18.81,-18.811,-18.82,-18.822,-18.819,-18.824,-18.813,-18.817,-18.818,-18.823,-18.826,-18.826,-18.824,-18.825,-18.825,-18.822,-18.818,-18.822,-18.846,-18.847,-18.845,-18.838,-18.828,-18.83,-18.832,-18.837,-18.827,-18.828,-18.817,-18.834,-18.852,-18.837,-18.84,-18.846,-18.842,-18.838,-18.853,-18.845,-18.825,-18.845,-18.84,-18.829,-18.849,-18.847,-18.857,-18.843,-18.836,-18.847,-18.827,-18.832,-18.843,-18.822,-18.813,-18.776,-18.766,-18.74,-18.746,-18.768,-18.799,-18.798,-18.808,-18.802,-18.802,-18.799,-18.817,-18.841,-18.852,-18.852,-18.865,-18.879,-18.879,-18.891,-18.868,-18.869,-18.874,-18.886,-18.885,-18.868,-18.877,-18.872,-18.872,-18.876,-18.873,-18.87,-18.866,-18.896,-18.959,-18.962,-18.849,-18.762,-18.552,-18.312,-18.025,-17.616,-17.533,-17.756,-18.205,-18.594,-18.889,-18.959,-18.912,-18.843,-18.792,-18.785,-18.786,-18.801,-18.796,-18.806,-18.802,-18.792,-18.785,-18.808,-18.791,-18.788,-18.776,-18.788,-18.788,-18.781,-18.77,-18.754,-18.765,-18.757,-18.755,-18.751,-18.738,-18.74,-18.74,-18.734,-18.716,-18.71,-18.715,-18.703,-18.706,-18.682,-18.675,-18.672,-18.648,-18.641,-18.629,-18.624,-18.593,-18.585,-18.585,-18.55,-18.526,-18.511,-18.499,-18.479,-18.475,-18.456,-18.435,-18.423,-18.402,-18.388,-18.369,-18.366,-18.349,-18.343,-18.356,-18.337,-18.351,-18.357,-18.383,-18.413,-18.438,-18.468,-18.516,-18.562,-18.599,-18.627,-18.639,-18.678,-18.713,-18.765,-18.782,-18.786,-18.785,-18.816,-18.81,-18.817,-18.836,-18.847,-18.841,-18.847,-18.847,-18.836,-18.831,-18.837,-18.844,-18.845,-18.845,-18.833,-18.831,-18.837,-18.835,-18.841,-18.82,-18.817,-18.822,-18.83,-18.826,-18.796,-18.812,-18.824,-18.813,-18.82,-18.822,-18.829,-18.834,-18.841,-18.818,-18.815,-18.81,-18.807,-18.831,-18.82,-18.807,-18.813,-18.811,-18.816,-18.841,-18.834,-18.835,-18.842,-18.842,-18.855,-18.845,-18.847,-18.829,-18.836,-18.847,-18.844,-18.836,-18.851,-18.845,-18.844,-18.854,-18.84,-18.833,-18.839,-18.843,-18.857,-18.855,-18.84,-18.857,-18.86,-18.857,-18.871,-18.861,-18.848,-18.848,-18.863,-18.85,-18.847,-18.861,-18.875,-18.865,-18.884,-18.857,-18.854,-18.86,-18.869,-18.878,-18.863,-18.857,-18.859,-18.883,-18.872,-18.862,-18.858,-18.877,-18.871,-18.893,-18.867,-18.875,-18.863,-18.868,-18.881,-18.884,-18.872,-18.878,-18.881,-18.885,-18.878,-18.873,-18.871,-18.87,-18.854,-18.86,-18.853,-18.845,-18.848,-18.845,-18.806,-18.774,-18.766,-18.783,-18.813,-18.835,-18.826,-18.832,-18.845,-18.856,-18.852,-18.874,-18.885,-18.906,-18.906,-18.911,-18.914,-18.914,-18.931,-18.911,-18.927,-18.936,-18.934,-18.919,-18.941,-18.928,-18.929,-18.921,-18.934,-18.932,-18.927,-18.939,-18.947,-18.986,-19.037,-18.961,-18.789,-18.678,-18.45,-18.162,-17.794,-17.616,-17.738,-18.135,-18.58,-18.941,-19.047,-18.994,-18.929,-18.86,-18.867,-18.857,-18.878,-18.864,-18.889,-18.874,-18.875,-18.859,-18.871,-18.862,-18.871,-18.853,-18.859,-18.836,-18.855,-18.847,-18.857,-18.833,-18.831,-18.827,-18.826,-18.821,-18.819,-18.791,-18.798,-18.794,-18.794,-18.795,-18.773,-18.765,-18.759,-18.745,-18.747,-18.746,-18.726,-18.707,-18.702,-18.686,-18.66,-18.659,-18.641,-18.611,-18.597,-18.586,-18.559,-18.545,-18.531,-18.522,-18.5,-18.462,-18.439,-18.46,-18.457,-18.449,-18.44,-18.431,-18.414,-18.406,-18.418,-18.431,-18.466,-18.508,-18.545,-18.566,-18.592,-18.649,-18.69,-18.716,-18.735,-18.776,-18.798,-18.832,-18.854,-18.868,-18.868,-18.859,-18.887,-18.915,-18.91,-18.916,-18.905,-18.916,-18.897,-18.918,-18.903,-18.905,-18.913,-18.913,-18.915,-18.897,-18.882,-18.9,-18.898,-18.911,-18.909,-18.893,-18.904,-18.88,-18.892,-18.889,-18.873,-18.888,-18.885,-18.895,-18.891,-18.879,-18.87,-18.875,-18.879,-18.886,-18.894,-18.897,-18.884,-18.9,-18.891,-18.891,-18.882,-18.89,-18.888,-18.911,-18.914,-18.888,-18.909,-18.914,-18.907,-18.896,-18.902,-18.9,-18.924,-18.921,-18.91,-18.894,-18.909,-18.915,-18.921,-18.915,-18.911,-18.918,-18.923,-18.924,-18.918,-18.913,-18.908,-18.914,-18.933,-18.931,-18.922,-18.929,-18.913,-18.916,-18.91,-18.919,-18.903,-18.914,-18.916,-18.931,-18.923,-18.92,-18.923,-18.927,-18.919,-18.918,-18.92,-18.895,-18.911,-18.916,-18.908,-18.901,-18.901,-18.886,-18.89,-18.888,-18.843,-18.813,-18.813,-18.833,-18.875,-18.867,-18.853,-18.872,-18.867,-18.877,-18.883,-18.906,-18.923,-18.94,-18.943,-18.93,-18.933,-18.936,-18.957,-18.955,-18.944,-18.942,-18.942,-18.94,-18.948,-18.939,-18.954,-18.937,-18.943,-18.95,-18.957,-18.945,-18.992,-19.037,-19.047,-18.992,-18.84,-18.592,-18.315,-17.972,-17.665,-17.595,-17.872,-18.306,-18.74,-19.034,-19.04,-18.976,-18.934,-18.885,-18.876,-18.853,-18.853,-18.859,-18.885,-18.879,-18.874,-18.866,-18.859,-18.88,-18.866,-18.869,-18.848,-18.841,-18.848,-18.842,-18.838,-18.824,-18.822,-18.818,-18.828,-18.833,-18.814,-18.805,-18.799,-18.784,-18.78,-18.77,-18.771,-18.759,-18.772,-18.756,-18.735,-18.717,-18.709,-18.713,-18.689,-18.673,-18.659,-18.643,-18.646,-18.617,-18.589,-18.571,-18.546,-18.54,-18.53,-18.486,-18.488,-18.476,-18.461,-18.46,-18.448,-18.435,-18.418,-18.417,-18.416,-18.441,-18.44,-18.462,-18.483,-18.517,-18.562,-18.602,-18.632,-18.663,-18.682,-18.75,-18.757,-18.78,-18.809,-18.832,-18.843,-18.868,-18.872,-18.87,-18.869,-18.876,-18.884,-18.897,-18.89,-18.891,-18.896,-18.892,-18.886,-18.885,-18.879,-18.879,-18.896,-18.877,-18.873,-18.865,-18.868,-18.877,-18.882,-18.87,-18.866,-18.856,-18.853,-18.856,-18.851,-18.858,-18.865,-18.852,-18.848,-18.843,-18.85,-18.853,-18.864,-18.852,-18.84,-18.847,-18.858,-18.864,-18.848,-18.856,-18.871,-18.853,-18.847,-18.862,-18.852,-18.862,-18.862,-18.86,-18.864,-18.862,-18.858,-18.863,-18.862,-18.863,-18.853,-18.846,-18.854,-18.871,-18.887,-18.854,-18.839,-18.852,-18.857,-18.857,-18.853,-18.847,-18.846,-18.845,-18.854,-18.867,-18.854,-18.848,-18.847,-18.852,-18.855,-18.87,-18.857,-18.866,-18.845,-18.845,-18.849,-18.84,-18.831,-18.841,-18.837,-18.82,-18.8,-18.791,-18.766,-18.76,-18.75,-18.737,-18.745,-18.768,-18.79,-18.802,-18.787,-18.784,-18.786,-18.815,-18.834,-18.843,-18.849,-18.859,-18.884,-18.862,-18.856,-18.863,-18.874,-18.881,-18.871,-18.858,-18.86,-18.864,-18.86,-18.857,-18.852,-18.845,-18.842,-18.863,-18.886,-18.924,-18.944,-18.852,-18.66,-18.425,-18.173,-17.8,-17.532,-17.536,-17.694,-18.109,-18.514,-18.844,-18.949,-18.896,-18.846,-18.78,-18.758,-18.758,-18.782,-18.77,-18.785,-18.778,-18.793,-18.76,-18.765,-18.763,-18.749,-18.741,-18.744,-18.737,-18.742,-18.725,-18.715,-18.721,-18.729,-18.702,-18.71,-18.711,-18.702,-18.693,-18.683,-18.668,-18.672,-18.66,-18.648,-18.646,-18.627,-18.618,-18.622,-18.612,-18.601,-18.571,-18.545,-18.55,-18.559,-18.534,-18.484,-18.468,-18.46,-18.457,-18.432,-18.387,-18.375,-18.358,-18.352,-18.335,-18.315,-18.288,-18.29,-18.283,-18.302,-18.287
