3.1466,3.1346,3.1535,3.139,3.1332,3.1397,3.1399,3.147,3.1464,3.1845,3.1579,3.1455,3.147,3.1392,3.1702,3.1666,3.1571,3.1549,3.1464,3.1719,3.1575,3.1714,3.1724,3.175,3.1809,3.1764,3.1647,3.1829,3.2045,3.1893,3.2062,3.2088,3.2204,3.2033,3.2216,3.2507,3.2325,3.2424,3.2438,3.2595,3.2547,3.2684,3.2768,3.3056,3.3159,3.298,3.3087,3.3182,3.3347,3.3504,3.3701,3.3708,3.3856,3.3736,3.3846,3.385,3.3585,3.3374,3.3242,3.3207,3.3303,3.2812,3.2686,3.2474,3.228,3.2188,3.2117,3.1992,3.1929,3.1941,3.1723,3.1793,3.1725,3.1656,3.1662,3.1735,3.1737,3.1593,3.1455,3.1558,3.1606,3.1584,3.1682,3.1837,3.1522,3.1505,3.1621,3.1618,3.1626,3.1699,3.1753,3.1721,3.1596,3.1636,3.1589,3.1757,3.1715,3.1771,3.1934,3.1659,3.1638,3.1695,3.1647,3.1789,3.1722,3.1793,3.1844,3.158,3.1883,3.1592,3.1609,3.1712,3.1673,3.1719,3.157,3.1652,3.1717,3.1583,3.1789,3.1862,3.1685,3.1644,3.1508,3.1613,3.1638,3.1925,3.1716,3.1641,3.177,3.1786,3.1602,3.1611,3.1654,3.1497,3.1648,3.1759,3.1815,3.1905,3.1968,3.2075,3.214,3.2231,3.2274,3.209,3.2173,3.22,3.236,3.2434,3.2636,3.2172,3.2055,3.2033,3.2076,3.2082,3.188,3.153,3.1554,3.1658,3.1642,3.1411,3.1461,3.166,3.1449,3.1558,3.1464,3.1337,3.1393,3.1531,3.1515,3.1575,3.1641,3.1444,3.1534,3.1652,3.1518,3.1557,3.1583,3.1435,3.1741,3.1604,3.1718,3.2048,3.2679,3.356,3.4947,3.6544,3.7871,3.7316,3.4321,3.1153,2.9886,2.9768,2.9681,3.0289,3.1135,3.1901,3.1927,3.1971,3.1796,3.1927,3.1926,3.2009,3.2236,3.1979,3.1991,3.1963,3.185,3.1983,3.2068,3.2177,3.2051,3.2021,3.2138,3.2084,3.2019,3.2106,3.221,3.2118,3.2051,3.2066,3.2223,3.2244,3.2388,3.233,3.219,3.224,3.2295,3.2469,3.2513,3.254,3.2578,3.2699,3.2675,3.2719,3.2915,3.3043,3.2986,3.3271,3.3317,3.3314,3.3506,3.3635,3.3657,3.3806,3.3909,3.4002,3.4133,3.4032,3.405,3.4166,3.4174,3.4091,3.3909,3.3601,3.3433,3.3429,3.3196,3.2961,3.2622,3.2581,3.2634,3.226,3.2077,3.2001,3.2081,3.199,3.1883,3.1915,3.1793,3.17,3.159,3.1818,3.184,3.192,3.1917,3.1534,3.1498,3.1613,3.1762,3.1861,3.1801,3.124,3.1197,3.2005,3.1945,3.1834,3.1994,3.2051,3.1917,3.1981,3.1886,3.2019,3.2054,3.194,3.1963,3.1731,3.1985,3.1853,3.198,3.1955,3.157,3.1673,3.1731,3.1754,3.1803,3.1577,3.1505,3.1547,3.171,3.1726,3.1636,3.1668,3.1704,3.1597,3.1579,3.1651,3.1675,3.166,3.1823,3.1944,3.1853,3.2063,3.2199,3.2223,3.2115,3.2146,3.2161,3.2452,3.2562,3.2336,3.2374,3.2207,3.2088,3.211,3.2271,3.2015,3.1818,3.1676,3.1578,3.1497,3.1648,3.1609,3.1473,3.1533,3.1416,3.1494,3.1268,3.149,3.153,3.1542,3.1599,3.1749,3.168,3.1563,3.1404,3.1478,3.1422,3.1416,3.1466,3.1533,3.1742,3.1634,3.1604,3.1774,3.2302,3.3042,3.4015,3.5545,3.7255,3.7967,3.5769,3.3077,3.1563,3.0295,3.0273,3.0242,3.0502,3.1287,3.1845,3.2012,3.2071,3.1874,3.1914,3.1969,3.2138,3.2081,3.2153,3.208,3.2081,3.188,3.2091,3.2202,3.2082,3.206,3.213,3.2457,3.2286,3.2387,3.2323,3.2279,3.2252,3.2425,3.2373,3.2422,3.2469,3.2479,3.2376,3.2581,3.2562,3.2605,3.2691,3.2817,3.2866,3.2901,3.2913,3.2998,3.3265,3.3354,3.3345,3.3296,3.3469,3.3557,3.3559,3.3701,3.3761,3.3888,3.3854,3.3977,3.4052,3.409,3.4105,3.4189,3.4355,3.41,3.3955,3.3832,3.377,3.362,3.3427,3.3397,3.3093,3.2982,3.2893,3.2698,3.2528,3.2568,3.2414,3.2432,3.2305,3.217,3.2039,3.2105,3.2258,3.2108,3.2272,3.2103,3.2322,3.2095,3.2145,3.198,3.2241,3.2149,3.2242,3.2083,3.2333,3.2278,3.2225,3.223,3.2323,3.2224,3.2258,3.2343,3.2143,3.2061,3.2268,3.2139,3.2227,3.2214,3.2452,3.2444,3.2261,3.2413,3.2356,3.2067,3.2333,3.2381,3.2214,3.252,3.2063,3.209,3.2409,3.2646,3.2592,3.2793,3.2651,3.2875,3.2836,3.2814,3.2727,3.271,3.2852,3.2871,3.2957,3.3062,3.313,3.2477,3.2581,3.2647,3.2499,3.2428,3.2283,3.2108,3.2094,3.2285,3.2242,3.2287,3.2154,3.2076,3.2007,3.2356,3.2168,3.2313,3.2147,3.2156,3.2272,3.2045,3.1902,3.1894,3.2172,3.2231,3.2301,3.2375,3.2263,3.2338,3.2188,3.2388,3.2656,3.2982,3.3593,3.4953,3.6365,3.7811,3.8732,3.6556,3.3453,3.0833,3.0426,3.0696,3.0926,3.1957,3.2492,3.2773,3.2695,3.2872,3.2823,3.2748,3.2775,3.2693,3.2817,3.2926,3.2787,3.2905,3.2761,3.2955,3.2829,3.2733,3.2809,3.2935,3.3056,3.319,3.3168,3.3111,3.3107,3.3114,3.3033,3.3257,3.3282,3.3351,3.3137,3.3147,3.3433,3.3562,3.3455,3.3641,3.3558,3.3702,3.3742,3.3731,3.3877,3.4261,3.4264,3.4278,3.4113,3.4164,3.4631,3.4698,3.4622,3.4569,3.4697,3.4908,3.4982,3.4984,3.5078,3.5172,3.5022,3.5133,3.498,3.4941,3.4738,3.4466,3.4466,3.4231,3.402,3.3904,3.386,3.37,3.3553,3.3392,3.3349,3.3217,3.3245,3.3307,3.331,3.302,3.2979,3.3024,3.3221,3.3133,3.2973,3.2882,3.3004,3.299,3.3248,3.3133,3.3175,3.2849,3.3098,3.315,3.3262,3.3067,3.3048,3.3271,3.3213,3.3022,3.3168,3.3197,3.3183,3.3067,3.3002,3.3115,3.3237,3.3142,3.3223,3.3263,3.3219,3.3261,3.3273,3.328,3.3261,3.3138,3.3303,3.3285,3.3442,3.3436,3.3666,3.3499,3.3871,3.3896,3.396,3.3838,3.348,3.365,3.4018,3.3977,3.3882,3.399,3.3957,3.3621,3.363,3.3515,3.3357,3.3286,3.3013,3.3255,3.318,3.3124,3.3056,3.3043,3.3218,3.3184,3.2907,3.2998,3.2964,3.2996,3.3059,3.2999,3.3225,3.3085,3.3256,3.3219,3.3148,3.3163,3.3277,3.325,3.3187,3.313,3.3326,3.3864,3.4048,3.488,3.618,3.762,3.9018,3.962,3.8647,3.5582,3.2149,3.136,3.1418,3.1969,3.2672,3.3491,3.3607,3.3606,3.3733,3.3662,3.3707,3.3601,3.3552,3.3933,3.3688,3.3708,3.3718,3.3771,3.3724,3.3886,3.3801,3.3776,3.3893,3.3983,3.4007,3.4017,3.3803,3.3817,3.4207,3.4089,3.3987,3.4072,3.4181,3.4116,3.4211,3.4344,3.4328,3.4339,3.4294,3.4777,3.471,3.4671,3.4749,3.4879,3.4927,3.4973,3.5065,3.5153,3.5201,3.5566,3.5594,3.534,3.55,3.5742,3.5828,3.5847,3.5888,3.5866,3.5868,3.5961,3.5942,3.5929,3.5617,3.5522,3.5366,3.5329,3.4923,3.4929,3.4677,3.4609,3.4446,3.4294,3.4306,3.4241,3.4001,3.398,3.4039,3.3828,3.3889,3.382,3.394,3.3753,3.3885,3.3905,3.3869,3.3841,3.3755,3.3618,3.3832,3.3981,3.4112,3.3727,3.3763,3.3705,3.3776,3.4182,3.3906,3.3833,3.3764,3.3776,3.3838,3.3875,3.3962,3.39,3.3933,3.3907,3.3976,3.3838,3.3785,3.3983,3.3791,3.4058,3.4029,3.3908,3.3937,3.3902,3.3915,3.4066,3.4196,3.4183,3.4443,3.4517,3.4513,3.4301,3.4366,3.4418,3.4335,3.4388,3.4396,3.4267,3.4475,3.4132,3.41,3.404,3.4102,3.3808,3.3655,3.3701,3.3721,3.343,3.359,3.3608,3.3613,3.3528,3.3677,3.3468,3.3635,3.3595,3.3554,3.3613,3.3503,3.3707,3.3608,3.365,3.3662,3.3523,3.3788,3.3712,3.3715,3.3572,3.3651,3.3927,3.4251,3.4534,3.552,3.6893,3.8316,3.985,3.9924,3.7026,3.3579,3.2058,3.1814,3.2155,3.2816,3.3695,3.4146,3.4145,3.4004,3.4317,3.3989,3.4037,3.4151,3.4176,3.3989,3.4216,3.4208,3.4232,3.4287,3.4379,3.4256,3.4282,3.4278,3.4415,3.4333,3.4524,3.4534,3.446,3.4442,3.4506,3.4601,3.4614,3.4703,3.4662,3.4753,3.4899,3.4684,3.4761,3.4904,3.4928,3.4892,3.5007,3.4999,3.5279,3.5342,3.5279,3.5497,3.5561,3.5724,3.5814,3.5755,3.5775,3.5959,3.6236,3.6354,3.6381,3.6244,3.6331,3.6432,3.6516,3.6471,3.6279,3.6086,3.5909,3.5986,3.5843,3.5767,3.5415,3.5319,3.5227,3.5096,3.4804,3.4835,3.4726,3.4711,3.4478,3.4341,3.4463,3.4431,3.4263,3.4069,3.4295,3.413,3.4318,3.4227,3.4266,3.4303,3.4391,3.4242,3.4261,3.4391,3.4154,3.4284,3.4111,3.4403,3.4397,3.4217,3.4139,3.4062,3.4224,3.45,3.4536,3.4406,3.4403,3.442,3.4239,3.445,3.437,3.4217,3.4298,3.4273,3.4227,3.4481,3.4626,3.4626,3.4612,3.4776,3.4958,3.4855,3.493,3.4808,3.4747,3.4978,3.4916,3.4972,3.4901,3.5007,3.4809,3.4744,3.4602,3.4571,3.4433,3.4111,3.4065,3.4113,3.417,3.4089,3.4118,3.4092,3.3884,3.3879,3.3937,3.4105,3.401,3.4017,3.3937,3.3886,3.3954,3.392,3.3904,3.3925,3.4028,3.4156,3.4134,3.4038,3.3888,3.4102,3.407,3.4158,3.4545,3.4982,3.5949,3.7426,3.8549,4.0017,4.0114,3.7207,3.427,3.2694,3.2636,3.2475,3.2711,3.3423,3.4052,3.4398,3.4418,3.4219,3.4405,3.4396,3.4477,3.4293,3.4369,3.4409,3.4481,3.4344,3.4424,3.4306,3.4449,3.4577,3.4753,3.4498,3.4631,3.4722,3.4584,3.4633,3.4642,3.4852,3.4688,3.4714,3.4688,3.4659,3.4765,3.4789,3.4844,3.4891,3.5048,3.4899,3.5004,3.5171,3.5243,3.5421,3.5271,3.5378,3.5403,3.5606,3.575,3.5675,3.5854,3.603,3.6017,3.6077,3.6213,3.6283,3.6307,3.6416,3.6489,3.6477,3.6593,3.655,3.6407,3.6136,3.6035,3.5785,3.5601,3.5573,3.5498,3.5157,3.5006,3.494,3.4763,3.4758,3.4676,3.451,3.4473,3.4347,3.444,3.4259,3.4203,3.4326,3.4517,3.4375,3.4278,3.4625,3.4234,3.4311,3.4491,3.4311,3.4297,3.4234,3.4453,3.4416,3.4052,3.434,3.4348,3.4489,3.4342,3.4366,3.4471,3.4231,3.4307,3.4325,3.4315,3.4408,3.4257,3.4334,3.4464,3.4444,3.4347,3.4383,3.4492,3.4781,3.495,3.5188,3.5085,3.5144,3.4992,3.4973,3.4992,3.4912,3.5137,3.4977,3.5194,3.5104,3.4928,3.4803,3.4619,3.4591,3.4566,3.4172,3.4114,3.413,3.4215,3.4147,3.4157,3.4107,3.4147,3.4174,3.4155,3.4128,3.3949,3.3965,3.4082,3.41,3.4025,3.4046,3.3956,3.4159,3.4025,3.4029,3.4094,3.4232,3.4145,3.4124,3.4398,3.4803,3.5135,3.6119,3.7432,3.9127,4.0456,4.0525,3.8417,3.5187,3.2745,3.2457,3.2343,3.2822,3.381,3.4339,3.4359,3.4396,3.4479,3.458,3.4513,3.4466,3.436,3.4497,3.4683,3.4306,3.4624,3.4644,3.4454,3.4528,3.4755,3.4754,3.465,3.4704,3.4676,3.4857,3.4732,3.4839,3.4906,3.4852,3.5065,3.4892,3.5059,3.4967,3.4771,3.5008,3.5098,3.5122,3.5166,3.5185,3.5295,3.5431,3.5594,3.5556,3.5541,3.5735,3.578,3.5892,3.6029,3.6197,3.6293,3.6175,3.6267,3.6174,3.6427,3.653,3.6692,3.6674,3.6464,3.6386,3.645,3.6346,3.6188,3.6135,3.5925,3.5679,3.5659,3.5358,3.5101,3.5211,3.5027,3.4698,3.4624,3.4662,3.4754,3.4592,3.438,3.4337,3.4412,3.4471,3.4576,3.4415,3.4361,3.4444,3.4321,3.4363,3.4386,3.4456,3.4504,3.4478,3.4506,3.4434,3.4513,3.4302,3.428,3.4357,3.4524,3.4443,3.4491,3.4419,3.4482,3.4512,3.4414,3.444,3.4468,3.4422,3.4499,3.4587,3.4489,3.4382,3.4508,3.4457,3.469,3.4505,3.4761,3.4742,3.4695,3.4745,3.5051,3.5274,3.5049,3.5011,3.474,3.4719,3.4987,3.5067,3.4926,3.5142,3.4759,3.4918,3.4615,3.4365,3.442,3.4112,3.4062,3.4127,3.4093,3.4005,3.4141,3.4178,3.4108,3.3954,3.4139,3.4134,3.4084,3.4181,3.4048,3.4004,3.3853,3.3995,3.4079,3.4098,3.3992,3.4181,3.4084,3.4212,3.4101,3.4043,3.4187,3.4431,3.4781,3.5339,3.6443,3.7827,3.9263,4.0512,3.9687,3.6355,3.3316,3.2329,3.2306,3.2667,3.3534,3.4289,3.4731,3.4498,3.4472,3.4387,3.454,3.4524,3.4309,3.4373,3.4539,3.4667,3.4642,3.4547,3.4535,3.453,3.4565,3.4774,3.4598,3.4568,3.4698,3.4893,3.4774,3.4867,3.472,3.4926,3.4845,3.5003,3.4965,3.4797,3.4976,3.5102,3.495,3.495,3.518,3.5079,3.5238,3.536,3.5519,3.5551,3.5528,3.5526,3.572,3.5868,3.6015,3.6018,3.5921,3.6051,3.6389,3.6402,3.642,3.6431,3.6418,3.6394,3.6509,3.6584,3.6429,3.6307,3.6345,3.6258,3.601,3.5914,3.5561,3.5486,3.5317,3.5143,3.5055,3.4725,3.4846,3.4915,3.4716,3.4547,3.4585,3.4305,3.444,3.4403,3.4577,3.4358,3.4255,3.4324,3.4329,3.4422,3.4372,3.4203,3.4407,3.4383,3.4286,3.4416,3.4521,3.4349,3.442,3.4334,3.4183,3.431,3.417,3.4369,3.4356,3.4346,3.4271,3.4403,3.4354,3.4422,3.4181,3.4294,3.4277,3.4561,3.4466,3.4347,3.4239,3.4263,3.4234,3.438,3.4378,3.4503,3.4659,3.4786,3.4889,3.4858,3.4702,3.4578,3.4613,3.4747,3.4886,3.4784,3.5118,3.4761,3.4648,3.4693,3.4518,3.4382,3.4423,3.4042,3.4035,3.3951,3.3817,3.3903,3.4093,3.412,3.3876,3.4025,3.4064,3.3891,3.3828,3.3794,3.3767,3.3918,3.3907,3.3845,3.3857,3.3977,3.3961,3.3939,3.4031,3.4023,3.3822,3.373,3.421,3.421,3.4567,3.4991,3.5984,3.7402,3.8724,4.0193,3.9815,3.6776,3.5065,3.2715,3.194,3.2212,3.2722,3.3781,3.4248,3.4464,3.4241,3.4305,3.4287,3.4358,3.4232,3.4352,3.4197,3.4392,3.4229,3.4356,3.4388,3.4534,3.4372,3.4369,3.4371,3.4512,3.4511,3.4519,3.4434,3.4319,3.4568,3.4572,3.4634,3.463,3.4674,3.4859,3.469,3.4665,3.4664,3.4811,3.4888,3.5007,3.4947,3.5122,3.5128,3.5304,3.5192,3.5435,3.5449,3.5607,3.5484,3.5399,3.558,3.5949,3.5881,3.6083,3.6079,3.6121,3.6115,3.6093,3.647,3.626,3.6146,3.6165,3.6245,3.6221,3.5871,3.5415,3.5539,3.5463,3.5054,3.4805,3.4717,3.4709,3.4578,3.4401,3.4521,3.4378,3.4203,3.4276,3.4201,3.4014,3.4005,3.4015,3.4054,3.3993,3.4125,3.4096,3.3993,3.3968,3.4024,3.3966,3.4088,3.4046,3.412,3.4039,3.4122,3.4091,3.4132,3.4155,3.4131,3.3967,3.4046,3.4054,3.3993,3.4111,3.4172,3.3873,3.3981,3.3976,3.3865,3.3857,3.387,3.3798,3.3949,3.3885,3.381,3.3841,3.3804,3.3738,3.3634,3.3818,3.3985,3.384,3.3753,3.3824,3.3934,3.3999,3.4209,3.4282,3.4348,3.4425,3.4456,3.417,3.4358,3.456,3.4483,3.4248,3.4357,3.4253,3.418,3.4096,3.3958,3.3893,3.3768,3.3619,3.3532,3.3484,3.342,3.3397,3.3386,3.3407,3.347,3.3253,3.298,3.3135,3.3277,3.3469,3.3496,3.3477,3.3488,3.3547,3.3439,3.3428,3.344,3.3316,3.3511,3.348,3.3457,3.3441,3.332,3.3686,3.3894,3.4432,3.5361,3.6841,3.8194,3.9583,3.926,3.6435,3.2888,3.1441,3.142,3.149,3.2291,3.298,3.3465,3.3765,3.387,3.3767,3.3735,3.3667,3.354,3.3606,3.3795,3.3786,3.3834,3.3845,3.3719,3.3794,3.3751,3.3701,3.3779,3.3882,3.3655,3.386,3.4017,3.3798,3.3826,3.3901,3.38,3.3946,3.3919,3.4158,3.3843,3.3951,3.4132,3.4115,3.4192,3.4207,3.42,3.4339,3.43,3.4461,3.4551,3.4518,3.4512,3.4726,3.4692,3.5025,3.5013,3.5123,3.5236,3.5204,3.5186,3.5248,3.5475,3.541,3.5543,3.5463,3.5582,3.5418,3.5153,3.5097,3.5176,3.504,3.4647,3.4555,3.4477,3.4255,3.411,3.3893,3.3667,3.3604,3.3444,3.3379,3.3257,3.3214,3.3337,3.3228,3.3308,3.3259,3.317,3.3072,3.3131,3.3277,3.3015,3.3042,3.3101,3.3086,3.3153,3.2955,3.3169,3.3201,3.3183,3.3234,3.3238,3.313,3.3057,3.3119,3.327,3.3073,3.3138,3.318,3.3031,3.3038,3.3136,3.3099,3.3071,3.2946,3.3216,3.3311,3.3077,3.3035,3.2976,3.3031,3.2981,3.3013,3.3022,3.2929,3.2883,3.2886,3.2899,3.3024,3.3155,3.3241,3.3255,3.3457,3.3517,3.357,3.3509,3.3383,3.3503,3.3487,3.3541,3.3361,3.3612,3.3476,3.3351,3.3384,3.3143,3.3066,3.308,3.2924,3.2787,3.2786,3.2768,3.2745,3.2825,3.2714,3.2706,3.2765,3.2843,3.275,3.2721,3.2764,3.2759,3.275,3.264,3.2787,3.2878,3.2715,3.2755,3.282,3.2775,3.2861,3.2955,3.2848,3.2827,3.306,3.324,3.3688,3.4854,3.6136,3.7524,3.8949,3.8899,3.5715,3.2474,3.1031,3.0786,3.1117,3.1941,3.2379,3.3124,3.3155,3.3185,3.3193,3.306,3.3041,3.3097,3.3061,3.3076,3.3199,3.3171,3.3091,3.3064,3.3094,3.3203,3.3171,3.3211,3.3395,3.3187,3.3228,3.3404,3.3338,3.3212,3.3215,3.3405,3.3438,3.3457,3.3426,3.3444,3.3547,3.3458,3.3637,3.3574,3.3799,3.3652,3.3641,3.3733,3.399,3.3895,3.4184,3.42,3.4253,3.4267,3.443,3.4365,3.4672,3.4706,3.4644,3.4733,3.48,3.4998,3.5106,3.508,3.5027,3.4835,3.4943,3.4776,3.4723,3.4473,3.4471,3.4445,3.4191,3.3962,3.3762,3.3623,3.3583,3.3355,3.3265,3.3077,3.3041,3.3037,3.3054,3.2983,3.2868,3.2985,3.2803,3.2765,3.2933,3.2842,3.2762,3.2735,3.2776,3.2864,3.2673,3.2693,3.274,3.2849,3.2698,3.262,3.2873,3.2885,3.2822,3.2692,3.2835,3.2982,3.2802,3.2861,3.279,3.2699,3.2741,3.2828,3.2733,3.2776,3.2758,3.2684,3.2739,3.2644,3.2754,3.2809,3.2853,3.2601,3.2559,3.2726,3.2809,3.2789,3.2603,3.2625,3.2848,3.3064,3.3053,3.3015,3.3089,3.3314,3.301,3.2959,3.3167,3.3318,3.3366,3.3392,3.3236,3.3164,3.3094,3.2859,3.2954,3.2829,3.248,3.2388,3.2471,3.2266,3.2365,3.2485,3.2404,3.2206,3.2198,3.2447,3.2297,3.2405,3.2367,3.2353,3.2414,3.25,3.2299,3.2347,3.2439,3.2538,3.2442,3.234,3.2319,3.2612,3.2573,3.2463,3.2502,3.2721,3.3283,3.3818,3.5003,3.6384,3.7924,3.8762,3.6887,3.4002,3.1388,3.075,3.0936,3.1273,3.2114,3.2538,3.2937,3.2709,3.2756,3.2756,3.2868,3.2869,3.2797,3.2998,3.2983,3.2866,3.292,3.2888,3.2919,3.3055,3.305,3.3017,3.3134,3.315,3.3105,3.3195,3.312,3.3025,3.3126,3.3148,3.3325,3.3281,3.3161,3.3325,3.3458,3.3427,3.3449,3.3631,3.3476,3.3664,3.3649,3.3691,3.3784,3.4022,3.3986,3.411,3.4144,3.4264,3.4273,3.4413,3.4493,3.4649,3.4723,3.4776,3.4914,3.4918,3.4934,3.4951,3.4808,3.512,3.5032,3.4838,3.4672,3.4747,3.4667,3.4394,3.4337,3.3937,3.386,3.3815,3.3616,3.3479,3.3518,3.3241,3.3275,3.3279,3.3113,3.3148,3.2991,3.3017,3.3239,3.3084,3.3023,3.2915,3.3088,3.3275,3.3262,3.3104,3.3125,3.3116,3.3001,3.3102,3.3126,3.3038,3.3147,3.303,3.3039,3.3066,3.3081,3.2955,3.3026,3.2981,3.3034,3.3089,3.3007,3.3059,3.3169,3.3054,3.3038,3.3088,3.3057,3.2994,3.3092,3.317,3.3307,3.3398,3.3539,3.3429,3.3428,3.3539,3.3547,3.3529,3.3433,3.3425,3.3583,3.3701,3.369,3.3752,3.3449,3.3334,3.3432,3.3189,3.315,3.2967,3.2921,3.2782,3.2813,3.2749,3.282,3.2684,3.2728,3.2854,3.2802,3.2785,3.2579,3.264,3.2674,3.2755,3.2681,3.2435,3.2507,3.2683,3.267,3.2603,3.2676,3.2724,3.2645,3.2742,3.2816,3.2777,3.2949,3.3343,3.404,3.5075,3.6478,3.7926,3.8951,3.7575,3.4631,3.4538,3.137,3.0839,3.132,3.1449,3.2523,3.2881,3.3124,3.2898,3.3164,3.2878,3.3145,3.2925,3.313,3.2939,3.302,3.2892,3.315,3.2955,3.3195,3.3145,3.3125,3.2994,3.3097,3.3044,3.3223,3.3221,3.3381,3.32,3.3396,3.3183,3.3409,3.3314,3.3387,3.3509,3.3396,3.3438,3.3451,3.3579,3.3571,3.3809,3.3868,3.386,3.3842,3.404,3.4077,3.4252,3.4279,3.4351,3.4419,3.4602,3.4544,3.4759,3.4741,3.4985,3.4957,3.5012,3.5003,3.5098,3.5201,3.4988,3.4825,3.4782,3.4569,3.4521,3.4247,3.4228,3.4004,3.4022,3.3706,3.3463,3.3432,3.3252,3.3291,3.3232,3.319,3.3131,3.3089,3.303,3.3021,3.312,3.3125,3.2874,3.2942,3.2869,3.2877,3.3002,3.297,3.3096,3.2767,3.2743,3.291,3.2991,3.2954,3.3052,3.2959,3.3092,3.2922,3.2883,3.2967,3.3117,3.3121,3.3103,3.2932,3.2937,3.3108,3.3065,3.3076,3.2991,3.3044,3.3046,3.3122,3.301,3.3133,3.3073,3.2986,3.3032,3.3087,3.3194,3.3095,3.3449,3.3581,3.3472,3.3486,3.3532,3.3336,3.3212,3.3536,3.3613,3.3585,3.3685,3.3417,3.3377,3.3315,3.3154,3.3031,3.3113,3.2993,3.2818,3.2747,3.2707,3.2737,3.2573,3.2855,3.2908,3.2706,3.2632,3.255,3.2504,3.264,3.2624,3.2679,3.2744,3.2529,3.2718,3.2513,3.262,3.2603,3.2809,3.2654,3.2647,3.2717,3.279,3.318,3.3437,3.4144,3.5394,3.6703,3.8302,3.9056,3.7016,3.3751,3.1191,3.1075,3.1127,3.1345,3.2176,3.2962,3.327,3.3174,3.2983,3.2958,3.3057,3.3029,3.3207,3.3175,3.309,3.3071,3.301,3.3083,3.2975,3.3061,3.3314,3.3224,3.3319,3.326,3.3256,3.3233,3.3349,3.3302,3.3363,3.3353,3.3274,3.3499,3.3327,3.3339,3.3471,3.3605,3.3495,3.3724,3.3687,3.3692,3.3847,3.4008,3.4171,3.4229,3.402,3.4192,3.4044,3.4434,3.4568,3.4562,3.4478,3.4687,3.4782,3.4664,3.4741,3.502,3.5208,3.516,3.5131,3.5108,3.5008,3.4943,3.4854,3.4756,3.4524,3.4234,3.4004,3.3861,3.3832,3.3775,3.3546,3.3363,3.3462,3.318,3.301,3.3123,3.3187,3.3251,3.3018,3.2828,3.2934,3.2833,3.2848,3.295,3.2872,3.2863,3.2861,3.2795,3.3143,3.2917,3.2883,3.2787,3.2732,3.2976,3.2833,3.2711,3.2761,3.2849,3.2803,3.2878,3.2994,3.2992,3.2805,3.2712,3.2875,3.2774,3.2846,3.2837,3.2988,3.2825,3.2702,3.2795,3.282,3.2679,3.2993,3.2938,3.2815,3.2736,3.2975,3.3068,3.3216,3.3546,3.3314,3.3232,3.3406,3.3266,3.3144,3.3343,3.3372,3.3221,3.3235,3.3257,3.3155,3.3023,3.2929,3.2831,3.2839,3.2663,3.2533,3.2414,3.2529,3.2419,3.2386,3.2313,3.2295,3.2286,3.2456,3.2334,3.2252,3.2343,3.2252,3.2474,3.2494,3.2506,3.2245,3.2344,3.2271,3.2368,3.2337,3.2404,3.2388,3.2459,3.2416,3.274,3.2877,3.3657,3.4869,3.6141,3.7675,3.8725,3.8424,3.5642,3.2421,3.0633,3.0178,3.0684,3.1468,3.2384,3.2595,3.2836,3.2865,3.2764,3.2524,3.2758,3.275,3.2684,3.2676,3.2757,3.2807,3.268,3.2764,3.284,3.2838,3.2872,3.2806,3.2837,3.2967,3.2901,3.2978,3.2893,3.2897,3.3034,3.3139,3.3081,3.3126,3.3041,3.315,3.3182,3.3328,3.331,3.3248,3.3254,3.3309,3.3551,3.3513,3.3556,3.3621,3.3648,3.385,3.4048,3.3859,3.4016,3.4222,3.4374,3.4333,3.4349,3.4414,3.4488,3.4709,3.465,3.4595,3.4525,3.482,3.4707,3.4467,3.4216,3.4083,3.4015,3.3823,3.3704,3.3581,3.3327,3.3073,3.2964,3.2916,3.2785,3.2609,3.2589,3.263,3.2487,3.2532,3.2454,3.2448,3.246,3.2519,3.243,3.2315,3.2382,3.2486,3.2372,3.241,3.2415,3.2231,3.2306,3.2457,3.2487,3.2531,3.2388,3.2387,3.2385,3.2402,3.2468,3.2383,3.2484,3.254,3.2408,3.2458,3.2433,3.2397,3.2428,3.2404,3.2542,3.2539,3.2394,3.2295,3.2378,3.2375,3.2406,3.2413,3.2356,3.2424,3.2266,3.2338,3.2415,3.2352,3.241,3.2288,3.2356,3.2576,3.2531,3.2661,3.2783,3.2862,3.2769,3.2897,3.2762,3.275,3.2659,3.2995,3.3057,3.2967,3.2961,3.2734,3.2527,3.2343,3.2272,3.2157,3.2031,3.2078,3.202,3.2029,3.2149,3.2057,3.1914,3.1993,3.1998,3.1969,3.1899,3.1808,3.184,3.1854,3.1913,3.1952,3.1967,3.1871,3.1896,3.1936,3.1864,3.1861,3.1954,3.177,3.202,3.189,3.2041,3.2393,3.2951,3.3879,3.5167,3.6603,3.8017,3.7821,3.6318,3.2988,3.0176,2.9697,2.9861,3.0602,3.1482,3.1974,3.2132,3.2096,3.2061,3.2209,3.2078,3.2107,3.203,3.2082,3.2236,3.2123,3.216,3.2079,3.2041,3.2228,3.2194,3.2216,3.2251,3.2219,3.2285,3.2335,3.228,3.2277,3.2243,3.2372,3.2381,3.2327,3.2445,3.2477,3.2463,3.2468,3.2659,3.2721,3.2713,3.2849,3.2871,3.2928,3.2844,3.3005,3.3018,3.32,3.3203,3.3297,3.3439,3.3446,3.3542,3.3664,3.3567,3.3681,3.3985,3.4084,3.3922,3.3975,3.3987,3.4087,3.411,3.3999,3.3901,3.3642,3.3576,3.3393,3.33,3.2918,3.2677,3.2629,3.2559,3.2171,3.2182,3.2157,3.2095,3.198,3.1946,3.1806,3.1781,3.1822,3.1854,3.191,3.1885,3.1618,3.1651,3.1793,3.1699,3.1756,3.1863,3.1653,3.1844,3.1794,3.1819,3.1731,3.1806,3.1784,3.1758,3.1831,3.1793,3.174,3.1973,3.1795,3.1893,3.1884,3.1822,3.1686,3.1773,3.1755,3.1706,3.1775,3.1596,3.1904,3.1781,3.1712,3.174,3.1696,3.1616,3.1677,3.1707,3.1558,3.1661,3.1847,3.1722,3.1784,3.1603,3.1685,3.1716,3.155,3.1668,3.17,3.1714,3.1966,3.2145,3.2236,3.2263,3.2136,3.1878,3.2132,3.2199,3.2364,3.23,3.2298,3.2194,3.2093,3.2126,3.2024,3.1753,3.1724,3.1506,3.1529,3.149,3.1423,3.1448,3.1504,3.1674,3.1535,3.1459,3.1327,3.1357,3.1484,3.1442,3.1516,3.1627,3.1589,3.155,3.1529,3.1318,3.1486,3.1506,3.1622,3.1668,3.1616,3.1771,3.1814,3.2137,3.2585,3.3387,3.4492,3.519,3.6959,3.8304,3.6711,3.3614,3.0391,2.9749,2.9927,3.0217,3.0969,3.1967,3.2348,3.2246,3.2233,3.196,3.2033,3.2268,3.196,3.1965,3.2198,3.2119,3.2141,3.2065,3.2313,3.2278,3.1932,3.2167,3.224,3.2298,3.2279,3.227,3.2339,3.2234,3.2311,3.2333,3.2452,3.2373,3.2562,3.2402,3.254,3.257,3.2652,3.2518,3.254,3.2672,3.268,3.2707,3.2833,3.2951,3.3024,3.307,3.3226,3.337,3.3483,3.3474,3.3252,3.3511,3.361,3.3753,3.3858,3.3856,3.3896,3.4047,3.4001,3.3937,3.4086,3.4137,3.3887,3.3643,3.3509,3.3411,3.3211,3.3017,3.2779,3.2653,3.25,3.2215,3.2242,3.2187,3.2165,3.2005,3.1934,3.1916,3.1745,3.1928,3.1784,3.1686,3.1898,3.1713,3.1766,3.1754,3.1664,3.1866,3.1877,3.1857,3.1725,3.1889,3.1798,3.1688,3.1983,3.1759,3.1774,3.1809,3.183,3.1826,3.1796,3.1714,3.1719,3.1805,3.1695,3.1788,3.1743,3.1776,3.1721,3.1765,3.1786,3.1624,3.1815,3.1856,3.1781,3.1711,3.1807,3.1883,3.2025,3.2131,3.2097,3.2303,3.2209,3.2196,3.2179,3.2124,3.2386,3.2491,3.2513,3.2424,3.2408,3.2337,3.2177,3.199,3.1909,3.1769,3.1759,3.1485,3.1506,3.1631,3.1532,3.1595,3.1631,3.1563,3.1568,3.1451,3.1435,3.1728,3.1519,3.1725,3.1587,3.1577,3.1436,3.1436,3.153,3.1583,3.1618,3.1586,3.1624,3.1603,3.1595,3.1724,3.1881,3.2259,3.2836,3.3889,3.4943,3.6374,3.765,3.7091,3.4344,3.1257,3.0258,2.9872,3.013,3.0712,3.0973,3.1924,3.2007,3.1931,3.1923,3.181,3.21,3.1974,3.2034,3.2046,3.1897,3.2134,3.1904,3.2056,3.2189,3.2185,3.2217,3.2215,3.2102,3.2258,3.2188,3.2265,3.2488,3.2239,3.231,3.2409,3.2543,3.226,3.2152,3.2456,3.2555,3.2641,3.244,3.2696,3.2758,3.2678,3.2842,3.2952,3.3075,3.2953,3.3084,3.3209,3.3202,3.3372,3.3295,3.3423,3.3664,3.3608,3.3802,3.3906,3.4032,3.4069,3.3992,3.4011,3.4177,3.4026,3.4034,3.3853,3.3773,3.3543,3.3536,3.3524,3.3256,3.3076,3.2919,3.2759,3.2689,3.2501,3.232,3.2246,3.2402,3.2312,3.2236,3.2332,3.2232,3.2295,3.2185,3.2205,3.2211,3.2004,3.1983,3.1927,3.2199,3.237,3.2381,3.1958,3.2238,3.2231,3.2258,3.2266,3.2165,3.2299,3.2204,3.2212,3.2238,3.2203,3.2324,3.2196,3.2145,3.2209,3.2118,3.2151,3.2317,3.2178,3.2085,3.2256,3.2164,3.2084,3.2176,3.2123,3.2132,3.2332,3.2679,3.2724,3.2539,3.2719,3.2605,3.2822,3.2526,3.2637,3.254,3.2797,3.2714,3.2768,3.2775,3.2564,3.2483,3.2349,3.2106,3.2151,3.2113,3.1805,3.1779,3.1756,3.1952,3.1754,3.1804,3.1882,3.2041,3.1839,3.182,3.1719,3.1686,3.1865,3.1816,3.1745,3.2033,3.1621,3.1741,3.1814,3.1887,3.1943,3.1873,3.1729,3.1902,3.2035,3.2409,3.2681,3.3551,3.4774,3.6178,3.7115,3.8149,3.6989,3.3749,3.0887,3.0246,3.0167,3.0331,3.1164,3.1735,3.219,3.2211,3.2283,3.2273,3.2347,3.1919,3.2258,3.2301,3.2311,3.2279,3.2321,3.2322,3.2428,3.233,3.2424,3.2183,3.2296,3.2382,3.2459,3.2448,3.2479,3.2433,3.2621,3.2452,3.2684,3.2522,3.2486,3.2617,3.2718,3.2837,3.2986,3.2905,3.2875,3.2725,3.3123,3.2919,3.3156,3.3136,3.3301,3.3405,3.3399,3.3739,3.3742,3.3776,3.3849,3.3714,3.3766,3.3865,3.4152,3.4263,3.4261,3.4278,3.4233,3.4034,3.4252,3.4275,3.3941,3.3921,3.3636,3.3576,3.3435,3.3144,3.2978,3.2946,3.2541,3.2648,3.2322,3.2444,3.2216,3.244,3.2504,3.2218,3.2357,3.1988,3.2031,3.1857,3.2072,3.2293,3.2151,3.2068,3.1971,3.2045,3.2245,3.2006,3.2091,3.2089,3.2071,3.2128,3.2108,3.2013,3.2011,3.223,3.2199,3.2058,3.2156,3.2206,3.228,3.2269,3.2113,3.2087,3.2027,3.204,3.2203,3.2083,3.199,3.2149,3.2168,3.2363,3.209,3.202,3.1971,3.1961,3.2361,3.2349,3.2313,3.2471,3.2305,3.276,3.2596,3.258,3.2502,3.2489,3.2607,3.2726,3.2558,3.2601,3.2455,3.2389,3.2278,3.2277,3.2126,3.2037,3.1803,3.1806,3.1906,3.1575,3.167,3.1772,3.1618,3.1719,3.1498,3.1732,3.1672,3.1836,3.1762,3.1675,3.1584,3.1721,3.1734,3.1877,3.1654,3.162,3.183,3.1699,3.1692,3.2049,3.1803,3.191,3.2367,3.2601,3.3489,3.4848,3.6402,3.781,3.8115,3.528,3.1813,2.9887,2.9923,3.0077,3.0498,3.1303,3.2135,3.227,3.2102,3.2181,3.239,3.2246,3.2239,3.2235,3.2142,3.2152,3.2254,3.2596,3.2483,3.237,3.2368,3.2485,3.2499,3.2336,3.2544,3.2546,3.2454,3.2491,3.2556,3.2469,3.2491,3.2572,3.2415,3.2605,3.2655,3.264,3.241,3.2677,3.2991,3.2889,3.3063,3.2965,3.2966,3.3263,3.318,3.3172,3.3266,3.3292,3.3555,3.3432,3.3633,3.3531,3.3855,3.3816,3.4141,3.4095,3.4014,3.4152,3.4079,3.4166,3.4112,3.4269,3.4002,3.388,3.3684,3.372,3.3483,3.3339,3.3241,3.3001,3.3014,3.2922,3.2316,3.2323,3.2524,3.2314,3.2428,3.204,3.2293,3.2146,3.2102,3.221,3.2196,3.193,3.1893,3.2005,3.1993,3.2082,3.2249,3.2109,3.2067,3.2019,3.191,3.1974,3.1923,3.217,3.2322,3.2215,3.1991,3.2103,3.2149,3.2132,3.2089,3.215,3.2107,3.2263,3.2227,3.2325,3.2126,3.2118,3.2093,3.2032,3.1935,3.2136,3.1919,3.2262,3.2314,3.2026,3.2142,3.2057,3.2107,3.2531,3.2596,3.2622,3.2676,3.255,3.2625,3.2382,3.2542,3.262,3.2692,3.2617,3.2773,3.2351,3.2213,3.2261,3.2352,3.1984,3.167,3.1813,3.1706,3.1868,3.1796,3.1794,3.1765,3.181,3.1718,3.1747,3.1632,3.1692,3.1646,3.1677,3.1997,3.1635,3.1787,3.1647,3.1671,3.1829,3.1773,3.1599,3.1887,3.1798,3.17,3.1748,3.2074,3.2108,3.2313,3.3347,3.4722,3.6062,3.7675,3.8066,3.5503,3.2016,2.9921,2.9647,2.9995,3.0502,3.1514,3.226,3.2253,3.21,3.1834,3.202,3.2098,3.2053,3.2114,3.255,3.2456,3.2194,3.2122,3.201,3.2191,3.2258,3.2236,3.22,3.2329,3.2313,3.2435,3.2313,3.2179,3.2166,3.2453,3.2378,3.2478,3.2441,3.2534,3.25,3.2594,3.2533,3.2728,3.2619,3.2527,3.2653,3.2942,3.2969,3.2867,3.3,3.3076,3.3379,3.3106,3.3551,3.3611,3.3655,3.3779,3.3889,3.3734,3.3886,3.4019,3.3898,3.4196,3.4191,3.4087,3.4382,3.414,3.4188,3.4087,3.3573,3.3397,3.3187,3.3248,3.3209,3.2716,3.2815,3.2629,3.2664,3.2481,3.2188,3.2189,3.2142,3.2013,3.2007,3.1944,3.2135,3.1961,3.187,3.2223,3.2181,3.2063,3.1987,3.2022,3.1963,3.213,3.2021,3.2302,3.2253,3.1995,3.2026,3.2046,3.2013,3.1867,3.2178,3.2098,3.2134,3.2209,3.2022,3.2042,3.2005,3.2053,3.1913,3.2005,3.2331,3.2328,3.2153,3.1945,3.2212,3.2048,3.1899,3.1871,3.2236,3.22,3.2195,3.1929,3.1946,3.2007,3.2005,3.2361,3.2192,3.2122,3.2502,3.2317,3.26,3.2523,3.2398,3.2762,3.2684,3.248,3.2616,3.2538,3.2594,3.2581,3.2861,3.273,3.2627,3.264,3.2327,3.2503,3.2177,3.1964,3.1828,3.1825,3.1937,3.2104,3.1884,3.1903,3.1821,3.1837,3.1851,3.1948,3.1915,3.2141,3.2135,3.2094,3.2064,3.198,3.1885,3.209,3.2028,3.2196,3.2006,3.2061,3.2125,3.2189,3.2095,3.267,3.2627,3.2887,3.4138,3.5197,3.6906,3.852,3.7888,3.5067,3.1572,3.0042,3.0252,3.0552,3.1238,3.2032,3.2584,3.2602,3.2774,3.2588,3.2611,3.2694,3.2443,3.2408,3.2381,3.2402,3.2826,3.2629,3.2465,3.2754,3.2659,3.2606,3.2937,3.2762,3.2961,3.2609,3.281,3.3105,3.263,3.2889,3.3032,3.299,3.313,3.2963,3.3035,3.3172,3.317,3.3093,3.3199,3.3068,3.3773,3.373,3.3525,3.3548,3.3641,3.3821,3.3949,3.3795,3.4077,3.4313,3.4323,3.4499,3.4447,3.4511,3.4458,3.4633,3.4714,3.5021,3.4915,3.496,3.4812,3.4624,3.4523,3.4815,3.4549,3.4249,3.4168,3.4049,3.3597,3.3575,3.3449,3.3292,3.3076,3.2973,3.2924,3.2995,3.2869,3.2857,3.309,3.2766,3.2762,3.2875,3.2698,3.2714,3.2555,3.2704,3.2589,3.2835,3.2893,3.2742,3.2861,3.2987,3.2899,3.2887,3.2781,3.2746,3.2801,3.2809,3.2969,3.2963,3.3039,3.2634,3.293,3.2837,3.3055,3.3033,3.2872,3.308,3.3034,3.304,3.3232,3.2817,3.2982,3.3167,3.2918,3.3,3.2904,3.2991,3.3146,3.3128,3.303,3.2869,3.2901,3.3007,3.3052,3.317,3.3136,3.3436,3.351,3.3633,3.3587,3.359,3.3425,3.3296,3.3634,3.3696,3.3611,3.3694,3.3394,3.3397,3.3302,3.3191,3.3004,3.3026,3.2921,3.2687,3.2791,3.2721,3.3011,3.2781,3.2611,3.268,3.2745,3.294,3.2833,3.2683,3.2626,3.2746,3.2606,3.2745,3.2936,3.294,3.2877,3.2687,3.2758,3.28,3.2451,3.2848,3.2955,3.2687,3.3079,3.3377,3.4476,3.4866,3.6256,3.7744,3.9133,3.8389,3.525,3.1931,3.1075,3.0931,3.1438,3.2084,3.2976,3.326,3.3071,3.3089,3.3021,3.3184,3.312,3.3353,3.3348,3.36,3.3207,3.3219,3.308,3.305,3.3209,3.3388,3.3272,3.3293,3.3158,3.344,3.3347,3.3324,3.3211,3.3494,3.3716,3.3574,3.3616,3.3655,3.3412,3.3785,3.363,3.3704,3.3859,3.3739,3.3775,3.3801,3.4139,3.4011,3.4088,3.4276,3.4335,3.4454,3.4665,3.4652,3.479,3.4704,3.4536,3.4865,3.4928,3.5228,3.5329,3.4987,3.5205,3.533,3.54,3.5169,3.5154,3.4967,3.4712,3.4687,3.445,3.4125,3.4196,3.4031,3.3969,3.3685,3.3516,3.3545,3.3311,3.3336,3.3113,3.323,3.3259,3.3253,3.3077,3.3118,3.2962,3.2968,3.3138,3.3102,3.3041,3.2728,3.3256,3.3304,3.3162,3.2948,3.3043,3.3321,3.3217,3.3073,3.3106,3.3213,3.3069,3.3001,3.3151,3.3333,3.2999,3.3154,3.3126,3.3163,3.2984,3.2996,3.2944,3.3114,3.3301,3.3221,3.3007,3.3308,3.3221,3.2937,3.3077,3.3124,3.3005,3.3219,3.3273,3.3455,3.3427,3.3554,3.378,3.3693,3.3726,3.353,3.3569,3.3613,3.4038,3.3911,3.3852,3.375,3.3547,3.3498,3.3399,3.3038,3.3236,3.3374,3.3187,3.3141,3.2947,3.2849,3.3087,3.2946,3.2697,3.3022,3.2938,3.28,3.3128,3.2967,3.2889,3.2982,3.2791,3.2925,3.2986,3.2964,3.308,3.2967,3.3025,3.3098,3.3162,3.332,3.3276,3.3174,3.3471,3.4285,3.5548,3.674,3.8314,3.9136,3.8167,3.544,3.2073,3.1529,3.174,3.1581,3.2225,3.2662,3.3281,3.3546,3.361,3.3513,3.3803,3.3419,3.3787,3.3707,3.3651,3.3532,3.3507,3.3742,3.374,3.3878,3.3879,3.3776,3.3933,3.4062,3.3951,3.3981,3.3937,3.4004,3.3907,3.4082,3.4141,3.4068,3.3959,3.398,3.436,3.4451,3.4442,3.4375,3.4083,3.4412,3.4609,3.4803,3.4818,3.4804,3.47,3.4891,3.5081,3.4938,3.5049,3.5487,3.5452,3.5238,3.5662,3.536,3.5507,3.5547,3.5864,3.5762,3.5843,3.5834,3.586,3.5846,3.5861,3.5638,3.5476,3.516,3.5104,3.4987,3.4958,3.4751,3.459,3.4459,3.4025,3.4498,3.4222,3.4206,3.4163,3.4156,3.4017,3.4164,3.4088,3.4079,3.3837,3.3787,3.3824,3.4009,3.4052,3.4023,3.4004,3.417,3.3985,3.4153,3.4204,3.402,3.4117,3.4417,3.4238,3.4195,3.4058,3.4267,3.4329,3.416,3.4039,3.4409,3.4256,3.4335,3.4482,3.4319,3.4195,3.4363,3.4346,3.4316,3.4139,3.4169,3.442,3.469,3.4555,3.4685,3.4803,3.4647,3.4861,3.4728,3.4808,3.4742,3.4737,3.486,3.5011,3.5152,3.5056,3.4791,3.4484,3.449,3.4357,3.3577,3.0435,3.232,3.3177,3.3213,3.3619,3.3394,3.3543,3.3379,3.3727,3.3634,3.392,3.3615,3.3775,3.3753,3.3856,3.3801,3.3979,3.3782,3.384,3.3668,3.4096,3.359,3.4295,3.398,3.4236,3.4086,3.4199,3.4699,3.5625,3.6156,3.7366,3.8673,4.0335,3.9575,3.6758,3.3748,3.2607,3.2535,3.2647,3.3377,3.4088,3.4519,3.4419,3.4555,3.4681,3.4482,3.4598,3.504,3.4661,3.4741,3.4809,3.4646,3.4676,3.4746,3.476,3.4923,3.4977,3.4869,3.4747,3.4947,3.5124,3.5094,3.5079,3.4811,3.5172,3.5341,3.4934,3.4878,3.4864,3.5088,3.5285,3.5269,3.5557,3.5661,3.5676,3.57,3.5924,3.5799,3.5851,3.6008,3.6027,3.6365,3.6291,3.6553,3.6504,3.6779,3.6733,3.6852,3.6904,3.6879,3.7075,3.7151,3.7251,3.6991,3.7052,3.7097,3.707,3.7114,3.6551,3.6549,3.6578,3.6616,3.6442,3.6246,3.5959,3.6077,3.5393,3.5517,3.5448,3.5523,3.5728,3.5229,3.5258,3.5347,3.525,3.5119,3.5216,3.5453,3.5539,3.5435,3.5227,3.5488,3.5227,3.4985,3.5362,3.5456,3.5288,3.5537,3.5677,3.5423,3.5441,3.567,3.5431,3.5597,3.5757,3.5425,3.5232,3.5791,3.563,3.5413,3.5586,3.5847,3.5771,3.5797,3.5717,3.5536,3.5907,3.5821,3.5855,3.5808,3.5827,3.57,3.5579,3.5864,3.5931,3.5812,3.5978,3.6051,3.6308,3.6423,3.6279,3.6447,3.6375,3.5984,3.6545,3.652,3.6555,3.6513,3.6488,3.6333,3.6132,3.5973,3.6055,3.5859,3.6017,3.5841,3.5761,3.5709,3.5828,3.5832,3.5673,3.5609,3.5805,3.572,3.5463,3.5672,3.5746,3.5583,3.5579,3.5845,3.5809,3.5736,3.5738,3.5737,3.5932,3.5836,3.5805,3.5761,3.5706,3.5898,3.6153,3.6601,3.7685,3.9101,4.0439,4.1857,4.2025,3.9327,3.5934,3.481,3.4107,3.4241,3.4455,3.5326,3.599,3.6425,3.6291,3.6178,3.6262,3.6417,3.6303,3.6331,3.6439,3.642,3.6455,3.6322,3.6585,3.6327,3.6482,3.6517,3.6399,3.641,3.6535,3.6643,3.6577,3.6672,3.6895,3.6763,3.6621,3.6514,3.6643,3.6864,3.6907,3.6936,3.6823,3.7005,3.7067,3.7015,3.7083,3.7471,3.7403,3.7474,3.757,3.7633,3.7567,3.7739,3.7917,3.8008,3.8164,3.7993,3.8155,3.8339,3.8494,3.8461,3.8555,3.8497,3.8662,3.8639,3.8578,3.8458,3.8441,3.845,3.8303,3.8181,3.7854,3.7696,3.7525,3.7273,3.7218,3.6952,3.6925,3.6809,3.6667,3.6813,3.667,3.6484,3.6402,3.6604,3.6716,3.636,3.6412,3.6487,3.6438,3.6513,3.6667,3.6551,3.6567,3.662,3.6601,3.6463,3.6415,3.654,3.6611,3.6573,3.6444,3.6431,3.6533,3.6737,3.6589,3.6598,3.6517,3.6603,3.6759,3.6811,3.6676,3.6512,3.6505,3.6596,3.646,3.6536,3.662,3.6518,3.6596,3.6641,3.6412,3.6442,3.6373,3.6342,3.6593,3.6564,3.6516,3.644,3.6658,3.6758,3.7058,3.6957,3.6924,3.7102,3.6905,3.7037,3.7157,3.6947,3.7004,3.7049,3.7044,3.6707,3.6706,3.6673,3.6475,3.6398,3.6372,3.6271,3.6084,3.6172,3.6278,3.6192,3.5993,3.613,3.6234,3.6163,3.6057,3.6064,3.6141,3.6144,3.616,3.6318,3.6148,3.6113,3.6212,3.6071,3.6095,3.6059,3.595,3.6189,3.6145,3.623,3.6294,3.6549,3.691,3.7943,3.9301,4.0693,4.2174,4.2224,3.9376,3.6015,3.4304,3.4044,3.4483,3.5476,3.6058,3.6612,3.6596,3.6396,3.6487,3.6395,3.6581,3.6454,3.6489,3.6444,3.6433,3.6375,3.641,3.6515,3.6397,3.6478,3.6584,3.6453,3.6472,3.6506,3.6627,3.6855,3.6771,3.6708,3.6765,3.6799,3.6575,3.6587,3.6792,3.6813,3.7039,3.6969,3.6977,3.7018,3.709,3.7108,3.7136,3.7029,3.7253,3.7312,3.736,3.7421,3.7792,3.7549,3.771,3.7895,3.7783,3.7946,3.8252,3.8223,3.8188,3.8066,3.8162,3.8213,3.8301,3.8281,3.8151,3.8173,3.7812,3.765,3.7585,3.7581,3.7292,3.7138,3.6994,3.6732,3.6484,3.6586,3.6475,3.618,3.6112,3.6101,3.6114,3.622,3.5877,3.5789,3.6041,3.6101,3.5941,3.5808,3.592,3.5887,3.5906,3.5923,3.5893,3.5833,3.5933,3.5943,3.5954,3.5993,3.5876,3.5875,3.5954,3.5915,3.5889,3.5764,3.5835,3.592,3.5847,3.5975,3.5924,3.58,3.5789,3.5882,3.5937,3.5895,3.5916,3.5821,3.589,3.5764,3.5875,3.5861,3.5944,3.5868,3.5783,3.5984,3.5625,3.5746,3.5729,3.5674,3.5612,3.5593,3.5637,3.5696,3.5881,3.5989,3.5998,3.6062,3.6095,3.6089,3.6213,3.6108,3.625,3.6149,3.5989,3.6319,3.6079,3.625,3.6314,3.6151,3.6057,3.5915,3.5708,3.5578,3.537,3.5293,3.5168,3.5128,3.5199,3.535,3.5265,3.5142,3.512,3.5014,3.5122,3.5258,3.5127,3.5049,3.4914,3.509,3.5308,3.531,3.516,3.5053,3.498,3.5019,3.499,3.5125,3.5134,3.5039,3.5286,3.5608,3.6102,3.7094,3.8593,4.0071,4.1448,4.0724,3.7242,3.4133,3.302,3.2954,3.3102,3.3761,3.4661,3.5724,3.5264,3.5301,3.5217,3.5167,3.5388,3.5321,3.5238,3.5098,3.5364,3.5451,3.5445,3.5163,3.5135,3.5249,3.5342,3.5265,3.5467,3.5314,3.563,3.5382,3.5185,3.5231,3.5365,3.5455,3.5414,3.5479,3.544,3.5382,3.5477,3.5599,3.5579,3.5642,3.5746,3.5614,3.6044,3.6023,3.6077,3.612,3.6201,3.6193,3.6221,3.6445,3.6396,3.6575,3.6646,3.6759,3.696,3.6829,3.6881,3.7019,3.7111,3.6953,3.7098,3.7046,3.705,3.6969,3.684,3.6613,3.6559,3.6582,3.6164,3.6011,3.6122,3.5655,3.5465,3.5261,3.522,3.507,3.5025,3.4976,3.487,3.4994,3.4926,3.4775,3.4646,3.4709,3.4629,3.4981,3.4837,3.4715,3.463,3.4656,3.4703,3.4793,3.4584,3.4797,3.4979,3.4793,3.4684,3.4665,3.4698,3.4649,3.4637,3.4793,3.4842,3.4834,3.4722,3.4537,3.4824,3.4578,3.4479,3.4813,3.4647,3.4619,3.4538
