1.5776,1.5838,1.5763,1.5646,1.5672,1.5682,1.5677,1.5662,1.5571,1.5558,1.5585,1.5627,1.5635,1.5585,1.5532,1.5547,1.5626,1.5585,1.5536,1.5534,1.5526,1.556,1.5582,1.5559,1.551,1.5526,1.5592,1.5577,1.5533,1.5492,1.5477,1.5553,1.5549,1.5503,1.545,1.544,1.5519,1.5583,1.5501,1.544,1.5481,1.5509,1.5567,1.5531,1.5616,1.6118,1.6152,1.6096,1.6149,1.6155,1.6413,1.6459,1.6434,1.6337,1.6448,1.6727,1.6785,1.6989,1.6722,1.6453,1.6224,1.6166,1.6358,1.6177,1.5855,1.5637,1.5492,1.5722,1.5708,1.5635,1.5505,1.591,1.5912,1.5286,1.5657,1.5521,1.5416,1.5003,1.5344,1.5018,1.4103,1.5369,1.7296,1.9516,2.2193,2.5116,2.763,2.7952,2.7003,2.5484,2.292,1.751,1.3652,1.3186,1.3619,1.3746,1.3929,1.4696,1.5024,1.4944,1.5135,1.4877,1.4808,1.5411,1.4934,1.4095,1.4133,1.4962,1.4674,1.4605,1.473,1.4031,1.5259,1.6046,1.4742,1.4541,1.4772,1.4392,1.451,1.4858,1.5165,1.5466,1.4654,1.4241,1.4492,1.5106,1.4806,1.42,1.4561,1.4938,1.4719,1.4693,1.4723,1.4746,1.4923,1.4877,1.5288,1.5072,1.4599,1.484,1.4438,1.4629,1.5112,1.4498,1.4239,1.4333,1.4634,1.4858,1.4909,1.4844,1.4655,1.4383,1.4391,1.4825,1.4833,1.4395,1.4886,1.5142,1.4959,1.4543,1.4656,1.4802,1.4776,1.4768,1.5082,1.5079,1.4876,1.5035,1.528,1.5271,1.4944,1.5479,1.5599,1.5169,1.5447,1.5799,1.566,1.548,1.5438,1.5546,1.5754,1.5694,1.5505,1.5716,1.5505,1.5227,1.5358,1.5784,1.5298,1.4871,1.5443,1.5628,1.5466,1.5498,1.566,1.5984,1.594,1.5696,1.5717,1.5784,1.5936,1.6142,1.6222,1.5747,1.5664,1.6194,1.6367,1.6122,1.5872,1.6124,1.604,1.604,1.6275,1.6332,1.5938,1.6153,1.6095,1.5639,1.561,1.5686,1.5762,1.6238,1.6166,1.5532,1.5267,1.5408,1.5868,1.5655,1.5342,1.5375,1.5401,1.5649,1.5489,1.5333,1.5223,1.5141,1.5217,1.5594,1.5471,1.5244,1.5524,1.5153,1.5249,1.5428,1.4755,1.5204,1.5578,1.565,1.5518,1.466,1.4958,1.5963,1.5661,1.4631,1.4562,1.5075,1.5506,1.5182,1.4861,1.4909,1.5027,1.5026,1.5359,1.5386,1.5138,1.5199,1.4936,1.5288,1.5639,1.5171,1.519,1.4952,1.4632,1.5132,1.5389,1.4925,1.544,1.5384,1.4903,1.5053,1.548,1.495,1.4676,1.5077,1.5979,1.5576,1.4738,1.5015,1.5281,1.5672,1.5113,1.52,1.5795,1.5834,1.5705,1.5888,1.6369,1.6673,1.581,1.5708,1.6097,1.626,1.5805,1.5842,1.5716,1.5692,1.5671,1.5914,1.5023,1.4578,1.4837,1.5243,1.4754,1.4731,1.4949,1.44,1.4655,1.4711,1.4876,1.4804,1.4711,1.4392,1.432,1.4085,1.4785,1.6897,1.8107,1.9579,2.3298,2.5851,2.6891,2.6475,2.6001,2.3786,1.9494,1.4024,1.2611,1.2981,1.3567,1.4209,1.4253,1.4109,1.4287,1.4944,1.4897,1.4183,1.4025,1.4239,1.4408,1.4959,1.4677,1.4433,1.4204,1.4349,1.4499,1.4746,1.4444,1.4272,1.4551,1.4679,1.4666,1.4597,1.4549,1.4463,1.4617,1.4939,1.4579,1.4323,1.4369,1.4526,1.4479,1.4375,1.4319,1.4642,1.4695,1.4392,1.4341,1.4618,1.4643,1.4579,1.4591,1.4806,1.4808,1.4524,1.4509,1.4381,1.4366,1.4244,1.4394,1.4385,1.4315,1.4351,1.4196,1.4596,1.505,1.4687,1.4406,1.4407,1.4308,1.4578,1.4802,1.4763,1.4471,1.4778,1.5805,1.4943,1.4138,1.4466,1.4591,1.4816,1.5324,1.546,1.4967,1.4512,1.5113,1.5297,1.5253,1.5736,1.5529,1.5484,1.5491,1.5409,1.5506,1.5487,1.5562,1.5485,1.5307,1.5467,1.5334,1.5239,1.5648,1.608,1.5675,1.533,1.5359,1.5325,1.5403,1.5635,1.5841,1.605,1.5583,1.5748,1.5859,1.5761,1.5716,1.623,1.661,1.6173,1.5839,1.6108,1.6377,1.6362,1.6184,1.61,1.6006,1.584,1.5932,1.6166,1.6036,1.5951,1.6138,1.6362,1.6509,1.6218,1.5502,1.5473,1.5829,1.5915,1.5863,1.5454,1.5374,1.5503,1.5639,1.5506,1.5789,1.5734,1.5103,1.5207,1.5603,1.5616,1.5241,1.5119,1.5417,1.5544,1.5365,1.5074,1.5021,1.5398,1.5497,1.5322,1.5089,1.5377,1.527,1.5019,1.5157,1.5184,1.5252,1.5684,1.5659,1.5134,1.4859,1.4686,1.509,1.5146,1.5163,1.5109,1.4985,1.5019,1.5206,1.553,1.5344,1.506,1.4923,1.4966,1.5216,1.525,1.552,1.5708,1.5857,1.5557,1.5443,1.5707,1.5894,1.6036,1.639,1.6275,1.6136,1.6093,1.6162,1.6402,1.6449,1.604,1.565,1.5316,1.55,1.5439,1.5029,1.4952,1.5019,1.5112,1.4963,1.4715,1.4628,1.4794,1.4796,1.4779,1.4805,1.4915,1.4824,1.4825,1.4388,1.397,1.4602,1.5917,1.8344,2.1192,2.3865,2.623,2.7111,2.6897,2.5903,2.3042,1.8244,1.3753,1.3035,1.2865,1.3214,1.3768,1.3964,1.4485,1.4574,1.4347,1.4128,1.446,1.4522,1.4567,1.4768,1.5115,1.4607,1.4128,1.433,1.4448,1.4733,1.4954,1.4687,1.4457,1.4343,1.4375,1.4568,1.4878,1.4761,1.4785,1.4614,1.4424,1.4398,1.4896,1.48,1.4651,1.455,1.4466,1.4566,1.4722,1.4698,1.4598,1.4557,1.4692,1.4759,1.4755,1.4673,1.4667,1.4887,1.4577,1.4327,1.4557,1.462,1.4455,1.4395,1.4646,1.4658,1.45,1.4618,1.4815,1.4756,1.4792,1.4512,1.4472,1.4548,1.4662,1.4729,1.4751,1.4853,1.4805,1.4895,1.4665,1.4674,1.4815,1.4966,1.5146,1.5093,1.509,1.527,1.5471,1.5262,1.536,1.5514,1.5456,1.5766,1.5705,1.5371,1.553,1.5614,1.5551,1.5482,1.538,1.5367,1.5444,1.5556,1.5802,1.571,1.5436,1.5278,1.5464,1.5551,1.5378,1.5464,1.5654,1.5933,1.601,1.5856,1.5817,1.6075,1.6052,1.6056,1.5882,1.5821,1.5997,1.6301,1.6287,1.601,1.5825,1.6112,1.6113,1.5955,1.6069,1.6249,1.6024,1.5852,1.5876,1.5903,1.5846,1.5959,1.5983,1.5833,1.5659,1.5582,1.5538,1.5631,1.5644,1.5552,1.5352,1.55,1.5552,1.5666,1.5362,1.5152,1.5206,1.531,1.5279,1.5166,1.5187,1.5168,1.5093,1.5136,1.524,1.5168,1.4952,1.4963,1.5039,1.5175,1.5245,1.5015,1.4875,1.4851,1.5135,1.5194,1.5204,1.5426,1.54,1.5349,1.5363,1.5598,1.5775,1.5842,1.6043,1.6045,1.5884,1.5997,1.611,1.6379,1.6266,1.595,1.5731,1.5442,1.557,1.5546,1.5349,1.4761,1.4601,1.455,1.4669,1.4443,1.4499,1.4554,1.4704,1.4724,1.4503,1.4275,1.4413,1.449,1.4545,1.453,1.4199,1.4006,1.4731,1.6079,1.8486,2.1282,2.2851,2.5419,2.6902,2.6877,2.6126,2.3585,1.9728,1.4248,1.2251,1.2214,1.2699,1.3272,1.346,1.3979,1.4014,1.4225,1.3909,1.3944,1.4012,1.4191,1.4188,1.4181,1.4095,1.4232,1.4258,1.4219,1.4173,1.4184,1.4313,1.4215,1.4052,1.4198,1.41,1.4211,1.4141,1.4115,1.4131,1.4413,1.4461,1.4276,1.4167,1.4152,1.4218,1.4279,1.4511,1.4547,1.4243,1.4148,1.4311,1.4501,1.4293,1.3979,1.3987,1.4045,1.4026,1.4124,1.4339,1.4378,1.4261,1.4155,1.4101,1.409,1.4145,1.4462,1.4413,1.4183,1.4138,1.4013,1.4125,1.4155,1.4221,1.426,1.4337,1.457,1.4617,1.4332,1.4162,1.428,1.4472,1.4463,1.4496,1.4596,1.4687,1.4681,1.482,1.5154,1.5118,1.4835,1.4917,1.5145,1.5288,1.5352,1.5265,1.5114,1.5155,1.5151,1.5072,1.4913,1.5129,1.5273,1.519,1.4916,1.497,1.5122,1.527,1.5154,1.5183,1.5123,1.5139,1.5359,1.5449,1.5393,1.5375,1.546,1.5812,1.5674,1.5525,1.5576,1.5726,1.5791,1.5841,1.566,1.5619,1.5683,1.5756,1.5843,1.5702,1.5622,1.5599,1.5702,1.5683,1.5593,1.5513,1.566,1.5501,1.5432,1.5414,1.5298,1.5203,1.5015,1.5283,1.5168,1.4768,1.4886,1.497,1.4982,1.4945,1.5026,1.497,1.4898,1.5092,1.5257,1.5164,1.5176,1.5209,1.543,1.5552,1.5574,1.5732,1.5849,1.5948,1.5981,1.5727,1.5632,1.5671,1.5721,1.6009,1.5873,1.5443,1.534,1.5134,1.4943,1.4527,1.4371,1.4315,1.4343,1.458,1.4569,1.4157,1.4144,1.4181,1.4201,1.4354,1.4322,1.4319,1.4425,1.4325,1.3877,1.3781,1.4045,1.4957,1.6374,1.925,2.2269,2.4724,2.6378,2.6638,2.5989,2.3758,2.0019,1.4524,1.2217,1.1901,1.2001,1.2413,1.3293,1.3681,1.3493,1.3707,1.3743,1.385,1.3843,1.4004,1.3891,1.3931,1.3883,1.4071,1.4084,1.4143,1.4005,1.392,1.394,1.4054,1.4284,1.4473,1.4288,1.3784,1.3862,1.403,1.4165,1.4132,1.4046,1.4187,1.4145,1.4169,1.4108,1.4184,1.4142,1.4122,1.3963,1.4187,1.4073,1.4209,1.4321,1.4282,1.4174,1.4048,1.3975,1.399,1.4056,1.3903,1.3954,1.3988,1.3978,1.3982,1.3772,1.3726,1.3884,1.4005,1.4115,1.4061,1.3903,1.41,1.423,1.4388,1.4556,1.4447,1.3934,1.3983,1.4108,1.4149,1.4168,1.4278,1.4545,1.4552,1.4485,1.456,1.4646,1.4816,1.4865,1.4951,1.5138,1.5082,1.5283,1.5122,1.5109,1.5077,1.4971,1.5161,1.5207,1.491,1.4922,1.4996,1.5105,1.5184,1.5089,1.5086,1.5089,1.5101,1.5089,1.5119,1.5082,1.5191,1.5456,1.5429,1.5469,1.5388,1.5493,1.5531,1.5752,1.5809,1.5737,1.5929,1.5972,1.5856,1.5742,1.5689,1.5742,1.5779,1.6042,1.5949,1.5545,1.5531,1.5651,1.5648,1.5691,1.5638,1.5571,1.5452,1.5435,1.5566,1.5641,1.5241,1.526,1.5576,1.5622,1.574,1.5738,1.5755,1.5869,1.5971,1.6101,1.5981,1.5994,1.613,1.6425,1.6414,1.611,1.5934,1.6043,1.5988,1.5879,1.5579,1.5259,1.5069,1.5012,1.4824,1.4774,1.4739,1.4711,1.4692,1.4554,1.4426,1.4478,1.4522,1.4603,1.4705,1.4681,1.4567,1.4424,1.4412,1.4192,1.4091,1.446,1.547,1.7498,2.0572,2.3482,2.5778,2.6938,2.6635,2.5779,2.3086,1.8292,1.3046,1.221,1.2577,1.2694,1.3268,1.3377,1.3827,1.3958,1.4164,1.3976,1.4077,1.404,1.4302,1.4273,1.4267,1.415,1.4343,1.4405,1.4455,1.425,1.4368,1.4392,1.4533,1.4416,1.4474,1.4226,1.425,1.4283,1.4499,1.445,1.4286,1.4236,1.4396,1.4425,1.4505,1.4359,1.4332,1.4457,1.4577,1.4416,1.4248,1.4361,1.4505,1.4553,1.4575,1.4533,1.4394,1.437,1.4283,1.4237,1.4207,1.4103,1.4205,1.4341,1.4366,1.4235,1.429,1.4315,1.4492,1.4644,1.4448,1.4355,1.4485,1.4592,1.4534,1.4572,1.4517,1.4651,1.4601,1.4561,1.4554,1.456,1.4659,1.4912,1.4865,1.5152,1.5112,1.5051,1.5184,1.5309,1.5385,1.5699,1.5647,1.5418,1.5319,1.532,1.5329,1.5422,1.5506,1.5371,1.5299,1.5237,1.5273,1.5237,1.5276,1.5361,1.5435,1.5421,1.5364,1.5567,1.5559,1.5413,1.5499,1.5589,1.5663,1.5748,1.583,1.5824,1.5754,1.5919,1.5934,1.5967,1.605,1.6093,1.6111,1.6243,1.6165,1.6286,1.6232,1.6181,1.6044,1.6047,1.6014,1.6038,1.605,1.5988,1.6044,1.6029,1.5846,1.5698,1.5686,1.5798,1.569,1.5743,1.5652,1.5473,1.5521,1.5349,1.5389,1.5522,1.5543,1.5484,1.5295,1.5307,1.5458,1.5523,1.5447,1.5229,1.5144,1.519,1.5279,1.5315,1.5373,1.5173,1.5147,1.5179,1.5206,1.5261,1.5164,1.5223,1.5383,1.5383,1.5194,1.5157,1.5334,1.5218,1.5099,1.5102,1.5022,1.5019,1.5072,1.5057,1.5166,1.5107,1.5212,1.5075,1.5118,1.5185,1.5072,1.5072,1.5145,1.5261,1.5196,1.5019,1.498,1.5145,1.5303,1.5286,1.514,1.5006,1.5059,1.5174,1.5286,1.5216,1.5092,1.5092,1.5123,1.5272,1.5202,1.5061,1.5109,1.5205,1.5159,1.5207,1.5229,1.515,1.5027,1.5088,1.5155,1.5064,1.5086,1.5229,1.5265,1.523,1.5187,1.5201,1.5133,1.5215,1.5216,1.5178,1.5045,1.511,1.5264,1.5426,1.5213,1.5121,1.5083,1.5056,1.5115,1.523,1.5372,1.5271,1.5172,1.5189,1.5068,1.5106,1.5235,1.5505,1.559,1.5606,1.5706,1.5824,1.5862,1.6033,1.6269,1.6346,1.6346,1.6334,1.6265,1.6094,1.6264,1.6308,1.6269,1.6077,1.5859,1.5558,1.5441,1.5315,1.5365,1.5208,1.5134,1.4979,1.4972,1.5043,1.5078,1.5005,1.5036,1.5035,1.5074,1.5007,1.4663,1.4663,1.4954,1.6015,1.792,2.0813,2.3641,2.5964,2.72,2.685,2.6199,2.3921,2.0056,1.4879,1.2734,1.3041,1.3631,1.4086,1.4212,1.4638,1.4571,1.4415,1.4472,1.461,1.4616,1.4645,1.4569,1.4637,1.4567,1.4646,1.4612,1.4528,1.4568,1.4696,1.4745,1.4512,1.4352,1.4523,1.458,1.4739,1.457,1.4532,1.4641,1.4715,1.4708,1.4717,1.4602,1.4549,1.4523,1.455,1.4692,1.4706,1.4571,1.462,1.468,1.4601,1.4587,1.4576,1.4569,1.4629,1.4529,1.454,1.4508,1.4648,1.4659,1.4575,1.4479,1.4466,1.4424,1.4482,1.4561,1.4711,1.4711,1.4612,1.4634,1.4581,1.4685,1.4726,1.4774,1.4677,1.4765,1.4737,1.4928,1.4974,1.4893,1.486,1.4822,1.4846,1.4957,1.5122,1.5234,1.5285,1.5294,1.5334,1.5483,1.5541,1.5583,1.5589,1.5753,1.5774,1.5775,1.5652,1.5693,1.5656,1.5766,1.5808,1.5541,1.5695,1.5685,1.5684,1.5713,1.5753,1.5885,1.5741,1.5677,1.5864,1.5955,1.6045,1.5999,1.6006,1.6033,1.6165,1.6262,1.6221,1.6217,1.638,1.6438,1.6329,1.6305,1.6324,1.6333,1.6387,1.6431,1.6395,1.635,1.625,1.6329,1.6249,1.6156,1.62,1.6167,1.6175,1.6231,1.6134,1.5888,1.5809,1.6,1.6002,1.5863,1.5716,1.5721,1.5681,1.5582,1.5553,1.5505,1.5652,1.5615,1.5457,1.5352,1.5304,1.5357,1.543,1.5587,1.5508,1.5289,1.5202,1.5322,1.5526,1.5424,1.5348,1.5199,1.5112,1.5227,1.5302,1.5217,1.5254,1.5198,1.5262,1.5161,1.5083,1.5033,1.5025,1.5156,1.5113,1.5158,1.5033,1.5086,1.5128,1.5129,1.5041,1.5069,1.5058,1.5178,1.5229,1.5098,1.485,1.4879,1.505,1.5127,1.5076,1.4892,1.4898,1.4953,1.5,1.5051,1.5041,1.5026,1.4944,1.5052,1.5067,1.4952,1.5023,1.5086,1.5081,1.4953,1.4934,1.4907,1.4857,1.4854,1.5046,1.5018,1.5038,1.4884,1.4967,1.4946,1.4841,1.4959,1.4957,1.5001,1.5044,1.4891,1.4857,1.4957,1.4957,1.4876,1.4798,1.4806,1.4876,1.5022,1.5181,1.5145,1.5182,1.5312,1.5553,1.5809,1.5836,1.5727,1.5734,1.5852,1.613,1.6094,1.5904,1.5787,1.5984,1.5788,1.5584,1.5397,1.5146,1.5262,1.5055,1.4981,1.4707,1.4771,1.4622,1.4667,1.4759,1.4748,1.4566,1.4576,1.4747,1.4724,1.4629,1.4225,1.4244,1.4663,1.5582,1.7361,2.0226,2.3189,2.57,2.6958,2.6468,2.615,2.5003,2.1979,1.7147,1.3102,1.2266,1.2778,1.3534,1.3982,1.4326,1.4153,1.4146,1.4171,1.4267,1.4313,1.4237,1.4294,1.4352,1.4346,1.4303,1.4268,1.4209,1.4224,1.4361,1.4481,1.4389,1.4306,1.4206,1.4184,1.4191,1.4396,1.4371,1.4302,1.4325,1.4257,1.4301,1.4373,1.4436,1.4482,1.4388,1.4349,1.4298,1.4302,1.4414,1.441,1.4358,1.4275,1.4272,1.4231,1.4272,1.4299,1.4176,1.4332,1.4309,1.4388,1.437,1.4361,1.4271,1.4093,1.4265,1.4268,1.4279,1.4174,1.4109,1.4331,1.442,1.444,1.418,1.4271,1.4526,1.4412,1.4345,1.4425,1.4527,1.4668,1.4486,1.4544,1.4615,1.4623,1.4711,1.4793,1.4867,1.4873,1.4818,1.4878,1.5188,1.5392,1.5276,1.5187,1.5246,1.5414,1.5432,1.5137,1.5342,1.5284,1.5131,1.5103,1.5131,1.5238,1.531,1.5302,1.5453,1.5385,1.5317,1.5366,1.5451,1.5418,1.5643,1.5588,1.5484,1.5701,1.5783,1.5559,1.5598,1.5762,1.5934,1.6046,1.5968,1.5893,1.5867,1.6001,1.609,1.6097,1.5906,1.5935,1.5943,1.6067,1.6046,1.5716,1.5747,1.5766,1.5814,1.5667,1.5514,1.5551,1.5332,1.5557,1.5489,1.5284,1.5371,1.5477,1.5344,1.5335,1.5286,1.5189,1.5218,1.5365,1.5267,1.5214,1.5059,1.4984,1.5064,1.5067,1.5146,1.4997,1.4974,1.4936,1.4933,1.4947,1.4987,1.4972,1.5029,1.5023,1.5022,1.4956,1.488,1.4821,1.4729,1.4796,1.4856,1.476,1.4818,1.4899,1.4967,1.4873,1.4718,1.4782,1.4946,1.4847,1.4767,1.4617,1.4789,1.4843,1.4772,1.4779,1.4786,1.486,1.4835,1.4814,1.4764,1.4736,1.4962,1.517,1.5258,1.5242,1.5159,1.5427,1.5658,1.5714,1.5813,1.5881,1.5836,1.6009,1.5909,1.5792,1.5741,1.5837,1.5706,1.5535,1.5071,1.4849,1.4832,1.4858,1.4768,1.468,1.446,1.4476,1.4515,1.4557,1.4744,1.4668,1.4432,1.4427,1.4503,1.4509,1.4229,1.4214,1.4329,1.5327,1.7043,1.9697,2.276,2.5139,2.6494,2.6458,2.6108,2.4024,2.0176,1.4697,1.2581,1.2354,1.2642,1.3471,1.3889,1.4113,1.4135,1.4111,1.415,1.4283,1.4117,1.4306,1.4272,1.4265,1.4351,1.4502,1.4314,1.4174,1.4201,1.442,1.439,1.4415,1.435,1.4495,1.4345,1.4402,1.4262,1.4353,1.4468,1.4495,1.4525,1.4504,1.4353,1.4374,1.4444,1.4563,1.448,1.4307,1.4369,1.4466,1.4517,1.4461,1.4385,1.4274,1.436,1.4442,1.4375,1.4392,1.4258,1.4367,1.4458,1.4554,1.4501,1.4293,1.4115,1.4202,1.4223,1.4255,1.4299,1.4438,1.4494,1.4452,1.4464,1.4357,1.4487,1.4374,1.4466,1.445,1.4466,1.4588,1.4689,1.4652,1.4735,1.4796,1.4873,1.4722,1.48,1.4851,1.4938,1.5047,1.5206,1.5241,1.5363,1.5426,1.548,1.5282,1.531,1.5286,1.5224,1.5203,1.5249,1.5269,1.5268,1.5198,1.5122,1.5126,1.546,1.5542,1.55,1.5174,1.5211,1.536,1.5357,1.548,1.547,1.5544,1.5687,1.5829,1.594,1.5776,1.585,1.5898,1.597,1.5907,1.5856,1.5999,1.6077,1.606,1.6037,1.6142,1.5974,1.6055,1.5939,1.5982,1.5888,1.5896,1.5877,1.5931,1.5898,1.5745,1.5676,1.5611,1.5626,1.5566,1.5555,1.5495,1.541,1.5473,1.5359,1.5349,1.5273,1.5289,1.5358,1.5254,1.5276,1.5169,1.5102,1.5176,1.5241,1.5217,1.5207,1.5233,1.5231,1.5108,1.507,1.4776,1.4888,1.4934,1.4994,1.5012,1.5013,1.4943,1.4886,1.5083,1.5065,1.4948,1.4874,1.4869,1.4978,1.4956,1.4852,1.4897,1.4879,1.4959,1.4915,1.4939,1.4957,1.4983,1.514,1.5031,1.464,1.4662,1.4795,1.4864,1.4889,1.4932,1.4883,1.4847,1.4834,1.4999,1.5137,1.4992,1.4844,1.4694,1.4797,1.4846,1.4789,1.494,1.496,1.489,1.4913,1.4944,1.4955,1.4934,1.4944,1.4981,1.492,1.4935,1.4883,1.4883,1.4894,1.5055,1.5141,1.5255,1.5563,1.5671,1.5605,1.583,1.5938,1.5812,1.5866,1.5853,1.5952,1.6101,1.6076,1.6035,1.5824,1.561,1.5398,1.5251,1.5287,1.5161,1.4865,1.4791,1.486,1.4819,1.4785,1.4645,1.4562,1.4619,1.4681,1.4647,1.4523,1.453,1.4445,1.4355,1.4544,1.5322,1.6956,1.8277,2.1177,2.4104,2.6072,2.6795,2.6383,2.5508,2.262,1.7893,1.3363,1.2488,1.2904,1.3406,1.3799,1.4063,1.4284,1.427,1.4223,1.4211,1.4281,1.4472,1.4549,1.4368,1.4326,1.4336,1.4252,1.4292,1.4226,1.4244,1.4276,1.4261,1.4419,1.4327,1.4317,1.4278,1.4248,1.4351,1.4419,1.4441,1.4273,1.4307,1.4323,1.4427,1.4408,1.4371,1.4409,1.4321,1.4426,1.4418,1.4396,1.436,1.422,1.433,1.4395,1.4402,1.43,1.4321,1.4419,1.4378,1.4283,1.4219,1.4166,1.427,1.4304,1.4406,1.4343,1.4288,1.4363,1.4438,1.4328,1.4265,1.4285,1.436,1.462,1.4565,1.4427,1.4325,1.4338,1.4419,1.447,1.4456,1.4579,1.4598,1.4701,1.4623,1.4735,1.4827,1.4855,1.4986,1.5128,1.5229,1.5318,1.5129,1.518,1.5403,1.5219,1.5201,1.5279,1.5456,1.5256,1.507,1.5131,1.5083,1.5168,1.5165,1.5068,1.5122,1.534,1.5433,1.5399,1.5269,1.5329,1.5383,1.5389,1.5593,1.5598,1.5546,1.5649,1.5745,1.5822,1.5901,1.5908,1.5876,1.5816,1.58,1.5906,1.5829,1.5855,1.5876,1.5997,1.609,1.6026,1.5849,1.5797,1.5846,1.5822,1.5697,1.5612,1.5619,1.5693,1.5611,1.5531,1.5326,1.5317,1.5385,1.5399,1.5414,1.5182,1.5233,1.5259,1.5261,1.5087,1.4963,1.4855,1.4946,1.5177,1.5249,1.5017,1.4935,1.4989,1.4917,1.4941,1.4817,1.4944,1.5023,1.5055,1.4858,1.4842,1.479,1.479,1.4855,1.4957,1.4862,1.469,1.4802,1.4979,1.4943,1.4755,1.4735,1.4742,1.4985,1.4932,1.4756,1.4622,1.4623,1.4785,1.479,1.4877,1.4726,1.4632,1.476,1.4747,1.4868,1.4763,1.473,1.4719,1.4676,1.4806,1.4727,1.46,1.4551,1.4663,1.4833,1.4811,1.4735,1.4602,1.459,1.4647,1.4691,1.4618,1.4641,1.4827,1.481,1.4633,1.4428,1.4496,1.4686,1.4751,1.4611,1.456,1.4677,1.4765,1.4655,1.4592,1.4491,1.45,1.4534,1.4571,1.4672,1.4597,1.4428,1.4451,1.4704,1.4902,1.4839,1.4867,1.5027,1.515,1.5416,1.545,1.5468,1.5637,1.5718,1.5588,1.5554,1.5436,1.5567,1.5633,1.56,1.5348,1.519,1.4924,1.4917,1.4762,1.4592,1.4649,1.4432,1.4413,1.4456,1.425,1.4031,1.4229,1.4377,1.4374,1.4229,1.4133,1.4067,1.4068,1.4034,1.485,1.6345,1.8959,2.1953,2.4534,2.6149,2.6277,2.5973,2.4379,2.1277,1.6116,1.2567,1.206,1.2484,1.3133,1.3545,1.3692,1.3808,1.3906,1.4149,1.4019,1.363,1.3748,1.3854,1.4071,1.414,1.384,1.3728,1.3814,1.3889,1.4046,1.3967,1.4086,1.398,1.3959,1.3916,1.3868,1.38,1.388,1.3987,1.4067,1.4111,1.3846,1.3797,1.3916,1.397,1.382,1.3838,1.3984,1.3934,1.3947,1.391,1.3943,1.386,1.3955,1.4054,1.3965,1.3913,1.3886,1.3893,1.3795,1.3868,1.3801,1.3735,1.3949,1.408,1.3917,1.3687,1.368,1.3775,1.3926,1.3868,1.3799,1.3945,1.3985,1.3921,1.4029,1.4076,1.3988,1.3749,1.3882,1.4103,1.4305,1.4027,1.3999,1.4207,1.4109,1.4297,1.428,1.4427,1.4593,1.4697,1.4682,1.4501,1.4667,1.4782,1.4783,1.4824,1.4872,1.4848,1.4745,1.4933,1.4772,1.4712,1.4733,1.4665,1.4843,1.4927,1.4724,1.4673,1.4818,1.4942,1.4951,1.4969,1.4754,1.4907,1.5322,1.5392,1.5268,1.4932,1.5095,1.5405,1.5363,1.5413,1.5236,1.5336,1.5446,1.5551,1.5637,1.545,1.5399,1.5726,1.5526,1.5132,1.5184,1.5222,1.5311,1.5339,1.5301,1.534,1.5367,1.5178,1.5091,1.506,1.4854,1.471,1.4796,1.4993,1.4887,1.4737,1.4722,1.4671,1.4714,1.4781,1.4708,1.4649,1.4604,1.4665,1.4661,1.4522,1.4471,1.4382,1.461,1.4685,1.4559,1.4311,1.435,1.4446,1.4432,1.45,1.4415,1.4613,1.4485,1.4471,1.4339,1.415,1.4198,1.4632,1.4544,1.4449,1.4416,1.4442,1.4691,1.4985,1.4753,1.4597,1.5043,1.5359,1.5567,1.5251,1.5625,1.5636,1.5528,1.5533,1.5537,1.5404,1.5631,1.5611,1.5138,1.4986,1.4809,1.4944,1.5176,1.466,1.4048,1.3986,1.4268,1.4691,1.4665,1.4121,1.4025,1.3789,1.4102,1.4777,1.428,1.3491,1.4462,1.5035,1.4393,1.4934,1.8115,2.1297,2.2703,2.5352,2.6521,2.6068,2.5491,2.259,1.781,1.3244,1.2639,1.2167,1.2112,1.3918,1.4546,1.324,1.3046,1.4752,1.3919,1.343,1.3804,1.4532,1.4498,1.4402,1.3448,1.4282,1.5302,1.3266,1.2623,1.3683,1.3773,1.3976,1.38,1.3461,1.4049,1.399,1.437,1.4788,1.4153,1.3647,1.37,1.4181,1.4136,1.3757,1.3704,1.3758,1.4772,1.4427,1.3992,1.4965,1.4146,1.2938,1.3191,1.4567,1.4048,1.3166,1.3472,1.3638,1.4394,1.4073,1.353,1.3902,1.4462,1.3651,1.3347,1.3891,1.3711,1.3438,1.4056,1.446,1.4075,1.3706,1.3728,1.3705,1.4085,1.4103,1.4066,1.4152,1.4196,1.4054,1.4003,1.4273,1.4631,1.4041,1.3963,1.4337,1.4442,1.4038,1.4027,1.4338,1.4688,1.4887,1.4524,1.4748,1.4774,1.4707,1.4786,1.4997,1.4604,1.4606,1.4892,1.503,1.5034,1.5188,1.4529,1.3978,1.4475,1.4431,1.4434,1.5,1.4818,1.4577,1.4859,1.5201,1.4959,1.4846,1.4778,1.5003,1.5298,1.5394,1.5416,1.5332,1.5251,1.5466,1.5579,1.507,1.5202,1.5713,1.5263,1.493,1.5546,1.5602,1.5178,1.5001,1.5062,1.5375,1.5313,1.5265,1.5,1.4838,1.5023,1.5049,1.5127,1.4954,1.455,1.4749,1.4784,1.4798,1.4924,1.4606,1.4535,1.4748,1.5004,1.4975,1.5324,1.5404,1.4745,1.471,1.509,1.5482,1.5544,1.5438,1.5367,1.5464,1.5464,1.5488,1.5758,1.5731,1.5726,1.5587,1.5507,1.5216,1.4307,1.4048,1.4172,1.4678,1.4542,1.3789,1.3762,1.4037,1.406,1.3984,1.4076,1.4221,1.4176,1.3971,1.3638,1.3991,1.4219,1.3723,1.3357,1.3515,1.4801,1.6583,1.9399,2.2374,2.4951,2.635,2.6207,2.5851,2.3718,1.9466,1.3589,1.2059,1.1789,1.1525,1.2574,1.304,1.333,1.3219,1.346,1.3536,1.3605,1.3329,1.3708,1.3681,1.3785,1.3621,1.3699,1.3675,1.4015,1.3607,1.3415,1.3275,1.3806,1.3703,1.3602,1.368,1.3926,1.3811,1.3845,1.379,1.3636,1.3773,1.3937,1.384,1.3866,1.3781,1.3826,1.3897,1.3719,1.3842,1.3871,1.3723,1.3828,1.3914,1.3566,1.3555,1.374,1.3862,1.3797,1.3808,1.3657,1.3709,1.3854,1.3839,1.3906,1.3801,1.3765,1.378,1.3686,1.3701,1.3836,1.3802,1.383,1.3998,1.3922,1.3852,1.3999,1.3999,1.4027,1.3973,1.4234,1.4449,1.4318,1.426,1.411,1.4272,1.426,1.4277,1.4472,1.4617,1.4617,1.48,1.4738,1.4843,1.4934,1.4855,1.4652,1.4688,1.4634,1.4687,1.4675,1.473,1.4535,1.4732,1.4851,1.4743,1.4519,1.4555,1.469,1.4867,1.5007,1.4935,1.4764,1.459,1.4713,1.493,1.5123,1.5234,1.4803,1.5062,1.5213,1.5265,1.5211,1.5212,1.5525,1.5631,1.5362,1.5409,1.5335,1.5459,1.5453,1.5302,1.5272,1.5184,1.5256,1.5371,1.5279,1.5083,1.5048,1.5077,1.5109,1.5191,1.502,1.4951,1.4961,1.5005,1.4741,1.4504,1.4624,1.4756,1.4678,1.464,1.4672,1.473,1.4543,1.4515,1.4621,1.467,1.4432,1.4442,1.4474,1.4541,1.4587,1.4367,1.4317,1.4508,1.474,1.4421,1.43,1.4357,1.4587,1.4803,1.494,1.4895,1.4939,1.4956,1.5134,1.5225,1.5456,1.5477,1.529,1.546,1.561,1.5411,1.5349,1.5428,1.5459,1.5363,1.5075,1.4571,1.4328,1.4373,1.4286,1.4147,1.4074,1.389,1.404,1.4109,1.3867,1.3929,1.4004,1.3925,1.4077,1.4017,1.3856,1.3836,1.3717,1.3685,1.4002,1.5304,1.7462,2.0454,2.3264,2.5337,2.6089,2.6237,2.5782,2.378,2.0612,1.5097,1.1789,1.1586,1.2134,1.2726,1.2901,1.3292,1.3301,1.3274,1.3486,1.347,1.3646,1.3739,1.3515,1.3348,1.3504,1.3628,1.3648,1.3711,1.3736,1.371,1.366,1.3617,1.3615,1.3601,1.3693,1.3538,1.367,1.372,1.3886,1.3883,1.3542,1.365,1.3856,1.3807,1.3564,1.3596,1.3554,1.3737,1.3908,1.3851,1.3642,1.3593,1.3703,1.3754,1.3854,1.3912,1.3898,1.3665,1.3497,1.3667,1.3745,1.3707,1.3903,1.3691,1.3525,1.3442,1.3493,1.3516,1.3832,1.3911,1.3736,1.3701,1.3838,1.3977,1.4047,1.3973,1.385,1.3884,1.3924,1.3981,1.402,1.4078,1.4284,1.4396,1.4206,1.4143,1.4197,1.43,1.4517,1.4603,1.4606,1.466,1.4701,1.475,1.4689,1.476,1.4727,1.4826,1.4769,1.467,1.471,1.4587,1.4501,1.4717,1.478,1.4652,1.4589,1.4635,1.4624,1.4778,1.4916,1.4791,1.4814,1.483,1.4876,1.5021,1.5034,1.5092,1.5021,1.5082,1.5193,1.5183,1.5233,1.5222,1.5178,1.5391,1.5439,1.5466,1.5286,1.5342,1.5468,1.5291,1.5182,1.5052,1.5094,1.5067,1.5015,1.4939,1.4867,1.4958,1.5026,1.4958,1.4788,1.4748,1.4757,1.4774,1.4675,1.4551,1.4474,1.4546,1.4626,1.4592,1.4335,1.4346,1.4492,1.4407,1.4336,1.419,1.435,1.4474,1.4443,1.4209,1.4138,1.4233,1.4319,1.4302,1.4323,1.4338,1.4417,1.4416,1.4438,1.4365,1.4205,1.4124,1.4106,1.4329,1.4382,1.4222,1.4002,1.4093,1.4137,1.4116,1.4111,1.4125,1.4314,1.4229,1.403,1.4034,1.4144,1.4203,1.4127,1.4108,1.418,1.4065,1.4029,1.4014,1.4097,1.4266,1.4113,1.3951,1.4105,1.4113,1.4177,1.408,1.4089,1.412,1.4178,1.4124,1.4071,1.3946,1.4038,1.4225,1.4098,1.4027,1.3982,1.405,1.4252,1.4299,1.4068,1.4109,1.4119,1.4158,1.4032,1.4061,1.4215,1.4439,1.4669,1.4707,1.4659,1.4446,1.4704,1.4985,1.5048,1.503,1.5016,1.513,1.5153,1.5176,1.5216,1.4966,1.4951,1.4868,1.4652,1.4449,1.414,1.4087,1.3966,1.3999,1.396,1.3952,1.3743,1.3871,1.3815,1.3942,1.3877,1.3895,1.3834,1.3742,1.3619,1.3588,1.4421,1.5912,1.8362,2.1257,2.3819,2.5808,2.6097,2.5773,2.4308,2.282,1.8679,1.3399,1.1743,1.1686,1.2224,1.275,1.3173,1.3448,1.3599,1.3514,1.3329,1.3316,1.3415,1.3537,1.3571,1.3377,1.3592,1.3507,1.3607,1.3622,1.3569,1.3659,1.351,1.3545,1.3646,1.355,1.3544,1.3597,1.3705,1.3721,1.3651,1.3405,1.3509,1.3654,1.3625,1.3566,1.355,1.3503,1.3617,1.3602,1.3602,1.3615,1.365,1.356,1.3553,1.3522,1.353,1.3638,1.3523,1.3484,1.3603,1.3405,1.3268,1.3355,1.3379,1.336,1.3347,1.3333,1.3416,1.3485,1.3575,1.3525,1.3606,1.3629,1.3631,1.3657,1.3718,1.3647,1.3556,1.3606,1.3703,1.3609,1.3641,1.3805,1.3908,1.3967,1.3926,1.3951,1.4135,1.4378,1.4274,1.4292,1.4245,1.4357,1.4634,1.4765,1.4801,1.4613,1.4666,1.4586,1.4543,1.4693,1.4593,1.4547,1.4655,1.4529,1.4675,1.4745,1.4526,1.4743,1.4845,1.4919,1.4782,1.4736,1.487,1.5131,1.5034,1.4954,1.5062,1.5139,1.5364,1.5279,1.5107,1.5195,1.5166,1.5524,1.5643,1.5482,1.527,1.535,1.5646,1.5569,1.5463,1.5385,1.5315,1.5314,1.5158,1.5157,1.5346,1.524,1.4951,1.4936,1.5135,1.5067,1.4915,1.5086,1.5013,1.4892,1.4826,1.4832,1.4957,1.4943,1.4624,1.4656,1.4782,1.4802,1.4644,1.467,1.4818,1.4579,1.4424,1.5128,1.4986,1.4196,1.4122,1.462,1.484,1.4495,1.4489,1.4535,1.4385,1.4698,1.5188,1.468,1.4527,1.468,1.4731,1.5107,1.488,1.4764,1.5096,1.5068,1.5565,1.6008,1.5282,1.5065,1.5443,1.5448,1.5622,1.5549,1.5143,1.4894,1.504,1.5155,1.4769,1.4191,1.4367,1.4833,1.4668,1.4194,1.4393,1.4165,1.3732,1.3882,1.4023,1.4153,1.4225,1.3868,1.4019,1.4432,1.414,1.312,1.3362,1.4812,1.6638,1.9296,2.1794,2.4649,2.643,2.5882,2.5494,2.3465,2.002,1.4265,1.1521,1.1521,1.1871,1.2504,1.3159,1.3746,1.3683,1.3562,1.349,1.3622,1.3255,1.3388,1.381,1.372,1.3238,1.3653,1.3968,1.3976,1.377,1.3966,1.3644,1.3538,1.3416,1.3331,1.352,1.3828,1.3714,1.354,1.3651,1.4017,1.4093,1.397,1.3501,1.3792,1.3732,1.3637,1.3861,1.3851,1.3817,1.3995,1.3934,1.3698,1.3406,1.3441,1.3987,1.4097,1.3675,1.3442,1.3455,1.3541,1.3577,1.3669,1.3757,1.3586,1.3481,1.3708,1.3617,1.3583,1.3678,1.3775,1.3906,1.4006,1.3966,1.3846,1.3643,1.3688,1.382,1.3877,1.3947,1.3932,1.393,1.378,1.3887,1.3899,1.3942,1.4132,1.4203,1.4287,1.4409,1.4371,1.4542,1.4683,1.4752,1.4643,1.4718,1.483,1.4794,1.4693,1.4678,1.4639,1.458,1.4663,1.461,1.4583,1.4524,1.4558,1.465,1.469,1.4625,1.4655,1.4739,1.4864,1.4961,1.4815,1.4931,1.4994,1.5092,1.5273,1.5355,1.5382,1.5373,1.5615,1.5584,1.5592,1.5646,1.5494,1.5686,1.5743,1.5727,1.5701,1.5694,1.5665,1.5661,1.5602,1.5483,1.5511,1.5501,1.5493,1.5435,1.5368,1.5392,1.5302,1.5299,1.5171,1.5091,1.5029,1.5112,1.5181,1.5028,1.4872,1.4903,1.4914,1.4924,1.4888,1.4846,1.4851,1.4831,1.4938,1.4933,1.4702,1.4808,1.4759,1.4824,1.4839,1.4729,1.4696,1.4699,1.4773,1.4843,1.4845,1.5006,1.5139,1.5285,1.5359,1.5482,1.5493,1.577,1.5861,1.5764,1.5756,1.5721,1.5699,1.5851,1.5819,1.5823,1.5553,1.5376,1.5297,1.4957,1.4773,1.4491,1.4437,1.4443,1.4418,1.4355,1.4174,1.4269,1.4265,1.4272,1.4345,1.4167,1.4192,1.4174,1.4209,1.4145,1.3935,1.3921,1.3935,1.584,1.8239,2.108,2.3965,2.5939,2.6781,2.6034,2.4909,2.1768,1.7214,1.2695,1.1717,1.1947,1.2535,1.2812,1.3134,1.3503,1.3643,1.3681,1.3683,1.374,1.3781,1.3838,1.3701,1.3798,1.3817,1.395,1.389,1.3834,1.3835,1.3888,1.3853,1.3979,1.3812,1.3867,1.3777,1.3949,1.393,1.398,1.3847,1.3828,1.3954,1.3934,1.3926,1.3911,1.3946,1.3974,1.3975,1.3889,1.3891,1.3902,1.404,1.397,1.3953,1.3926,1.3874,1.3948,1.4016,1.3965,1.3904,1.3925,1.3926,1.3887,1.3889,1.379,1.385,1.397,1.3973,1.3989,1.3903,1.3909,1.4098,1.4112,1.4129,1.4055,1.4056,1.4059,1.416,1.4124,1.417,1.4211,1.4262,1.4316,1.4312,1.4339,1.4408,1.4476,1.4624,1.467,1.4697,1.4707,1.4777,1.4946,1.4973,1.4948,1.4871,1.4884,1.4878,1.4962,1.4856,1.4794,1.4791,1.4787,1.481,1.4767,1.4658,1.475,1.4808,1.4883,1.4896,1.48,1.4932,1.4989,1.5005,1.5011,1.5001,1.5119,1.5185,1.5325,1.5335,1.5294,1.5297,1.5365,1.5492,1.5456,1.5487,1.5489,1.5501,1.5591,1.5495,1.548,1.5441,1.5413,1.5486,1.5395,1.5315,1.522,1.5228,1.5177,1.5129,1.5137,1.5046,1.503,1.5031,1.5004,1.5004,1.4831,1.4869,1.4893,1.4827,1.4799,1.4696,1.4683,1.4726,1.4707,1.4668,1.46,1.4562,1.4545,1.4656,1.4655,1.4585,1.4539,1.4559,1.4548,1.4521,1.4493,1.4452,1.4494,1.4559,1.4506,1.4423,1.4428,1.4529,1.4511,1.4458,1.445,1.4352,1.4419,1.4418,1.4469,1.4434,1.4394,1.4357,1.44,1.4501,1.4689,1.4764,1.4736,1.4962,1.5109,1.5239,1.5193,1.5387,1.5558,1.5478,1.5532,1.5555,1.5362,1.548,1.5614,1.5487,1.5346,1.5159,1.4999,1.4833,1.4696,1.4515,1.4412,1.4259,1.4242,1.4228,1.4159,1.4087,1.4125,1.4166,1.4131,1.4169,1.4046,1.3998,1.4055,1.39,1.3869,1.4176,1.5286,1.7145,1.9968,2.2818,2.5128,2.6416,2.6079,2.5476,2.4418,2.1249,1.5998,1.2138,1.1721,1.2021,1.2682,1.3194,1.3442,1.3812,1.3651,1.3651,1.3684,1.3745,1.3737,1.3867,1.373,1.3793,1.3821,1.39,1.3913,1.3917,1.383,1.3796,1.3917,1.3815,1.3833,1.3818,1.3852,1.3896,1.3897,1.3865,1.3829,1.3835,1.3948,1.394,1.386,1.3784,1.3762,1.3841,1.394,1.3945,1.3828,1.3869,1.383,1.387,1.3901,1.387,1.3904,1.37,1.3913,1.3935,1.3726,1.3674,1.3728,1.3672,1.3727,1.373,1.3746,1.3756,1.379,1.3814,1.3833,1.387,1.3872,1.3994,1.3938,1.3995,1.3923,1.3955,1.4065,1.4039,1.4034,1.4009,1.4052,1.4131,1.4292,1.4369,1.4324,1.4378,1.4546,1.464,1.4685,1.4649,1.4849,1.4914,1.4899,1.4993,1.4866,1.4895,1.4905,1.4864,1.4927,1.4883,1.4827,1.4884,1.4897,1.4877,1.4807,1.4746,1.4797,1.4896,1.4946,1.4886,1.4966,1.4994,1.5077,1.5092,1.5191,1.511,1.5211,1.5361,1.5359,1.5471,1.5386,1.5456,1.551,1.5513,1.5557,1.5454,1.5447,1.5533,1.5534,1.5545,1.5519,1.5511,1.5527,1.5497,1.5477,1.5322,1.5283,1.5342,1.5278,1.5234,1.5114,1.5056,1.5053,1.5075,1.5042,1.4939,1.4913,1.4958,1.4989,1.4952,1.4822,1.4718,1.4755,1.4875,1.4877,1.4803,1.4731,1.4658,1.4711,1.4726,1.4775,1.4857,1.5,1.5135,1.5219,1.5291,1.5427,1.547,1.567,1.5788,1.5707,1.562,1.5688,1.58,1.5803,1.5831,1.5758,1.5594,1.5461,1.5467,1.5127,1.4751,1.4634,1.4599,1.4483,1.4472,1.4374,1.4265,1.428,1.4384,1.4224,1.4183,1.4099,1.4141,1.4238,1.4275,1.4172,1.4084,1.3968,1.405,1.4657,1.5914,1.8189,2.1038,2.3904,2.5992,2.6624,2.603,2.4739,2.1777,1.6758,1.2461,1.1839,1.2031,1.2693,1.3087,1.3277,1.366,1.3672,1.3816,1.3781,1.3902,1.3835,1.3906,1.3845,1.4056,1.3985,1.4022,1.3981,1.4019,1.4042,1.4101,1.3983,1.4001,1.3961,1.4069,1.4088,1.4085,1.4064,1.4094,1.4144,1.4152,1.4137,1.4108,1.4108,1.4199,1.4187,1.4164,1.4018,1.4084,1.4174,1.4202,1.4163,1.4091,1.413,1.4134,1.4095,1.4137,1.402,1.4,1.4079,1.4081,1.4136,1.3969,1.3984,1.4014,1.4095,1.4016,1.3919,1.3974,1.4094,1.416,1.4201,1.4129,1.4175,1.4193,1.4241,1.4239,1.4254,1.4244,1.4364,1.4409,1.4359,1.4368,1.4423,1.4517,1.4635,1.4745,1.4823,1.4789,1.4895,1.5045,1.5114,1.5067,1.5089,1.5115,1.5162,1.5107,1.5063,1.4928,1.4999,1.497,1.4987,1.4944,1.487,1.4875,1.4957,1.4997,1.4913,1.4875,1.4922,1.5028,1.5157,1.5128,1.5175,1.5193,1.5275,1.5335,1.5396,1.5437,1.5398,1.5488,1.5682,1.5574,1.564,1.5673,1.5651,1.5743,1.5718,1.5723,1.5661,1.5704,1.5815,1.573,1.5649,1.5597,1.5604,1.5595,1.5624,1.5585,1.5452,1.5409,1.5392,1.5374,1.5297,1.518,1.5162,1.5173,1.518,1.5139,1.5055,1.4963,1.5003,1.4999,1.4956,1.4905,1.4885,1.4903,1.4964,1.4892,1.4871,1.4855,1.4794,1.4954,1.4832,1.4805,1.4792,1.483,1.4889,1.4794,1.473,1.4689,1.4698,1.4822,1.4783,1.4712,1.4685,1.4705,1.4687,1.474,1.4663,1.4627,1.4625,1.4717,1.4784,1.466,1.4561,1.4576,1.463,1.4691,1.4674,1.4608,1.4659,1.4674,1.4634,1.4629,1.4557,1.4594,1.4629,1.4672,1.4672,1.4675,1.4618,1.4649,1.4666,1.4705,1.4579,1.4588,1.4633,1.4735,1.4782,1.4624,1.4661,1.4744,1.4705,1.4676,1.4598,1.4624,1.458,1.4634,1.4636,1.4668,1.4589,1.4572,1.464,1.4669,1.4662,1.4646,1.4838,1.5026,1.5114,1.5219,1.5263,1.5463,1.5498,1.5655,1.5772,1.556,1.5733,1.5754,1.5769,1.5796,1.5777,1.5691,1.559,1.5444,1.5267,1.5148,1.4981,1.477,1.4752,1.4604,1.4567,1.4456,1.4431,1.4489,1.4444,1.4439,1.4414,1.4377,1.4371,1.4375,1.4214,1.4145,1.4749,1.6161,1.8219,2.1148,2.3938,2.5953,2.661,2.6052,2.5043,2.2157,1.7687,1.3237,1.1997,1.2639,1.3076,1.3396,1.3668,1.3959,1.396,1.3978,1.3911,1.3908,1.4101,1.4196,1.4071,1.4084,1.4101,1.4161,1.4143,1.4075,1.4137,1.4135,1.4133,1.415,1.4029,1.4024,1.4068,1.4115,1.4107,1.4131,1.406,1.4096,1.4162,1.415,1.4163,1.413,1.4133,1.4201,1.4114,1.4179,1.4076,1.4141,1.4137,1.421,1.4155,1.4124,1.4157,1.4155,1.4248,1.414,1.409,1.404,1.4083,1.4208,1.4079,1.3996,1.4021,1.4047,1.4153,1.4143,1.4076,1.414,1.4244,1.435,1.4211,1.4208,1.425,1.4202,1.4387,1.4357,1.4297,1.4283,1.4344,1.4446,1.4495,1.4493,1.4506,1.4622,1.4796,1.4778,1.4839,1.4904,1.5016,1.5179,1.5164,1.516,1.5162,1.5181,1.5188,1.5231,1.5234,1.5118,1.5159,1.5148,1.5258,1.5235,1.5128,1.5172,1.5235,1.5319,1.5329,1.5254,1.5348,1.538,1.55,1.5545,1.5464,1.5503,1.5604,1.5663,1.5748,1.5778,1.5728,1.5789,1.5847,1.5963,1.5888,1.5791,1.5873,1.593,1.5974,1.5973,1.5833,1.5771,1.5809,1.5815,1.5737,1.5667,1.5653,1.5636,1.5628,1.5614,1.5402,1.5383,1.5388,1.5321,1.5271,1.5133,1.5137,1.5129,1.5123,1.5149,1.5009,1.497,1.5014,1.5004,1.5031,1.4954,1.4838,1.4874,1.4953,1.4914,1.4891,1.4737,1.478,1.4882,1.4807,1.4788,1.4775,1.4797,1.4877,1.4803,1.473,1.4623,1.4652,1.4643,1.4672,1.4615,1.4559,1.4614,1.4672,1.4707,1.4717,1.4563,1.4508,1.4618,1.4589,1.4609,1.4568,1.4529,1.4576,1.4653,1.4645,1.4553,1.4497,1.4574,1.4588,1.4648,1.4588,1.4464,1.4574,1.4609,1.4607,1.453,1.4548,1.4557,1.4548,1.4508,1.4534,1.4544,1.4555,1.4624,1.4592,1.4671,1.4857,1.4858,1.5076,1.5211,1.5263,1.5246,1.5254,1.5562,1.5628,1.5513,1.556,1.5502,1.554,1.5613,1.5538,1.5401,1.5216,1.5138,1.4938,1.4703,1.45,1.4407,1.4405,1.4434,1.4409,1.4364,1.4309,1.4222,1.4256,1.4276,1.4144,1.4138,1.4157,1.4166,1.4059,1.4139,1.5057,1.6659,1.9308,2.218,2.4638,2.6232,2.6217,2.6077,2.5414,2.2708,1.8243,1.3294,1.1964,1.2228,1.2723,1.3267,1.3518,1.3773,1.3706,1.3895,1.3782,1.3957,1.3925,1.4076,1.3935,1.4003,1.3892,1.3972,1.4003,1.4129,1.41,1.4062,1.3963,1.4102,1.4075,1.4097,1.4011,1.3993,1.4049,1.4109,1.4005,1.4007,1.4015,1.4054,1.4077,1.4063,1.4031,1.4012,1.4107,1.4133,1.407,1.3939,1.3914,1.3992,1.4058,1.4071,1.397,1.4013,1.4096,1.4023,1.3962,1.3852,1.3832,1.3881,1.3967,1.3973,1.3839,1.3865,1.3891,1.3894,1.3935,1.3917,1.3925,1.4029,1.4187,1.4182,1.4066,1.409,1.4077,1.414,1.4214,1.4218,1.4171,1.4168,1.4355,1.4384,1.4387,1.4452,1.4575,1.4686,1.4832,1.4851,1.4863,1.4876,1.4943,1.4992,1.5126,1.5059,1.5039,1.5045,1.5009,1.4983,1.4896,1.4856,1.5016,1.495,1.4947,1.4845,1.4825,1.5024,1.5088,1.5083,1.4988,1.5017,1.5073,1.528,1.5356,1.5317,1.5356,1.5391,1.5586,1.5463,1.5542,1.5505,1.5712,1.5711,1.5698,1.5665,1.568,1.5707,1.5801,1.571,1.5713,1.5666,1.5585,1.5663,1.5647,1.561,1.5552,1.5429,1.5552,1.5361,1.5363,1.5234,1.5181,1.5158,1.508,1.5087,1.4984,1.4982,1.5051,1.4981,1.4974,1.4897,1.4923,1.488,1.4933,1.4879,1.4808,1.4773,1.4692,1.4847,1.4829,1.4706,1.4697,1.4677,1.4638,1.4705,1.4636,1.4619,1.4658,1.487,1.4871,1.499,1.502,1.5091,1.5339,1.5402,1.5383,1.5499,1.5694,1.5702,1.5701,1.5668,1.555,1.5652,1.5696,1.5599,1.5449,1.5234,1.5043,1.4896,1.4807,1.4678,1.4468,1.4398,1.4357,1.433,1.4197,1.4199,1.4255,1.4201,1.4236,1.4213,1.4127,1.412,1.4067,1.4077,1.4008,1.4019,1.4856,1.6484,1.9153,2.0682,2.3369,2.5703,2.6504,2.6316,2.5343,2.2698,1.8019,1.3074,1.1871,1.2018,1.2296,1.3202,1.3383,1.3872,1.371,1.3984,1.3724,1.4003,1.3814,1.4038,1.384,1.3988,1.3918,1.4154,1.3979,1.4123,1.391,1.41,1.396,1.4153,1.4012,1.4025,1.396,1.4125,1.3996,1.4099,1.4009,1.414,1.4042,1.4119,1.4054,1.4101,1.4036,1.4051,1.4123,1.4099,1.4057,1.407,1.4079,1.4043,1.4129,1.4068,1.4,1.3912,1.4048,1.4006,1.411,1.3878,1.3982,1.3964,1.3962,1.3893,1.3841,1.3855,1.3949,1.3932,1.4022,1.3973,1.4048,1.4056,1.4174,1.4108,1.4118,1.41,1.4192,1.4158,1.4244,1.416,1.4212,1.4264,1.4354,1.4309
