2.1085,2.133,2.1199,2.1149,2.111,2.1148,2.1202,2.1198,2.1186,2.1142,2.1117,2.1298,2.127,2.1236,2.1136,2.1144,2.1225,2.12,2.1172,2.1171,2.1195,2.1246,2.1191,2.1215,2.1114,2.1055,2.1056,2.1156,2.1123,2.1088,2.101,2.104,2.1146,2.1056,2.1063,2.1094,2.118,2.121,2.1218,2.1272,2.1262,2.1212,2.1373,2.1323,2.1348,2.1295,2.1307,2.1373,2.1359,2.1382,2.1442,2.1494,2.1612,2.1605,2.1675,2.1679,2.1764,2.1855,2.1975,2.2061,2.2027,2.2025,2.2198,2.2218,2.225,2.2224,2.223,2.2135,2.2231,2.2142,2.2075,2.2116,2.2089,2.2218,2.2168,2.2082,2.212,2.2129,2.2285,2.2265,2.2234,2.2257,2.231,2.2424,2.2461,2.2481,2.2552,2.2538,2.2631,2.2695,2.2703,2.2685,2.2739,2.2802,2.2844,2.2874,2.2844,2.2798,2.2865,2.2829,2.2844,2.2729,2.2714,2.276,2.2705,2.2619,2.2583,2.2549,2.2503,2.2587,2.2544,2.2345,2.2325,2.2286,2.2282,2.2291,2.2169,2.2141,2.2086,2.2094,2.2089,2.1999,2.1918,2.1931,2.2002,2.1953,2.1935,2.1808,2.1825,2.1854,2.1917,2.1816,2.1748,2.1795,2.1798,2.1842,2.1758,2.167,2.1677,2.1744,2.1719,2.1738,2.1598,2.1632,2.1634,2.1652,2.1671,2.1685,2.1674,2.1658,2.1691,2.1689,2.1596,2.1593,2.1626,2.1683,2.1663,2.1578,2.1564,2.1563,2.1635,2.1626,2.1518,2.1507,2.1525,2.1567,2.1635,2.1607,2.1486,2.1488,2.1553,2.157,2.1563,2.1447,2.1467,2.1472,2.1476,2.1503,2.1473,2.1479,2.1482,2.1522,2.1474,2.1405,2.1454,2.1519,2.1648,2.1778,2.184,2.198,2.2042,2.229,2.2361,2.2414,2.2384,2.2559,2.2575,2.2539,2.2518,2.2546,2.2547,2.2473,2.2347,2.2085,2.1851,2.1804,2.1744,2.1511,2.1456,2.131,2.1233,2.1306,2.128,2.1246,2.117,2.1123,2.1195,2.1211,2.117,2.106,2.0991,2.1043,2.1126,2.2022,2.3515,2.5908,2.8908,3.1564,3.2665,3.3572,3.3117,3.2489,3.0245,2.6126,2.1034,1.8639,1.8935,1.9545,2.0153,2.0268,2.0655,2.0582,2.0918,2.0707,2.0778,2.0748,2.0878,2.0849,2.0989,2.0865,2.0867,2.0777,2.0905,2.0881,2.0972,2.0783,2.0855,2.09,2.094,2.0918,2.0853,2.0794,2.0931,2.0942,2.0967,2.085,2.0951,2.0909,2.1,2.0953,2.0871,2.0885,2.0961,2.1026,2.0962,2.0841,2.0884,2.0859,2.0961,2.0958,2.0925,2.0884,2.0878,2.0914,2.0953,2.0881,2.0881,2.0864,2.092,2.0954,2.0864,2.0925,2.0896,2.097,2.1068,2.114,2.0993,2.107,2.1075,2.1167,2.1138,2.1105,2.1119,2.1204,2.1284,2.1272,2.1215,2.1291,2.1354,2.1474,2.1531,2.1491,2.1472,2.1605,2.1716,2.1848,2.1814,2.1885,2.1875,2.2014,2.2014,2.1987,2.1913,2.192,2.1942,2.1952,2.189,2.1862,2.1824,2.1872,2.1832,2.1841,2.1774,2.1801,2.1872,2.1915,2.197,2.1914,2.1967,2.2058,2.2089,2.2174,2.2128,2.2164,2.2273,2.2403,2.2403,2.2343,2.2382,2.2455,2.248,2.2549,2.2492,2.2472,2.2503,2.2582,2.2572,2.2568,2.2462,2.2422,2.2508,2.2493,2.2355,2.2238,2.2228,2.2315,2.2174,2.2133,2.2001,2.2005,2.2056,2.2005,2.2014,2.1867,2.1802,2.1837,2.1799,2.1782,2.1745,2.1698,2.1721,2.1716,2.1638,2.1647,2.1531,2.1608,2.1585,2.1585,2.1569,2.1485,2.1486,2.1533,2.1521,2.1506,2.1461,2.1399,2.1509,2.1525,2.1429,2.1412,2.1389,2.1415,2.1429,2.1338,2.1373,2.1338,2.1431,2.1381,2.1366,2.1319,2.1335,2.1409,2.1394,2.136,2.1332,2.1275,2.1393,2.1351,2.1419,2.1257,2.1264,2.1274,2.1321,2.1315,2.1235,2.1272,2.1375,2.1354,2.1305,2.1231,2.128,2.1281,2.1364,2.1308,2.1282,2.1279,2.1247,2.1365,2.1329,2.1304,2.1284,2.1219,2.1356,2.1301,2.1312,2.1265,2.1234,2.1338,2.1356,2.1345,2.1316,2.1265,2.129,2.1309,2.1276,2.1277,2.1234,2.1264,2.1382,2.1367,2.1375,2.1573,2.1734,2.1966,2.2001,2.2016,2.2196,2.228,2.2478,2.2479,2.2397,2.2448,2.2478,2.2527,2.2458,2.235,2.2186,2.1985,2.1814,2.1708,2.1509,2.1345,2.1268,2.1215,2.1249,2.1168,2.1065,2.0987,2.1089,2.1049,2.1003,2.0935,2.0953,2.0985,2.0936,2.0891,2.1121,2.2322,2.428,2.7205,3.0035,3.2192,3.3419,3.3132,3.2632,3.0428,2.649,2.1404,1.8632,1.8656,1.93,1.9699,1.9898,2.0386,2.0328,2.0596,2.0574,2.0619,2.0596,2.0743,2.0741,2.071,2.0593,2.067,2.0678,2.0746,2.0689,2.0656,2.0645,2.07,2.0702,2.0687,2.0568,2.066,2.0664,2.0675,2.074,2.0635,2.0662,2.0743,2.0769,2.079,2.0675,2.0715,2.0717,2.0691,2.0819,2.0783,2.0809,2.0725,2.0717,2.0763,2.0735,2.0719,2.0738,2.0801,2.0813,2.0832,2.063,2.064,2.0786,2.0723,2.0762,2.0732,2.0727,2.0803,2.085,2.0825,2.0825,2.089,2.0939,2.0898,2.1007,2.0883,2.0935,2.0935,2.1072,2.1121,2.105,2.0999,2.1067,2.1151,2.1209,2.1157,2.1267,2.1389,2.1548,2.1626,2.1583,2.1621,2.1739,2.1799,2.1799,2.1903,2.1894,2.19,2.1873,2.1835,2.1797,2.1767,2.171,2.1788,2.1749,2.1774,2.1676,2.1685,2.1842,2.1841,2.1869,2.1911,2.1897,2.1982,2.2088,2.2065,2.2061,2.2081,2.2114,2.2269,2.2341,2.2393,2.2375,2.2319,2.2403,2.242,2.2413,2.2409,2.2448,2.2494,2.2494,2.2364,2.2327,2.235,2.2463,2.235,2.2246,2.225,2.2233,2.2217,2.2144,2.2087,2.2,2.195,2.1969,2.2072,2.1879,2.1833,2.1784,2.181,2.1873,2.1735,2.1577,2.1603,2.1648,2.1688,2.1651,2.1544,2.1563,2.1481,2.1539,2.1566,2.1454,2.1491,2.145,2.152,2.1511,2.1452,2.1423,2.1375,2.1506,2.1469,2.1348,2.1362,2.1397,2.1462,2.1459,2.1399,2.1322,2.1301,2.1457,2.1424,2.1463,2.1379,2.1373,2.1497,2.1374,2.1289,2.129,2.1407,2.1442,2.1505,2.149,2.1378,2.131,2.1463,2.15,2.1822,2.191,2.1949,2.2066,2.2244,2.2412,2.2396,2.2702,2.2737,2.2722,2.2694,2.2501,2.2675,2.283,2.2708,2.2862,2.2524,2.223,2.1935,2.1739,2.1658,2.1487,2.1481,2.1387,2.1324,2.1438,2.1511,2.1266,2.127,2.1421,2.126,2.1354,2.1922,2.1706,2.0733,2.0656,2.103,2.1249,2.2523,2.4667,2.7153,2.9546,3.1591,3.2753,3.3655,3.3459,3.2128,2.9619,2.5025,1.9919,1.8809,1.9033,1.949,2.0309,2.0258,2.0711,2.1189,2.1431,2.1327,2.119,2.1135,2.1306,2.0843,2.0888,2.103,2.1148,2.0973,2.078,2.0611,2.0828,2.103,2.1285,2.1252,2.0814,2.0874,2.1167,2.1187,2.1322,2.1069,2.1464,2.1641,2.1115,2.0924,2.1227,2.1266,2.1397,2.1306,2.1107,2.1032,2.1415,2.1396,2.1121,2.1161,2.1193,2.0835,2.1022,2.1213,2.098,2.0807,2.0841,2.0888,2.106,2.1296,2.1333,2.1145,2.0921,2.0915,2.1077,2.1084,2.111,2.1149,2.1311,2.1382,2.1361,2.118,2.107,2.1279,2.1373,2.1535,2.1322,2.1142,2.1276,2.1607,2.1628,2.1563,2.1489,2.1498,2.1529,2.1729,2.1773,2.1769,2.1857,2.2078,2.2066,2.2159,2.2107,2.2076,2.2019,2.2068,2.1992,2.2086,2.2012,2.2153,2.2005,2.2001,2.1932,2.1904,2.2038,2.2177,2.1965,2.2024,2.2175,2.23,2.2337,2.2251,2.2279,2.2358,2.2379,2.2466,2.2497,2.2436,2.2527,2.269,2.2659,2.2806,2.2845,2.2763,2.2594,2.2723,2.2739,2.26,2.2601,2.2589,2.264,2.2675,2.2601,2.2451,2.2404,2.2436,2.2429,2.2443,2.2354,2.2273,2.2267,2.224,2.2139,2.2024,2.2056,2.2069,2.2046,2.205,2.1868,2.19,2.1908,2.188,2.1851,2.1716,2.1715,2.1763,2.1792,2.1815,2.1704,2.1711,2.1698,2.1702,2.1683,2.1633,2.1616,2.1612,2.1697,2.1693,2.1645,2.1603,2.1587,2.1719,2.1649,2.1616,2.1574,2.1529,2.1602,2.1631,2.1616,2.1566,2.1605,2.1667,2.1666,2.1603,2.1628,2.1773,2.2002,2.216,2.2355,2.2284,2.2399,2.2564,2.2713,2.2801,2.2778,2.2777,2.2869,2.2869,2.2882,2.2746,2.2618,2.2547,2.2305,2.2163,2.208,2.1861,2.1805,2.1642,2.1652,2.1548,2.1403,2.1427,2.1587,2.1496,2.1451,2.1378,2.1368,2.1396,2.1462,2.134,2.1277,2.1298,2.2062,2.3384,2.4456,2.7111,3.0016,3.251,3.4067,3.373,3.3093,3.0979,2.7476,2.2157,1.9289,1.8878,1.9467,2.0202,2.0604,2.0908,2.1008,2.1048,2.1058,2.1164,2.1155,2.1145,2.1147,2.1182,2.1234,2.1312,2.1299,2.125,2.1263,2.1453,2.1371,2.1433,2.128,2.125,2.1393,2.1353,2.1382,2.135,2.1331,2.1447,2.1372,2.1362,2.1308,2.1413,2.1395,2.1454,2.1415,2.1396,2.1358,2.146,2.1464,2.1434,2.1372,2.1379,2.1355,2.1476,2.1469,2.1344,2.1363,2.1368,2.1389,2.1382,2.1358,2.1325,2.1332,2.1419,2.1436,2.1495,2.1416,2.1438,2.156,2.1588,2.1592,2.1615,2.1539,2.1657,2.1719,2.1651,2.1742,2.1689,2.1824,2.185,2.178,2.1798,2.1882,2.19,2.2037,2.209,2.2141,2.2182,2.2255,2.2395,2.2431,2.2416,2.2456,2.247,2.2469,2.2484,2.2361,2.2367,2.2295,2.2417,2.238,2.2382,2.2238,2.2281,2.2332,2.2324,2.2326,2.2318,2.2383,2.2433,2.2447,2.2496,2.2452,2.2529,2.2632,2.2688,2.273,2.2711,2.2803,2.2781,2.2816,2.2892,2.2822,2.2843,2.2937,2.2971,2.3019,2.2854,2.2896,2.2935,2.2977,2.2948,2.2841,2.2856,2.2829,2.2859,2.2804,2.266,2.258,2.257,2.259,2.2601,2.2482,2.2353,2.2359,2.2456,2.2421,2.2333,2.2164,2.2126,2.218,2.2154,2.213,2.2027,2.2095,2.2132,2.2073,2.2046,2.1968,2.1981,2.202,2.2024,2.2002,2.1902,2.1905,2.1884,2.192,2.191,2.1834,2.1839,2.1858,2.191,2.1923,2.181,2.1779,2.1804,2.18,2.1765,2.1743,2.1721,2.1786,2.1806,2.1838,2.1789,2.1716,2.1766,2.1816,2.1782,2.1769,2.1711,2.1717,2.184,2.1795,2.1764,2.1668,2.1741,2.185,2.1896,2.214,2.2167,2.2268,2.2436,2.2469,2.2539,2.2666,2.271,2.2817,2.2994,2.2908,2.2836,2.2803,2.285,2.2891,2.2669,2.2475,2.2226,2.2136,2.2025,2.1834,2.1729,2.1591,2.1543,2.1579,2.1528,2.1465,2.1369,2.1311,2.1382,2.1366,2.1363,2.1347,2.136,2.1372,2.1297,2.1417,2.2222,2.3778,2.6438,2.9405,3.2029,3.3632,3.3801,3.3482,3.2917,3.0382,2.6254,2.1016,1.8752,1.8892,1.9521,2.0203,2.0429,2.0711,2.0777,2.0916,2.0851,2.0949,2.0853,2.0987,2.0943,2.101,2.0963,2.1011,2.1008,2.1071,2.0923,2.0993,2.0994,2.1086,2.1109,2.104,2.0937,2.1026,2.1014,2.1126,2.1033,2.1036,2.1014,2.1083,2.1085,2.1078,2.1014,2.1015,2.1051,2.1139,2.1056,2.0981,2.102,2.0962,2.1118,2.1137,2.1003,2.0977,2.1019,2.1047,2.1024,2.0923,2.0956,2.0939,2.1008,2.1036,2.1017,2.0989,2.1018,2.1044,2.1025,2.1095,2.105,2.1111,2.1197,2.1117,2.1239,2.1169,2.13,2.1296,2.1305,2.129,2.1317,2.1316,2.1477,2.1493,2.1492,2.1424,2.1639,2.1728,2.1841,2.1846,2.1855,2.191,2.195,2.2092,2.2057,2.2099,2.2066,2.2055,2.2015,2.1974,2.1938,2.1886,2.1923,2.1978,2.1903,2.1876,2.1893,2.186,2.1898,2.1962,2.2001,2.1927,2.2036,2.2159,2.2171,2.2211,2.2176,2.2221,2.2365,2.2358,2.2464,2.2418,2.242,2.2532,2.245,2.2553,2.2388,2.2422,2.248,2.2575,2.2508,2.2456,2.2383,2.2378,2.2526,2.236,2.2335,2.2209,2.2123,2.2183,2.2231,2.2125,2.2075,2.2019,2.2024,2.1932,2.1837,2.1758,2.1711,2.1791,2.177,2.1731,2.1664,2.1639,2.1679,2.1656,2.1588,2.1521,2.1453,2.1526,2.1547,2.1536,2.159,2.1665,2.1815,2.2042,2.2106,2.2138,2.2163,2.2227,2.2496,2.2551,2.2499,2.244,2.2454,2.2567,2.2619,2.255,2.2398,2.2258,2.2297,2.2017,2.1607,2.1391,2.1262,2.1254,2.1202,2.1126,2.1074,2.1041,2.103,2.0942,2.0928,2.0887,2.095,2.0951,2.0983,2.0944,2.0839,2.0724,2.0726,2.1031,2.1923,2.3483,2.6291,2.9236,3.1695,3.3342,3.3539,3.3296,3.2331,2.9592,2.4989,1.9637,1.8497,1.8513,1.8998,1.9805,2.0037,2.0414,2.0424,2.0645,2.058,2.0669,2.0519,2.0717,2.0676,2.0837,2.0636,2.08,2.0651,2.0833,2.0858,2.0813,2.067,2.0814,2.0823,2.0951,2.0842,2.0764,2.0715,2.0809,2.084,2.0942,2.0769,2.0813,2.0857,2.0889,2.0804,2.079,2.0845,2.0924,2.0905,2.0947,2.0852,2.0819,2.0781,2.0811,2.0857,2.0823,2.081,2.0803,2.0791,2.0738,2.0634,2.059,2.0737,2.0798,2.0852,2.0785,2.0739,2.0857,2.0898,2.0897,2.0939,2.0879,2.0923,2.0967,2.1042,2.1064,2.0956,2.0975,2.1069,2.1096,2.1149,2.1088,2.121,2.1313,2.1388,2.1398,2.1421,2.145,2.159,2.1719,2.1824,2.1786,2.1908,2.1854,2.1979,2.1939,2.1873,2.1728,2.1769,2.1862,2.1808,2.1757,2.1715,2.1649,2.1765,2.1741,2.1774,2.1701,2.1701,2.1808,2.1937,2.1913,2.1891,2.1871,2.2095,2.2084,2.212,2.2081,2.2202,2.2249,2.2344,2.2414,2.237,2.2411,2.2514,2.2524,2.2504,2.2381,2.2445,2.2486,2.2569,2.2512,2.2422,2.2418,2.2353,2.2415,2.2332,2.2271,2.2237,2.2174,2.2183,2.2178,2.2127,2.2002,2.1979,2.2017,2.1996,2.191,2.1853,2.1817,2.1877,2.1911,2.1919,2.1978,2.209,2.2227,2.2223,2.2289,2.2338,2.2481,2.2645,2.2847,2.2748,2.2733,2.2707,2.2785,2.2857,2.2812,2.2767,2.2571,2.2452,2.2337,2.197,2.1724,2.1596,2.1476,2.1491,2.1446,2.1347,2.1251,2.1221,2.1323,2.1224,2.121,2.1218,2.1139,2.1278,2.123,2.1141,2.1069,2.1001,2.0976,2.1274,2.2265,2.3947,2.684,2.9727,3.225,3.3802,3.3663,3.3045,3.0917,2.7257,2.1555,1.8807,1.8652,1.9037,1.9867,2.02,2.0373,2.0475,2.07,2.081,2.0904,2.0771,2.0792,2.0818,2.0946,2.0859,2.0908,2.0882,2.0974,2.0933,2.1023,2.0939,2.0998,2.0949,2.1065,2.0999,2.1071,2.0906,2.0958,2.0964,2.1041,2.1014,2.1006,2.0987,2.1106,2.1074,2.1104,2.103,2.1103,2.1112,2.1134,2.1104,2.109,2.0989,2.1076,2.1035,2.11,2.1038,2.0989,2.0954,2.1061,2.1055,2.1055,2.0976,2.1062,2.1143,2.1091,2.1187,2.1124,2.1164,2.123,2.1301,2.1289,2.1295,2.1252,2.142,2.1395,2.1403,2.1314,2.1395,2.1444,2.1552,2.1538,2.1517,2.157,2.1691,2.1836,2.1906,2.1893,2.1923,2.205,2.2127,2.2185,2.2135,2.2158,2.2205,2.2262,2.2184,2.2169,2.2122,2.2098,2.2253,2.2103,2.2147,2.2047,2.2021,2.212,2.2168,2.2128,2.208,2.2098,2.2175,2.2195,2.2235,2.2214,2.2291,2.2419,2.2444,2.2418,2.2456,2.2463,2.2548,2.2596,2.2608,2.2586,2.2634,2.2666,2.2773,2.2749,2.2695,2.2657,2.2739,2.2777,2.2753,2.2664,2.2658,2.2636,2.2686,2.2608,2.2522,2.2437,2.238,2.2415,2.2407,2.2292,2.2269,2.2123,2.2171,2.2166,2.2132,2.2015,2.1936,2.2098,2.2025,2.1897,2.1926,2.1881,2.1908,2.1903,2.1914,2.1842,2.1799,2.1754,2.1828,2.1861,2.1752,2.1662,2.1709,2.1788,2.177,2.1702,2.1674,2.1676,2.1723,2.1733,2.166,2.1663,2.167,2.1762,2.1753,2.1691,2.1583,2.1594,2.1641,2.1648,2.1621,2.1605,2.1569,2.1666,2.165,2.1622,2.1602,2.1655,2.1702,2.1684,2.1615,2.1627,2.1578,2.1644,2.1663,2.1665,2.163,2.1633,2.163,2.1681,2.1687,2.1554,2.1603,2.1623,2.1665,2.1698,2.1597,2.1608,2.166,2.1732,2.1737,2.1577,2.1621,2.163,2.1725,2.1714,2.1637,2.1556,2.1616,2.1678,2.1684,2.166,2.1566,2.1586,2.1655,2.1624,2.1599,2.1581,2.1595,2.1677,2.1625,2.1617,2.1551,2.1592,2.1645,2.1733,2.1716,2.1589,2.1594,2.1614,2.1659,2.1694,2.1594,2.1604,2.1675,2.1676,2.1675,2.1624,2.1645,2.173,2.1949,2.2059,2.2058,2.2146,2.2275,2.2414,2.2488,2.2517,2.2521,2.257,2.2644,2.2695,2.2736,2.277,2.277,2.2712,2.2465,2.2208,2.2054,2.1938,2.1855,2.175,2.1648,2.1528,2.1499,2.1569,2.1574,2.1572,2.1476,2.1472,2.1455,2.1443,2.1462,2.1387,2.1214,2.1373,2.2149,2.356,2.585,2.8726,3.1407,3.3382,3.3695,3.3143,3.2083,2.9218,2.709,2.2197,1.9105,1.9131,1.9689,2.0461,2.0636,2.1003,2.081,2.0954,2.0897,2.1039,2.0944,2.1016,2.0907,2.114,2.0959,2.1132,2.0933,2.1034,2.1025,2.1145,2.1061,2.1052,2.1036,2.1034,2.1077,2.1165,2.0954,2.0937,2.0927,2.1023,2.0949,2.0979,2.095,2.0941,2.1063,2.1071,2.0919,2.0952,2.0989,2.103,2.1023,2.1005,2.096,2.0928,2.1037,2.1133,2.0983,2.0888,2.095,2.0948,2.1005,2.0969,2.0888,2.0912,2.1025,2.0977,2.1028,2.0942,2.1063,2.1033,2.1134,2.1104,2.1109,2.1135,2.1116,2.1269,2.1274,2.1182,2.1196,2.1209,2.138,2.1411,2.1392,2.1388,2.152,2.163,2.1657,2.1581,2.1695,2.1702,2.1806,2.1941,2.1988,2.1939,2.2033,2.2104,2.215,2.2088,2.2059,2.2052,2.2132,2.2074,2.212,2.1974,2.2046,2.2103,2.2181,2.2168,2.2105,2.212,2.2175,2.2246,2.2313,2.2302,2.2348,2.2373,2.2444,2.2541,2.2484,2.2481,2.2601,2.2613,2.2723,2.268,2.2692,2.2621,2.2724,2.264,2.2666,2.2601,2.2687,2.2684,2.2647,2.2589,2.2414,2.2458,2.2542,2.2481,2.2448,2.2312,2.2312,2.2326,2.2337,2.2279,2.2103,2.2045,2.2083,2.2019,2.2007,2.1932,2.1927,2.193,2.1944,2.1883,2.1862,2.1772,2.1712,2.1785,2.1789,2.1788,2.1672,2.1666,2.1758,2.1779,2.1636,2.1642,2.1635,2.1683,2.1689,2.1563,2.1493,2.1497,2.1484,2.1539,2.1555,2.154,2.1509,2.1517,2.1502,2.1522,2.142,2.1437,2.1477,2.1533,2.1487,2.1435,2.1403,2.1467,2.1474,2.1549,2.1438,2.1418,2.143,2.1536,2.1439,2.1445,2.1439,2.1479,2.1412,2.1405,2.1442,2.1445,2.1411,2.1576,2.1473,2.1453,2.1526,2.1638,2.1876,2.1987,2.2014,2.2074,2.2126,2.2365,2.2508,2.2413,2.249,2.2435,2.2459,2.2565,2.2544,2.2458,2.2259,2.2278,2.2084,2.1726,2.1576,2.1495,2.1441,2.1414,2.1328,2.1161,2.1155,2.1164,2.1236,2.1295,2.117,2.1114,2.1113,2.1203,2.1169,2.0977,2.1028,2.1276,2.2403,2.4171,2.7038,2.9873,3.225,3.3693,3.3514,3.3015,3.0745,2.9026,2.4335,1.9602,1.8898,1.8898,1.9638,2.0128,2.0552,2.0729,2.0761,2.0802,2.0825,2.0849,2.0888,2.0808,2.0897,2.0866,2.0891,2.0935,2.0941,2.0977,2.0912,2.1005,2.1041,2.0915,2.0935,2.0962,2.102,2.1025,2.0984,2.0956,2.102,2.11,2.1113,2.1075,2.1049,2.1062,2.1152,2.1063,2.1057,2.1001,2.1045,2.1073,2.1123,2.1144,2.1038,2.1009,2.1048,2.1054,2.1026,2.097,2.0976,2.0996,2.1075,2.1036,2.0921,2.0993,2.1012,2.1048,2.1119,2.1004,2.103,2.1066,2.1143,2.1172,2.1204,2.1185,2.1187,2.1283,2.1318,2.1301,2.1267,2.1325,2.1391,2.1426,2.145,2.1476,2.1548,2.168,2.1734,2.1806,2.1773,2.1867,2.1964,2.2082,2.2152,2.211,2.2149,2.2218,2.223,2.2256,2.215,2.2117,2.2128,2.2178,2.2181,2.2064,2.2108,2.2164,2.2214,2.2177,2.2145,2.2156,2.2226,2.2396,2.2394,2.2388,2.2337,2.2387,2.2598,2.2634,2.2679,2.2652,2.2703,2.2847,2.286,2.2868,2.285,2.2879,2.294,2.2904,2.2922,2.2912,2.2859,2.2907,2.2865,2.2869,2.2753,2.2762,2.2752,2.2763,2.2657,2.2561,2.2529,2.2506,2.2523,2.248,2.2399,2.2395,2.2375,2.2409,2.2336,2.2208,2.2201,2.2135,2.2179,2.2137,2.2138,2.2044,2.2057,2.2096,2.2054,2.1992,2.1952,2.1921,2.1945,2.1923,2.188,2.187,2.1846,2.189,2.1882,2.184,2.1783,2.1784,2.1797,2.1873,2.1846,2.1749,2.1769,2.1726,2.1841,2.1792,2.1679,2.1695,2.1716,2.1796,2.1791,2.1692,2.1739,2.1693,2.1779,2.1771,2.1698,2.1641,2.1633,2.1738,2.1728,2.1736,2.1678,2.1693,2.1747,2.1724,2.1717,2.1657,2.1701,2.1721,2.1729,2.1687,2.1637,2.1686,2.18,2.1941,2.1985,2.2065,2.2225,2.23,2.2446,2.264,2.2582,2.27,2.2777,2.28,2.2842,2.2805,2.279,2.2789,2.2725,2.2697,2.2382,2.2124,2.2053,2.1955,2.1749,2.167,2.1579,2.1545,2.1541,2.1511,2.1507,2.1408,2.1445,2.1438,2.1427,2.1406,2.1288,2.1215,2.1237,2.1321,2.2158,2.3511,2.6033,2.8991,3.1658,3.3545,3.3894,3.3483,3.2959,3.0734,2.6837,2.15,1.9038,1.9148,1.9773,2.0406,2.0533,2.09,2.0873,2.1053,2.1019,2.106,2.0984,2.1079,2.1101,2.1179,2.108,2.1074,2.1103,2.1207,2.1148,2.1258,2.1066,2.1166,2.1172,2.1189,2.1118,2.1044,2.1074,2.1188,2.1159,2.1195,2.1153,2.1166,2.1224,2.1241,2.1248,2.1212,2.1199,2.1219,2.1387,2.132,2.1264,2.1191,2.12,2.126,2.1247,2.1263,2.1185,2.1158,2.1246,2.1197,2.1195,2.1128,2.1112,2.1302,2.1215,2.1176,2.1194,2.1156,2.1301,2.1301,2.133,2.1243,2.1313,2.1408,2.1449,2.1449,2.1393,2.1382,2.1471,2.1543,2.1487,2.1518,2.1517,2.1623,2.1711,2.17,2.177,2.1812,2.188,2.2038,2.2089,2.2105,2.2133,2.2185,2.2315,2.2254,2.2222,2.2143,2.2135,2.2203,2.2193,2.2158,2.2141,2.2056,2.2162,2.2129,2.2122,2.2076,2.2059,2.2148,2.2228,2.2202,2.2191,2.2256,2.2394,2.2438,2.2419,2.2385,2.2526,2.257,2.2621,2.2759,2.2668,2.2657,2.2785,2.284,2.2808,2.2805,2.2762,2.2748,2.2777,2.2743,2.2742,2.2734,2.2702,2.2685,2.2694,2.2575,2.2523,2.2505,2.254,2.2428,2.2345,2.2249,2.2211,2.227,2.222,2.2111,2.2029,2.208,2.2081,2.2046,2.1959,2.1884,2.1924,2.1933,2.196,2.1899,2.1873,2.187,2.1822,2.1962,2.2018,2.1932,2.1925,2.1878,2.1836,2.1935,2.1956,2.1819,2.1759,2.1704,2.1694,2.1553,2.1529,2.1617,2.1614,2.1529,2.1755,2.1739,2.1763,2.1858,2.1958,2.1911,2.1882,2.1858,2.1736,2.1669,2.1908,2.178,2.1701,2.2001,2.2152,2.2021,2.1742,2.1417,2.1066,2.1147,2.139,2.1472,2.1619,2.1652,2.1506,2.1517,2.1097,2.1221,2.1344,2.1439,2.1483,2.1887,2.1982,2.1593,2.1446,2.1382,2.1629,2.1528,2.1203,2.1614,2.2041,2.1868,2.0771,2.0786,2.1332,2.1754,2.1404,2.1312,2.1674,2.2235,2.2359,2.2315,2.1939,2.226,2.2647,2.2718,2.3029,2.2672,2.2475,2.2753,2.2489,2.2454,2.2518,2.1628,2.0902,2.1194,2.1293,2.1159,2.1061,2.09,2.1093,2.1224,2.0941,2.0721,2.1257,2.1417,2.132,2.0747,2.1072,2.1011,2.051,2.0663,2.2142,2.4141,2.6498,2.9162,3.1588,3.3204,3.3276,3.2909,3.0678,2.8968,2.4917,2.0122,1.7981,1.8204,1.9013,1.9264,1.9931,2.0375,2.0385,2.0271,2.0262,1.9981,2.0279,2.0961,2.0896,2.0305,2.0128,2.0732,2.0673,2.0413,2.0382,2.0209,2.0139,2.0148,2.0401,2.0539,2.0709,2.023,2.0016,2.0608,2.0699,2.0543,2.0859,2.0186,2.0303,2.0115,2.0158,2.0239,2.0361,2.0319,2.018,2.0236,2.0712,2.0501,2.0077,2.0136,2.0443,2.0323,2.0302,2.0188,2.0437,2.0301,2.0162,2.0285,2.043,2.0741,2.0456,2.0052,2.0155,2.0183,2.0166,2.0116,2.0407,2.0364,2.0331,2.0473,2.06,2.0384,2.0337,2.0625,2.083,2.049,2.0204,2.0367,2.0561,2.0622,2.065,2.0717,2.0843,2.1052,2.0912,2.0942,2.1088,2.1188,2.1253,2.1454,2.1278,2.1108,2.1067,2.1088,2.1202,2.1218,2.1219,2.1042,2.105,2.1185,2.1158,2.1222,2.0971,2.1116,2.1098,2.1041,2.1332,2.1401,2.1276,2.1324,2.1289,2.1285,2.1417,2.1356,2.1549,2.163,2.1607,2.1682,2.1504,2.1687,2.1662,2.178,2.1805,2.1743,2.1612,2.163,2.1602,2.1639,2.1543,2.159,2.1596,2.164,2.1608,2.1588,2.1317,2.1416,2.1449,2.1332,2.1205,2.1064,2.1106,2.1244,2.1163,2.1099,2.0855,2.0836,2.0921,2.0868,2.0888,2.0786,2.074,2.0864,2.0778,2.0654,2.0679,2.0674,2.0799,2.0783,2.0712,2.0773,2.0678,2.0624,2.0527,2.0587,2.0496,2.0481,2.0579,2.059,2.0564,2.0495,2.045,2.0469,2.0569,2.0671,2.0778,2.0831,2.1058,2.1206,2.1225,2.1234,2.1346,2.1502,2.1604,2.1633,2.1624,2.1493,2.1486,2.1567,2.1508,2.1375,2.1243,2.0961,2.0737,2.0637,2.0478,2.0278,2.0132,2.0192,2.0179,2.005,2.0032,1.9977,2.0069,2.0088,1.9969,1.9851,1.9892,1.996,2.0036,1.9822,1.9759,2.0215,2.1294,2.3159,2.5985,2.8732,3.1098,3.2465,3.2411,3.1762,2.9388,2.5495,1.9881,1.7769,1.7643,1.7844,1.8618,1.8775,1.9249,1.9433,1.9587,1.9533,1.9592,1.9688,1.9793,1.9715,1.9753,1.9692,1.9787,1.9745,1.9762,1.9682,1.9882,1.9875,1.9872,1.9852,1.9807,1.9854,1.9843,1.9946,1.9924,1.9812,1.9907,1.9897,2.0012,1.9933,1.9905,1.9941,1.9935,1.996,2.0023,1.9963,1.9949,1.9899,1.9996,1.9954,1.9891,1.9785,1.9883,1.986,1.9915,1.9866,1.9819,1.9832,1.9839,1.9819,1.975,1.9693,1.9782,1.9872,1.991,1.9888,1.9763,1.9859,2.0028,2.0128,2.0264,2.0272,2.0345,2.0377,2.0146,1.9947,1.9973,2.0253,2.055,2.0608,2.0642,2.0409,2.0218,2.0388,2.073,2.0871,2.0827,2.0976,2.0998,2.0986,2.1021,2.1098,2.0954,2.101,2.1116,2.0988,2.0921,2.0866,2.0863,2.0926,2.0868,2.0878,2.0774,2.0786,2.0849,2.0909,2.0897,2.0903,2.0948,2.1057,2.106,2.1127,2.1079,2.1144,2.1276,2.1436,2.141,2.1395,2.1307,2.1445,2.1597,2.16,2.1534,2.1541,2.1607,2.1656,2.1572,2.1497,2.1451,2.145,2.1475,2.1437,2.1363,2.1307,2.1177,2.1232,2.124,2.1182,2.1021,2.0934,2.0973,2.0993,2.088,2.0772,2.0788,2.0806,2.0834,2.0817,2.0626,2.0595,2.0688,2.0734,2.0589,2.0551,2.0479,2.0485,2.0589,2.0537,2.0527,2.0434,2.0396,2.05,2.0494,2.0464,2.0389,2.0403,2.0508,2.0506,2.0447,2.0332,2.036,2.0465,2.0441,2.0438,2.0363,2.0339,2.0396,2.0544,2.0686,2.0674,2.0873,2.1079,2.1171,2.1136,2.123,2.1296,2.1572,2.1663,2.1591,2.1406,2.1489,2.1645,2.1651,2.1424,2.128,2.1037,2.0786,2.0816,2.0626,2.0364,2.0236,2.0253,2.0255,2.0174,2.0173,2.0197,2.0167,2.0297,2.0192,2.0113,2.0265,2.0261,2.0253,2.0106,2.013,2.0198,2.1222,2.2839,2.5829,2.9041,3.1449,3.2672,3.2456,3.1978,2.9832,2.6455,2.1117,1.8183,1.7675,1.8063,1.8852,1.9115,1.9385,1.9559,1.9862,1.9673,1.9685,1.9787,2.0119,1.994,1.9941,2.0109,2.019,2.0068,1.9788,1.9755,1.9939,1.9872,1.9936,1.9854,1.987,1.9794,1.9866,1.9788,1.9851,1.9827,1.9863,1.9832,1.9956,1.9923,2.0027,2.0223,2.0338,2.0017,1.9698,1.9738,1.9816,1.9815,1.9859,1.9942,2.0055,1.994,1.9767,1.9736,1.9852,1.9838,1.9854,1.9804,1.9737,1.9887,1.9855,1.9935,1.9831,1.9843,1.9942,1.9948,1.9998,1.9923,2.001,2.0129,2.0091,2.0137,2.0043,2.0054,2.0135,2.0128,2.014,2.0131,2.0149,2.0285,2.029,2.0396,2.0296,2.034,2.0439,2.0638,2.0618,2.0634,2.0728,2.0785,2.083,2.0863,2.0775,2.0848,2.0811,2.0796,2.0755,2.0689,2.0596,2.0638,2.0676,2.0731,2.067,2.0631,2.0677,2.0823,2.0802,2.0852,2.0836,2.0879,2.0978,2.0953,2.0964,2.108,2.1109,2.1268,2.1268,2.1287,2.1269,2.1341,2.134,2.1406,2.1443,2.1442,2.1441,2.145,2.1578,2.148,2.1339,2.1423,2.1359,2.1447,2.1434,2.1333,2.1261,2.1234,2.1266,2.1251,2.1165,2.1071,2.102,2.1105,2.1081,2.096,2.0867,2.0853,2.0883,2.089,2.0805,2.0723,2.0742,2.0786,2.0788,2.0706,2.0649,2.0619,2.0687,2.0748,2.0753,2.0593,2.0604,2.0594,2.0714,2.0645,2.058,2.059,2.0604,2.0657,2.0632,2.0553,2.0584,2.0574,2.0644,2.0614,2.0511,2.0505,2.0472,2.0556,2.056,2.0543,2.0497,2.0495,2.0534,2.0571,2.0539,2.0552,2.0717,2.0875,2.0997,2.1073,2.1112,2.1328,2.1453,2.1559,2.1732,2.1677,2.1647,2.1738,2.1801,2.1755,2.1737,2.1618,2.1578,2.1515,2.1373,2.1043,2.0846,2.0679,2.0603,2.0494,2.043,2.0339,2.0384,2.0395,2.0333,2.0302,2.0233,2.0233,2.0246,2.0193,2.0187,2.0046,2.0027,2.0085,2.0463,2.1612,2.3491,2.6417,2.9369,3.1627,3.2872,3.243,3.18,2.9536,2.5659,2.0289,1.7729,1.771,1.8364,1.8853,1.9176,1.9547,1.9581,1.9788,1.9821,1.9879,1.9798,1.9898,1.9852,2.0063,1.9957,2.0056,1.9969,2.0074,2.0037,1.9996,1.9926,1.9968,1.9923,2.0022,2.0063,2.0077,1.9938,2.0014,2.0083,2.0104,2.0062,2.0044,2.0012,2.0116,2.0129,2.0131,2.0064,2.0016,2.0071,2.0105,2.0067,2.0082,2.0088,2.0101,2.0136,2.0106,2.0067,2.0034,2.0045,2.0119,2.0065,2.0051,2.0002,2.0032,2.0143,2.0056,2.0025,2.0115,2.012,2.027,2.0266,2.0215,2.0263,2.025,2.0356,2.0398,2.0418,2.0266,2.0285,2.0355,2.0386,2.0451,2.0438,2.0493,2.0557,2.0617,2.0678,2.0746,2.0818,2.0916,2.1021,2.1097,2.1081,2.1115,2.1197,2.1294,2.1352,2.1186,2.112,2.1119,2.1246,2.1228,2.1148,2.1062,2.1072,2.1188,2.1195,2.1173,2.1173,2.1215,2.1359,2.1403,2.1287,2.1313,2.1425,2.1477,2.1582,2.1488,2.1553,2.1616,2.1683,2.1745,2.1767,2.1733,2.1777,2.1804,2.1818,2.1799,2.1729,2.1726,2.1798,2.183,2.168,2.1522,2.1585,2.1601,2.1694,2.1665,2.1554,2.1509,2.1435,2.1429,2.1369,2.1286,2.1186,2.1171,2.1217,2.1212,2.1168,2.1094,2.1026,2.1012,2.1063,2.0935,2.0901,2.0878,2.0913,2.0978,2.0963,2.0797,2.0799,2.0864,2.0901,2.0872,2.0825,2.0799,2.0738,2.0821,2.0814,2.066,2.0736,2.0775,2.0772,2.0775,2.0668,2.0727,2.0782,2.0986,2.1039,2.1031,2.1113,2.1223,2.1468,2.1564,2.1603,2.1847,2.1896,2.1867,2.1888,2.1867,2.1803,2.184,2.1913,2.1741,2.1665,2.1536,2.1151,2.1046,2.0847,2.08,2.0589,2.0556,2.0612,2.0522,2.0509,2.0441,2.0369,2.0452,2.0416,2.0406,2.0371,2.0365,2.0306,2.0351,2.0251,2.0235,2.1063,2.1715,2.3671,2.6639,2.9538,3.173,3.2879,3.2862,3.2173,2.9793,2.561,2.0091,1.8012,1.7991,1.8278,1.9081,1.9391,1.9893,1.9871,1.9989,1.9847,1.9965,1.9915,2.0016,1.998,2.0148,2.0052,2.0133,2.0177,2.0265,2.0152,2.0171,2.0085,2.0234,2.0171,2.018,2.0087,2.0215,2.0261,2.0248,2.014,2.0197,2.0199,2.0263,2.0265,2.0279,2.0184,2.0246,2.0265,2.0277,2.0245,2.0267,2.0205,2.0327,2.029,2.0279,2.0249,2.0183,2.0313,2.0266,2.0253,2.0121,2.0147,2.0157,2.0247,2.0159,2.0143,2.0175,2.0235,2.027,2.0259,2.0216,2.0248,2.0301,2.0449,2.041,2.0347,2.0403,2.0454,2.0546,2.0552,2.0473,2.0553,2.0594,2.0712,2.0649,2.0681,2.0714,2.0811,2.0941,2.1073,2.1116,2.1116,2.1194,2.1333,2.1378,2.1365,2.1292,2.1364,2.139,2.1383,2.1329,2.1319,2.131,2.1308,2.1299,2.1341,2.1234,2.1277,2.1314,2.1354,2.1414,2.1398,2.1409,2.1532,2.1646,2.1747,2.1684,2.1805,2.185,2.1955,2.193,2.1859,2.1856,2.1966,2.2036,2.208,2.2018,2.2013,2.2034,2.2066,2.2043,2.2043,2.1913,2.2016,2.201,2.1978,2.1925,2.1843,2.1783,2.1838,2.1733,2.1647,2.1553,2.1586,2.1574,2.1582,2.1557,2.146,2.1377,2.1437,2.1425,2.1408,2.1339,2.125,2.1297,2.1334,2.1309,2.1324,2.1475,2.1569,2.1718,2.1731,2.1799,2.1808,2.1911,2.2117,2.228,2.2289,2.2129,2.228,2.2356,2.2338,2.2384,2.223,2.2099,2.2006,2.1902,2.1512,2.1227,2.1085,2.1035,2.0945,2.0883,2.0801,2.0763,2.0777,2.0856,2.0785,2.0682,2.0655,2.0681,2.0728,2.0695,2.0636,2.0639,2.0468,2.0555,2.0829,2.179,2.3584,2.6517,2.9423,3.1816,3.3164,3.3344,3.2777,3.1727,2.8633,2.3662,1.8942,1.8073,1.8346,1.8959,1.9633,1.9756,2.0125,2.0205,2.034,2.0242,2.0294,2.0246,2.0402,2.0371,2.0439,2.0402,2.0436,2.0356,2.0534,2.0486,2.0498,2.0435,2.0475,2.0541,2.0551,2.0487,2.0507,2.0446,2.0596,2.057,2.0504,2.0485,2.0519,2.0604,2.0627,2.06,2.0524,2.0513,2.0604,2.0678,2.0631,2.0495,2.0492,2.0606,2.0586,2.0601,2.0475,2.0469,2.0574,2.0588,2.0567,2.0486,2.0503,2.0557,2.0613,2.0596,2.0566,2.0635,2.0637,2.0785,2.0822,2.077,2.0721,2.0769,2.0811,2.0801,2.0761,2.077,2.0783,2.0903,2.0963,2.0941,2.0935,2.1059,2.1179,2.1182,2.1186,2.1211,2.1377,2.1513,2.1529,2.163,2.1567,2.1605,2.1653,2.1696,2.1651,2.159,2.1572,2.16,2.1594,2.1549,2.1453,2.1513,2.1514,2.1568,2.1517,2.148,2.1505,2.1528,2.1651,2.1687,2.1725,2.1676,2.1786,2.1898,2.1897,2.1962,2.1965,2.2017,2.2138,2.2179,2.2225,2.2117,2.2198,2.231,2.2315,2.2312,2.2189,2.222,2.2226,2.2233,2.2275,2.2159,2.2132,2.2136,2.2094,2.2114,2.1963,2.1918,2.1913,2.1865,2.1859,2.1758,2.169,2.1666,2.1648,2.1715,2.1591,2.1573,2.1522,2.1586,2.1534,2.1477,2.1409,2.1398,2.1505,2.145,2.142,2.1313,2.13,2.1353,2.1308,2.1248,2.122,2.1185,2.1361,2.127,2.124,2.1169,2.1179,2.1237,2.1241,2.1215,2.1145,2.1154,2.1175,2.1276,2.1215,2.1088,2.112,2.1143,2.118,2.1148,2.1128,2.1121,2.1183,2.1144,2.1148,2.1147,2.1143,2.1067,2.1169,2.1185,2.1122,2.1098,2.1071,2.119,2.1115,2.1133,2.1112,2.1067,2.1183,2.1146,2.1147,2.1115,2.1059,2.1224,2.1196,2.1184,2.1145,2.1103,2.1188,2.1154,2.116,2.1097,2.11,2.1154,2.1156,2.1107,2.1089,2.1127,2.1109,2.1141,2.1178,2.1057,2.109,2.1109,2.1153,2.1139,2.1106,2.1072,2.1085,2.1146,2.1218,2.1102,2.1069,2.11,2.1259,2.117,2.1117,2.1056,2.1109,2.1194,2.12,2.1106,2.1094,2.1105,2.1216,2.1286,2.1322,2.1438,2.1598,2.1759,2.1855,2.1969,2.1949,2.2013,2.2182,2.2232,2.2264,2.2146,2.2229,2.222,2.2115,2.2,2.1744,2.1597,2.153,2.1444,2.1301,2.1194,2.1045,2.1047,2.0978,2.1027,2.0953,2.0896,2.087,2.098,2.0891,2.088,2.0765,2.0671,2.0701,2.1057,2.2195,2.407,2.6943,2.994,3.1099,3.2854,3.3006,3.2423,3.1216,2.8096,2.3435,1.9168,1.8256,1.8974,1.9653,1.9955,2.0239,2.0377,2.0466,2.0513,2.0527,2.0446,2.0542,2.0556,2.0603,2.0611,2.0612,2.0543,2.0529,2.0572,2.0562,2.0531,2.0472,2.0442,2.0586,2.0522,2.0542,2.0464,2.0488,2.0556,2.0511,2.0511,2.0406,2.0501,2.0519,2.0502,2.047,2.0427,2.0413,2.0481,2.052,2.0479,2.0439,2.0422,2.0534,2.0514,2.0445,2.032,2.0344,2.0454,2.0471,2.0447,2.0377,2.0281,2.0441,2.0463,2.0407,2.0433,2.036,2.0392,2.0546,2.0504,2.0519,2.0498,2.0469,2.06,2.0606,2.056,2.056,2.0542,2.0715,2.0687,2.0662,2.0653,2.0708,2.0911,2.1003,2.1019,2.1009,2.1034,2.1119,2.1273,2.1313,2.1385,2.1426,2.1449,2.1615,2.1671,2.1577,2.1515,2.1562,2.1721,2.1741,2.1608,2.1653,2.1659,2.1712,2.1659,2.1566,2.1567,2.1566,2.176,2.1898,2.1843,2.1719,2.1706,2.1867,2.1951,2.1911,2.1849,2.1937,2.2022,2.2014,2.2108,2.2055,2.2083,2.2063,2.2166,2.2252,2.2152,2.2145,2.2098,2.2126,2.2138,2.1944,2.2006,2.197,2.2,2.1918,2.176,2.1714,2.171,2.1754,2.1646,2.1542,2.1551,2.1468,2.1464,2.1517,2.1424,2.1269,2.1212,2.1225,2.1274,2.1215,2.1156,2.1118,2.115,2.1146,2.1098,2.1018,2.1018,2.1062,2.1028,2.1032,2.0923,2.0923,2.0903,2.0972,2.1006,2.0905,2.0907,2.0927,2.0898,2.0962,2.0853,2.0843,2.0908,2.0949,2.0887,2.0869,2.0819,2.0834,2.0865,2.0858,2.0906,2.0828,2.0836,2.0834,2.0858,2.0823,2.0695,2.0766,2.0859,2.0812,2.0825,2.0768,2.0817,2.0854,2.082,2.0838,2.0752,2.0747,2.0838,2.08,2.0919,2.0954,2.1093,2.122,2.1343,2.1367,2.1554,2.1655,2.1797,2.1961,2.187,2.1846,2.1748,2.1875,2.1986,2.1893,2.1756,2.1622,2.1319,2.121,2.1007,2.0829,2.0683,2.0616,2.0667,2.0659,2.0573,2.0493,2.0523,2.0546,2.0575,2.0512,2.0421,2.04,2.0448,2.035,2.0308,2.0634,2.1736,2.3693,2.6596,2.9409,3.1631,3.2862,3.2971,3.2644,3.1497,2.8484,2.3488,1.8925,1.8112,1.8287,1.8843,1.9457,1.9787,2.0185,2.0073,2.0166,2.0088,2.0167,2.0156,2.0225,2.0197,2.0317,2.0225,2.0312,2.0308,2.0347,2.0216,2.0309,2.0274,2.0431,2.0315,2.0293,2.0285,2.034,2.0403,2.0371,2.0263,2.0319,2.0359,2.0382,2.035,2.0302,2.0297,2.0317,2.0434,2.0426,2.0396,2.0294,2.0293,2.04,2.0331,2.0351,2.0263,2.0326,2.0397,2.0371,2.0296,2.0236,2.0214,2.0316,2.0347,2.0297,2.0197,2.0167,2.0298,2.0327,2.0395,2.0303,2.0371,2.0384,2.0516,2.0504,2.0435,2.0436,2.0466,2.0539,2.057,2.0525,2.0555,2.0629,2.0726,2.0753,2.0743,2.0794,2.0894,2.0993,2.1138,2.1168,2.121,2.1243,2.1387,2.1465,2.1429,2.1367,2.1413,2.1482,2.142,2.1366,2.1375,2.137,2.1375,2.1391,2.133,2.1235,2.1328,2.1342,2.1411,2.1472,2.1419,2.1458,2.158,2.1656,2.173,2.1656,2.1717,2.1827,2.1877,2.1958,2.1925,2.1939,2.2069,2.2112,2.2138,2.1994,2.2052,2.2069,2.2162,2.2109,2.2115,2.2,2.2049,2.2074,2.2065,2.2012,2.1936,2.1873,2.1878,2.1804,2.1732,2.1649,2.1666,2.1668,2.1572,2.1557,2.1507,2.1466,2.1427,2.1456,2.1442,2.1337,2.1266,2.1366,2.1357,2.1278,2.1237,2.1203,2.1254,2.1286,2.1269,2.1159,2.1105,2.1136,2.1202,2.1158,2.1125,2.1101,2.1094,2.1155,2.1164,2.1177,2.1089,2.1047,2.1129,2.1101,2.1028,2.0956,2.0998,2.1184,2.1318,2.1343,2.141,2.156,2.1638,2.1769,2.1822,2.1835,2.2045,2.2188,2.2182,2.2172,2.2124,2.214,2.2194,2.2248,2.2135,2.1917,2.1741,2.1581,2.1352,2.1136,2.0974,2.0874,2.0818,2.0886,2.0831,2.0759,2.0675,2.0664,2.0785,2.0757,2.0663,2.0611,2.0566,2.0679,2.0543,2.0497,2.0549,2.1447,2.3135,2.5828,2.8603,3.1261,3.2974,3.3188,3.2628,3.0927,2.9338,2.5308,1.9907,1.8298,1.8329,1.885,1.9514,1.9844,2.0124,2.0204,2.0186,2.0222,2.0238,2.036,2.0409,2.0299,2.0342,2.0405,2.0446,2.043,2.0451,2.0374,2.0454,2.0478,2.0497,2.0427,2.0342,2.0465,2.0486,2.0556,2.0462,2.0384,2.0412,2.0512,2.0603,2.053,2.0364,2.0418,2.0516,2.0513,2.0537,2.0419,2.0444,2.0492,2.0545,2.0531,2.0456,2.0503,2.05,2.0474,2.0558,2.0379,2.0432,2.0385,2.046,2.0475,2.0408,2.0451,2.0448,2.0561,2.065,2.0623,2.0513,2.0608,2.0692,2.0772,2.0783,2.0672,2.0756,2.0801,2.0819,2.0845,2.076,2.0861,2.0949,2.1003,2.1029,2.1018,2.1132,2.1331,2.1295,2.1385,2.1371,2.1406,2.1529,2.1651,2.1682,2.1572,2.1599,2.1664,2.166,2.1583,2.1534,2.1491,2.1533,2.1575,2.1554,2.1413,2.1424,2.1525,2.1586,2.1611,2.1599,2.1601,2.1541,2.1674,2.1708,2.1738,2.1783,2.181,2.1973,2.1992,2.2042,2.1988,2.2052,2.2163,2.2197,2.2206,2.2177,2.222,2.2264,2.2225,2.2239,2.222,2.2202,2.2255,2.2319,2.22,2.2186,2.2102,2.2044,2.21,2.1949,2.189,2.1782,2.1781,2.1874,2.1761,2.1728,2.1597,2.1597,2.1613,2.1569,2.1534,2.1462,2.1422,2.1487,2.1528,2.1471,2.1385,2.1311,2.1401,2.1446,2.1388,2.1379,2.1339,2.133,2.1426,2.1338,2.1224,2.1249,2.1276,2.1351,2.1347,2.1286,2.1189,2.1174,2.1255,2.1262,2.1133,2.116,2.1176,2.1298,2.1259,2.1201,2.1167,2.1164,2.1281,2.1267,2.1283,2.1385,2.1487,2.1664,2.1689,2.1768,2.1811,2.1945,2.2163,2.2349,2.2444,2.2261,2.228,2.2321,2.2426,2.242,2.2311,2.2257,2.216,2.2061,2.1852,2.1387,2.131,2.1229,2.1194,2.1195,2.1094,2.0978,2.0978,2.1064,2.101,2.0924,2.0865,2.0901,2.0966,2.0923,2.0816,2.0692,2.0704,2.0927,2.199,2.3691,2.6469,2.9348,3.1826,3.2762,3.3439,3.287,3.1947,2.9214,2.4593,1.9758,1.8023,1.8517,1.9104,1.9868,2.0055,2.0382,2.0347,2.0563,2.0461,2.0647,2.0482,2.0631,2.058,2.075,2.0624,2.073,2.0608,2.0798,2.0742,2.0765,2.0696,2.0726,2.0763,2.092,2.0807,2.0827,2.0717,2.0844,2.0823,2.0852,2.0809,2.0806,2.0812,2.0924,2.0866,2.0831,2.0799,2.0785,2.0857,2.0826,2.0878,2.0777,2.0768,2.0881,2.0864,2.0804,2.0771,2.0745,2.0783,2.0735,2.0743,2.0647,2.067,2.0716,2.0834,2.0888,2.0891,2.0805,2.0845,2.0965,2.0947,2.0959,2.0972,2.0991,2.1112,2.1082,2.1068,2.1036,2.1088,2.1168,2.1152,2.1168,2.1203,2.1241,2.1343,2.1434,2.1492,2.1501,2.1622,2.1645,2.1814,2.1804,2.1825,2.1846,2.1929,2.2025,2.198,2.1854,2.1854,2.1869,2.1898,2.187,2.1809,2.1769,2.1773,2.1848,2.1913,2.1837,2.1877,2.1841,2.1987,2.1959,2.1987,2.2068,2.2195,2.2256,2.2324,2.2275,2.2282,2.2309,2.2412,2.2489,2.2438,2.2463,2.2478,2.2456,2.2548,2.2574,2.2526,2.252,2.2539,2.2526,2.2537,2.245,2.2434,2.2374,2.2489,2.242,2.228,2.2176,2.2101,2.2173,2.2101,2.1973,2.1986,2.1909,2.1966,2.1924,2.1861,2.1811,2.1777,2.1836,2.1804,2.1794,2.1584,2.1606,2.1708,2.1709,2.1719,2.1567,2.1605,2.1591,2.1641,2.1573,2.1462,2.1505,2.1491,2.1541,2.1596,2.1423,2.1478,2.1511,2.1577,2.1549,2.1431,2.1564,2.1674,2.1885,2.1902,2.1952,2.2069,2.218,2.2387,2.2619,2.2646,2.2551,2.2477,2.2616,2.2664,2.268,2.2593,2.2559,2.2438,2.2303,2.2249,2.1792,2.1615,2.1535,2.1371,2.1366,2.1245,2.1201,2.1223,2.1179,2.1157,2.1115,2.1105,2.1132,2.1128,2.1114,2.107,2.1079,2.0961,2.0977,2.1102,2.1964,2.3505,2.6258,2.9253,3.1799,3.3473,3.3707,3.305,3.1471,2.8138,2.2589,1.8972,1.8658,1.8605,1.911,1.9837,2.0082,2.0421,2.0685,2.066,2.0672,2.0642,2.074,2.083,2.077,2.0819,2.0744,2.0774,2.0895,2.0886,2.0917,2.0802,2.0813,2.0887,2.1004,2.0911,2.0863,2.0827,2.0903,2.1034,2.0999,2.0865,2.0867,2.0894,2.0953,2.0957,2.0927,2.0897,2.0947,2.1025,2.0917,2.087,2.0926,2.0881,2.0992,2.0874,2.0882,2.0827,2.0799,2.0893,2.094,2.0939,2.0834,2.0831,2.078,2.0802,2.0782,2.0787,2.0815,2.088,2.0866,2.0914,2.0851,2.0922,2.0979,2.1061
