0.4997,0.4956,0.5031,0.50932,0.49529,0.4928,0.49515,0.48927,0.51446,0.49613,0.48652,0.48304,0.48545,0.48491,0.49825,0.48622,0.47748,0.47321,0.49431,0.49214,0.47881,0.46831,0.4812,0.47721,0.47721,0.48489,0.4841,0.47657,0.47353,0.472,0.48491,0.46875,0.46016,0.47403,0.48624,0.46168,0.46058,0.46894,0.47165,0.47371,0.48074,0.48719,0.464,0.47475,0.46457,0.48011,0.47009,0.46583,0.47258,0.46983,0.47028,0.47591,0.46373,0.46591,0.47262,0.47696,0.4731,0.47345,0.46415,0.47093,0.47691,0.48012,0.46837,0.46825,0.47524,0.48688,0.47904,0.45883,0.4509,0.47565,0.46599,0.47435,0.47637,0.45853,0.47467,0.47863,0.4838,0.47776,0.47586,0.47071,0.4537,0.47348,0.47901,0.47359,0.46053,0.47118,0.47104,0.4808,0.48045,0.45308,0.47648,0.47528,0.46593,0.47557,0.49592,0.51875,0.53879,0.51748,0.51275,0.52964,0.55039,0.54037,0.55568,0.55524,0.55787,0.54222,0.53105,0.51491,0.50108,0.47664,0.44354,0.45734,0.43958,0.44407,0.44342,0.43068,0.44367,0.4515,0.4344,0.4389,0.45107,0.45264,0.46428,0.43356,0.4304,0.39982,0.32256,0.29029,0.28533,0.36884,0.60069,1.0381,1.4795,1.8057,1.9813,2.2239,1.7905,1.0988,0.78968,0.27468,0.05807,-0.045448,-0.07681,0.0277,0.16392,0.3243,0.41685,0.42063,0.42293,0.43714,0.43936,0.44653,0.44911,0.45732,0.44412,0.45776,0.44806,0.46768,0.47092,0.48058,0.4692,0.46148,0.47085,0.47702,0.48026,0.48131,0.47724,0.47768,0.47924,0.48181,0.4762,0.48692,0.47307,0.48093,0.49328,0.47391,0.48686,0.49533,0.48392,0.47278,0.47823,0.48922,0.48108,0.49267,0.49672,0.49666,0.49207,0.50352,0.50144,0.5117,0.49782,0.49917,0.51266,0.50911,0.51112,0.51984,0.51647,0.54146,0.54011,0.52529,0.53755,0.54861,0.55189,0.55732,0.56154,0.55851,0.57369,0.5792,0.58189,0.58615,0.588,0.58996,0.60004,0.6018,0.59161,0.58506,0.58108,0.57745,0.57518,0.56522,0.56612,0.55167,0.54966,0.53372,0.53143,0.53395,0.52562,0.51693,0.52785,0.51923,0.53599,0.51518,0.50011,0.50487,0.51658,0.52902,0.5215,0.50953,0.50772,0.50718,0.51421,0.51765,0.5327,0.50636,0.51526,0.51969,0.52051,0.5146,0.51347,0.51966,0.52276,0.51415,0.49804,0.50977,0.50688,0.52844,0.53295,0.52586,0.51275,0.50716,0.51702,0.52631,0.50837,0.50502,0.50832,0.49976,0.5022,0.50647,0.49905,0.49288,0.5049,0.50664,0.49411,0.48924,0.48237,0.4957,0.5022,0.50742,0.49562,0.49821,0.49707,0.5186,0.49008,0.49584,0.49048,0.49027,0.51766,0.5104,0.49392,0.48701,0.49651,0.50027,0.50224,0.49412,0.48304,0.49803,0.50528,0.49526,0.51264,0.47349,0.47057,0.50719,0.49858,0.48199,0.50499,0.52326,0.54489,0.54507,0.54227,0.53039,0.5669,0.58093,0.58182,0.58809,0.57315,0.57529,0.56635,0.54968,0.54255,0.51431,0.48964,0.47377,0.47272,0.45255,0.45704,0.46423,0.44823,0.46661,0.47021,0.4461,0.45643,0.45091,0.47521,0.46272,0.46578,0.44288,0.38597,0.35497,0.31527,0.32276,0.36486,0.56376,0.99047,1.437,1.7506,1.8879,2.1126,1.8365,1.1524,0.55225,0.15712,0.019083,-0.07885,-0.051182,-0.003226,0.14164,0.26649,0.32857,0.39723,0.45229,0.44398,0.44557,0.4447,0.46727,0.459,0.47447,0.45679,0.47008,0.47465,0.48823,0.47589,0.47953,0.47564,0.49126,0.4976,0.48322,0.4688,0.49065,0.4846,0.49788,0.49888,0.49015,0.47972,0.47984,0.49238,0.4947,0.49258,0.49381,0.50719,0.50671,0.51206,0.50178,0.50929,0.5123,0.51098,0.51632,0.51057,0.51273,0.52453,0.5111,0.53461,0.51972,0.53131,0.54029,0.51473,0.5345,0.53777,0.5388,0.53948,0.5488,0.55076,0.58321,0.57191,0.5644,0.57984,0.58231,0.58754,0.58632,0.59225,0.60028,0.60709,0.60593,0.62096,0.60341,0.58319,0.5887,0.60093,0.57889,0.56885,0.55706,0.55902,0.54339,0.53166,0.52575,0.51665,0.49691,0.5063,0.49366,0.50219,0.49608,0.48764,0.50344,0.49969,0.49563,0.50865,0.48965,0.4957,0.51059,0.49465,0.49274,0.5076,0.52661,0.49248,0.49165,0.50794,0.50774,0.52038,0.5163,0.51842,0.4927,0.50942,0.50665,0.502,0.51097,0.50983,0.5041,0.51095,0.50701,0.50402,0.49964,0.49581,0.51535,0.50899,0.49673,0.49727,0.49515,0.49895,0.50971,0.5033,0.49403,0.48375,0.49119,0.49932,0.49137,0.4834,0.50216,0.51793,0.52704,0.54955,0.55233,0.53538,0.55354,0.5543,0.56884,0.57638,0.57503,0.59174,0.60114,0.58503,0.55627,0.55033,0.5418,0.50967,0.48503,0.47074,0.46133,0.44473,0.44162,0.46304,0.43702,0.44268,0.44757,0.4525,0.46161,0.4493,0.45284,0.45385,0.45275,0.46958,0.44069,0.3582,0.29321,0.28441,0.3425,0.49634,0.86165,1.3109,1.6767,1.8719,2.0625,1.928,1.3098,0.66303,0.2276,0.051564,-0.0067249,-0.085926,-0.056069,0.048971,0.17944,0.31698,0.40629,0.43141,0.44324,0.43689,0.42459,0.44629,0.44592,0.46439,0.47904,0.46895,0.46736,0.46781,0.44932,0.48091,0.47224,0.47263,0.47,0.48066,0.4836,0.48049,0.47192,0.48424,0.48906,0.49342,0.47942,0.48471,0.49175,0.4887,0.49695,0.49842,0.48912,0.49271,0.50931,0.51448,0.52058,0.4983,0.47961,0.49686,0.51053,0.51007,0.51171,0.51395,0.52438,0.51564,0.52989,0.50853,0.52132,0.53285,0.55055,0.53895,0.54261,0.54465,0.54187,0.55113,0.57291,0.57992,0.59195,0.58522,0.57433,0.60211,0.6141,0.59182,0.59478,0.60542,0.59979,0.60907,0.58939,0.58631,0.58437,0.58172,0.56786,0.54153,0.53468,0.53937,0.52807,0.53802,0.5112,0.50269,0.50287,0.48977,0.50453,0.49978,0.48293,0.48158,0.4919,0.4966,0.48047,0.48364,0.48283,0.48658,0.49162,0.49,0.49264,0.48234,0.48938,0.49597,0.48736,0.4854,0.4776,0.47714,0.49928,0.5011,0.48273,0.47547,0.47664,0.48539,0.49704,0.48719,0.48462,0.46945,0.47821,0.48704,0.47626,0.47198,0.47128,0.46893,0.47884,0.47465,0.46348,0.46919,0.46476,0.4721,0.47737,0.45403,0.47635,0.47891,0.46405,0.46019,0.45277,0.45301,0.46728,0.45394,0.46224,0.46241,0.4532,0.46079,0.46972,0.48464,0.46579,0.50092,0.51936,0.52353,0.50877,0.5043,0.52797,0.53666,0.57083,0.58619,0.54279,0.51651,0.52955,0.52062,0.50958,0.50693,0.48694,0.42473,0.42862,0.43443,0.43178,0.43496,0.42746,0.43218,0.44015,0.43073,0.41347,0.42605,0.41719,0.43749,0.43648,0.43774,0.42784,0.33724,0.30054,0.26263,0.27842,0.35805,0.58345,1.033,1.4816,1.7663,1.9505,2.1873,1.7404,1.0806,0.42084,0.079106,-0.028799,-0.11702,-0.024621,0.087609,0.24555,0.34658,0.40593,0.41321,0.42702,0.41216,0.43232,0.41666,0.4435,0.43533,0.43526,0.43054,0.44934,0.44664,0.45586,0.43864,0.45021,0.45472,0.47363,0.45853,0.43814,0.44441,0.45338,0.449,0.4634,0.45172,0.47295,0.47263,0.46095,0.46996,0.46044,0.45671,0.45912,0.4752,0.48574,0.47188,0.46817,0.46725,0.47817,0.48977,0.48709,0.48505,0.48226,0.48161,0.47734,0.48914,0.48815,0.48799,0.48413,0.48911,0.51323,0.49667,0.50444,0.52126,0.51742,0.52845,0.51392,0.53275,0.54354,0.55159,0.55876,0.55985,0.56766,0.57256,0.58239,0.58644,0.57404,0.57933,0.58411,0.56332,0.57408,0.56295,0.55626,0.54904,0.54744,0.5434,0.52616,0.52201,0.49617,0.50221,0.50459,0.49643,0.50254,0.50299,0.49842,0.50494,0.51115,0.47644,0.48975,0.49626,0.50193,0.51824,0.50822,0.49267,0.49712,0.50397,0.49044,0.49885,0.50201,0.48653,0.48849,0.48998,0.48458,0.48039,0.47011,0.48635,0.48365,0.48721,0.47166,0.4784,0.47827,0.49681,0.48257,0.46804,0.46972,0.47472,0.48286,0.47904,0.47134,0.47534,0.47473,0.48037,0.47069,0.47266,0.4741,0.48444,0.4729,0.5062,0.471,0.4639,0.46405,0.45958,0.46876,0.4802,0.47142,0.46855,0.45428,0.47152,0.47185,0.46129,0.46337,0.45787,0.46288,0.467,0.46484,0.46405,0.47006,0.4845,0.46043,0.46146,0.48143,0.4566,0.45695,0.44883,0.45836,0.45805,0.46599,0.46498,0.45968,0.4667,0.45706,0.45686,0.47182,0.4681,0.47294,0.46592,0.46358,0.46331,0.46396,0.47854,0.48034,0.51277,0.52361,0.53252,0.52574,0.50612,0.53587,0.54673,0.55742,0.55716,0.56796,0.54084,0.51355,0.51017,0.50333,0.44765,0.43702,0.43013,0.44597,0.43825,0.43717,0.44467,0.42816,0.44222,0.43458,0.42868,0.43051,0.43998,0.44504,0.43983,0.40244,0.38255,0.32678,0.27259,0.30257,0.35983,0.60031,1.0408,1.4786,1.7625,1.9256,2.1452,1.7202,1.0297,0.45667,0.10998,-0.0046832,-0.11809,-0.049042,0.039951,0.13265,0.26829,0.36189,0.41814,0.45346,0.39832,0.42457,0.41362,0.44719,0.43541,0.45245,0.44119,0.44346,0.43979,0.46428,0.4466,0.46394,0.44908,0.45457,0.46419,0.47177,0.46208,0.45443,0.46324,0.46565,0.45966,0.46781,0.46049,0.46316,0.46021,0.47552,0.47484,0.47021,0.474,0.4688,0.47329,0.47583,0.46084,0.46529,0.47217,0.48269,0.48822,0.47211,0.47013,0.47832,0.48922,0.49703,0.48345,0.4786,0.48453,0.49775,0.49211,0.49616,0.4991,0.50628,0.50717,0.52701,0.53546,0.52292,0.54001,0.54213,0.54215,0.54981,0.54279,0.56306,0.56813,0.5712,0.58607,0.56653,0.57392,0.57301,0.56818,0.55385,0.55959,0.54428,0.52877,0.52661,0.53162,0.49115,0.51255,0.50602,0.49421,0.49585,0.50254,0.47795,0.48422,0.48712,0.47998,0.47149,0.48122,0.47905,0.49346,0.48599,0.48911,0.47282,0.47377,0.47617,0.47327,0.46727,0.46864,0.45596,0.46828,0.47678,0.47039,0.44717,0.45374,0.46102,0.4621,0.45675,0.44278,0.45017,0.45894,0.45407,0.45562,0.44005,0.44803,0.46012,0.44007,0.44872,0.44332,0.4421,0.45307,0.44101,0.4401,0.43183,0.43832,0.45232,0.43446,0.43224,0.43849,0.42819,0.44137,0.43543,0.44202,0.42795,0.43642,0.43914,0.42664,0.42949,0.43587,0.42538,0.43428,0.43628,0.43899,0.43761,0.43016,0.42623,0.42929,0.43623,0.44936,0.40266,0.42085,0.44516,0.47031,0.47976,0.47645,0.46907,0.47994,0.49067,0.49934,0.51804,0.52706,0.50883,0.50472,0.50694,0.47304,0.46524,0.45188,0.4274,0.39247,0.41391,0.40107,0.42327,0.42716,0.40189,0.40027,0.4016,0.40065,0.41559,0.41187,0.42038,0.41331,0.42289,0.39857,0.35764,0.29557,0.24803,0.26085,0.3682,0.68605,1.1542,1.5411,1.7616,1.9231,1.981,1.4502,0.78938,0.29453,0.050067,-0.0088324,-0.091498,-0.091547,-0.056637,0.070742,0.22393,0.34446,0.39094,0.40924,0.39819,0.40125,0.42171,0.42765,0.42269,0.42265,0.44391,0.45312,0.43732,0.4318,0.44042,0.4411,0.4622,0.46844,0.44544,0.45312,0.45659,0.4584,0.47013,0.46454,0.4693,0.44841,0.46381,0.47078,0.47522,0.46751,0.4651,0.47008,0.48722,0.46981,0.46832,0.46482,0.47852,0.48351,0.48079,0.48699,0.46727,0.48053,0.49204,0.48572,0.47696,0.479,0.50218,0.51069,0.49,0.48719,0.49645,0.51599,0.51607,0.51064,0.52374,0.51957,0.52837,0.53619,0.55476,0.54664,0.55793,0.54411,0.56831,0.58241,0.57593,0.57809,0.58382,0.5859,0.57707,0.56524,0.56952,0.56004,0.54427,0.53035,0.53109,0.52084,0.50453,0.50838,0.50173,0.49173,0.4911,0.49558,0.48641,0.48211,0.48418,0.47947,0.48011,0.48486,0.48714,0.4999,0.47257,0.48024,0.4959,0.4768,0.48812,0.46533,0.47375,0.48684,0.47383,0.47814,0.4709,0.4787,0.47898,0.48392,0.48833,0.4814,0.46821,0.47741,0.47024,0.48505,0.46772,0.46892,0.47835,0.47568,0.47733,0.47281,0.47278,0.44654,0.45914,0.46101,0.46441,0.46813,0.44864,0.45879,0.45071,0.46691,0.44761,0.45521,0.45284,0.46981,0.45275,0.4511,0.44678,0.45384,0.44989,0.46067,0.47017,0.42752,0.43704,0.44841,0.45917,0.45543,0.43964,0.44076,0.44352,0.45932,0.44326,0.44682,0.44195,0.45638,0.46497,0.45074,0.44739,0.45752,0.47019,0.50898,0.50564,0.51173,0.5064,0.50829,0.51991,0.54244,0.54778,0.53724,0.53408,0.53471,0.50162,0.48784,0.47737,0.43604,0.42453,0.42779,0.41775,0.41702,0.41389,0.42457,0.42492,0.42731,0.41785,0.42213,0.42391,0.43525,0.41793,0.42664,0.41258,0.36453,0.27917,0.26878,0.28444,0.41114,0.7405,1.1579,1.5884,1.729,1.864,2.1501,1.8179,1.1534,0.53218,0.14464,0.010378,-0.104,-0.065631,0.032174,0.19757,0.31905,0.40161,0.41026,0.42268,0.42094,0.43501,0.42622,0.44772,0.43952,0.45129,0.4501,0.47018,0.45017,0.44044,0.4486,0.46589,0.45542,0.47072,0.46975,0.47311,0.47449,0.48443,0.46818,0.4641,0.45888,0.47229,0.47286,0.47271,0.4756,0.47845,0.47193,0.48275,0.48024,0.49905,0.47086,0.48162,0.48308,0.48576,0.49402,0.48554,0.49831,0.49598,0.47454,0.48003,0.4956,0.48001,0.48351,0.48995,0.49685,0.50631,0.50263,0.50238,0.51432,0.52663,0.53243,0.51462,0.52234,0.54369,0.54965,0.54921,0.55154,0.55938,0.5716,0.58965,0.58515,0.56008,0.57818,0.5711,0.56863,0.57462,0.56155,0.55675,0.54849,0.5471,0.54276,0.53423,0.52825,0.52625,0.52556,0.52117,0.51424,0.50416,0.48719,0.50445,0.51591,0.50908,0.51493,0.49856,0.48662,0.48813,0.49944,0.49248,0.4967,0.4935,0.49598,0.49539,0.49562,0.48887,0.49452,0.49088,0.50063,0.49836,0.4975,0.48339,0.50847,0.49412,0.48137,0.48709,0.47558,0.49061,0.49245,0.50336,0.47703,0.47817,0.48692,0.49117,0.47647,0.47908,0.48467,0.47793,0.48838,0.47746,0.47404,0.46682,0.47731,0.48289,0.47848,0.47664,0.47142,0.47457,0.48272,0.47499,0.47497,0.46916,0.47527,0.46304,0.47464,0.48742,0.45842,0.45423,0.48019,0.47267,0.46496,0.46332,0.45519,0.46473,0.46402,0.46635,0.47171,0.46248,0.4756,0.47131,0.47204,0.45556,0.4535,0.45993,0.46938,0.46522,0.45714,0.46775,0.47805,0.46268,0.47292,0.45952,0.46153,0.46018,0.48047,0.50026,0.49755,0.52064,0.51948,0.51605,0.53219,0.54375,0.54683,0.5453,0.55777,0.57103,0.53851,0.50575,0.50188,0.47986,0.44666,0.44399,0.44418,0.4318,0.43601,0.43848,0.44138,0.4393,0.44583,0.43341,0.43813,0.44306,0.43012,0.42919,0.43788,0.40418,0.32987,0.27332,0.27988,0.33862,0.55426,0.94345,1.3956,1.7462,1.8401,2.0724,2.1142,1.5048,0.85875,0.31412,0.059743,-0.041684,-0.10782,0.0042935,0.14419,0.29204,0.3911,0.42715,0.42428,0.4384,0.43248,0.44067,0.44406,0.44048,0.44393,0.46163,0.45699,0.46714,0.46176,0.46906,0.46598,0.49168,0.47379,0.46794,0.46904,0.47414,0.47692,0.48296,0.47638,0.4862,0.47788,0.49379,0.49085,0.47691,0.47498,0.48431,0.49111,0.49825,0.49161,0.48395,0.50643,0.49502,0.48417,0.48939,0.48744,0.50216,0.49625,0.5112,0.49856,0.5014,0.50814,0.52165,0.53003,0.51716,0.49971,0.51135,0.51778,0.53424,0.52954,0.53657,0.54221,0.55591,0.55802,0.57543,0.55021,0.56959,0.56569,0.57367,0.59156,0.56945,0.60713,0.60494,0.60078,0.59744,0.6023,0.58385,0.58735,0.58661,0.58809,0.58281,0.55425,0.55742,0.57237,0.53697,0.52219,0.53065,0.52831,0.52727,0.53901,0.52603,0.52646,0.53002,0.51876,0.52035,0.51469,0.50561,0.51716,0.51176,0.52882,0.51844,0.52007,0.51075,0.51716,0.52524,0.53375,0.4928,0.50585,0.50134,0.51306,0.51651,0.50945,0.50322,0.5042,0.50932,0.51238,0.49915,0.49809,0.49829,0.49245,0.49427,0.50002,0.50029,0.48374,0.50176,0.50089,0.48761,0.49253,0.49373,0.48418,0.49514,0.49135,0.49117,0.49046,0.4759,0.48682,0.48648,0.47778,0.478,0.47509,0.48377,0.49006,0.49243,0.49209,0.46681,0.48825,0.49928,0.47054,0.47562,0.48162,0.47986,0.48382,0.47553,0.47997,0.47304,0.46195,0.47663,0.48922,0.47981,0.47743,0.47474,0.47164,0.4761,0.47351,0.47977,0.46395,0.47569,0.47776,0.4682,0.48182,0.4981,0.50827,0.53338,0.53731,0.51864,0.50931,0.54298,0.55848,0.55594,0.56502,0.56136,0.57482,0.56449,0.52464,0.49736,0.48755,0.45251,0.45799,0.44852,0.4447,0.43424,0.4422,0.45589,0.45158,0.44782,0.43807,0.46382,0.45441,0.4363,0.44935,0.43336,0.41458,0.34186,0.29117,0.3083,0.36186,0.55722,0.9809,1.4376,1.705,1.8671,2.0659,1.771,1.432,0.79465,0.27059,0.093212,-0.052572,-0.047689,-0.069321,0.058247,0.17395,0.33007,0.39385,0.4449,0.4204,0.44751,0.43556,0.48118,0.45183,0.45056,0.4558,0.46503,0.45949,0.47724,0.45656,0.47616,0.46885,0.49041,0.47016,0.4923,0.46083,0.46482,0.47228,0.48441,0.47293,0.4783,0.48348,0.47931,0.48564,0.48851,0.4876,0.48632,0.49458,0.49383,0.49146,0.48822,0.49762,0.50181,0.47915,0.50189,0.50082,0.48584,0.50383,0.5037,0.50739,0.4992,0.4963,0.49312,0.52013,0.50388,0.50876,0.51707,0.52747,0.52573,0.54158,0.5374,0.53621,0.54913,0.55585,0.54541,0.56883,0.56329,0.58397,0.58362,0.60688,0.60215,0.59035,0.6009,0.59416,0.59842,0.57801,0.5668,0.58728,0.57582,0.57709,0.55104,0.5429,0.52428,0.53746,0.54235,0.53617,0.49573,0.50376,0.50869,0.51113,0.51656,0.50549,0.50372,0.50359,0.49932,0.50629,0.49634,0.50204,0.50682,0.50737,0.50972,0.50788,0.50534,0.50186,0.50923,0.5095,0.51481,0.48062,0.4977,0.50151,0.4982,0.50552,0.49597,0.51172,0.49323,0.50445,0.49769,0.49558,0.49105,0.49302,0.49129,0.49433,0.47515,0.48317,0.48058,0.48468,0.4844,0.48937,0.49317,0.48087,0.46616,0.47653,0.46939,0.47274,0.47453,0.48442,0.48046,0.4682,0.46836,0.48736,0.48812,0.49171,0.51107,0.52153,0.53487,0.52213,0.51126,0.54359,0.56611,0.56311,0.56157,0.5548,0.55037,0.53991,0.51108,0.50168,0.49519,0.46266,0.44391,0.43877,0.43677,0.44117,0.4539,0.44709,0.44719,0.44359,0.4359,0.46284,0.45317,0.42197,0.4378,0.44691,0.43771,0.3698,0.29669,0.27613,0.29462,0.34994,0.57641,1.0089,1.4255,1.738,1.8936,2.0672,1.733,1.0628,0.47024,0.12542,0.010088,-0.10415,-0.067351,0.0086071,0.18843,0.28093,0.38374,0.4021,0.41977,0.42507,0.44148,0.43402,0.43595,0.43409,0.45916,0.44138,0.45027,0.45921,0.47246,0.46389,0.47427,0.47416,0.46774,0.47528,0.48293,0.47369,0.48278,0.48304,0.48368,0.47145,0.48125,0.48039,0.48026,0.49126,0.50499,0.49489,0.48123,0.48738,0.48956,0.50385,0.50251,0.49426,0.48988,0.49753,0.5014,0.51176,0.49345,0.49211,0.51584,0.49924,0.50308,0.5112,0.51791,0.51551,0.50467,0.51929,0.52352,0.53276,0.53435,0.53994,0.55223,0.55026,0.54759,0.55739,0.56821,0.58314,0.58366,0.58203,0.58111,0.59474,0.59411,0.59144,0.59297,0.58013,0.57242,0.57325,0.57274,0.56649,0.55921,0.54117,0.52285,0.52739,0.5224,0.49499,0.49761,0.50747,0.52126,0.52067,0.48399,0.48357,0.48108,0.49748,0.49705,0.48478,0.48274,0.48814,0.50321,0.50782,0.49011,0.48862,0.48606,0.48676,0.49774,0.48764,0.4844,0.48976,0.48623,0.50482,0.48989,0.46854,0.47625,0.48522,0.48437,0.49405,0.48963,0.48139,0.46566,0.47997,0.47349,0.47406,0.48421,0.47243,0.48576,0.46949,0.45627,0.47467,0.46461,0.47347,0.47406,0.47066,0.47559,0.46045,0.46577,0.4798,0.4478,0.46354,0.46106,0.48034,0.45212,0.4633,0.46571,0.48638,0.51592,0.5197,0.52096,0.5044,0.50388,0.52025,0.53576,0.57697,0.561,0.54866,0.54662,0.54457,0.51195,0.50805,0.49042,0.46203,0.44708,0.42792,0.42842,0.42476,0.42422,0.43557,0.42108,0.42652,0.43259,0.4218,0.4323,0.42957,0.42887,0.42378,0.43919,0.40648,0.34538,0.26183,0.25984,0.29983,0.49113,0.88791,1.3192,1.6741,1.8434,2.1497,1.9379,1.2539,0.9447,0.34423,0.055437,-0.05105,-0.11866,-0.046136,0.096467,0.25563,0.37124,0.43328,0.41624,0.43028,0.41808,0.44148,0.44995,0.43187,0.45223,0.44543,0.44774,0.45814,0.44295,0.45978,0.45865,0.46479,0.47296,0.47122,0.45459,0.45405,0.47004,0.47728,0.47317,0.47137,0.47154,0.48639,0.48747,0.47553,0.45897,0.47732,0.48191,0.48743,0.48771,0.48906,0.48404,0.48717,0.49082,0.49789,0.48288,0.49216,0.48315,0.49205,0.50081,0.5051,0.50019,0.48911,0.5026,0.51121,0.50703,0.50702,0.49305,0.5101,0.53218,0.5183,0.52553,0.53766,0.54967,0.54546,0.53684,0.55946,0.5646,0.5734,0.58502,0.58583,0.58475,0.58517,0.5836,0.58919,0.58039,0.55834,0.56463,0.5629,0.55232,0.55857,0.53681,0.51593,0.52114,0.52273,0.51898,0.52159,0.50944,0.49968,0.50932,0.50897,0.50312,0.50109,0.51032,0.51612,0.4945,0.50403,0.49145,0.48603,0.49831,0.49629,0.49732,0.48643,0.48824,0.48594,0.48713,0.49052,0.48271,0.48376,0.50129,0.48157,0.48995,0.48911,0.48151,0.47987,0.48531,0.48142,0.46991,0.4561,0.47646,0.47927,0.47985,0.47504,0.47132,0.47079,0.48091,0.47115,0.4769,0.46685,0.46424,0.46931,0.48566,0.46855,0.46736,0.45622,0.45578,0.46986,0.47168,0.4622,0.45867,0.46661,0.46213,0.45844,0.46357,0.46101,0.45476,0.47279,0.4723,0.47225,0.45234,0.45714,0.49105,0.46712,0.4451,0.45191,0.46594,0.47134,0.46847,0.46092,0.45849,0.46025,0.47567,0.47725,0.49388,0.51421,0.53011,0.51382,0.50653,0.52104,0.53973,0.5454,0.5583,0.56646,0.55739,0.5396,0.52414,0.50838,0.49874,0.47926,0.43773,0.43485,0.43278,0.45883,0.44055,0.43254,0.43511,0.45336,0.43599,0.44486,0.44528,0.44432,0.43618,0.43701,0.43762,0.40224,0.30777,0.25925,0.26414,0.32545,0.47978,0.86288,1.3259,1.6938,1.8764,2.165,1.9486,1.2915,0.68247,0.18559,0.027008,-0.099165,-0.082326,0.034165,0.19629,0.31682,0.40014,0.4332,0.43325,0.4347,0.43847,0.43229,0.44244,0.44598,0.46522,0.45703,0.44058,0.44713,0.45761,0.46373,0.47237,0.48546,0.45234,0.45618,0.47502,0.48171,0.48603,0.46986,0.46675,0.4646,0.47049,0.46889,0.48086,0.46177,0.46635,0.48145,0.47782,0.47407,0.47014,0.48407,0.49054,0.47818,0.47414,0.48494,0.4884,0.49642,0.49009,0.48408,0.48861,0.48881,0.50644,0.49073,0.49717,0.49117,0.49819,0.49824,0.50716,0.53125,0.50103,0.51556,0.51646,0.54454,0.53172,0.54433,0.55294,0.55633,0.56296,0.56538,0.57726,0.58122,0.5794,0.59394,0.5945,0.58507,0.57309,0.57515,0.58194,0.56689,0.54934,0.54552,0.54766,0.53207,0.52198,0.5166,0.50843,0.50869,0.51249,0.50381,0.50417,0.50254,0.49679,0.49989,0.50977,0.49208,0.49633,0.4928,0.49757,0.5027,0.48833,0.49932,0.50688,0.48277,0.48211,0.47987,0.48422,0.47528,0.48878,0.4806,0.47733,0.47285,0.46634,0.47854,0.47808,0.49085,0.46603,0.46691,0.47197,0.47628,0.48149,0.46552,0.46986,0.47782,0.47454,0.47244,0.4684,0.46065,0.47651,0.47311,0.44955,0.46815,0.45154,0.44511,0.46807,0.47007,0.46387,0.45316,0.45074,0.46596,0.46875,0.44607,0.45165,0.4579,0.46358,0.47089,0.46083,0.45957,0.45133,0.4477,0.45315,0.456,0.44731,0.45341,0.44827,0.45974,0.46837,0.46342,0.44513,0.45533,0.45182,0.45315,0.44432,0.4487,0.45234,0.44813,0.47228,0.42754,0.44127,0.45982,0.46551,0.49453,0.49881,0.49478,0.48758,0.51058,0.5285,0.51808,0.53398,0.52251,0.54841,0.53545,0.49955,0.47003,0.45614,0.42572,0.43176,0.43316,0.42285,0.40383,0.42244,0.43456,0.42852,0.42357,0.4143,0.42039,0.4163,0.42806,0.4269,0.43003,0.4099,0.38199,0.29402,0.26975,0.28091,0.37018,0.64661,1.1195,1.3282,1.6288,1.8149,1.9951,1.7562,1.1115,0.50266,0.15328,0.028606,-0.094757,-0.068856,-0.053841,0.069287,0.175,0.32028,0.37171,0.42503,0.41071,0.4334,0.42388,0.43779,0.42773,0.44166,0.44736,0.45917,0.44129,0.45232,0.4556,0.44701,0.46135,0.47416,0.46909,0.47285,0.46706,0.4724,0.47431,0.47198,0.47546,0.46935,0.47232,0.47802,0.47318,0.48152,0.47693,0.50237,0.48376,0.49143,0.49772,0.47167,0.50082,0.49679,0.49273,0.4955,0.48743,0.49648,0.49529,0.50833,0.48902,0.49209,0.49386,0.49353,0.51371,0.52169,0.51296,0.51498,0.53101,0.52601,0.54237,0.5352,0.53885,0.56489,0.55728,0.55706,0.56871,0.55153,0.59146,0.59071,0.59633,0.58295,0.5755,0.60259,0.60872,0.60063,0.5869,0.58326,0.58191,0.57676,0.57477,0.54552,0.54582,0.55079,0.54942,0.545,0.52961,0.51976,0.51373,0.52169,0.51707,0.50945,0.51947,0.51618,0.51484,0.52615,0.50176,0.49721,0.49502,0.5138,0.52252,0.50732,0.49738,0.50456,0.5221,0.52115,0.51992,0.50971,0.51663,0.51661,0.52364,0.51365,0.51639,0.51859,0.51566,0.52093,0.52342,0.50446,0.52072,0.48603,0.50463,0.50127,0.51493,0.48866,0.49094,0.50835,0.49349,0.48281,0.4902,0.49347,0.49705,0.49476,0.49013,0.48905,0.48208,0.4903,0.49311,0.48794,0.48878,0.4909,0.47779,0.48962,0.49821,0.47533,0.47207,0.47221,0.4822,0.48278,0.47995,0.48619,0.48472,0.48983,0.50458,0.52789,0.53545,0.54986,0.53055,0.54669,0.56009,0.57149,0.56688,0.57013,0.57441,0.55715,0.52606,0.51267,0.5209,0.4708,0.44995,0.45827,0.44291,0.45456,0.45373,0.4511,0.44953,0.45052,0.4523,0.45142,0.45003,0.44644,0.45163,0.48098,0.44624,0.43157,0.3539,0.29601,0.29095,0.34714,0.52864,0.91603,1.3547,1.5537,1.8016,2.0237,2.1269,1.6048,0.92446,0.37723,0.088065,-0.0033179,-0.088417,-0.007185,0.085433,0.25203,0.35036,0.43027,0.45065,0.44479,0.44644,0.4601,0.43858,0.458,0.47022,0.47273,0.47436,0.48684,0.47375,0.50711,0.4772,0.48942,0.48389,0.49347,0.46994,0.48969,0.49464,0.49579,0.49738,0.49728,0.50728,0.4908,0.49616,0.50106,0.49574,0.50644,0.51375,0.51031,0.50955,0.51662,0.50604,0.52097,0.52343,0.50179,0.50456,0.52088,0.51711,0.5197,0.52675,0.51303,0.51995,0.53774,0.50705,0.51487,0.52312,0.51882,0.53781,0.52526,0.5375,0.53344,0.54728,0.56127,0.56552,0.55734,0.56843,0.57581,0.58773,0.58431,0.58987,0.58525,0.60607,0.61346,0.6094,0.60259,0.6136,0.57888,0.58587,0.58856,0.56848,0.56733,0.55842,0.55808,0.55395,0.53938,0.54767,0.53376,0.52288,0.52306,0.5295,0.53598,0.51927,0.51863,0.52505,0.52231,0.52827,0.52263,0.53502,0.53955,0.53542,0.51731,0.52014,0.52072,0.52072,0.53935,0.53847,0.51368,0.5177,0.53212,0.52879,0.53079,0.50832,0.5246,0.54032,0.52606,0.52067,0.52207,0.5127,0.52303,0.5309,0.51386,0.51048,0.50812,0.5153,0.51604,0.51572,0.50305,0.50513,0.49614,0.50344,0.49068,0.49996,0.49574,0.50964,0.50654,0.52293,0.48687,0.47597,0.4917,0.49597,0.49522,0.48952,0.48918,0.49566,0.50422,0.49573,0.49311,0.48567,0.49234,0.49973,0.50481,0.49568,0.4848,0.47837,0.4889,0.49381,0.49694,0.4927,0.48643,0.49947,0.49153,0.5059,0.47085,0.47871,0.49861,0.48628,0.49245,0.48457,0.49577,0.50847,0.53566,0.53837,0.54409,0.54465,0.53056,0.55922,0.55862,0.56949,0.59245,0.57924,0.61553,0.57531,0.53699,0.51267,0.52319,0.48605,0.46705,0.45976,0.46719,0.46338,0.46768,0.47204,0.47337,0.46404,0.46243,0.46333,0.47402,0.46898,0.46411,0.4745,0.48147,0.43926,0.35591,0.29256,0.29431,0.38514,0.60459,1.0385,1.4946,1.8129,1.9962,2.2588,2.1138,1.4738,0.83884,0.29613,0.086559,-0.029552,-0.056116,0.044285,0.18497,0.35079,0.43866,0.46295,0.47288,0.46553,0.48163,0.47468,0.47414,0.4803,0.48479,0.4919,0.50348,0.49875,0.48672,0.49059,0.50173,0.51276,0.50419,0.50158,0.51894,0.52537,0.51208,0.50076,0.51263,0.50244,0.51204,0.52451,0.52319,0.52137,0.52255,0.53161,0.5382,0.54566,0.51055,0.51616,0.53065,0.52759,0.53845,0.52231,0.53496,0.53376,0.54441,0.54445,0.54308,0.51128,0.52144,0.53828,0.54255,0.54505,0.54174,0.55206,0.55204,0.56402,0.56671,0.55883,0.58446,0.56312,0.59081,0.59622,0.57426,0.59056,0.59414,0.61587,0.62197,0.62297,0.62521,0.63351,0.63865,0.64332,0.62486,0.62014,0.60505,0.62289,0.61307,0.60271,0.59205,0.59216,0.58263,0.59027,0.5619,0.55926,0.55895,0.58263,0.55211,0.54948,0.54438,0.54932,0.5514,0.5715,0.54719,0.55093,0.5478,0.55667,0.56631,0.57183,0.54607,0.55498,0.55785,0.5596,0.55439,0.54819,0.53814,0.53879,0.55626,0.56305,0.54138,0.54768,0.54729,0.56009,0.55078,0.5248,0.55264,0.51813,0.54297,0.54938,0.52479,0.52306,0.54264,0.5345,0.54795,0.53846,0.53262,0.52578,0.53074,0.53186,0.5262,0.50911,0.52788,0.53552,0.54761,0.53712,0.5296,0.52464,0.51229,0.52496,0.53228,0.52036,0.52042,0.51379,0.52318,0.52339,0.51292,0.51781,0.51615,0.52399,0.53035,0.523,0.51091,0.526,0.50561,0.50889,0.52155,0.50525,0.51571,0.52615,0.53076,0.53324,0.52431,0.51521,0.5005,0.50408,0.50963,0.50923,0.52567,0.52968,0.51183,0.49921,0.50378,0.5049,0.51083,0.5098,0.51675,0.5026,0.49819,0.50275,0.51142,0.50889,0.51224,0.50334,0.50555,0.50407,0.50922,0.50411,0.50144,0.50324,0.51033,0.49538,0.49875,0.48793,0.50454,0.5202,0.54131,0.53453,0.53855,0.54758,0.5307,0.55801,0.56879,0.57151,0.56563,0.57687,0.59754,0.58257,0.53259,0.5314,0.52122,0.49687,0.46632,0.48301,0.44979,0.46028,0.47529,0.47663,0.46906,0.46334,0.46102,0.48671,0.47796,0.47061,0.46861,0.46483,0.43464,0.38243,0.32191,0.30288,0.34533,0.51699,0.90741,1.3455,1.546,1.7932,1.967,2.0853,1.6338,0.93816,0.41528,0.13421,0.039939,-0.076666,-0.015104,0.038238,0.18428,0.31162,0.42313,0.42383,0.45678,0.44245,0.47149,0.45345,0.47301,0.47209,0.47802,0.47989,0.48852,0.47884,0.49851,0.47543,0.49905,0.48501,0.49769,0.50246,0.48941,0.49155,0.51286,0.48537,0.49645,0.48058,0.49627,0.50632,0.49845,0.49357,0.49401,0.51124,0.51267,0.50129,0.50377,0.50835,0.51036,0.50807,0.51126,0.51908,0.52342,0.50677,0.51156,0.51029,0.50402,0.51677,0.50552,0.5267,0.5228,0.52085,0.51146,0.53069,0.52698,0.54582,0.54616,0.54217,0.54212,0.55459,0.56419,0.56508,0.57874,0.58752,0.57794,0.58613,0.59672,0.59753,0.60058,0.61034,0.61104,0.62549,0.59867,0.58962,0.59459,0.60343,0.59522,0.57705,0.55717,0.55091,0.56088,0.56558,0.54037,0.54578,0.53714,0.52714,0.52419,0.53153,0.52105,0.52351,0.51902,0.52967,0.52313,0.52191,0.51911,0.53023,0.52599,0.53721,0.5286,0.53024,0.52177,0.54273,0.53218,0.51858,0.52823,0.53391,0.52173,0.5531,0.54009,0.53852,0.52904,0.5326,0.53236,0.51684,0.51579,0.52912,0.52197,0.51535,0.52082,0.51326,0.51141,0.51036,0.52682,0.51175,0.50353,0.52779,0.51959,0.49654,0.5128,0.50822,0.49764,0.50613,0.52076,0.51299,0.49178,0.4873,0.49968,0.50068,0.5134,0.49841,0.49151,0.50607,0.50362,0.48987,0.49612,0.49544,0.50353,0.50384,0.50404,0.4946,0.4947,0.49493,0.49453,0.50974,0.4978,0.50825,0.52437,0.53338,0.55455,0.54233,0.53875,0.55156,0.56927,0.58808,0.5913,0.56935,0.5764,0.57342,0.55082,0.54067,0.53696,0.50005,0.46109,0.47076,0.47359,0.46187,0.45738,0.47263,0.48686,0.45862,0.45183,0.4656,0.46836,0.46309,0.47604,0.48036,0.4523,0.39961,0.37108,0.31145,0.30663,0.34906,0.51091,0.89162,1.3277,1.6835,1.8523,2.108,1.9793,1.3435,0.68872,0.23461,0.055257,-0.050605,-0.060658,0.0023261,0.14991,0.29387,0.35272,0.4195,0.45952,0.44185,0.4431,0.46138,0.47767,0.47314,0.48168,0.46984,0.48482,0.48755,0.49395,0.48188,0.49774,0.47805,0.48306,0.49601,0.5061,0.49748,0.50628,0.49518,0.49252,0.50141,0.48546,0.49236,0.49936,0.50595,0.50335,0.50192,0.50209,0.51099,0.50839,0.51351,0.50713,0.51282,0.5017,0.51795,0.52128,0.51219,0.51539,0.50474,0.5328,0.5148,0.5071,0.51157,0.52028,0.53596,0.52886,0.52226,0.52673,0.54216,0.54603,0.55034,0.54868,0.55834,0.56304,0.56976,0.58085,0.58195,0.58384,0.59462,0.60209,0.58816,0.59725,0.60518,0.58459,0.59621,0.58945,0.57508,0.56668,0.56978,0.56483,0.56039,0.53665,0.5358,0.5277,0.52596,0.51703,0.52041,0.50933,0.50045,0.51484,0.51122,0.53264,0.4842,0.49869,0.49625,0.50249,0.50168,0.49914,0.50118,0.48775,0.50591,0.50287,0.496,0.48674,0.49538,0.50261,0.48974,0.49391,0.50762,0.4941,0.48947,0.49905,0.51203,0.49927,0.50271,0.48471,0.48623,0.49066,0.48951,0.48405,0.48496,0.49577,0.49552,0.48365,0.47504,0.49158,0.48997,0.47963,0.47323,0.4716,0.47726,0.47896,0.4876,0.46671,0.47397,0.4711,0.48953,0.47128,0.46215,0.46011,0.45946,0.47118,0.46081,0.47376,0.47054,0.45658,0.4604,0.46638,0.46588,0.4657,0.47256,0.45953,0.46097,0.46204,0.45231,0.46038,0.45537,0.46757,0.46046,0.45394,0.46614,0.4721,0.4479,0.45593,0.44888,0.45434,0.45385,0.44866,0.46887,0.4696,0.49354,0.50734,0.51863,0.51435,0.51654,0.5315,0.55795,0.55933,0.5413,0.53989,0.53862,0.51754,0.51536,0.50896,0.46409,0.42896,0.43436,0.43024,0.42509,0.43673,0.42788,0.41296,0.42387,0.43294,0.43452,0.41931,0.41707,0.42751,0.44238,0.42595,0.39104,0.31984,0.26366,0.27186,0.34981,0.41899,0.70621,1.1675,1.5901,1.8392,2.0818,2.116,1.497,0.8621,0.30325,0.051433,-0.058547,-0.11527,-0.015028,0.15161,0.29868,0.3866,0.40522,0.40979,0.42456,0.42749,0.43259,0.42093,0.43794,0.44855,0.43216,0.41462,0.42818,0.43101,0.43861,0.44373,0.43642,0.42846,0.44602,0.43682,0.44994,0.43995,0.42884,0.44656,0.45495,0.4374,0.431,0.42966,0.434,0.44918,0.45911,0.45346,0.44881,0.45357,0.45652,0.45475,0.4503,0.45535,0.45894,0.46593,0.48031,0.4722,0.45776,0.47006,0.46646,0.46793,0.47732,0.47562,0.48264,0.48843,0.47369,0.49488,0.49613,0.49038,0.50222,0.50395,0.51534,0.51893,0.53432,0.52618,0.51067,0.54903,0.54862,0.55274,0.55888,0.55888,0.57265,0.56173,0.5588,0.55996,0.54539,0.56732,0.54896,0.5381,0.51101,0.52068,0.52148,0.5023,0.50716,0.49421,0.49929,0.49754,0.48255,0.48337,0.47501,0.48368,0.48411,0.47765,0.47764,0.47082,0.4947,0.47644,0.48901,0.48795,0.49235,0.4709,0.48005,0.48741,0.47413,0.47205,0.47897,0.47766,0.47935,0.48068,0.46972,0.42793,0.43646,0.43278,0.43413,0.43704,0.44955,0.45042,0.46083,0.42941,0.42864,0.42966,0.43403,0.44988,0.44579,0.4367,0.42582,0.45053,0.45298,0.43153,0.44727,0.44987,0.4341,0.43885,0.451,0.45596,0.43735,0.44058,0.44412,0.44748,0.43972,0.43872,0.43659,0.43825,0.4499,0.46312,0.45448,0.44079,0.43348,0.4401,0.44745,0.45119,0.43637,0.4566,0.44416,0.45187,0.44883,0.45189,0.44575,0.44751,0.45874,0.43666,0.43549,0.43444,0.44712,0.44257,0.43606,0.44266,0.43836,0.44162,0.44291,0.44445,0.43513,0.45243,0.46852,0.4527,0.41086,0.4378,0.42671,0.43352,0.43583,0.43882,0.43801,0.43403,0.44082,0.45345,0.44105,0.43275,0.45439,0.46397,0.47639,0.49661,0.50179,0.47872,0.50542,0.52265,0.52827,0.54251,0.53529,0.51582,0.51236,0.49352,0.48461,0.46057,0.43169,0.41426,0.41972,0.41229,0.42281,0.42339,0.41617,0.42301,0.43025,0.41625,0.42127,0.42018,0.43292,0.42251,0.41624,0.39043,0.32441,0.2789,0.28071,0.31676,0.51656,0.89958,1.3507,1.6983,1.8319,1.964,2.0832,1.5192,0.85653,0.33922,0.059916,-0.059366,-0.11487,-0.031857,0.019374,0.18038,0.30745,0.38728,0.38983,0.41641,0.38316,0.40705,0.40894,0.41215,0.39272,0.39732,0.39224,0.40506,0.40834,0.39621,0.38725,0.40016,0.40994,0.41177,0.40461,0.41292,0.40974,0.41749,0.42582,0.41893,0.41713,0.43001,0.42998,0.43645,0.42422,0.42554,0.43539,0.43684,0.43987,0.45344,0.44265,0.43719,0.45272,0.45185,0.45278,0.44248,0.44617,0.45424,0.45782,0.46445,0.4545,0.46723,0.45758,0.45846,0.45649,0.46586,0.46978,0.46874,0.48415,0.49566,0.50592,0.4983,0.49154,0.49573,0.51344,0.52222,0.52196,0.53428,0.54542,0.55095,0.55619,0.54991,0.53854,0.55511,0.56961,0.55933,0.53417,0.53356,0.52546,0.50212,0.52542,0.50479,0.48701,0.4938,0.48759,0.47181,0.47585,0.47593,0.46106,0.47191,0.47787,0.454,0.4741,0.46574,0.46395,0.46996,0.45959,0.44431,0.45817,0.46498,0.47246,0.46961,0.4687,0.4554,0.46088,0.4693,0.48098,0.48385,0.44334,0.46363,0.4826,0.47957,0.44372,0.44862,0.46465,0.46205,0.47869,0.45813,0.45007,0.44158,0.44636,0.44932,0.45158,0.41875,0.42144,0.43582,0.43032,0.44486,0.41537,0.40628,0.41968,0.42408,0.43015,0.42164,0.4205,0.41121,0.41784,0.41603,0.41874,0.42223,0.41726,0.42811,0.42924,0.42817,0.4309,0.41334,0.43505,0.45277,0.41568,0.41852,0.4362,0.42699,0.44785,0.42389,0.4363,0.46037,0.48645,0.49169,0.49172,0.48797,0.49468,0.50959,0.53426,0.53888,0.52235,0.54944,0.51172,0.47195,0.47725,0.45375,0.42393,0.41448,0.41661,0.42321,0.41348,0.4076,0.41004,0.41199,0.42332,0.4109,0.41223,0.40588,0.42523,0.43253,0.41304,0.40966,0.37388,0.28759,0.2625,0.2606,0.3496,0.63464,1.0863,1.4939,1.6462,1.8085,2.0358,1.8587,1.2215,0.58124,0.17782,0.011,-0.10024,-0.095129,-0.035922,0.084023,0.23115,0.35641,0.39475,0.40302,0.39717,0.40197,0.41872,0.42516,0.43848,0.42625,0.44537,0.44013,0.44328,0.4415,0.4425,0.44568,0.44511,0.4509,0.46389,0.45099,0.44794,0.45453,0.46964,0.46697,0.46984,0.45243,0.45842,0.47108,0.45228,0.46165,0.46094,0.46058,0.46002,0.46698,0.46514,0.45153,0.45575,0.46411,0.45071,0.45618,0.45855,0.4548,0.43689,0.45008,0.45767,0.43369,0.40746,0.42034,0.4315,0.43147,0.43697,0.43432,0.41304,0.41772,0.43185,0.43163,0.4308,0.42961,0.43288,0.44724,0.45171,0.4641,0.42652,0.44202,0.45303,0.45087,0.43671,0.4313,0.43063,0.4309,0.42526,0.43233,0.41526,0.4049,0.40424,0.39629,0.38875,0.38501,0.39301,0.40072,0.41137,0.3869,0.39874,0.40501,0.41634,0.40522,0.41476,0.41669,0.42113,0.42191,0.43193,0.42851,0.43559,0.43918,0.4402,0.44272,0.44057,0.43451,0.44465,0.44793,0.45572,0.45901,0.4469,0.45212,0.45625,0.4715,0.44931,0.44298,0.44589,0.45125,0.45487,0.4509,0.44923,0.45072,0.44064,0.44867,0.4535,0.45481,0.44361,0.43235,0.43401,0.443,0.43494,0.43717,0.45106,0.42669,0.41876,0.42601,0.41708,0.41179,0.42192,0.42262,0.41758,0.41972,0.39872,0.41224,0.42972,0.40834,0.4133,0.41153,0.4113,0.41927,0.41494,0.42332,0.39888,0.41482,0.41796,0.41953,0.41849,0.41987,0.43363,0.43778,0.46801,0.47022,0.46524,0.45987,0.4759,0.48801,0.49532,0.51226,0.50807,0.50479,0.50176,0.47917,0.45744,0.45768,0.45953,0.40535,0.40529,0.39235,0.39628,0.40234,0.39938,0.41229,0.40713,0.40002,0.41885,0.414,0.41035,0.40711,0.41567,0.41916,0.38435,0.317,0.24208,0.24891,0.26636,0.394,0.69249,1.1287,1.5569,1.8085,2.062,2.1259,1.5513,0.88846,0.32865,0.063939,-0.060731,-0.13181,-0.03045,0.11579,0.27137,0.36743,0.40944,0.38976,0.39926,0.41807,0.42894,0.41862,0.42576,0.42231,0.43457,0.43498,0.44547,0.43217,0.43591,0.43842,0.45153,0.43904,0.44585,0.42946,0.45545,0.43332,0.45445,0.46082,0.42918,0.43048,0.44946,0.45615,0.44298,0.43804,0.44548,0.45267,0.45248,0.44567,0.45522,0.44412,0.46689,0.46146,0.46013,0.45909,0.44333,0.46252,0.46878,0.45941,0.46191,0.46227,0.46742,0.47959,0.48754,0.46552,0.48617,0.48101,0.48669,0.49401,0.48313,0.49171,0.49879,0.50958,0.51668,0.52023,0.51878,0.53818,0.53965,0.55285,0.54554,0.54534,0.55447,0.55578,0.53752,0.54691,0.54509,0.52101,0.52144,0.53068,0.5215,0.50629,0.48578,0.49697,0.48463,0.48427,0.47363,0.48552,0.45847,0.45095,0.4676,0.46881,0.46489,0.4621,0.47176,0.46649,0.46264,0.45892,0.45649,0.46187,0.4692,0.46912,0.43365,0.445,0.4452,0.45133,0.44635,0.44145,0.45244,0.45362,0.44508,0.43916,0.44113,0.4403,0.4459,0.44926,0.44394,0.43334,0.44151,0.43924,0.43872,0.44611,0.44504,0.43261,0.4397,0.44533,0.44346,0.43035,0.42842,0.44006,0.45155,0.43791,0.43626,0.43282,0.42317,0.44186,0.44327,0.44518,0.43541,0.4381,0.43118,0.4422,0.43255,0.43015,0.41979,0.42815,0.43078,0.42965,0.42305,0.42979,0.41163,0.43081,0.42253,0.41427,0.42584,0.41606,0.42617,0.42162,0.41615,0.43628,0.40033,0.4149,0.41815,0.4066,0.41977,0.41353,0.41859,0.41701,0.42524,0.40631,0.42249,0.43031,0.43532,0.42471,0.42857,0.42929,0.42848,0.43437,0.42965,0.42454,0.43851,0.43341,0.43578,0.42955,0.43379,0.41662,0.42247,0.44478,0.44694,0.43951,0.42153,0.42825,0.44417,0.44086,0.44123,0.42502,0.45026,0.43404,0.41253,0.42669,0.43297,0.42543,0.42878,0.44865,0.43894,0.45245,0.47502,0.49908,0.50398,0.47965,0.46954,0.50834,0.50932,0.5179,0.528,0.52402,0.52407,0.52082,0.5046,0.48215,0.44386,0.39995,0.41144,0.41562,0.412,0.41306,0.41098,0.42792,0.43003,0.42035,0.41928,0.41497,0.40952,0.42108,0.42791,0.4149,0.38722,0.30993,0.25453,0.27472,0.35068,0.56028,0.97141,1.423,1.7509,1.9178,2.1585,1.7969,1.4341,1.106,0.27881,0.053176,-0.070025,-0.12593,-0.015505,0.091341,0.23679,0.3407,0.39291,0.41347,0.41404,0.3979,0.41998,0.41313,0.42235,0.43286,0.44246,0.43837,0.42765,0.43436,0.44077,0.43941,0.45561,0.40838,0.43946,0.46057,0.4458,0.43818,0.44407,0.43706,0.44813,0.45074,0.44998,0.44724,0.44237,0.454,0.45392,0.45328,0.45501,0.44927,0.46658,0.47065,0.45674,0.43803,0.45446,0.44845,0.47115,0.45935,0.4473,0.45199,0.45022,0.45855,0.45161,0.43648,0.43934,0.46054,0.4514,0.45775,0.45867,0.46637,0.47352,0.48029,0.46896,0.49304,0.47939,0.50957,0.52576,0.51111,0.516,0.52038,0.53302,0.55053,0.55027,0.54593,0.54932,0.53993,0.54865,0.55418,0.54817,0.54321,0.52392,0.52352,0.50693,0.50566,0.50609,0.50975,0.49068,0.49378,0.48078,0.47509,0.48309,0.48207,0.47294,0.47027,0.47832,0.46984,0.47811,0.47542,0.47371,0.47861,0.47225,0.46272,0.47817,0.46772,0.47342,0.47787,0.47895,0.46573,0.47135,0.4628,0.463,0.4701,0.48555,0.46157,0.46928,0.46773,0.46833,0.47592,0.46274,0.4678,0.45684,0.45768,0.46083,0.47183,0.4497,0.45413,0.45561,0.46471,0.46541,0.4526,0.44603,0.45121,0.44563,0.45574,0.44165,0.43444,0.43227,0.44184,0.45789,0.46155,0.43897,0.43611,0.44618,0.43707,0.43785,0.43244,0.41487,0.42429,0.42458,0.42061,0.42607,0.43625,0.43218,0.44109,0.44067,0.42821,0.42341,0.41397,0.43842,0.43252,0.4171,0.42327,0.44009,0.44067,0.43318,0.4285,0.42571,0.43493,0.43673,0.44283,0.44216,0.451,0.48133,0.47978,0.49567,0.46658,0.4711,0.49958,0.4893,0.5171,0.50831,0.50617,0.48049,0.45368,0.4447,0.44108,0.38159,0.37311,0.37108,0.37779,0.37621,0.3735,0.36266,0.36642,0.35803,0.34611,0.35183,0.34629,0.34727,0.35561,0.36795,0.3438,0.29441,0.22212,0.20988,0.23993,0.35683,0.64943,1.1165,1.5147,1.7467,1.9393,1.9878,1.407,0.77758,0.24721,0.080086,-0.034049,-0.16823,-0.1206,-0.061401,0.082656,0.20639,0.32979,0.35153,0.38311,0.3894,0.39088,0.38436,0.40697,0.41053,0.42082,0.39658,0.41979,0.41958,0.42448,0.43329,0.43393,0.42905,0.42089,0.42771,0.43879,0.44214,0.43935,0.42342,0.44991,0.45189,0.45365,0.44261,0.44858,0.44661,0.45337,0.4564,0.44906,0.44829,0.45421,0.46781,0.46686,0.46476,0.46423,0.46659,0.47797,0.46402,0.45368,0.46424,0.4696,0.47717,0.46141,0.4739,0.47516,0.48041,0.49454,0.49188,0.48765,0.47957,0.48138,0.48894,0.49724,0.50766,0.51198,0.51619,0.50262,0.52595,0.52039,0.52578,0.52365,0.5431,0.53826,0.54106,0.53895,0.53325,0.52439,0.51018,0.52492,0.50882,0.50176,0.49943,0.49083,0.48746,0.47191,0.46638,0.46424,0.46095,0.46055,0.46105,0.45702,0.45288,0.4643,0.44467,0.44385,0.44179,0.45449,0.44852,0.45151,0.44461,0.45307,0.44267,0.45746,0.46155,0.44302,0.44454,0.43683,0.44824,0.44938,0.45041,0.44062,0.44188,0.43662,0.44991,0.44501,0.44125,0.43062,0.45438,0.46226,0.44892,0.42434,0.43492,0.43416,0.42557,0.42857,0.42977,0.42279,0.43151,0.43257,0.43118,0.42352,0.42438,0.40831,0.41939,0.43258,0.42035,0.42288,0.4329,0.42536,0.41624,0.42203,0.43059,0.43715,0.41635,0.42913,0.41815,0.42409,0.44042,0.42274,0.43526,0.43148,0.41961,0.42153,0.4185,0.42832,0.42942,0.40922,0.41844,0.42207,0.42837,0.42343,0.41864,0.40712,0.40801,0.41698,0.41948,0.413,0.40998,0.4156,0.41459,0.41799,0.39853,0.39588,0.37721,0.38218,0.37801,0.36785,0.36871,0.35206,0.34286,0.34312,0.36173,0.37365,0.38861,0.39101,0.37723,0.3918,0.42019,0.43472,0.41677,0.46187,0.45566,0.45017,0.42224,0.40644,0.41559,0.40406,0.34866,0.35772,0.36054,0.34457,0.36802,0.36557,0.35851,0.37367,0.36466,0.35359,0.3605,0.36005,0.36945,0.37101,0.37601,0.34835,0.26574,0.19681,0.21712,0.27531,0.49927,0.90427,1.1393,1.5413,1.8028,2.0501,2.0561,1.4335,0.821,0.25595,0.02701,-0.1155,-0.16276,-0.068783,0.09504,0.23374,0.33384,0.36575,0.36538,0.38287,0.38908,0.38428,0.37436,0.37941,0.39365,0.38668
