8.5763,8.534,8.5655,8.5708,8.5729,8.6064,8.5905,8.6471,8.6567,8.664,8.6878,8.7028,8.6666,8.6574,8.6268,8.6231,8.5956,8.5803,8.57,8.5446,8.5213,8.5239,8.537,8.547,8.5458,8.528,8.5137,8.5135,8.5248,8.5024,8.5137,8.512,8.5142,8.521,8.5201,8.5054,8.5126,8.5427,8.6037,8.7812,9.0189,9.2211,9.3612,9.0939,9.0038,8.8588,8.4247,8.223,8.4067,8.6478,8.653,8.6562,8.6021,8.5876,8.5763,8.568,8.555,8.5615,8.5607,8.5835,8.5753,8.5853,8.5933,8.5907,8.5785,8.5813,8.5874,8.6232,8.6104,8.6033,8.607,8.5942,8.6057,8.6254,8.6455,8.6586,8.64,8.6446,8.6645,8.6838,8.699,8.6792,8.6924,8.7252,8.7327,8.7366,8.7576,8.7763,8.7926,8.8029,8.8287,8.8596,8.8584,8.8705,8.9226,8.92,8.9135,8.923,8.9458,8.947,8.9404,8.9339,8.9474,8.9506,8.9202,8.8989,8.8691,8.8322,8.7731,8.7349,8.7152,8.6592,8.61,8.5855,8.5581,8.5293,8.5151,8.4857,8.4825,8.482,8.4891,8.4754,8.4714,8.461,8.461,8.4586,8.463,8.4506,8.4691,8.4637,8.465,8.4639,8.4828,8.4835,8.4685,8.4632,8.4915,8.5114,8.5059,8.441,8.4419,8.4536,8.4562,8.4693,8.4757,8.4467,8.4475,8.4428,8.4363,8.4494,8.4682,8.441,8.4121,8.422,8.4445,8.4505,8.4401,8.4185,8.4405,8.4552,8.4604,8.4922,8.4968,8.5087,8.5109,8.543,8.5409,8.5507,8.5725,8.5394,8.5276,8.5248,8.4973,8.4553,8.4454,8.4484,8.4254,8.4267,8.4276,8.4192,8.4112,8.4315,8.4283,8.4055,8.4133,8.4346,8.4425,8.4342,8.416,8.4216,8.4204,8.427,8.4184,8.4494,8.503,8.6378,8.8167,9.0412,9.2338,9.1819,8.9893,8.7871,8.4262,8.27,8.3921,8.5559,8.6036,8.5819,8.5551,8.5281,8.5257,8.517,8.5221,8.5205,8.5167,8.5141,8.5396,8.5454,8.5641,8.5774,8.5909,8.5875,8.5888,8.5917,8.6026,8.5794,8.6012,8.6206,8.6257,8.6301,8.6145,8.6291,8.6669,8.6685,8.6639,8.6662,8.6803,8.6922,8.7293,8.7467,8.7484,8.7607,8.7793,8.8006,8.8264,8.8722,8.8933,8.9024,8.9213,8.9245,8.941,8.9671,8.9811,8.9914,9.0073,9.055,9.0658,9.0605,9.0604,9.0598,9.0229,9.0165,8.9711,8.9767,8.9348,8.8399,8.7902,8.7795,8.7617,8.7305,8.6784,8.6334,8.634,8.6203,8.6035,8.6085,8.6137,8.6162,8.5984,8.6107,8.6023,8.5998,8.5925,8.61,8.6042,8.5943,8.6137,8.6178,8.6042,8.5983,8.5975,8.595,8.5945,8.6065,8.6088,8.6089,8.6162,8.6044,8.5854,8.6174,8.6172,8.5778,8.5777,8.5931,8.5982,8.5672,8.5703,8.573,8.5512,8.5498,8.5576,8.5779,8.5511,8.5241,8.5224,8.5525,8.5914,8.5979,8.5782,8.5784,8.6038,8.6193,8.6317,8.6382,8.6846,8.6852,8.6945,8.6597,8.6141,8.5862,8.5778,8.5744,8.5534,8.5199,8.4983,8.497,8.4944,8.4923,8.4821,8.4629,8.4637,8.4597,8.4614,8.4667,8.4481,8.4463,8.4553,8.4544,8.4543,8.4465,8.4453,8.4488,8.4996,8.5685,8.7458,8.9474,9.0908,9.2329,9.0198,8.873,8.5729,8.3152,8.2908,8.5171,8.5741,8.5043,8.5118,8.4832,8.4819,8.4564,8.483,8.4458,8.4698,8.4523,8.483,8.4595,8.4857,8.4863,8.507,8.4971,8.5112,8.4999,8.5136,8.4889,8.5164,8.5126,8.5258,8.5214,8.557,8.5654,8.5836,8.5917,8.6156,8.6066,8.6214,8.621,8.6398,8.6537,8.6757,8.7146,8.7348,8.7294,8.7424,8.7549,8.7814,8.8023,8.8406,8.8694,8.8905,8.8737,8.8711,8.8692,8.9121,8.9379,8.9436,8.9483,8.9359,8.9462,8.9469,8.9144,8.8823,8.859,8.8157,8.7689,8.7004,8.6712,8.6236,8.6017,8.5845,8.5416,8.4699,8.4813,8.4756,8.4854,8.4569,8.4561,8.4486,8.4565,8.453,8.4552,8.4468,8.4374,8.4218,8.4318,8.4274,8.4328,8.4414,8.4569,8.4735,8.4581,8.4222,8.4235,8.408,8.4455,8.4384,8.4096,8.4102,8.4165,8.4185,8.4161,8.4391,8.4346,8.3972,8.3947,8.3857,8.3854,8.4002,8.4021,8.3428,8.3505,8.3671,8.3538,8.3415,8.3605,8.3575,8.3543,8.3563,8.3487,8.3629,8.3784,8.3817,8.4058,8.3907,8.4113,8.3963,8.4335,8.4655,8.4721,8.5138,8.5242,8.4855,8.4986,8.4835,8.4454,8.4169,8.4055,8.3957,8.3968,8.3841,8.385,8.3668,8.3636,8.3779,8.3796,8.3769,8.3912,8.3745,8.3562,8.3541,8.371,8.3859,8.3803,8.3766,8.3645,8.364,8.3966,8.5002,8.6282,8.8425,9.0438,9.2065,8.9622,8.8039,8.5429,8.299,8.2599,8.472,8.542,8.4763,8.4673,8.4188,8.4212,8.395,8.4353,8.4147,8.4187,8.4064,8.4235,8.4051,8.436,8.4113,8.4419,8.4229,8.4398,8.4582,8.4351,8.4141,8.426,8.4472,8.4615,8.44,8.461,8.4825,8.4849,8.4946,8.5211,8.4964,8.5131,8.5293,8.5587,8.5724,8.5626,8.5802,8.6175,8.6496,8.6546,8.6851,8.686,8.732,8.7413,8.7348,8.7572,8.7825,8.7844,8.8051,8.8053,8.8402,8.8393,8.8367,8.8522,8.8386,8.823,8.8337,8.8073,8.7568,8.7221,8.6985,8.6396,8.6044,8.5545,8.5202,8.4702,8.427,8.4395,8.4299,8.376,8.4082,8.3868,8.3772,8.3581,8.372,8.3675,8.3857,8.3873,8.3772,8.395,8.3594,8.364,8.3822,8.3992,8.3872,8.3739,8.4179,8.4016,8.3938,8.405,8.449,8.3885,8.3752,8.3859,8.3961,8.3959,8.3787,8.4038,8.3877,8.406,8.4077,8.3929,8.411,8.3703,8.3916,8.3731,8.4004,8.397,8.3749,8.3671,8.3794,8.3913,8.3854,8.4274,8.4275,8.4475,8.4735,8.4492,8.4311,8.4722,8.5312,8.5714,8.5528,8.5579,8.5132,8.519,8.5012,8.5048,8.4906,8.4513,8.4433,8.4267,8.4269,8.4212,8.4341,8.4167,8.3833,8.414,8.4018,8.4092,8.3969,8.4266,8.4311,8.3829,8.3852,8.4317,8.3937,8.3806,8.4344,8.4601,8.5499,8.7097,8.9657,9.1743,9.2247,8.9442,8.8239,8.4172,8.0785,8.1704,8.4979,8.5773,8.494,8.51,8.4865,8.5051,8.47,8.5038,8.5119,8.5323,8.5001,8.5135,8.5109,8.5446,8.5376,8.5223,8.5389,8.5596,8.5584,8.5967,8.5991,8.5788,8.547,8.6011,8.5891,8.6242,8.6094,8.6321,8.621,8.6369,8.6326,8.7085,8.6941,8.6842,8.6986,8.7203,8.748,8.781,8.7957,8.8113,8.8059,8.8265,8.8343,8.8696,8.9015,8.9384,8.9239,8.9387,8.9365,8.9369,8.9526,8.9786,8.9977,8.9806,8.9738,8.9383,8.9337,8.9145,8.8868,8.8448,8.7872,8.7365,8.69,8.6572,8.6302,8.5854,8.5649,8.5244,8.5158,8.4947,8.4997,8.4974,8.4988,8.4726,8.4878,8.4901,8.488,8.4669,8.4787,8.479,8.4777,8.4855,8.4879,8.4799,8.479,8.4766,8.491,8.4767,8.4762,8.4654,8.4798,8.4766,8.4748,8.4485,8.4605,8.4598,8.4459,8.4251,8.4372,8.4378,8.4115,8.3977,8.4072,8.4042,8.4116,8.3959,8.3813,8.3819,8.399,8.4112,8.436,8.4254,8.4294,8.4456,8.4323,8.4314,8.4568,8.4687,8.5037,8.5273,8.4522,8.432,8.448,8.3998,8.3773,8.3629,8.3589,8.336,8.333,8.3281,8.3231,8.3239,8.3189,8.2998,8.3274,8.3072,8.2865,8.3074,8.3138,8.3135,8.3176,8.3046,8.3159,8.2928,8.313,8.3778,8.5021,8.6789,8.8717,9.0841,9.0666,8.9255,8.7929,8.4921,8.1884,8.1133,8.3543,8.4448,8.405,8.4002,8.3803,8.409,8.3732,8.3763,8.3759,8.3834,8.3696,8.3996,8.3941,8.3921,8.4098,8.4095,8.3905,8.4204,8.4406,8.4456,8.4037,8.4137,8.4166,8.4293,8.4437,8.4692,8.4667,8.5177,8.5405,8.5052,8.5055,8.5258,8.559,8.5784,8.5769,8.6287,8.625,8.6575,8.6603,8.6701,8.6597,8.7015,8.7335,8.773,8.8062,8.7806,8.8023,8.842,8.8381,8.8439,8.8435,8.8677,8.9027,8.8608,8.882,8.8732,8.8489,8.806,8.7751,8.7495,8.6989,8.6273,8.6184,8.5749,8.523,8.4982,8.4721,8.4836,8.4481,8.4146,8.4198,8.433,8.4294,8.4186,8.4013,8.41,8.4232,8.4069,8.3964,8.4264,8.4381,8.4259,8.4126,8.4057,8.4311,8.4167,8.4375,8.4624,8.4344,8.4387,8.443,8.4408,8.4344,8.4221,8.4151,8.4149,8.4286,8.4305,8.4286,8.4128,8.4217,8.4402,8.402,8.3668,8.3894,8.3949,8.396,8.3971,8.3866,8.3944,8.3926,8.4153,8.4309,8.434,8.4709,8.4375,8.4773,8.5025,8.5033,8.5284,8.5331,8.5332,8.51,8.47,8.4425,8.428,8.4155,8.3966,8.3921,8.3945,8.4111,8.4049,8.3925,8.3683,8.3584,8.3258,8.3411,8.35,8.3613,8.389,8.3581,8.3507,8.3463,8.3542,8.3793,8.3776,8.4048,8.4924,8.6663,8.8878,9.0703,9.1477,8.9016,8.7761,8.4273,8.1915,8.2176,8.4271,8.5036,8.4785,8.4521,8.4225,8.4556,8.402,8.4342,8.4077,8.4383,8.4133,8.4598,8.4306,8.4387,8.4598,8.4896,8.4645,8.4749,8.4574,8.4613,8.4745,8.4767,8.46,8.4804,8.5025,8.5414,8.5362,8.5363,8.569,8.5813,8.5496,8.5893,8.6009,8.6204,8.6467,8.6797,8.6799,8.7161,8.7062,8.7058,8.7417,8.7775,8.8114,8.8248,8.8252,8.836,8.8653,8.8874,8.9007,8.9095,8.9438,8.9479,8.9596,8.9778,8.9563,8.9276,8.9279,8.8823,8.84,8.7842,8.7605,8.7249,8.7114,8.6546,8.6298,8.6028,8.5723,8.5634,8.5345,8.505,8.527,8.5044,8.4839,8.4898,8.5102,8.4941,8.4885,8.4777,8.5025,8.5044,8.5035,8.507,8.5038,8.5073,8.5211,8.5047,8.5059,8.4987,8.5048,8.5145,8.515,8.4957,8.4949,8.5023,8.5069,8.5104,8.5088,8.486,8.4915,8.4818,8.4838,8.5068,8.4702,8.4652,8.4722,8.4698,8.4592,8.4607,8.486,8.4777,8.4563,8.4796,8.4825,8.4685,8.492,8.4658,8.4854,8.5046,8.4999,8.5187,8.5331,8.5408,8.5517,8.5736,8.5964,8.5868,8.6558,8.5989,8.5381,8.5591,8.5422,8.4986,8.4821,8.4861,8.4683,8.439,8.4544,8.456,8.4473,8.4675,8.4571,8.418,8.4363,8.4275,8.4172,8.4212,8.4586,8.4469,8.4202,8.4124,8.391,8.4519,8.5133,8.5923,8.7947,9.0224,9.177,9.1541,8.9335,8.7618,8.3603,8.1597,8.3312,8.5297,8.5682,8.5281,8.4923,8.4721,8.4773,8.4603,8.4421,8.4617,8.4521,8.4623,8.4883,8.4574,8.4884,8.5057,8.5126,8.5123,8.5027,8.4706,8.4943,8.4957,8.493,8.5138,8.516,8.5192,8.536,8.5547,8.569,8.584,8.5944,8.6075,8.6153,8.6293,8.6324,8.6661,8.6962,8.7425,8.7298,8.7234,8.7182,8.7587,8.8092,8.8279,8.8586,8.8413,8.8303,8.8476,8.8838,8.9018,8.9258,8.9226,8.9261,8.9538,8.9511,8.9424,8.927,8.922,8.8741,8.8157,8.7575,8.7249,8.6917,8.6763,8.5987,8.571,8.5335,8.522,8.505,8.4323,8.3927,8.4201,8.4365,8.4067,8.4345,8.4024,8.3746,8.387,8.3991,8.3795,8.3691,8.3877,8.3841,8.4025,8.3514,8.3449,8.3936,8.4016,8.3623,8.3541,8.3471,8.367,8.3577,8.3466,8.3363,8.3781,8.4179,8.3418,8.3148,8.3076,8.3227,8.3125,8.303,8.3042,8.3061,8.3276,8.2993,8.2857,8.3174,8.3124,8.2764,8.2948,8.3185,8.3099,8.2783,8.2763,8.3089,8.3226,8.2899,8.3052,8.3211,8.3007,8.3301,8.3333,8.3253,8.362,8.4013,8.4343,8.4446,8.4656,8.4557,8.3846,8.3824,8.3814,8.3513,8.3246,8.3267,8.3074,8.2931,8.2996,8.305,8.2865,8.2605,8.2587,8.2597,8.2862,8.3121,8.2653,8.2522,8.2759,8.2807,8.2446,8.252,8.2596,8.2782,8.3183,8.3977,8.5674,8.778,8.9586,9.077,8.8033,8.6903,8.3325,8.0174,7.9893,8.1604,8.3919,8.3937,8.3988,8.3389,8.3322,8.3293,8.3526,8.3371,8.3657,8.3321,8.4025,8.3494,8.3597,8.3715,8.4162,8.389,8.3776,8.3697,8.3762,8.3971,8.3824,8.366,8.4022,8.4111,8.413,8.4384,8.4721,8.4956,8.49,8.4314,8.4705,8.4903,8.5283,8.5606,8.5506,8.5704,8.5871,8.5777,8.5976,8.6178,8.6382,8.6587,8.6976,8.7461,8.7126,8.711,8.7513,8.7812,8.7651,8.7688,8.7857,8.837,8.8224,8.8135,8.8209,8.8464,8.806,8.7746,8.6969,8.6745,8.64,8.6152,8.5709,8.5502,8.5308,8.4619,8.4523,8.4428,8.3811,8.3942,8.4196,8.4036,8.3749,8.3692,8.3744,8.4061,8.4127,8.386,8.3708,8.3666,8.4003,8.4239,8.3883,8.3745,8.4102,8.4179,8.4348,8.4155,8.3862,8.39,8.4212,8.4462,8.4376,8.3905,8.3809,8.403,8.3837,8.3771,8.3711,8.3682,8.4035,8.3909,8.3375,8.3977,8.394,8.3741,8.3708,8.3802,8.3605,8.3461,8.3606,8.3917,8.3943,8.3806,8.4077,8.4501,8.4105,8.4284,8.4672,8.4602,8.4737,8.4886,8.509,8.546,8.5197,8.4983,8.5135,8.4667,8.4347,8.4049,8.3882,8.4181,8.3998,8.3839,8.3829,8.3839,8.3885,8.3931,8.4018,8.3842,8.4047,8.4099,8.3631,8.3632,8.3894,8.4201,8.4343,8.3814,8.4018,8.4581,8.5531,8.7329,8.969,9.1742,9.2021,8.9249,8.769,8.3903,8.1483,8.2272,8.4552,8.542,8.5098,8.5059,8.4698,8.4737,8.4375,8.4971,8.4798,8.4645,8.4847,8.5132,8.5103,8.5171,8.5146,8.5583,8.5362,8.5286,8.4944,8.5426,8.5398,8.5527,8.564,8.6122,8.5777,8.5913,8.6021,8.5913,8.6092,8.6495,8.6592,8.6426,8.6681,8.7011,8.7237,8.7753,8.7805,8.7806,8.8072,8.8481,8.8662,8.8678,8.8936,8.9339,8.9789,8.935,8.9057,8.952,8.9783,9.0049,9.056,8.9987,9.0238,9.049,9.0582,9.059,9.0376,9.0128,8.9623,8.9129,8.8837,8.8786,8.8568,8.7884,8.7656,8.7343,8.6983,8.6726,8.6533,8.6207,8.6109,8.5973,8.619,8.6057,8.6283,8.6258,8.5724,8.5704,8.5735,8.5747,8.5646,8.5735,8.5926,8.5864,8.588,8.5817,8.5761,8.617,8.6214,8.5627,8.537,8.5328,8.5329,8.5674,8.553,8.5403,8.5282,8.5107,8.5217,8.5302,8.5047,8.486,8.5016,8.4929,8.4928,8.4949,8.4695,8.4409,8.4601,8.4515,8.461,8.4545,8.4591,8.4637,8.4752,8.4284,8.478,8.4682,8.5014,8.4958,8.5009,8.5022,8.5283,8.5404,8.5551,8.5687,8.5287,8.504,8.5213,8.4661,8.4652,8.4446,8.4217,8.3989,8.4111,8.4137,8.3888,8.3993,8.3876,8.3836,8.4102,8.3807,8.3724,8.3719,8.3503,8.3696,8.355,8.3767,8.3866,8.3735,8.3745,8.4356,8.5483,8.7209,8.9411,9.1336,9.1032,8.879,8.7476,8.4192,8.1851,8.2872,8.4942,8.5179,8.4864,8.519,8.4355,8.3965,8.3963,8.4047,8.4086,8.4511,8.4325,8.4042,8.431,8.4511,8.4224,8.465,8.4442,8.439,8.4437,8.4446,8.4415,8.4849,8.4797,8.4744,8.4662,8.5027,8.495,8.5201,8.543,8.571,8.5428,8.5817,8.5836,8.5859,8.6127,8.6466,8.6566,8.6906,8.6725,8.6916,8.7064,8.7565,8.7545,8.7719,8.8186,8.8104,8.8047,8.843,8.8624,8.8756,8.9138,8.8936,8.8915,8.8893,8.8875,8.8993,8.8415,8.8315,8.8115,8.7573,8.7217,8.6658,8.6424,8.6201,8.5878,8.5828,8.5135,8.4784,8.5019,8.4662,8.449,8.4493,8.449,8.4643,8.4886,8.4556,8.4276,8.4393,8.4489,8.4661,8.4769,8.489,8.4773,8.4765,8.4616,8.4493,8.4432,8.454,8.4822,8.454,8.4676,8.4743,8.469,8.452,8.483,8.4937,8.4937,8.4459,8.4374,8.475,8.4563,8.4347,8.4363,8.4338,8.4317,8.4355,8.4412,8.4268,8.4469,8.4512,8.4388,8.4394,8.4283,8.4214,8.4256,8.4422,8.4456,8.4199,8.4479,8.4399,8.4625,8.4648,8.4692,8.4735,8.4892,8.5257,8.5565,8.5654,8.5733,8.5988,8.6255,8.563,8.5365,8.5419,8.5581,8.5302,8.4842,8.4888,8.4746,8.4822,8.4764,8.4679,8.4674,8.4695,8.4675,8.4681,8.4948,8.486,8.4725,8.4632,8.4648,8.4922,8.5221,8.4962,8.4757,8.5311,8.5642,8.7184,8.9499,9.1507,9.317,9.089,8.9339,8.6921,8.4903,8.2956,8.3448,8.5851,8.5924,8.5787,8.5423,8.5666,8.5233,8.5285,8.5278,8.5596,8.5521,8.5596,8.5435,8.5604,8.602,8.6167,8.5549,8.554,8.5458,8.573,8.5767,8.597,8.5831,8.6027,8.6003,8.6403,8.659,8.6539,8.6742,8.677,8.671,8.6744,8.6944,8.7252,8.7198,8.7422,8.7672,8.7909,8.7904,8.7941,8.8187,8.8419,8.8556,8.9073,8.9248,8.8848,8.8995,8.9198,8.9548,8.9562,8.9739,8.9723,8.9673,9.0015,8.998,8.9608,8.969,8.9532,8.9033,8.8782,8.8399,8.8127,8.7801,8.7327,8.7033,8.6376,8.6021,8.5803,8.5715,8.5475,8.5064,8.4859,8.5066,8.4915,8.4886,8.4753,8.4987,8.4993,8.4827,8.5049,8.4528,8.4321,8.4431,8.4682,8.4868,8.4414,8.4197,8.4341,8.4307,8.4055,8.4037,8.4084,8.3959,8.3978,8.3838,8.386,8.3888,8.3867,8.4136,8.3715,8.3666,8.3569,8.3534,8.3619,8.3535,8.3559,8.3633,8.3442,8.383,8.3557,8.3446,8.347,8.3633,8.3619,8.3696,8.3745,8.3978,8.3919,8.3653,8.3867,8.385,8.3718,8.3993,8.4243,8.4299,8.4591,8.4546,8.4459,8.4764,8.5212,8.5396,8.5541,8.5621,8.5496,8.5297,8.5109,8.4912,8.4674,8.4374,8.4523,8.4567,8.4485,8.427,8.4071,8.4173,8.4315,8.443,8.43,8.4344,8.4396,8.4301,8.4312,8.4196,8.4233,8.4323,8.4616,8.4381,8.441,8.52,8.6345,8.8668,8.9925,9.1331,9.2231,8.9616,8.8821,8.5413,8.2745,8.2563,8.4927,8.58,8.5403,8.5454,8.4985,8.5018,8.4872,8.5303,8.4899,8.5142,8.5048,8.5259,8.5221,8.54,8.525,8.5419,8.5328,8.5491,8.5452,8.5596,8.542,8.5609,8.5982,8.6006,8.6055,8.6009,8.5856,8.585,8.598,8.63,8.6442,8.6558,8.645,8.6713,8.6689,8.6807,8.7136,8.7501,8.767,8.7748,8.7623,8.7943,8.8199,8.8347,8.8469,8.8773,8.8997,8.9014,8.9188,8.9605,8.9672,8.9408,8.9446,8.9638,8.9522,8.9479,8.9491,8.9251,8.8919,8.8396,8.8189,8.778,8.7337,8.6922,8.6532,8.6411,8.6228,8.5788,8.5776,8.5359,8.5324,8.5161,8.5277,8.552,8.576,8.557,8.5249,8.5311,8.5301,8.5223,8.5501,8.5708,8.53,8.5288,8.5779,8.5777,8.5888,8.5565,8.5236,8.5242,8.5354,8.5492,8.592,8.5716,8.5636,8.5408,8.5188,8.5294,8.5201,8.529,8.5464,8.5391,8.5767,8.5316,8.4864,8.5071,8.5087,8.5,8.5063,8.5202,8.5047,8.4995,8.5315,8.5117,8.4938,8.4919,8.5243,8.5231,8.5058,8.5129,8.4946,8.5218,8.5321,8.4978,8.5339,8.5643,8.5579,8.5718,8.5857,8.6134,8.6722,8.5959,8.5869,8.6559,8.6599,8.6047,8.5652,8.5561,8.5581,8.5619,8.52,8.5018,8.4802,8.4965,8.4974,8.4637,8.4604,8.4614,8.4884,8.4949,8.4645,8.4839,8.5097,8.4645,8.4203,8.4103,8.4292,8.4495,8.4492,8.4923,8.5829,8.7428,8.9104,9.1185,9.2404,9.0338,8.9636,8.6352,8.3378,8.2998,8.4919,8.5645,8.5503,8.5466,8.4688,8.4889,8.5039,8.5196,8.4784,8.5138,8.4889,8.4981,8.5016,8.508,8.5148,8.5329,8.4968,8.4901,8.4842,8.5418,8.5554,8.5542,8.5384,8.5769,8.5237,8.5606,8.5884,8.5967,8.5829,8.6115,8.607,8.6383,8.6367,8.6437,8.6591,8.6994,8.7103,8.734,8.7221,8.7368,8.7761,8.845,8.8138,8.8047,8.8293,8.8615,8.8534,8.8788,8.9044,8.895,8.8787,8.9589,8.9548,8.8938,8.927,8.9388,8.9219,8.9042,8.8566,8.8241,8.756,8.7424,8.7249,8.6945,8.6541,8.5926,8.5651,8.5088,8.4992,8.5034,8.4981,8.5023,8.5664,8.5112,8.4768,8.4712,8.4445,8.4611,8.4758,8.4733,8.4941,8.5056,8.5129,8.4913,8.4493,8.4727,8.5102,8.4867,8.4719,8.5023,8.5261,8.4643,8.4987,8.4796,8.478,8.4843,8.5059,8.4892,8.4936,8.4805,8.5089,8.4808,8.4845,8.478,8.5103,8.5099,8.4787,8.4761,8.4678,8.4535,8.4927,8.4828,8.4912,8.5136,8.4882,8.4909,8.4655,8.4837,8.4905,8.4629,8.4849,8.493,8.5274,8.4776,8.5047,8.5497,8.5259,8.5376,8.5143,8.5357,8.5835,8.5952,8.6235,8.6228,8.5973,8.5897,8.5904,8.5685,8.5863,8.5499,8.5161,8.5116,8.4917,8.4869,8.4845,8.4531,8.4512,8.4577,8.5065,8.4478,8.4324,8.4681,8.4823,8.4679,8.4735,8.4854,8.493,8.4838,8.457,8.466,8.5345,8.6709,8.8844,9.0858,9.2721,9.2107,9.0043,8.8185,8.5836,8.3197,8.2768,8.53,8.6241,8.6165,8.5901,8.5781,8.57,8.6288,8.6154,8.5512,8.5405,8.553,8.5933,8.6387,8.6088,8.5906,8.6336,8.6577,8.6562,8.6392,8.6487,8.6466,8.5994,8.6236,8.643,8.6677,8.6776,8.6796,8.6783,8.7036,8.7464,8.7656,8.7437,8.7757,8.7707,8.7746,8.7925,8.809,8.8278,8.8432,8.8423,8.8587,8.8819,8.9175,8.9329,8.9438,8.9471,8.9662,8.9769,9.0205,8.9841,9.0123,9.029,9.0149,9.0124,9.0304,9.033,8.9702,8.9445,8.9335,8.9278,8.9032,8.8143,8.7547,8.7247,8.6976,8.6914,8.6547,8.5869,8.5812,8.5542,8.5398,8.5531,8.5673,8.5623,8.5562,8.5577,8.5211,8.5216,8.5273,8.5125,8.5055,8.507,8.5529,8.526,8.5423,8.5337,8.5352,8.565,8.5181,8.4832,8.4927,8.5266,8.5199,8.5159,8.5086,8.4828,8.4771,8.4851,8.4864,8.4751,8.5107,8.5039,8.4484,8.4341,8.4277,8.4233,8.4309,8.4381,8.4034,8.4053,8.4047,8.4146,8.4063,8.43,8.3885,8.4083,8.4175,8.4045,8.415,8.3863,8.3937,8.4189,8.4361,8.4329,8.4334,8.4587,8.4899,8.4767,8.5289,8.5476,8.5354,8.5102,8.4966,8.5118,8.442,8.3931,8.4004,8.4295,8.3895,8.3727,8.3793,8.3901,8.3755,8.3571,8.3428,8.3442,8.3515,8.3213,8.325,8.3539,8.3561,8.3674,8.3544,8.3079,8.3368,8.3777,8.4573,8.548,8.7279,8.8691,9.0493,9.1302,8.8217,8.7217,8.3674,8.0811,8.1003,8.3883,8.495,8.4348,8.3961,8.3626,8.3841,8.3584,8.3875,8.3722,8.3961,8.3921,8.4245,8.4021,8.4117,8.3956,8.4514,8.4297,8.3795,8.3872,8.397,8.3977,8.4277,8.4268,8.4386,8.4455,8.4376,8.4033,8.4517,8.5201,8.4624,8.4395,8.4892,8.4969,8.5048,8.5245,8.5277,8.5554,8.5959,8.5694,8.5832,8.5983,8.6111,8.6165,8.672,8.6816,8.6752,8.6951,8.7438,8.7295,8.7068,8.7214,8.7649,8.7605,8.7601,8.7677,8.7419,8.7336,8.7265,8.6833,8.6261,8.5973,8.5784,8.5549,8.4895,8.4459,8.3988,8.3779,8.3722,8.3728,8.3299,8.3176,8.3368,8.3321,8.3482,8.3708,8.3968,8.3468,8.2782,8.2905,8.3412,8.3835,8.3503,8.3737,8.3565,8.42,8.4139,8.4084,8.3772,8.3908,8.3623,8.3882,8.4083,8.4021,8.4272,8.4352,8.3769,8.3736,8.3779,8.3945,8.4263,8.4211,8.3579,8.3463,8.4085,8.4232,8.3609,8.3414,8.3752,8.425,8.3883,8.3175,8.3513,8.3976,8.4256,8.3993,8.4149,8.4326,8.4567,8.4526,8.4756,8.5033,8.5318,8.5404,8.5244,8.5409,8.5188,8.4619,8.4478,8.458,8.4467,8.4331,8.4306,8.3983,8.4247,8.4376,8.4228,8.3865,8.3653,8.3993,8.4549,8.4489,8.4126,8.3767,8.3941,8.4431,8.463,8.4003,8.4546,8.4554,8.4731,8.6321,8.8125,9.0352,9.2108,9.1179,8.9631,8.8544,8.4334,8.1539,8.1566,8.4756,8.5756,8.5617,8.5353,8.5265,8.5759,8.5128,8.5078,8.5129,8.506,8.5334,8.5214,8.5301,8.5566,8.5536,8.5822,8.569,8.5937,8.5696,8.571,8.6046,8.5949,8.5936,8.6178,8.6183,8.6155,8.6459,8.7022,8.6363,8.6645,8.6523,8.6845,8.7091,8.7414,8.7454,8.7692,8.7712,8.7752,8.7894,8.8504,8.8255,8.8468,8.8909,8.9274,8.9172,8.9022,8.9423,8.9996,9.0119,8.9964,8.9819,8.9866,9.0023,8.9978,9.0122,9.001,8.9912,8.9361,8.899,8.884,8.8693,8.7832,8.7575,8.7879,8.7106,8.6479,8.6215,8.5969,8.5847,8.5505,8.561,8.5984,8.5883,8.5954,8.6092,8.5364,8.5386,8.5302,8.5561,8.5897,8.5604,8.5551,8.58,8.5807,8.5788,8.5743,8.5867,8.5655,8.5749,8.6138,8.6356,8.6142,8.5962,8.5956,8.6233,8.5937,8.5883,8.5795,8.5899,8.6195,8.5674,8.5907,8.5931,8.5593,8.5715,8.5266,8.5421,8.5721,8.5906,8.5504,8.5314,8.5259,8.5327,8.5551,8.58,8.5664,8.6017,8.6132,8.6198,8.6328,8.6133,8.6844,8.6991,8.6536,8.6403,8.6229,8.6378,8.6135,8.5571,8.5303,8.5327,8.5435,8.5452,8.5019,8.5048,8.4975,8.5091,8.5174,8.503,8.5032,8.4908,8.5188,8.4836,8.4976,8.5114,8.5312,8.4885,8.4935,8.5089,8.5505,8.6714,8.8895,9.1077,9.3335,9.2382,9.0897,8.847,8.4571,8.3542,8.3591,8.5485,8.6238,8.6346,8.5737,8.5199,8.5529,8.5575,8.5537,8.5333,8.5413,8.5528,8.5915,8.5372,8.5409,8.5298,8.5494,8.5737,8.5645,8.5563,8.5536,8.5505,8.5891,8.586,8.5933,8.589,8.6197,8.6451,8.6174,8.6157,8.6357,8.6293,8.62,8.6604,8.6897,8.7039,8.7181,8.7362,8.752,8.7539,8.7372,8.7936,8.8153,8.8266,8.8447,8.8514,8.8392,8.8922,8.9143,8.907,8.908,8.9211,8.9258,8.9565,8.9226,8.9004,8.9104,8.876,8.8177,8.7765,8.7606,8.7256,8.6998,8.6732,8.6054,8.5999,8.5532,8.5137,8.4982,8.5037,8.4652,8.4581,8.4734,8.4577,8.4073,8.418,8.4311,8.4513,8.4646,8.4259,8.4173,8.4065,8.4346,8.46,8.4288,8.4293,8.4495,8.5089,8.4536,8.407,8.4428,8.4401,8.4534,8.4254,8.4662,8.4877,8.4411,8.3941,8.3857,8.4071,8.4231,8.4177,8.4303,8.4361,8.42,8.3988,8.3894,8.3741,8.3785,8.4439,8.4718,8.369,8.3947,8.41,8.404,8.3962,8.4255,8.4564,8.5265,8.4995,8.456,8.4584,8.506,8.5057,8.4963,8.4602,8.4204,8.4344,8.4238,8.4253,8.3879,8.3875,8.4076,8.3588,8.3036,8.3626,8.3443,8.353,8.3551,8.3677,8.3488,8.357,8.3537,8.3256,8.3648,8.3908,8.3423,8.3257,8.3811,8.4968,8.6558,8.8137,9.0273,9.171,8.9845,8.8658,8.5192,8.2694,8.1621,8.3572,8.5225,8.4704,8.4471,8.4055,8.4429,8.4029,8.4127,8.3979,8.4062,8.435,8.4303,8.397,8.4329,8.4158,8.449,8.4476,8.4905,8.4401,8.4496,8.4382,8.4657,8.4224,8.443,8.4637,8.5423,8.5027,8.4918,8.5309,8.5769,8.5008,8.5445,8.5715,8.5946,8.6328,8.6261,8.6544,8.6707,8.6775,8.6961,8.6963,8.7296,8.7625,8.7506,8.7764,8.7786,8.8384,8.8575,8.8612,8.891,8.8881,8.8643,8.891,8.9112,8.9231,8.8719,8.8278,8.8113,8.7889,8.7407,8.7007,8.6512,8.6498,8.5994,8.594,8.5304,8.51,8.5013,8.4955,8.4593,8.4463,8.432,8.4492,8.4344,8.4252,8.4252,8.421,8.4304,8.4552,8.4875,8.4442,8.4192,8.4313,8.4447,8.4339,8.4514,8.4938,8.4984,8.5033,8.4675,8.4525,8.4852,8.4786,8.4438,8.4622,8.4893,8.4986,8.4769,8.4856,8.4973,8.5287,8.4728,8.4428,8.4438,8.4522,8.4846,8.5065,8.4599,8.4661,8.462,8.445,8.4534,8.4513,8.4566,8.4592,8.4771,8.5215,8.459,8.4313,8.4761,8.4973,8.5632,8.5366,8.5295,8.5367,8.5629,8.5735,8.5706,8.6001,8.5986,8.5557,8.5607,8.5509,8.5129,8.4908,8.4878,8.4512,8.4552,8.4495,8.4747,8.499,8.4446,8.4364,8.4036,8.4374,8.4418,8.4302,8.4295,8.4424,8.4347,8.4257,8.4521,8.4351,8.4443,8.4925,8.5865,8.7294,8.9548,9.1363,9.2688,8.9878,8.8397,8.5288,8.2416,8.2685,8.4024,8.562,8.535,8.5423,8.4975,8.5018,8.4658,8.4642,8.4637,8.4792,8.4678,8.4752,8.4837,8.5048,8.5136,8.5145,8.5373,8.517,8.4988,8.5,8.4769,8.4953,8.5112,8.5194,8.5232,8.541,8.5153,8.5392,8.5287,8.5651,8.5945,8.6113,8.5973,8.62,8.6255,8.6568,8.6465,8.6946,8.6873,8.7094,8.7229,8.7114,8.7378,8.7529,8.8173,8.8286,8.8086,8.8408,8.8929,8.8398,8.8666,8.8879,8.9004,8.9318,8.934,8.9055,8.912,8.845,8.7969,8.7747,8.7196,8.7086,8.6838,8.6778,8.6178,8.5323,8.508,8.5144,8.5123,8.4508,8.4468,8.4774,8.5036,8.4537,8.4373,8.4455,8.4575,8.4633,8.4793,8.4724,8.4737,8.464,8.4648,8.4604,8.4563,8.4597,8.4849,8.5041,8.515,8.486,8.4665,8.4697,8.4884,8.4902,8.5033,8.4759,8.4699,8.4798,8.5053,8.4932,8.4821,8.4797,8.5018,8.49,8.4656,8.4407,8.4399,8.4833,8.4844,8.4546,8.4494,8.449,8.4571,8.4786,8.4705,8.4556,8.4548,8.4563,8.4616,8.4709,8.4732,8.5004,8.485,8.4614,8.4421,8.4683,8.4865,8.4541,8.4654,8.4909,8.5071,8.5145,8.5231,8.5295,8.5556,8.5748,8.5849,8.587,8.6076,8.5753,8.5728,8.5507,8.5222,8.5063,8.5062,8.4857,8.4567,8.4612,8.4557,8.4484,8.4674,8.444,8.4354,8.4455,8.4404,8.4311,8.4359,8.4284,8.4288,8.4517,8.4427,8.4234,8.4329,8.4669,8.4688,8.5179,8.6869,8.9337,9.0958,9.2441,9.0406,8.9298,8.626,8.3531,8.3082,8.5299,8.6311,8.5393,8.5045,8.4994,8.4958,8.4345,8.4516,8.4313,8.4594,8.452,8.4805,8.4574,8.4717,8.4778,8.5002,8.4368,8.4778,8.4222,8.4262,8.4329,8.4134,8.4098,8.4482,8.4394,8.4387,8.4833,8.5028,8.5294,8.5334,8.5133,8.5301,8.5495,8.5825,8.5876,8.5881,8.6008,8.6226,8.6504,8.6654,8.6851,8.7191,8.7514,8.7864,8.8027,8.7778,8.8016,8.8513,8.8419,8.8521,8.8574,8.8573,8.8796,8.8772,8.9053,8.9064,8.8897,8.8568,8.8341,8.7987,8.7705,8.7253,8.6834,8.6493,8.6079,8.5505,8.5645,8.4997,8.4517,8.4715,8.4875,8.4711,8.468,8.4332,8.4279,8.4384,8.4351,8.4246,8.4427,8.4617,8.4667,8.442,8.4491,8.4437,8.4585,8.4461,8.4208,8.4458,8.4706,8.4495,8.447,8.4502,8.4673,8.4397,8.4394,8.4177,8.4324,8.421,8.4158,8.4247,8.4229,8.4118,8.4231,8.3908,8.4105,8.3825,8.3819,8.3827,8.3791,8.3907,8.3829,8.3992,8.4277,8.3845,8.3629,8.3498,8.3841,8.3939,8.3677,8.3814,8.3874,8.3889,8.3606,8.385,8.3873,8.3958,8.389,8.402,8.4128,8.4371,8.4266,8.4423,8.4234,8.4157,8.4517,8.4942,8.5277,8.5273,8.5535,8.5253,8.5163,8.4568,8.4417,8.476,8.4448,8.4298,8.4237,8.4124,8.3815,8.4095,8.3837,8.3977,8.4057,8.4264,8.4139,8.404,8.4108,8.4191,8.3793,8.3935,8.4127,8.4276,8.3855,8.4168,8.4444,8.5375,8.6978,8.9333,9.1553,9.2512,8.9349,8.8551,8.7351,8.3033,8.091,8.3069,8.5592,8.5723,8.5426,8.4919,8.4624,8.4687,8.4759,8.4692,8.53,8.4865,8.4751,8.486,8.5128,8.5368,8.5538,8.5049,8.514,8.4927,8.5315,8.5223,8.527,8.5313,8.5483,8.5755,8.596,8.5581,8.5966,8.578,8.5748,8.6118,8.6099,8.6399,8.6518,8.6708,8.6925,8.6919,8.699,8.7329,8.7399,8.7556,8.7803,8.8103,8.8301,8.8264,8.839,8.8741,8.8773,8.8755,8.9093,8.9217,8.9048,8.9476,8.9424,8.9069,8.9376,8.9306,8.927,8.9056,8.8341,8.8125,8.7766,8.7368,8.6405,8.6311,8.6261,8.5899,8.5472,8.5354,8.5334,8.5199,8.5217,8.5101,8.494,8.4763,8.4735,8.4856,8.4749,8.4521,8.4685,8.4913,8.4651,8.4928,8.4802,8.508,8.5043,8.4703,8.5347,8.5664,8.5054,8.4593,8.4904,8.5015,8.5131,8.4798,8.4901,8.4781,8.477,8.4886,8.4775,8.453,8.4624,8.5026,8.4736,8.4394,8.4342,8.4493,8.4408,8.4387,8.4677,8.4684,8.458,8.4551,8.4424,8.4309,8.4456,8.435,8.4315,8.4277,8.433,8.4263,8.4322,8.4265,8.432,8.4715,8.4609,8.4515,8.4956,8.5057,8.5282,8.5525,8.5588,8.5513,8.5648,8.5766,8.506,8.4871,8.4808,8.4698,8.4607,8.4425,8.4471,8.4467,8.416,8.4109,8.3871,8.3922,8.3783,8.4032,8.375,8.3793,8.3977,8.4067,8.3988,8.3835,8.3866,8.3948,8.3763,8.4041,8.4397,8.5127,8.6485,8.8421,9.0715,9.2376,8.9606,8.8643,8.5735,8.2217,8.1246,8.3827,8.51,8.4524,8.493,8.4083,8.4557,8.4114,8.4377,8.3922,8.4207,8.3909,8.4283,8.4384,8.4554,8.3915,8.4151,8.4249,8.4717,8.4267,8.4721,8.4282,8.473,8.4529,8.4777,8.4443,8.4422,8.4709,8.5022,8.5111,8.5427,8.5397,8.5045,8.5204,8.5639,8.5677,8.5754,8.6056,8.5912,8.6257,8.6394,8.6564,8.6705,8.7167,8.7422,8.7767,8.7867,8.7859,8.7916,8.7876,8.7584,8.7937,8.8155,8.8155,8.8054,8.8152,8.8106,8.8087,8.7806,8.7721,8.7487,8.6973,8.6506,8.5624,8.5179,8.5162,8.4898,8.4601,8.4221,8.3972,8.3841,8.3897,8.3643,8.3706,8.3708,8.391,8.3602,8.398,8.4034,8.4067,8.3466,8.3457,8.3348,8.3628,8.3651,8.3717,8.3886,8.3741,8.3738,8.37,8.3835,8.3943,8.3972,8.4109,8.384,8.391,8.3733,8.3694,8.4001,8.3838,8.3748,8.3476,8.3476,8.3799,8.3687,8.3548,8.3501,8.3666,8.3526,8.3402,8.3508,8.3421,8.3253,8.3242,8.3497,8.3505,8.3292,8.3487,8.3451,8.3268,8.345,8.3375,8.3814,8.3771,8.3707,8.3769,8.3952,8.3864,8.4195,8.4476,8.4484,8.4771,8.4852,8.4688,8.4242,8.4477,8.4306,8.4008,8.3763,8.3806,8.3669,8.3506,8.3196,8.3169,8.3337,8.3656,8.3315,8.3153,8.3074,8.3426,8.355,8.3065,8.3134,8.3102,8.3274,8.315,8.3295,8.3132,8.3418,8.4452,8.5918,8.8048,9.0057,9.1274,8.9338,8.8271,8.5523,8.2483,8.1634,8.3514,8.479,8.4518,8.4154,8.3895,8.4031,8.3704,8.3942,8.3968,8.4084,8.3869,8.4112,8.399,8.4186,8.407,8.4463,8.4172,8.4156,8.4088,8.4341,8.4471,8.4389,8.426,8.4508,8.4582,8.4901,8.473,8.4796,8.5123,8.5435,8.521,8.5494,8.5621,8.568,8.5919,8.6152,8.6192,8.6605,8.6633,8.671,8.6949,8.7164,8.7464,8.7869,8.806,8.8079,8.8193,8.8461,8.8281,8.8706,8.879,8.902,8.9065,8.9323,8.8773,8.8731,8.8933,8.8775,8.8409,8.7843,8.7449,8.6871,8.6439,8.6129,8.5745,8.5589,8.5436,8.5085,8.4882,8.5115,8.4654,8.4116,8.4317,8.4026,8.4173,8.4297,8.4316,8.4431,8.4269,8.4167,8.44,8.4469,8.4417,8.4297,8.4463,8.4735,8.4914,8.4339,8.4371,8.4223,8.4572,8.4441,8.4698,8.4553,8.4575,8.4973,8.46,8.4123,8.4241,8.4378,8.4519,8.4296,8.465,8.4397,8.4715,8.4646,8.4592,8.4345,8.4565,8.4515,8.4326,8.436,8.4144,8.4312,8.4257,8.4479,8.4616,8.4325,8.4243,8.438,8.4652,8.4655,8.4755,8.4313,8.4316,8.4381,8.4408,8.4415,8.4592,8.5186,8.4851,8.5047,8.4931,8.4948,8.5164,8.5322,8.6036,8.6189,8.5777,8.5195,8.5308,8.5501,8.4829,8.4308,8.4392,8.4406,8.4437,8.4327,8.4236,8.4498,8.4139,8.4326,8.4057,8.3678,8.3952,8.4175,8.4052,8.4024,8.4259,8.4056,8.4214,8.3922,8.3965,8.4328,8.4869,8.6514,8.8447,8.9802,9.1838,9.1359,8.861,8.7547,8.4243,8.1965,8.2817,8.4837,8.5395,8.5045,8.4977,8.4668,8.4617,8.442,8.4468,8.4764,8.472,8.4502,8.4492,8.4647,8.4848,8.4901,8.4892,8.5095,8.5298,8.5456,8.5365,8.4702,8.4976,8.5289,8.5434,8.5196,8.5432,8.5896,8.5881,8.5875,8.6306,8.5914,8.5961,8.6438,8.6466,8.6991,8.6813,8.7285,8.7637,8.7036,8.7421,8.807,8.7964,8.8075,8.8407,8.8782,8.8818,8.9013,8.9209,8.9598,8.9376,8.9473,8.9549,8.9994,8.9908,8.9484,8.97,9.003,8.936,8.8794,8.8575,8.8163,8.771,8.7442,8.7032,8.6658,8.6298,8.5898,8.5735,8.5474,8.5108,8.5148,8.5263,8.5191,8.5172,8.5081,8.513,8.5207,8.4975,8.4797,8.4848,8.5027,8.5264,8.5151,8.4686,8.503,8.527,8.5031,8.4988,8.5127,8.4998,8.5218,8.5444,8.5039,8.5365,8.517,8.4827,8.5017,8.5208,8.5196,8.4794,8.4715,8.5009,8.4894,8.455,8.4675,8.4888,8.4543,8.4883,8.5002,8.4565,8.4515,8.4595,8.4714,8.4756,8.4769,8.4862,8.4746,8.4474,8.447,8.4515,8.463,8.4915,8.4498,8.4383,8.4579,8.4582,8.4801,8.4996,8.4615,8.4614,8.4504,8.4645,8.4898,8.4993,8.524,8.5129,8.4744,8.5041,8.5434,8.5683,8.6145,8.6194,8.6248,8.5551,8.5263,8.5372,8.5019,8.4994,8.5026,8.4617,8.4311,8.4452,8.4527,8.4369,8.4359,8.4397,8.4117,8.425,8.4341,8.4051,8.4247,8.3947,8.3942,8.3898,8.4045,8.4059,8.395,8.4452,8.5467,8.6803,8.8882,9.0649,9.2234,8.9806,8.8545,8.7543,8.3532,8.1965,8.3274,8.4962,8.5044,8.5075,8.4535,8.4591,8.4545,8.4309,8.4424,8.4652,8.4529,8.4677,8.4578,8.4699,8.4761,8.5043,8.5036,8.4999,8.456,8.4633,8.4523,8.4588,8.4911,8.5108,8.5096,8.5217,8.5393,8.5443,8.5354,8.5516,8.5978,8.6325,8.5707,8.5735,8.5816,8.6275,8.6535,8.6906,8.693,8.7021,8.7229,8.7415,8.7361,8.7499,8.789,8.8143,8.8013,8.8188,8.8415,8.8213,8.8528,8.8841,8.898,8.8536,8.8875,8.9032,8.9016,8.8715,8.8564,8.8111,8.7972,8.7459,8.7149,8.6697,8.6019,8.5558,8.5594,8.5407,8.4601,8.4205,8.4185,8.4155,8.4056,8.4211,8.4172,8.431,8.4606,8.3678,8.3378,8.3657,8.3499,8.3642,8.3814,8.3926,8.3981,8.3611,8.333,8.3361,8.3556,8.3507,8.3274,8.3422,8.3603,8.3467,8.347,8.3327,8.2959,8.3277,8.3358,8.3164,8.2768,8.2553,8.2734,8.2997,8.2785,8.2784,8.2621,8.2841,8.2992,8.2571,8.2631,8.2924,8.2965,8.2951,8.2673,8.2765,8.2842,8.2884,8.2565,8.2649,8.2885,8.2777,8.2686,8.2653,8.2924,8.281,8.3088,8.339,8.342,8.2848,8.2876,8.3122,8.3268,8.3327,8.3701,8.3557,8.3759,8.3623,8.4009,8.4268,8.4767,8.4657,8.4437,8.4787,8.4879,8.4566,8.4475,8.4371,8.4106,8.4085,8.3625,8.358,8.3647,8.3786,8.3962,8.3496,8.3561,8.3688,8.3532,8.3378,8.3509,8.3506,8.3638,8.3853,8.3504,8.3836,8.3929,8.3624,8.3653,8.4284,8.5534,8.7454,8.9925,9.1755,9.0636,8.8293,8.6433,8.2508,8.0796,8.2845,8.4245,8.4589,8.5004,8.4531,8.4408,8.4578,8.4387,8.4338,8.4226,8.4525,8.4899,8.4738,8.4856,8.4679,8.4389,8.46,8.4854,8.4949,8.4979,8.4902,8.5023,8.5231,8.5095,8.5069,8.5013,8.5324,8.5801,8.6077,8.5646,8.571,8.5591,8.5913,8.612,8.656,8.6819,8.6465,8.6642,8.7016,8.7384,8.7525,8.7541,8.7601,8.8033,8.8304,8.8021,8.8273,8.8399,8.8524,8.8986,8.8954,8.8912,8.9174,8.9099,8.9236,8.9203,8.9394,8.9334,8.917,8.8537,8.8375,8.822,8.7708,8.726,8.6917,8.6519,8.6125,8.5794,8.5326,8.5311,8.5218,8.5045,8.4884,8.4956,8.5055,8.5198,8.4819,8.4874,8.5189,8.4882,8.4626,8.4616,8.4628,8.4926,8.5275,8.5014,8.4698,8.4711,8.4822,8.4709,8.4835,8.4995,8.5213,8.5141,8.4726,8.4558,8.4723,8.501,8.4571,8.4361,8.4201,8.4411,8.4325,8.4269,8.4511,8.4593,8.4284,8.4254,8.4361,8.4459,8.4339,8.4197,8.4446,8.4803,8.4458,8.4094,8.407,8.4297,8.4214,8.4154,8.4251,8.4202,8.4343,8.4459,8.4517,8.4712,8.477,8.4751,8.4899,8.5048,8.538,8.548,8.5614,8.5764,8.5696,8.5707,8.5307,8.4685,8.5015,8.4674,8.4623,8.4488,8.4548,8.4348,8.4227,8.4285,8.4486,8.4283,8.4565,8.43,8.441,8.4357,8.4168,8.4166,8.4261,8.4325,8.4531,8.4305,8.4424,8.4725,8.5533,8.749,8.9762,9.1839,9.2459,9.0285,8.8993,8.6307,8.2565,8.1328,8.4119,8.5655,8.5175,8.5786,8.5166,8.5054,8.4823,8.5087,8.4753,8.5157,8.5179,8.5016,8.4929,8.5137,8.5133,8.5497,8.5534,8.5568,8.5463,8.5601,8.5622,8.5662,8.5169,8.4973,8.5358,8.5767,8.5825,8.5959,8.6151,8.6217,8.6099,8.644,8.6609,8.6786,8.7303,8.7463,8.7548,8.7281,8.7116,8.7274,8.7814,8.7964,8.7896,8.8241,8.8435,8.8693,8.8647,8.8811,8.8935,8.8964,8.944,8.9478,8.93,8.9325,8.9341,8.9176,8.8622,8.86,8.8472,8.8401,8.7832,8.7362,8.6959,8.681,8.6377,8.6305,8.5845,8.5207,8.4742,8.4687,8.4657,8.4784,8.475,8.4474,8.4486,8.4431,8.4756,8.4808,8.4567,8.413,8.427,8.4434,8.4416,8.4826,8.4926,8.4184,8.4357,8.4459,8.4401,8.4592,8.4539,8.4569,8.4553,8.4763,8.4803,8.441,8.4399,8.4164,8.4432,8.4405,8.4737,8.4875,8.4181,8.4319,8.4463,8.4364,8.4146,8.4149,8.4184,8.4263,8.4236,8.3903,8.4273,8.4314,8.4099,8.4053,8.4014,8.4476,8.4634,8.4657,8.5088,8.4722,8.4726,8.4744,8.5247,8.5376,8.5657,8.5596,8.4974,8.4638,8.4724,8.4239,8.4073,8.4138,8.3964,8.3945,8.3833,8.3812,8.3962,8.37,8.3788,8.3602,8.3214,8.3553,8.3747,8.356,8.3527,8.3742,8.4085,8.3507,8.3444,8.3732,8.3996,8.5443,8.7545,8.997,9.1876,9.1931,8.9618,8.8355,8.5156,8.2379,8.214,8.4425,8.5076,8.4441,8.4002,8.3791,8.3905,8.3909,8.3997,8.3907,8.4042,8.416,8.4256,8.408,8.4096,8.3962,8.3942,8.3947,8.4514,8.4537,8.4297,8.3934,8.3949,8.4125,8.4359,8.4444,8.453,8.4855,8.4948,8.4898,8.5,8.4994,8.5458,8.5145,8.5561,8.5556,8.553,8.5885,8.6374,8.6275,8.6238,8.6566,8.6774,8.6879,8.7204,8.7624,8.7615,8.7509,8.783,8.7969,8.8071,8.822,8.8192,8.8198,8.8258,8.8327,8.8373,8.8302,8.7918,8.7392,8.6961,8.6522,8.6204,8.5727,8.5282,8.4902,8.4708,8.4451,8.4333,8.4045,8.4012,8.4129,8.3496,8.3528,8.3604,8.3691,8.3847,8.4179,8.3799,8.3545,8.3267,8.3342,8.3429,8.3695,8.4006,8.387,8.3731,8.3741,8.3974,8.3608,8.3821,8.3942,8.3807,8.3956,8.4247,8.4103,8.3804,8.4001,8.3646,8.3364,8.3542,8.3627,8.3506,8.3636,8.3411,8.35,8.3527,8.3703,8.3475,8.3544,8.352,8.3422,8.3562,8.3781,8.4054,8.4105,8.4223,8.4336,8.4268,8.4446,8.4518,8.445,8.4834,8.4937,8.461,8.4599,8.422,8.4186,8.4121,8.388,8.3588,8.369,8.3556,8.3701,8.3405,8.3423,8.3316,8.3163,8.3109,8.3297,8.3399,8.3454,8.3276,8.3415,8.3358,8.3135,8.3268,8.3167,8.3678,8.4238,8.541,8.7574,8.9773,9.1472,9.013,8.8233,8.6544,8.4452,8.2156,8.1687,8.412,8.4806,8.4549,8.415,8.41,8.4016,8.4084,8.4217,8.4057,8.3967,8.4055,8.4447,8.4487,8.4494,8.4539,8.4592,8.4804,8.4874,8.5088,8.4949,8.5007,8.487,8.5245,8.5301,8.546,8.5423,8.5607,8.5874,8.5937,8.6088,8.6255,8.6301,8.6746,8.6882,8.6909,8.6927,8.7217,8.7287,8.7474,8.7876,8.7992,8.8173,8.824,8.8501,8.8582,8.8857,8.9151,8.9167,8.9472,8.947,8.9566,8.9567,8.9868,8.954,8.9577,8.9495,8.9171,8.8889,8.875,8.8325,8.8098,8.761,8.7065,8.6681,8.6554,8.6228,8.5788,8.5583,8.5048,8.4925,8.4903,8.4943,8.507,8.4961,8.4885,8.4709,8.4479,8.4763,8.4824,8.4785,8.4525,8.4603,8.4592,8.4507,8.4033,8.4274,8.4314,8.4167,8.425,8.419,8.4179,8.4139,8.3843,8.3918,8.4175,8.3965,8.3478,8.3467,8.351,8.3576,8.3661,8.3467,8.3437,8.329,8.3408,8.3447,8.3237,8.3525,8.3547,8.3219,8.3263,8.326,8.3276,8.3111,8.3492,8.3631,8.3608,8.354,8.3709,8.3825,8.4018,8.4134,8.4189,8.4546,8.4847,8.4664,8.4143,8.4097,8.4133,8.3858,8.3328,8.3342,8.3389,8.3444,8.3253,8.3753,8.3254,8.3202,8.3259,8.296,8.3078,8.3334,8.3158,8.3369,8.3318,8.3317,8.3151,8.3196,8.3219,8.3361,8.4111,8.4835
