1.7984,1.7943,1.8065,1.8151,1.8293,1.82,1.8127,1.8228,1.8281,1.8338,1.8294,1.8084,1.816,1.8288,1.8317,1.8329,1.8218,1.8244,1.8374,1.8331,1.8286,1.8025,1.8371,1.8394,1.8045,1.7893,1.839,1.8384,1.8672,1.8558,1.8477,1.8621,1.8865,1.9017,1.8398,1.8569,1.8452,1.8723,1.8492,1.8807,1.8749,1.8906,1.882,1.9004,1.8966,1.9099,1.9115,1.9102,1.8977,1.9161,1.9154,1.9232,1.8989,1.8951,1.9013,1.8835,1.8738,1.8644,1.8506,1.862,1.8472,1.8427,1.849,1.8601,1.855,1.852,1.8367,1.8225,1.8284,1.8357,1.8449,1.8397,1.8231,1.8135,1.8348,1.8305,1.8455,1.8323,1.8199,1.8085,1.8224,1.8448,1.8252,1.82,1.8172,1.8176,1.8311,1.8265,1.8012,1.8159,1.8237,1.8165,1.8299,1.8292,1.8048,1.8257,1.8196,1.8081,1.8175,1.8166,1.8228,1.8095,1.7912,1.796,1.801,1.8233,1.814,1.8272,1.8032,1.8251,1.8338,1.8213,1.8242,1.7869,1.7864,1.7884,1.7847,1.8077,1.8098,1.7844,1.8084,1.812,1.8147,1.81,1.7966,1.8037,1.8243,1.8077,1.8015,1.8049,1.7997,1.8307,1.8088,1.791,1.7897,1.8072,1.8317,1.8083,1.8176,1.8142,1.7993,1.8263,1.809,1.8263,1.8361,1.8532,1.8546,1.8399,1.8634,1.8773,1.8748,1.8833,1.9028,1.8798,1.8754,1.8577,1.866,1.8461,1.797,1.7937,1.7868,1.7948,1.7964,1.8018,1.8345,1.829,1.8427,1.8737,1.8579,1.797,1.8388,1.8327,1.8409,1.8443,1.78,1.6687,1.5766,1.5608,1.6083,1.7405,2.0858,2.5808,2.9195,3.0551,3.2057,3.3784,2.9983,2.3443,1.7964,1.509,1.3828,1.3022,1.3355,1.409,1.4928,1.6173,1.7461,1.8016,1.8102,1.8022,1.8047,1.8293,1.8523,1.8289,1.8263,1.8217,1.8413,1.8112,1.8425,1.8754,1.8909,1.8794,1.9361,2.0078,2.0563,2.058,2.0698,2.0552,2.0839,2.0872,2.0722,2.0479,2.0607,2.0574,2.0591,2.063,2.0325,2.0144,2.0171,2.004,2.0006,2.0395,2.0438,2.0458,2.053,2.051,2.0649,2.0555,2.0295,2.0305,2.0369,2.0542,2.04,2.0405,2.0272,2.0317,2.013,2.0752,2.0572,2.0774,2.0889,2.1145,2.0939,2.0985,2.0986,2.0857,2.0686,2.0643,2.0956,2.0837,2.0868,2.0857,2.1032,2.0943,2.0986,2.0778,2.0615,2.0156,2.056,2.0259,2.0191,1.9906,1.9611,1.9307,1.9419,1.9472,1.9178,1.9121,1.9106,1.9228,1.8904,1.8884,1.8936,1.8919,1.8943,1.901,1.9013,1.8828,1.9115,1.8986,1.8812,1.8851,1.8746,1.8615,1.8634,1.8614,1.8482,1.876,1.8543,1.8655,1.8465,1.8084,1.8005,1.826,1.8305,1.82,1.8448,1.8189,1.8004,1.8191,1.8242,1.7906,1.8114,1.8222,1.7986,1.8015,1.7923,1.8004,1.7714,1.7967,1.7929,1.7939,1.7711,1.7773,1.7741,1.8052,1.813,1.7702,1.7768,1.7792,1.7834,1.7766,1.7842,1.7744,1.7722,1.7712,1.7875,1.822,1.8602,1.8668,1.8603,1.8505,1.8298,1.8382,1.8666,1.8675,1.8904,1.8643,1.8442,1.8406,1.8294,1.8244,1.8004,1.7726,1.7518,1.7636,1.7673,1.7301,1.7371,1.7622,1.7169,1.7258,1.7263,1.7348,1.7314,1.7183,1.7057,1.7378,1.7267,1.724,1.686,1.617,1.56,1.5733,1.6641,1.854,2.2916,2.7654,3.0068,3.1712,3.4103,3.255,2.6714,2.0484,1.533,1.3004,1.2368,1.1902,1.2438,1.3961,1.5284,1.6348,1.6571,1.7011,1.7104,1.6934,1.6595,1.6789,1.6967,1.6749,1.6785,1.6816,1.6827,1.7307,1.7121,1.6768,1.6847,1.7045,1.7185,1.6811,1.6677,1.6738,1.6811,1.7132,1.7046,1.6699,1.657,1.6567,1.6713,1.6639,1.6781,1.6837,1.688,1.6654,1.6778,1.6853,1.6665,1.6486,1.6604,1.6557,1.6989,1.6869,1.6236,1.6479,1.6605,1.6691,1.6455,1.5834,1.6016,1.6217,1.622,1.611,1.6238,1.6319,1.6537,1.6558,1.6059,1.613,1.6125,1.6458,1.6663,1.6023,1.6617,1.6546,1.6366,1.6471,1.6942,1.7078,1.7026,1.7348,1.7148,1.5991,1.6692,1.7114,1.7149,1.6315,1.6916,1.7132,1.7063,1.6695,1.6314,1.624,1.6308,1.6597,1.5889,1.6186,1.6179,1.6238,1.5865,1.5703,1.5533,1.6142,1.6174,1.5821,1.5924,1.599,1.5832,1.5603,1.571,1.5867,1.5676,1.6017,1.5462,1.5868,1.5463,1.5549,1.5865,1.5751,1.5614,1.581,1.6098,1.5934,1.5462,1.5943,1.6246,1.5717,1.5935,1.6287,1.5981,1.6137,1.5713,1.6033,1.627,1.5042,1.5643,1.6291,1.6209,1.5865,1.6103,1.6289,1.5618,1.5787,1.5834,1.5712,1.5343,1.5554,1.5426,1.5483,1.5578,1.5906,1.5829,1.5515,1.5898,1.5697,1.5661,1.5729,1.6469,1.6431,1.6505,1.6531,1.6087,1.6407,1.6051,1.6154,1.6351,1.5831,1.5603,1.5365,1.5539,1.542,1.6014,1.6136,1.5715,1.5776,1.5758,1.589,1.6386,1.5661,1.5798,1.5771,1.591,1.6028,1.5807,1.5258,1.458,1.4275,1.4593,1.6069,1.9342,2.3903,2.7349,2.8383,3.128,2.9759,2.3445,1.777,1.363,1.1745,1.0838,1.0357,1.0995,1.2454,1.3521,1.4634,1.4961,1.5571,1.5631,1.5233,1.5409,1.5486,1.526,1.5647,1.5755,1.5743,1.5416,1.5645,1.6069,1.6047,1.5927,1.5881,1.5848,1.6198,1.6,1.5856,1.622,1.6415,1.6601,1.6381,1.6903,1.6812,1.6537,1.6707,1.7409,1.7641,1.7194,1.6996,1.6908,1.7343,1.7424,1.7298,1.7233,1.6981,1.7154,1.7104,1.7347,1.7154,1.7338,1.7461,1.7259,1.7109,1.7059,1.7239,1.7467,1.777,1.7522,1.7416,1.7486,1.7419,1.7739,1.7533,1.7118,1.7769,1.7754,1.7949,1.8178,1.8124,1.7997,1.8235,1.8498,1.8266,1.8082,1.8361,1.8226,1.807,1.7894,1.785,1.7721,1.7932,1.806,1.7711,1.7553,1.7756,1.7512,1.7924,1.7536,1.7905,1.7371,1.7693,1.7568,1.7178,1.74,1.7793,1.782,1.7745,1.7528,1.7633,1.7545,1.7643,1.7674,1.7641,1.7721,1.7519,1.7372,1.7597,1.8042,1.7475,1.7554,1.7662,1.7735,1.7862,1.7556,1.7514,1.7651,1.7518,1.7456,1.7149,1.7519,1.7333,1.7392,1.7605,1.7444,1.7652,1.741,1.7508,1.7588,1.7103,1.7342,1.7338,1.7323,1.7276,1.7581,1.7445,1.7695,1.7718,1.7639,1.7393,1.7265,1.7618,1.7854,1.8205,1.8389,1.7982,1.7623,1.7199,1.7025,1.6493,1.6223,1.6445,1.7413,1.7538,1.7194,1.6637,1.6429,1.6718,1.6821,1.664,1.6766,1.642,1.6486,1.6651,1.695,1.6733,1.6492,1.6426,1.6105,1.561,1.5154,1.5109,1.5686,1.7731,2.1947,2.6212,2.894,3.0064,3.1458,2.8344,2.5095,1.9462,1.4886,1.3288,1.1888,1.1967,1.1817,1.2768,1.3681,1.5237,1.5907,1.6619,1.6725,1.7016,1.6834,1.7063,1.6874,1.7377,1.7383,1.786,1.7662,1.7588,1.7444,1.7578,1.7401,1.7852,1.7605,1.7587,1.7591,1.7528,1.7788,1.7873,1.7598,1.7628,1.7472,1.7439,1.7109,1.7636,1.7785,1.8068,1.7919,1.7643,1.7589,1.7568,1.805,1.7916,1.7419,1.7799,1.7731,1.787,1.7901,1.7699,1.795,1.7945,1.7792,1.7988,1.8038,1.7761,1.7889,1.7926,1.816,1.7991,1.781,1.8016,1.8406,1.8223,1.8359,1.8427,1.8291,1.8504,1.873,1.8626,1.8919,1.8917,1.9117,1.94,1.9315,1.8987,1.8842,1.8893,1.9027,1.8931,1.902,1.8846,1.8906,1.8838,1.8865,1.8685,1.8718,1.8638,1.8758,1.9022,1.867,1.8844,1.8869,1.913,1.9098,1.8349,1.8709,1.8817,1.8836,1.9036,1.9181,1.9136,1.9297,1.8985,1.9028,1.9146,1.9355,1.8854,1.8934,1.9378,1.9452,1.9071,1.9013,1.9228,1.9349,1.9032,1.8763,1.8876,1.8906,1.9013,1.9045,1.8913,1.9113,1.9025,1.9163,1.9282,1.9419,1.9677,1.9605,1.9625,1.9374,1.9442,1.9888,1.9873,2.0152,2.0138,1.9951,1.9731,1.9488,1.9584,1.9641,1.9639,1.8896,1.8691,1.8799,1.8751,1.8768,1.8551,1.8682,1.8663,1.8514,1.8822,1.8691,1.8807,1.8454,1.869,1.8618,1.8412,1.856,1.8474,1.7795,1.7266,1.7104,1.7633,1.9601,2.387,2.7928,3.0707,3.2134,3.4117,3.1727,2.6151,2.0327,1.5821,1.4477,1.3205,1.3513,1.3469,1.4349,1.5751,1.6795,1.758,1.7841,1.773,1.7495,1.7702,1.7905,1.7766,1.7801,1.7513,1.7673,1.7781,1.7528,1.7595,1.7941,1.7653,1.7612,1.7539,1.7548,1.7887,1.7896,1.7864,1.7706,1.7962,1.7794,1.7897,1.7944,1.7846,1.8048,1.8005,1.8186,1.781,1.77,1.7797,1.8084,1.8174,1.811,1.8746,1.8374,1.7749,1.7607,1.8066,1.9198,1.8084,1.7984,1.8126,1.8422,1.8757,1.8504,1.8605,1.8279,1.8454,1.8488,1.8664,1.8788,1.8848,1.9071,1.8902,1.9062,1.918,1.9466,1.9165,1.964,1.9548,1.9458,1.9453,1.9474,1.9568,1.9331,1.9258,1.9171,1.909,1.9094,1.8987,1.8792,1.8759,1.8447,1.8289,1.8397,1.8258,1.7987,1.8181,1.807,1.8147,1.7849,1.7935,1.7948,1.8028,1.8092,1.8019,1.7962,1.8283,1.8126,1.8052,1.8087,1.8127,1.8048,1.8136,1.8147,1.8093,1.8012,1.7992,1.8076,1.8149,1.7882,1.8115,1.8005,1.8289,1.8075,1.804,1.8083,1.8116,1.7964,1.8011,1.7969,1.8148,1.8167,1.8341,1.8123,1.8121,1.8033,1.8017,1.8506,1.8543,1.8702,1.856,1.8262,1.8482,1.8268,1.8126,1.7974,1.7647,1.7617,1.7656,1.7486,1.737,1.7173,1.7349,1.7407,1.7735,1.7414,1.7299,1.7536,1.7451,1.7417,1.7407,1.7493,1.7329,1.7427,1.6955,1.6267,1.5975,1.5986,1.6943,1.789,2.1342,2.5798,2.9034,3.1137,3.3645,3.2266,2.6161,1.9717,1.5561,1.3871,1.2586,1.2526,1.3197,1.4813,1.5845,1.6991,1.7288,1.7576,1.7552,1.7677,1.7472,1.7611,1.7641,1.7646,1.7815,1.798,1.7827,1.7897,1.7684,1.7778,1.8132,1.794,1.7862,1.7918,1.8106,1.837,1.7891,1.8155,1.7981,1.8075,1.8172,1.8174,1.7967,1.8152,1.833,1.8329,1.8205,1.8394,1.8281,1.8259,1.8435,1.8455,1.8267,1.8308,1.8434,1.8516,1.8288,1.8187,1.8565,1.8556,1.8636,1.8586,1.8615,1.8484,1.8579,1.8672,1.8706,1.8651,1.891,1.8769,1.8898,1.9078,1.8969,1.8976,1.9192,1.9217,1.9266,1.9469,1.9381,1.9345,1.9388,1.953,1.9515,1.9386,1.9524,1.9539,1.9436,1.9139,1.8957,1.9185,1.9112,1.9134,1.8939,1.8972,1.8779,1.8951,1.9139,1.8967,1.8934,1.8691,1.8953,1.8993,1.9038,1.9113,1.8971,1.9264,1.9203,1.9059,1.8843,1.8806,1.9003,1.9018,1.8963,1.8677,1.8953,1.8954,1.8934,1.8843,1.886,1.8838,1.8797,1.8787,1.8759,1.8634,1.8722,1.887,1.8824,1.8856,1.8886,1.8959,1.9097,1.9188,1.9223,1.9226,1.9133,1.9273,1.953,1.9687,1.9745,1.9682,1.9704,1.965,1.9364,1.9251,1.9082,1.8859,1.8728,1.8577,1.8736,1.8491,1.8309,1.8296,1.8184,1.8298,1.8208,1.8213,1.8262,1.8019,1.8317,1.8126,1.8152,1.8179,1.8027,1.8273,1.7828,1.7058,1.6665,1.665,1.7237,1.9325,2.3499,2.7881,3.0742,3.2356,3.4266,3.1161,2.4747,2.1644,1.6781,1.4249,1.351,1.3369,1.3723,1.4555,1.5986,1.7141,1.804,1.8073,1.8269,1.8104,1.8132,1.8156,1.8336,1.8374,1.8304,1.8244,1.8343,1.8399,1.847,1.8524,1.8586,1.8454,1.8535,1.8707,1.8222,1.8559,1.8424,1.8553,1.8724,1.8358,1.8408,1.8598,1.8763,1.8648,1.8587,1.8563,1.87,1.8328,1.87,1.8591,1.8521,1.881,1.9314,1.8445,1.8518,1.8692,1.8391,1.8647,1.8578,1.8563,1.8507,1.8468,1.8427,1.8412,1.8648,1.8769,1.8805,1.8828,1.8771,1.8823,1.8728,1.8964,1.9008,1.8934,1.9094,1.9191,1.9245,1.9365,1.9451,1.948,1.9599,1.9469,1.9488,1.9575,1.9468,1.9315,1.9239,1.9364,1.9286,1.9153,1.9107,1.9037,1.9042,1.9002,1.8976,1.8958,1.8824,1.8896,1.8977,1.8911,1.8994,1.8951,1.8884,1.8931,1.8897,1.8988,1.9003,1.8982,1.8943,1.9078,1.888,1.8891,1.9096,1.9014,1.8913,1.8862,1.8938,1.8943,1.9029,1.8933,1.8903,1.8895,1.8902,1.894,1.9029,1.894,1.8863,1.891,1.8925,1.8747,1.8837,1.8937,1.8651,1.8812,1.8844,1.8841,1.919,1.9164,1.9108,1.949,1.9364,1.9375,1.9255,1.9506,1.9649,1.9874,1.9881,1.9923,1.9706,1.9537,1.9452,1.9209,1.8995,1.8646,1.8445,1.8654,1.8505,1.8358,1.8315,1.8311,1.8346,1.8185,1.8218,1.8194,1.8225,1.84,1.841,1.8392,1.8371,1.8364,1.8382,1.7874,1.7068,1.6861,1.7094,1.7711,1.992,2.42,2.8491,3.1228,3.286,3.4912,3.0887,2.4302,1.8529,1.6367,1.4892,1.4066,1.3555,1.3313,1.5323,1.6609,1.7938,1.7994,1.8319,1.8149,1.8506,1.8356,1.8467,1.8421,1.848,1.852,1.8698,1.8544,1.8646,1.8719,1.9502,1.8912,1.9394,1.8702,1.8706,1.93,1.8762,1.8503,1.8397,1.8809,1.8818,1.8563,1.8661,1.868,1.887,1.8868,1.8951,1.886,1.8773,1.8674,1.8739,1.8952,1.8815,1.8721,1.8903,1.8832,1.8945,1.8844,1.8792,1.8872,1.8819,1.8965,1.9025,1.8755,1.8735,1.8912,1.8888,1.9157,1.8728,1.8978,1.9031,1.9109,1.8991,1.899,1.8965,1.9082,1.9288,1.9379,1.9372,1.9561,1.9391,1.9625,1.9632,1.967,1.9605,1.9638,1.9558,1.9489,1.943,1.9351,1.9434,1.9532,1.914,1.9136,1.9031,1.8968,1.9359,1.9066,1.9055,1.9398,1.8981,1.8937,1.9147,1.8992,1.9029,1.9046,1.9212,1.9258,1.908,1.8935,1.9044,1.9042,1.9029,1.897,1.8761,1.9105,1.9563,1.9137,1.8972,1.9564,1.9834,2.0177,2.0104,1.7815,1.8416,1.921,1.8701,1.9117,1.9555,1.8783,1.8696,1.8914,1.8743,1.8791,1.8774,1.8868,1.8713,1.891,1.863,1.8661,1.8727,1.8808,1.8772,1.8984,1.9044,1.9099,1.9022,1.9293,1.9448,1.9624,1.9054,1.9223,1.9468,1.9716,1.9478,1.9463,1.9466,1.942,1.929,1.9129,1.8937,1.8754,1.8468,1.8303,1.7969,1.8022,1.8112,1.8168,1.834,1.826,1.7911,1.7822,1.8059,1.8245,1.8517,1.8066,1.7617,1.7898,1.7977,1.7673,1.6999,1.6326,1.6587,1.7377,1.9765,2.3923,2.6146,2.9837,3.1613,3.4145,3.3568,2.7569,2.1162,1.6155,1.4369,1.3066,1.319,1.3685,1.5262,1.6511,1.7793,1.7878,1.8103,1.8074,1.8171,1.7969,1.8004,1.8429,1.8511,1.8323,1.8417,1.8254,1.836,1.8615,1.8612,1.8436,1.8649,1.8466,1.8588,1.8325,1.8631,1.8449,1.8558,1.8654,1.8635,1.8709,1.8574,1.8208,1.852,1.8605,1.8559,1.841,1.8205,1.8324,1.8385,1.875,1.8599,1.8342,1.8548,1.86,1.8654,1.8239,1.8371,1.8339,1.859,1.8491,1.8347,1.8319,1.8209,1.854,1.8562,1.8301,1.8354,1.8608,1.8756,1.867,1.8746,1.8863,1.8721,1.8953,1.8855,1.9097,1.9889,2.0076,2.0706,2.1429,2.1541,1.9143,1.8027,1.8964,1.8861,1.9416,1.931,1.93,1.8768,1.8921,1.8847,1.9051,1.9238,1.9418,1.8043,1.8421,1.8806,1.8424,1.8819,1.8851,1.8761,1.8734,1.8834,1.9333,1.9105,1.8885,1.9099,1.8559,1.89,1.882,1.9287,1.8848,1.8545,1.8742,1.8835,1.9114,1.8562,1.8429,1.8767,1.8679,1.8739,1.8693,1.8673,1.8681,1.8771,1.8711,1.8671,1.8865,1.8684,1.9434,1.9822,1.7874,1.8247,1.8703,1.8626,1.8585,1.8584,1.8994,1.8478,1.8719,1.8768,1.9122,1.9103,1.9159,1.9017,1.9321,1.9517,1.9658,1.9679,1.9694,1.9527,1.9714,1.9292,1.9198,1.9236,1.911,1.8322,1.8449,1.8358,1.8101,1.8198,1.8341,1.8246,1.8357,1.847,1.8328,1.8051,1.7866,1.8034,1.8148,1.8219,1.8227,1.8356,1.7891,1.7076,1.6313,1.6444,1.7278,1.8032,2.1548,2.6091,2.9648,3.1372,3.3926,3.3958,2.7428,2.128,1.6336,1.4138,1.3167,1.3066,1.3601,1.5062,1.668,1.7388,1.7814,1.7959,1.8316,1.7991,1.8312,1.8179,1.7991,1.8281,1.8269,1.8216,1.845,1.8544,1.8343,1.8549,1.8339,1.8323,1.8586,1.8503,1.869,1.8563,1.88,1.8656,1.8337,1.8453,1.8623,1.8475,1.8641,1.8612,1.8691,1.8617,1.861,1.8802,1.8574,1.8661,1.8594,1.8635,1.8698,1.8571,1.8566,1.8524,1.8447,1.8512,1.8566,1.8586,1.8496,1.8509,1.8485,1.854,1.8526,1.8652,1.8491,1.8545,1.8643,1.8726,1.8565,1.8724,1.8775,1.8926,1.887,1.897,1.8998,1.9174,1.9155,1.9267,1.9349,1.9354,1.9446,1.9898,1.9477,1.9372,1.9482,1.956,1.972,1.9218,1.9133,1.9961,1.9084,1.8997,1.9056,1.9,1.9016,1.9161,1.917,1.9133,1.9218,1.9117,1.9109,1.9105,1.9267,1.9226,1.9115,1.9018,1.9087,1.9204,1.9428,1.9128,1.8925,1.894,1.9055,1.904,1.9028,1.883,1.8804,1.8873,1.9141,1.902,1.8744,1.8811,1.8925,1.891,1.9213,1.8889,1.8798,1.9012,1.8832,1.8829,1.8772,1.8811,1.8932,1.9072,1.9244,1.832,1.8244,1.8688,1.878,1.912,1.8813,1.8438,1.8659,1.8861,1.875,1.8811,1.8931,1.8887,1.9097,1.9291,1.9457,1.9317,1.923,1.9291,1.953,1.9827,1.971,1.9773,1.9825,1.9713,1.9474,1.9538,1.9442,1.9441,1.909,1.8585,1.8573,1.8697,1.8573,1.8599,1.8682,1.8477,1.8524,1.866,1.8652,1.8679,1.8382,1.8506,1.8313,1.8576,1.8606,1.8265,1.8003,1.7278,1.6865,1.7048,1.8537,2.1883,2.6392,3.0577,3.2289,3.48,3.4335,2.8116,2.2011,1.8845,1.5565,1.3949,1.3387,1.3839,1.5525,1.6735,1.8213,1.8392,1.8626,1.8481,1.8693,1.8606,1.8905,1.8864,1.9085,1.8821,1.8685,1.8845,1.8915,1.8613,1.9047,1.8931,1.9052,1.899,1.9075,1.9038,1.9107,1.9014,1.9228,1.9005,1.9093,1.8882,1.8971,1.9173,1.9081,1.8893,1.8993,1.8863,1.8869,1.911,1.9148,1.9012,1.8912,1.9046,1.9084,1.9008,1.8978,1.8691,1.8917,1.8972,1.9122,1.884,1.8702,1.8854,1.8666,1.8971,1.8967,1.8618,1.8876,1.9297,1.9221,1.9062,1.9034,1.9004,1.9204,1.9307,1.9237,1.9396,1.9373,1.9603,1.9571,1.9704,1.9554,1.9922,1.9773,1.9858,1.9985,1.9709,1.9436,1.9638,1.9677,1.9564,1.9584,1.9426,1.9449,1.958,1.9548,1.9455,1.9319,1.9365,1.9397,1.9386,1.9213,1.9286,1.9258,1.9255,1.9286,1.924,1.9257,1.9443,1.944,1.9292,1.9202,1.9052,1.9023,1.9268,1.9147,1.9301,1.8972,1.907,1.9074,1.9105,1.9037,1.9021,1.8915,1.8901,1.891,1.8989,1.8952,1.9042,1.8986,1.894,1.9143,1.8979,1.8963,1.8997,1.9047,1.9005,1.8914,1.8947,1.9121,1.919,1.9007,1.901,1.8861,1.9009,1.8968,1.9109,1.9001,1.9079,1.9124,1.9046,1.9024,1.8964,1.8868,1.9099,1.9073,1.9149,1.9141,1.9015,1.9053,1.9049,1.918,1.9207,1.9142,1.9184,1.9242,1.9467,1.9661,1.9669,1.9623,1.9734,1.9543,1.9958,2.0024,2.0035,2.0276,1.9971,1.9766,1.9865,1.9522,1.958,1.9434,1.8974,1.8882,1.8508,1.8791,1.8837,1.8914,1.8785,1.8822,1.8586,1.8836,1.8746,1.8736,1.8699,1.8758,1.8776,1.8733,1.8533,1.7924,1.7323,1.7241,1.7433,1.8438,2.1991,2.4426,2.852,3.1527,3.2695,3.4987,3.1325,2.4996,1.9235,1.5722,1.4417,1.3638,1.373,1.4384,1.5608,1.7008,1.7975,1.8514,1.8673,1.8729,1.8711,1.8882,1.8833,1.887,1.8811,1.8911,1.8931,1.9097,1.909,1.9209,1.9072,1.9132,1.9271,1.9283,1.9188,1.9122,1.9156,1.9141,1.917,1.9196,1.9091,1.9087,1.9259,1.9317,1.9347,1.9243,1.9172,1.9049,1.9269,1.9134,1.9094,1.9219,1.9138,1.9181,1.9054,1.9186,1.9119,1.9069,1.888,1.9074,1.876,1.8846,1.8917,1.8893,1.8783,1.8698,1.8881,1.8821,1.8907,1.8932,1.884,1.8804,1.894,1.9084,1.901,1.9126,1.9183,1.9297,1.9587,1.9533,1.9592,1.9729,1.9897,1.9939,1.989,1.9941,1.9801,1.9894,1.9878,1.9698,1.9962,1.9783,1.9638,1.9533,1.9587,1.938,1.9428,1.972,1.9589,1.9531,1.9553,1.9447,1.9437,1.9518,1.9515,1.9439,1.9406,1.9452,1.9398,1.9422,1.9587,1.948,1.9452,1.9432,1.9533,1.9447,1.9501,1.9347,1.9381,1.9539,1.952,1.9416,1.9304,1.934,1.9289,1.9185,1.9323,1.912,1.9195,1.9278,1.9185,1.9178,1.9307,1.9268,1.9247,1.9231,1.9224,1.9009,1.9115,1.9189,1.9214,1.9141,1.9072,1.9049,1.9167,1.9446,1.9487,1.9504,1.9492,1.9499,1.9672,1.9593,1.9864,1.9856,1.9986,2.0255,1.9992,1.9744,1.9551,1.9398,1.9416,1.931,1.8597,1.8802,1.8634,1.8435,1.8457,1.8812,1.8631,1.8574,1.8697,1.8528,1.8526,1.8503,1.8543,1.8638,1.8524,1.8446,1.7925,1.7497,1.712,1.6849,1.7443,1.9136,2.3086,2.7252,3.0683,3.1972,3.4738,3.2682,2.6168,2.0343,1.6201,1.4404,1.3431,1.3471,1.4198,1.5552,1.6826,1.7554,1.8199,1.8494,1.8498,1.8551,1.853,1.8549,1.8584,1.8665,1.8688,1.8688,1.8665,1.9075,1.8934,1.8915,1.8919,1.8889,1.893,1.8952,1.8941,1.8898,1.8869,1.8969,1.899,1.903,1.8917,1.8863,1.8972,1.8985,1.9021,1.8988,1.8934,1.8955,1.911,1.9144,1.887,1.9021,1.8989,1.9044,1.9009,1.8925,1.9013,1.8933,1.8911,1.9155,1.884,1.8904,1.8851,1.8963,1.889,1.8974,1.891,1.8884,1.8722,1.8912,1.8801,1.8992,1.9267,1.9203,1.9097,1.9313,1.921,1.9376,1.9512,1.9604,1.966,1.9712,1.9758,1.9789,1.9761,1.9667,1.956,1.9383,1.9498,1.9472,1.9446,1.9291,1.9445,1.9257,1.9374,1.9262,1.924,1.9234,1.9138,1.9313,1.9221,1.9194,1.9102,1.9159,1.9236,1.9192,1.9086,1.9132,1.9285,1.9269,1.9196,1.9121,1.9113,1.9144,1.9226,1.9201,1.9278,1.9046,1.9086,1.9331,1.9222,1.9071,1.908,1.9149,1.9217,1.9033,1.9099,1.9011,1.8817,1.9288,1.8918,1.8828,1.9121,1.8955,1.9066,1.8808,1.8965,1.8805,1.8803,1.8683,1.8844,1.8723,1.8538,1.848,1.8739,1.8779,1.873,1.8888,1.8884,1.9049,1.9332,1.9076,1.9081,1.9279,1.9369,1.9859,1.9582,1.9732,1.9403,1.9148,1.9209,1.9022,1.8923,1.8591,1.8282,1.8237,1.843,1.8158,1.8301,1.8357,1.8502,1.8352,1.8316,1.8239,1.8359,1.8424,1.8346,1.8551,1.85,1.8249,1.7666,1.6894,1.6832,1.7126,1.8471,2.2003,2.6427,3.0384,3.1938,3.4802,3.4398,2.8074,2.2016,1.8705,1.5396,1.3887,1.3395,1.3774,1.5222,1.6559,1.7921,1.8407,1.8687,1.8478,1.8619,1.8608,1.8917,1.8834,1.8801,1.8795,1.898,1.8943,1.8978,1.882,1.8912,1.887,1.8976,1.9129,1.9146,1.9009,1.911,1.9123,1.9123,1.9183,1.907,1.919,1.9336,1.9206,1.9306,1.9293,1.9224,1.9235,1.9293,1.9317,1.9294,1.9262,1.9441,1.9236,1.9401,1.9227,1.9356,1.9383,1.9364,1.9388,1.9196,1.9227,1.9487,1.9418,1.9249,1.9256,1.9254,1.9334,1.9338,1.9314,1.9319,1.9326,1.9464,1.9436,1.9496,1.9587,1.9682,1.9659,1.9789,1.9905,1.9781,1.9904,1.9959,2.009,2.0009,1.9983,1.9888,1.9938,1.9806,1.9927,1.9787,1.9758,1.9651,1.9633,1.9556,1.9429,1.9457,1.9329,1.9454,1.9684,1.9483,1.9528,1.943,1.9721,1.9497,1.9578,1.9365,1.925,1.9328,1.9373,1.936,1.9181,1.9374,1.9211,1.9089,1.9178,1.8967,1.9184,1.9061,1.9094,1.9121,1.915,1.9026,1.8943,1.9021,1.8964,1.8801,1.8774,1.8744,1.8935,1.8881,1.8778,1.8856,1.8842,1.8759,1.8831,1.8836,1.87,1.8679,1.8822,1.884,1.8892,1.8715,1.8724,1.8819,1.8706,1.8639,1.8504,1.8604,1.8683,1.8912,1.9046,1.9149,1.92,1.9292,1.9077,1.9081,1.946,1.954,1.969,1.958,1.9405,1.9208,1.9112,1.91,1.9053,1.8937,1.859,1.8229,1.8344,1.8284,1.8316,1.8324,1.8294,1.8234,1.8333,1.8239,1.82,1.8254,1.8304,1.844,1.8272,1.814,1.7902,1.7017,1.68,1.678,1.6815,1.8178,2.1772,2.6431,3.014,3.1874,3.3999,3.3642,2.7397,2.1364,1.665,1.454,1.3229,1.3135,1.3461,1.454,1.6205,1.7423,1.8149,1.8335,1.8241,1.8127,1.8455,1.8306,1.8436,1.8546,1.8393,1.8547,1.8505,1.8732,1.8703,1.8618,1.8778,1.8616,1.8709,1.8767,1.8669,1.8674,1.867,1.8803,1.877,1.8732,1.8722,1.865,1.8606,1.8638,1.8686,1.8795,1.8711,1.8858,1.8827,1.8787,1.8606,1.8719,1.8767,1.8692,1.8608,1.8675,1.8541,1.8495,1.8613,1.8578,1.8481,1.8597,1.8449,1.8399,1.8576,1.8539,1.844,1.846,1.8583,1.8569,1.8579,1.8506,1.8611,1.8773,1.899,1.8848,1.905,1.9123,1.9235,1.9386,1.9406,1.9455,1.9505,1.9508,1.9555,1.9496,1.9452,1.9265,1.9153,1.9304,1.9211,1.9153,1.9193,1.9143,1.9109,1.8976,1.8889,1.8959,1.8785,1.8909,1.9007,1.8965,1.8804,1.876,1.8907,1.892,1.8702,1.8634,1.8907,1.8765,1.8799,1.8698,1.8552,1.8742,1.8739,1.8798,1.8674,1.8616,1.8637,1.8716,1.863,1.8543,1.8591,1.8626,1.8645,1.8804,1.8515,1.8523,1.8634,1.8553,1.8681,1.8713,1.8702,1.8813,1.9027,1.9011,1.8929,1.8884,1.8912,1.9034,1.9327,1.9297,1.9308,1.9415,1.9438,1.9154,1.9055,1.888,1.8438,1.836,1.8332,1.8079,1.7922,1.7972,1.8209,1.8094,1.8099,1.793,1.791,1.8209,1.8157,1.8073,1.8041,1.789,1.8165,1.8014,1.7512,1.6625,1.643,1.6527,1.7517,2.0627,2.5273,2.8921,3.0952,3.1762,3.3689,3.1242,2.5033,1.8874,1.5405,1.3897,1.2729,1.3164,1.3415,1.4756,1.6185,1.7273,1.7743,1.7825,1.81,1.8244,1.8151,1.8315,1.8071,1.8253,1.8306,1.8429,1.8363,1.8201,1.8471,1.8601,1.8403,1.8428,1.8358,1.8554,1.849,1.8488,1.8299,1.8415,1.8651,1.8509,1.8487,1.8552,1.8587,1.8615,1.8464,1.8591,1.8449,1.855,1.85,1.8536,1.8683,1.8542,1.8438,1.8568,1.8556,1.8585,1.8453,1.8408,1.8352,1.8497,1.8512,1.8356,1.8224,1.8192,1.8433,1.8517,1.8517,1.8448,1.8355,1.8489,1.8647,1.8664,1.8681,1.8816,1.8953,1.9001,1.9053,1.9128,1.9138,1.9259,1.9392,1.9253,1.9209,1.9311,1.9304,1.9144,1.9179,1.8992,1.8987,1.8903,1.903,1.8774,1.8557,1.858,1.8626,1.8629,1.8659,1.8506,1.8573,1.8577,1.8415,1.8482,1.8299,1.855,1.8895,1.8681,1.8738,1.8514,1.8522,1.8528,1.8563,1.8579,1.8464,1.8476,1.8566,1.8593,1.836,1.8443,1.8491,1.8301,1.831,1.8659,1.8618,1.8377,1.8382,1.8393,1.8497,1.8528,1.8536,1.8511,1.8794,1.8734,1.8831,1.8804,1.8764,1.89,1.908,1.9186,1.9155,1.9379,1.9206,1.8807,1.8764,1.8754,1.853,1.8323,1.8052,1.7929,1.7715,1.7699,1.7757,1.7605,1.7599,1.7688,1.7677,1.7639,1.7602,1.7793,1.7718,1.7636,1.7783,1.7787,1.7513,1.6913,1.6134,1.6035,1.649,1.79,2.1433,2.5872,2.9618,3.1456,3.412,3.2914,2.647,2.0241,1.5514,1.368,1.252,1.2451,1.2755,1.4167,1.5742,1.6969,1.7502,1.7537,1.7753,1.7721,1.7802,1.7723,1.7942,1.7945,1.7996,1.7983,1.8047,1.815,1.8137,1.8219,1.8012,1.8129,1.8285,1.8212,1.8363,1.8307,1.8283,1.8198,1.82,1.8253,1.8182,1.8165,1.8233,1.8253,1.8355,1.8277,1.8218,1.8231,1.8242,1.8211,1.8377,1.8235,1.8296,1.8278,1.8301,1.8185,1.8113,1.7995,1.798,1.8067,1.8158,1.8088,1.7909,1.7947,1.7969,1.803,1.7909,1.7985,1.8162,1.8214,1.8066,1.821,1.8088,1.8229,1.82,1.8337,1.8479,1.8627,1.867,1.8717,1.8868,1.8915,1.8868,1.8897,1.8892,1.8862,1.8972,1.8847,1.8763,1.8768,1.8791,1.8883,1.8731,1.8641,1.8536,1.8643,1.8549,1.8544,1.8437,1.8578,1.8655,1.8738,1.8643,1.8654,1.8527,1.8619,1.8743,1.8514,1.8585,1.8518,1.8548,1.8722,1.8749,1.8462,1.8533,1.8451,1.8626,1.8678,1.8423,1.8482,1.8439,1.8528,1.8361,1.8413,1.8382,1.8348,1.8415,1.8431,1.8525,1.878,1.8948,1.9066,1.92,1.9058,1.8997,1.8896,1.9139,1.9424,1.9444,1.9527,1.9586,1.9458,1.9298,1.9089,1.8999,1.8706,1.8376,1.8287,1.8204,1.798,1.7977,1.7963,1.8057,1.805,1.8011,1.7985,1.8052,1.8021,1.8085,1.776,1.8076,1.8075,1.7997,1.7863,1.7075,1.6277,1.6359,1.6621,1.8267,2.2097,2.6668,2.888,3.114,3.3323,3.4802,2.9562,2.2902,1.7484,1.4313,1.3206,1.2422,1.3483,1.4709,1.6673,1.7471,1.7987,1.7966,1.8272,1.8126,1.8272,1.7987,1.8144,1.825,1.8406,1.8276,1.8381,1.8359,1.8513,1.8319,1.8597,1.8364,1.8521,1.8438,1.8523,1.8501,1.8476,1.8452,1.8719,1.8532,1.8733,1.856,1.86,1.8522,1.8505,1.8635,1.8646,1.8486,1.855,1.8705,1.872,1.8548,1.8711,1.8591,1.865,1.8551,1.8653,1.8554,1.8439,1.8522,1.8571,1.8569,1.8497,1.8594,1.8648,1.8726,1.857,1.8601,1.8569,1.8786,1.8635,1.887,1.8736,1.8755,1.9027,1.9014,1.8989,1.9312,1.9328,1.9442,1.9386,1.9461,1.9483,1.941,1.9369,1.9531,1.94,1.9379,1.9182,1.9272,1.9125,1.9149,1.8972,1.8974,1.908,1.8966,1.8807,1.8896,1.8793,1.9022,1.8869,1.9007,1.8872,1.8755,1.8811,1.8772,1.8922,1.8737,1.8816,1.8735,1.866,1.8673,1.8665,1.8805,1.8599,1.8846,1.8763,1.8656,1.8591,1.863,1.8686,1.866,1.8594,1.8608,1.864,1.8666,1.8722,1.8719,1.8912,1.9057,1.909,1.9154,1.9249,1.921,1.9061,1.9333,1.9538,1.9638,1.9643,1.9816,1.9818,1.9671,1.9379,1.9143,1.9161,1.8772,1.8568,1.85,1.8282,1.8143,1.8359,1.8526,1.8177,1.8158,1.8289,1.8217,1.8193,1.8338,1.8293,1.8192,1.8199,1.8197,1.8159,1.7903,1.7255,1.6621,1.6527,1.6677,1.7852,2.1504,2.6416,2.98,3.1112,3.3048,3.1719,2.5865,1.9668,1.5927,1.4326,1.3058,1.3045,1.3182,1.3842,1.4998,1.6269,1.7297,1.8064,1.8151,1.8216,1.8082,1.8227,1.8244,1.8327,1.8385,1.8353,1.8419,1.8461,1.8477,1.8574,1.855,1.8642,1.8668,1.8747,1.8711,1.8738,1.8623,1.8765,1.8812,1.9011,1.8984,1.8796,1.8814,1.8881,1.8731,1.8598,1.8727,1.8751,1.89,1.8883,1.8655,1.8694,1.8657,1.8724,1.8636,1.8665,1.8803,1.8596,1.8757,1.8679,1.8533,1.8589,1.8548,1.871,1.8706,1.8618,1.855,1.8554,1.8695,1.8786,1.873,1.8816,1.8893,1.9008,1.8986,1.9103,1.906,1.9392,1.9496,1.9586,1.9573,1.9629,1.9618,1.9616,1.9657,1.9558,1.9452,1.9387,1.9476,1.9446,1.942,1.9236,1.9143,1.9085,1.9134,1.9242,1.8955,1.9198,1.914,1.9048,1.927,1.9141,1.9149,1.9121,1.9185,1.9118,1.9018,1.9067,1.908,1.9219,1.9115,1.9084,1.9126,1.8886,1.9071,1.9145,1.9092,1.905,1.9092,1.9054,1.9071,1.8989,1.8968,1.8935,1.9098,1.8985,1.9066,1.9114,1.9245,1.9329,1.9466,1.9516,1.9283,1.94,1.9374,1.9599,1.9799,1.9766,1.9901,1.9751,1.9742,1.9471,1.9216,1.9185,1.8729,1.8525,1.8572,1.8411,1.8506,1.8496,1.8483,1.8519,1.8463,1.8395,1.8333,1.8464,1.8509,1.8673,1.8532,1.8372,1.8719,1.8525,1.7878,1.7053,1.6825,1.7104,1.8174,2.1359,2.601,2.8188,3.0911,3.2285,3.4684,3.1371,2.454,1.9047,1.5438,1.4351,1.3132,1.3674,1.441,1.6102,1.7254,1.812,1.8223,1.8491,1.8445,1.8586,1.845,1.8695,1.8701,1.8812,1.8878,1.8926,1.8864,1.9017,1.9041,1.9221,1.8988,1.9108,1.9095,1.9264,1.9069,1.9003,1.918,1.9256,1.9189,1.9206,1.906,1.9039,1.9073,1.9158,1.9208,1.9199,1.9011,1.9155,1.9216,1.9179,1.9288,1.945,1.9531,1.9167,1.8815,1.8783,1.8777,1.8747,1.8839,1.8774,1.8837,1.87,1.8749,1.8677,1.8654,1.8709,1.8789,1.8601,1.8718,1.8805,1.8856,1.8814,1.8911,1.9099,1.9136,1.9269,1.9363,1.9372,1.9653,1.9638,1.9617,1.9726,1.9629,1.9589,1.9606,1.9665,1.9595,1.9471,1.9338,1.9433,1.9378,1.9315,1.9157,1.9218,1.9276,1.9248,1.9279,1.9161,1.925,1.9226,1.9161,1.9146,1.9163,1.9068,1.9301,1.915,1.9328,1.9178,1.9168,1.9178,1.9181,1.9195,1.9122,1.9116,1.9294,1.923,1.9203,1.9031,1.9052,1.9281,1.9305,1.9018,1.915,1.9117,1.9168,1.9073,1.9015,1.8983,1.8979,1.8928,1.9146,1.9002,1.8792,1.9058,1.9042,1.9147,1.9218,1.9351,1.9372,1.9343,1.9563,1.9571,1.9442,1.9674,1.9687,1.9941,2.0056,1.9901,1.9682,1.9543,1.9473,1.9383,1.9208,1.8763,1.8647,1.8806,1.8561,1.8627,1.8589,1.8591,1.8454,1.8652,1.8632,1.8448,1.8583,1.8579,1.8747,1.8511,1.856,1.8609,1.8286,1.782,1.7049,1.6854,1.7143,1.8606,2.2433,2.7068,3.0691,3.1715,3.3484,3.5529,3.0583,2.3886,1.8215,1.5072,1.4046,1.3328,1.401,1.525,1.6734,1.8141,1.861,1.8392,1.8607,1.8607,1.8829,1.8704,1.8897,1.8841,1.8749,1.8821,1.8961,1.8933,1.893,1.9037,1.9055,1.9044,1.9128,1.911,1.9053,1.9111,1.9092,1.9035,1.8893,1.9037,1.9044,1.9083,1.909,1.9026,1.8947,1.8999,1.915,1.923,1.8998,1.8948,1.894,1.9121,1.9192,1.8942,1.9067,1.8974,1.9004,1.9046,1.8834,1.8914,1.8765,1.8839,1.8791,1.8827,1.8724,1.8743,1.8841,1.8875,1.8815,1.883,1.8924,1.8955,1.9064,1.9058,1.8999,1.9165,1.9488,1.9426,1.9554,1.9549,1.9544,1.9862,1.9898,1.9759,1.96,1.9654,1.9616,1.9662,1.9666,1.9585,1.947,1.9431,1.9549,1.9493,1.9367,1.9329,1.9298,1.9345,1.9412,1.929,1.9234,1.9328,1.9583,1.9338,1.9354,1.9252,1.9317,1.9401,1.9234,1.9276,1.9138,1.9087,1.9379,1.9242,1.9233,1.924,1.9155,1.923,1.9115,1.9195,1.9083,1.9075,1.9037,1.8981,1.9245,1.9128,1.9024,1.9135,1.908,1.9069,1.8961,1.9028,1.9013,1.9219,1.9136,1.9037,1.8931,1.8992,1.8943,1.9068,1.8929,1.8918,1.8981,1.898,1.9087,1.9112,1.8911,1.8924,1.8978,1.9014,1.8892,1.8823,1.8924,1.8927,1.8998,1.8965,1.8955,1.8957,1.8963,1.8828,1.8807,1.8779,1.8797,1.8938,1.8872,1.8975,1.8938,1.8889,1.8895,1.8939,1.888,1.8892,1.8909,1.8804,1.888,1.8835,1.8838,1.8846,1.8928,1.8824,1.8961,1.8736,1.874,1.8852,1.902,1.8888,1.8788,1.8877,1.8751,1.885,1.885,1.8781,1.8807,1.8801,1.8847,1.873,1.8787,1.8793,1.8776,1.8729,1.8782,1.8813,1.87,1.8686,1.8727,1.8699,1.8738,1.8579,1.8676,1.8729,1.8806,1.8603,1.8558,1.866,1.8871,1.8979,1.9032,1.904,1.9089,1.9136,1.919,1.9301,1.9133,1.9211,1.9491,1.9654,1.9479,1.9134,1.8992,1.8782,1.8496,1.8467,1.834,1.837,1.8441,1.835,1.8418,1.8441,1.8395,1.8355,1.8442,1.8445,1.8571,1.8341,1.8405,1.8494,1.8468,1.8061,1.7229,1.6746,1.6822,1.7511,1.9816,2.4054,2.8406,3.1334,3.2808,3.4986,3.0943,2.4355,2.1434,1.6844,1.4758,1.3506,1.33,1.3867,1.4844,1.6444,1.7386,1.8156,1.8305,1.8346,1.8545,1.847,1.8325,1.8531,1.8431,1.8569,1.8501,1.8625,1.8558,1.8623,1.8658,1.8673,1.8691,1.88,1.8744,1.8797,1.8603,1.8701,1.8597,1.8656,1.8709,1.8692,1.8841,1.8731,1.8722,1.8774,1.8634,1.8806,1.8693,1.9043,1.8831,1.88,1.8705,1.8891,1.8992,1.8692,1.8795,1.8569,1.8611,1.8758,1.8771,1.8787,1.8525,1.8541,1.8561,1.8506,1.8517,1.854,1.8372,1.8538,1.8637,1.867,1.8528,1.8658,1.8636,1.8654,1.8928,1.8764,1.896,1.9126,1.9249,1.9447,1.9431,1.9545,1.9504,1.9582,1.9677,1.9579,1.9637,1.9473,1.9631,1.9453,1.938,1.9238,1.934,1.9252,1.9208,1.9111,1.9124,1.91,1.9126,1.9039,1.8922,1.9103,1.9068,1.8967,1.8904,1.9001,1.9092,1.8959,1.9083,1.9015,1.8983,1.8938,1.8964,1.8968,1.902,1.8954,1.8898,1.8899,1.8975,1.9051,1.8943,1.8836,1.8726,1.8822,1.8851,1.8879,1.8683,1.8784,1.8719,1.8748,1.88,1.8624,1.8523,1.8576,1.8819,1.8616,1.8518,1.8615,1.8572,1.8541,1.8583,1.8491,1.8503,1.8507,1.8526,1.8613,1.8444,1.8451,1.85,1.8514,1.8474,1.8387,1.8335,1.8178,1.851,1.8608,1.854,1.8516,1.8365,1.8537,1.8485,1.8306,1.8322,1.8291,1.8273,1.8433,1.8418,1.8424,1.8349,1.8416,1.8433,1.8397,1.8412,1.8344,1.8521,1.8634,1.8922,1.8752,1.8745,1.895,1.8945,1.9068,1.9047,1.9076,1.9202,1.9174,1.899,1.8774,1.8722,1.8566,1.8166,1.8101,1.804,1.8037,1.8009,1.8075,1.8064,1.8112,1.8067,1.799,1.8175,1.8084,1.8045,1.7991,1.804,1.8128,1.8065,1.7339,1.6539,1.6463,1.6712,1.793,2.1126,2.546,2.9306,3.1475,3.3651,3.3433,2.7628,2.1187,1.6609,1.4399,1.3321,1.2892,1.3162,1.3868,1.5343,1.664,1.7591,1.7954,1.8054,1.8064,1.8094,1.8181,1.8213,1.8224,1.843,1.8435,1.8426,1.8328,1.8477,1.8422,1.8475,1.8492,1.8482,1.8552,1.8585,1.8577,1.8589,1.8546,1.8628,1.8639,1.8644,1.8645,1.8604,1.8551,1.8753,1.8627,1.8528,1.8566,1.8634,1.8711,1.8649,1.8628,1.872,1.8673,1.8535,1.8816,1.8697,1.8467,1.854,1.8625,1.8543,1.8728,1.8459,1.8481,1.8526,1.8639,1.8544,1.8425,1.8388,1.8552,1.8578,1.8643,1.8559,1.859,1.8702,1.8867,1.8824,1.8787,1.9033,1.9178,1.9225,1.9212,1.9253,1.9363,1.9213,1.932,1.9218,1.9052,1.9095,1.905,1.9046,1.8821,1.8919,1.8869,1.8624,1.8701,1.8799,1.8641,1.8569,1.8524,1.8508,1.8555,1.8655,1.8596,1.8509,1.8677,1.874,1.8702,1.8643,1.869,1.8668,1.8746,1.8741,1.8647,1.8684,1.8665,1.8763,1.8724,1.8653,1.8817,1.868,1.8848,1.8778,1.8691,1.8658,1.8605,1.8766,1.8739,1.8517,1.8612,1.8679,1.8695,1.8636,1.8547,1.859,1.8445,1.8593,1.8492,1.8466,1.8474,1.8402,1.8523,1.8546,1.8499,1.8397,1.8284,1.8518,1.8409,1.8358,1.8306,1.8389,1.8354,1.8444,1.8382,1.8286,1.8283,1.8227,1.8439,1.836,1.8254,1.8286,1.8262,1.8334,1.8322,1.8275,1.8207,1.828,1.8397,1.8287,1.8314,1.8336,1.8269,1.8285,1.8247,1.8223,1.8293,1.8322,1.8488,1.8362,1.8211,1.8169,1.8197,1.8392,1.8294,1.8215,1.8097,1.8237,1.8236,1.8274,1.818,1.8262,1.8318,1.8259,1.8218,1.8237,1.8281,1.8541,1.8691,1.8803,1.8686,1.8643,1.8767,1.8958,1.8999,1.906,1.8955,1.9001,1.8833,1.8675,1.8752,1.86,1.8216,1.7962,1.8049,1.8103,1.7968,1.8019,1.7955,1.7877,1.8056,1.7976,1.8006,1.7977,1.7961,1.804,1.8083,1.795,1.7584,1.7223,1.6567,1.6258,1.6505,1.7879,2.1251,2.5511,2.9677,3.1553,3.4661,3.4143,2.7928,2.1696,1.6541,1.423,1.3262,1.2848,1.3653,1.5,1.6518,1.71,1.774,1.7918,1.7738,1.7889,1.8024,1.8101,1.801,1.812,1.8218,1.8286,1.8294,1.8305,1.8366,1.8294,1.8388,1.8384,1.8434,1.8419,1.8264,1.8362,1.8492,1.8448,1.8485,1.8403,1.8394,1.8528,1.8476,1.8328,1.8428,1.8342,1.8434,1.8516,1.84,1.8275,1.8547,1.8618,1.84,1.8441,1.8397,1.8364,1.8293,1.8417,1.8385,1.8319,1.8343,1.8294,1.8293,1.8285,1.8294,1.8218,1.8265,1.8363,1.8324,1.8292,1.83,1.843,1.8509,1.8482,1.8324,1.85,1.8509,1.8699,1.8775,1.8752,1.8855,1.9022,1.9137,1.9146,1.8941,1.8988,1.8954,1.9106,1.8969,1.8839,1.8832,1.873,1.8764,1.8601,1.8581,1.8665,1.8589,1.8731,1.8643,1.8547,1.8602,1.8433,1.8545,1.8549,1.847,1.8481,1.8514,1.8608,1.8656,1.8553,1.8524,1.8585,1.8527,1.8438,1.8442,1.839,1.85,1.8523,1.8493,1.8559,1.8427,1.8478,1.8515,1.848,1.8563,1.8344,1.842,1.8497,1.8552,1.8586,1.841,1.8443,1.8508,1.8572,1.8459,1.8394,1.8485,1.8364,1.8356,1.8469,1.8331,1.8204,1.8257,1.8371,1.83,1.834,1.8441,1.8365,1.8305,1.8452,1.8387,1.8446,1.8321,1.8402,1.8452,1.8475,1.8308,1.8242,1.8342,1.8339,1.839,1.8221,1.8285,1.8369,1.829,1.8315,1.8401,1.8302,1.8337,1.8349,1.8365,1.8312,1.8227,1.8282,1.8405,1.8444,1.8288,1.8289,1.8334,1.8316,1.8375,1.8217,1.8281,1.8237,1.826,1.8235,1.8342,1.8268,1.8276,1.8336,1.8367,1.8323,1.8213,1.8223,1.8255,1.8312,1.8183,1.8326,1.8272,1.8277,1.8243,1.8319,1.8191,1.8356,1.8449,1.8362,1.8234,1.8123,1.8161,1.8367,1.8403,1.8237,1.829,1.8192,1.8365,1.8257,1.8344,1.8222,1.8184,1.8318,1.8272,1.8332,1.8225,1.8191,1.8356,1.8282,1.8275,1.8146,1.8273,1.8312,1.838,1.8514,1.8479,1.8311,1.8374,1.8763,1.887,1.8771,1.8886,1.8722,1.9004,1.9116,1.8988,1.9071,1.9181,1.9403,1.9096,1.8849,1.8677,1.8584,1.8305,1.8207,1.8187,1.8157,1.8145,1.83,1.8226,1.8155,1.8301,1.8054,1.8237,1.8343,1.8292,1.8224,1.8255,1.8043,1.7282,1.6608,1.6705,1.7094,1.8763,2.2473,2.4654,2.877,3.1432,3.3317,3.5117,2.9883,2.3713,1.7896,1.5094,1.3996,1.3271,1.3401,1.4513,1.588,1.7151,1.8009,1.8013,1.8123,1.8136,1.8227,1.8252,1.8219,1.8239,1.8372,1.8429,1.8515,1.8561,1.8528,1.8492,1.8768,1.862,1.8644,1.8558,1.8659,1.855,1.8677,1.8531,1.8734,1.8512,1.8492,1.8563,1.8602,1.8527,1.8619,1.8713,1.8783,1.8778,1.8566,1.8637,1.8673,1.8784,1.8716,1.8608,1.8721,1.8663,1.8677,1.8694,1.8632,1.8579,1.8571,1.8646,1.8745,1.8526,1.8611,1.8492,1.8668,1.8724,1.8595,1.8699,1.8654,1.8646,1.869,1.8685,1.8745,1.8731,1.8961,1.9076,1.8965,1.9063,1.9145,1.9344,1.9361,1.9435,1.9261,1.9348,1.9403,1.9356,1.9257,1.9323,1.9208,1.9276,1.9205,1.9041,1.9069,1.869,1.8926,1.8868,1.8785,1.8717,1.8673,1.871,1.8701,1.8781,1.8729,1.8865,1.8827,1.8896,1.8784,1.8664,1.8847,1.8947,1.8903,1.879,1.8824,1.8873,1.887,1.8861,1.8946,1.8977,1.8991,1.8747,1.8921,1.9026,1.899,1.8774,1.8986,1.9046,1.892,1.8927,1.8729,1.8902,1.8799,1.8847,1.8801,1.8704,1.8619,1.8847,1.8704,1.871,1.8601,1.8703,1.8584,1.8679,1.8718,1.8553,1.8546,1.8794,1.8649,1.853,1.8553,1.8496,1.8579,1.8584,1.8596,1.8629,1.8633,1.8696,1.8667,1.87,1.8555,1.8447,1.8655,1.8619,1.8508,1.8468,1.8505,1.8527,1.8585,1.8554,1.847,1.8474,1.8456,1.8617,1.8652,1.8513,1.8538,1.8523,1.8592,1.864,1.849,1.8508,1.8441,1.8596,1.8613,1.8639,1.8542,1.8477,1.8662,1.8523,1.8586,1.8554,1.8566,1.8624,1.8645,1.8646,1.8514,1.8567,1.8663,1.8643,1.8495,1.8406,1.8552,1.8475,1.8734,1.8906,1.9004,1.8983,1.8984,1.8874,1.9192,1.9309,1.9318,1.9355,1.9206,1.9325,1.9131,1.9098,1.9063,1.8978,1.8854,1.8331,1.8325,1.8345,1.8343,1.8385,1.8194,1.8266,1.8438,1.8411,1.8412,1.835,1.8504,1.8555,1.8546,1.8402,1.7586,1.6842,1.6645,1.6893,1.7387,1.9408,2.3257,2.7641,3.0991,3.2548,3.5476,3.2339,2.5713,1.9988,1.5983,1.4658,1.3289,1.3412
