8.5429,8.5086,8.5163,8.5122,8.5289,8.5238,8.4894,8.48,8.5022,8.5181,8.5467,8.5101,8.4525,8.4855,8.4962,8.5339,8.5431,8.5466,8.6072,8.6381,8.6436,8.617,8.606,8.6489,8.6694,8.6732,8.6234,8.5979,8.5917,8.5487,8.567,8.5343,8.4759,8.3994,8.4053,8.4333,8.4308,8.4026,8.4137,8.4369,8.4373,8.3909,8.3834,8.3973,8.4389,8.4619,8.4262,8.4088,8.3938,8.3385,8.3514,8.368,8.4518,8.7004,9.0602,9.3828,9.3708,8.7667,8.2971,8.2652,8.3628,8.4251,8.4153,8.4329,8.4378,8.4896,8.4939,8.4788,8.4549,8.4372,8.4193,8.478,8.4953,8.4233,8.3927,8.4338,8.4518,8.4748,8.434,8.4486,8.4708,8.4847,8.473,8.4416,8.4249,8.4361,8.4558,8.4282,8.414,8.4127,8.4227,8.4788,8.4525,8.4451,8.4244,8.4485,8.4711,8.4953,8.4539,8.4449,8.4917,8.526,8.5291,8.5025,8.5178,8.5355,8.5571,8.5741,8.5423,8.5412,8.5429,8.5753,8.5832,8.557,8.5222,8.4837,8.4776,8.5079,8.4807,8.4352,8.4362,8.4473,8.4502,8.4591,8.4054,8.4076,8.4302,8.4576,8.4477,8.4249,8.4468,8.4341,8.4547,8.4713,8.4547,8.4365,8.46,8.4972,8.496,8.4597,8.4587,8.4744,8.5342,8.5323,8.5287,8.543,8.5575,8.5865,8.6074,8.606,8.5682,8.5833,8.6079,8.6503,8.6388,8.6012,8.6132,8.6196,8.6306,8.6012,8.5559,8.5111,8.5092,8.4948,8.4396,8.3974,8.3872,8.4088,8.4288,8.4317,8.4063,8.3862,8.409,8.447,8.4512,8.4245,8.4083,8.4119,8.433,8.3905,8.3021,8.303,8.3752,8.6177,8.9712,9.2389,9.3583,8.9996,8.5126,8.275,8.2657,8.265,8.3375,8.393,8.4322,8.4302,8.3968,8.4217,8.4047,8.4306,8.415,8.4017,8.4072,8.4467,8.4744,8.4425,8.4232,8.4069,8.4474,8.4636,8.445,8.4282,8.4347,8.42,8.4587,8.4602,8.4237,8.4038,8.4302,8.4702,8.4569,8.4021,8.4485,8.4715,8.5091,8.5284,8.4889,8.5115,8.5534,8.5779,8.5808,8.5649,8.5266,8.5656,8.5942,8.6312,8.615,8.6115,8.6196,8.622,8.6332,8.6008,8.5759,8.5812,8.6038,8.568,8.5129,8.4808,8.477,8.4954,8.5065,8.481,8.4338,8.4394,8.4455,8.505,8.4916,8.4655,8.4449,8.4604,8.5029,8.4716,8.4393,8.4574,8.49,8.5146,8.5136,8.4947,8.4778,8.4977,8.573,8.5767,8.5376,8.5473,8.5806,8.623,8.6725,8.6522,8.6287,8.6488,8.6725,8.6929,8.6871,8.6837,8.6778,8.7074,8.7126,8.6745,8.6203,8.6071,8.6064,8.5955,8.5301,8.4881,8.4955,8.5161,8.5239,8.5163,8.4781,8.4598,8.4954,8.4979,8.4956,8.4578,8.4745,8.4831,8.4993,8.4646,8.3571,8.3541,8.466,8.5507,8.7725,9.1097,9.4957,9.5609,9.0902,8.5107,8.3407,8.3724,8.4274,8.5296,8.5194,8.4951,8.4731,8.4867,8.5104,8.5151,8.4712,8.4835,8.4973,8.5431,8.5438,8.5017,8.4632,8.4779,8.5037,8.557,8.5393,8.5154,8.5056,8.5277,8.5546,8.5507,8.5123,8.5155,8.5365,8.5609,8.5488,8.5378,8.5498,8.5722,8.6102,8.6207,8.6001,8.5811,8.6281,8.6649,8.6813,8.6343,8.6368,8.6811,8.7177,8.7328,8.7278,8.7133,8.742,8.7729,8.766,8.7242,8.7175,8.6974,8.7193,8.7312,8.6886,8.6574,8.6284,8.6551,8.665,8.6244,8.5773,8.5738,8.5878,8.6112,8.6096,8.5621,8.569,8.5777,8.6131,8.577,8.5483,8.5439,8.5654,8.5855,8.5754,8.5547,8.5607,8.5798,8.6359,8.6495,8.5978,8.597,8.6196,8.6593,8.6768,8.6881,8.7047,8.7389,8.7727,8.7638,8.75,8.744,8.7491,8.7924,8.8182,8.8109,8.7836,8.7534,8.7669,8.7757,8.7426,8.6854,8.6665,8.6521,8.6448,8.6105,8.5885,8.6091,8.6381,8.6287,8.5984,8.5702,8.5882,8.6001,8.6249,8.6463,8.6006,8.5948,8.5769,8.5641,8.5507,8.5753,8.7047,9.0529,9.5182,9.8539,9.5973,8.9426,8.5316,8.5711,8.5964,8.6333,8.6698,8.6551,8.7035,8.7212,8.6704,8.6285,8.6603,8.6916,8.697,8.6674,8.6725,8.6662,8.6826,8.676,8.6619,8.6397,8.6508,8.6995,8.7115,8.6949,8.6784,8.6712,8.7143,8.7336,8.7071,8.6836,8.6916,8.7098,8.7508,8.7568,8.7072,8.7247,8.7602,8.7959,8.7879,8.7709,8.7758,8.7984,8.8514,8.8657,8.8204,8.8218,8.8329,8.8554,8.8649,8.8541,8.8622,8.8822,8.8987,8.8982,8.8242,8.815,8.7949,8.8003,8.7909,8.7452,8.7275,8.7223,8.7447,8.7488,8.6789,8.6565,8.6854,8.701,8.7223,8.7127,8.6885,8.6773,8.7298,8.719,8.7274,8.6804,8.6637,8.6887,8.7179,8.7145,8.676,8.6759,8.7172,8.734,8.7337,8.6763,8.6807,8.7276,8.7512,8.7535,8.7019,8.712,8.7296,8.7749,8.7887,8.807,8.8122,8.8043,8.8499,8.8424,8.8349,8.8612,8.8654,8.8972,8.8698,8.833,8.8256,8.7951,8.8266,8.7946,8.745,8.6469,8.6243,8.6665,8.6946,8.6568,8.6153,8.6535,8.6489,8.6652,8.6441,8.6099,8.5989,8.6294,8.6539,8.6517,8.5673,8.5224,8.501,8.5275,8.6151,8.7746,9.1359,9.5978,9.7888,9.2881,8.6509,8.413,8.4702,8.5561,8.6387,8.5893,8.577,8.5911,8.6104,8.6082,8.5662,8.5553,8.5469,8.5838,8.6121,8.585,8.5599,8.5579,8.5751,8.6259,8.5914,8.5801,8.5675,8.6085,8.6382,8.6415,8.6053,8.592,8.6003,8.6252,8.6239,8.6101,8.6083,8.6211,8.6659,8.6737,8.6309,8.643,8.676,8.7014,8.7114,8.6925,8.701,8.7219,8.7638,8.7497,8.7321,8.7304,8.7707,8.8109,8.8222,8.8075,8.7815,8.783,8.793,8.7915,8.754,8.7205,8.7071,8.701,8.7053,8.6548,8.6273,8.6204,8.6254,8.6655,8.6089,8.5836,8.5586,8.6046,8.6056,8.5812,8.5852,8.5815,8.5735,8.5985,8.5999,8.5674,8.5484,8.5836,8.6213,8.6103,8.57,8.5643,8.5964,8.6312,8.6497,8.6217,8.6164,8.5967,8.6134,8.6169,8.619,8.6122,8.5757,8.6025,8.6072,8.576,8.5628,8.5677,8.6022,8.6153,8.6066,8.5562,8.5922,8.6052,8.6456,8.6588,8.6579,8.6704,8.6796,8.699,8.6833,8.6753,8.6883,8.7237,8.7674,8.7366,8.7072,8.6893,8.6839,8.6717,8.6167,8.5385,8.5006,8.5022,8.5235,8.5101,8.4778,8.498,8.5147,8.5199,8.5238,8.4877,8.4531,8.4814,8.5213,8.5135,8.4911,8.4496,8.4063,8.4113,8.4472,8.569,8.8241,9.2516,9.619,9.4371,8.796,8.3254,8.3346,8.424,8.4851,8.5227,8.4925,8.51,8.5231,8.5357,8.4811,8.471,8.4819,8.5115,8.532,8.5152,8.5016,8.4905,8.5079,8.5289,8.5338,8.4973,8.4831,8.5438,8.5561,8.5777,8.5419,8.5331,8.5345,8.5709,8.5518,8.5261,8.5059,8.5399,8.5926,8.6054,8.5814,8.5899,8.6017,8.6305,8.6506,8.6404,8.6353,8.6632,8.7255,8.7365,8.7262,8.7112,8.7128,8.7219,8.7926,8.7869,8.7888,8.7484,8.7703,8.7836,8.736,8.7047,8.6813,8.7115,8.7075,8.6919,8.6407,8.6273,8.645,8.6276,8.6378,8.5743,8.5861,8.6003,8.6303,8.6486,8.614,8.6087,8.6184,8.6463,8.628,8.5923,8.5776,8.5895,8.6317,8.6236,8.5857,8.6093,8.6276,8.6556,8.6648,8.6464,8.6304,8.6116,8.629,8.6738,8.6485,8.6267,8.6174,8.6377,8.644,8.607,8.5881,8.5937,8.6293,8.6372,8.6274,8.5744,8.5956,8.6353,8.6552,8.6906,8.7129,8.6672,8.6964,8.7543,8.7569,8.7417,8.7274,8.7656,8.7886,8.7676,8.7146,8.7171,8.7389,8.6892,8.6555,8.6044,8.5579,8.5729,8.5932,8.6267,8.6103,8.5524,8.5664,8.5988,8.6187,8.5816,8.5645,8.5546,8.5716,8.6096,8.5733,8.4636,8.4171,8.4703,8.5673,8.7562,9.0823,9.4239,9.5567,9.445,8.8839,8.3946,8.3799,8.4361,8.5189,8.5827,8.5576,8.5603,8.5786,8.6078,8.5864,8.5557,8.5725,8.5815,8.6244,8.6175,8.596,8.5517,8.5831,8.6148,8.6402,8.6125,8.5824,8.6058,8.6257,8.6797,8.6209,8.5941,8.5872,8.6199,8.6317,8.6353,8.6189,8.6466,8.6747,8.702,8.6595,8.6595,8.6668,8.6599,8.7252,8.7195,8.6844,8.7083,8.728,8.7969,8.7765,8.7321,8.7633,8.7705,8.8088,8.797,8.7719,8.742,8.7707,8.7816,8.7915,8.7327,8.7005,8.7053,8.7215,8.7006,8.6397,8.6157,8.6094,8.6357,8.6237,8.6153,8.5661,8.5706,8.6131,8.6205,8.5855,8.5673,8.5945,8.6216,8.6304,8.6019,8.5864,8.6104,8.6217,8.6669,8.6484,8.6177,8.6503,8.6609,8.6883,8.6692,8.648,8.6554,8.6875,8.6972,8.705,8.643,8.61,8.6357,8.6628,8.6606,8.5995,8.6409,8.6459,8.663,8.7093,8.7026,8.6758,8.7035,8.7433,8.763,8.7337,8.7523,8.7728,8.7614,8.7482,8.7191,8.6826,8.67,8.6547,8.6011,8.5552,8.509,8.5148,8.5299,8.533,8.5207,8.4849,8.5142,8.5489,8.585,8.5488,8.4886,8.4992,8.5134,8.5275,8.4839,8.4127,8.3946,8.479,8.6295,8.8946,9.269,9.4598,9.5962,9.2216,8.65,8.4052,8.4199,8.5151,8.6197,8.6591,8.5824,8.5888,8.5983,8.6435,8.6216,8.6017,8.5934,8.6529,8.6811,8.6761,8.6193,8.6144,8.6047,8.6569,8.6678,8.655,8.6233,8.6629,8.6567,8.6693,8.6366,8.6223,8.6389,8.6556,8.6623,8.659,8.6114,8.6472,8.7227,8.7422,8.6981,8.6639,8.6819,8.7085,8.7642,8.7816,8.7741,8.7742,8.8026,8.8211,8.8302,8.8003,8.7846,8.8359,8.8715,8.8796,8.8594,8.8364,8.8523,8.8703,8.8447,8.7873,8.7857,8.7685,8.7579,8.7664,8.7125,8.6784,8.6937,8.7133,8.7434,8.6873,8.6662,8.6781,8.7108,8.7054,8.672,8.6573,8.6446,8.6744,8.6961,8.6771,8.6585,8.6484,8.6964,8.7267,8.7085,8.6607,8.662,8.7068,8.7464,8.7219,8.7051,8.6928,8.713,8.7241,8.7038,8.6713,8.6528,8.6713,8.7173,8.6963,8.6582,8.663,8.6573,8.7065,8.7369,8.7217,8.7237,8.751,8.7595,8.7825,8.7626,8.7709,8.7977,8.8239,8.8257,8.7652,8.7459,8.7292,8.745,8.7379,8.6414,8.6097,8.591,8.6067,8.6378,8.6162,8.5975,8.5761,8.5959,8.6119,8.6025,8.561,8.5853,8.6016,8.6199,8.5602,8.4784,8.4539,8.5128,8.6369,8.8474,8.9996,9.3815,9.6732,9.4256,8.8119,8.3675,8.3923,8.4489,8.5422,8.5908,8.5589,8.5454,8.5515,8.5687,8.5654,8.5351,8.5152,8.557,8.591,8.5942,8.575,8.5432,8.54,8.5766,8.5969,8.5759,8.5384,8.5632,8.5856,8.626,8.6078,8.5691,8.5791,8.5931,8.6196,8.5938,8.5556,8.5398,8.6004,8.6481,8.6402,8.6246,8.6179,8.6291,8.6568,8.6896,8.6544,8.6466,8.7048,8.7332,8.7257,8.7404,8.7184,8.7629,8.764,8.765,8.7389,8.7244,8.7671,8.774,8.7547,8.7393,8.6992,8.6686,8.679,8.6728,8.6575,8.6003,8.5978,8.6146,8.6279,8.5751,8.551,8.5683,8.6222,8.597,8.5874,8.5593,8.5742,8.5901,8.602,8.6025,8.5589,8.5513,8.5831,8.6002,8.5916,8.5554,8.5714,8.5791,8.5952,8.5933,8.5747,8.5526,8.5899,8.6084,8.5945,8.5614,8.5564,8.5707,8.6116,8.6093,8.5651,8.5616,8.5821,8.608,8.6112,8.5974,8.5525,8.5553,8.5934,8.6594,8.6478,8.6498,8.6809,8.7009,8.7173,8.7086,8.7221,8.7263,8.7874,8.8083,8.7737,8.7288,8.6889,8.6951,8.6791,8.6125,8.5577,8.5257,8.5814,8.5947,8.5651,8.5363,8.5365,8.5525,8.5743,8.5463,8.5521,8.5531,8.5742,8.6054,8.5942,8.5262,8.4521,8.4659,8.5352,8.7112,8.9608,9.3738,9.6965,9.485,8.8408,8.4057,8.4056,8.4544,8.5514,8.5904,8.5521,8.5381,8.5395,8.596,8.6056,8.5728,8.5384,8.5384,8.5809,8.6185,8.5878,8.534,8.5125,8.5649,8.6015,8.5979,8.5861,8.6037,8.6329,8.6551,8.6348,8.6156,8.5963,8.638,8.6428,8.6591,8.6204,8.6053,8.6212,8.6818,8.683,8.6452,8.639,8.68,8.7116,8.7031,8.6885,8.6772,8.7017,8.75,8.7745,8.7383,8.7215,8.7479,8.799,8.8223,8.8042,8.7777,8.7913,8.8148,8.803,8.7903,8.7159,8.7083,8.7383,8.7162,8.6522,8.6451,8.6269,8.6264,8.6422,8.6057,8.5866,8.6123,8.6288,8.6393,8.6366,8.5898,8.5784,8.5806,8.6079,8.6181,8.5927,8.5969,8.6148,8.6237,8.6099,8.5779,8.5729,8.6076,8.6292,8.6417,8.5955,8.5869,8.6109,8.6258,8.6468,8.6061,8.5958,8.5646,8.5765,8.5901,8.5866,8.5461,8.564,8.5803,8.5713,8.5333,8.5226,8.5257,8.5665,8.6006,8.6084,8.624,8.6236,8.6383,8.6461,8.6892,8.6549,8.6759,8.7053,8.7544,8.6944,8.6446,8.6299,8.6331,8.6143,8.58,8.4998,8.4607,8.5053,8.4998,8.475,8.4318,8.4365,8.4584,8.4754,8.4821,8.4771,8.4507,8.4338,8.4477,8.4644,8.4121,8.3411,8.3284,8.3786,8.4601,8.6586,8.9842,9.4264,9.565,9.0769,8.4557,8.2495,8.3093,8.3414,8.4284,8.4686,8.4118,8.4098,8.4319,8.479,8.4738,8.4212,8.3934,8.4211,8.471,8.4615,8.41,8.4171,8.4255,8.4724,8.4548,8.4451,8.4498,8.4699,8.5015,8.5188,8.5146,8.4876,8.4954,8.53,8.5039,8.4861,8.4755,8.5017,8.5269,8.5423,8.5151,8.5077,8.5415,8.5718,8.5746,8.5464,8.559,8.5729,8.6065,8.6481,8.6412,8.6072,8.6125,8.642,8.6713,8.677,8.6438,8.6627,8.6861,8.6899,8.6599,8.6239,8.6087,8.6179,8.6301,8.59,8.5441,8.5329,8.5183,8.5483,8.5633,8.5033,8.4698,8.478,8.4936,8.5072,8.494,8.476,8.4921,8.5069,8.5213,8.4838,8.4786,8.4994,8.5339,8.5453,8.5206,8.4802,8.4952,8.5246,8.553,8.5532,8.5127,8.5224,8.527,8.5436,8.541,8.4917,8.5045,8.5358,8.5707,8.5414,8.5236,8.4923,8.5266,8.5381,8.5242,8.5128,8.5102,8.4992,8.5136,8.5245,8.5011,8.5179,8.5612,8.6403,8.6546,8.6201,8.5855,8.6263,8.6666,8.6797,8.6615,8.6653,8.6518,8.6634,8.6598,8.6064,8.5888,8.5541,8.5308,8.5188,8.4826,8.4466,8.4627,8.4789,8.4949,8.4813,8.4395,8.4525,8.4798,8.5036,8.473,8.4285,8.4308,8.4303,8.3895,8.3489,8.3722,8.4195,8.6276,9.003,9.3731,9.4595,9.0103,8.4624,8.3051,8.3458,8.353,8.4115,8.4427,8.4581,8.4807,8.435,8.4222,8.4451,8.4548,8.4754,8.4519,8.4308,8.4626,8.4643,8.4671,8.4559,8.4506,8.4398,8.4927,8.5052,8.4747,8.4785,8.4928,8.5095,8.5211,8.4803,8.463,8.4701,8.5075,8.5319,8.5081,8.5191,8.5029,8.5458,8.5734,8.5682,8.5571,8.5684,8.604,8.6488,8.6733,8.6239,8.6509,8.6564,8.7005,8.7135,8.693,8.6843,8.7263,8.731,8.7359,8.7112,8.6563,8.6887,8.6771,8.6767,8.6094,8.5713,8.5722,8.5949,8.5895,8.542,8.5183,8.5409,8.5895,8.5781,8.5184,8.49,8.51,8.5377,8.536,8.4865,8.48,8.4834,8.5039,8.5367,8.5195,8.4956,8.51,8.544,8.5934,8.5713,8.5423,8.5354,8.5418,8.5602,8.5386,8.5087,8.4995,8.5353,8.5327,8.5001,8.4753,8.4928,8.4798,8.5117,8.5084,8.4901,8.4564,8.5131,8.5684,8.592,8.558,8.5243,8.5602,8.6089,8.6209,8.6193,8.5994,8.628,8.6424,8.6267,8.6002,8.5463,8.5275,8.5243,8.502,8.4518,8.4212,8.4222,8.4319,8.4421,8.4442,8.3866,8.4095,8.4368,8.4543,8.4344,8.4119,8.4076,8.4251,8.3932,8.3716,8.2857,8.3016,8.3963,8.6299,8.9749,9.2566,9.3681,8.9677,8.4586,8.2568,8.2527,8.3044,8.4078,8.4772,8.4729,8.4166,8.46,8.4709,8.4679,8.4573,8.4445,8.4774,8.468,8.5067,8.5157,8.4909,8.487,8.4979,8.52,8.5207,8.506,8.5104,8.5202,8.5451,8.5513,8.5392,8.5073,8.5092,8.5445,8.5643,8.5688,8.5257,8.5232,8.5612,8.6093,8.6154,8.5666,8.5921,8.6181,8.6594,8.6531,8.6441,8.6739,8.6972,8.7271,8.7093,8.6784,8.6844,8.7272,8.7474,8.7481,8.689,8.6896,8.7114,8.7203,8.7102,8.6395,8.6115,8.619,8.6258,8.627,8.5825,8.559,8.5628,8.5501,8.5698,8.5474,8.5227,8.5444,8.5729,8.5879,8.57,8.5491,8.5495,8.5693,8.6074,8.594,8.5759,8.557,8.5804,8.618,8.5958,8.5723,8.5668,8.5971,8.6407,8.5887,8.5747,8.5608,8.5825,8.6246,8.6064,8.5657,8.5548,8.5622,8.6119,8.6636,8.6185,8.6015,8.6304,8.6804,8.6885,8.6854,8.662,8.6849,8.7305,8.7332,8.6774,8.664,8.6312,8.6565,8.6539,8.5982,8.5428,8.4984,8.518,8.5291,8.5211,8.4852,8.5009,8.5416,8.5433,8.5184,8.4925,8.4912,8.53,8.5614,8.5061,8.437,8.3988,8.4225,8.5128,8.6115,8.8455,9.206,9.5395,9.4325,8.854,8.3499,8.3079,8.4236,8.5017,8.5411,8.5271,8.5385,8.5296,8.5599,8.5373,8.5193,8.5325,8.5734,8.59,8.5829,8.5396,8.4928,8.5183,8.5912,8.5897,8.5722,8.5437,8.5879,8.6009,8.613,8.5759,8.5239,8.5573,8.5831,8.6201,8.5545,8.5718,8.5768,8.5779,8.5968,8.6193,8.593,8.6004,8.6408,8.6879,8.7036,8.6681,8.6849,8.7199,8.7539,8.775,8.7386,8.7414,8.7694,8.768,8.7947,8.7372,8.7346,8.757,8.7534,8.7703,8.6961,8.67,8.6768,8.6522,8.6691,8.6376,8.6092,8.5936,8.6065,8.6022,8.5626,8.5416,8.5418,8.5797,8.5981,8.5805,8.5475,8.535,8.5566,8.5827,8.5537,8.5265,8.5493,8.5756,8.6212,8.6115,8.5693,8.5956,8.5892,8.6212,8.6102,8.5851,8.5731,8.5999,8.6361,8.6194,8.5715,8.568,8.574,8.6281,8.6575,8.642,8.629,8.6497,8.6892,8.7061,8.6676,8.671,8.6934,8.6989,8.673,8.6374,8.6401,8.6328,8.6122,8.5654,8.4739,8.4644,8.4641,8.4784,8.5028,8.4738,8.4467,8.4621,8.48,8.5111,8.4909,8.4111,8.4075,8.4354,8.4794,8.4043,8.3269,8.3149,8.4077,8.5902,8.8673,9.2065,9.4941,9.4605,8.9989,8.4157,8.2291,8.2751,8.3468,8.4386,8.4687,8.4303,8.4005,8.4033,8.4174,8.4006,8.3637,8.3376,8.3933,8.3711,8.3608,8.2949,8.2697,8.2582,8.2787,8.2966,8.2307,8.2048,8.2123,8.2228,8.2361,8.2471,8.2042,8.2276,8.2739,8.2785,8.2556,8.2263,8.2574,8.3083,8.3573,8.3417,8.3353,8.3544,8.3769,8.4072,8.439,8.4486,8.4623,8.4954,8.5439,8.554,8.5218,8.5326,8.5725,8.6084,8.603,8.5911,8.5774,8.587,8.6222,8.6119,8.5574,8.5292,8.5377,8.5767,8.5572,8.5023,8.465,8.4782,8.4858,8.4936,8.4608,8.4584,8.4679,8.4913,8.516,8.4905,8.4817,8.4805,8.5026,8.531,8.525,8.5187,8.5277,8.5659,8.5704,8.6064,8.57,8.5858,8.6084,8.6506,8.6523,8.6191,8.6173,8.6619,8.7128,8.7117,8.6895,8.6915,8.7198,8.7421,8.7519,8.7337,8.7561,8.7639,8.7982,8.7917,8.7487,8.7129,8.7003,8.7007,8.6559,8.6,8.5459,8.5511,8.6017,8.6102,8.5709,8.5416,8.5547,8.5741,8.5748,8.5487,8.5336,8.5324,8.5744,8.594,8.5687,8.5103,8.4328,8.4741,8.5472,8.6902,8.9284,9.4095,9.7476,9.4632,8.7727,8.3295,8.3876,8.4907,8.5714,8.5631,8.5301,8.5206,8.5297,8.5478,8.5739,8.5369,8.5056,8.5181,8.5274,8.5544,8.5238,8.5146,8.5259,8.5657,8.5799,8.5469,8.5492,8.5796,8.6368,8.6522,8.6043,8.5916,8.5929,8.6234,8.6508,8.6131,8.6022,8.6154,8.6223,8.6652,8.6449,8.6455,8.6342,8.6788,8.6979,8.6895,8.6859,8.6879,8.726,8.7683,8.751,8.7263,8.725,8.725,8.7701,8.7814,8.7671,8.7634,8.7805,8.8016,8.7697,8.7083,8.6674,8.6826,8.6973,8.6605,8.634,8.6054,8.6058,8.633,8.642,8.6089,8.5608,8.5643,8.6191,8.6137,8.5895,8.5604,8.5518,8.5656,8.5841,8.5497,8.5351,8.55,8.5759,8.5692,8.5609,8.5357,8.536,8.5925,8.6072,8.5829,8.5722,8.5609,8.5848,8.6286,8.6132,8.5778,8.6185,8.6592,8.6979,8.6917,8.6713,8.6559,8.6837,8.7348,8.7548,8.7191,8.6924,8.6916,8.7276,8.6679,8.6313,8.5807,8.5469,8.5366,8.552,8.5028,8.4695,8.4951,8.5209,8.5258,8.5007,8.4757,8.4753,8.5094,8.5174,8.4931,8.4591,8.4699,8.4527,8.4232,8.3954,8.3808,8.4936,8.7445,9.1451,9.5498,9.5577,8.9685,8.4434,8.3885,8.4133,8.4129,8.4618,8.4999,8.4991,8.4781,8.4559,8.4719,8.4679,8.5025,8.5041,8.4785,8.4764,8.4757,8.4962,8.5127,8.4736,8.4635,8.5106,8.542,8.5362,8.5203,8.5091,8.5462,8.5659,8.574,8.5147,8.5126,8.5371,8.565,8.5769,8.5653,8.5268,8.53,8.5648,8.5958,8.5884,8.5862,8.5829,8.6222,8.6707,8.6546,8.6237,8.6395,8.668,8.7355,8.7126,8.698,8.6976,8.7413,8.772,8.7662,8.723,8.7099,8.6952,8.7434,8.7166,8.6433,8.6412,8.6303,8.627,8.5946,8.5696,8.5652,8.5607,8.594,8.6029,8.5571,8.538,8.5549,8.6041,8.6143,8.5834,8.5305,8.53,8.5554,8.6055,8.5873,8.5655,8.5726,8.5981,8.615,8.6084,8.5893,8.6072,8.6113,8.6152,8.5871,8.5622,8.5688,8.5866,8.6145,8.5938,8.5599,8.5513,8.5718,8.6015,8.6212,8.6166,8.6402,8.6572,8.6847,8.6935,8.6888,8.6873,8.7178,8.7656,8.7467,8.6911,8.6702,8.6727,8.6705,8.6548,8.6057,8.5353,8.5284,8.5389,8.5578,8.5028,8.4676,8.4771,8.5262,8.5347,8.4901,8.4674,8.4806,8.5088,8.5046,8.4867,8.434,8.4027,8.3838,8.4143,8.4379,8.5519,8.8399,9.2757,9.6183,9.3611,8.6881,8.3254,8.3469,8.4558,8.4832,8.4875,8.4444,8.4714,8.4892,8.4939,8.4481,8.4592,8.4604,8.486,8.4774,8.4751,8.4613,8.4611,8.4901,8.5046,8.4846,8.4872,8.5203,8.5555,8.5662,8.5289,8.5156,8.527,8.5384,8.5763,8.5337,8.5177,8.5204,8.5386,8.5967,8.5812,8.564,8.5754,8.6162,8.6356,8.6165,8.5972,8.603,8.6406,8.6931,8.699,8.652,8.654,8.682,8.7352,8.7136,8.6787,8.6928,8.7217,8.7402,8.7121,8.6672,8.6495,8.6739,8.6505,8.6239,8.5696,8.5405,8.5468,8.5621,8.5574,8.5206,8.5115,8.5185,8.5285,8.5361,8.496,8.4761,8.4979,8.5071,8.5263,8.5155,8.4943,8.5009,8.5051,8.5082,8.4936,8.4783,8.4735,8.5287,8.5517,8.5208,8.4843,8.481,8.4776,8.498,8.4642,8.4555,8.4514,8.4717,8.4825,8.4922,8.4407,8.4223,8.4444,8.4945,8.5018,8.4926,8.4988,8.531,8.5674,8.5732,8.5569,8.5612,8.6106,8.6412,8.6577,8.6101,8.5885,8.594,8.6057,8.6175,8.5585,8.4885,8.4554,8.4469,8.4455,8.3972,8.3686,8.402,8.43,8.4308,8.3801,8.3717,8.3769,8.408,8.428,8.3977,8.3597,8.3713,8.3795,8.3626,8.3065,8.2746,8.3702,8.5831,8.9769,9.355,9.4024,8.9,8.3528,8.2353,8.2892,8.3108,8.378,8.375,8.3998,8.4192,8.3821,8.3709,8.3718,8.41,8.3932,8.3798,8.375,8.3584,8.3856,8.3986,8.3528,8.3491,8.3848,8.4426,8.4369,8.4196,8.408,8.4344,8.4501,8.4569,8.4424,8.4193,8.4234,8.4443,8.4728,8.4625,8.4493,8.4345,8.4702,8.5081,8.4773,8.4701,8.4898,8.5112,8.5379,8.5504,8.5181,8.5299,8.5628,8.5929,8.5891,8.5607,8.5705,8.5957,8.6278,8.625,8.5801,8.5622,8.563,8.5649,8.5874,8.5346,8.5063,8.4652,8.4859,8.4936,8.4111,8.403,8.4059,8.4394,8.4125,8.3811,8.3831,8.3696,8.3905,8.3935,8.3669,8.3436,8.3732,8.4063,8.4282,8.4003,8.3735,8.3773,8.3998,8.4097,8.4017,8.3756,8.3652,8.3981,8.4189,8.381,8.3652,8.3399,8.3431,8.3847,8.38,8.3597,8.3636,8.402,8.4685,8.5004,8.4829,8.4663,8.4776,8.5117,8.5056,8.484,8.493,8.4862,8.5163,8.498,8.4645,8.443,8.4128,8.4165,8.3811,8.318,8.282,8.266,8.2929,8.3015,8.2952,8.2479,8.2684,8.3043,8.3235,8.3035,8.2635,8.2739,8.2784,8.2522,8.1701,8.1395,8.1769,8.3016,8.5851,8.9667,9.3236,9.2737,8.6892,8.1995,8.144,8.1775,8.2421,8.3098,8.3151,8.3085,8.29,8.2922,8.3128,8.3254,8.315,8.2859,8.2935,8.2958,8.3245,8.3401,8.3054,8.2751,8.2992,8.3279,8.3742,8.353,8.3545,8.3633,8.3991,8.3953,8.3703,8.3472,8.3475,8.3917,8.3859,8.3856,8.3801,8.3825,8.4046,8.4263,8.4151,8.4115,8.4213,8.463,8.4806,8.4608,8.4415,8.4537,8.4689,8.528,8.5229,8.503,8.5065,8.5087,8.5221,8.5352,8.5224,8.5183,8.5116,8.5058,8.5242,8.4791,8.4305,8.4271,8.4394,8.4524,8.3908,8.3774,8.354,8.3899,8.3895,8.3569,8.3365,8.3615,8.3919,8.4171,8.3936,8.3509,8.3709,8.3683,8.4149,8.4106,8.3719,8.3825,8.4112,8.4156,8.3952,8.3784,8.3738,8.3985,8.4281,8.399,8.3766,8.3874,8.3987,8.4286,8.3978,8.38,8.3746,8.4281,8.4745,8.5149,8.4905,8.4712,8.4762,8.5162,8.5385,8.5287,8.5273,8.5286,8.5474,8.5347,8.5111,8.4443,8.4068,8.4114,8.3695,8.3731,8.3188,8.3213,8.3528,8.3705,8.353,8.3177,8.3127,8.3288,8.3569,8.3334,8.2919,8.3031,8.3209,8.2846,8.1962,8.2035,8.2819,8.5453,8.9232,9.1042,9.3902,9.1562,8.5495,8.1814,8.1893,8.2306,8.2655,8.3317,8.348,8.36,8.3049,8.3112,8.3137,8.3491,8.3273,8.3249,8.3043,8.3378,8.3364,8.3304,8.3198,8.3065,8.332,8.3728,8.4063,8.4136,8.409,8.3958,8.4221,8.4293,8.4039,8.3774,8.3701,8.392,8.4316,8.401,8.3663,8.4075,8.4354,8.4704,8.4568,8.4448,8.444,8.4637,8.514,8.5137,8.4981,8.5011,8.5483,8.5398,8.5399,8.509,8.5154,8.5546,8.5891,8.5696,8.5376,8.5216,8.5232,8.5404,8.5169,8.4809,8.445,8.4492,8.4217,8.4047,8.3769,8.3605,8.3572,8.3737,8.3857,8.3452,8.3377,8.3456,8.4014,8.394,8.3515,8.3415,8.3554,8.3815,8.3974,8.412,8.3869,8.3933,8.4086,8.4372,8.4238,8.3847,8.3867,8.3955,8.4218,8.4106,8.3821,8.3861,8.4138,8.4087,8.4084,8.3614,8.365,8.3813,8.4198,8.4107,8.3835,8.366,8.4136,8.4498,8.4966,8.4901,8.4613,8.4577,8.5139,8.5336,8.5375,8.5249,8.526,8.5399,8.5397,8.4903,8.4437,8.4105,8.3948,8.3891,8.356,8.3488,8.3152,8.3181,8.3463,8.3338,8.3061,8.306,8.3367,8.3597,8.3453,8.3221,8.2954,8.3015,8.2619,8.185,8.1939,8.2652,8.5139,8.7014,9.0645,9.3612,9.1033,8.5296,8.1518,8.2048,8.2043,8.2499,8.3092,8.3324,8.3398,8.322,8.2937,8.3309,8.3667,8.3727,8.3244,8.3155,8.3269,8.3358,8.3546,8.3473,8.3048,8.3323,8.3696,8.3976,8.3801,8.3683,8.37,8.4078,8.4139,8.3999,8.3939,8.4004,8.4186,8.4273,8.3969,8.3836,8.4135,8.4459,8.4754,8.4427,8.4354,8.4422,8.4721,8.4931,8.5043,8.5152,8.5076,8.5448,8.5734,8.5834,8.5744,8.5636,8.5735,8.5867,8.5828,8.54,8.5168,8.5263,8.5317,8.5519,8.4999,8.4372,8.4164,8.4099,8.4193,8.371,8.3626,8.3817,8.3987,8.3909,8.3818,8.3601,8.3661,8.3795,8.3882,8.355,8.3452,8.3742,8.3693,8.4186,8.4093,8.3732,8.3639,8.403,8.4287,8.3923,8.3807,8.3757,8.3746,8.4096,8.3776,8.3555,8.3231,8.3412,8.3543,8.3494,8.3146,8.2845,8.2998,8.3157,8.3612,8.3397,8.3575,8.3848,8.4411,8.4462,8.4174,8.4278,8.4415,8.5176,8.5398,8.4792,8.4552,8.4434,8.4555,8.4406,8.3884,8.3455,8.3039,8.2974,8.3114,8.2963,8.2612,8.2392,8.295,8.3125,8.2921,8.264,8.2598,8.2976,8.3002,8.2535,8.2184,8.2118,8.1718,8.1863,8.2108,8.3274,8.607,8.8084,9.1608,9.2706,8.7689,8.2576,8.0495,8.1652,8.2203,8.2301,8.2509,8.2697,8.3092,8.3142,8.2683,8.2485,8.2799,8.3071,8.3278,8.296,8.3051,8.316,8.3059,8.3431,8.3329,8.3112,8.3231,8.3504,8.3785,8.3763,8.3402,8.3466,8.3617,8.3693,8.3455,8.3275,8.3595,8.3856,8.4155,8.3918,8.3723,8.3798,8.3748,8.4102,8.4261,8.3992,8.3868,8.4096,8.4743,8.4777,8.4376,8.4445,8.4613,8.4841,8.4931,8.4595,8.4583,8.4595,8.4865,8.488,8.4289,8.397,8.4063,8.385,8.3984,8.3501,8.3053,8.2788,8.2808,8.3114,8.2571,8.2482,8.2256,8.2531,8.2645,8.2314,8.2148,8.2253,8.2501,8.2796,8.2591,8.2526,8.2714,8.3012,8.3186,8.2936,8.2861,8.2612,8.3096,8.3309,8.3258,8.2833,8.2747,8.2818,8.3246,8.2962,8.2801,8.2774,8.3405,8.3766,8.3575,8.3343,8.3211,8.3417,8.3739,8.3987,8.3776,8.3635,8.3737,8.3807,8.3512,8.2987,8.2621,8.2324,8.2364,8.2114,8.1603,8.1449,8.1667,8.1983,8.1939,8.1833,8.1577,8.1597,8.183,8.2127,8.2121,8.1648,8.1455,8.1318,8.0993,8.0795,8.0642,8.1519,8.3992,8.7953,9.184,9.2554,8.7316,8.1704,8.0388,8.0988,8.1062,8.1159,8.1715,8.2105,8.2154,8.1939,8.1705,8.1898,8.2195,8.221,8.1901,8.2006,8.2118,8.2484,8.2714,8.2088,8.2208,8.2298,8.2736,8.3134,8.2829,8.2842,8.2922,8.312,8.3427,8.3265,8.2982,8.304,8.318,8.3486,8.3199,8.312,8.3269,8.3588,8.3952,8.3896,8.3754,8.3703,8.4081,8.4568,8.4372,8.4217,8.418,8.4512,8.493,8.4989,8.4847,8.4778,8.4917,8.5353,8.537,8.4815,8.4733,8.4818,8.4933,8.46,8.4031,8.3742,8.3957,8.4056,8.3845,8.3593,8.3185,8.3325,8.3491,8.3669,8.3357,8.3036,8.3124,8.3169,8.3429,8.3364,8.2978,8.3004,8.321,8.3652,8.3367,8.3115,8.3198,8.3444,8.352,8.3251,8.3252,8.3203,8.3391,8.3678,8.365,8.3211,8.3041,8.3098,8.3332,8.3263,8.295,8.2913,8.3407,8.3813,8.4148,8.4026,8.372,8.3994,8.4396,8.4437,8.441,8.4322,8.4532,8.4571,8.453,8.3956,8.3926,8.3551,8.3341,8.3038,8.2438,8.2105,8.23,8.2449,8.2508,8.2237,8.2022,8.2086,8.2493,8.2694,8.2529,8.2175,8.2341,8.2658,8.2654,8.2094,8.1208,8.1506,8.2329,8.4834,8.8613,9.2339,9.266,8.7577,8.217,8.0863,8.0995,8.1266,8.2242,8.2434,8.2289,8.2225,8.1799,8.2127,8.2215,8.2401,8.1897,8.1955,8.2051,8.1997,8.214,8.159,8.158,8.1886,8.2485,8.2599,8.2326,8.2223,8.2363,8.2774,8.2766,8.2767,8.232,8.23,8.2257,8.268,8.248,8.2308,8.2332,8.2623,8.2913,8.2865,8.2702,8.2768,8.3204,8.3599,8.3364,8.3161,8.3466,8.3738,8.4039,8.4081,8.3675,8.3615,8.3931,8.4338,8.4346,8.3889,8.3801,8.3761,8.3733,8.3671,8.3168,8.2917,8.3097,8.3124,8.308,8.2548,8.2182,8.2363,8.2687,8.2769,8.2597,8.2236,8.2084,8.2188,8.2481,8.2219,8.1997,8.1907,8.2395,8.2537,8.2358,8.2147,8.226,8.2284,8.2769,8.2668,8.2444,8.2368,8.2749,8.2757,8.2707,8.2295,8.2123,8.2345,8.2649,8.2657,8.1958,8.1963,8.2229,8.2429,8.2546,8.2398,8.2542,8.2907,8.3344,8.3554,8.3249,8.3138,8.3523,8.391,8.3941,8.3871,8.3636,8.3726,8.3866,8.3991,8.3343,8.2819,8.2473,8.2046,8.1934,8.173,8.1384,8.1389,8.1624,8.1604,8.1409,8.1194,8.1323,8.1582,8.1601,8.1385,8.1124,8.1153,8.1262,8.1334,8.0469,7.9967,8.038,8.2109,8.529,8.9073,9.2109,8.994,8.4006,8.0277,8.009,8.0273,8.0847,8.1198,8.1287,8.1599,8.1283,8.1359,8.142,8.1557,8.1506,8.1149,8.1035,8.1208,8.15,8.1684,8.1324,8.1359,8.1687,8.1759,8.202,8.1992,8.1766,8.1866,8.1879,8.2175,8.1982,8.1566,8.1529,8.1846,8.1961,8.1842,8.1608,8.1912,8.2222,8.2378,8.2465,8.2217,8.2233,8.2822,8.3231,8.3087,8.273,8.2978,8.3406,8.3526,8.3606,8.3547,8.3423,8.3683,8.4107,8.4163,8.3582,8.3615,8.3653,8.366,8.3435,8.2919,8.2915,8.2765,8.2781,8.2495,8.2141,8.1888,8.2153,8.2188,8.2678,8.2399,8.2034,8.2017,8.215,8.2453,8.2381,8.2174,8.2231,8.2878,8.3067,8.2843,8.2348,8.2311,8.2704,8.306,8.2983,8.2621,8.2637,8.2794,8.3217,8.3055,8.2553,8.2398,8.2593,8.2898,8.2818,8.2521,8.2442,8.2442,8.2737,8.2559,8.2068,8.2066,8.2721,8.3104,8.3466,8.31,8.3079,8.309,8.3153,8.3354,8.338,8.3386,8.3813,8.4035,8.3897,8.3624,8.2926,8.2862,8.2875,8.2648,8.1885,8.1547,8.1607,8.1823,8.195,8.1563,8.1206,8.1351,8.1537,8.1611,8.1751,8.1214,8.106,8.1309,8.142,8.1189,8.0357,8.0145,8.0559,8.1982,8.4138,8.749,9.0832,9.071,8.5435,8.0461,7.9568,8.02,8.0663,8.1473,8.1961,8.1578,8.1272,8.1502,8.1645,8.1866,8.1395,8.1216,8.1501,8.1752,8.1803,8.1282,8.1175,8.1247,8.157,8.1664,8.1527,8.1658,8.1844,8.205,8.2273,8.219,8.2023,8.2178,8.249,8.2861,8.2578,8.2451,8.2673,8.2753,8.3313,8.331,8.283,8.2997,8.3366,8.3737,8.3893,8.3694,8.3821,8.4223,8.4555,8.4682,8.4266,8.4174,8.4271,8.4606,8.4822,8.4442,8.4293,8.4209,8.4245,8.4158,8.3513,8.32,8.3076,8.3084,8.3003,8.2518,8.2107,8.2015,8.2382,8.2602,8.2342,8.1906,8.1905,8.2028,8.228,8.1841,8.1548,8.1526,8.1963,8.2259,8.2249,8.1976,8.1765,8.2056,8.2254,8.2203,8.2002,8.2066,8.2146,8.2206,8.2363,8.197,8.1744,8.1856,8.2162,8.2385,8.1986,8.2102,8.2634,8.2922,8.3007,8.2727,8.2508,8.2706,8.3323,8.3555,8.3078,8.2934,8.2634,8.3019,8.3066,8.2644,8.186,8.1444,8.1354,8.1306,8.1009,8.0569,8.0646,8.0903,8.1058,8.0709,8.0463,8.0659,8.0804,8.105,8.0753,8.0538,8.0648,8.0585,8.0411,7.9806,7.9839,8.0511,8.2819,8.6427,8.9814,9.017,8.5877,8.1051,7.9408,7.9706,7.9819,8.06,8.0999,8.1232,8.1411,8.1054,8.1102,8.1142,8.1454,8.1543,8.12,8.1023,8.115,8.1321,8.1475,8.1062,8.0908,8.1259,8.1685,8.1651,8.1498,8.1554,8.1733,8.1832,8.1957,8.156,8.1399,8.1409,8.1513,8.1789,8.1891,8.1817,8.208,8.2293,8.2346,8.2367,8.2026,8.2057,8.2463,8.2912,8.2999,8.2739,8.274,8.2981,8.3146,8.3037,8.2746,8.2775,8.3064,8.3263,8.311,8.2767,8.2346,8.2342,8.2389,8.2494,8.193,8.1406,8.1186,8.1441,8.1325,8.103,8.0738,8.0858,8.1207,8.1257,8.0984,8.0853,8.0609,8.097,8.1144,8.1085,8.0661,8.0669,8.1082,8.1308,8.1154,8.0871,8.0891,8.095,8.1378,8.1244,8.0959,8.0885,8.113,8.1321,8.1038,8.0796,8.074,8.1128,8.1772,8.1499,8.1497,8.1186,8.1336,8.1657,8.1615,8.1402,8.1318,8.1307,8.1518,8.1178,8.0705,8.0195,8.0132,8.0067,7.9472,7.9284,7.8885,7.9001,7.921,7.9443,7.9133,7.8994,7.9186,7.9343,7.9419,7.9376,7.9193,7.9338,7.9791,7.9521,7.8976,7.8759,7.9279,8.111,8.4518,8.6718,9.0443,9.0924,8.5858,8.067,7.9056,7.9365,7.9778,8.1063,8.1289,8.1367,8.0917,8.0626,8.0939,8.1463,8.1393,8.112,8.1053,8.1237,8.1329,8.1217,8.1162,8.0942,8.1118,8.1405,8.1825,8.2027,8.1758,8.1737,8.212,8.2215,8.188,8.1783,8.1863,8.1934,8.1969,8.2011,8.173,8.1997,8.228,8.2615,8.2626,8.2352,8.2466,8.2711,8.3346,8.3301,8.3048,8.3034,8.3262,8.3555,8.3806,8.3456,8.3454,8.3953,8.4256,8.4244,8.3829,8.3343,8.3459,8.3394,8.3295,8.2888,8.2487,8.2565,8.2657,8.2424,8.2185,8.1738,8.162,8.2036,8.2044,8.1774,8.1585,8.1755,8.1912,8.168,8.154,8.1462,8.1348,8.1694,8.1694,8.1781,8.1353,8.1301,8.1481,8.1806,8.157,8.1254,8.1325,8.1519,8.1731,8.1475,8.1038,8.1072,8.1412,8.1294,8.1444,8.1601,8.1802,8.2138,8.246,8.2604,8.239,8.2315,8.264,8.2904,8.2816,8.2442,8.2221,8.2272,8.2333,8.2122,8.1551,8.0897,8.0859,8.0989,8.1031,8.0947,8.066,8.0942,8.1373,8.1473,8.1047,8.0619,8.0741,8.1197,8.1312,8.1153,8.0663,8.0234,7.9728,8.005,8.0496,8.2128,8.5855,8.9854,9.1989,8.7204,8.0863,7.8686,7.93,7.972,8.0127,8.0273,7.9861,8.005,8.0355,8.0613,7.9912,7.9836,8.0069,8.0597,8.0448,8.0173,7.9812,7.9887,8.023,8.0439,7.9983,8.016,8.0264,8.0425,8.0992,8.0604,8.0291,8.0276,8.0574,8.0796,8.0271,8.0136,8.0359,8.0566,8.0562,8.0524,8.0332,8.0508,8.1029,8.1197,8.1271,8.1197,8.1441,8.1742,8.1781,8.1953,8.1697,8.1736,8.2134,8.2568,8.2482,8.1962,8.1972,8.2307,8.246,8.2214,8.1838,8.1704,8.1463,8.15,8.1309,8.0834,8.0795,8.0881,8.1104,8.0868,8.041,8.0281,8.0419,8.0841,8.0916,8.0744,8.0504,8.0389,8.0753,8.0621,8.0653,8.0431,8.0731,8.0658,8.1085,8.0751,8.0738,8.088,8.126,8.1383,8.1279,8.0672,8.0575,8.0959,8.1024,8.0851,8.0625,8.0689,8.101,8.1332,8.1554,8.1569,8.1689,8.1906,8.2205,8.2132,8.1838,8.1932,8.2245,8.258,8.2604,8.2016,8.1662,8.1622,8.1407,8.117,8.0309,7.9904,7.9992,8.0265,8.0244,8.0042,7.9938,7.9973,8.0029,8.0119,8.0074,7.9811,8.0134,8.0311,8.0288,7.999,7.955,7.9111,7.906,7.9607,8.0513,8.2498,8.6493,9.0571,9.096,8.4902,7.9313,7.8426,7.9203,8.0045,7.9981,7.9888,8.0218,8.0303,8.0378,8.0574,8.0369,8.021,8.0244,8.0789,8.07,8.0517,8.034,8.0463,8.0754,8.1011,8.0432,8.0367,8.0509,8.0952,8.1184,8.0917,8.0924,8.1037,8.1134,8.1218,8.101,8.0708,8.0734,8.1161,8.15,8.1511,8.1116,8.1167,8.1603,8.1849,8.1759,8.1559,8.194,8.2266,8.2261,8.207,8.2004,8.2119,8.2476,8.286,8.2928,8.2865,8.2628,8.2671,8.2944,8.2772,8.2275,8.2051,8.2066,8.2091,8.1708,8.1276,8.0812,8.0861,8.1048,8.0906,8.0588,8.0535,8.0454,8.0643,8.0776,8.0646,8.0407,8.0132,8.0538,8.0729,8.0523,8.0313,8.0372,8.0767,8.0913,8.0956,8.0616,8.0619,8.0866,8.1013,8.0806,8.0424,8.0394,8.0659,8.0939,8.0743,8.0473,8.0183,8.0444,8.0849,8.0979,8.1077,8.1048,8.1292,8.1437,8.1465,8.1277,8.1391,8.1737,8.2166,8.1709,8.1413,8.138,8.116,8.1184,8.0952,8.0246,7.9766,7.9729,7.9864,8.0121,7.9619,7.9342,7.9257,7.9558,7.9791,7.9347,7.9282,7.9375,7.9562,7.9632,7.9598,7.9468,7.8607,7.8491,7.8834,7.9243,8.0819,8.4327,8.8197,8.9842,8.5589,7.9705,7.7418,7.8397,7.9223,7.9499,7.94,7.9751,7.9801,7.9855,7.9623,7.9302,7.9455,7.9597,7.9992,8.0226,8.0153,7.9784,7.9988,8.0213,8.0234,7.9964,7.9861,8.0111,8.0741,8.0549,8.0144,8.0131,8.0223,8.0385,8.0595,8.0254,8.0279,8.0299,8.0984,8.1056,8.1036,8.0908,8.0853,8.1187,8.138,8.1349,8.1248,8.1426,8.1706,8.2348,8.2089,8.1944,8.177,8.2121,8.2331,8.2163,8.1971,8.1802,8.1881,8.2251,8.2307,8.1614,8.1096,8.1082,8.0929,8.0786,8.0271,8.007,8.0361,8.038,8.0246,7.9777,7.9528,7.9873,8.0178,8.0308,8.0077,7.9781,7.9438,7.9947,8.0249,8.0202,8.016,8.0139,8.0225,8.0288,8.0255,8.0253,8.0155,8.0694,8.1084,8.0552,8.0164,8.0415,8.0473,8.0793,8.0763,8.057,8.1059,8.124,8.1694,8.1535,8.1021,8.1033,8.1643,8.1929,8.2,8.1634,8.1607,8.1808,8.184,8.1163,8.0686,8.0391,8.0181,8.0439,8.0236,7.9961,7.9906,7.9982,8.0134,8.0309,7.9771,7.9567,7.9616,8.0016,8.0343,7.9507,7.9331,7.9428,7.9278,7.9057,7.8881,7.9513,8.1641,8.5455,8.8925,8.9407,8.7203,8.1647,7.7986,7.8107,7.8665,7.9,7.9421,7.9632,7.9998,7.9923,7.9609,7.965,7.9841,8.0111,8.0126,7.9974,7.9989,8.0175,8.0237,8.0213,7.9971,7.981,7.9909,8.0346,8.0696,8.0537,8.0294,8.0124,8.0566,8.075,8.0388,8.012,8.0367,8.0814,8.1024,8.0864,8.0732,8.0863,8.1217,8.1331,8.1154,8.107,8.0984,8.1277,8.1467,8.1373,8.1375,8.1493,8.1584,8.2102,8.1845,8.1835,8.2,8.2203,8.2394,8.1923,8.1533,8.1346,8.1464,8.1573,8.1332,8.0884,8.0606,8.0379,8.0745,8.0577,8.0146,8.0379,8.0487,8.0717,8.0516,8.0443,8.0121,8.0215,8.0473,8.0451,8.0137,8.0191,8.0548,8.0825,8.0838,8.0596,8.0419,8.0503,8.0605,8.0756,8.0587,8.0264,8.0272,8.0628,8.1267,8.1322,8.0907,8.121,8.1376,8.1495,8.1395,8.1277,8.1691,8.1799,8.206,8.1919,8.1565,8.1313,8.1181,8.1241,8.0873,8.0076,7.9582,7.9732,8.003,8.0133,7.9584,7.95,7.9738,8.0053,7.9973,7.9877,7.98,7.9866,8.0155,8.0221,7.984,7.9318,7.8865,7.9193,8.0042,8.1003,8.3277,8.7296,9.1079,8.9704,8.3459,7.8534,7.8641,7.9333,8.0315,8.0436,8.0246,8.039,8.0696,8.1059,8.0889,8.0481,8.0478,8.0727,8.0998,8.1087,8.065,8.0597,8.0612,8.0958,8.1083,8.096,8.0977,8.1582,8.1794,8.1597,8.1224,8.1206,8.1382,8.1515,8.1454,8.13,8.1248,8.1289,8.1547,8.1832,8.1448,8.1339,8.1624,8.1889,8.2094,8.1812,8.1765,8.2093,8.2402,8.2455,8.2327,8.2351,8.2519,8.2691,8.3142,8.2747,8.2529,8.2479,8.2782,8.2856,8.2438,8.208,8.1888,8.1881,8.1907,8.1544,8.1113,8.0952,8.1126,8.1357,8.0979,8.0707,8.0616,8.0681,8.0875,8.1032,8.043,8.0328,8.0523,8.0702,8.0998,8.037,8.0518,8.057,8.0708,8.0827,8.0611,8.0457,8.0725,8.1089,8.1049,8.0621,8.0162,8.0188,8.0547,8.11,8.1019,8.099,8.0808,8.1593,8.1533,8.1348,8.1451,8.1411,8.2059,8.2486,8.2308,8.1783,8.1509,8.1591,8.1435,8.0771,8.0308,8.0036,7.996,7.9919,7.9925,7.9628,7.9347,7.9469,7.9828,7.9781,7.9467,7.9352,7.9626,7.9857,7.9876,7.9357,7.9167,7.8737,7.8382,7.8674,7.9048,8.0861,8.238,8.6307,9.0491,8.9245,8.2949,7.8336,7.8241,7.8784,7.9211,7.9167,7.9435,7.9462,7.9838,7.9588,7.9303,7.9313,7.9553,7.9584,7.9335,7.9165,7.9132,7.9315,7.9563,7.9704,7.944,7.9597,7.9822,8.0457,8.0484,8.0336,8.0319,8.0454,8.0805,8.0674,8.0076,7.9911,8.0327,8.0682,8.0592,8.014,8.0294,8.0424,8.0651,8.1057,8.0672,8.0659,8.1215,8.1493,8.1719,8.1693,8.1558,8.1669,8.2165,8.2572,8.2195,8.2236,8.214,8.2482,8.2411,8.2151,8.1934,8.1709,8.1639,8.18,8.17,8.1225,8.0683,8.0605,8.0839,8.0614,8.034,8.0332,8.0449,8.0682,8.0682,8.0335,8.0413,8.0466,8.0782,8.0645,8.0483,8.0523,8.0845,8.1244,8.1285,8.08,8.0403,8.0707,8.1138,8.1261,8.0856,8.0765,8.08,8.0899,8.0845,8.0521,8.0431,8.0521,8.0595,8.0834,8.0807,8.1193,8.1567,8.1898,8.2163,8.2041,8.1794,8.1566,8.2373,8.2496,8.2604,8.2027,8.1872,8.2005,8.1966,8.1683,8.0878,8.0486,8.0519,8.0481,8.0293,8.0215,8.0084,8.0095,8.022,8.0253,8.0062,7.9846,7.988,8.0288,8.0172,7.979,7.9559,7.9687,7.9243,7.9101,7.894,7.9836,8.2554,8.6476,9.0322,8.9719,8.6907,8.1025,7.7991,7.8862,7.8931,7.9321,7.9428,7.9819,7.9953,7.9744,7.96,7.9714,8.001,8.026,7.9965,7.9705,7.9806,8.0197,8.0194,7.9893,7.9761,8.0042,8.04,8.0995,8.1061,8.0786,8.0868,8.1074,8.1152,8.1144,8.0752,8.0523,8.0801,8.1077,8.0925,8.0623,8.0886,8.1163,8.1432,8.1528,8.1214,8.1128,8.14,8.1837,8.2081,8.2037,8.2053,8.2142,8.2305,8.2784,8.2664,8.2527,8.2691,8.3015,8.32,8.2774,8.2394,8.244,8.2354,8.2361,8.1847,8.1381,8.1247,8.123,8.1344,8.1056,8.0814,8.0821,8.081,8.1123,8.0761
