2.9737,2.9869,2.9935,2.9907,2.9864,2.9698,2.9311,2.9,2.8921,2.8777,2.8655,2.8411,2.8083,2.7907,2.7731,2.7763,2.7503,2.7422,2.7045,2.7223,2.7576,2.7359,2.7295,2.7211,2.7275,2.742,2.729,2.7277,2.7465,2.6976,2.7243,2.759,2.7445,2.7313,2.7427,2.6959,2.7204,2.7423,2.722,2.7485,2.7247,2.7389,2.7359,2.7314,2.7353,2.7172,2.7221,2.7167,2.7325,2.7215,2.6923,2.7263,2.7262,2.7271,2.7295,2.7114,2.7483,2.7565,2.7208,2.7192,2.7292,2.7236,2.725,2.7092,2.6706,2.7735,2.7358,2.7487,2.7492,2.7385,2.7566,2.7709,2.7945,2.768,2.8334,2.844,2.8561,2.8412,2.8366,2.8111,2.7526,2.7065,2.7566,2.7147,2.7407,2.7104,2.683,2.679,2.6867,2.6908,2.7137,2.6802,2.6677,2.7199,2.6783,2.6822,2.6612,2.6784,2.6671,2.7088,2.6423,2.5395,2.4908,2.5969,2.8538,3.248,3.7047,4.1044,4.3478,4.2858,3.9336,3.3667,3.1527,2.9656,2.8639,2.7952,2.7201,2.7113,2.7022,2.6957,2.7094,2.6936,2.7192,2.6633,2.6753,2.6889,2.638,2.7157,2.6519,2.6937,2.6724,2.7084,2.7118,2.7014,2.6849,2.7059,2.7008,2.7012,2.6882,2.6946,2.7163,2.7476,2.7328,2.6944,2.6856,2.7708,2.7415,2.7415,2.747,2.7541,2.7714,2.7859,2.7662,2.7949,2.7783,2.8448,2.8633,2.833,2.8975,2.908,2.9239,2.9362,2.9386,2.9198,2.939,2.9713,2.981,2.9762,2.9712,3.0034,2.9728,2.9598,2.9484,2.8868,2.8878,2.8866,2.9001,2.8108,2.785,2.7784,2.7724,2.7844,2.7021,2.6618,2.7004,2.7347,2.7089,2.703,2.7038,2.7052,2.701,2.6778,2.7097,2.7232,2.6955,2.7267,2.7165,2.6939,2.7301,2.7195,2.7395,2.6832,2.7161,2.7124,2.7058,2.6895,2.7323,2.694,2.6993,2.7554,2.7127,2.7089,2.7173,2.7273,2.6949,2.6945,2.6896,2.7181,2.7259,2.6991,2.7403,2.7248,2.7377,2.7458,2.7235,2.7107,2.7521,2.7304,2.7659,2.747,2.7842,2.7976,2.7808,2.7537,2.8205,2.8542,2.7881,2.8262,2.7893,2.7655,2.708,2.7026,2.6814,2.7077,2.7508,2.6937,2.6722,2.6694,2.6544,2.6572,2.6763,2.6966,2.6902,2.6877,2.6809,2.6651,2.666,2.6408,2.6247,2.5451,2.4974,2.5214,2.7482,3.0881,3.5234,3.9586,4.2742,4.333,4.1052,3.5802,3.1203,2.9248,2.7717,2.7371,2.7416,2.7623,2.6994,2.704,2.6759,2.6713,2.6968,2.6874,2.6603,2.7002,2.6391,2.643,2.6772,2.6878,2.6376,2.6667,2.6869,2.7171,2.7048,2.6941,2.692,2.727,2.713,2.6837,2.6833,2.7109,2.756,2.7346,2.7302,2.6959,2.7108,2.7316,2.7688,2.7733,2.7794,2.7822,2.8064,2.8056,2.8145,2.8032,2.8096,2.8825,2.9028,2.8976,2.9138,2.9193,2.9094,2.9583,2.9452,2.966,2.9888,2.9703,2.9607,2.976,3.0008,2.9499,2.8986,2.8792,2.8542,2.8691,2.8594,2.8173,2.7909,2.7648,2.7568,2.7473,2.7464,2.7106,2.6847,2.6886,2.6975,2.7129,2.7492,2.7205,2.7046,2.6916,2.705,2.6955,2.7016,2.6946,2.7358,2.6761,2.7106,2.7077,2.7419,2.6983,2.7211,2.7078,2.6888,2.6961,2.7096,2.712,2.706,2.7274,2.7245,2.7169,2.6727,2.6977,2.7011,2.6959,2.7129,2.7292,2.7024,2.7241,2.711,2.7064,2.712,2.6623,2.7153,2.6811,2.6815,2.7031,2.7055,2.7006,2.7159,2.7368,2.6898,2.7656,2.766,2.7774,2.7577,2.7615,2.7957,2.8321,2.8072,2.8215,2.7993,2.7925,2.7694,2.7395,2.6852,2.7064,2.7059,2.6907,2.6806,2.6484,2.6682,2.6743,2.6594,2.6344,2.6606,2.6664,2.6742,2.6706,2.6661,2.6783,2.6409,2.6285,2.5681,2.4973,2.4894,2.6241,2.9411,3.3537,3.7754,4.2194,4.3624,4.2521,3.8093,3.2692,3.0947,2.8774,2.7823,2.7557,2.6988,2.6904,2.6589,2.6694,2.6582,2.6812,2.6842,2.6294,2.6591,2.6376,2.6577,2.6839,2.6251,2.6621,2.6852,2.6667,2.6929,2.6793,2.6476,2.6575,2.655,2.7125,2.6701,2.6707,2.666,2.7025,2.7047,2.7147,2.6935,2.7006,2.715,2.7493,2.7227,2.6957,2.744,2.7297,2.7793,2.7943,2.8088,2.8449,2.8006,2.7986,2.8377,2.8532,2.871,2.8767,2.8885,2.9142,2.9188,2.9228,2.9754,2.9385,2.9354,2.9494,2.9374,2.936,2.891,2.8865,2.8498,2.7878,2.7754,2.7639,2.767,2.7453,2.7301,2.6959,2.6987,2.6788,2.6853,2.6515,2.6469,2.6885,2.7244,2.6685,2.6631,2.6536,2.6672,2.6702,2.6835,2.7047,2.664,2.6709,2.6827,2.7257,2.6445,2.6822,2.705,2.6655,2.6796,2.6694,2.7014,2.7191,2.6639,2.6672,2.6806,2.6527,2.6662,2.6666,2.6616,2.7024,2.6752,2.7136,2.7205,2.6735,2.6953,2.6899,2.7045,2.6955,2.6766,2.6586,2.6747,2.6627,2.6772,2.6733,2.6886,2.678,2.6778,2.647,2.6913,2.6817,2.6938,2.6746,2.6628,2.6847,2.6807,2.6715,2.6711,2.6635,2.6402,2.7078,2.6839,2.6689,2.6934,2.7093,2.7134,2.6952,2.7005,2.7215,2.7261,2.7502,2.7728,2.7974,2.7722,2.7831,2.7897,2.779,2.7697,2.7204,2.74,2.6688,2.642,2.6395,2.6527,2.6697,2.6777,2.6394,2.6348,2.6114,2.5933,2.6369,2.6742,2.6957,2.6012,2.6328,2.7108,2.6706,2.5521,2.4873,2.4547,2.5726,2.8865,3.2924,3.7563,4.1357,4.3675,4.2883,3.9058,3.3503,3.165,2.878,2.7863,2.7338,2.6826,2.7298,2.6819,2.6827,2.673,2.6534,2.6567,2.6678,2.638,2.6784,2.6216,2.6226,2.6365,2.6552,2.6345,2.6709,2.642,2.6756,2.6826,2.6727,2.6679,2.6738,2.6569,2.7075,2.667,2.7072,2.6895,2.6974,2.6939,2.6877,2.7333,2.7087,2.7383,2.7598,2.7116,2.7717,2.8046,2.7705,2.7885,2.8106,2.8148,2.849,2.885,2.883,2.8525,2.9004,2.9026,2.9241,2.9383,2.948,2.9874,2.9691,2.9725,2.9644,2.9372,2.9797,2.9543,2.9132,2.9152,2.869,2.82,2.819,2.7682,2.7483,2.7678,2.7248,2.7308,2.7014,2.7481,2.7078,2.6891,2.6922,2.728,2.7066,2.6854,2.6769,2.6883,2.7362,2.6871,2.7035,2.6875,2.7149,2.6923,2.6926,2.7226,2.6846,2.733,2.7225,2.6926,2.6963,2.7307,2.6799,2.7174,2.706,2.6866,2.7083,2.6829,2.7291,2.7183,2.7314,2.6867,2.7069,2.7262,2.6817,2.7277,2.7181,2.6982,2.6969,2.6973,2.7204,2.7104,2.719,2.7172,2.7002,2.707,2.6935,2.7035,2.6893,2.6867,2.7035,2.7042,2.6721,2.7253,2.7124,2.7009,2.7123,2.6948,2.672,2.7258,2.7415,2.6901,2.7077,2.7038,2.726,2.726,2.7541,2.7319,2.7244,2.7442,2.7554,2.7649,2.8124,2.8406,2.8113,2.7928,2.828,2.8089,2.7865,2.7603,2.7407,2.7131,2.682,2.7032,2.7234,2.7041,2.6911,2.6902,2.7013,2.7112,2.6458,2.6878,2.6846,2.7001,2.6797,2.6864,2.6886,2.6681,2.5819,2.5145,2.4832,2.5825,2.9114,3.2889,3.7594,4.1789,4.4262,4.3485,4.2282,3.7094,3.2393,2.9393,2.8312,2.8203,2.7894,2.7291,2.7132,2.7196,2.6499,2.7307,2.7103,2.7019,2.6869,2.7145,2.6585,2.6892,2.6777,2.6814,2.6971,2.7014,2.7177,2.7258,2.7168,2.7209,2.6869,2.7195,2.7282,2.7118,2.7174,2.7205,2.7573,2.7625,2.7586,2.7828,2.7813,2.7706,2.7835,2.7788,2.7942,2.8223,2.7853,2.8154,2.8413,2.8513,2.8752,2.8669,2.8855,2.9038,2.9309,2.9741,2.9696,3.0028,2.9883,3.0195,3.0062,3.0342,3.0477,3.0356,3.0179,2.9981,2.9945,2.9712,2.9508,2.8977,2.8842,2.871,2.8298,2.806,2.8064,2.8054,2.7927,2.7708,2.7527,2.7676,2.7674,2.7375,2.7602,2.7316,2.7131,2.7117,2.7812,2.7369,2.7299,2.7593,2.7513,2.7485,2.7339,2.7505,2.7517,2.7257,2.76,2.7539,2.7489,2.7282,2.7562,2.7767,2.7452,2.7878,2.7663,2.7589,2.7454,2.7186,2.755,2.7652,2.7487,2.7692,2.7372,2.7335,2.7296,2.7147,2.781,2.7441,2.7645,2.7415,2.7705,2.7463,2.7737,2.7625,2.7329,2.7279,2.7154,2.7784,2.7555,2.7428,2.7212,2.7519,2.7605,2.7434,2.7361,2.7287,2.7176,2.7198,2.7557,2.7358,2.7778,2.7798,2.7721,2.7907,2.7823,2.8044,2.7793,2.8004,2.818,2.8583,2.8619,2.847,2.8625,2.8528,2.8019,2.7926,2.756,2.7293,2.7717,2.7422,2.7347,2.6993,2.6917,2.7137,2.6872,2.6822,2.7186,2.7287,2.7319,2.7083,2.7017,2.6735,2.6878,2.72,2.673,2.5678,2.5544,2.5185,2.7671,3.1209,3.5695,4.0348,4.3453,4.3842,4.1026,3.8473,3.3054,3.0167,2.8925,2.8315,2.7592,2.752,2.7439,2.7414,2.7213,2.7539,2.7212,2.6933,2.7337,2.7124,2.6906,2.7052,2.7369,2.7033,2.7154,2.7034,2.7121,2.7145,2.7284,2.7614,2.752,2.7338,2.74,2.7006,2.7489,2.7442,2.7545,2.7353,2.7659,2.7627,2.7857,2.8002,2.778,2.8098,2.7859,2.7963,2.8289,2.8424,2.8385,2.888,2.8711,2.9022,2.8673,2.8943,2.9635,2.9605,2.9904,2.9734,3.0274,2.9994,3.0011,3.0586,3.0443,3.0218,3.0407,2.9952,2.9887,3.0034,2.9426,2.8941,2.9198,2.8751,2.8683,2.841,2.7987,2.7807,2.7703,2.7492,2.7789,2.7738,2.7297,2.7756,2.7114,2.7418,2.7484,2.7522,2.7335,2.7382,2.7811,2.7459,2.7252,2.7387,2.7425,2.7548,2.7267,2.7502,2.7643,2.736,2.7668,2.7436,2.7535,2.7478,2.7573,2.7578,2.7539,2.7297,2.7482,2.7789,2.7364,2.756,2.7573,2.7604,2.7677,2.7465,2.7561,2.7687,2.7235,2.7401,2.733,2.7597,2.7767,2.7343,2.7404,2.7493,2.7286,2.7317,2.7431,2.738,2.7948,2.8127,2.7949,2.7547,2.7689,2.8294,2.8496,2.8671,2.8666,2.8518,2.8474,2.8338,2.8496,2.806,2.8011,2.7863,2.7396,2.7238,2.7067,2.7396,2.7534,2.7226,2.7493,2.7506,2.7129,2.7215,2.6968,2.714,2.7404,2.721,2.7012,2.6899,2.7218,2.6409,2.6016,2.5603,2.5611,2.7929,2.9683,3.3666,3.8117,4.1941,4.3741,4.3097,3.9326,3.362,3.0516,2.9011,2.8024,2.8092,2.7959,2.7864,2.7589,2.7341,2.7262,2.7007,2.6952,2.7142,2.732,2.6982,2.7239,2.7495,2.7305,2.7271,2.7183,2.769,2.747,2.7321,2.7282,2.7119,2.7752,2.7553,2.75,2.7419,2.74,2.7853,2.7867,2.7998,2.8055,2.7994,2.7756,2.7852,2.8005,2.8208,2.8463,2.8398,2.8422,2.8562,2.8526,2.9071,2.924,2.9145,2.9517,2.9475,2.9428,2.9905,3.005,3.0348,3.0288,3.033,3.0533,3.0746,3.0176,3.0373,3.0263,2.9786,3.0207,2.9244,2.8912,2.9062,2.9048,2.8873,2.8315,2.7842,2.8061,2.7663,2.7689,2.7797,2.7844,2.7683,2.7559,2.7764,2.7378,2.6937,2.7935,2.752,2.7764,2.7859,2.7287,2.7413,2.7484,2.7516,2.7546,2.7869,2.7738,2.7341,2.7309,2.7459,2.7855,2.7951,2.7843,2.7361,2.7374,2.7705,2.7489,2.7765,2.7783,2.7733,2.7404,2.7281,2.7601,2.7932,2.7596,2.7745,2.7853,2.7393,2.7671,2.7457,2.7448,2.7594,2.7789,2.7806,2.7253,2.7445,2.7142,2.7515,2.716,2.7373,2.7828,2.7699,2.7644,2.768,2.7577,2.7467,2.722,2.7437,2.7382,2.744,2.7376,2.7318,2.7765,2.7369,2.8238,2.7638,2.8,2.7997,2.7869,2.7969,2.7923,2.8196,2.9008,2.8773,2.8496,2.8519,2.8377,2.8375,2.8043,2.8237,2.7661,2.7336,2.7105,2.7543,2.7341,2.7018,2.73,2.7208,2.7281,2.7339,2.7323,2.6929,2.7266,2.7054,2.7247,2.7346,2.6977,2.6548,2.5614,2.5423,2.5685,2.8494,3.0436,3.4353,3.9257,4.2996,4.4297,4.2786,3.8695,3.3211,3.0176,2.8894,2.8335,2.7853,2.7824,2.7667,2.7431,2.711,2.7104,2.7103,2.7049,2.6764,2.7121,2.7095,2.7302,2.7372,2.7283,2.7649,2.7541,2.6881,2.7229,2.7406,2.7594,2.754,2.7522,2.7494,2.7241,2.7171,2.7558,2.7658,2.7892,2.7623,2.7612,2.7849,2.7589,2.7657,2.7655,2.7955,2.8473,2.8285,2.8242,2.8721,2.8374,2.9015,2.8914,2.9087,2.9225,2.906,2.9732,2.9921,2.9853,2.9982,3.0119,2.9987,3.022,3.0576,3.0449,3.0352,3.0243,3.0167,2.9753,2.9482,2.9392,2.9374,2.8573,2.8451,2.8141,2.7843,2.8172,2.7909,2.7701,2.7951,2.7855,2.7506,2.7496,2.7832,2.7446,2.744,2.7441,2.7388,2.7178,2.7362,2.7502,2.7592,2.7648,2.7402,2.7544,2.7539,2.729,2.727,2.7602,2.7548,2.7487,2.7536,2.7463,2.7579,2.7713,2.72,2.7477,2.7883,2.7446,2.7868,2.7466,2.7521,2.7257,2.7485,2.745,2.734,2.7579,2.7259,2.7452,2.7084,2.7341,2.7579,2.7518,2.7511,2.7286,2.7652,2.7593,2.7121,2.7127,2.7287,2.7507,2.7494,2.7419,2.7037,2.7102,2.6885,2.7148,2.7265,2.7631,2.7259,2.7182,2.7286,2.7378,2.7141,2.7313,2.7138,2.7128,2.7499,2.7297,2.7641,2.761,2.743,2.75,2.7743,2.7523,2.7577,2.7974,2.8072,2.8113,2.8027,2.8387,2.8637,2.8307,2.8308,2.8234,2.7616,2.7074,2.7218,2.7547,2.6789,2.7084,2.7156,2.6984,2.6706,2.6747,2.7008,2.6904,2.6848,2.6725,2.6948,2.6927,2.6978,2.6753,2.7249,2.5865,2.5186,2.5119,2.6497,3.037,3.4626,3.8681,4.2115,4.3598,4.1946,3.7522,3.2066,2.9511,2.8714,2.7866,2.7774,2.7478,2.7367,2.7408,2.7244,2.7037,2.6889,2.7197,2.6963,2.6627,2.6622,2.6608,2.6944,2.7057,2.675,2.6994,2.7055,2.6881,2.724,2.7137,2.6834,2.7262,2.7396,2.7363,2.7179,2.719,2.6896,2.719,2.7375,2.7911,2.7293,2.7231,2.761,2.7676,2.739,2.7892,2.772,2.7916,2.833,2.7918,2.8556,2.8781,2.8929,2.9073,2.871,2.9071,2.9349,2.9797,2.9732,2.9597,2.9958,2.9817,3.0271,2.9713,2.9849,2.9867,2.9899,2.92,2.9253,2.8984,2.8911,2.8315,2.8145,2.7975,2.7945,2.7971,2.7506,2.7443,2.7386,2.6993,2.7282,2.698,2.6929,2.729,2.6772,2.7109,2.7366,2.6904,2.683,2.6586,2.7393,2.7147,2.7023,2.7251,2.6799,2.6818,2.6875,2.6806,2.737,2.7391,2.7176,2.7066,2.6843,2.7125,2.6973,2.7194,2.6936,2.7256,2.746,2.7222,2.7091,2.6972,2.6872,2.7126,2.7114,2.7202,2.7212,2.7214,2.6827,2.6995,2.6818,2.7122,2.7091,2.7021,2.6911,2.6707,2.7138,2.6851,2.7102,2.7535,2.7428,2.7404,2.7285,2.739,2.7344,2.7825,2.8069,2.7969,2.7941,2.8324,2.8129,2.7926,2.7679,2.7318,2.6727,2.6987,2.737,2.7228,2.6781,2.6514,2.6551,2.661,2.6528,2.6426,2.6545,2.6537,2.698,2.692,2.6581,2.6585,2.6819,2.6526,2.6509,2.5854,2.4909,2.5073,2.6525,2.9341,3.3512,3.8356,4.2114,4.3279,4.2034,4.0122,3.4578,3.0333,2.8734,2.8111,2.7888,2.7135,2.7182,2.7123,2.6711,2.6563,2.6806,2.6554,2.6871,2.6924,2.6664,2.6565,2.6525,2.6727,2.6838,2.6703,2.6929,2.7059,2.6963,2.6717,2.6844,2.6845,2.7167,2.6895,2.683,2.7129,2.7097,2.7235,2.7089,2.7101,2.7319,2.7122,2.7333,2.7456,2.7477,2.7928,2.7994,2.8126,2.8028,2.8082,2.8381,2.8543,2.877,2.8616,2.9274,2.9422,2.9425,2.9408,2.9615,2.9801,3.0036,2.9844,2.9894,3.0048,2.9871,2.981,2.985,2.9427,2.9032,2.89,2.9001,2.8245,2.8361,2.8157,2.7871,2.7473,2.7661,2.728,2.7171,2.7198,2.6914,2.7275,2.7084,2.7365,2.7245,2.6955,2.7364,2.7295,2.7578,2.7267,2.7024,2.7187,2.6993,2.6975,2.6935,2.7121,2.7087,2.7334,2.7265,2.7346,2.7171,2.7245,2.7177,2.7574,2.7009,2.6978,2.7264,2.7523,2.7292,2.7152,2.7132,2.7301,2.7176,2.7103,2.7136,2.7226,2.7247,2.7293,2.7353,2.7246,2.7218,2.7318,2.722,2.7134,2.7289,2.7215,2.7326,2.7284,2.7157,2.7068,2.7243,2.7641,2.7469,2.7458,2.7499,2.7569,2.7375,2.7529,2.8343,2.8424,2.836,2.8332,2.7962,2.837,2.8053,2.8,2.7862,2.7532,2.7251,2.714,2.7058,2.6722,2.675,2.7273,2.7112,2.6953,2.6892,2.6743,2.6971,2.6726,2.6983,2.6901,2.6846,2.6936,2.6492,2.5804,2.5335,2.4968,2.5731,2.8134,3.2141,3.6002,4.0918,4.3999,4.3652,4.1202,3.8139,3.3125,2.9206,2.8326,2.7872,2.7769,2.7224,2.737,2.7079,2.6846,2.6909,2.7025,2.6962,2.7057,2.698,2.7167,2.6775,2.6855,2.6885,2.6878,2.6878,2.7272,2.7041,2.7333,2.7215,2.7276,2.732,2.7193,2.7713,2.7484,2.7443,2.7392,2.7125,2.7315,2.7537,2.7732,2.7552,2.7509,2.7888,2.7755,2.7639,2.8117,2.8219,2.8347,2.8703,2.87,2.9154,2.9214,2.9294,2.9244,2.9489,2.9521,2.9843,2.962,2.9998,3.032,3.0151,3.0165,3.0097,3.016,2.9814,2.9585,2.97,2.9425,2.8814,2.8364,2.8632,2.8193,2.821,2.8024,2.7845,2.7614,2.7401,2.7163,2.7563,2.7448,2.7591,2.7583,2.7265,2.7173,2.6864,2.7404,2.7454,2.7464,2.7472,2.7587,2.7466,2.7414,2.7292,2.7336,2.7411,2.753,2.7243,2.7355,2.7341,2.7311,2.7223,2.7004,2.7752,2.7483,2.7649,2.7185,2.7175,2.7596,2.7362,2.7547,2.7146,2.7097,2.7403,2.7653,2.7657,2.7518,2.7265,2.7002,2.7288,2.7467,2.7426,2.7228,2.7411,2.7363,2.7274,2.7255,2.7234,2.7267,2.7334,2.7454,2.7335,2.7764,2.7752,2.7772,2.7982,2.7956,2.8022,2.8191,2.8219,2.8093,2.8275,2.8291,2.7988,2.7989,2.7659,2.7513,2.7202,2.6854,2.6985,2.7115,2.6948,2.7158,2.69,2.6829,2.6839,2.6753,2.6711,2.6881,2.6629,2.676,2.7074,2.6736,2.6489,2.5871,2.4986,2.498,2.6505,2.9352,3.3645,3.8055,4.2009,4.379,4.3057,3.9032,3.3469,3.0201,2.9297,2.841,2.7652,2.7335,2.6978,2.7127,2.6926,2.6797,2.6754,2.6383,2.6679,2.7031,2.6703,2.6715,2.6767,2.6677,2.6993,2.6663,2.664,2.6737,2.6826,2.6878,2.7109,2.6953,2.7027,2.6851,2.6526,2.711,2.7194,2.7199,2.743,2.7058,2.7001,2.6978,2.7481,2.7586,2.7714,2.7696,2.7945,2.7846,2.7841,2.7964,2.8129,2.8178,2.8534,2.8748,2.8688,2.916,2.9287,2.8997,2.9457,2.9984,2.9734,2.9788,2.9761,2.999,2.9636,2.9678,2.9282,2.949,2.9173,2.8891,2.8522,2.8157,2.7868,2.7754,2.7676,2.7632,2.7346,2.7201,2.7214,2.7158,2.7047,2.7098,2.7022,2.7222,2.7067,2.7237,2.6968,2.6943,2.6735,2.6709,2.6989,2.7317,2.6776,2.6855,2.6956,2.6658,2.7303,2.7161,2.6982,2.7053,2.7012,2.6828,2.68,2.7085,2.7206,2.7018,2.7,2.6892,2.6867,2.7205,2.6724,2.6953,2.7472,2.727,2.7056,2.688,2.6829,2.6737,2.6984,2.7027,2.701,2.6822,2.6907,2.6831,2.7123,2.6887,2.6979,2.7218,2.7509,2.72,2.7292,2.7066,2.7482,2.7815,2.7923,2.8296,2.8057,2.8096,2.8003,2.7808,2.7612,2.7218,2.6978,2.6759,2.6928,2.6653,2.6611,2.628,2.6277,2.6504,2.6433,2.6594,2.6611,2.6563,2.6498,2.6463,2.6533,2.6441,2.6424,2.6216,2.5555,2.4821,2.465,2.5852,2.8319,3.3067,3.6967,4.1022,4.3143,4.3018,4.0401,3.4906,3.0755,2.8882,2.7934,2.7266,2.7304,2.6733,2.6704,2.6882,2.6366,2.641,2.6212,2.656,2.6502,2.6611,2.6254,2.6433,2.6312,2.6218,2.629,2.6712,2.6599,2.6696,2.6574,2.6354,2.6547,2.6536,2.6732,2.6947,2.6986,2.6627,2.6847,2.637,2.7122,2.705,2.7023,2.7197,2.7058,2.7258,2.7346,2.7426,2.7498,2.7638,2.7533,2.7962,2.8114,2.8249,2.867,2.8428,2.8828,2.8944,2.9082,2.9028,2.9299,2.947,2.9391,2.9547,2.9583,2.9475,2.9506,2.8819,2.8814,2.8725,2.876,2.8291,2.7847,2.8053,2.7116,2.7251,2.7125,2.6717,2.7091,2.7006,2.704,2.6351,2.6465,2.6655,2.6475,2.6556,2.6676,2.6778,2.6518,2.6474,2.6675,2.6793,2.6729,2.6595,2.6648,2.6545,2.6612,2.6589,2.644,2.6683,2.6488,2.6614,2.6758,2.6771,2.6862,2.706,2.6934,2.6593,2.6615,2.6784,2.6533,2.6656,2.6812,2.6781,2.6784,2.6614,2.6724,2.6743,2.7261,2.7225,2.7235,2.7365,2.704,2.7728,2.7715,2.7674,2.7926,2.7932,2.7662,2.7639,2.7497,2.7509,2.7078,2.682,2.6668,2.6462,2.6345,2.6557,2.6803,2.6468,2.6316,2.6625,2.6112,2.6216,2.6421,2.6461,2.6663,2.641,2.622,2.6136,2.6553,2.5235,2.4496,2.4803,2.5622,2.8479,3.2955,3.7007,4.0467,4.2803,4.2113,3.8096,3.2943,2.9889,2.8461,2.7736,2.7197,2.6943,2.6899,2.6668,2.6335,2.6367,2.6803,2.6301,2.6257,2.6381,2.6274,2.6331,2.6509,2.6483,2.6206,2.6586,2.652,2.6673,2.691,2.6863,2.6847,2.6501,2.6611,2.6517,2.675,2.6746,2.6664,2.6604,2.6995,2.7105,2.7075,2.6998,2.7147,2.7407,2.7447,2.7431,2.7417,2.7903,2.8157,2.8234,2.8029,2.8019,2.8374,2.8672,2.8741,2.9056,2.9016,2.9126,2.9194,2.9591,2.9474,2.9417,2.9603,3.0027,2.9841,2.9405,2.8985,2.8777,2.8819,2.8384,2.8124,2.8179,2.8045,2.7462,2.7228,2.7188,2.6972,2.6798,2.7007,2.6952,2.6958,2.689,2.6996,2.7015,2.7182,2.6838,2.7044,2.6735,2.6834,2.7013,2.6739,2.6838,2.6837,2.6867,2.6966,2.6916,2.6571,2.6962,2.7023,2.6969,2.6807,2.6998,2.6743,2.7237,2.694,2.718,2.7268,2.7055,2.6879,2.7039,2.684,2.6952,2.729,2.7025,2.7123,2.7238,2.6904,2.6881,2.6874,2.7291,2.6978,2.7061,2.6975,2.6814,2.7486,2.7501,2.7469,2.7358,2.7519,2.7641,2.805,2.8168,2.7822,2.8343,2.8336,2.8207,2.7926,2.7585,2.7461,2.7263,2.7279,2.698,2.7082,2.6636,2.664,2.6888,2.7105,2.6396,2.675,2.6793,2.6785,2.68,2.6519,2.6599,2.687,2.6634,2.66,2.5681,2.5227,2.5033,2.5757,2.8424,3.1897,3.6784,4.0906,4.3558,4.3762,4.023,3.4913,3.0683,2.883,2.8207,2.7937,2.7638,2.7253,2.6865,2.6854,2.7142,2.6811,2.6499,2.6709,2.6772,2.6739,2.673,2.6764,2.6663,2.6975,2.6681,2.7316,2.6934,2.6999,2.7032,2.6839,2.6821,2.6927,2.6898,2.7049,2.7233,2.7234,2.7081,2.7384,2.7675,2.7438,2.7448,2.7417,2.735,2.7524,2.7781,2.762,2.7851,2.788,2.8063,2.8284,2.8627,2.8464,2.8795,2.8864,2.9103,2.9168,2.9192,2.9565,3.0042,2.9658,2.999,2.995,3.0121,2.9814,2.9923,2.9782,2.9153,2.8781,2.8794,2.8976,2.8686,2.8429,2.8035,2.7822,2.7471,2.7606,2.7208,2.7571,2.7178,2.7155,2.7113,2.7701,2.7531,2.7094,2.6997,2.719,2.7244,2.6703,2.7421,2.7652,2.7569,2.7155,2.7294,2.7407,2.7425,2.6932,2.7106,2.7573,2.6905,2.7091,2.7239,2.7219,2.7404,2.7841,2.7343,2.7015,2.7423,2.701,2.7305,2.7098,2.7352,2.7109,2.7041,2.774,2.7268,2.6867,2.7308,2.7269,2.6726,2.7322,2.7109,2.726,2.7165,2.6915,2.7764,2.7321,2.7623,2.7155,2.7253,2.7056,2.6295,2.7237,2.7568,2.7527,2.73,2.7067,2.7265,2.7226,2.732,2.7317,2.7287,2.7091,2.7464,2.721,2.7997,2.7562,2.7672,2.7356,2.7737,2.8174,2.8033,2.7826,2.8469,2.8167,2.7934,2.82,2.8343,2.7789,2.7602,2.7149,2.7735,2.793,2.7192,2.696,2.6996,2.7274,2.6786,2.6886,2.6765,2.736,2.7239,2.7143,2.6987,2.6657,2.6549,2.6939,2.6898,2.68,2.5697,2.5295,2.4963,2.7568,3.133,3.5664,4.0006,4.3316,4.4113,4.2334,3.6748,3.3892,3.0837,2.9185,2.799,2.7699,2.7651,2.6651,2.7413,2.7408,2.7065,2.6724,2.7289,2.6287,2.7186,2.7054,2.6835,2.6928,2.7259,2.7363,2.6663,2.6888,2.731,2.7626,2.7245,2.6648,2.7282,2.7475,2.7069,2.7481,2.7535,2.7253,2.7617,2.7761,2.7376,2.7624,2.745,2.7507,2.8533,2.809,2.8116,2.8106,2.817,2.7648,2.8564,2.9001,2.911,2.9215,2.8877,2.8889,2.8976,2.9697,3.0378,3.0311,3.0185,3.0157,3.0382,3.0442,3.0478,3.0394,2.9665,2.9531,2.9708,2.9474,2.9906,2.9143,2.9153,2.8783,2.8352,2.8399,2.8034,2.7984,2.7101,2.7882,2.8035,2.755,2.7282,2.7575,2.7798,2.7989,2.7207,2.777,2.7853,2.7287,2.7209,2.7851,2.7567,2.7629,2.6671,2.7306,2.7871,2.8068,2.7408,2.7672,2.7673,2.7705,2.7671,2.6835,2.762,2.7748,2.743,2.7231,2.7147,2.7972,2.7657,2.7383,2.7485,2.7638,2.717,2.7178,2.7829,2.769,2.7507,2.7496,2.7389,2.7278,2.7333,2.7337,2.7838,2.7528,2.6995,2.7757,2.8031,2.7225,2.7414,2.7462,2.7567,2.7,2.7108,2.765,2.7746,2.7752,2.77,2.7731,2.8168,2.7996,2.7902,2.793,2.8517,2.8233,2.8143,2.835,2.8645,2.8756,2.8322,2.7494,2.7853,2.7188,2.725,2.735,2.7089,2.6784,2.6738,2.7018,2.6959,2.6646,2.7155,2.7613,2.6789,2.6965,2.7078,2.6728,2.6974,2.6975,2.5813,2.5383,2.5645,2.6167,2.9133,3.3205,3.785,4.1835,4.3364,4.2531,3.8357,3.2892,3.0198,2.8904,2.8195,2.7663,2.6979,2.7496,2.7493,2.7492,2.7093,2.6896,2.6912,2.6925,2.6818,2.7146,2.7062,2.7091,2.7123,2.6805,2.6393,2.7225,2.6697,2.7535,2.7435,2.6519,2.7128,2.7455,2.7251,2.6932,2.7388,2.7142,2.7106,2.7159,2.7379,2.7624,2.8043,2.7491,2.7359,2.7673,2.779,2.8098,2.7926,2.801,2.8262,2.8843,2.8567,2.8866,2.876,2.8783,2.9258,2.9544,2.9816,2.9596,2.9915,2.9706,2.9629,2.9691,3.0342,3.0192,2.9787,2.954,2.9229,2.8946,2.8318,2.857,2.8768,2.8294,2.8279,2.7743,2.7691,2.7158,2.7245,2.7594,2.732,2.7367,2.717,2.6982,2.712,2.712,2.7067,2.6878,2.7278,2.6635,2.6966,2.6861,2.7571,2.7289,2.7078,2.7539,2.7028,2.7092,2.683,2.6799,2.7308,2.6462,2.7497,2.699,2.6624,2.6772,2.735,2.7484,2.7047,2.7459,2.6702,2.7233,2.7156,2.7106,2.7188,2.7503,2.6719,2.6644,2.7056,2.751,2.6768,2.6643,2.7764,2.7731,2.7087,2.7763,2.7402,2.7722,2.7663,2.8014,2.8283,2.7692,2.7879,2.8461,2.8214,2.7696,2.7888,2.7483,2.679,2.7532,2.7184,2.6925,2.6783,2.7008,2.6575,2.6294,2.6741,2.6627,2.6767,2.6887,2.6887,2.6284,2.6547,2.6883,2.6769,2.6451,2.6492,2.5337,2.508,2.4661,2.6726,3.0371,3.4908,3.8659,4.1874,4.287,4.1031,3.6171,3.1648,2.938,2.8369,2.7477,2.6651,2.7124,2.7044,2.6854,2.6751,2.6576,2.6449,2.6927,2.686,2.6729,2.6383,2.6867,2.6619,2.6397,2.6781,2.6529,2.6095,2.7542,2.6906,2.671,2.6646,2.7233,2.7004,2.6738,2.6771,2.6706,2.7409,2.724,2.7215,2.7374,2.6717,2.7114,2.741,2.739,2.7861,2.7841,2.7603,2.7878,2.8041,2.8227,2.8267,2.888,2.8602,2.8543,2.8884,2.893,2.9158,2.937,2.9619,2.9571,3.0115,2.979,2.9979,2.9848,2.948,2.9528,2.928,2.8835,2.9062,2.8544,2.8134,2.8008,2.7624,2.719,2.7398,2.7484,2.7421,2.7237,2.7112,2.6969,2.6887,2.7059,2.7326,2.7253,2.6853,2.6827,2.6671,2.676,2.6965,2.6962,2.7212,2.7033,2.6734,2.6795,2.6794,2.6896,2.6925,2.6522,2.7053,2.7097,2.7199,2.7093,2.6966,2.6981,2.7259,2.7065,2.7175,2.7143,2.7441,2.7204,2.6977,2.6838,2.662,2.7298,2.7544,2.6995,2.6806,2.7307,2.7087,2.692,2.713,2.6843,2.6963,2.7265,2.7286,2.713,2.7401,2.7188,2.7208,2.7267,2.7411,2.816,2.8179,2.799,2.813,2.812,2.8152,2.8022,2.7983,2.7844,2.7572,2.7534,2.6713,2.657,2.6814,2.6997,2.6537,2.6483,2.6638,2.6662,2.702,2.6744,2.6718,2.6707,2.6415,2.6678,2.6714,2.7246,2.6095,2.5147,2.4918,2.519,2.747,3.0375,3.5155,3.9647,4.2899,4.3556,4.104,3.6373,3.1553,2.9135,2.8028,2.8092,2.7182,2.7162,2.6952,2.6968,2.6949,2.6973,2.693,2.678,2.6485,2.6623,2.6425,2.6881,2.6373,2.6585,2.6829,2.6586,2.6923,2.7345,2.686,2.703,2.6993,2.6729,2.7154,2.673,2.703,2.6914,2.6791,2.73,2.7357,2.6848,2.7742,2.744,2.7379,2.7407,2.7444,2.7564,2.8032,2.8073,2.7941,2.8382,2.8387,2.8353,2.8559,2.8584,2.9012,2.9277,2.9282,2.971,2.944,2.9676,2.9641,3.0063,3.0177,2.9581,2.9596,2.9569,2.9471,2.9155,2.8665,2.8715,2.8239,2.834,2.8012,2.7299,2.8044,2.7515,2.7554,2.7452,2.7291,2.7111,2.6823,2.7135,2.7475,2.6953,2.7087,2.7232,2.699,2.7212,2.7145,2.699,2.7044,2.6865,2.7121,2.7005,2.7055,2.727,2.7192,2.7189,2.7147,2.7165,2.7082,2.71,2.7324,2.7333,2.7179,2.7046,2.7264,2.6736,2.7482,2.705,2.6823,2.6847,2.7029,2.7096,2.744,2.6983,2.7067,2.7165,2.7098,2.7423,2.6898,2.7098,2.6955,2.7058,2.6817,2.7372,2.7473,2.7418,2.7669,2.7357,2.7333,2.7611,2.7683,2.8126,2.8287,2.8331,2.7932,2.8457,2.8294,2.7862,2.7424,2.7872,2.772,2.7077,2.6825,2.6866,2.6802,2.7165,2.7264,2.6538,2.6536,2.6818,2.6973,2.6535,2.6949,2.6707,2.673,2.6987,2.6926,2.6491,2.5607,2.5156,2.4949,2.6863,2.9827,3.5074,4.0039,4.3346,4.3478,4.1881,3.6884,3.2197,3.0697,2.853,2.7971,2.7537,2.7223,2.6821,2.6923,2.6939,2.6742,2.693,2.7196,2.6654,2.6987,2.7018,2.6817,2.6411,2.6953,2.693,2.7089,2.6911,2.6361,2.7091,2.731,2.7179,2.6885,2.7124,2.7192,2.7123,2.6816,2.736,2.686,2.7593,2.727,2.7093,2.7642,2.746,2.7665,2.7792,2.7853,2.776,2.7972,2.835,2.8303,2.7824,2.8162,2.8715,2.9013,2.8757,2.8907,2.884,2.9454,2.9514,3.0118,3.0052,3.0027,3.0236,2.9907,2.9596,3.0145,2.9431,2.9428,2.9103,2.8769,2.8434,2.8427,2.8157,2.805,2.7344,2.7686,2.7691,2.6682,2.7528,2.7533,2.7755,2.7223,2.7159,2.7278,2.7367,2.723,2.7429,2.7112,2.7134,2.6952,2.7015,2.7145,2.7441,2.6929,2.75,2.6778,2.7441,2.7151,2.7119,2.6927,2.7331,2.7602,2.7413,2.7241,2.7457,2.7102,2.7031,2.717,2.7084,2.743,2.7074,2.6744,2.7505,2.773,2.7381,2.693,2.6673,2.7397,2.7136,2.702,2.7283,2.7261,2.6785,2.6943,2.6862,2.7208,2.7167,2.748,2.7738,2.7898,2.747,2.7332,2.7412,2.8397,2.7993,2.8134,2.7974,2.8113,2.8296,2.8294,2.8257,2.7929,2.7404,2.7062,2.7079,2.689,2.6782,2.7046,2.695,2.6915,2.6734,2.6933,2.706,2.6728,2.6728,2.6764,2.7069,2.6702,2.6585,2.669,2.6446,2.5436,2.4871,2.5298,2.7587,3.0877,3.5269,4.0158,4.2053,4.3194,4.1908,3.7834,3.3056,2.9651,2.8576,2.7308,2.7596,2.7234,2.7012,2.6933,2.6603,2.6834,2.6722,2.6455,2.655,2.6744,2.6614,2.6405,2.6376,2.6817,2.6527,2.6807,2.647,2.6752,2.6787,2.6365,2.6544,2.7035,2.7361,2.6939,2.6701,2.6587,2.6841,2.683,2.7257,2.7271,2.734,2.7251,2.6971,2.7423,2.774,2.7706,2.7247,2.8071,2.7915,2.7831,2.8321,2.8315,2.8027,2.8601,2.8762,2.9028,2.9226,2.9174,2.9326,2.9455,2.9762,2.9367,2.9586,2.959,2.94,2.9543,2.9107,2.8686,2.9172,2.8398,2.8477,2.7795,2.7694,2.7657,2.7225,2.7347,2.7103,2.7087,2.6988,2.6659,2.689,2.6779,2.6719,2.6457,2.6687,2.6962,2.6863,2.6725,2.675,2.6277,2.6748,2.6676,2.6704,2.6871,2.6807,2.6864,2.6824,2.6761,2.68,2.6618,2.6639,2.6896,2.6838,2.6838,2.6797,2.6994,2.6927,2.6613,2.7041,2.6091,2.6303,2.6637,2.7337,2.7176,2.6501,2.6875,2.6501,2.6494,2.6714,2.6925,2.6769,2.7225,2.6951,2.7312,2.7044,2.7263,2.7338,2.789,2.7506,2.776,2.7719,2.741,2.7652,2.8018,2.7109,2.6925,2.6545,2.652,2.625,2.6339,2.6647,2.6714,2.6348,2.6465,2.6379,2.615,2.6287,2.608,2.6117,2.6772,2.6835,2.621,2.6248,2.6003,2.4915,2.4529,2.4591,2.7157,3.0808,3.5422,3.9316,4.2298,4.2714,4.1409,3.7316,3.2376,2.9559,2.8101,2.7366,2.7017,2.6608,2.6838,2.6942,2.6619,2.6575,2.619,2.6019,2.5848,2.6555,2.6317,2.6753,2.63,2.6537,2.6303,2.6131,2.6199,2.6646,2.6287,2.6726,2.6714,2.6719,2.69,2.6803,2.6483,2.6713,2.655,2.6796,2.6658,2.6877,2.6949,2.7288,2.7634,2.7276,2.7084,2.7076,2.73,2.8014,2.7755,2.7996,2.7944,2.8289,2.8471,2.8892,2.8745,2.8617,2.9082,2.8824,2.9493,2.9366,2.9411,2.9756,2.9492,2.9575,2.9422,2.936,2.9298,2.8934,2.8393,2.8212,2.7852,2.7538,2.7963,2.7625,2.7623,2.7044,2.7092,2.6775,2.6733,2.7142,2.7036,2.6723,2.6759,2.7039,2.7026,2.6661,2.6433,2.7029,2.6784,2.697,2.6631,2.6658,2.6998,2.6631,2.6758,2.693,2.6887,2.697,2.6986,2.6664,2.686,2.6884,2.6713,2.6878,2.7078,2.6824,2.6732,2.6762,2.7043,2.672,2.6718,2.6744,2.698,2.6654,2.683,2.7203,2.6848,2.6759,2.6734,2.6773,2.6975,2.7329,2.7062,2.6999,2.7265,2.7359,2.726,2.7353,2.7568,2.7681,2.8031,2.8175,2.8228,2.8384,2.7737,2.7548,2.7642,2.7316,2.6883,2.7139,2.6966,2.6282,2.6264,2.6874,2.6759,2.6577,2.6665,2.6188,2.6723,2.6736,2.6752,2.6336,2.6608,2.6871,2.6729,2.5872,2.4687,2.4989,2.5737,2.806,3.2167,3.6428,4.0794,4.3606,4.3057,4.1937,3.7381,3.175,2.9379,2.8268,2.7716,2.7614,2.6963,2.6709,2.6658,2.6806,2.6643,2.687,2.6907,2.6172,2.6469,2.6346,2.6414,2.6808,2.6977,2.657,2.6603,2.6808,2.665,2.7013,2.6959,2.6903,2.6969,2.6663,2.6679,2.675,2.7181,2.6804,2.6923,2.6936,2.7163,2.7278,2.733,2.7583,2.7755,2.7631,2.7859,2.7799,2.7265,2.8035,2.8341,2.8444,2.8366,2.8542,2.8963,2.9336,2.8783,2.9111,2.9497,2.9478,3.0174,2.9799,2.9673,2.9321,2.9747,2.9811,2.9605,2.949,2.9401,2.8771,2.8597,2.8004,2.8136,2.7879,2.799,2.7755,2.7584,2.7519,2.718,2.7228,2.6821,2.7495,2.7223,2.6933,2.7072,2.6856,2.6759,2.694,2.7121,2.71,2.7373,2.7143,2.701,2.7182,2.7414,2.6974,2.7307,2.7395,2.7061,2.7098,2.7129,2.7305,2.6647,2.6974,2.7055,2.7868,2.755,2.7098,2.7217,2.6813,2.6177,2.6885,2.7296,2.7669,2.7634,2.6831,2.6901,2.7369,2.7368,2.6973,2.7189,2.6814,2.7167,2.7438,2.7258,2.7314,2.7234,2.7491,2.7734,2.8089,2.8021,2.8229,2.8018,2.7982,2.8448,2.8452,2.8495,2.8172,2.7282,2.7607,2.7019,2.683,2.73,2.6616,2.663,2.6934,2.6985,2.6708,2.6738,2.6722,2.6675,2.702,2.6728,2.6946,2.6923,2.6633,2.6657,2.6041,2.4604,2.545,2.6137,2.8781,3.3438,3.8197,4.2162,4.3941,4.3704,4.1088,3.5441,3.1121,2.9285,2.8488,2.7812,2.7434,2.7212,2.6776,2.7004,2.6587,2.6481,2.7178,2.7218,2.6866,2.6618,2.6689,2.6717,2.6684,2.6863,2.6808,2.7049,2.6846,2.6867,2.687,2.7128,2.6957,2.6367,2.6454,2.7515,2.7372,2.749,2.6731,2.7217,2.7283,2.7595,2.7439,2.7177,2.7625,2.778,2.7276,2.7716,2.7958,2.7791,2.8315,2.8218,2.8279,2.8622,2.8869,2.898,2.8946,2.9105,2.9461,2.9526,2.9557,3.0053,2.9683,2.9656,2.9953,2.9638,2.9937,2.9633,2.9298,2.91,2.8783,2.8328,2.8272,2.7918,2.7828,2.7874,2.7727,2.7577,2.7316,2.7394,2.7256,2.7189,2.7139,2.6933,2.6965,2.7421,2.7203,2.6974,2.6977,2.7235,2.7436,2.69,2.6951,2.7315,2.7228,2.7138,2.6729,2.7155,2.7249,2.6678,2.6944,2.7167,2.7173,2.7289,2.7219,2.6925,2.6951,2.7143,2.7115,2.7012,2.6973,2.7064,2.7027,2.6748,2.6951,2.7304,2.7007,2.6635,2.6451,2.7135,2.7305,2.7362,2.6907,2.7104,2.7582,2.7485,2.7254,2.7893,2.7787,2.7638,2.8308,2.8196,2.8365,2.8345,2.8215,2.7729,2.7311,2.7151,2.7147,2.6453,2.6613,2.6321,2.7038,2.6803,2.6746,2.6499,2.6479,2.6626,2.6952,2.6747,2.6475,2.6677,2.6687,2.6564,2.6352,2.5672,2.4993,2.4836,2.5715,2.8681,3.2555,3.688,4.0689,4.2689,4.1983,3.8336,3.5714,3.1052,2.9099,2.8231,2.7134,2.7222,2.6953,2.6589,2.6417,2.652,2.6346,2.6592,2.6186,2.6815,2.6703,2.6595,2.6689,2.664,2.6812,2.6642,2.6478,2.6427,2.6795,2.6354,2.6533,2.6929,2.6895,2.6717,2.6824,2.7069,2.6959,2.6841,2.6635,2.673,2.7541,2.7164,2.6932,2.7393,2.6847,2.7391,2.7688,2.785,2.8072,2.7996,2.7923,2.8757,2.8408,2.8599,2.8177,2.8487,2.8996,2.9277,2.952,2.9344,2.9523,2.9463,2.9443,2.9305,2.9269,2.9079,2.9005,2.9039,2.9026,2.8334,2.8073,2.8359,2.7473,2.7618,2.7145,2.7598,2.7119,2.6708,2.7142,2.6705,2.6928,2.6578,2.6619,2.6977,2.6975,2.6903,2.6354,2.6377,2.678,2.6852,2.6756,2.6845,2.6923,2.6715,2.6825,2.6719,2.6712,2.6844,2.6887,2.6639,2.6685,2.6815,2.6869,2.6929,2.6952,2.7085,2.7194,2.7064,2.6823,2.6593,2.686,2.7171,2.7582,2.7271,2.7012,2.7669,2.7251,2.744,2.7437,2.8024,2.8393,2.8111,2.7839,2.7948,2.7432,2.7819,2.7304,2.7109,2.691,2.7013,2.6985,2.6668,2.6444,2.6365,2.6294,2.6613,2.6374,2.6621,2.6896,2.6522,2.6461,2.6726,2.6459,2.6205,2.6265,2.5241,2.5146,2.4983,2.5629,2.8007,3.1832,3.6073,4,4.2571,4.2623,3.9032,3.3894,3.0411,2.86,2.7545,2.7402,2.6823,2.7112,2.7189,2.6709,2.6382,2.6673,2.6552,2.6191,2.6365,2.6861,2.6616,2.6757,2.6536,2.6668,2.6615,2.6384,2.6329,2.6808,2.6904,2.6761,2.7119,2.6976,2.6952,2.6859,2.6794,2.6999,2.693,2.6787,2.7,2.7043,2.7362,2.7225,2.7193,2.7603,2.7524,2.7665,2.7383,2.7782,2.8289,2.8495,2.8534,2.8295,2.8743,2.9014,2.8617,2.9398,2.9064,2.9149,2.9207,2.9764,2.9482,2.9597,2.9402,2.8981,2.9359,2.9157,2.8948,2.8921,2.8356,2.7897,2.7851,2.7621,2.7622,2.7162,2.6911,2.7358,2.7412,2.7319,2.6872,2.6933,2.7184,2.6892,2.7027,2.6772,2.719,2.6494,2.6592,2.6992,2.702,2.6695,2.7014,2.7219,2.7093,2.7189,2.6853,2.677,2.7085,2.7335,2.7041,2.696,2.6925,2.6953,2.7343,2.6952,2.6904,2.7464,2.7414,2.7483,2.7765,2.7873,2.7956,2.744,2.7744,2.8109,2.813,2.8126,2.8318,2.8294,2.8111,2.8011,2.7426,2.7104,2.7509,2.7168,2.7081,2.7049,2.6705,2.6769,2.6774,2.6916,2.6501,2.6887,2.6701,2.6622,2.6999,2.6435,2.6729,2.6575,2.7036,2.6196,2.4935,2.5217,2.5508,2.8151,3.1741,3.6298,4.0438,4.3182,4.2854,3.9884,3.4242,3.0576,2.9127,2.8104,2.7374,2.7028,2.7295,2.6764,2.716,2.6881,2.736,2.6558,2.6974,2.666,2.6602,2.6708,2.6468,2.6676,2.6794,2.699,2.6956,2.6831,2.6714,2.6986,2.7017,2.7156,2.715,2.6922,2.7179,2.7101,2.7249,2.6845,2.7341,2.7257,2.7354,2.7244,2.7434,2.741,2.759,2.7788,2.772,2.7999,2.8314,2.8626,2.7979,2.8576,2.8719,2.8732,2.8803,2.8882,2.9303,2.9746,2.9401,2.9266,2.9262,2.9691,3.0127,2.9676,2.9887,2.9257,2.9467,2.9079,2.8409,2.8375,2.8414,2.8041,2.7841,2.79,2.7557,2.7491,2.679,2.7,2.7755,2.7498,2.7741,2.7431,2.6893,2.7082,2.7009,2.7471,2.7245,2.75,2.7149,2.7467,2.6909,2.7083,2.702,2.7077,2.7285,2.7338,2.7173,2.7452,2.7061,2.7604,2.7506,2.73,2.7215,2.7455,2.7177,2.7114,2.7191,2.7253,2.7399,2.7226,2.7006,2.7398,2.7495,2.7516,2.7829,2.7782,2.7989,2.7791,2.8276,2.7946,2.8083,2.8291,2.8083,2.8247,2.8429,2.8185,2.8154,2.8237,2.7696,2.7926,2.7328,2.692,2.736,2.7106,2.7427,2.7096,2.6924,2.7152,2.7005,2.6848,2.6833,2.6763,2.7162,2.6885,2.6557,2.7031,2.6563,2.6464,2.5699,2.5303,2.6022,2.8136,3.2149,3.7101,3.9532,4.2831,4.3936,4.2213,3.7464,3.2507,2.9829,2.8493,2.7648,2.7266,2.7751,2.7301,2.7348,2.6623,2.6764,2.6948,2.7,2.6823,2.707,2.6819,2.7132,2.6833,2.6978,2.709,2.7135,2.6744,2.6774,2.6844,2.7179,2.7249,2.7453,2.7092,2.7041,2.6692,2.7011,2.7151,2.7262,2.7308,2.7404,2.7835,2.7621,2.7377,2.7571,2.7682,2.7902,2.8295,2.8011,2.8107,2.8191,2.8374,2.8852,2.8498,2.8974,2.9007,2.9227,2.9615,2.9621,2.9377,2.9386,2.9517,2.9574,2.9828,2.9922,2.9839,2.9528,2.8968,2.8677,2.8671,2.881,2.824,2.7791,2.779,2.7323,2.7429,2.7151,2.7569,2.7403,2.711,2.7663,2.7381,2.7229,2.7139,2.7242,2.722,2.7352,2.7389,2.6958,2.6749,2.7298,2.7197,2.7002,2.7428,2.7392,2.7002,2.701,2.7157,2.7414,2.75,2.7388,2.7283,2.7035,2.7262,2.7318,2.7251,2.702,2.7371,2.7036,2.7052,2.7249,2.7211,2.6961,2.7318,2.7442,2.7199,2.7177,2.7323,2.6915,2.7364,2.6989,2.6943,2.7459,2.7389,2.7318,2.6733,2.691,2.6902,2.7214,2.6919,2.6945,2.7446,2.7068,2.71,2.7363,2.753,2.7393,2.7765,2.7286,2.7309,2.7852,2.7964,2.7934,2.8242,2.8487,2.8314,2.8175,2.7791,2.7861,2.7692,2.708,2.7386,2.7194,2.6815,2.699,2.7124,2.6835,2.686,2.6291,2.6951,2.7125,2.6701,2.6798,2.6839,2.6837,2.6696,2.6754,2.655,2.6195,2.5153,2.511,2.6118,2.8888,3.26,3.734,4.1605,4.4102,4.3157,3.9959,3.4036,3.046,2.8995,2.755,2.7314,2.7821,2.7769,2.7002,2.7253,2.6747,2.6641,2.6601,2.671,2.7046,2.6944,2.6479,2.674,2.677,2.6902,2.6722,2.6417,2.6909,2.7009,2.7281,2.7093,2.7134,2.6939,2.6796,2.7079,2.7001,2.7488,2.7396,2.7124,2.7092,2.7543,2.7265,2.7717,2.7762,2.7589,2.7276,2.7522,2.8034,2.8182,2.7919,2.8585,2.8561,2.8491,2.9027,2.892,2.9135,2.9578,2.9632,2.9565,2.9226,2.9484,3.0128,3.0277,3.0073,2.9557,2.9475,2.9552,2.9215,2.8833,2.904,2.8594,2.8803,2.8349,2.8031,2.7886,2.7804,2.7679,2.7411,2.7624,2.7396,2.7093,2.7168,2.7057,2.7182,2.7347,2.7339,2.6961,2.722,2.707,2.7508,2.707,2.7298,2.7383,2.722,2.6996,2.697,2.7262,2.726,2.7183,2.7315,2.7395,2.7247,2.717,2.7092,2.7099,2.7162,2.7426,2.7406,2.6878,2.7177,2.7159,2.7299,2.7275,2.7042,2.6618,2.7362,2.7358,2.7215,2.7153,2.6674,2.7311,2.6889,2.6934,2.7123,2.7214,2.7014,2.7267,2.6887,2.726,2.7086,2.6634,2.6984,2.7041,2.7071,2.7136,2.7141,2.69,2.7466,2.6719,2.7518,2.7507,2.7115,2.7546,2.7533,2.763,2.7928,2.7923,2.7963,2.8115,2.8277,2.8423,2.8073,2.8215,2.7879,2.7739,2.7449,2.7058,2.6622,2.7273,2.7218,2.6941,2.6385,2.6923,2.6596,2.6787,2.6614,2.6622,2.6564,2.6898,2.6711,2.6876,2.6805,2.6433,2.5722,2.5143,2.5227,2.6439,2.9085,3.3138,3.7861,4.1677,4.358,4.2323,3.8271,3.271,2.9712,2.8624,2.7658,2.7232,2.7213,2.7128,2.6491,2.6697,2.7153,2.6743,2.6743,2.6443,2.6592,2.6471,2.6749,2.6659,2.692,2.7242,2.6666,2.6803,2.6717,2.6751,2.6819,2.6844,2.6833,2.6752,2.6771,2.6848,2.729,2.7011,2.6957,2.7028,2.7267,2.7886,2.7589,2.7258,2.7371,2.7592,2.7475,2.7589,2.7901
