4.5076,4.2832,4.4268,4.5617,4.6183,4.709,4.782,4.826,4.8511,4.8706,4.8665,4.8653,4.8633,4.89,4.8745,4.8902,4.8911,4.8862,4.8957,4.906,4.8821,4.8832,4.8945,4.8968,4.8795,4.8681,4.8709,4.908,4.9057,4.889,4.8928,4.9005,4.9278,4.9312,4.9258,4.9333,4.9473,4.9608,4.9764,4.9874,4.987,5.0033,5.0377,5.0367,5.0531,5.0793,5.1162,5.1188,5.1207,5.1376,5.1589,5.1823,5.2056,5.2297,5.2245,5.2108,5.2333,5.2434,5.2455,5.2767,5.2857,5.2856,5.282,5.2706,5.2627,5.2617,5.2353,5.2077,5.1843,5.159,5.1081,5.0672,5.04,5.0289,4.9948,4.9586,4.9561,4.9372,4.9258,4.9152,4.8849,4.8659,4.8708,4.8783,4.8642,4.8816,4.8865,4.8637,4.8548,4.8735,4.8654,4.884,4.9021,4.8883,4.887,4.889,4.8884,4.8814,4.9022,4.9046,4.9073,4.8897,4.8882,4.895,4.9047,4.9039,4.9159,4.9226,4.9184,4.9184,4.9142,4.9259,4.9219,4.9351,4.9395,4.937,4.9406,4.9405,4.9291,4.9403,4.9443,4.933,4.9353,4.9406,4.9391,4.9433,4.9467,4.9485,4.9432,4.9307,4.9366,4.9299,4.9378,4.9674,4.9598,4.943,4.9341,4.9445,4.9532,4.9512,4.9572,4.9742,4.9507,4.9459,4.96,4.9711,4.9649,4.9367,4.9459,4.9603,4.9709,4.9753,4.9787,4.9809,5.004,5.0104,5.0295,5.0406,5.0274,4.9992,5.0013,4.9967,4.9829,4.9858,4.9744,4.9672,4.9662,4.9556,4.9534,4.9591,4.9701,4.969,4.9462,4.9466,4.951,4.9658,4.9657,4.9415,4.9384,4.9387,4.9456,4.9551,5.0256,5.1798,5.3443,5.5245,5.6161,5.5504,5.2075,4.8112,4.5456,4.6087,4.7224,4.7346,4.8063,4.8618,4.9264,4.9373,4.9451,4.9368,4.9518,4.9611,4.9701,4.9478,4.957,4.9701,4.9655,4.9518,4.9648,4.9628,4.979,4.9832,4.9778,4.9584,4.9673,4.9534,4.9665,4.9787,4.9712,4.9767,4.9795,4.9724,4.9689,4.9755,4.9801,5.0056,5.0134,5.0116,5.0217,5.0302,5.0299,5.0444,5.0728,5.0723,5.0748,5.1068,5.1232,5.1306,5.1505,5.1864,5.1982,5.1985,5.2059,5.1979,5.2366,5.2536,5.2649,5.2713,5.287,5.2884,5.2822,5.2914,5.2565,5.2472,5.2322,5.222,5.2065,5.167,5.1321,5.1019,5.0559,5.0286,4.9972,4.9589,4.9453,4.9142,4.9154,4.9072,4.8797,4.8686,4.8714,4.8727,4.8575,4.8418,4.8334,4.8336,4.8337,4.8319,4.8356,4.8384,4.834,4.8539,4.8485,4.8449,4.8371,4.8234,4.8267,4.839,4.8422,4.8494,4.8616,4.8477,4.8486,4.8649,4.8636,4.8709,4.8727,4.8703,4.8558,4.8502,4.8613,4.8618,4.8628,4.866,4.8621,4.8672,4.8671,4.866,4.877,4.8681,4.8616,4.8587,4.8585,4.8574,4.8548,4.8463,4.847,4.8752,4.8571,4.8548,4.8398,4.8423,4.8435,4.8819,4.8703,4.8652,4.8549,4.8563,4.8828,4.8838,4.8695,4.8908,4.9031,4.9002,4.934,4.9354,4.9064,4.8934,4.8887,4.8873,4.8857,4.8852,4.884,4.8714,4.8526,4.839,4.8384,4.8456,4.8665,4.8648,4.8556,4.8754,4.8696,4.8438,4.8504,4.8549,4.8589,4.8436,4.8391,4.8685,4.9586,5.1112,5.292,5.4831,5.5674,5.4496,5.056,4.804,4.4256,4.3679,4.5255,4.5944,4.7012,4.739,4.8083,4.8175,4.8495,4.8467,4.8778,4.8767,4.8844,4.8789,4.8982,4.8934,4.8795,4.8515,4.868,4.861,4.8844,4.8885,4.888,4.8979,4.9175,4.8967,4.9026,4.8898,4.8848,4.8815,4.894,4.8863,4.8983,4.9128,4.927,4.9381,4.9632,4.956,4.9584,4.9752,4.9798,4.9984,5.0027,5.0224,5.0383,5.0591,5.0733,5.1087,5.151,5.1645,5.1599,5.1703,5.1975,5.2052,5.2284,5.2392,5.2731,5.2706,5.2524,5.2418,5.2609,5.2718,5.257,5.2414,5.2241,5.1958,5.1749,5.1489,5.1018,5.0486,5.0152,4.9947,4.965,4.9355,4.916,4.8879,4.8851,4.8761,4.8698,4.8642,4.8482,4.8455,4.8264,4.8398,4.836,4.8241,4.8247,4.8351,4.8467,4.8272,4.8318,4.8289,4.8392,4.8507,4.8419,4.843,4.8441,4.8625,4.8389,4.8638,4.8477,4.8366,4.8463,4.8703,4.8657,4.8757,4.8671,4.8661,4.8903,4.888,4.8855,4.8881,4.8931,4.9122,4.8938,4.8926,4.889,4.9042,4.9057,4.8761,4.8728,4.923,4.9279,4.919,4.8779,4.8676,4.8719,4.8967,4.9279,4.905,4.8998,4.9086,4.9152,4.9126,4.9097,4.8973,4.8912,4.9068,4.92,4.9123,4.8981,4.889,4.9073,4.9131,4.8988,4.8956,4.878,4.8912,4.9095,4.9098,4.9158,4.9218,4.922,4.9355,4.9398,4.9369,4.9474,4.9719,4.9775,4.9556,4.9269,4.9091,4.9071,4.9122,4.9083,4.9179,4.8915,4.8729,4.8651,4.8791,4.8817,4.884,4.8843,4.8818,4.8799,4.8804,4.8719,4.8699,4.8645,4.8554,4.8372,4.8368,4.8996,5.0335,5.0983,5.2543,5.4444,5.5494,5.4833,5.1294,4.6524,4.3075,4.4008,4.5379,4.6151,4.6893,4.7672,4.8088,4.8374,4.8456,4.8684,4.8661,4.8539,4.8391,4.855,4.8527,4.8484,4.845,4.8407,4.8552,4.8619,4.8713,4.8658,4.8684,4.8564,4.8559,4.8606,4.8542,4.841,4.8418,4.8583,4.8403,4.8373,4.8486,4.8526,4.8594,4.8375,4.8545,4.8665,4.8719,4.8982,4.8974,4.914,4.9404,4.9238,4.9346,4.9514,4.9736,5.0022,5.0272,5.0401,5.0607,5.0801,5.0935,5.1167,5.1217,5.1344,5.1341,5.1636,5.1782,5.1875,5.1772,5.177,5.1702,5.1739,5.1505,5.1235,5.0886,5.044,5.0059,4.991,4.9539,4.9047,4.8555,4.8475,4.8079,4.8155,4.8281,4.7975,4.7624,4.7458,4.7474,4.7417,4.7356,4.7269,4.7275,4.7387,4.7426,4.7456,4.7454,4.7377,4.7471,4.7425,4.7415,4.7618,4.749,4.7504,4.7549,4.7352,4.7454,4.749,4.7645,4.754,4.7527,4.7483,4.7491,4.7567,4.7577,4.7693,4.7639,4.7626,4.7667,4.771,4.7585,4.7655,4.773,4.7661,4.7688,4.7582,4.768,4.7605,4.7621,4.7512,4.7314,4.7344,4.7509,4.7449,4.7803,4.7816,4.752,4.7366,4.7263,4.7323,4.736,4.7386,4.7374,4.7293,4.7364,4.738,4.7324,4.7296,4.7233,4.7476,4.7575,4.7327,4.7426,4.7346,4.7212,4.7321,4.7245,4.7411,4.7458,4.7531,4.7648,4.7727,4.7918,4.7722,4.7531,4.7568,4.7582,4.7852,4.8037,4.8198,4.7848,4.779,4.7481,4.7674,4.7725,4.7605,4.7554,4.7285,4.7482,4.7417,4.732,4.7174,4.7107,4.7149,4.7449,4.7142,4.7124,4.7084,4.7143,4.7014,4.7052,4.7114,4.7071,4.737,4.8365,4.9961,5.1872,5.3868,5.4492,5.2948,4.8853,4.3933,4.1313,4.2673,4.4374,4.5242,4.6064,4.6339,4.6914,4.7177,4.7435,4.7528,4.7663,4.7745,4.7862,4.7838,4.7884,4.7712,4.7901,4.798,4.8092,4.7975,4.7867,4.7944,4.7943,4.8012,4.8113,4.8201,4.812,4.812,4.8206,4.8132,4.8314,4.8419,4.8555,4.8729,4.8737,4.8783,4.8881,4.8888,4.9098,4.9497,4.9562,4.9702,4.9874,4.994,5.0105,5.0359,5.0564,5.0701,5.1147,5.1412,5.1519,5.1722,5.1979,5.2027,5.2102,5.225,5.2453,5.2716,5.2706,5.2841,5.2849,5.2806,5.2892,5.2775,5.2581,5.2225,5.1875,5.1709,5.1367,5.0978,5.074,5.0374,4.9965,4.9778,4.9526,4.9429,4.9269,4.9075,4.8895,4.887,4.8676,4.8715,4.8752,4.8855,4.8854,4.8878,4.8886,4.8822,4.8707,4.877,4.8626,4.8668,4.8695,4.8655,4.8723,4.8778,4.8688,4.8728,4.8642,4.8627,4.871,4.8732,4.8787,4.8799,4.8728,4.8812,4.8817,4.8773,4.8746,4.8777,4.8854,4.8866,4.9006,4.8825,4.8609,4.871,4.8935,4.8835,4.8867,4.8764,4.8794,4.8822,4.8856,4.8885,4.8942,4.9001,4.914,4.8952,4.9026,4.8912,4.8815,4.872,4.8852,4.9111,4.9023,4.9209,4.8969,4.9182,4.9125,4.9434,4.9342,4.9255,4.9335,4.9197,4.9046,4.9155,4.9268,4.9135,4.9193,4.9297,4.9348,4.9378,4.9317,4.9522,4.9461,4.9454,4.9261,4.9217,4.947,4.9439,4.9459,4.9583,4.9651,4.9877,4.9838,4.9831,4.9905,4.9839,5.0003,5.0298,5.0288,5.0051,4.9832,4.9848,4.9954,4.9893,4.9829,4.9837,4.984,4.9816,4.9784,4.9648,4.9515,4.9447,4.9722,4.9749,4.968,4.9747,4.9696,4.9604,4.9573,4.9525,4.9453,4.9614,5.0055,5.1293,5.309,5.4736,5.6366,5.6213,5.3714,4.9513,4.5883,4.5506,4.6828,4.7409,4.8036,4.8601,4.9159,4.9597,4.9782,4.9964,4.9961,4.9629,4.951,4.9746,4.9792,4.9957,5.0147,5.0042,4.9923,5.0234,5.0043,4.9932,4.9958,5.0063,5.0154,5.0023,5.0099,5.0114,5.0229,5.0323,5.0349,5.0098,5.0079,5.0265,5.0535,5.0594,5.0598,5.0519,5.0774,5.0891,5.1097,5.1035,5.1134,5.1297,5.1604,5.1824,5.1815,5.1896,5.2291,5.2476,5.285,5.2858,5.297,5.2968,5.3302,5.3557,5.3488,5.3664,5.3692,5.3692,5.3718,5.3739,5.3632,5.3759,5.3666,5.3708,5.3175,5.2704,5.2315,5.2139,5.1979,5.1752,5.1339,5.1094,5.0993,5.0706,5.0321,5.0197,5.0163,4.9917,5.0034,4.9925,4.9871,4.9882,4.9718,4.9812,4.9742,4.9717,4.9906,4.9827,4.9715,4.977,4.9683,4.9644,4.9637,4.9754,4.9814,4.9869,4.968,4.9747,4.9771,4.9687,4.985,4.9893,4.9815,4.9811,4.9866,4.9812,4.9914,5.0087,5.0128,5.0098,4.9984,4.987,4.9869,5.0028,5.0045,5.0167,4.9891,4.9929,5.0139,4.9934,4.9815,4.9744,4.9678,4.9814,4.9856,4.9761,4.9603,4.9744,4.988,4.9841,4.9907,4.9811,4.9798,4.9724,4.9865,5.0184,5.0195,5.0099,5.0277,5.0148,4.9901,4.969,4.9569,4.9601,4.9742,4.9601,4.9578,4.9453,4.9352,4.9287,4.9279,4.9135,4.911,4.8986,4.9232,4.9252,4.9156,4.9076,4.8941,4.8979,4.9012,4.8844,4.8686,4.9089,5.0252,5.1869,5.3581,5.5254,5.5552,5.3946,4.953,4.5733,4.4277,4.4877,4.592,4.6442,4.7069,4.7708,4.8117,4.8341,4.846,4.8567,4.8604,4.8534,4.8745,4.8752,4.8776,4.8897,4.876,4.8852,4.884,4.8733,4.8904,4.8929,4.8871,4.9008,4.8958,4.8775,4.8617,4.8697,4.8854,4.8952,4.8861,4.8818,4.9129,4.9135,4.903,4.9162,4.9228,4.946,4.9423,4.951,4.9641,4.9745,4.986,5.0092,5.0362,5.0546,5.0679,5.0857,5.1032,5.1367,5.1551,5.1609,5.1885,5.2088,5.2166,5.2259,5.2334,5.2337,5.2451,5.2629,5.2515,5.2348,5.2278,5.226,5.2366,5.1815,5.1243,5.0852,5.0406,5.0247,5.0122,4.9659,4.9337,4.9072,4.9074,4.8879,4.8784,4.8594,4.8413,4.8303,4.8328,4.8241,4.8251,4.8365,4.8473,4.8381,4.8183,4.8133,4.8062,4.8117,4.815,4.8078,4.8209,4.8309,4.8409,4.8385,4.8172,4.839,4.8391,4.8328,4.8466,4.8371,4.8393,4.8476,4.8509,4.8483,4.8474,4.8484,4.85,4.8637,4.8524,4.8545,4.8592,4.8571,4.8547,4.8583,4.8545,4.8552,4.8635,4.8522,4.8541,4.8422,4.8345,4.8418,4.846,4.8385,4.8402,4.8407,4.8383,4.8475,4.8414,4.8542,4.8481,4.8389,4.8457,4.8444,4.8521,4.8509,4.8512,4.8618,4.8709,4.8615,4.8525,4.8497,4.8632,4.8747,4.8919,4.9106,4.9109,4.8907,4.8743,4.8825,4.8747,4.8674,4.864,4.8525,4.8513,4.8256,4.8179,4.8349,4.8453,4.8461,4.8301,4.8153,4.8146,4.8336,4.8379,4.8331,4.8224,4.8207,4.812,4.8237,4.8677,4.9879,5.1366,5.3115,5.5028,5.5348,5.3337,4.8922,4.4569,4.32,4.4588,4.5685,4.6264,4.7259,4.7625,4.8082,4.8056,4.8215,4.8358,4.8431,4.8523,4.8509,4.8572,4.8657,4.8787,4.8785,4.8763,4.8693,4.8784,4.8903,4.9037,4.9014,4.8721,4.8666,4.8823,4.8949,4.8905,4.8763,4.8972,4.9182,4.9266,4.9206,4.9425,4.9344,4.9486,4.9752,4.9879,4.9884,5.0063,5.0098,5.0167,5.0404,5.0532,5.0693,5.0912,5.1022,5.1167,5.1458,5.1783,5.2041,5.1991,5.2048,5.2149,5.2211,5.2402,5.278,5.2697,5.2718,5.2745,5.2787,5.2682,5.2542,5.2351,5.2168,5.197,5.1498,5.1299,5.0944,5.0579,5.0221,4.9843,4.9678,4.9251,4.9095,4.9084,4.9019,4.872,4.8572,4.8478,4.8447,4.8564,4.84,4.8303,4.83,4.8282,4.8287,4.84,4.84,4.8269,4.8203,4.816,4.8194,4.833,4.8116,4.8224,4.8187,4.8259,4.8206,4.8219,4.8264,4.8186,4.8184,4.8224,4.8182,4.8185,4.8367,4.8363,4.8284,4.8168,4.8202,4.8251,4.82,4.8217,4.8137,4.8065,4.8251,4.821,4.811,4.8122,4.7918,4.7939,4.8042,4.7982,4.7934,4.7943,4.7952,4.799,4.7918,4.7869,4.7766,4.7827,4.7852,4.7882,4.784,4.769,4.766,4.7719,4.7881,4.7773,4.7742,4.7811,4.7908,4.784,4.7667,4.7655,4.7639,4.7668,4.767,4.7648,4.7559,4.7526,4.7582,4.7592,4.7541,4.7469,4.766,4.7673,4.7781,4.774,4.7729,4.7821,4.7935,4.8158,4.8138,4.7971,4.7793,4.7849,4.7665,4.7633,4.7645,4.7448,4.7417,4.7323,4.7269,4.7195,4.7114,4.712,4.7171,4.7045,4.7095,4.7027,4.6991,4.7039,4.7011,4.6829,4.6769,4.6804,4.7075,4.8169,4.8953,5.0447,5.2303,5.4005,5.3824,5.1168,4.6337,4.1994,4.1707,4.3239,4.4348,4.5036,4.5769,4.6227,4.6651,4.6741,4.6822,4.6827,4.6961,4.6814,4.6939,4.6804,4.6792,4.6879,4.7119,4.6967,4.6893,4.6884,4.6876,4.69,4.6888,4.6792,4.6852,4.6928,4.6908,4.7004,4.7035,4.7051,4.7201,4.7369,4.7352,4.7352,4.7471,4.7652,4.7804,4.7863,4.7942,4.8038,4.8232,4.8426,4.8638,4.8818,4.8902,4.9247,4.9529,4.9774,4.9779,5.0003,5.0209,5.0546,5.0733,5.0874,5.0951,5.1187,5.1249,5.1393,5.1349,5.1398,5.1571,5.1321,5.1325,5.1021,5.0727,5.0457,5.026,4.9889,4.9374,4.8991,4.8641,4.8328,4.813,4.7866,4.7653,4.7614,4.7415,4.7412,4.7224,4.7144,4.7036,4.7108,4.7022,4.6998,4.6967,4.6808,4.6814,4.6875,4.6902,4.6808,4.6746,4.691,4.7013,4.6997,4.6893,4.6809,4.6782,4.6822,4.6761,4.684,4.6834,4.6803,4.6838,4.6874,4.6865,4.6822,4.6804,4.6865,4.6899,4.69,4.6846,4.6891,4.6976,4.703,4.703,4.7028,4.7023,4.7027,4.7052,4.6992,4.6956,4.6958,4.7006,4.7002,4.6979,4.6892,4.6855,4.6971,4.6875,4.6851,4.6882,4.6984,4.7052,4.706,4.6921,4.6883,4.6908,4.6874,4.6936,4.6815,4.6751,4.6865,4.7005,4.6947,4.7052,4.6838,4.6912,4.6984,4.6951,4.6852,4.6869,4.7083,4.6932,4.7002,4.6964,4.6864,4.6958,4.7,4.6947,4.6968,4.6917,4.7031,4.6936,4.7006,4.7062,4.6947,4.6992,4.6989,4.6958,4.7023,4.7024,4.7036,4.6979,4.6989,4.7081,4.6937,4.7108,4.7096,4.7062,4.7129,4.7053,4.714,4.7006,4.6994,4.7216,4.7139,4.7018,4.7163,4.7207,4.725,4.7216,4.7118,4.7159,4.7206,4.7223,4.7256,4.7245,4.7205,4.7301,4.7413,4.7392,4.7423,4.7487,4.7494,4.7598,4.7661,4.7852,4.811,4.8051,4.7816,4.7795,4.7724,4.7648,4.7762,4.7772,4.7571,4.7464,4.7379,4.7293,4.7374,4.7457,4.7376,4.7429,4.7462,4.7539,4.7592,4.7519,4.7469,4.7419,4.7362,4.7547,4.8143,4.9539,5.1161,5.2999,5.4453,5.4066,5.198,4.7218,4.2995,4.2124,4.3605,4.5029,4.5742,4.6727,4.7236,4.7726,4.7876,4.7868,4.7946,4.8041,4.8126,4.8318,4.8311,4.8458,4.8342,4.8398,4.8322,4.8481,4.8604,4.8538,4.8485,4.849,4.8404,4.8371,4.851,4.8618,4.8568,4.8549,4.8723,4.886,4.8944,4.8934,4.9058,4.9138,4.9219,4.9402,4.9455,4.9622,4.9698,4.9918,5.0005,5.0087,5.0265,5.0414,5.0659,5.0787,5.0936,5.1081,5.1354,5.1559,5.1804,5.1944,5.2179,5.2244,5.2413,5.2504,5.2575,5.2597,5.2653,5.273,5.2826,5.2873,5.2701,5.2567,5.2431,5.2255,5.1982,5.1612,5.1396,5.1104,5.0809,5.0448,4.9998,4.9752,4.9615,4.9423,4.929,4.918,4.9117,4.9086,4.8857,4.8901,4.8907,4.8845,4.8787,4.8734,4.8677,4.8639,4.8712,4.8696,4.8856,4.8944,4.8894,4.8702,4.8809,4.8953,4.901,4.8899,4.88,4.8847,4.8989,4.9083,4.9129,4.9103,4.9134,4.9171,4.9094,4.914,4.9171,4.9223,4.9238,4.935,4.9306,4.93,4.9413,4.9249,4.9238,4.9207,4.92,4.9236,4.9399,4.9342,4.9319,4.9265,4.9218,4.928,4.9281,4.9207,4.9158,4.9272,4.9257,4.9208,4.9251,4.9313,4.9331,4.9377,4.9343,4.9361,4.9248,4.9245,4.9435,4.9358,4.943,4.9439,4.9501,4.9427,4.947,4.9466,4.9445,4.9435,4.9441,4.9527,4.9555,4.9616,4.9507,4.9581,4.9644,4.9694,4.9643,4.9529,4.9668,4.9677,4.9583,4.956,4.966,4.9629,4.9706,4.9886,4.9827,4.9773,4.9892,5.0042,5.0205,5.0318,5.0446,5.0619,5.0468,5.0231,5.0235,5.0328,5.0297,5.0308,5.0097,5.0051,5.0039,5.0145,5.0052,5.0206,5.0142,5.0195,5.0139,5.0082,5.0184,5.04,5.0462,5.0431,5.0345,5.0221,5.0452,5.1288,5.2809,5.4616,5.6386,5.7511,5.6951,5.5699,5.1715,4.7894,4.7142,4.8539,4.9421,4.9546,5.012,5.0623,5.0964,5.1193,5.1501,5.1654,5.186,5.1794,5.1903,5.1967,5.2212,5.2007,5.2072,5.2024,5.2058,5.1954,5.2131,5.216,5.2243,5.224,5.2268,5.2242,5.217,5.2204,5.2157,5.2172,5.2345,5.2164,5.2285,5.2236,5.2403,5.2452,5.2528,5.2537,5.2546,5.2688,5.2827,5.2852,5.2943,5.3072,5.3329,5.356,5.3487,5.3606,5.3847,5.3931,5.4099,5.4104,5.4151,5.4255,5.4482,5.4542,5.4472,5.452,5.4497,5.46,5.4555,5.4499,5.4325,5.4274,5.4008,5.3827,5.3531,5.3154,5.2757,5.2406,5.2085,5.1739,5.1458,5.1013,5.0863,5.0611,5.037,5.0311,5.0047,5.0021,4.989,4.9803,4.9691,4.9634,4.9573,4.9661,4.9721,4.9468,4.9463,4.9372,4.9236,4.9353,4.921,4.9263,4.9221,4.9207,4.9146,4.9062,4.9091,4.9116,4.9165,4.9167,4.9144,4.9172,4.9121,4.9147,4.9031,4.9002,4.9077,4.9212,4.9102,4.9145,4.9056,4.8914,4.8896,4.8948,4.8889,4.8768,4.8642,4.8617,4.8641,4.8632,4.8477,4.8566,4.8547,4.8384,4.8312,4.854,4.8537,4.8481,4.8485,4.8512,4.8592,4.8543,4.854,4.8606,4.8691,4.8857,4.9005,4.9009,4.9176,4.9026,4.8733,4.8734,4.8914,4.8737,4.8797,4.869,4.8557,4.8367,4.8321,4.8372,4.8355,4.8472,4.8513,4.8475,4.841,4.839,4.8307,4.8353,4.8413,4.8365,4.8289,4.8272,4.841,4.8866,5.011,5.1665,5.3292,5.5009,5.5114,5.3082,4.8599,4.4607,4.3515,4.4943,4.6028,4.6657,4.7428,4.7839,4.8279,4.8429,4.8652,4.8745,4.8708,4.8577,4.8851,4.8847,4.897,4.8969,4.8954,4.8858,4.8956,4.8972,4.903,4.8914,4.8955,4.907,4.9195,4.9033,4.9023,4.9111,4.9278,4.9278,4.9235,4.9188,4.9334,4.9387,4.9554,4.9587,4.9669,4.9845,4.9996,5.0175,5.0189,5.0382,5.041,5.0727,5.0914,5.1106,5.1241,5.1344,5.1682,5.1907,5.2079,5.2201,5.2343,5.2576,5.2659,5.2764,5.2806,5.3009,5.3066,5.3026,5.2989,5.2893,5.2768,5.2685,5.2393,5.2052,5.1673,5.1258,5.0805,5.0484,5.032,5.0012,4.9644,4.9328,4.92,4.9106,4.8972,4.8753,4.8625,4.8722,4.8659,4.8457,4.8369,4.8214,4.8312,4.8301,4.822,4.8084,4.8146,4.8304,4.8172,4.816,4.8096,4.8113,4.8152,4.8062,4.8117,4.8196,4.8149,4.8206,4.8361,4.8358,4.8358,4.8237,4.8364,4.8483,4.837,4.8359,4.8372,4.8456,4.8487,4.8575,4.8493,4.8456,4.8453,4.8475,4.8432,4.8456,4.8328,4.8386,4.8492,4.8535,4.8374,4.8284,4.8313,4.8457,4.8312,4.8314,4.8424,4.8523,4.8487,4.8441,4.8454,4.8533,4.8529,4.8614,4.8593,4.8433,4.861,4.8656,4.8726,4.8796,4.8766,4.877,4.889,4.9035,4.9082,4.9208,4.9486,4.9402,4.9138,4.9209,4.9161,4.9059,4.8971,4.9035,4.8958,4.8859,4.8785,4.877,4.8858,4.8829,4.874,4.8634,4.8838,4.876,4.8911,4.8924,4.8829,4.8728,4.8792,4.8731,4.8856,4.9096,5.0028,5.1527,5.3256,5.5284,5.593,5.4687,5.0827,4.6278,4.34,4.4619,4.6041,4.6572,4.7635,4.8144,4.8599,4.876,4.9091,4.9137,4.9252,4.9189,4.916,4.9124,4.9283,4.9293,4.9374,4.9374,4.9334,4.9372,4.9398,4.9432,4.9452,4.9323,4.9463,4.9423,4.9394,4.9378,4.9476,4.9722,4.9833,4.986,4.9887,4.9859,4.9989,5.0153,5.0265,5.0302,5.0292,5.0386,5.0678,5.075,5.076,5.0921,5.1129,5.117,5.1339,5.1658,5.1833,5.2069,5.2225,5.2438,5.2557,5.2652,5.2934,5.298,5.3052,5.2994,5.3073,5.3121,5.3171,5.3199,5.3064,5.2954,5.2541,5.2407,5.1997,5.1552,5.1301,5.0902,5.0558,5.0235,4.9735,4.9647,4.9437,4.9271,4.9152,4.8913,4.8796,4.8711,4.8635,4.8559,4.8474,4.8327,4.8368,4.8395,4.8304,4.8304,4.827,4.8333,4.8461,4.8512,4.8358,4.8268,4.8178,4.814,4.8168,4.8259,4.8305,4.8269,4.8254,4.8301,4.82,4.8319,4.8244,4.8349,4.8336,4.8346,4.8243,4.8195,4.8341,4.8279,4.8222,4.8173,4.82,4.8198,4.8238,4.8151,4.8142,4.811,4.8003,4.8045,4.8057,4.8017,4.7945,4.7917,4.8047,4.8039,4.7988,4.7976,4.7925,4.8023,4.7996,4.7927,4.7896,4.7943,4.7991,4.7894,4.7869,4.7891,4.7929,4.793,4.795,4.7917,4.8141,4.7979,4.7895,4.7954,4.7932,4.7798,4.7847,4.7991,4.7955,4.7809,4.7783,4.7854,4.7904,4.7963,4.8037,4.7937,4.7962,4.7917,4.7922,4.7948,4.79,4.7922,4.794,4.8042,4.7999,4.7914,4.8008,4.789,4.7898,4.8031,4.7813,4.7994,4.8075,4.8112,4.8152,4.8146,4.8135,4.8317,4.8541,4.8651,4.8784,4.8683,4.8463,4.8435,4.8491,4.8358,4.8343,4.83,4.819,4.8139,4.8111,4.818,4.8154,4.816,4.821,4.8217,4.806,4.8089,4.8141,4.8185,4.8167,4.811,4.81,4.8153,4.8888,5.0301,5.1875,5.3598,5.5247,5.5117,5.2996,4.8181,4.3746,4.3137,4.4024,4.5489,4.6222,4.7286,4.7895,4.8223,4.8356,4.8471,4.866,4.876,4.8846,4.8759,4.8725,4.8713,4.8963,4.9018,4.9111,4.9042,4.8969,4.8943,4.9024,4.9069,4.9133,4.9072,4.9112,4.9194,4.9299,4.9256,4.9362,4.9371,4.9609,4.9718,4.977,4.9658,4.9813,4.9868,5.0002,5.0091,5.0228,5.0359,5.0579,5.0687,5.0761,5.0954,5.1009,5.1418,5.1716,5.1755,5.19,5.205,5.2365,5.2613,5.2714,5.2795,5.2885,5.302,5.3109,5.3237,5.3277,5.3331,5.3311,5.3262,5.3166,5.2891,5.2768,5.2523,5.2206,5.197,5.1491,5.1161,5.0806,5.0474,5.0245,4.9868,4.9596,4.9488,4.9395,4.934,4.9229,4.9144,4.904,4.9053,4.9034,4.8973,4.8912,4.894,4.8957,4.896,4.8906,4.8978,4.9012,4.8939,4.906,4.9027,4.9,4.9055,4.8978,4.908,4.9123,4.9144,4.9145,4.9116,4.9224,4.9245,4.9211,4.9053,4.9205,4.9316,4.9218,4.9225,4.92,4.9307,4.9416,4.941,4.9293,4.9289,4.9366,4.9436,4.9382,4.9436,4.9392,4.9299,4.9301,4.931,4.9269,4.9198,4.939,4.9449,4.9394,4.9281,4.9355,4.9356,4.9361,4.9417,4.9435,4.9425,4.9433,4.9458,4.9468,4.9516,4.9562,4.9581,4.9561,4.9599,4.9509,4.9546,4.9649,4.9598,4.9639,4.9592,4.9564,4.9551,4.9671,4.975,4.9762,4.9742,4.9743,4.9803,4.9724,4.9757,4.9589,4.9704,4.9701,4.9855,4.9736,4.9726,4.9745,4.9804,4.9856,4.9874,4.9908,4.9785,4.9827,4.9921,4.9897,4.9927,4.9832,4.9841,4.9965,5.0008,4.993,4.9897,4.9968,5.0085,5.0002,4.9959,5.0024,5.0217,5.0285,5.0286,5.023,5.0189,5.0385,5.06,5.0643,5.0951,5.092,5.055,5.0577,5.0608,5.0431,5.0426,5.04,5.0417,5.0252,5.0253,5.034,5.0283,5.0324,5.0277,5.0378,5.0381,5.0373,5.0374,5.0409,5.0425,5.0414,5.0338,5.0582,5.1098,5.248,5.4027,5.5683,5.7151,5.6766,5.4329,5.2002,4.7931,4.5283,4.6754,4.8057,4.8599,4.9297,5.001,5.0341,5.0643,5.0799,5.0839,5.0897,5.1047,5.1112,5.1066,5.1,5.1125,5.1286,5.1216,5.1127,5.1062,5.1252,5.1322,5.1291,5.1084,5.1081,5.1147,5.1205,5.1236,5.1262,5.1272,5.1387,5.1463,5.1625,5.1671,5.1674,5.1809,5.2024,5.2054,5.2077,5.2088,5.2204,5.2361,5.2633,5.2788,5.2864,5.3086,5.3093,5.3283,5.348,5.3733,5.3891,5.4056,5.4288,5.438,5.4374,5.453,5.4755,5.4799,5.4804,5.481,5.4854,5.4926,5.495,5.4883,5.4688,5.4501,5.4259,5.4033,5.3844,5.3459,5.3135,5.2799,5.2545,5.2177,5.1905,5.1542,5.14,5.129,5.1151,5.0971,5.0919,5.0907,5.1006,5.0932,5.0749,5.0669,5.0689,5.0778,5.071,5.0725,5.0629,5.0653,5.0676,5.0761,5.0687,5.0666,5.0662,5.0908,5.0844,5.0783,5.088,5.0846,5.0889,5.0997,5.1016,5.0934,5.1007,5.104,5.1155,5.1112,5.1025,5.1022,5.1023,5.1145,5.1048,5.1055,5.1002,5.1244,5.1144,5.1022,5.0999,5.0903,5.0903,5.0889,5.0948,5.0899,5.0908,5.0985,5.1028,5.1065,5.0975,5.1096,5.1035,5.1043,5.1004,5.098,5.0947,5.0934,5.1138,5.1027,5.1115,5.1097,5.1131,5.1202,5.1208,5.1237,5.128,5.1548,5.1738,5.1778,5.1481,5.1318,5.1286,5.1304,5.1267,5.125,5.1146,5.0988,5.0936,5.0993,5.092,5.0951,5.0866,5.08,5.0908,5.0848,5.0753,5.0845,5.0924,5.0889,5.0928,5.0791,5.0741,5.1019,5.2189,5.3755,5.5384,5.7035,5.7481,5.5864,5.1592,4.7722,4.6386,4.768,4.8344,4.8577,4.9037,4.9669,5.0313,5.0422,5.0687,5.0703,5.0779,5.0869,5.1034,5.0817,5.1091,5.0923,5.0978,5.0877,5.1013,5.0905,5.0929,5.0929,5.1073,5.1235,5.1083,5.1014,5.1038,5.1036,5.1117,5.1019,5.1055,5.1187,5.132,5.1349,5.1384,5.1409,5.1638,5.1689,5.1841,5.1831,5.1949,5.2176,5.2379,5.2495,5.249,5.254,5.2692,5.2964,5.3228,5.3349,5.3426,5.3594,5.384,5.407,5.4061,5.4176,5.4334,5.4465,5.4541,5.458,5.4417,5.4336,5.4371,5.4344,5.4201,5.3844,5.3535,5.3269,5.2918,5.2618,5.202,5.1585,5.1357,5.1174,5.0895,5.0726,5.0435,5.0351,5.0359,5.0352,5.006,5.0024,5.0061,4.9874,4.9777,4.9915,4.9899,4.9906,4.9817,4.9973,4.9931,4.9924,4.9896,4.9776,4.9956,4.9858,4.9812,4.991,5.0021,4.9995,4.9987,4.989,4.9924,4.9974,4.9942,5.0051,5.0109,5.0157,5.0094,5.0073,5.0056,5.0048,5.0069,5.0064,5.009,5.0152,4.9988,4.9945,4.9854,4.9844,4.9839,4.9839,4.9911,4.9873,4.9858,4.9841,4.9764,4.9777,4.9777,4.9861,4.9822,4.9771,4.9695,4.9875,4.986,4.9798,4.9797,4.973,4.9807,4.9923,5.0019,4.9981,5.0008,5.0014,5.0162,5.0223,5.02,5.0386,5.0523,5.0506,5.0355,5.0333,5.0241,5.0232,5.0266,5.0126,5.0071,4.9841,4.983,4.9908,4.9866,4.9876,4.9834,4.989,4.9884,4.9917,4.9834,4.9802,4.9832,4.9825,4.9851,4.9912,4.9726,5.0133,5.1462,5.3082,5.469,5.6527,5.6815,5.4884,5.0662,4.6124,4.4409,4.5776,4.7119,4.7792,4.8654,4.9002,4.9523,4.9749,5.0035,5.0062,4.9915,4.9928,5.0159,5.0082,5.0191,5.0168,5.0188,5.0165,5.0344,5.0338,5.0281,5.0144,5.0106,5.0175,5.0289,5.0171,5.0176,5.0298,5.0311,5.0366,5.05,5.0481,5.054,5.0701,5.0895,5.0929,5.0988,5.1004,5.1072,5.1296,5.1313,5.1359,5.1593,5.1845,5.2033,5.2074,5.2221,5.2449,5.2677,5.2836,5.3102,5.3197,5.3389,5.3507,5.3595,5.3709,5.3825,5.3887,5.3942,5.393,5.3904,5.3855,5.3745,5.3597,5.3417,5.3092,5.2753,5.2451,5.2101,5.1815,5.1399,5.1038,5.0706,5.0469,5.0235,5.0086,4.9872,4.9704,4.9621,4.9578,4.9503,4.9441,4.9306,4.9211,4.9185,4.9178,4.9116,4.9103,4.9147,4.9164,4.9279,4.9121,4.9001,4.9143,4.9083,4.9047,4.9145,4.9063,4.9049,4.9168,4.9239,4.9176,4.921,4.9146,4.9094,4.9185,4.9106,4.9221,4.9171,4.9263,4.9278,4.9425,4.9259,4.9248,4.9188,4.9193,4.9274,4.9227,4.9256,4.9207,4.9141,4.9047,4.8956,4.9083,4.9106,4.91,4.9005,4.9019,4.903,4.8961,4.9122,4.913,4.9067,4.903,4.9118,4.9261,4.9258,4.9118,4.9052,4.8978,4.91,4.9132,4.9094,4.9109,4.9018,4.9107,4.9103,4.9042,4.8937,4.9016,4.9078,4.9121,4.9044,4.9086,4.9024,4.8985,4.8966,4.9031,4.912,4.9034,4.9023,4.9056,4.8928,4.9014,4.9077,4.9195,4.9146,4.9125,4.9294,4.9311,4.946,4.9652,4.9612,4.9414,4.9346,4.9253,4.9312,4.9227,4.9175,4.9041,4.8914,4.8988,4.8922,4.8885,4.8869,4.8725,4.8882,4.8829,4.8792,4.8739,4.8755,4.8873,4.8813,4.8759,4.8684,4.8752,4.9336,5.0682,5.2424,5.4198,5.5923,5.5778,5.3492,4.8652,4.4156,4.3573,4.5287,4.6274,4.6906,4.7875,4.8447,4.8697,4.8888,4.903,4.8907,4.9024,4.9141,4.9172,4.9248,4.9205,4.9191,4.9275,4.9263,4.9342,4.9273,4.926,4.928,4.9321,4.9392,4.9405,4.9315,4.9371,4.9402,4.9522,4.947,4.954,4.9585,4.9726,4.9781,4.9964,4.9861,5.0027,5.0047,5.0249,5.0271,5.0372,5.0583,5.0706,5.0871,5.0993,5.1187,5.1288,5.1625,5.1714,5.1946,5.2074,5.224,5.2437,5.2647,5.2737,5.2828,5.2929,5.3049,5.3054,5.3144,5.3098,5.3068,5.3064,5.2821,5.2567,5.244,5.1989,5.1596,5.1393,5.0995,5.0592,5.0385,4.9998,4.9781,4.9562,4.9238,4.9024,4.8969,4.8872,4.8714,4.8631,4.8633,4.8665,4.8629,4.8502,4.8505,4.8488,4.844,4.8523,4.8582,4.8538,4.8589,4.8542,4.8565,4.8502,4.8461,4.8453,4.8504,4.8626,4.8642,4.8464,4.8553,4.858,4.8665,4.8718,4.8677,4.8651,4.8661,4.875,4.8799,4.8714,4.8778,4.8818,4.8765,4.8876,4.886,4.8818,4.8888,4.8902,4.8896,4.8829,4.8789,4.8831,4.8763,4.889,4.875,4.8731,4.8789,4.877,4.8793,4.8805,4.8663,4.8631,4.8724,4.8639,4.8718,4.8682,4.8792,4.8648,4.8865,4.886,4.8806,4.8738,4.8886,4.8888,4.896,4.8846,4.8823,4.887,4.8941,4.9011,4.8879,4.8874,4.8893,4.8814,4.882,4.8945,4.8859,4.9013,4.8954,4.9063,4.8997,4.9036,4.8892,4.8965,4.9019,4.9025,4.8939,4.911,4.9116,4.9135,4.9043,4.9047,4.9079,4.9304,4.9143,4.9139,4.918,4.9216,4.9337,4.9315,4.9637,4.9651,4.9502,4.9395,4.9522,4.9668,4.9542,4.9358,4.9588,5.0009,5.0252,5.0417,5.0587,5.0938,5.1285,5.1532,5.1558,5.17,5.1818,5.2067,5.2154,5.2261,5.2282,5.2485,5.2676,5.2901,5.2932,5.3086,5.3039,5.3094,5.3053,5.3086,5.2932,5.2895,5.2994,5.2915,5.2737,5.269,5.2772,5.2745,5.3051,5.2906,5.2828,5.2764,5.2855,5.2948,5.3082,5.2941,5.2811,5.2733,5.3121,5.4199,5.4837,5.6619,5.8319,5.9492,5.9267,5.7041,5.2395,4.8208,4.8384,4.9988,5.0775,5.1561,5.2583,5.2946,5.2941,5.3229,5.3313,5.3299,5.3374,5.3275,5.3502,5.3394,5.3486,5.3272,5.3258,5.3265,5.3311,5.3191,5.3204,5.3106,5.3134,5.3004,5.2793,5.2837,5.2857,5.2769,5.2756,5.2933,5.3104,5.3068,5.3098,5.307,5.3192,5.3193,5.332,5.3348,5.3646,5.3736,5.3857,5.3895,5.3796,5.3819,5.4177,5.4253,5.4587,5.4709,5.4686,5.4733,5.4995,5.5306,5.5403,5.5369,5.5441,5.5617,5.5742,5.5774,5.5771,5.577,5.5756,5.5782,5.5716,5.5592,5.5434,5.5379,5.4942,5.4627,5.4163,5.371,5.3408,5.3068,5.2789,5.2615,5.2488,5.2254,5.1854,5.1558,5.1285,5.1417,5.1297,5.1162,5.1083,5.0968,5.0696,5.0724,5.0791,5.0688,5.0615,5.068,5.0768,5.0725,5.0609,5.0522,5.0422,5.0521,5.053,5.0521,5.0401,5.0247,5.026,5.0523,5.0462,5.0496,5.0481,5.036,5.0167,5.0181,5.0224,5.0188,5.0268,5.0259,5.0294,5.0382,5.0316,5.0357,5.0334,5.0335,5.0272,5.0218,5.0169,4.999,5.0043,4.9942,4.9939,5.0022,5.0053,5.0032,5.0087,4.9794,4.9697,4.976,4.9952,4.9915,4.978,4.9765,4.9713,4.9918,4.9955,4.988,4.9927,5.0052,5.0049,4.9914,4.9844,5.0194,5.0274,5.0498,5.0146,4.9932,4.9806,4.9793,4.9928,4.9829,4.969,4.9527,4.9479,4.9533,4.9599,4.9704,4.962,4.9487,4.9512,4.9512,4.9437,4.9384,4.9497,4.9548,4.9364,4.9408,4.9321,4.9354,5.0596,5.2231,5.401,5.5659,5.6135,5.56,5.264,4.8273,4.5093,4.5569,4.6987,4.7252,4.789,4.8299,4.894,4.918,4.93,4.926,4.9309,4.922,4.9418,4.9415,4.942,4.9226,4.9274,4.9238,4.9328,4.9284,4.9176,4.9147,4.9274,4.9176,4.9309,4.9196,4.9097,4.9149,4.9262,4.9298,4.9166,4.9065,4.9154,4.9256,4.9484,4.9498,4.9468,4.9605,4.9731,4.9845,4.9922,5,5.0127,5.039,5.0623,5.0734,5.0753,5.106,5.1197,5.137,5.1545,5.1653,5.1915,5.1971,5.2214,5.2365,5.2425,5.2578,5.2688,5.2745,5.2645,5.2642,5.2634,5.2464,5.2296,5.2048,5.1836,5.1467,5.104,5.0759,5.0462,5.0201,4.9858,4.9713,4.9346,4.9258,4.9025,4.8927,4.8896,4.8935,4.8858,4.8693,4.8618,4.8591,4.859,4.8575,4.8523,4.8534,4.8654,4.8635,4.8716,4.8689,4.8541,4.8565,4.8627,4.8708,4.8628,4.8701,4.8733,4.8802,4.8822,4.8858,4.8828,4.8824,4.8865,4.8899,4.8945,4.8962,4.9019,4.9054,4.9007,4.908,4.9001,4.8951,4.8973,4.9084,4.8858,4.8874,4.8857,4.8814,4.8819,4.8827,4.8785,4.868,4.8613,4.8641,4.8575,4.8559,4.8577,4.8772,4.8776,4.8718,4.8853,4.874,4.8873,4.9209,4.9308,4.9418,4.934,4.9108,4.901,4.8999,4.8973,4.8964,4.8836,4.8757,4.8831,4.8743,4.8621,4.8549,4.8623,4.8641,4.866,4.8526,4.8607,4.8728,4.88,4.8723,4.8612,4.8647,4.8724,4.8634,4.8779,4.9637,5.1217,5.2865,5.474,5.5844,5.515,5.1503,4.6915,4.3591,4.4346,4.5793,4.6492,4.7478,4.8141,4.8751,4.8838,4.9128,4.9075,4.9084,4.9019,4.916,4.9165,4.9219,4.9274,4.9382,4.9184,4.9283,4.9155,4.9377,4.9276,4.9319,4.9344,4.9249,4.9383,4.9379,4.9327,4.9418,4.9359,4.9449,4.9602,4.9572,4.9631,4.9846,5.0006,4.9978,5.0021,5.0046,5.0178,5.0386,5.0556,5.0671,5.0824,5.0888,5.1113,5.1287,5.1513,5.1631,5.1777,5.1994,5.2245,5.2354,5.239,5.2508,5.2654,5.2758,5.2789,5.2806,5.2895,5.2894,5.2933,5.2756,5.2412,5.2038,5.1861,5.1678,5.1289,5.0763,5.0384,5.0039,4.9679,4.9278,4.9046,4.8965,4.8846,4.8658,4.8503,4.8397,4.8368,4.8292,4.8263,4.8043,4.7987,4.7984,4.7963,4.7943,4.7993,4.7892,4.7936,4.7992,4.7956,4.7914,4.7826,4.7859,4.7973,4.8016,4.8021,4.7922,4.792,4.7896,4.8009,4.7992,4.7969,4.7937,4.7944,4.8021,4.806,4.8074,4.7959,4.7875,4.8057,4.8042,4.793,4.7911,4.7876,4.7946,4.7961,4.7943,4.7854,4.7868,4.786,4.7903,4.7828,4.7845,4.773,4.7773,4.7824,4.7767,4.7729,4.7722,4.7887,4.7827,4.7823,4.769,4.7634,4.7692,4.7795,4.7899,4.7888,4.7939,4.7946,4.7972,4.8173,4.8179,4.8336,4.8465,4.8388,4.8263,4.8092,4.8037,4.8037,4.8134,4.7983,4.771,4.7719,4.7662,4.7645,4.7637,4.758,4.7507,4.7537,4.7596,4.7553,4.7553,4.7626,4.765,4.7593,4.7574,4.7458,4.7566,4.802,4.9498,5.1243,5.3073,5.4921,5.4793,5.3634,4.9719,4.4839,4.1852,4.2888,4.4618,4.5258,4.6326,4.6837,4.741,4.7382,4.7834,4.7609,4.7714,4.7525,4.7692,4.7742,4.7861,4.7801,4.7847,4.7808,4.7937,4.7898,4.7867,4.7895,4.794,4.7987,4.7964,4.7899,4.8024,4.7945,4.8113,4.813,4.8279,4.8222,4.8323,4.8458,4.8612,4.8599,4.8662,4.8643,4.8706,4.8885,4.9084,4.9211,4.9361,4.9582,4.9753,4.9875,5.0112,5.03,5.0514,5.0836,5.0943,5.1132,5.1302,5.1517,5.1567,5.1665,5.1728,5.1749,5.1732,5.1864,5.188,5.1857,5.163,5.1388,5.1091,5.0882,5.047,5.0088,4.9722,4.9351,4.8927,4.8626,4.8218,4.7994,4.7809,4.7708,4.75,4.7338,4.7295,4.7268,4.7303,4.721,4.6981,4.7103,4.7114,4.7079,4.7013,4.7027,4.7015,4.7096,4.7148,4.7095,4.708,4.7132,4.7006,4.7106,4.7026,4.7033,4.7003,4.7103,4.713,4.7091,4.704,4.7079,4.7166,4.7125,4.7178,4.7193,4.7119,4.7215,4.7284,4.7353,4.7217,4.7334,4.7333,4.7471,4.7296,4.7237,4.7296,4.7326,4.7297,4.7348,4.7331,4.7363,4.7344,4.739,4.7393,4.7311,4.7342,4.7377,4.7374,4.73,4.7293,4.7299,4.7296,4.7403,4.7362,4.7329,4.7297,4.7396,4.7512,4.7536,4.7338,4.7333,4.7363,4.7368,4.7466,4.7412,4.7512,4.7549,4.7519,4.7472,4.7407,4.748,4.7536,4.7585,4.7676,4.7672,4.7569,4.7541,4.7644,4.771,4.7631,4.7554,4.7648,4.779,4.7891,4.7733,4.7814,4.7703,4.7846,4.7877,4.7888,4.777,4.7878,4.788,4.8072,4.7874,4.7849,4.7812,4.7905,4.798,4.8004,4.7854,4.7798,4.7714,4.7824,4.7895,4.771,4.7677,4.7845,4.7723,4.7656,4.7702,4.7644,4.7603,4.7576,4.7706,4.7582,4.7512,4.7623,4.7658,4.776,4.7771,4.7753,4.7787,4.7746,4.7804,4.7853,4.7777,4.7977,4.8062,4.8032,4.8145,4.8078,4.8308,4.8658,4.8471,4.8221,4.8254,4.825,4.8253,4.8116,4.8092,4.8015,4.7889,4.778,4.7881,4.7931,4.7883,4.7878,4.7907,4.7908,4.8112,4.8029,4.7791,4.7805,4.7881,4.7806,4.7837,4.8646,5.0097,5.1943,5.3773,5.466,5.4707,5.3299,4.9228,4.4653,4.2542,4.4267,4.5419,4.6058,4.7064,4.7586,4.7936,4.8066,4.8143,4.8191,4.8262,4.8201,4.8327,4.8496,4.8675,4.8578,4.8527,4.8467,4.8556,4.8454,4.8477,4.8489,4.8437,4.8403,4.8439,4.8426,4.8519,4.8599,4.8579,4.8673,4.8753,4.884,4.8898,4.8957,4.9172,4.9223,4.9252,4.931,4.9394,4.9658,4.9713,4.9834,4.9971,5.0144,5.0295,5.0455,5.0649,5.07,5.0925,5.1123,5.1378,5.1497,5.1674,5.1849,5.2063,5.2175,5.2341,5.2319,5.2339,5.2428,5.2428,5.2404,5.2402,5.2292,5.2281,5.2146,5.193,5.1583,5.1265,5.0942,5.0701,5.0094,4.9815,4.9653,4.9241,4.9107,4.8849,4.8703,4.854,4.8502,4.8364,4.8349,4.8311,4.8184,4.8203,4.8166,4.812,4.8002,4.8032,4.8042,4.813,4.8293,4.8209,4.8206,4.8135,4.8145,4.8136,4.8096,4.8192,4.8141,4.8272,4.8319,4.8346,4.8241,4.834,4.8435,4.8489,4.8437,4.845,4.8456,4.8625,4.8633,4.8673,4.8655,4.8661,4.8727,4.8727,4.8667,4.8622,4.8645,4.8661,4.8749,4.8649,4.8635,4.8596,4.8719,4.8769,4.8588,4.8499,4.8567,4.8585,4.8684,4.8643,4.8651,4.8647,4.8722,4.864,4.8759,4.875,4.8776,4.8757,4.8901,4.8819,4.8856,4.8754,4.875,4.8823,4.8906,4.894,4.8786,4.8914,4.8985,4.8937,4.8915,4.8876,4.9013,4.8995,4.8992,4.8999,4.9044,4.9018,4.9006,4.911,4.91,4.9081,4.9087,4.91,4.9156,4.9144,4.9134,4.9103,4.9297,4.9266,4.9271,4.9347,4.9179,4.9299,4.9424,4.9359,4.9398,4.9388,4.9337,4.9565,4.9464,4.9571,4.9713,4.9867,4.9987,5.0038,4.9831,4.9627,4.9816,4.9689,4.96,4.9701,4.9524,4.9334,4.949,4.9495,4.9482,4.9416,4.945,4.9539,4.9517,4.9424,4.9487,4.9494,4.9581,4.9527,4.9464,4.9484,4.9862,5.1068,5.2526,5.4207,5.5804,5.6123,5.4559,5.0616,4.6892,4.5482,4.6811,4.7384,4.762,4.8166,4.8749,4.9274,4.941,4.9654,4.9721,4.9752,4.9692,4.9853,4.9938,4.9931,4.9801,4.9973,4.9976,5.0119,4.9986,5.0053,5.0035,5.0152,5.0093,5.0069,5.0112,5.0093,5.0011,5.0274,5.0222,5.0169,5.0112,5.0295,5.0401,5.0477,5.0504,5.0611,5.0586,5.0816,5.0783,5.0974,5.0954,5.1131,5.1186,5.1354,5.1443,5.1514,5.1816,5.1959,5.2086,5.2189,5.2309,5.2501,5.2795,5.2851,5.2936,5.3031,5.3066,5.317,5.3181,5.313,5.3183,5.3117,5.2912,5.2868,5.2699,5.2385,5.2124,5.1883,5.1517,5.1153,5.0795,5.0386,5.0129,4.9925,4.9727,4.9396,4.9337,4.9242,4.916,4.9051,4.8941,4.8907,4.8821,4.8839,4.8896,4.869,4.8631,4.8737,4.8747,4.8717,4.8725,4.8662,4.863,4.8693,4.8795,4.8755,4.8635,4.8785,4.8744,4.8719,4.8747,4.8742,4.8799,4.8906,4.8873,4.886,4.8898,4.8939,4.8898,4.8969,4.9067,4.8947,4.9067,4.9038,4.9064,4.8919,4.8969,4.9094,4.8993,4.8735,4.8831,4.8861,4.8853,4.8866,4.8906,4.878,4.8894,4.8745,4.8808,4.8819,4.8849,4.886,4.8927,4.8992,4.9053,4.8773,4.8862,4.8886,4.8945,4.901,4.9082,4.9164,4.9281,4.926,4.9479,4.9576,4.9528,4.9663,4.9676,4.9512,4.933,4.9347,4.9336,4.9355,4.9282,4.9108,4.9044,4.8983,4.9054,4.9085,4.9085,4.8969,4.8892,4.898,4.898,4.9064,4.9102,4.9064,4.8953,4.9016,4.8976,4.9101,4.9277,5.0407,5.2185,5.3976,5.5815,5.603,5.3937,4.9496,4.5412,4.4085,4.5435,4.6562,4.705,4.7955,4.8195,4.8669,4.8963,4.9091,4.9213,4.9153,4.9156,4.9333,4.9292,4.9497,4.9366,4.9336,4.9399,4.9481,4.9593,4.9565,4.9421,4.9435,4.9446,4.9492,4.9448,4.9446,4.9446,4.9562,4.958,4.964,4.9605,4.9754,4.9824,4.9873,4.9902,4.9955,5.0001,5.0283,5.0309,5.0515,5.0501,5.0714,5.0866,5.0895,5.1186,5.1334,5.1466,5.1694,5.1869,5.2141,5.2261,5.2252,5.2473,5.2648,5.2694,5.2689,5.2853,5.2966,5.3069,5.3141,5.3011,5.271,5.2605,5.2373,5.2051,5.161,5.1451,5.1115,5.0702,5.0351,4.9929,4.9549,4.9316,4.9121,4.8906,4.8769,4.8644,4.851,4.853,4.8497,4.8315,4.8339,4.8214,4.8134,4.8142,4.8052,4.8119,4.8054,4.8094,4.8096,4.8072,4.7995,4.7996,4.7988,4.7976,4.8021,4.8105,4.8048,4.8115,4.8217,4.8177,4.8228,4.8129,4.828,4.8274,4.8162,4.8187,4.8198,4.8253,4.8368,4.8412,4.8309,4.8228,4.8209,4.8375,4.8226,4.826,4.8295,4.8269,4.8202,4.8207,4.8221,4.8071,4.8049,4.8257,4.8151,4.8064,4.8035,4.8072,4.8168,4.809,4.8067,4.803,4.8068,4.8241,4.8185,4.8149,4.8081,4.8134,4.8088,4.8168,4.8099,4.8002,4.8071,4.8077,4.8105,4.8158,4.8056,4.8016,4.8084,4.8122,4.8137,4.8114,4.8205,4.8148,4.8311,4.8309,4.8272,4.8232,4.844,4.8608,4.8892,4.8838,4.8526,4.8318,4.8346,4.8453,4.8304,4.8355,4.8361,4.8254,4.8079,4.7927,4.7918,4.7874,4.798,4.7973,4.7934,4.7945,4.7988,4.8,4.7908,4.7955,4.7856,4.7877,4.7934,4.8591,4.9878,5.1427,5.3246,5.434,5.5152,5.4177,5.0517,4.5943,4.2621,4.3629,4.5011,4.5607,4.6667,4.7411,4.7822,4.7896,4.8142,4.8074,4.8188,4.8391,4.8387,4.8271,4.8348,4.8402,4.8474,4.8534,4.8522,4.8434,4.8388,4.8294,4.8358,4.8408,4.8517,4.8467,4.8442,4.8514,4.8577,4.8524,4.8658,4.8783,4.8914,4.8886,4.9021,4.9241,4.9268,4.9277,4.9237,4.9424,4.9498,4.9726,4.9839,4.9953,5.0147,5.0261,5.0555,5.0773,5.0913,5.1089,5.1204,5.1533,5.1667
