3.6994,3.6931,3.7002,3.7174,3.7547,3.7882,3.7803,3.7736,3.7946,3.7951,3.7715,3.7221,3.708,3.6814,3.6518,3.631,3.6184,3.6064,3.5904,3.6005,3.5817,3.6048,3.5939,3.6008,3.5648,3.59,3.5791,3.5658,3.5774,3.5881,3.5674,3.496,3.4311,3.4284,3.4407,3.6115,3.8721,4.2609,4.6202,4.8834,4.9626,4.7877,4.3745,3.9637,3.7744,3.6582,3.6033,3.5652,3.549,3.5283,3.5256,3.509,3.4996,3.4845,3.4965,3.4793,3.5164,3.4893,3.496,3.4973,3.5083,3.4945,3.5078,3.5064,3.4994,3.4932,3.4929,3.4985,3.4984,3.5083,3.5102,3.5187,3.5234,3.5255,3.5174,3.5441,3.5693,3.5838,3.5963,3.6237,3.632,3.6393,3.6776,3.6802,3.6897,3.6991,3.7425,3.7698,3.7516,3.7756,3.7981,3.8104,3.8154,3.8389,3.8391,3.8468,3.8598,3.8631,3.8597,3.849,3.8786,3.8612,3.86,3.8832,3.8515,3.8437,3.8354,3.8612,3.8612,3.8323,3.8312,3.8215,3.8296,3.8213,3.8271,3.8421,3.8434,3.8475,3.8474,3.8365,3.8554,3.8733,3.8707,3.8822,3.8698,3.8788,3.8776,3.9007,3.91,3.8744,3.8937,3.8945,3.9037,3.9294,3.9055,3.9032,3.8963,3.9291,3.9183,3.927,3.9079,3.9177,3.9384,3.9402,3.9291,3.9305,3.9101,3.9389,3.9679,3.9641,3.9719,3.9662,3.9684,3.9719,3.9915,3.9898,3.9944,4.0078,4.0104,3.9952,3.9798,3.9684,3.9455,3.9161,3.8754,3.8415,3.829,3.8316,3.8292,3.8169,3.8036,3.7961,3.7952,3.7897,3.78,3.7762,3.7911,3.7479,3.7673,3.7733,3.7416,3.6968,3.6183,3.622,3.6741,3.8843,4.1943,4.5508,4.9008,5.1218,5.1094,4.856,4.3965,4.069,3.901,3.8041,3.7761,3.7394,3.7315,3.7081,3.6935,3.6848,3.6727,3.6631,3.6454,3.6462,3.6408,3.6323,3.6451,3.6315,3.6741,3.6225,3.6329,3.643,3.6435,3.6382,3.6336,3.6422,3.6528,3.6782,3.6628,3.6773,3.6659,3.6789,3.6991,3.7039,3.7378,3.7486,3.7395,3.7696,3.7757,3.7589,3.7822,3.7902,3.8136,3.7949,3.8329,3.8443,3.8318,3.869,3.8879,3.8611,3.8802,3.8756,3.8596,3.8608,3.8609,3.8147,3.7414,3.7497,3.7257,3.7369,3.6722,3.6184,3.6311,3.6197,3.5864,3.5883,3.5867,3.5555,3.5837,3.5665,3.579,3.5831,3.6055,3.5977,3.568,3.582,3.6154,3.6104,3.5965,3.617,3.6434,3.6552,3.5756,3.5584,3.5516,3.5647,3.5875,3.5717,3.5741,3.5521,3.5965,3.5965,3.6146,3.6126,3.6217,3.6206,3.6107,3.61,3.637,3.6809,3.6345,3.603,3.6373,3.683,3.6714,3.6891,3.7023,3.6399,3.6732,3.6925,3.6934,3.7046,3.7017,3.6756,3.6911,3.6444,3.6238,3.605,3.6121,3.6191,3.619,3.5779,3.5586,3.6146,3.5503,3.5625,3.5523,3.5726,3.5749,3.5894,3.5952,3.5811,3.5706,3.5529,3.5023,3.4452,3.4462,3.6241,3.8589,4.2356,4.6074,4.8863,4.9835,4.8664,4.5142,4.1118,3.8542,3.7997,3.701,3.6228,3.6244,3.6384,3.6186,3.588,3.6272,3.5797,3.6004,3.6049,3.5848,3.6061,3.5951,3.611,3.6115,3.61,3.6055,3.632,3.5946,3.5869,3.6219,3.6033,3.6301,3.6329,3.6254,3.6327,3.6351,3.6449,3.6538,3.6617,3.6483,3.6697,3.6611,3.6713,3.6724,3.6885,3.7059,3.7149,3.7154,3.7195,3.7381,3.7321,3.7563,3.7504,3.7763,3.807,3.7825,3.8068,3.8087,3.7991,3.8425,3.8151,3.7964,3.7777,3.788,3.7735,3.7748,3.7452,3.7408,3.7189,3.7173,3.6983,3.6767,3.6945,3.6806,3.6742,3.6743,3.6634,3.6641,3.6628,3.6562,3.6573,3.6504,3.6508,3.6588,3.6473,3.6578,3.6472,3.6537,3.6456,3.6413,3.6452,3.6233,3.622,3.62,3.61,3.6137,3.6166,3.6192,3.6154,3.6059,3.6013,3.6008,3.5989,3.6054,3.5941,3.6066,3.6066,3.6112,3.5961,3.5974,3.5898,3.5951,3.6173,3.623,3.6216,3.6168,3.6185,3.6193,3.6513,3.6837,3.6702,3.6897,3.6875,3.6914,3.7102,3.6922,3.6767,3.6256,3.6118,3.5844,3.5555,3.5492,3.5265,3.5173,3.5313,3.5108,3.5011,3.4874,3.5186,3.5109,3.4946,3.4962,3.5027,3.4964,3.5016,3.4688,3.4625,3.3806,3.346,3.4002,3.5647,3.6833,4.0097,4.4026,4.7229,4.9524,4.878,4.5965,4.1084,3.7978,3.6635,3.5845,3.537,3.5246,3.4977,3.5052,3.4788,3.4799,3.4831,3.4915,3.4684,3.4671,3.4411,3.4529,3.4739,3.4937,3.4742,3.4985,3.4799,3.4717,3.4867,3.4628,3.4762,3.4996,3.4962,3.48,3.4779,3.4981,3.5036,3.4998,3.5226,3.5173,3.5142,3.5116,3.514,3.508,3.5298,3.5332,3.5443,3.5542,3.5678,3.5715,3.5668,3.5805,3.6028,3.61,3.6159,3.6193,3.6374,3.6393,3.6421,3.6161,3.6193,3.6455,3.6374,3.6141,3.6036,3.5942,3.5689,3.5353,3.5383,3.5528,3.5571,3.5366,3.5118,3.4878,3.4541,3.44,3.4501,3.4346,3.4474,3.4507,3.4489,3.4487,3.454,3.4546,3.4464,3.4373,3.4168,3.4497,3.4626,3.4499,3.4336,3.4329,3.3971,3.4151,3.4455,3.4305,3.4454,3.4444,3.4459,3.4527,3.4446,3.4276,3.4419,3.4075,3.4362,3.4545,3.4198,3.4039,3.3979,3.3815,3.3726,3.3944,3.3957,3.4033,3.3953,3.3797,3.388,3.3821,3.3945,3.4407,3.449,3.4427,3.4471,3.4531,3.466,3.4653,3.4558,3.4633,3.5012,3.4833,3.4482,3.4305,3.4218,3.3698,3.3469,3.3558,3.3429,3.3077,3.2712,3.31,3.3201,3.335,3.3158,3.3385,3.3258,3.2951,3.2802,3.2873,3.2855,3.2575,3.2468,3.1761,3.1618,3.2062,3.4059,3.6407,3.9821,4.3786,4.6479,4.6935,4.5234,4.1406,3.9071,3.6369,3.4442,3.3936,3.3235,3.3221,3.2671,3.2765,3.2478,3.2421,3.2118,3.2457,3.2563,3.2603,3.2368,3.2543,3.2674,3.2661,3.2331,3.2426,3.2274,3.2339,3.2578,3.2629,3.2324,3.217,3.2347,3.249,3.2514,3.2532,3.2796,3.2282,3.2081,3.271,3.2402,3.2741,3.287,3.2719,3.2608,3.2873,3.3252,3.3457,3.3082,3.3189,3.3448,3.3472,3.3406,3.3277,3.3621,3.3976,3.3772,3.3759,3.3636,3.3548,3.3609,3.3538,3.3526,3.3534,3.3259,3.3063,3.2991,3.2659,3.2607,3.2626,3.248,3.2197,3.2103,3.1917,3.1859,3.2069,3.2059,3.1561,3.1854,3.1957,3.1805,3.1395,3.1626,3.1566,3.1702,3.1648,3.1692,3.1707,3.1733,3.1212,3.1552,3.1351,3.156,3.1855,3.1774,3.1505,3.1335,3.1492,3.1236,3.118,3.1341,3.119,3.1205,3.113,3.1126,3.1561,3.1299,3.1019,3.0999,3.0861,3.1255,3.1235,3.1223,3.1294,3.1319,3.1619,3.1616,3.1518,3.1399,3.1971,3.2021,3.197,3.1895,3.1717,3.1768,3.1712,3.1397,3.1165,3.0857,3.0653,3.0626,3.0867,3.0734,3.0319,3.0002,3.0181,3.0314,3.0342,3.0371,3.0411,3.0246,3.0182,2.9979,2.9897,3.0143,3.0038,2.9215,2.9117,2.931,2.9778,3.2025,3.5252,3.9146,4.2114,4.3809,4.3547,4.0351,3.5864,3.3096,3.182,3.1014,3.0349,3.0425,3.0108,2.9896,2.974,3.0014,2.998,2.9514,2.9635,2.9766,2.9795,2.9396,2.9698,3.0007,2.9832,2.9702,2.991,2.9632,2.966,2.9705,2.956,2.9886,3.0072,2.9811,2.9664,2.9539,2.9693,2.9751,2.9717,2.9934,3.0216,2.9966,2.9107,3.0199,3.0291,3.001,3.06,3.0402,3.0497,3.0571,3.0833,3.1069,3.0961,3.099,3.1289,3.1195,3.0805,3.0764,3.1204,3.1424,3.1748,3.1103,3.098,3.0715,3.0976,3.0527,3.0642,3.0564,3.0046,2.9881,2.9637,2.9744,2.9529,2.9193,2.9344,2.9458,2.927,2.921,2.9123,2.8914,2.8698,2.9006,2.9246,2.8997,2.9222,2.9047,2.8792,2.9165,2.8937,2.9088,2.9116,2.8987,2.8768,2.8995,2.9125,2.9105,2.8973,2.898,2.8826,2.8834,2.8719,2.8819,2.9011,2.8958,2.8785,2.8993,2.8932,2.9094,2.9161,2.9329,2.9224,2.9211,2.9516,2.9433,2.9526,2.9506,2.9756,2.9842,2.9511,2.9063,2.879,2.8782,2.8573,2.8789,2.8494,2.8432,2.8403,2.8236,2.7964,2.806,2.8136,2.8151,2.8374,2.8302,2.8139,2.785,2.8084,2.8212,2.8269,2.747,2.7129,2.6848,2.7331,2.9127,3.2013,3.5108,3.8518,4.1419,4.2113,4.0323,3.5933,3.2,3.0129,2.9334,2.8748,2.7767,2.718,2.7774,2.7967,2.7611,2.7861,2.7297,2.7424,2.7532,2.7602,2.7585,2.7483,2.742,2.7394,2.7164,2.7409,2.7448,2.7046,2.7499,2.77,2.7685,2.7687,2.7826,2.7413,2.7724,2.813,2.7804,2.774,2.7984,2.7609,2.8033,2.795,2.816,2.8352,2.849,2.8521,2.8403,2.8253,2.896,2.8487,2.8519,2.8285,2.8747,2.9722,2.9336,2.9286,2.9016,2.8788,2.8958,2.9514,2.9225,2.8891,2.8804,2.8933,2.8438,2.8616,2.8557,2.7882,2.8167,2.789,2.7557,2.7512,2.7482,2.763,2.7373,2.722,2.7395,2.769,2.7574,2.754,2.7464,2.7109,2.7273,2.727,2.7365,2.7348,2.698,2.7397,2.7661,2.7679,2.7362,2.7188,2.7376,2.745,2.7194,2.7086,2.7265,2.7342,2.7429,2.7586,2.7432,2.7479,2.7198,2.6889,2.7115,2.7633,2.7256,2.7318,2.7458,2.7354,2.8014,2.7731,2.7659,2.7781,2.7779,2.8047,2.8048,2.8632,2.8156,2.8012,2.8209,2.7933,2.7759,2.7527,2.6863,2.7026,2.6812,2.6531,2.6707,2.6965,2.6794,2.6725,2.6896,2.6706,2.6434,2.6656,2.6401,2.5892,2.6351,2.6648,2.623,2.6482,2.5911,2.5244,2.5454,2.7359,3.0562,3.4783,3.8295,4.0187,4.0384,3.8132,3.3763,3.0325,2.8778,2.6687,2.6099,2.7711,2.7506,2.6478,2.6655,2.6245,2.6034,2.6016,2.6675,2.5815,2.5887,2.6253,2.6488,2.6855,2.6455,2.614,2.6163,2.5509,2.5912,2.6312,2.6302,2.6362,2.5946,2.598,2.6244,2.5907,2.6379,2.7078,2.6536,2.6256,2.5679,2.5374,2.7755,2.6951,2.5757,2.6273,2.6068,2.6343,2.748,2.8405,2.752,2.7032,2.7549,2.7513,2.7922,2.8015,2.7717,2.734,2.5904,2.7253,2.9656,2.8207,2.7781,2.7773,2.7372,2.7054,2.661,2.687,2.7064,2.7308,2.6323,2.665,2.6891,2.6309,2.6394,2.6024,2.5761,2.5939,2.6545,2.6355,2.611,2.5838,2.5662,2.6534,2.6464,2.6261,2.6166,2.5925,2.6249,2.5495,2.5746,2.6854,2.6318,2.6414,2.6478,2.6073,2.5926,2.5877,2.5612,2.6284,2.6408,2.6387,2.5539,2.5683,2.6557,2.5436,2.6228,2.6729,2.6528,2.6452,2.579,2.4897,2.6336,2.5882,2.6076,2.7083,2.6991,2.6667,2.6308,2.6248,2.6484,2.6988,2.7295,2.7756,2.7207,2.716,2.6623,2.6146,2.5881,2.6777,2.6516,2.627,2.5911,2.6068,2.5899,2.5465,2.5458,2.6286,2.6043,2.6177,2.596,2.5913,2.5883,2.5851,2.5719,2.5447,2.54,2.4697,2.4682,2.5925,2.7354,2.9629,3.3989,3.7565,3.9442,3.9396,3.6651,3.4694,3.0537,2.8045,2.7202,2.688,2.6444,2.5949,2.6078,2.5805,2.5684,2.5778,2.5358,2.4886,2.5705,2.6036,2.5669,2.5614,2.5956,2.5778,2.5849,2.5684,2.5383,2.5475,2.5654,2.5649,2.5682,2.5561,2.5848,2.6034,2.5861,2.5879,2.6001,2.5751,2.5903,2.5731,2.6353,2.5692,2.6221,2.6716,2.6403,2.625,2.6283,2.6369,2.6185,2.6344,2.675,2.7201,2.7296,2.6871,2.7436,2.7254,2.7239,2.7418,2.7226,2.7323,2.7358,2.7025,2.7038,2.6798,2.63,2.6053,2.6316,2.6451,2.6207,2.5856,2.599,2.6206,2.594,2.5799,2.5643,2.5301,2.5609,2.5209,2.5281,2.55,2.4801,2.5419,2.5887,2.5368,2.5334,2.5324,2.5043,2.5205,2.5691,2.5677,2.5405,2.5116,2.4748,2.4757,2.5551,2.5751,2.5336,2.5877,2.5496,2.5253,2.4837,2.5048,2.5514,2.4935,2.5246,2.5223,2.5239,2.5228,2.5176,2.5373,2.5365,2.5205,2.5286,2.5553,2.5601,2.5338,2.5309,2.5758,2.5898,2.6272,2.6284,2.629,2.6354,2.581,2.5937,2.5721,2.5226,2.5154,2.4954,2.4369,2.4773,2.5035,2.4689,2.4925,2.4303,2.3814,2.5002,2.5135,2.4573,2.4832,2.4512,2.4638,2.4462,2.4126,2.363,2.337,2.3434,2.4841,2.6339,2.95,3.2838,3.5995,3.8109,3.7584,3.5297,3.101,2.8048,2.6102,2.5075,2.514,2.4813,2.4741,2.4792,2.4467,2.4044,2.4499,2.4633,2.4253,2.4168,2.4284,2.428,2.4758,2.4306,2.4132,2.4158,2.4091,2.4214,2.4404,2.4495,2.4271,2.4448,2.4297,2.4438,2.44,2.4312,2.4514,2.4942,2.4517,2.401,2.3993,2.5133,2.4689,2.452,2.5317,2.4946,2.5106,2.5575,2.5595,2.5571,2.5044,2.5014,2.5636,2.5739,2.5795,2.5969,2.6189,2.5956,2.6243,2.6118,2.5768,2.558,2.5724,2.5908,2.5474,2.5351,2.5195,2.5409,2.5175,2.4962,2.4788,2.4536,2.4277,2.4341,2.4417,2.4442,2.4071,2.42,2.4393,2.4229,2.4251,2.4056,2.4016,2.4095,2.3941,2.4124,2.3974,2.3895,2.3878,2.4048,2.4526,2.4207,2.3894,2.384,2.4185,2.3938,2.4012,2.4049,2.4338,2.3939,2.3748,2.3958,2.3936,2.3996,2.4356,2.4184,2.4345,2.4325,2.4408,2.4277,2.4517,2.466,2.457,2.4867,2.4784,2.4881,2.4598,2.4796,2.4876,2.4567,2.3927,2.3754,2.3979,2.3787,2.3611,2.3763,2.3492,2.2962,2.2946,2.3752,2.3445,2.3138,2.3362,2.3062,2.3442,2.3123,2.3374,2.3376,2.2672,2.2114,2.2035,2.234,2.315,2.532,2.8311,3.2265,3.5423,3.6932,3.6492,3.4021,2.9522,2.6414,2.4767,2.3719,2.3921,2.3252,2.3016,2.3385,2.3967,2.3387,2.264,2.2773,2.3537,2.342,2.3454,2.2944,2.2538,2.302,2.3199,2.3215,2.3074,2.3145,2.3353,2.3102,2.3193,2.3151,2.3466,2.3478,2.2752,2.3393,2.3353,2.3309,2.3227,2.3456,2.3501,2.397,2.3709,2.3424,2.3855,2.3854,2.3699,2.41,2.4015,2.425,2.4579,2.4751,2.4473,2.4445,2.4441,2.4582,2.4828,2.4757,2.4204,2.4197,2.49,2.4807,2.4561,2.4457,2.4896,2.466,2.433,2.4221,2.3728,2.369,2.3511,2.3389,2.3453,2.3595,2.2897,2.3189,2.3215,2.3728,2.365,2.331,2.3513,2.3443,2.3384,2.3397,2.3305,2.3011,2.3235,2.3019,2.3506,2.2949,2.3546,2.3792,2.3072,2.2781,2.3531,2.386,2.4136,2.3808,2.3373,2.3229,2.3271,2.4354,2.4405,2.3858,2.3948,2.3891,2.3556,2.3936,2.4601,2.407,2.5109,2.4743,2.4498,2.4023,2.3739,2.4541,2.4554,2.4641,2.467,2.437,2.4271,2.3954,2.3044,2.2684,2.3124,2.3848,2.2923,2.2816,2.2989,2.2972,2.3025,2.3048,2.2287,2.2306,2.2533,2.284,2.2802,2.2881,2.237,2.1695,2.1487,2.1805,2.2865,2.5175,2.772,3.1355,3.5391,3.7166,3.6325,3.2888,2.8211,2.534,2.4956,2.4313,2.3807,2.3263,2.2697,2.2471,2.2259,2.2595,2.3196,2.293,2.2416,2.2341,2.2561,2.2537,2.2385,2.2202,2.2598,2.2773,2.2977,2.2653,2.2437,2.2507,2.2364,2.2692,2.2494,2.2384,2.2527,2.2654,2.2643,2.2601,2.2752,2.2485,2.294,2.3686,2.3066,2.3139,2.2836,2.3119,2.3178,2.3343,2.4132,2.3549,2.3693,2.3792,2.424,2.3974,2.4109,2.4224,2.4357,2.448,2.4409,2.433,2.4717,2.4323,2.4155,2.4341,2.4508,2.3843,2.3789,2.4127,2.356,2.3237,2.3036,2.3133,2.2966,2.3096,2.2804,2.2542,2.2514,2.2687,2.2427,2.2839,2.3012,2.3132,2.2794,2.2716,2.2607,2.2669,2.2664,2.276,2.2612,2.2573,2.2464,2.2275,2.2547,2.2721,2.3081,2.2564,2.3006,2.2503,2.2406,2.2191,2.2267,2.3119,2.3035,2.2952,2.2542,2.286,2.313,2.2825,2.3173,2.329,2.3321,2.3269,2.3784,2.3763,2.39,2.4233,2.3725,2.353,2.2678,2.2489,2.2865,2.2467,2.2985,2.2697,2.2023,2.2471,2.241,2.2319,2.1674,2.1733,2.2166,2.2798,2.2776,2.2095,2.2276,2.2227,2.1536,2.092,2.1023,2.2199,2.2834,2.5155,2.8548,3.2675,3.5963,3.6421,3.488,3.0897,2.6849,2.4541,2.3669,2.295,2.2327,2.2412,2.2474,2.1795,2.1632,2.2148,2.1866,2.195,2.1618,2.1787,2.2002,2.1855,2.1725,2.171,2.1713,2.1691,2.1736,2.2317,2.1946,2.2052,2.2232,2.2287,2.2287,2.1972,2.2054,2.2435,2.228,2.2367,2.2298,2.1827,2.1426,2.2624,2.2875,2.2804,2.2747,2.2709,2.324,2.3393,2.3335,2.3063,2.3,2.3695,2.3413,2.2756,2.2742,2.3885,2.4285,2.315,2.3131,2.3173,2.3654,2.3581,2.3781,2.3717,2.3088,2.1969,2.2418,2.2275,2.2215,2.2956,2.2668,2.2391,2.216,2.2046,2.163,2.1403,2.1264,2.1383,2.2679,2.2506,2.2167,2.1833,2.1425,2.1973,2.2156,2.1359,2.1738,2.16,2.1827,2.2026,2.1909,2.1437,2.1371,2.1213,2.1748,2.2031,2.1952,2.1345,2.1876,2.1788,2.2118,2.1777,2.1587,2.1672,2.2095,2.1614,2.1601,2.2266,2.2199,2.1546,2.1933,2.3067,2.3136,2.2623,2.2204,2.2436,2.2792,2.2463,2.2289,2.1685,2.1344,2.1491,2.0958,2.0753,2.1304,2.1169,2.0843,2.1556,2.08,2.0816,2.0892,2.1268,2.1,2.108,2.1178,2.0486,2.0271,1.9816,2.0239,2.055,2.1576,2.2981,2.5854,3.0269,3.3584,3.5882,3.4682,3.1587,2.7016,2.4054,2.2938,2.2232,2.143,2.1608,2.1404,2.1425,2.1761,2.1449,2.1789,2.1671,2.1551,2.1357,2.129,2.1591,2.1203,2.1342,2.1313,2.1598,2.1356,2.1696,2.17,2.1501,2.1592,2.1912,2.2002,2.2284,2.2198,2.2432,2.1894,2.2304,2.2191,2.1618,2.2267,2.3326,2.2656,2.289,2.3201,2.3235,2.351,2.3145,2.3456,2.3591,2.3985,2.3514,2.3589,2.3771,2.3774,2.3239,2.3186,2.3503,2.413,2.3955,2.3607,2.3002,2.3258,2.3009,2.3002,2.2617,2.2331,2.2256,2.2668,2.1852,2.1818,2.2152,2.1678,2.172,2.1356,2.1479,2.1743,2.1268,2.1013,2.1284,2.1281,2.1629,2.1071,2.1312,2.1233,2.1055,2.1165,2.1354,2.1115,2.0973,2.1121,2.1375,2.1545,2.1693,2.0996,2.126,2.1577,2.1018,2.1083,2.1139,2.1622,2.1618,2.1768,2.1974,2.1542,2.1972,2.1877,2.2144,2.2129,2.2057,2.2195,2.1754,2.1921,2.1881,2.1682,2.1309,2.1624,2.1182,2.1035,2.1386,2.1074,2.0991,2.0739,2.0061,2.0937,2.0739,2.0582,2.097,2.0489,2.0428,2.0786,2.0935,2.0372,2.0279,1.9605,1.9222,1.9531,2.1808,2.4888,2.9121,3.2111,3.4121,3.4637,3.4114,3.0208,2.5338,2.2954,2.2049,2.1066,2.1093,2.1235,2.0863,2.0689,2.0368,2.0669,2.0655,2.0794,2.0355,2.0452,2.0467,2.0873,2.0536,2.0468,2.0642,2.032,2.0801,2.0238,1.9971,2.0718,2.0911,2.1248,2.118,2.1199,2.0488,2.0357,2.0596,2.0414,2.0187,2.0482,2.1156,2.1508,2.1429,2.1326,2.0968,2.1232,2.1717,2.15,2.1196,2.2071,2.1862,2.2029,2.2232,2.1744,2.1427,2.172,2.1957,2.2458,2.2386,2.1991,2.2252,2.2054,2.1844,2.1752,2.1619,2.1658,2.1235,2.1363,2.118,2.1224,2.0648,2.0602,2.1028,2.0849,2.099,2.0788,2.0509,2.0233,2.0586,2.0557,2.0634,2.0759,2.0578,2.0715,2.0759,2.0432,2.044,2.0512,2.0678,2.0677,2.0959,2.0897,2.0179,2.0324,2.1174,2.109,2.1312,2.1173,2.0938,2.1205,2.1337,2.1367,2.115,2.1712,2.1289,2.1312,2.1609,2.1774,2.1415,2.1325,2.1202,2.0801,2.073,2.0482,2.0245,2.0109,2.0235,2.0322,2.0455,2.0672,1.9987,2.0181,2.0324,1.9894,2.0011,2.005,1.9815,2.0159,2.019,1.8819,1.8484,1.9084,2.1443,2.4872,2.8962,3.1844,3.3697,3.382,3.1305,2.6623,2.3549,2.1754,2.0914,2.1006,2.0357,2.0414,2.0356,2.012,1.9917,1.9512,1.9805,1.984,1.9881,2.0498,2.0166,1.9552,1.9702,1.9953,2.0126,1.9707,1.9367,1.9785,2.0001,2.0176,1.9944,1.9884,1.9856,2.0061,2.0366,2.012,2.0165,2.0285,1.996,2.0466,2.0403,2.0301,2.0564,2.0622,2.056,2.0402,2.06,2.0838,2.0947,2.1242,2.1246,2.1091,2.1117,2.1645,2.1349,2.132,2.1517,2.1496,2.0913,2.0939,2.1254,2.0922,2.129,2.0947,2.0893,2.073,2.0605,2.0349,2.0526,2.0505,2.0386,2.0091,1.9968,2.0031,2.0072,2.0312,2.0153,2.0127,1.9765,1.9786,1.9956,1.9867,2.0057,2.0197,2.0048,1.984,1.9824,1.9623,2.0436,2.0376,2.0634,2.0559,2.0465,2.052,2.044,2.0556,2.0204,2.0378,2.0728,2.1184,2.0956,2.119,2.1122,2.0951,2.0844,2.0545,2.0998,2.0777,2.0601,2.023,2.0144,1.9607,1.9715,1.9462,1.9729,1.9621,2.0001,1.9873,1.9716,1.9652,1.9638,1.9761,1.9605,1.9516,2.0227,1.9463,1.8231,1.8054,1.8603,1.9778,2.1915,2.6435,3.0506,3.321,3.389,3.3595,3.0743,2.5787,2.2877,2.1257,2.0596,2.0479,2.0281,1.978,1.9569,1.9912,1.9428,1.9445,1.9582,1.9267,1.9293,1.9476,1.954,1.9654,1.949,1.9448,1.9678,1.9852,1.9757,2.0036,1.953,1.9524,1.979,1.9673,1.9695,1.9719,1.9791,1.9674,2.0105,1.9673,1.9542,2.0062,1.9832,2.032,2.026,2.0496,2.0423,2.0082,1.9968,2.073,2.04,2.0622,2.0698,2.0828,2.0522,2.07,2.1209,2.1205,2.073,2.1057,2.1115,2.1403,2.1054,2.0703,2.054,2.0659,2.0677,2.0513,2.0048,2.0206,2.0105,2.0192,1.9455,1.9451,1.9889,1.9842,1.9693,1.9848,2.0173,1.9657,1.9789,1.9755,1.9949,1.9316,1.9812,2.0252,2.0006,1.9339,1.9595,1.9757,1.9652,1.9397,1.9547,1.987,2.0058,2.0367,2.0205,2.0237,2.0453,2.0243,2.0297,2.0603,2.0565,2.045,2.0509,2.0117,2.0271,2.0434,2.0491,2.0759,2.0535,2.0506,2.0131,1.9591,1.9465,1.916,1.9271,1.929,1.9764,1.9538,1.9844,1.9368,1.905,1.8852,1.8988,1.9476,1.9466,1.9506,1.9202,1.9017,1.7918,1.7715,1.8231,1.952,2.2248,2.5595,3.0034,3.2919,3.3421,3.2264,2.803,2.4282,2.1611,2.0473,2.008,1.9503,1.9276,1.9179,1.9321,1.9398,1.9726,1.9255,1.8813,1.9071,1.8889,1.9403,1.9289,1.8989,1.8892,1.89,1.9535,1.9324,1.9142,1.8858,1.9319,1.9101,1.9136,1.9206,1.9283,1.9356,1.9585,1.9378,1.9273,1.9421,1.9382,1.9844,1.942,1.9475,1.9967,1.9738,1.963,1.9949,2.0437,2.0178,2.0307,2.0242,2.0443,2.0474,2.015,2.0234,2.0809,2.0532,2.0448,2.0517,2.0499,2.0858,2.0844,2.0304,2.0282,1.9784,2.018,2.0576,1.9947,1.954,1.9508,1.9497,1.9341,1.9461,1.9451,1.9348,1.9127,1.8861,1.9501,1.9207,1.9366,1.9735,1.959,1.9563,1.9408,1.912,1.9114,1.9101,1.9184,1.9132,1.8939,1.937,1.9643,1.9439,1.9057,1.9265,1.9417,1.9261,1.9103,1.9276,1.8919,1.9515,1.9612,1.9768,1.9515,2.0318,1.9545,1.9469,1.9703,1.9966,1.9715,1.9924,1.9608,1.9991,1.9929,2.0616,2.0723,2.0516,1.9935,1.9144,1.923,1.9376,1.8831,1.8837,1.929,1.8925,1.8493,1.8651,1.8816,1.8798,1.8791,1.8502,1.846,1.8744,1.9139,1.8624,1.8564,1.8311,1.7844,1.7642,1.7413,1.916,2.1776,2.4804,2.9197,3.1913,3.2955,3.1463,2.7778,2.3366,2.1219,2.0495,1.9745,1.8974,1.912,1.8953,1.8906,1.8725,1.8837,1.8606,1.8688,1.8543,1.8475,1.8535,1.843,1.8527,1.8227,1.8744,1.8742,1.8737,1.882,1.8974,1.8845,1.8855,1.8691,1.8561,1.8114,1.8036,1.9135,1.9181,1.9312,1.8814,1.8704,1.9174,1.9266,1.886,1.9262,1.9954,1.9484,1.9983,1.9743,1.9565,1.9481,1.9236,2.0186,1.983,2.0348,2.0594,2.0342,1.9895,2.0315,2.0612,2.0414,2.0464,2.046,2.0416,1.9602,1.9618,1.9573,1.9718,1.9654,1.9308,1.9264,1.8892,1.8993,1.893,1.8734,1.889,1.9273,1.8357,1.8535,1.8799,1.8901,1.9335,1.901,1.8879,1.8623,1.8715,1.861,1.8885,1.8885,1.8384,1.8486,1.8513,1.8849,1.9045,1.9074,1.9226,1.9576,1.8876,1.9148,1.879,1.8386,1.8725,1.8649,1.8658,1.8829,1.8759,1.8729,1.8914,1.8725,1.8544,1.8634,1.8956,1.8488,1.8234,1.9132,1.8789,1.8841,1.8861,1.9078,1.8927,1.8806,1.9059,1.9033,1.9543,1.9675,1.9568,1.972,1.9946,1.9674,1.9419,1.8872,1.8668,1.8005,1.902,1.8788,1.8322,1.8155,1.8433,1.8468,1.7868,1.8329,1.8559,1.8405,1.83,1.8473,1.7873,1.7609,1.8204,1.8279,1.8169,1.6717,1.6654,1.6926,1.9092,2.2127,2.5812,2.975,3.0937,3.2502,3.209,2.8724,2.4407,2.1083,1.9694,1.8888,1.8792,1.876,1.8611,1.8289,1.8451,1.7864,1.8042,1.7899,1.7935,1.771,1.8085,1.8572,1.8225,1.7774,1.7914,1.8089,1.8393,1.847,1.8247,1.7981,1.7604,1.8083,1.8588,1.8498,1.8366,1.832,1.842,1.8447,1.8393,1.8299,1.8579,1.8977,1.8702,1.8673,1.881,1.9164,1.9048,1.9139,1.909,1.9103,1.9369,1.9789,1.9648,2.0016,1.9746,1.9811,1.996,1.9915,2.0321,1.9832,1.9707,1.9868,1.9882,1.9981,1.974,1.9161,1.935,1.9511,1.8953,1.889,1.8439,1.8831,1.8853,1.8662,1.8533,1.8603,1.8645,1.8243,1.8414,1.8748,1.8399,1.8594,1.8507,1.8561,1.854,1.8109,1.8299,1.8346,1.8303,1.8361,1.8744,1.8511,1.851,1.8583,1.8711,1.8649,1.835,1.8498,1.8508,1.837,1.8655,1.8993,1.8185,1.8142,1.7939,1.8205,1.822,1.8628,1.8466,1.8481,1.8598,1.8475,1.8577,1.8392,1.7807,1.7966,1.8482,1.8838,1.8193,1.8304,1.842,1.8213,1.8738,1.8444,1.9171,1.917,1.8969,1.9241,1.927,1.9103,1.9049,1.9406,1.9597,1.8994,1.9071,1.859,1.7963,1.7695,1.7676,1.814,1.8688,1.8414,1.8345,1.7855,1.7498,1.7426,1.7751,1.7801,1.7825,1.7623,1.7817,1.7919,1.7695,1.7067,1.6082,1.667,1.6884,1.9034,2.1869,2.586,3.0065,3.1746,3.1886,2.9447,2.4485,2.2303,2.0545,1.9331,1.8675,1.8408,1.849,1.7769,1.7918,1.7521,1.752,1.6989,1.742,1.7587,1.7853,1.7528,1.7781,1.743,1.7532,1.7471,1.767,1.7514,1.7679,1.7685,1.7729,1.764,1.7344,1.757,1.8184,1.794,1.7714,1.7781,1.7655,1.8042,1.8464,1.8583,1.805,1.7597,1.7517,1.8208,1.8244,1.84,1.8524,1.8767,1.8795,1.8847,1.9063,1.8795,1.8927,1.8737,1.8975,1.9653,1.9556,1.9644,1.9634,1.9631,1.9881,1.954,1.9155,1.8859,1.8608,1.82,1.7973,1.8023,1.8118,1.7908,1.798,1.7993,1.8051,1.7716,1.7323,1.7193,1.7706,1.7472,1.7534,1.735,1.7734,1.7649,1.7515,1.7507,1.713,1.7009,1.6846,1.7035,1.7026,1.8012,1.7604,1.7627,1.7618,1.7477,1.7331,1.7285,1.7527,1.7722,1.8003,1.8448,1.7827,1.7599,1.7204,1.7621,1.7441,1.7702,1.739,1.8212,1.7989,1.7315,1.7783,1.7816,1.7217,1.747,1.7353,1.73,1.7773,1.7551,1.774,1.8148,1.7904,1.7749,1.727,1.7555,1.7291,1.7435,1.798,1.7789,1.7656,1.8086,1.7795,1.7958,1.8176,1.8361,1.8664,1.836,1.8319,1.8236,1.8239,1.8127,1.7784,1.7515,1.7377,1.6964,1.6919,1.7142,1.7115,1.6953,1.7289,1.8031,1.708,1.7245,1.7049,1.6548,1.7064,1.7153,1.7209,1.68,1.6347,1.5309,1.5557,1.7304,1.973,2.3243,2.7012,3,3.1662,3.1247,2.8126,2.5827,2.2333,1.909,1.8324,1.7862,1.808,1.7096,1.6794,1.7153,1.7691,1.7393,1.7159,1.6629,1.7635,1.7061,1.7269,1.7214,1.7403,1.6854,1.7186,1.7123,1.7215,1.7168,1.7054,1.707,1.7127,1.7355,1.7097,1.7164,1.7228,1.7202,1.7285,1.7773,1.7791,1.7357,1.7246,1.7943,1.8071,1.8002,1.8327,1.8177,1.8125,1.7955,1.8132,1.8753,1.8945,1.8901,1.8867,1.8896,1.9232,1.9278,1.9218,1.9088,1.9279,1.899,1.9223,1.9176,1.9405,1.9272,1.8902,1.8989,1.8568,1.8248,1.7884,1.8377,1.8309,1.8043,1.7741,1.7839,1.738,1.7475,1.7849,1.7739,1.7665,1.7891,1.8094,1.7966,1.7258,1.7744,1.7721,1.7652,1.789,1.7931,1.7983,1.8216,1.7839,1.7452,1.7469,1.7751,1.7782,1.8096,1.7834,1.7658,1.7671,1.775,1.777,1.7593,1.768,1.811,1.7988,1.7728,1.7758,1.7846,1.8044,1.8143,1.769,1.7702,1.7717,1.7313,1.7257,1.7755,1.7803,1.7685,1.783,1.7749,1.7358,1.7599,1.7781,1.7635,1.8106,1.8098,1.8406,1.8239,1.8065,1.8219,1.8946,1.8437,1.8432,1.8471,1.8908,1.8828,1.8796,1.8736,1.8665,1.8291,1.7761,1.7459,1.7245,1.7344,1.7633,1.7722,1.7691,1.7494,1.7382,1.7486,1.7631,1.7612,1.7684,1.7416,1.7126,1.7642,1.7615,1.6853,1.6353,1.5761,1.6741,1.9197,2.2687,2.6485,3.0441,3.2428,3.1767,2.8807,2.6253,2.1927,1.961,1.9029,1.7935,1.868,1.8132,1.736,1.7343,1.7906,1.7197,1.7296,1.7412,1.7092,1.6904,1.7863,1.7421,1.6887,1.7113,1.8245,1.7178,1.7262,1.7223,1.744,1.6739,1.6471,1.7599,1.7216,1.7087,1.7419,1.7396,1.7496,1.7077,1.7473,1.8147,1.824,1.9028,1.8706,1.8715,1.8569,1.8803,1.9236,1.9111,1.9379,1.9195,1.9237,1.9262,1.9276,1.9735,1.9739,1.9815,1.9482,1.9109,1.9902,1.9555,1.9272,1.9739,1.9589,1.9251,1.9084,1.8967,1.8603,1.8436,1.7949,1.8472,1.8868,1.7815,1.7707,1.8319,1.8216,1.8182,1.7685,1.754,1.7869,1.827,1.7935,1.7515,1.7766,1.8203,1.8029,1.7805,1.7891,1.7865,1.8032,1.8069,1.7916,1.7727,1.7766,1.8011,1.7955,1.7622,1.7594,1.7757,1.7763,1.7727,1.7523,1.7867,1.7901,1.7587,1.772,1.7706,1.8044,1.7916,1.8037,1.7987,1.784,1.7663,1.7474,1.7233,1.7253,1.8135,1.7577,1.7668,1.7718,1.7278,1.7277,1.7917,1.7699,1.7766,1.8208,1.8209,1.8102,1.8099,1.8481,1.8427,1.8357,1.8963,1.913,1.8818,1.9007,1.8428,1.7967,1.8423,1.7751,1.7499,1.7556,1.74,1.7375,1.7461,1.7291,1.7257,1.7129,1.7153,1.6998,1.7326,1.6553,1.7286,1.7277,1.6665,1.7225,1.6343,1.6172,1.6325,1.7592,2.0316,2.3928,2.7759,3.071,3.2322,3.091,2.6189,2.2295,1.9784,1.8775,1.8202,1.7761,1.7866,1.7738,1.7555,1.7649,1.7108,1.679,1.706,1.7407,1.7466,1.7022,1.7062,1.7173,1.6869,1.697,1.7025,1.75,1.724,1.6901,1.7044,1.7464,1.7476,1.7626,1.7514,1.7935,1.7973,1.7521,1.7574,1.8347,1.7728,1.7769,1.8096,1.7972,1.8138,1.7963,1.8138,1.8053,1.8487,1.9,1.8807,1.8801,1.8718,1.8363,1.8521,1.8975,1.951,1.9313,1.972,1.9295,1.9397,1.8907,1.8949,1.8991,1.9227,1.8704,1.8378,1.8714,1.7994,1.7938,1.8432,1.8111,1.7848,1.7834,1.7669,1.7183,1.6955,1.7643,1.8044,1.7639,1.7436,1.7571,1.7433,1.7694,1.7477,1.7048,1.7227,1.7299,1.7662,1.8069,1.7633,1.733,1.7325,1.7581,1.7673,1.7688,1.721,1.7267,1.7354,1.7689,1.7759,1.7799,1.7616,1.7629,1.7562,1.7373,1.7525,1.722,1.7066,1.7686,1.7262,1.7053,1.7257,1.7434,1.7322,1.7556,1.7397,1.7386,1.709,1.688,1.7221,1.7211,1.7175,1.7589,1.7926,1.7729,1.7519,1.7913,1.7783,1.7434,1.8302,1.8214,1.8253,1.8461,1.8401,1.817,1.7845,1.7892,1.8438,1.7571,1.7093,1.692,1.6684,1.6521,1.6872,1.7022,1.6789,1.7088,1.6542,1.6194,1.6392,1.6977,1.6649,1.6698,1.6545,1.6645,1.6969,1.585,1.5832,1.597,1.8097,2.1877,2.5355,2.9318,3.1676,3.161,2.8464,2.3447,2.09,1.93,1.8446,1.7599,1.7187,1.6843,1.6861,1.7319,1.6978,1.7043,1.6993,1.6776,1.6274,1.6464,1.6994,1.7108,1.6728,1.6076,1.6134,1.7513,1.7138,1.69,1.624,1.6802,1.7257,1.6882,1.7232,1.7467,1.6821,1.6899,1.8056,1.7351,1.7289,1.7126,1.758,1.7684,1.7306,1.7268,1.731,1.705,1.7246,1.8297,1.8847,1.8646,1.8535,1.8376,1.8453,1.8568,1.8451,1.8616,1.8981,1.8688,1.8846,1.9207,1.9389,1.8789,1.8613,1.7651,1.7653,1.8165,1.8054,1.7938,1.7569,1.7782,1.7904,1.7597,1.758,1.7655,1.7652,1.7636,1.7635,1.7041,1.6993,1.6966,1.7451,1.7214,1.6467,1.6611,1.7394,1.7767,1.7403,1.7269,1.7006,1.6998,1.6806,1.6893,1.7209,1.7915,1.7806,1.7371,1.7232,1.7428,1.7286,1.6937,1.6856,1.7236,1.7234,1.7051,1.7133,1.7123,1.7088,1.7264,1.787,1.7574,1.7214,1.7295,1.7455,1.7934,1.7433,1.7578,1.784,1.8621,1.8444,1.819,1.8144,1.7912,1.8002,1.8431,1.8027,1.7476,1.7135,1.7133,1.6623,1.7277,1.727,1.7281,1.6556,1.6193,1.6573,1.7246,1.7074,1.6457,1.6478,1.6936,1.7104,1.6739,1.6609,1.5302,1.5198,1.5734,1.7692,2.0407,2.3822,2.7769,3.0938,3.1447,2.9289,2.4676,2.2554,1.9618,1.8744,1.8328,1.7627,1.7256,1.6881,1.7091,1.724,1.7082,1.6754,1.6693,1.6407,1.6864,1.6701,1.6328,1.6307,1.666,1.6787,1.7284,1.6998,1.6692,1.7124,1.7076,1.7262,1.7167,1.6831,1.674,1.6948,1.7746,1.718,1.6943,1.6618,1.7154,1.7069,1.782,1.7612,1.7765,1.7807,1.7567,1.7936,1.8063,1.8139,1.8179,1.8351,1.8743,1.8184,1.8399,1.8875,1.8526,1.877,1.8572,1.8743,1.8409,1.8297,1.8739,1.8816,1.8459,1.8265,1.8377,1.841,1.8326,1.7789,1.7624,1.739,1.7532,1.7505,1.7424,1.7025,1.6854,1.7327,1.7253,1.7389,1.7264,1.7094,1.6963,1.7144,1.7072,1.7337,1.7282,1.7351,1.7679,1.7375,1.7486,1.7018,1.7123,1.7609,1.7327,1.759,1.7442,1.8024,1.7363,1.7185,1.7123,1.7122,1.6888,1.7244,1.7358,1.7157,1.7719,1.7163,1.7123,1.7215,1.7396,1.7289,1.8037,1.7306,1.7447,1.8013,1.8513,1.841,1.8372,1.8375,1.8248,1.8549,1.8105,1.8188,1.8146,1.774,1.7452,1.7744,1.7102,1.6976,1.7021,1.7096,1.6887,1.7383,1.7003,1.7146,1.6978,1.7068,1.6945,1.6837,1.671,1.6982,1.7191,1.6007,1.5568,1.5929,1.6666,1.9027,2.2329,2.6021,2.8058,3.0813,3.1329,2.9534,2.5812,2.1889,1.922,1.8308,1.7699,1.7338,1.7364,1.6913,1.7073,1.6992,1.7241,1.6905,1.6906,1.6583,1.7103,1.7153,1.694,1.7005,1.7076,1.661,1.6689,1.7419,1.7088,1.7012,1.7251,1.688,1.7237,1.7179,1.7519,1.7148,1.7292,1.6788,1.7591,1.7928,1.7406,1.7944,1.7621,1.7503,1.7893,1.7784,1.7939,1.7782,1.7911,1.7751,1.816,1.8309,1.8105,1.8818,1.8805,1.8922,1.8826,1.8805,1.865,1.8877,1.9285,1.8604,1.848,1.8441,1.8336,1.838,1.8338,1.803,1.7562,1.7792,1.8091,1.7633,1.7721,1.72,1.7153,1.7516,1.7518,1.736,1.7414,1.724,1.7418,1.7409,1.7194,1.7113,1.7036,1.7301,1.7333,1.7529,1.7104,1.7228,1.747,1.7202,1.6991,1.743,1.7697,1.7487,1.7474,1.7397,1.7328,1.7133,1.676,1.7005,1.7796,1.7914,1.7452,1.7248,1.7436,1.7337,1.6861,1.7228,1.7865,1.8309,1.7783,1.7385,1.7489,1.7838,1.7918,1.7948,1.8682,1.8312,1.8203,1.8584,1.8334,1.8385,1.7928,1.7864,1.7743,1.7226,1.6953,1.6957,1.6586,1.6979,1.6722,1.7039,1.7145,1.7259,1.6654,1.6478,1.6865,1.6986,1.7363,1.7173,1.6724,1.5701,1.5322,1.5558,1.6654,1.9364,2.275,2.7095,2.9505,3.1613,3.1138,2.6943,2.2586,2.003,1.8779,1.7747,1.7707,1.7375,1.7095,1.6725,1.7336,1.7431,1.6982,1.666,1.6536,1.7061,1.7292,1.6965,1.6717,1.7125,1.6799,1.6961,1.7499,1.6979,1.6883,1.7279,1.7196,1.7005,1.7443,1.7062,1.6756,1.6882,1.7162,1.7606,1.7752,1.7578,1.7629,1.7469,1.761,1.745,1.7747,1.8002,1.7915,1.8144,1.8336,1.8049,1.8508,1.8295,1.8411,1.8575,1.8635,1.8883,1.8929,1.864,1.8583,1.8934,1.8934,1.858,1.8756,1.8739,1.8572,1.8284,1.8109,1.7825,1.7844,1.7828,1.7593,1.7482,1.7437,1.7305,1.6787,1.727,1.7754,1.7514,1.7342,1.7521,1.7516,1.7291,1.7061,1.75,1.7578,1.7301,1.7065,1.7334,1.7422,1.7411,1.7188,1.7117,1.7306,1.77,1.7141,1.7248,1.7653,1.7467,1.8031,1.8054,1.7411,1.7165,1.7285,1.7575,1.7463,1.7183,1.7311,1.7223,1.774,1.7626,1.7753,1.7898,1.8042,1.8191,1.8405,1.8285,1.8746,1.8353,1.8357,1.8347,1.8082,1.8065,1.8004,1.7453,1.7099,1.7049,1.675,1.6904,1.7211,1.7185,1.6697,1.689,1.7017,1.7191,1.7307,1.6637,1.6537,1.6899,1.7126,1.639,1.5914,1.5683,1.5552,1.7384,2.013,2.377,2.7922,3.1288,3.1195,2.966,2.5453,2.1803,1.9469,1.8674,1.8129,1.7434,1.7109,1.7048,1.7171,1.7011,1.6825,1.6719,1.7077,1.7202,1.6709,1.679,1.6905,1.6826,1.7037,1.6761,1.6752,1.7168,1.7301,1.7026,1.7104,1.724,1.6828,1.6735,1.7107,1.7161,1.7463,1.7392,1.7448,1.7516,1.7382,1.7302,1.7128,1.7164,1.811,1.8111,1.8004,1.8342,1.8293,1.8024,1.7901,1.8436,1.8309,1.8827,1.8729,1.856,1.8877,1.8421,1.8504,1.8841,1.9054,1.8704,1.88,1.8219,1.8275,1.8379,1.7614,1.7868,1.8443,1.7958,1.7685,1.7643,1.7315,1.7397,1.7393,1.7282,1.7513,1.7343,1.7074,1.7116,1.727,1.7588,1.7171,1.7515,1.6912,1.6884,1.7007,1.7438,1.7668,1.742,1.7493,1.6898,1.6658,1.7232,1.7423,1.7383,1.7489,1.7082,1.7113,1.7224,1.727,1.6907,1.6942,1.7599,1.7412,1.7351,1.7521,1.7473,1.6878,1.6853,1.7515,1.755,1.7658,1.7341,1.7315,1.7293,1.8135,1.8072,1.8113,1.8112,1.8229,1.8473,1.8238,1.7981,1.793,1.7442,1.7527,1.7225,1.6771,1.6919,1.6327,1.6853,1.663,1.6715,1.7027,1.68,1.6754,1.6413,1.6865,1.6862,1.6589,1.6774,1.6609,1.6295,1.5428,1.5388,1.5209,1.7307,2.0348,2.4496,2.8484,3.1451,3.1197,2.8996,2.4584,2.0792,1.8794,1.7699,1.775,1.7425,1.7147,1.6438,1.6714,1.7047,1.682,1.642,1.663,1.6394,1.6513,1.6525,1.6502,1.646,1.6078,1.6339,1.6541,1.6527,1.653,1.6575,1.6634,1.671,1.6714,1.6874,1.7154,1.6713,1.708,1.7311,1.7082,1.6864,1.6902,1.6948,1.732,1.7115,1.6901,1.7256,1.7472,1.7459,1.7691,1.7584,1.7831,1.8102,1.816,1.7784,1.8302,1.8143,1.8256,1.8228,1.7888,1.8278,1.8952,1.8516,1.8376,1.8261,1.7931,1.7559,1.7577,1.8046,1.763,1.7493,1.749,1.7245,1.714,1.6894,1.6606,1.7004,1.6873,1.6772,1.6941,1.6859,1.6883,1.6393,1.6696,1.6451,1.697,1.7348,1.7001,1.7038,1.6636,1.6841,1.7111,1.681,1.6789,1.6924,1.6668,1.6948,1.6759,1.6736,1.7017,1.6962,1.6756,1.683,1.6997,1.6541,1.667,1.6881,1.6838,1.7309,1.7018,1.6891,1.6381,1.6548,1.6942,1.6729,1.7033,1.7236,1.6997,1.7152,1.6916,1.6938,1.6973,1.716,1.7368,1.7597,1.7725,1.7695,1.7896,1.7981,1.7638,1.7595,1.713,1.7086,1.7421,1.6834,1.6638,1.6666,1.6095,1.605,1.6736,1.6339,1.6169,1.6127,1.6653,1.6363,1.6516,1.6296,1.649,1.6561,1.613,1.5309,1.4576,1.5116,1.577,1.8249,1.9935,2.3864,2.7688,3.0757,3.1008,2.8917,2.5223,2.046,1.8762,1.8169,1.6948,1.6604,1.676,1.6193,1.6139,1.6027,1.607,1.6177,1.6245,1.6519,1.6381,1.647,1.6071,1.5637,1.6109,1.6411,1.627,1.6363,1.6655,1.629,1.6033,1.6498,1.6202,1.6482,1.6655,1.6646,1.6346,1.6428,1.6433,1.6668,1.6824,1.6656,1.6902,1.6787,1.6663,1.6818,1.7307,1.7318,1.7349,1.7337,1.7317,1.777,1.7649,1.8063,1.8053,1.7795,1.7969,1.8014,1.7991,1.8244,1.7861,1.789,1.8051,1.7867,1.7923,1.8044,1.7428,1.7238,1.6958,1.6733,1.6896,1.6721,1.6653,1.6376,1.6878,1.6696,1.6393,1.6378,1.6584,1.6013,1.6699,1.6315,1.6292,1.6936,1.6332,1.6328,1.6095,1.5808,1.626,1.6462,1.6571,1.6506,1.6614,1.6173,1.6795,1.65,1.639,1.6081,1.626,1.6539,1.617,1.6331,1.6483,1.6444,1.6558,1.6492,1.6291,1.654,1.6417,1.6365,1.641,1.6623,1.6283,1.6318,1.5858,1.6014,1.6017,1.5821,1.6325,1.6564,1.6689,1.6105,1.6436,1.6503,1.6352,1.6805,1.6824,1.6899,1.6574,1.705,1.7571,1.7535,1.7793,1.7325,1.7088,1.6971,1.6715,1.6165,1.6651,1.6378,1.602,1.6213,1.5877,1.5754,1.5889,1.5703,1.5857,1.5711,1.624,1.6156,1.614,1.6102,1.5711,1.5554,1.5173,1.5054,1.4489,1.4764,1.548,1.7972,2.0992,2.4815,2.7514,2.9949,3.0263,2.8856,2.4664,2.0271,1.8334,1.7438,1.6923,1.6435,1.6296,1.6386,1.5992,1.5653,1.6022,1.5888,1.5707,1.5518,1.5789,1.5824,1.5885,1.5971,1.5635,1.5878,1.6294,1.6028,1.6063,1.5948,1.6173,1.6103,1.6028,1.6162,1.6109,1.6016,1.6019,1.6099,1.6294,1.6372,1.6208,1.6368,1.6694,1.6594,1.6595,1.6955,1.664,1.6644,1.6842,1.6914,1.735,1.7581,1.7329,1.7578,1.7732,1.7552,1.7496,1.728,1.7949,1.7769,1.7336,1.7814,1.8081,1.7696,1.7417,1.7275,1.6978,1.6849,1.6838,1.668,1.6526,1.6377,1.6371,1.656,1.6518,1.6351,1.5945,1.5635,1.5852,1.624,1.6043,1.6069,1.5895,1.5967,1.6151,1.6156,1.6146,1.6192,1.5875,1.59,1.6063,1.611,1.5786,1.5673,1.6014,1.5925,1.6128,1.6439,1.5947,1.6369,1.628,1.5983,1.6079,1.5858,1.6388,1.601,1.6258,1.6161,1.6068,1.5794,1.5704,1.6158,1.6007,1.606,1.6286,1.6524,1.6401,1.6296,1.6596,1.7203,1.6724,1.6943,1.6789,1.6949,1.7119,1.6771,1.6554,1.6636,1.6864,1.6587,1.6256,1.5542,1.5562,1.5424,1.5715,1.5937,1.5844,1.551,1.5516,1.5753,1.5405,1.5324,1.5206,1.5503,1.5665,1.5621,1.4965,1.4476,1.4124,1.4098,1.5577,1.8314,2.1664,2.5251,2.8711,2.9898,2.9282,2.5601,2.0852,1.7957,1.7068,1.6548,1.661,1.6066,1.5678,1.5463,1.5794,1.5806,1.5448,1.5481,1.5293,1.5432,1.5391,1.5144,1.5473,1.5508,1.5644,1.565,1.5247,1.5161,1.5867,1.6417,1.5828,1.5583,1.6077,1.5664,1.5392,1.5583,1.5729,1.5633,1.5735,1.6118,1.62,1.6207,1.6054,1.5978,1.6092,1.6548,1.672,1.7031,1.6671,1.7363,1.7097,1.6841,1.6898,1.7116,1.7639,1.7209,1.7314,1.7484,1.7728,1.7298,1.7096,1.7121,1.7197,1.6863,1.6858,1.716,1.6967,1.637,1.6214,1.6423,1.6236,1.6026,1.5934,1.5659,1.5222,1.59,1.6067,1.5722,1.5444,1.6055,1.6245,1.563,1.6002,1.5745,1.5674,1.552,1.5002,1.5716,1.6213,1.5779,1.5403,1.548,1.5853,1.6052,1.5828,1.5844,1.5513,1.5628,1.5909,1.6083,1.606,1.6477,1.6201,1.6021,1.6223,1.6208,1.6554,1.68,1.6582,1.6457,1.6715,1.6798,1.6772,1.6567,1.6519,1.7012,1.6846,1.6861,1.6403,1.6145,1.5807,1.5548,1.5697,1.573,1.57,1.5534,1.5882,1.5579,1.5515,1.5229,1.5655,1.5824,1.5711,1.5548,1.5373,1.5115,1.4557,1.4264,1.4374,1.4378,1.663,1.9419,2.2952,2.688,2.9193,2.9743,2.8313,2.4093,1.9845,1.8097,1.6961,1.6186,1.5822,1.5591,1.5767,1.5702,1.5179,1.5837,1.5819,1.5775,1.5446,1.5336,1.5499,1.5288,1.5465,1.5579,1.5233,1.5485,1.5321,1.5792,1.5594,1.5785,1.5642,1.5686,1.5278,1.5484,1.5962,1.5969,1.5787,1.5817,1.5826,1.575,1.5724,1.6434,1.611,1.6399,1.6419,1.6183,1.658,1.6453,1.6686,1.655,1.6648,1.7156,1.751,1.7486,1.7351,1.7101,1.7481,1.7626,1.7435,1.7625,1.736
