-0.57119,-0.56791,-0.57867,-0.57194,-0.56547,-0.55634,-0.56153,-0.56755,-0.57091,-0.56589,-0.5604,-0.56035,-0.57021,-0.574,-0.56788,-0.56144,-0.56786,-0.57257,-0.574,-0.56948,-0.55755,-0.5602,-0.56349,-0.56224,-0.55323,-0.54494,-0.54262,-0.53968,-0.54222,-0.53798,-0.52392,-0.52356,-0.5269,-0.53214,-0.52606,-0.51232,-0.50885,-0.50983,-0.51207,-0.50847,-0.48816,-0.48733,-0.48501,-0.48639,-0.47642,-0.45895,-0.45182,-0.44976,-0.44976,-0.44584,-0.43276,-0.42444,-0.4202,-0.42882,-0.42435,-0.41941,-0.40474,-0.41032,-0.4121,-0.41392,-0.4052,-0.39811,-0.39773,-0.40444,-0.39627,-0.38779,-0.37734,-0.37422,-0.37449,-0.37816,-0.36954,-0.35631,-0.35185,-0.3594,-0.35745,-0.35426,-0.34013,-0.34414,-0.35172,-0.35679,-0.35732,-0.35248,-0.35203,-0.36412,-0.36934,-0.37265,-0.36858,-0.369,-0.37907,-0.39485,-0.39642,-0.39843,-0.40232,-0.4149,-0.42862,-0.43237,-0.43569,-0.43672,-0.44416,-0.46142,-0.46297,-0.46057,-0.46354,-0.47208,-0.48242,-0.48379,-0.48287,-0.47906,-0.48251,-0.49293,-0.49832,-0.49851,-0.49463,-0.49633,-0.5077,-0.51262,-0.50831,-0.50216,-0.50621,-0.51442,-0.51739,-0.51525,-0.50813,-0.51014,-0.52013,-0.52178,-0.52064,-0.51643,-0.5179,-0.52055,-0.52889,-0.52676,-0.52178,-0.51791,-0.52365,-0.53056,-0.52811,-0.52145,-0.52108,-0.52284,-0.53341,-0.52921,-0.52256,-0.51994,-0.52559,-0.53568,-0.53083,-0.52588,-0.51945,-0.51763,-0.5283,-0.53154,-0.528,-0.52016,-0.52466,-0.53395,-0.53376,-0.52788,-0.52417,-0.52295,-0.53449,-0.53393,-0.53158,-0.52362,-0.52505,-0.53186,-0.53761,-0.53552,-0.52672,-0.52469,-0.52977,-0.53407,-0.53375,-0.52675,-0.52747,-0.52839,-0.53816,-0.53589,-0.52491,-0.5267,-0.53233,-0.5372,-0.53717,-0.52503,-0.52704,-0.52692,-0.53715,-0.53166,-0.53004,-0.52457,-0.52929,-0.53791,-0.53739,-0.5271,-0.52567,-0.52634,-0.53779,-0.53858,-0.53187,-0.52484,-0.52981,-0.5381,-0.53478,-0.51737,-0.50212,-0.49453,-0.49382,-0.48813,-0.48014,-0.46143,-0.45672,-0.45306,-0.44989,-0.445,-0.42259,-0.42879,-0.4244,-0.43141,-0.43353,-0.43687,-0.45636,-0.48564,-0.50539,-0.51422,-0.5169,-0.52745,-0.53971,-0.5496,-0.55193,-0.54561,-0.54467,-0.5461,-0.55754,-0.55788,-0.55133,-0.55355,-0.57461,-0.60114,-0.60858,-0.52083,-0.35981,-0.088472,0.22687,0.5328,0.78802,0.86452,0.84854,0.68486,0.31068,0.048712,-0.53207,-0.83598,-0.78799,-0.74038,-0.67346,-0.65587,-0.61516,-0.63197,-0.61079,-0.62305,-0.59351,-0.61503,-0.60387,-0.6213,-0.60406,-0.60714,-0.59665,-0.61773,-0.60733,-0.62005,-0.60196,-0.61216,-0.60728,-0.62234,-0.6135,-0.61078,-0.60042,-0.60915,-0.60979,-0.61497,-0.59753,-0.60146,-0.60098,-0.61289,-0.60675,-0.60012,-0.59483,-0.60313,-0.60698,-0.60772,-0.60442,-0.596,-0.59875,-0.60796,-0.60679,-0.60694,-0.59911,-0.60004,-0.61024,-0.61008,-0.60595,-0.59632,-0.59313,-0.59902,-0.59687,-0.58891,-0.57645,-0.57205,-0.58122,-0.57785,-0.57825,-0.56534,-0.56413,-0.5632,-0.5726,-0.5632,-0.55887,-0.55115,-0.55793,-0.5553,-0.5502,-0.53632,-0.53006,-0.52797,-0.53004,-0.51381,-0.50461,-0.49267,-0.49075,-0.48771,-0.48093,-0.47018,-0.4594,-0.45046,-0.45594,-0.44444,-0.44252,-0.4318,-0.43467,-0.44085,-0.43664,-0.42561,-0.42474,-0.42092,-0.43133,-0.42069,-0.41763,-0.40482,-0.40367,-0.40581,-0.404,-0.39558,-0.38352,-0.37603,-0.38101,-0.38263,-0.37734,-0.36435,-0.37021,-0.36898,-0.37933,-0.37315,-0.3699,-0.36887,-0.3806,-0.38594,-0.38977,-0.3844,-0.3923,-0.40284,-0.41507,-0.41623,-0.41865,-0.42264,-0.43311,-0.45291,-0.45588,-0.45687,-0.46517,-0.47058,-0.48331,-0.48508,-0.48545,-0.48247,-0.49211,-0.50663,-0.51168,-0.50718,-0.5114,-0.51194,-0.52693,-0.5286,-0.52434,-0.52171,-0.52103,-0.5304,-0.53687,-0.53189,-0.52419,-0.53289,-0.53991,-0.54614,-0.53805,-0.52875,-0.53219,-0.5415,-0.54505,-0.54415,-0.53468,-0.53952,-0.54546,-0.55222,-0.55144,-0.54318,-0.54146,-0.546,-0.55244,-0.55496,-0.54274,-0.54845,-0.55279,-0.56312,-0.56076,-0.55409,-0.55449,-0.55544,-0.5604,-0.56283,-0.5489,-0.55166,-0.55806,-0.56546,-0.56196,-0.55684,-0.54874,-0.55729,-0.55912,-0.56006,-0.5554,-0.55224,-0.5538,-0.55798,-0.56217,-0.55678,-0.54748,-0.55415,-0.56445,-0.56455,-0.55884,-0.55233,-0.5552,-0.56122,-0.56135,-0.56274,-0.55541,-0.55875,-0.55725,-0.56413,-0.55865,-0.54994,-0.55194,-0.56057,-0.55956,-0.54781,-0.53019,-0.52546,-0.51807,-0.51797,-0.50934,-0.48679,-0.47805,-0.47422,-0.47013,-0.46791,-0.45567,-0.44756,-0.44847,-0.45694,-0.46226,-0.46857,-0.47355,-0.50453,-0.52863,-0.53845,-0.54562,-0.55,-0.56152,-0.57391,-0.57935,-0.57327,-0.5688,-0.57121,-0.57715,-0.58345,-0.58014,-0.56963,-0.58272,-0.61413,-0.63403,-0.57996,-0.44781,-0.21892,0.10447,0.40127,0.68444,0.85302,0.83063,0.77113,0.44587,-0.045739,-0.64803,-0.86235,-0.8365,-0.81684,-0.73132,-0.69382,-0.65177,-0.6468,-0.64146,-0.64495,-0.61967,-0.61953,-0.61306,-0.62824,-0.61653,-0.62324,-0.61271,-0.62068,-0.61821,-0.62509,-0.61412,-0.6154,-0.611,-0.62369,-0.62152,-0.6243,-0.61094,-0.6157,-0.62247,-0.62489,-0.61347,-0.6063,-0.6063,-0.61555,-0.61988,-0.61662,-0.6035,-0.6104,-0.61905,-0.62051,-0.61853,-0.61333,-0.60975,-0.61533,-0.62266,-0.61676,-0.60576,-0.60441,-0.61319,-0.62747,-0.62544,-0.61115,-0.60884,-0.60805,-0.61364,-0.60578,-0.58808,-0.59282,-0.59247,-0.59555,-0.59068,-0.57486,-0.57824,-0.58057,-0.58797,-0.58478,-0.57807,-0.57369,-0.57074,-0.57427,-0.57324,-0.55297,-0.54623,-0.54379,-0.5468,-0.54573,-0.53342,-0.51515,-0.50966,-0.50614,-0.4974,-0.48225,-0.47835,-0.47578,-0.47876,-0.47878,-0.47542,-0.46357,-0.46544,-0.46204,-0.47351,-0.4579,-0.45151,-0.44788,-0.45297,-0.44946,-0.44263,-0.42441,-0.42853,-0.42279,-0.43354,-0.4247,-0.41243,-0.40514,-0.4046,-0.40606,-0.40657,-0.39396,-0.39048,-0.38645,-0.39749,-0.3961,-0.38886,-0.38383,-0.38764,-0.40029,-0.40749,-0.39874,-0.40049,-0.40606,-0.4218,-0.43216,-0.43107,-0.43066,-0.43611,-0.44414,-0.45629,-0.46352,-0.45691,-0.4678,-0.47463,-0.4801,-0.48619,-0.47944,-0.48459,-0.49733,-0.50447,-0.50087,-0.49562,-0.5045,-0.51276,-0.52249,-0.5254,-0.51822,-0.5248,-0.52701,-0.536,-0.53651,-0.52674,-0.52625,-0.53158,-0.5418,-0.5442,-0.53729,-0.53707,-0.53987,-0.5457,-0.54726,-0.54035,-0.54161,-0.54136,-0.54353,-0.55051,-0.54307,-0.5435,-0.54515,-0.54682,-0.55397,-0.55014,-0.54054,-0.54192,-0.55408,-0.55289,-0.55437,-0.54208,-0.54768,-0.55476,-0.55747,-0.55066,-0.54328,-0.54592,-0.55243,-0.54386,-0.53641,-0.51324,-0.50954,-0.50682,-0.5049,-0.48654,-0.46814,-0.4577,-0.4539,-0.45912,-0.45417,-0.44306,-0.4399,-0.44241,-0.457,-0.46578,-0.47702,-0.49674,-0.52326,-0.53973,-0.55155,-0.54819,-0.55845,-0.56378,-0.57603,-0.57826,-0.57668,-0.57101,-0.56998,-0.58406,-0.58727,-0.58767,-0.58322,-0.59943,-0.6222,-0.62513,-0.53894,-0.38495,-0.12719,0.17335,0.45995,0.718,0.82967,0.80935,0.76087,0.47453,0.02637,-0.60046,-0.87056,-0.86251,-0.81944,-0.73295,-0.69918,-0.65164,-0.65612,-0.63902,-0.64532,-0.61725,-0.62646,-0.61969,-0.63975,-0.62121,-0.62212,-0.61215,-0.62312,-0.62328,-0.63287,-0.61803,-0.62321,-0.61662,-0.63543,-0.62482,-0.62395,-0.61359,-0.61962,-0.62442,-0.6251,-0.61006,-0.61337,-0.61268,-0.62784,-0.61801,-0.61432,-0.61006,-0.6088,-0.61799,-0.62569,-0.61888,-0.61363,-0.60746,-0.61906,-0.62105,-0.61555,-0.61074,-0.61195,-0.6164,-0.61642,-0.6144,-0.60299,-0.6036,-0.6041,-0.60693,-0.60027,-0.58857,-0.58685,-0.58725,-0.59357,-0.59181,-0.5802,-0.58176,-0.5779,-0.58995,-0.58201,-0.57612,-0.56978,-0.57115,-0.57183,-0.57106,-0.55496,-0.55193,-0.5421,-0.54973,-0.53735,-0.52612,-0.51378,-0.51109,-0.50473,-0.50802,-0.49371,-0.48558,-0.47922,-0.49028,-0.48875,-0.48242,-0.46817,-0.47601,-0.47841,-0.48465,-0.47605,-0.47045,-0.46949,-0.47397,-0.46889,-0.46353,-0.45352,-0.45283,-0.44628,-0.45023,-0.43966,-0.42958,-0.42056,-0.42031,-0.42014,-0.41917,-0.40181,-0.40077,-0.39626,-0.40457,-0.40252,-0.39435,-0.39656,-0.40081,-0.4105,-0.41545,-0.40899,-0.41277,-0.4172,-0.43412,-0.44117,-0.44132,-0.4408,-0.45185,-0.46495,-0.47381,-0.47233,-0.47186,-0.47762,-0.49256,-0.49827,-0.49973,-0.4963,-0.50541,-0.5172,-0.52109,-0.51608,-0.51226,-0.51855,-0.52616,-0.53434,-0.53496,-0.52702,-0.53121,-0.5363,-0.54189,-0.54353,-0.5345,-0.53612,-0.54139,-0.54855,-0.54658,-0.53826,-0.54197,-0.54861,-0.55274,-0.55371,-0.54789,-0.54704,-0.54939,-0.55891,-0.55878,-0.55528,-0.5483,-0.55407,-0.56287,-0.56307,-0.55393,-0.55339,-0.5549,-0.56495,-0.56542,-0.564,-0.54973,-0.554,-0.56629,-0.56824,-0.56062,-0.55561,-0.55924,-0.56463,-0.56707,-0.56424,-0.55524,-0.55784,-0.56469,-0.56733,-0.56365,-0.55764,-0.55824,-0.57114,-0.56812,-0.56573,-0.55537,-0.5623,-0.56689,-0.56798,-0.56393,-0.56109,-0.55778,-0.56158,-0.5686,-0.56496,-0.55932,-0.55526,-0.55436,-0.5548,-0.53996,-0.52303,-0.51003,-0.50863,-0.50638,-0.49313,-0.47676,-0.46124,-0.46271,-0.46392,-0.45597,-0.45264,-0.43877,-0.44298,-0.45813,-0.4745,-0.48955,-0.50782,-0.51563,-0.53891,-0.55032,-0.55428,-0.55644,-0.56216,-0.57327,-0.5755,-0.57313,-0.56842,-0.56917,-0.58185,-0.58352,-0.58502,-0.59018,-0.6105,-0.62294,-0.56264,-0.41737,-0.15811,0.15162,0.45418,0.71976,0.83363,0.82508,0.73155,0.38089,-0.14533,-0.70943,-0.86389,-0.79836,-0.74119,-0.7011,-0.67876,-0.64852,-0.6425,-0.62561,-0.63999,-0.62502,-0.62794,-0.61174,-0.62144,-0.62209,-0.62844,-0.61292,-0.61743,-0.61114,-0.63128,-0.62258,-0.62308,-0.61352,-0.61739,-0.62296,-0.62695,-0.62128,-0.61626,-0.61205,-0.61551,-0.61638,-0.61204,-0.59612,-0.60135,-0.6001,-0.60846,-0.60085,-0.59264,-0.5936,-0.59757,-0.6019,-0.60144,-0.59124,-0.59602,-0.59811,-0.60539,-0.60677,-0.5952,-0.59348,-0.59413,-0.60061,-0.5968,-0.58886,-0.58168,-0.58219,-0.58309,-0.5796,-0.56809,-0.56501,-0.5604,-0.56684,-0.5616,-0.5535,-0.54977,-0.55198,-0.55679,-0.55445,-0.54575,-0.53879,-0.5364,-0.53938,-0.53491,-0.5289,-0.50948,-0.51116,-0.50751,-0.50642,-0.49094,-0.47431,-0.47026,-0.47025,-0.46465,-0.46022,-0.4447,-0.45009,-0.45655,-0.4602,-0.45793,-0.44872,-0.44659,-0.44928,-0.4523,-0.4532,-0.43787,-0.43853,-0.43587,-0.44021,-0.43045,-0.41931,-0.40941,-0.41411,-0.41287,-0.40824,-0.38916,-0.38712,-0.38182,-0.39018,-0.38476,-0.38069,-0.36976,-0.37423,-0.37741,-0.38024,-0.37806,-0.37309,-0.37878,-0.3916,-0.39294,-0.39575,-0.39179,-0.40032,-0.41177,-0.42023,-0.4213,-0.42065,-0.42826,-0.44443,-0.44986,-0.45338,-0.44951,-0.4577,-0.46343,-0.4746,-0.47566,-0.47244,-0.47739,-0.48879,-0.49536,-0.49765,-0.49192,-0.49648,-0.50847,-0.51287,-0.51097,-0.50552,-0.50685,-0.51601,-0.52275,-0.52122,-0.51936,-0.51205,-0.51897,-0.53111,-0.52889,-0.52364,-0.52115,-0.52287,-0.53496,-0.53297,-0.52865,-0.52359,-0.5277,-0.54006,-0.53926,-0.53316,-0.53026,-0.53102,-0.54162,-0.54019,-0.54007,-0.52698,-0.52948,-0.53507,-0.54093,-0.53504,-0.52968,-0.52814,-0.53736,-0.54373,-0.54078,-0.53253,-0.53452,-0.5401,-0.54593,-0.53829,-0.53263,-0.53159,-0.54062,-0.54689,-0.54545,-0.5395,-0.53802,-0.53966,-0.55256,-0.54954,-0.54235,-0.53773,-0.54283,-0.5508,-0.54905,-0.5444,-0.54077,-0.53961,-0.55409,-0.55048,-0.5408,-0.53969,-0.54166,-0.55261,-0.55124,-0.54915,-0.54405,-0.54107,-0.54663,-0.55083,-0.54121,-0.52186,-0.51146,-0.50854,-0.50757,-0.49128,-0.47606,-0.46806,-0.46652,-0.45784,-0.45295,-0.43978,-0.43922,-0.44069,-0.4447,-0.44259,-0.44881,-0.46216,-0.48821,-0.51242,-0.52289,-0.52626,-0.53684,-0.5465,-0.56267,-0.55979,-0.55947,-0.56288,-0.5651,-0.57567,-0.58008,-0.56709,-0.57122,-0.58321,-0.60964,-0.61463,-0.59266,-0.48245,-0.29476,-0.0038997,0.2901,0.5926,0.81592,0.83046,0.81283,0.5716,0.1601,-0.42985,-0.82567,-0.84726,-0.77846,-0.7105,-0.6735,-0.64174,-0.6366,-0.63554,-0.6298,-0.61465,-0.61136,-0.60794,-0.61743,-0.613,-0.60285,-0.60803,-0.61198,-0.61475,-0.61579,-0.6023,-0.60159,-0.60515,-0.6097,-0.60983,-0.59341,-0.59934,-0.60805,-0.61326,-0.61324,-0.60321,-0.59261,-0.595,-0.6037,-0.59755,-0.59119,-0.58722,-0.5922,-0.59503,-0.59947,-0.59206,-0.58253,-0.58726,-0.59682,-0.59495,-0.58457,-0.58059,-0.58512,-0.5852,-0.58814,-0.58554,-0.57418,-0.56977,-0.57204,-0.57608,-0.56794,-0.55246,-0.54671,-0.5552,-0.55389,-0.55154,-0.53749,-0.53581,-0.53863,-0.54039,-0.54031,-0.52905,-0.52917,-0.53299,-0.53594,-0.52485,-0.50877,-0.50252,-0.49948,-0.50733,-0.49641,-0.48712,-0.47275,-0.46963,-0.46954,-0.46214,-0.44608,-0.43687,-0.43674,-0.44129,-0.43612,-0.43336,-0.42616,-0.42915,-0.42762,-0.43277,-0.43303,-0.41677,-0.41796,-0.43049,-0.42624,-0.41863,-0.4065,-0.40187,-0.40695,-0.39917,-0.39126,-0.37949,-0.37889,-0.38212,-0.37387,-0.3729,-0.35828,-0.35964,-0.36004,-0.36587,-0.36255,-0.34975,-0.35243,-0.35802,-0.36545,-0.37327,-0.36488,-0.36532,-0.37277,-0.38503,-0.38441,-0.38494,-0.3862,-0.39688,-0.4122,-0.41519,-0.41611,-0.41872,-0.4374,-0.44175,-0.43501,-0.43522,-0.43788,-0.44299,-0.46205,-0.46583,-0.46323,-0.45359,-0.45286,-0.46192,-0.47686,-0.47452,-0.47856,-0.47987,-0.48583,-0.49027,-0.48238,-0.48142,-0.48589,-0.49288,-0.50036,-0.49662,-0.48435,-0.48428,-0.48988,-0.50249,-0.49912,-0.49186,-0.49063,-0.49419,-0.50256,-0.49942,-0.49299,-0.49291,-0.49662,-0.50613,-0.50754,-0.49826,-0.49512,-0.49399,-0.50536,-0.50992,-0.50292,-0.50242,-0.50277,-0.5137,-0.50789,-0.50276,-0.50279,-0.50504,-0.51442,-0.51462,-0.49457,-0.478,-0.4636,-0.46616,-0.4548,-0.43894,-0.42701,-0.41342,-0.41375,-0.41721,-0.40547,-0.39879,-0.39438,-0.39079,-0.40071,-0.40444,-0.40815,-0.42907,-0.45988,-0.48252,-0.49486,-0.49087,-0.50508,-0.51396,-0.52344,-0.51828,-0.5153,-0.5199,-0.52571,-0.52943,-0.53003,-0.51886,-0.52627,-0.52443,-0.55813,-0.57022,-0.53684,-0.41792,-0.22136,0.090325,0.38138,0.67007,0.87175,0.88458,0.84496,0.56757,0.13174,-0.52542,-0.75457,-0.81149,-0.80578,-0.70949,-0.65723,-0.60703,-0.60354,-0.57586,-0.58463,-0.5518,-0.56489,-0.55754,-0.57202,-0.55472,-0.55641,-0.54824,-0.56212,-0.55305,-0.56054,-0.54058,-0.55414,-0.54598,-0.55929,-0.54925,-0.54505,-0.53571,-0.54882,-0.55356,-0.55689,-0.53998,-0.54559,-0.53879,-0.55209,-0.54738,-0.53723,-0.52965,-0.53642,-0.5459,-0.5457,-0.5363,-0.53669,-0.53314,-0.54233,-0.54201,-0.53737,-0.53326,-0.53575,-0.5472,-0.54827,-0.54429,-0.53193,-0.53193,-0.53477,-0.53125,-0.51747,-0.5117,-0.50972,-0.52016,-0.51199,-0.51007,-0.49803,-0.50338,-0.50471,-0.50723,-0.50444,-0.49207,-0.48782,-0.49768,-0.49451,-0.49326,-0.47489,-0.47461,-0.47427,-0.47582,-0.46454,-0.45027,-0.43978,-0.44201,-0.43442,-0.42987,-0.40702,-0.40832,-0.41167,-0.42005,-0.41417,-0.40818,-0.39774,-0.40243,-0.40742,-0.4101,-0.39806,-0.3967,-0.39463,-0.40587,-0.39753,-0.39125,-0.38172,-0.38284,-0.38655,-0.37759,-0.36714,-0.35722,-0.35051,-0.35466,-0.35381,-0.34714,-0.33505,-0.33333,-0.33857,-0.34012,-0.33428,-0.32935,-0.32915,-0.33816,-0.3391,-0.34268,-0.34019,-0.34559,-0.35528,-0.36653,-0.36587,-0.36443,-0.36678,-0.37851,-0.39364,-0.3938,-0.39267,-0.4001,-0.4052,-0.42376,-0.42233,-0.42183,-0.42478,-0.43235,-0.44441,-0.44549,-0.44384,-0.44097,-0.4463,-0.46033,-0.45796,-0.45347,-0.45306,-0.45274,-0.4663,-0.46988,-0.46696,-0.45986,-0.4659,-0.47837,-0.48231,-0.4753,-0.46925,-0.47388,-0.48089,-0.48122,-0.47747,-0.47329,-0.47663,-0.48567,-0.48911,-0.48397,-0.47655,-0.47946,-0.48674,-0.49383,-0.49326,-0.48407,-0.4852,-0.48947,-0.49866,-0.49468,-0.48504,-0.48879,-0.4929,-0.50131,-0.50152,-0.48845,-0.49297,-0.49575,-0.49682,-0.478,-0.46205,-0.45567,-0.44793,-0.44973,-0.44394,-0.42626,-0.41579,-0.4023,-0.40622,-0.40164,-0.39137,-0.38336,-0.38705,-0.39793,-0.40785,-0.40969,-0.43288,-0.45708,-0.47182,-0.48931,-0.49454,-0.4936,-0.50491,-0.51035,-0.5211,-0.51993,-0.51315,-0.51785,-0.52296,-0.52839,-0.52566,-0.51772,-0.52589,-0.55447,-0.5722,-0.55316,-0.43626,-0.25071,0.046815,0.34387,0.65132,0.86409,0.8823,0.85849,0.74867,0.40211,-0.1228,-0.67952,-0.82654,-0.77137,-0.71403,-0.64626,-0.62523,-0.58913,-0.60018,-0.57803,-0.57759,-0.56394,-0.57439,-0.56876,-0.57839,-0.55649,-0.56053,-0.55605,-0.56981,-0.56598,-0.573,-0.55715,-0.56675,-0.56651,-0.57307,-0.56381,-0.5575,-0.55605,-0.56756,-0.56136,-0.56323,-0.54815,-0.55232,-0.55331,-0.55642,-0.54964,-0.54583,-0.54081,-0.54721,-0.55315,-0.55034,-0.54191,-0.54453,-0.54535,-0.55204,-0.55196,-0.54151,-0.54132,-0.54333,-0.55184,-0.54782,-0.54043,-0.5349,-0.53487,-0.53537,-0.53389,-0.52688,-0.51631,-0.51343,-0.52065,-0.51378,-0.50987,-0.49812,-0.50425,-0.50685,-0.50626,-0.49975,-0.49358,-0.48912,-0.49613,-0.49,-0.47968,-0.46684,-0.46913,-0.47624,-0.46925,-0.45513,-0.44854,-0.43914,-0.44065,-0.4367,-0.42841,-0.40949,-0.41177,-0.4159,-0.42544,-0.4176,-0.41455,-0.40866,-0.41901,-0.42127,-0.42283,-0.40992,-0.41196,-0.41541,-0.42189,-0.41136,-0.40581,-0.39651,-0.39432,-0.39916,-0.38975,-0.37364,-0.36527,-0.36241,-0.37029,-0.36301,-0.3565,-0.34883,-0.35183,-0.3599,-0.35484,-0.34884,-0.34748,-0.3511,-0.36571,-0.36297,-0.36032,-0.35427,-0.36433,-0.37398,-0.38379,-0.38369,-0.38203,-0.38842,-0.40077,-0.4131,-0.41711,-0.41377,-0.41922,-0.43252,-0.44355,-0.44385,-0.4408,-0.44659,-0.45747,-0.46304,-0.46444,-0.46278,-0.46703,-0.46723,-0.47924,-0.48109,-0.47658,-0.48213,-0.48202,-0.49447,-0.49405,-0.48897,-0.49125,-0.49478,-0.50603,-0.50816,-0.50409,-0.50036,-0.50125,-0.51198,-0.50931,-0.50489,-0.50073,-0.50361,-0.51229,-0.51848,-0.51315,-0.50758,-0.5078,-0.51385,-0.52201,-0.5146,-0.50763,-0.51134,-0.51665,-0.52119,-0.52064,-0.51072,-0.51219,-0.52245,-0.52718,-0.52546,-0.51551,-0.51641,-0.5159,-0.52672,-0.53001,-0.52045,-0.52316,-0.52328,-0.53082,-0.52916,-0.51345,-0.50072,-0.49009,-0.48928,-0.47875,-0.46127,-0.45506,-0.44799,-0.44757,-0.43406,-0.42345,-0.41912,-0.41194,-0.4182,-0.41779,-0.41505,-0.4157,-0.43151,-0.45556,-0.48378,-0.49016,-0.49728,-0.51202,-0.52863,-0.5399,-0.54237,-0.54002,-0.54507,-0.54809,-0.55333,-0.5498,-0.54623,-0.54531,-0.554,-0.55918,-0.58052,-0.57667,-0.57898,-0.47684,-0.30119,-0.007116,0.30207,0.59539,0.81254,0.84896,0.82307,0.6204,0.22384,-0.36847,-0.82735,-0.8801,-0.82824,-0.74806,-0.69561,-0.67175,-0.63566,-0.61916,-0.61098,-0.6061,-0.61081,-0.61804,-0.60873,-0.60186,-0.60219,-0.62117,-0.60793,-0.61266,-0.60399,-0.60938,-0.62598,-0.61052,-0.6101,-0.58426,-0.58713,-0.58575,-0.58187,-0.57915,-0.56306,-0.55975,-0.56785,-0.56136,-0.556,-0.55784,-0.56749,-0.57745,-0.58364,-0.5807,-0.56498,-0.56487,-0.56311,-0.56542,-0.56149,-0.55138,-0.54072,-0.55687,-0.56034,-0.54853,-0.53304,-0.54329,-0.54695,-0.55773,-0.54909,-0.52462,-0.52185,-0.53622,-0.53297,-0.52799,-0.50851,-0.51011,-0.4998,-0.49791,-0.49048,-0.48944,-0.4824,-0.48369,-0.47196,-0.47755,-0.46854,-0.45806,-0.47598,-0.46178,-0.4627,-0.45491,-0.43196,-0.41531,-0.42109,-0.40881,-0.39641,-0.39932,-0.38494,-0.38112,-0.39345,-0.38986,-0.3699,-0.37871,-0.38378,-0.37993,-0.38357,-0.36705,-0.35983,-0.35719,-0.36382,-0.3568,-0.34315,-0.3283,-0.34372,-0.34468,-0.333,-0.32555,-0.31081,-0.30852,-0.32242,-0.31536,-0.30059,-0.29671,-0.28937,-0.30184,-0.29656,-0.29614,-0.2779,-0.27513,-0.26607,-0.26162,-0.26684,-0.27187,-0.28344,-0.27948,-0.27754,-0.27818,-0.30039,-0.31264,-0.34082,-0.33982,-0.33688,-0.33802,-0.3389,-0.34552,-0.35166,-0.34546,-0.34113,-0.33348,-0.3547,-0.36637,-0.3796,-0.38863,-0.39818,-0.39672,-0.40059,-0.40304,-0.41165,-0.42784,-0.45621,-0.47436,-0.46817,-0.48868,-0.4719,-0.4718,-0.52612,-0.64663,-0.67023,-0.59163,-0.54912,-0.53452,-0.53827,-0.50844,-0.50164,-0.47464,-0.47462,-0.472,-0.45554,-0.46012,-0.44785,-0.46902,-0.46871,-0.49219,-0.51734,-0.54621,-0.51524,-0.51298,-0.5151,-0.49947,-0.5299,-0.56409,-0.5812,-0.56119,-0.59206,-0.6319,-0.66032,-0.6747,-0.65096,-0.63666,-0.62225,-0.61547,-0.59673,-0.59089,-0.60769,-0.57475,-0.56673,-0.56363,-0.57213,-0.59522,-0.58011,-0.51533,-0.37884,-0.13656,0.15098,0.4534,0.74272,0.87125,0.83861,0.77773,0.45322,-0.0074488,-0.34693,-0.70941,-0.72376,-0.66219,-0.59421,-0.53038,-0.49308,-0.45289,-0.45931,-0.45807,-0.44291,-0.43624,-0.43757,-0.38923,-0.40172,-0.39017,-0.38275,-0.37322,-0.35673,-0.35834,-0.38336,-0.36464,-0.35403,-0.36892,-0.38828,-0.39358,-0.41339,-0.40383,-0.42038,-0.46577,-0.45615,-0.45259,-0.44524,-0.40365,-0.40657,-0.40111,-0.39799,-0.387,-0.35324,-0.32509,-0.31755,-0.30691,-0.29552,-0.30395,-0.3054,-0.31326,-0.29166,-0.2817,-0.28184,-0.27978,-0.28804,-0.29741,-0.283,-0.26109,-0.23134,-0.21874,-0.22516,-0.24195,-0.23898,-0.21279,-0.22886,-0.22941,-0.23847,-0.24241,-0.23,-0.2162,-0.23575,-0.23001,-0.21537,-0.21224,-0.22452,-0.24734,-0.22505,-0.22223,-0.22925,-0.21789,-0.23469,-0.22825,-0.21522,-0.19325,-0.19697,-0.19111,-0.20044,-0.21136,-0.19157,-0.1733,-0.17817,-0.18847,-0.17774,-0.17608,-0.1691,-0.18919,-0.17826,-0.16104,-0.16496,-0.14341,-0.14479,-0.14992,-0.12246,-0.10185,-0.10494,-0.093161,-0.092607,-0.095109,-0.076741,-0.063842,-0.080898,-0.093001,-0.088538,-0.093224,-0.062525,-0.069143,-0.068776,-0.047217,-0.070618,-0.065467,-0.042657,-0.064546,-0.053967,-0.049854,-0.057541,-0.076608,-0.080451,-0.079961,-0.08279,-0.080264,-0.071505,-0.092034,-0.1028,-0.12333,-0.11057,-0.13534,-0.1228,-0.13638,-0.13933,-0.11939,-0.10333,-0.10043,-0.10678,-0.11278,-0.081937,-0.069129,-0.069314,-0.074125,-0.063428,-0.012497,-0.039014,-0.035879,-0.040066,-0.027951,-0.03148,-0.015042,-0.023972,-0.070587,-0.07342,-0.070315,-0.097498,-0.12621,-0.15889,-0.15638,-0.11717,-0.12487,-0.15104,-0.13581,-0.14941,-0.16871,-0.12541,-0.12585,-0.15477,-0.15454,-0.1353,-0.12891,-0.13911,-0.1719,-0.19174,-0.18499,-0.079009,0.03978,0.33604,0.63659,0.92327,1.165,1.1889,1.1747,1.0667,0.74776,0.28269,-0.26208,-0.3499,-0.30648,-0.30038,-0.2177,-0.18754,-0.15492,-0.17114,-0.15448,-0.14827,-0.12032,-0.13593,-0.1347,-0.13724,-0.096812,-0.1149,-0.10095,-0.11422,-0.096039,-0.088824,-0.057416,-0.05776,-0.061698,-0.056953,-0.061078,-0.059664,-0.046408,-0.06386,-0.062027,-0.057041,-0.037537,-0.061975,-0.065293,-0.068953,-0.052337,-0.052545,-0.055194,-0.053091,-0.039514,-0.043295,-0.01483,-0.038222,-0.037568,-0.038375,-0.030372,-0.019649,-0.020612,-0.020658,-0.011956,0.0028346,0.012339,0.0057888,0.0045198,0.0076793,0.0099614,0.03467,0.0066029,0.017657,0.02587,0.029252,0.054671,0.075853,0.047177,0.047484,0.034231,0.041936,0.061537,0.071438,0.07755,0.08863,0.090795,0.087932,0.091607,0.099193,0.11433,0.14318,0.15747,0.16266,0.15915,0.15497,0.1626,0.17353,0.18866,0.1897,0.18049,0.17182,0.20963,0.19083,0.17056,0.17949,0.18338,0.21447,0.20371,0.20224,0.1948,0.22732,0.23329,0.24812,0.25873,0.25703,0.2424,0.27454,0.27506,0.28393,0.2614,0.2505,0.29211,0.28329,0.28446,0.27421,0.27228,0.28101,0.27867,0.27594,0.25774,0.23856,0.24151,0.25051,0.25128,0.23134,0.22392,0.22857,0.23213,0.22317,0.20544,0.20685,0.21187,0.21859,0.22158,0.21346,0.1967,0.22618,0.22671,0.23223,0.23956,0.242,0.25503,0.25717,0.24266,0.25126,0.24014,0.25792,0.25827,0.26202,0.2291,0.21238,0.18666,0.18428,0.15249,0.13798,0.1305,0.139,0.12724,0.12593,0.13203,0.13028,0.14069,0.13487,0.13953,0.13379,0.12526,0.14083,0.13771,0.13193,0.12682,0.075432,0.048855,0.08012,0.20493,0.38385,0.666,1.0058,1.3137,1.4528,1.4431,1.3926,1.1113,0.65372,0.092879,-0.016215,-0.044389,-0.035735,0.031226,0.043109,0.088314,0.078681,0.085567,0.069619,0.099404,0.098827,0.10841,0.090454,0.10821,0.099933,0.11339,0.11524,0.12254,0.10488,0.13698,0.11406,0.13754,0.11432,0.14159,0.11848,0.13453,0.12648,0.11903,0.095876,0.11563,0.12863,0.11154,0.10946,0.11696,0.10559,0.11841,0.12608,0.12618,0.11652,0.13237,0.13672,0.12503,0.12749,0.14155,0.14022,0.15022,0.14022,0.1447,0.13971,0.13969,0.15554,0.15147,0.15974,0.16758,0.16265,0.1835,0.17746,0.18316,0.173,0.18909,0.20343,0.20097,0.2041,0.20223,0.19639,0.20513,0.21831,0.21015,0.22497,0.21953,0.21042,0.22942,0.22726,0.22376,0.22516,0.23806,0.26154,0.26395,0.25534,0.24839,0.25332,0.25258,0.25618,0.233,0.25243,0.22703,0.24728,0.24495,0.23854,0.24466,0.2603,0.2555,0.2629,0.26941,0.27178,0.2808,0.29531,0.29623,0.29271,0.30632,0.30948,0.31166,0.33128,0.31615,0.32373,0.32594,0.33087,0.3281,0.33428,0.32599,0.33032,0.32624,0.32781,0.32241,0.3092,0.30585,0.32809,0.30669,0.2981,0.28912,0.29273,0.30115,0.30144,0.28772,0.27255,0.26785,0.25732,0.24933,0.25449,0.24964,0.25864,0.25669,0.28454,0.26572,0.24178,0.25526,0.26578,0.2844,0.2993,0.28639,0.28346,0.29794,0.31353,0.31425,0.29674,0.30109,0.28245,0.27291,0.27198,0.22424,0.19334,0.18907,0.18916,0.18333,0.1696,0.18594,0.16888,0.16132,0.16714,0.14549,0.15483,0.19219,0.1724,0.16941,0.17651,0.15396,0.14596,0.12929,0.101,0.10019,0.18704,0.34614,0.6411,0.93547,1.2558,1.4392,1.4414,1.4753,1.2348,0.87033,0.24243,-0.024227,-0.026412,-0.0058805,0.062055,0.076219,0.084101,0.10915,0.13963,0.1164,0.12837,0.10078,0.12096,0.10407,0.11814,0.090905,0.11588,0.11377,0.11735,0.12035,0.1123,0.10182,0.1249,0.12317,0.12261,0.11285,0.10823,0.11611,0.1081,0.1032,0.10489,0.077594,0.094277,0.0997,0.091243,0.097081,0.088159,0.099761,0.10207,0.11308,0.11019,0.11259,0.10685,0.11036,0.13085,0.141,0.12511,0.13506,0.13988,0.14924,0.1449,0.16081,0.15887,0.16196,0.17617,0.18169,0.17142,0.177,0.20199,0.19405,0.18829,0.18109,0.17477,0.1795,0.18589,0.18722,0.19015,0.19704,0.18276,0.19696,0.18019,0.19236,0.18646,0.18905,0.18422,0.19661,0.19419,0.18232,0.18955,0.19879,0.19703,0.18386,0.17777,0.17359,0.18054,0.17193,0.16585,0.1532,0.1566,0.17302,0.1742,0.15974,0.15428,0.15993,0.16031,0.17144,0.18156,0.15613,0.1707,0.17669,0.17948,0.15913,0.15357,0.14626,0.14775,0.14381,0.14525,0.13029,0.11866,0.12432,0.1142,0.11307,0.11997,0.11757,0.10356,0.13337,0.11931,0.11732,0.12015,0.10945,0.10369,0.091008,0.072458,0.062278,0.054885,0.066232,0.059027,0.054321,0.033816,0.032055,0.015469,0.031241,0.019366,0.010254,0.020163,0.018301,0.025126,0.019263,0.036778,0.033857,0.030181,0.050772,0.055265,0.053072,0.080222,0.08968,0.11147,0.10452,0.11581,0.11961,0.10827,0.13387,0.10749,0.10053,0.09056,0.078239,0.067831,0.033821,0.012409,0.01932,0.028363,0.018232,0.034118,0.027422,0.016155,0.032561,0.024497,0.0294,0.040814,0.03306,0.045914,0.034884,0.030934,-0.0078567,-0.03657,-0.038475,0.022018,0.16508,0.37926,0.66215,0.99392,1.2909,1.4314,1.4179,1.3133,1.1346,0.72397,0.095287,-0.14786,-0.16665,-0.12937,-0.064294,-0.034317,-0.021491,-0.02344,-0.002705,-0.0017739,0.021839,0.0027829,0.0021738,-0.0098442,-0.0055499,-0.0080722,-0.0037609,-0.026287,-0.020333,-0.033355,-0.02092,-0.01604,-0.034418,-0.039251,-0.025351,-0.019229,-0.024213,-0.039956,-0.045912,-0.05724,-0.033717,-0.027858,-0.029814,-0.058245,-0.056053,-0.042507,-0.051329,-0.053219,-0.056155,-0.057254,-0.047363,-0.048012,-0.058512,-0.071367,-0.088753,-0.076378,-0.086358,-0.10107,-0.1188,-0.11634,-0.094495,-0.10861,-0.08716,-0.088029,-0.10037,-0.070987,-0.083917,-0.076245,-0.095499,-0.093203,-0.07825,-0.063224,-0.074078,-0.087206,-0.088531,-0.075458,-0.066871,-0.05235,-0.068202,-0.090358,-0.087713,-0.054167,-0.059945,-0.050525,-0.062894,-0.042768,-0.028453,-0.012098,-0.019906,-0.037506,-0.03015,-0.012367,-0.003579,-0.016448,-0.013797,-0.01462,-0.0044022,0.0035186,-0.0097142,-0.0077494,0.0045031,0.033876,0.05375,0.043576,0.041043,0.042732,0.051715,0.073107,0.069282,0.067946,0.055925,0.09367,0.097696,0.10089,0.10692,0.091653,0.11729,0.1189,0.12363,0.10456,0.12128,0.12422,0.11228,0.11033,0.106,0.082664,0.10518,0.12752,0.12635,0.082629,0.060944,0.063299,0.068296,0.059704,0.069046,0.039792,0.059532,0.055868,0.037353,0.025431,-0.020768,0.01561,0.00071206,0.01419,0.007845,-0.019847,-0.029809,-0.0031254,-0.020533,-0.0012663,0.0046134,-0.016382,-0.018487,-0.0006298,0.037629,0.045479,-0.0039088,0.016796,0.036903,0.044745,0.0062882,-0.041184,-0.02037,-0.010444,-0.016666,-0.11439,-0.12229,-0.14729,-0.13494,-0.12275,-0.14359,-0.13903,-0.17156,-0.13869,-0.15474,-0.14862,-0.17609,-0.19409,-0.19678,-0.1665,-0.18428,-0.19297,-0.19816,-0.22328,-0.20292,-0.23416,-0.13163,0.033213,0.35907,0.61004,0.87284,0.98907,1.0686,1.0678,0.92267,0.53972,-0.0017105,-0.51734,-0.54693,-0.4833,-0.5124,-0.4486,-0.44132,-0.34294,-0.32919,-0.29343,-0.32669,-0.35394,-0.32489,-0.31219,-0.31342,-0.33852,-0.34165,-0.3103,-0.29332,-0.30319,-0.30014,-0.32691,-0.32955,-0.31551,-0.31871,-0.34623,-0.33618,-0.32757,-0.32424,-0.33334,-0.39057,-0.34918,-0.33252,-0.33547,-0.3662,-0.38954,-0.37923,-0.33883,-0.36833,-0.38575,-0.34979,-0.38162,-0.3986,-0.33452,-0.33749,-0.37273,-0.36812,-0.37975,-0.37602,-0.33905,-0.38323,-0.36286,-0.39717,-0.38647,-0.3626,-0.37412,-0.37127,-0.35356,-0.34504,-0.31158,-0.32241,-0.33963,-0.34313,-0.36777,-0.35743,-0.32727,-0.39567,-0.37695,-0.3452,-0.30598,-0.32181,-0.30015,-0.3215,-0.30443,-0.26054,-0.25882,-0.27142,-0.28329,-0.24801,-0.24965,-0.27121,-0.27248,-0.25232,-0.2608,-0.23304,-0.22208,-0.23453,-0.2702,-0.23261,-0.21189,-0.24463,-0.26154,-0.25477,-0.25748,-0.21517,-0.2137,-0.21666,-0.23473,-0.23428,-0.21545,-0.18503,-0.19929,-0.2008,-0.19482,-0.15965,-0.17619,-0.1636,-0.19026,-0.17655,-0.16293,-0.17211,-0.17655,-0.16915,-0.15145,-0.16042,-0.15285,-0.14911,-0.16003,-0.15471,-0.16198,-0.12769,-0.11686,-0.12971,-0.12587,-0.10258,-0.11864,-0.11129,-0.11719,-0.13622,-0.11508,-0.10744,-0.1392,-0.19139,-0.20177,-0.20391,-0.23164,-0.26163,-0.28423,-0.3115,-0.3085,-0.30637,-0.32103,-0.33719,-0.36394,-0.34418,-0.33633,-0.32571,-0.3458,-0.37071,-0.36928,-0.35174,-0.34521,-0.3901,-0.40633,-0.41137,-0.39392,-0.29996,-0.24216,-0.037829,0.28119,0.55604,0.83096,0.97241,0.9595,0.7931,0.4719,-0.0142,-0.53828,-0.63334,-0.63652,-0.61948,-0.52892,-0.51286,-0.47511,-0.44232,-0.41139,-0.4128,-0.40706,-0.41874,-0.40465,-0.4099,-0.4052,-0.37678,-0.36567,-0.41592,-0.39539,-0.38327,-0.36618,-0.38614,-0.38398,-0.3743,-0.37817,-0.39899,-0.37934,-0.37949,-0.36953,-0.38122,-0.38248,-0.39032,-0.42656,-0.40968,-0.3925,-0.40276,-0.40877,-0.42047,-0.40804,-0.39997,-0.4095,-0.42119,-0.41984,-0.41358,-0.41173,-0.4047,-0.40231,-0.40957,-0.41845,-0.42173,-0.40564,-0.42141,-0.41792,-0.44191,-0.41605,-0.37664,-0.38607,-0.42022,-0.40471,-0.39484,-0.3841,-0.38758,-0.39855,-0.39722,-0.37973,-0.36866,-0.37763,-0.4047,-0.37926,-0.36063,-0.3532,-0.35651,-0.36989,-0.37471,-0.38145,-0.35596,-0.33014,-0.32227,-0.33838,-0.31624,-0.29767,-0.29104,-0.30167,-0.31858,-0.31038,-0.30519,-0.29035,-0.26472,-0.27017,-0.27482,-0.30198,-0.28121,-0.2805,-0.28443,-0.26781,-0.26269,-0.26222,-0.25481,-0.26258,-0.26583,-0.25843,-0.24177,-0.24115,-0.26119,-0.26735,-0.26221,-0.22221,-0.20716,-0.24447,-0.23012,-0.21788,-0.23347,-0.24382,-0.22992,-0.24073,-0.27529,-0.26382,-0.26619,-0.26179,-0.28086,-0.26305,-0.26646,-0.30413,-0.30797,-0.30353,-0.31503,-0.32351,-0.32365,-0.33244,-0.3706,-0.36096,-0.34287,-0.32657,-0.30619,-0.32839,-0.31286,-0.31666,-0.26464,-0.27735,-0.27475,-0.28715,-0.24726,-0.2346,-0.25612,-0.26129,-0.25522,-0.24632,-0.21824,-0.25751,-0.28537,-0.28384,-0.27022,-0.32017,-0.3488,-0.37074,-0.41319,-0.3964,-0.37622,-0.37119,-0.39748,-0.4087,-0.40289,-0.40194,-0.41025,-0.41049,-0.41597,-0.41244,-0.39171,-0.40791,-0.41239,-0.42857,-0.4416,-0.33099,-0.2677,-0.067426,0.22984,0.52322,0.82287,1.008,0.99078,0.92736,0.64698,0.17035,-0.48175,-0.73409,-0.71457,-0.69753,-0.62344,-0.57656,-0.51819,-0.53262,-0.47378,-0.4875,-0.48179,-0.48883,-0.44995,-0.48393,-0.48225,-0.47818,-0.47347,-0.48348,-0.48711,-0.46537,-0.44254,-0.47427,-0.46875,-0.47434,-0.46619,-0.47103,-0.47584,-0.47329,-0.46858,-0.47009,-0.46583,-0.47078,-0.47077,-0.49077,-0.47911,-0.47326,-0.4667,-0.47223,-0.48623,-0.46943,-0.44379,-0.46714,-0.46574,-0.47324,-0.46622,-0.45178,-0.467,-0.44507,-0.45667,-0.45613,-0.44573,-0.42578,-0.4366,-0.44602,-0.44532,-0.43376,-0.42303,-0.39546,-0.40424,-0.40695,-0.39875,-0.38149,-0.38132,-0.39693,-0.40196,-0.3802,-0.37132,-0.38698,-0.37574,-0.3821,-0.37655,-0.35376,-0.36137,-0.34888,-0.3699,-0.34878,-0.32774,-0.3389,-0.3306,-0.33022,-0.33378,-0.30504,-0.31343,-0.30726,-0.33052,-0.33006,-0.31643,-0.30044,-0.31269,-0.30051,-0.30908,-0.3075,-0.31639,-0.27672,-0.28176,-0.27668,-0.29504,-0.28065,-0.25773,-0.27802,-0.28152,-0.27029,-0.24941,-0.26579,-0.25796,-0.26004,-0.26196,-0.2502,-0.24201,-0.25622,-0.26239,-0.24262,-0.24585,-0.25667,-0.26759,-0.26854,-0.27536,-0.25617,-0.2958,-0.31222,-0.30618,-0.29816,-0.30408,-0.31378,-0.33785,-0.35717,-0.35805,-0.34802,-0.34702,-0.3633,-0.38425,-0.39163,-0.3835,-0.37443,-0.384,-0.38593,-0.3598,-0.34059,-0.33647,-0.34347,-0.36615,-0.33243,-0.30571,-0.30719,-0.31926,-0.32182,-0.31221,-0.30972,-0.29556,-0.30135,-0.34044,-0.32349,-0.34139,-0.34737,-0.34269,-0.40074,-0.43063,-0.43068,-0.41647,-0.44439,-0.46041,-0.47149,-0.46746,-0.44923,-0.44633,-0.46368,-0.45957,-0.45497,-0.47298,-0.48033,-0.46543,-0.48715,-0.48529,-0.48381,-0.46612,-0.39351,-0.23457,0.040716,0.36051,0.66023,0.88912,0.93105,0.90566,0.73566,0.31835,-0.27206,-0.71951,-0.82025,-0.75724,-0.66958,-0.62116,-0.59293,-0.57143,-0.56523,-0.52722,-0.53382,-0.54193,-0.53317,-0.50883,-0.53533,-0.50709,-0.5359,-0.54438,-0.53475,-0.52198,-0.52642,-0.53827,-0.53431,-0.51654,-0.50913,-0.52444,-0.53921,-0.53823,-0.53935,-0.50704,-0.52899,-0.5135,-0.52015,-0.538,-0.50441,-0.51179,-0.5331,-0.51733,-0.52659,-0.51802,-0.51585,-0.50651,-0.52532,-0.52179,-0.52938,-0.50813,-0.50263,-0.52109,-0.5051,-0.50296,-0.50346,-0.4982,-0.50067,-0.5109,-0.50372,-0.48252,-0.4678,-0.48725,-0.49353,-0.48013,-0.47416,-0.4675,-0.49637,-0.47304,-0.45481,-0.46531,-0.4613,-0.48871,-0.4798,-0.48476,-0.43498,-0.45136,-0.45616,-0.46899,-0.43309,-0.42677,-0.42662,-0.41315,-0.4137,-0.40285,-0.38665,-0.41079,-0.42155,-0.42434,-0.38956,-0.3828,-0.39456,-0.39805,-0.39211,-0.39566,-0.37412,-0.35867,-0.3429,-0.37645,-0.37146,-0.36395,-0.34084,-0.34994,-0.3291,-0.33277,-0.32669,-0.31829,-0.31712,-0.30879,-0.33179,-0.29098,-0.28888,-0.28475,-0.29185,-0.29306,-0.3027,-0.27676,-0.28993,-0.30586,-0.32906,-0.33902,-0.32915,-0.32113,-0.34525,-0.36664,-0.38133,-0.37947,-0.3874,-0.42839,-0.41763,-0.40471,-0.38826,-0.39684,-0.42385,-0.42536,-0.44394,-0.43281,-0.42782,-0.45656,-0.45563,-0.4337,-0.44656,-0.46146,-0.43909,-0.4679,-0.46375,-0.45617,-0.4513,-0.47091,-0.45492,-0.4198,-0.37877,-0.39289,-0.39829,-0.40722,-0.41866,-0.38543,-0.34088,-0.35393,-0.38705,-0.35832,-0.36432,-0.32622,-0.34998,-0.36952,-0.36498,-0.37879,-0.38999,-0.43335,-0.45002,-0.47292,-0.49163,-0.51257,-0.51145,-0.51507,-0.52751,-0.48811,-0.46435,-0.49204,-0.53097,-0.51102,-0.49976,-0.48636,-0.49634,-0.50073,-0.53053,-0.55745,-0.53959,-0.45852,-0.29985,-0.01483,0.27343,0.6041,0.84263,0.86855,0.86729,0.81937,0.52062,0.044593,-0.29441,-0.78369,-0.7904,-0.66331,-0.65249,-0.6291,-0.61915,-0.56334,-0.5602,-0.53985,-0.55733,-0.57425,-0.56262,-0.51008,-0.55084,-0.5512,-0.56771,-0.54197,-0.56392,-0.54496,-0.54029,-0.54245,-0.54364,-0.53154,-0.54475,-0.54282,-0.53453,-0.53346,-0.54195,-0.53475,-0.52285,-0.54561,-0.57573,-0.52207,-0.52928,-0.52776,-0.5531,-0.55499,-0.5352,-0.52791,-0.53533,-0.55171,-0.54807,-0.53001,-0.50323,-0.51837,-0.53309,-0.53892,-0.51607,-0.49574,-0.51532,-0.51131,-0.5236,-0.50103,-0.48503,-0.49501,-0.48497,-0.49706,-0.49363,-0.47871,-0.45734,-0.46223,-0.48152,-0.50547,-0.46982,-0.44811,-0.43805,-0.45888,-0.47432,-0.47707,-0.43682,-0.4195,-0.44524,-0.43818,-0.41569,-0.40161,-0.40888,-0.41083,-0.40353,-0.40118,-0.4011,-0.38999,-0.36966,-0.39951,-0.37785,-0.38098,-0.36856,-0.37102,-0.38194,-0.36732,-0.35014,-0.34192,-0.35974,-0.37394,-0.35339,-0.32045,-0.32964,-0.33617,-0.35295,-0.34539,-0.31992,-0.33049,-0.31082,-0.32096,-0.33363,-0.31044,-0.29368,-0.29815,-0.32468,-0.33143,-0.28945,-0.2944,-0.31662,-0.33464,-0.3315,-0.33542,-0.33565,-0.34958,-0.35431,-0.37572,-0.38497,-0.35613,-0.36607,-0.37267,-0.38271,-0.39465,-0.37804,-0.3986,-0.41721,-0.42964,-0.44694,-0.41412,-0.43583,-0.4384,-0.45322,-0.45871,-0.42444,-0.44433,-0.45677,-0.46036,-0.46399,-0.46064,-0.47015,-0.45921,-0.48291,-0.49986,-0.46295,-0.45808,-0.47588,-0.48871,-0.48991,-0.48985,-0.46106,-0.48876,-0.49565,-0.49133,-0.49606,-0.48758,-0.49223,-0.49092,-0.49762,-0.48703,-0.48079,-0.49273,-0.50217,-0.49519,-0.49207,-0.47591,-0.48615,-0.50712,-0.50728,-0.48856,-0.48391,-0.484,-0.48304,-0.48293,-0.4887,-0.48299,-0.46417,-0.49242,-0.49036,-0.48643,-0.48118,-0.46776,-0.47087,-0.44997,-0.4338,-0.43187,-0.43182,-0.42286,-0.41612,-0.40569,-0.39332,-0.38603,-0.3909,-0.39967,-0.40425,-0.39609,-0.39657,-0.42348,-0.44358,-0.45322,-0.4512,-0.46595,-0.50964,-0.5224,-0.52236,-0.52405,-0.53478,-0.53886,-0.53622,-0.5413,-0.53326,-0.59764,-0.5832,-0.55762,-0.55461,-0.56679,-0.57314,-0.5747,-0.55786,-0.42982,-0.20964,0.11635,0.41537,0.70577,0.83861,0.83161,0.78168,0.49183,-0.0062441,-0.60854,-0.82122,-0.76408,-0.71634,-0.68111,-0.68453,-0.59974,-0.59022,-0.57847,-0.57812,-0.58078,-0.58924,-0.54707,-0.53092,-0.45098,-0.37312,-0.4697,-0.5173,-0.52752,-0.52759,-0.53299,-0.55331,-0.552,-0.55931,-0.53168,-0.56007,-0.55459,-0.52109,-0.51123,-0.56495,-0.56614,-0.5624,-0.54171,-0.55238,-0.5711,-0.58637,-0.58307,-0.55206,-0.52284,-0.54684,-0.55145,-0.58156,-0.56009,-0.56649,-0.5365,-0.52631,-0.54031,-0.56366,-0.5452,-0.55223,-0.56985,-0.57688,-0.56701,-0.56558,-0.56651,-0.5653,-0.55491,-0.55164,-0.55369,-0.54606,-0.57832,-0.54905,-0.54374,-0.5451,-0.54572,-0.51249,-0.53098,-0.54351,-0.54657,-0.52879,-0.53105,-0.5281,-0.49572,-0.46269,-0.46569,-0.45425,-0.47693,-0.45956,-0.45062,-0.47328,-0.45378,-0.46252,-0.48446,-0.48895,-0.43587,-0.42058,-0.47328,-0.49909,-0.47573,-0.43238,-0.4186,-0.40122,-0.42625,-0.41705,-0.4029,-0.38837,-0.38131,-0.37609,-0.39158,-0.42907,-0.45366,-0.45579,-0.45643,-0.44656,-0.42728,-0.40451,-0.41878,-0.4143,-0.42427,-0.41112,-0.41944,-0.4146,-0.43529,-0.45072,-0.44677,-0.43992,-0.42782,-0.44814,-0.46361,-0.44064,-0.48939,-0.48576,-0.48926,-0.48446,-0.5136,-0.54086,-0.55068,-0.61436,-0.61407,-0.58371,-0.58964,-0.58695,-0.57252,-0.58131,-0.58715,-0.5959,-0.61364,-0.62876,-0.68377,-0.65833,-0.65086,-0.67173,-0.67732,-0.69018,-0.69076,-0.68878,-0.68471,-0.69855,-0.70592,-0.70256,-0.66995,-0.70648,-0.70925,-0.68459,-0.65988,-0.65284,-0.69619,-0.69642,-0.69525,-0.70481,-0.7082,-0.73376,-0.7742,-0.80328,-0.81387,-0.81666,-0.78917,-0.76899,-0.79243,-0.80203,-0.80233,-0.79414,-0.78289,-0.78219,-0.76847,-0.77091,-0.77661,-0.78378,-0.77296,-0.75254,-0.77533,-0.79027,-0.80367,-0.81667,-0.80584,-0.80458,-0.78494,-0.75047,-0.76549,-0.79805,-0.77847,-0.75134,-0.73646,-0.77806,-0.78677,-0.77193,-0.74833,-0.72667,-0.72457,-0.77922,-0.82146,-0.84681,-0.85918,-0.88059,-0.93645,-0.90236,-0.88874,-0.9162,-0.95914,-0.97422,-0.96807,-0.97818,-0.98267,-1.0146,-1.017,-1.1037,-1.1366,-1.1593,-1.2324,-1.2617,-1.205,-1.0683,-0.86434,-0.53061,-0.21409,0.10539,0.32654,0.32456,0.27784,0.0094077,-0.43445,-0.96716,-1.3018,-1.3478,-1.3031,-1.1533,-1.0994,-1.0751,-1.0192,-1.0214,-1.0126,-0.98192,-0.9413,-0.95427,-0.98021,-1.044,-1.0271,-0.92895,-0.85678,-0.84958,-0.86997,-0.85482,-0.83144,-0.82764,-0.81077,-0.86201,-0.86412,-0.84339,-0.86672,-0.83905,-0.83374,-0.84648,-0.87953,-0.90223,-0.90514,-0.90529,-0.88618,-0.86705,-0.8493,-0.85461,-0.84987,-0.85153,-0.83197,-0.82857,-0.82801,-0.85035,-0.85553,-0.85769,-0.8318,-0.84404,-0.88421,-0.89461,-0.88208,-0.8833,-0.90518,-0.90534,-0.90405,-0.91024,-0.89022,-0.89908,-0.90036,-0.90592,-0.90473,-0.90125,-0.91767,-0.91874,-0.93355,-0.91293,-0.90373,-0.92447,-0.92252,-0.9236,-0.92748,-0.9185,-0.92289,-0.92747,-0.93467,-0.90135,-0.89907,-0.89669,-0.89234,-0.86133,-0.87565,-0.8681,-0.87336,-0.86407,-0.88655,-0.87941,-0.83929,-0.82449,-0.84569,-0.83956,-0.81252,-0.78777,-0.78743,-0.82037,-0.86172,-0.82074,-0.78766,-0.77447,-0.787,-0.80573,-0.85042,-0.82057,-0.81499,-0.8337,-0.81586,-0.83487,-0.82637,-0.82719,-0.81954,-0.81136,-0.81171,-0.81841,-0.83257,-0.83079,-0.84902,-0.87794,-0.88954,-0.89185,-0.90988,-0.91502,-0.91213,-0.9363,-0.96262,-0.95937,-0.94173,-0.96423,-0.96384,-0.95172,-0.9685,-0.98517,-1.0169,-1.0124,-0.98525,-0.99698,-1.003,-1.0078,-1.0065,-1.0104,-0.97077,-0.97732,-0.99041,-0.98196,-0.98893,-0.98064,-0.99417,-1.0234,-1.0285,-1.0515,-1.0412,-1.0403,-1.0531,-1.035,-1.0115,-1.0089,-1.0623,-1.0987,-1.11,-1.1057,-1.1109,-1.1266,-1.1328,-1.1388,-1.0991,-1.0524,-1.0026,-1.0017,-1.0151,-1.0374,-1.0848,-1.0475,-1.0073,-1.018,-1.0301,-1.0219,-1.0416,-1.0636,-1.0784,-1.0632,-1.0632,-1.079,-1.099,-1.0922,-1.1322,-1.1791,-1.1981,-1.1884,-1.1715,-1.1718,-1.2107,-1.1924,-1.237,-1.2798,-1.2622,-1.2045,-1.1915,-1.1867,-1.1918,-1.2569,-1.289,-1.2942,-1.2803,-1.2497,-1.1154,-0.91586,-0.73816,-0.41529,-0.098951,0.10378,0.23491,0.16393,0.0019826,-0.4267,-0.97337,-1.5144,-1.6118,-1.5476,-1.4799,-1.4035,-1.3769,-1.3234,-1.3174,-1.3148,-1.3369,-1.331,-1.3343,-1.308,-1.3201,-1.3342,-1.3317,-1.2412,-1.2449,-1.2892,-1.3042,-1.3219,-1.3358,-1.3272,-1.3409,-1.338,-1.2972,-1.2821,-1.2898,-1.2824,-1.3072,-1.2873,-1.2599,-1.2613,-1.2708,-1.3055,-1.308,-1.3188,-1.2975,-1.2792,-1.2931,-1.3404,-1.3417,-1.3406,-1.3108,-1.3221,-1.3521,-1.357,-1.3436,-1.3183,-1.3067,-1.3028,-1.2769,-1.2724,-1.2752,-1.3382,-1.3794,-1.3677,-1.3595,-1.3408,-1.3273,-1.3179,-1.3003,-1.2994,-1.3082,-1.3035,-1.2836,-1.2727,-1.2357,-1.2272,-1.2662,-1.299,-1.3505,-1.3731,-1.3709,-1.3615,-1.3029,-1.2261,-1.2028,-1.2249,-1.2622,-1.2573,-1.2668,-1.3016,-1.2936,-1.3187,-1.2938,-1.2858,-1.2651,-1.2582,-1.2538,-1.2548,-1.2603,-1.2744,-1.2899,-1.2948,-1.2404,-1.2387,-1.2303,-1.1912,-1.2282,-1.2641,-1.2971,-1.2787,-1.2387,-1.2172,-1.2044,-1.1811,-1.1679,-1.1311,-1.123,-1.1967,-1.2265,-1.218,-1.1986,-1.1472,-1.1311,-1.186,-1.2048,-1.2092,-1.1936,-1.1928,-1.2145,-1.2515,-1.2878,-1.2884,-1.2736,-1.258,-1.2611,-1.2452,-1.2256,-1.218,-1.2192,-1.2242,-1.221,-1.2103,-1.2112,-1.2151,-1.2198,-1.2151,-1.2057,-1.2054,-1.1991,-1.2092,-1.2057,-1.1938,-1.2023,-1.2116,-1.2122,-1.2128,-1.2031,-1.2048,-1.213,-1.217,-1.2207,-1.1882,-1.1695,-1.1592,-1.1487,-1.1374,-1.1189,-1.1123,-1.1155,-1.1074,-1.0887,-1.0595,-1.0846,-1.0726,-1.0877,-1.0708,-1.0666,-1.0775,-1.0884,-1.1019,-1.1263,-1.1399,-1.1699,-1.1973,-1.2174,-1.2315,-1.2473,-1.2431,-1.2701,-1.2971,-1.2877,-1.2543,-1.2452,-1.2608,-1.3013,-1.3323,-1.344,-1.3994,-1.4033,-1.3515,-1.2572,-1.1608,-0.98792,-0.72236,-0.49206,-0.1913,0.051249,0.1395,-0.0038975,-0.19571,-0.52295,-1.072,-1.5859,-1.6695,-1.6478,-1.5409,-1.4704,-1.4382,-1.4077,-1.3901,-1.3445,-1.3307,-1.2917,-1.3135,-1.3554,-1.3738,-1.3636,-1.3695,-1.3244,-1.2859,-1.3007,-1.3474,-1.3479,-1.3441,-1.3425,-1.3645,-1.3516,-1.3499,-1.3337,-1.3295,-1.372,-1.3635,-1.3468,-1.3394,-1.3613,-1.4173,-1.4019,-1.385,-1.3523,-1.3343,-1.323,-1.3036,-1.3302,-1.3795,-1.3955,-1.4749,-1.4654,-1.4438,-1.4294,-1.3974,-1.3839,-1.4066,-1.4137,-1.4148,-1.3897,-1.3898,-1.3959,-1.383,-1.3744,-1.3658,-1.3811,-1.3889,-1.3635,-1.3347,-1.3324,-1.3519,-1.364,-1.3541,-1.3416,-1.3373,-1.3125,-1.3307,-1.3186,-1.2963,-1.2798,-1.2876,-1.2755,-1.2665,-1.2402,-1.2174,-1.2135,-1.2044,-1.2027,-1.1991,-1.1806,-1.1638,-1.1626,-1.1445,-1.1177,-1.1253,-1.1255,-1.1323,-1.1254,-1.0929,-1.0644,-1.0367,-1.0074,-1.0007,-0.96245,-0.94956,-0.95405,-0.964,-0.92426,-0.87595,-0.85675,-0.85777,-0.85162,-0.83525,-0.80759,-0.73634,-0.72588,-0.83205,-0.8734,-0.87783,-0.90119,-0.90278,-0.92028,-0.94384,-0.96184,-0.94378,-0.95486,-0.94661,-0.97885,-0.99557,-0.99394,-0.99505,-0.99352,-1.0099,-1.0103,-0.96552,-1.0037,-1.0124,-0.98848,-0.99121,-1.027,-1.0229,-1.0601,-1.0563,-1.0451,-1.0893,-1.0763,-1.0631,-1.0873,-1.0845,-1.075,-1.0405,-1.0326,-1.0114,-1.0053,-1.0192,-0.98295,-0.95707,-0.93424,-0.91843,-0.95823,-0.95636,-0.93826,-0.92533,-0.9715,-0.9755,-0.97445,-0.93348,-0.94819,-1.0272,-1.0656,-1.1011,-1.0659,-1.0325,-1.0341,-1.0806,-1.0806,-1.0847,-1.1215,-1.1203,-1.1095,-1.1241,-1.1361,-1.1098,-1.1189,-1.1443,-1.1507,-1.1375,-1.1437,-1.0992,-0.95723,-0.74127,-0.43409,-0.14905,0.14448,0.33075,0.31063,0.20958,-0.14558,-0.65511,-1.0019,-1.3702,-1.4104,-1.3733,-1.3123,-1.2483,-1.2579,-1.169,-1.1407,-1.1287,-1.153,-1.1403,-1.1157,-1.1052,-1.138,-1.1209,-1.0965,-1.0455,-1.0795,-1.078,-1.0551,-1.0325,-1.0324,-1.0322,-1.0714,-1.0935,-1.0844,-1.0589,-1.0869,-1.1414,-1.156,-1.1725,-1.2081,-1.2115,-1.2136,-1.2405,-1.2081,-1.2274,-1.2179,-1.2148,-1.1784,-1.1854,-1.1849,-1.1933,-1.1566,-1.1493,-1.1483,-1.1902,-1.2111,-1.1898,-1.162,-1.1445,-1.1312,-1.1668,-1.197,-1.1935,-1.1475,-1.1331,-1.0893,-1.0429,-1.003,-0.9778,-1.0167,-1.0342,-1.0142,-0.96271,-0.95853,-0.99751,-0.9761,-0.95549,-0.9389,-0.97083,-1.0028,-0.97254,-0.9539,-0.92718,-0.90991,-0.91061,-0.93884,-0.93493,-0.88238,-0.87726,-0.85081,-0.84528,-0.86749,-0.88857,-0.88939,-0.84104,-0.86755,-0.85382,-0.84233,-0.82188,-0.79161,-0.79008,-0.80907,-0.82491,-0.79071,-0.74049,-0.68832,-0.71574,-0.7711,-0.82443,-0.81552,-0.75515,-0.7248,-0.72294,-0.76171,-0.7457,-0.728,-0.7024,-0.71409,-0.72797,-0.73963,-0.74183,-0.73286,-0.78889,-0.77854,-0.77977,-0.80917,-0.84568,-0.82514,-0.82849
