1.1913,1.0667,0.9912,0.88515,0.78855,0.81842,0.9253,1.0116,0.99805,0.98408,0.98075,0.97979,0.97861,0.97799,0.98082,0.97748,0.97996,0.98733,0.99342,0.99468,0.9886,0.99473,0.99653,0.99717,0.9991,1.0137,1.0115,1.0096,1.0134,1.0128,1.0185,1.0244,1.0278,1.0351,1.0354,1.0454,1.0567,1.0636,1.0639,1.0811,1.0868,1.0906,1.1031,1.1142,1.119,1.1291,1.1373,1.1462,1.1484,1.1569,1.1618,1.1684,1.1736,1.1798,1.1904,1.1973,1.2002,1.1953,1.2007,1.1989,1.192,1.1942,1.1896,1.1875,1.1853,1.1781,1.1679,1.1457,1.1287,1.1073,1.0851,1.0727,1.0548,1.0367,1.0187,1.0103,1.0057,0.99267,0.99181,0.98433,0.97975,0.96739,0.97173,0.96979,0.97249,0.96651,0.96379,0.96771,0.97275,0.97351,0.97598,0.97479,0.98494,0.98568,0.99099,0.99151,0.992,0.99332,0.99056,0.99597,0.99844,0.99132,1.0042,0.99674,1.0079,1.005,0.9986,0.99943,1.0009,1.0078,0.98243,0.98646,0.99064,0.99316,0.98692,0.98308,0.98815,0.98911,0.98595,0.99522,0.99917,1.0001,0.99521,1.0049,1.0189,1.0306,1.0358,1.0453,1.0425,1.031,1.029,1.019,1.0237,1.0284,1.0353,1.0315,1.0119,0.98788,0.98019,0.96818,0.96329,0.95826,0.95508,0.96161,0.97361,0.98172,0.97429,0.96949,0.96653,0.96634,0.96936,1.0147,1.072,1.217,1.4344,1.6962,1.8978,1.9493,1.5669,1.1546,1.0394,0.9378,0.82917,0.78467,0.84669,0.96766,0.99543,0.96478,0.96596,0.96146,0.9681,0.96442,0.97268,0.96456,0.96798,0.96553,0.98596,0.97748,0.98185,0.9818,0.98127,0.9695,0.97734,0.97913,0.98999,0.98944,0.98721,0.98517,0.99456,0.99927,1.0085,1.0088,1.0138,1.0159,1.024,1.023,1.031,1.0393,1.051,1.055,1.0719,1.0837,1.0873,1.1047,1.1213,1.1262,1.1303,1.1356,1.143,1.1536,1.1637,1.1664,1.168,1.1744,1.1875,1.1881,1.1899,1.201,1.1938,1.2041,1.1981,1.1858,1.1871,1.1838,1.1625,1.1526,1.1273,1.1084,1.0914,1.0652,1.0394,1.0219,1.0072,1.0042,0.99495,0.99059,0.97757,0.97198,0.96513,0.96489,0.96385,0.96062,0.96017,0.96377,0.95693,0.96277,0.96038,0.96986,0.97061,0.97161,0.97179,0.97983,0.9755,0.97584,0.97323,0.97802,0.98374,0.98722,0.98778,0.98965,0.98521,0.98386,0.98064,0.98528,0.98828,0.98166,0.97778,0.98468,0.98153,0.97773,0.96569,0.96506,0.97122,0.97788,0.97499,0.96685,0.96162,0.95583,0.95259,0.95682,0.95311,0.94703,0.94891,0.94757,0.9514,0.95521,0.95512,0.95341,0.95342,0.94989,0.94698,0.94978,0.95614,0.9603,0.95888,0.95944,0.95676,0.96273,0.97219,0.98065,0.9905,0.99904,1.0013,0.99052,0.97811,0.97426,0.99474,1.0008,1.002,0.99421,0.98351,0.95986,0.94333,0.93881,0.93401,0.93098,0.93311,0.93185,0.94064,0.94511,0.94644,0.94848,0.93945,0.9374,0.93731,0.99836,1.1285,1.317,1.578,1.812,1.9616,1.7236,1.263,1.0517,0.99942,0.90123,0.79916,0.78703,0.84958,0.97387,0.97512,0.95576,0.95321,0.94935,0.95357,0.9493,0.94703,0.94519,0.95089,0.95552,0.95789,0.95186,0.95651,0.95503,0.96233,0.96032,0.96346,0.96602,0.97145,0.96802,0.97011,0.97258,0.97571,0.98424,0.99052,0.99343,1.0035,1.011,1.018,1.0202,1.028,1.0304,1.0469,1.0567,1.0642,1.065,1.0724,1.0879,1.0976,1.1104,1.1218,1.1293,1.1364,1.1444,1.1556,1.1632,1.1743,1.182,1.1872,1.1921,1.1995,1.2009,1.2026,1.2043,1.21,1.208,1.2005,1.1918,1.1736,1.1542,1.1404,1.1191,1.099,1.0807,1.0627,1.043,1.0254,1.0106,1.0023,0.99158,0.98358,0.978,0.97452,0.97662,0.97488,0.97179,0.96795,0.96616,0.96613,0.9696,0.9709,0.96596,0.97278,0.96983,0.97209,0.97173,0.97244,0.97593,0.97995,0.98238,0.98369,0.98785,0.99079,0.98866,0.98829,0.98897,0.98556,0.98645,0.98655,0.98578,0.98171,0.9811,0.97765,0.97732,0.97246,0.96801,0.96776,0.97186,0.96393,0.96681,0.96314,0.95877,0.96303,0.96111,0.95695,0.9557,0.95297,0.95331,0.94824,0.94883,0.94987,0.95239,0.95286,0.94788,0.9496,0.94866,0.94755,0.94645,0.94817,0.94393,0.94202,0.94461,0.94383,0.94617,0.94917,0.9476,0.94751,0.94375,0.93808,0.93875,0.94152,0.94178,0.94276,0.94873,0.94629,0.94558,0.94815,0.95774,0.97066,0.97818,0.98234,0.98364,0.98662,0.9845,0.97224,0.97072,0.97557,0.99373,1.0037,1.0058,0.99505,0.9916,0.96335,0.94547,0.93377,0.92966,0.93188,0.93079,0.93869,0.94267,0.94301,0.94254,0.9446,0.94584,0.93416,0.95549,1.048,1.1164,1.2985,1.5607,1.7903,1.9587,1.7996,1.3387,1.0891,0.97418,0.84866,0.79231,0.80171,0.93505,0.99027,0.97458,0.96019,0.95453,0.95093,0.95288,0.9467,0.94827,0.94501,0.94918,0.94779,0.95142,0.9526,0.95317,0.95637,0.95635,0.95804,0.96249,0.96949,0.96882,0.96951,0.97277,0.98083,0.98431,0.99102,0.99516,0.99902,1.0001,1.0088,1.0143,1.0134,1.0215,1.033,1.0433,1.053,1.0598,1.0679,1.0785,1.092,1.1031,1.1101,1.12,1.1293,1.1384,1.1443,1.151,1.1541,1.1575,1.1652,1.1709,1.176,1.1837,1.1899,1.1965,1.1992,1.1962,1.1931,1.1886,1.1836,1.1736,1.1552,1.1324,1.1126,1.0927,1.0734,1.0531,1.0348,1.0272,1.0115,0.9992,0.98778,0.97882,0.97347,0.96621,0.96543,0.96276,0.96167,0.96107,0.96346,0.96286,0.96715,0.96294,0.96476,0.96499,0.97002,0.97173,0.97371,0.97543,0.97514,0.97626,0.98241,0.98704,0.98529,0.98647,0.98795,0.98536,0.98769,0.98689,0.98796,0.98163,0.98081,0.97729,0.97301,0.97274,0.97335,0.97209,0.97003,0.96512,0.96485,0.96615,0.96827,0.96394,0.96051,0.95574,0.95818,0.95743,0.95653,0.955,0.95371,0.95236,0.95338,0.94948,0.95017,0.95066,0.95057,0.94983,0.94372,0.94134,0.93916,0.93254,0.93151,0.91801,0.91517,0.91189,0.92775,0.93487,0.94677,0.96476,0.963,0.94705,0.92124,0.90994,0.93867,0.96678,0.96323,0.966,0.95903,0.95825,0.95472,0.95595,0.95488,0.95249,0.94974,0.95188,0.95066,0.9552,0.95002,0.95084,0.94875,0.95087,0.95002,0.95268,0.95383,0.95008,0.94839,0.94985,0.94975,0.95388,0.95864,0.9668,0.97701,0.99162,0.98765,0.99617,1.001,1.0021,0.99285,0.98185,0.98679,1.0039,1.016,1.0199,1.007,0.99464,0.97105,0.95339,0.95168,0.94793,0.94837,0.94485,0.93745,0.93478,0.93096,0.92544,0.92864,0.92816,0.93133,0.92337,0.96719,1.0838,1.3474,1.6418,1.8773,2.0356,1.7614,1.2809,1.0865,0.95946,0.85904,0.84162,0.82855,0.91095,1.0034,0.98793,0.98171,0.9769,0.94851,0.95534,0.97903,0.96592,0.97311,0.97266,0.96422,0.96572,0.96752,0.98137,0.98451,0.99323,0.9944,1.0017,0.99596,0.99727,0.98975,1.0029,1.0095,1.0085,1.0081,1.0223,1.0342,1.0282,1.0354,1.0267,1.0473,1.0728,1.0746,1.0836,1.0874,1.0976,1.0921,1.098,1.1195,1.1367,1.1466,1.1493,1.1405,1.1802,1.1921,1.2091,1.2168,1.1975,1.2125,1.2305,1.2261,1.2359,1.2456,1.2481,1.2334,1.2213,1.2359,1.2425,1.2403,1.2139,1.2086,1.1881,1.1534,1.1218,1.1227,1.1173,1.0938,1.0835,1.0591,1.037,1.0332,1.0209,1.0136,1.0024,0.98775,0.99275,0.99499,0.99927,0.99634,0.98447,0.9857,0.98993,0.99006,0.99491,1.0153,0.99715,1.0056,1.0055,1.0062,1.0073,1.0104,1.0098,1.0114,1.011,1.0166,1.0183,1.0132,1.0154,1.025,1.024,1.0145,1.0221,1.019,1.0128,1.0138,1.0149,1.0138,1.0119,1.0106,1.0081,1.0046,1.0008,0.99941,0.99996,0.99479,0.99468,0.98944,0.98886,0.99503,0.99248,0.98929,0.98891,0.99066,0.99098,0.9864,0.98029,0.98844,0.99323,0.98917,0.99616,0.99244,0.99544,0.99532,0.99433,0.99109,0.99227,0.98751,0.99096,0.98926,0.99017,0.9851,0.98606,0.9884,0.99041,0.98808,0.98558,0.98687,0.99075,0.98902,0.98797,0.98722,0.98492,0.98779,0.99016,0.98842,0.98666,0.98051,0.99038,0.98799,0.98933,0.98595,0.98488,0.98776,0.988,0.98757,0.98508,0.98767,0.98576,0.98982,0.98467,0.98818,0.9972,1.0067,1.0202,1.016,1.0275,1.0331,1.0302,1.0282,1.0172,1.0145,1.0303,1.0466,1.0524,1.0471,1.0311,1.0149,0.98981,0.98543,0.98019,0.98122,0.98115,0.98771,0.98525,0.98893,0.9915,0.98695,0.97764,0.9571,0.9831,1.0305,1.155,1.38,1.688,1.971,2.1109,1.7992,1.324,1.141,0.97561,0.87686,0.85868,0.92982,1.0515,1.0364,1.0053,1.0022,0.9936,0.99771,0.98972,0.98971,0.9854,0.99035,0.9883,0.99795,0.99687,1.0011,0.99701,1.0055,1.0045,1.008,1.0072,1.0091,1.0102,1.0162,1.0129,1.0187,1.0254,1.0315,1.0386,1.0438,1.0453,1.0528,1.0623,1.0688,1.0803,1.0875,1.0943,1.1067,1.1179,1.1282,1.1368,1.149,1.1594,1.1702,1.1812,1.1924,1.2,1.2099,1.2196,1.2229,1.2332,1.2379,1.2451,1.2496,1.2525,1.2582,1.26,1.2634,1.2636,1.262,1.2582,1.2442,1.2342,1.2165,1.1971,1.1709,1.1468,1.1209,1.0982,1.0792,1.067,1.0508,1.036,1.0209,1.0113,1.0021,0.99616,0.98912,0.98811,0.98722,0.98619,0.98197,0.98643,0.98287,0.98566,0.98508,0.98631,0.9865,0.98959,0.9909,0.9928,0.99362,0.99424,0.99552,0.99905,1.0012,1.0022,1.0045,1.0077,1.0069,1.005,1.0057,1.0042,1.0054,1.006,0.99942,0.99956,0.9968,0.99946,0.99565,0.99519,0.99242,0.98811,0.98616,0.98609,0.98532,0.98719,0.98466,0.97938,0.98078,0.98188,0.97793,0.97854,0.97694,0.97504,0.97494,0.97384,0.97219,0.97191,0.9711,0.97246,0.97243,0.97293,0.97085,0.97175,0.96973,0.96924,0.96997,0.96877,0.96794,0.96618,0.96593,0.96428,0.96397,0.96371,0.96475,0.96219,0.9592,0.96209,0.96035,0.95966,0.95999,0.9604,0.96,0.96067,0.96135,0.96119,0.96031,0.96135,0.96163,0.96027,0.96093,0.96099,0.96329,0.96801,0.97569,0.99163,0.99501,1.0004,1.0056,1.0085,1.0058,0.99892,0.99335,0.99272,1.0143,1.0249,1.0291,1.0139,1.0033,0.97632,0.96602,0.95766,0.95605,0.96102,0.9585,0.9626,0.96467,0.96601,0.96515,0.96261,0.95652,0.93866,0.97887,1.0967,1.2769,1.546,1.8306,2.0281,1.909,1.4382,1.1648,1.0431,0.89807,0.83239,0.83772,0.97795,1.0305,1.0035,0.98415,0.97565,0.97106,0.97222,0.96594,0.96758,0.96623,0.96522,0.96721,0.96956,0.97062,0.97137,0.97733,0.97846,0.97975,0.98059,0.98701,0.99232,0.99657,1.0029,1.0061,1.0072,1.0072,1.013,1.0212,1.03,1.0354,1.0404,1.0536,1.0585,1.0681,1.0798,1.0899,1.0978,1.1098,1.1177,1.1292,1.1394,1.1545,1.1624,1.1736,1.1855,1.1949,1.1978,1.2081,1.2139,1.2219,1.2261,1.2343,1.2399,1.248,1.2511,1.255,1.2545,1.2539,1.2504,1.2435,1.2333,1.2228,1.2056,1.185,1.1582,1.1347,1.1253,1.0999,1.0731,1.0509,1.0337,1.0194,1.0083,1.0005,0.99137,0.98827,0.98504,0.9833,0.98167,0.98105,0.97945,0.9829,0.98424,0.98439,0.98021,0.98569,0.98945,0.99318,0.99286,0.99362,0.99576,0.99941,1.0028,1.0041,1.0062,1.0052,1.007,1.0108,1.0112,1.0117,1.0093,1.0061,1.0092,1.0118,1.0134,1.0066,1.0042,1.0037,1.0033,1.0003,0.99651,0.99418,0.99353,0.99334,0.9893,0.98738,0.9896,0.98864,0.98664,0.98377,0.98265,0.9817,0.98381,0.98518,0.98527,0.98407,0.98404,0.98462,0.98284,0.97996,0.98258,0.98309,0.98182,0.98039,0.98201,0.98039,0.98231,0.98021,0.98115,0.97952,0.97838,0.9784,0.98137,0.98224,0.98424,0.97958,0.97822,0.98045,0.9794,0.979,0.97883,0.97743,0.97781,0.97925,0.98138,0.97956,0.97949,0.98152,0.98421,0.99158,0.9995,1.0095,1.0142,1.0214,1.0271,1.0276,1.0159,1.0134,1.004,1.0141,1.037,1.0479,1.0498,1.0357,1.0209,0.99475,0.98614,0.98016,0.97946,0.98078,0.98341,0.98414,0.98658,0.98693,0.98875,0.98137,0.96378,0.96671,1.0269,1.1562,1.3637,1.6462,1.8991,2.0515,1.8017,1.3222,1.1481,1.0246,0.89009,0.83905,0.8653,1.0219,1.0441,1.0157,1.0058,0.99776,0.9999,0.99453,0.99837,0.99488,0.9997,0.99849,1.0048,1.0018,1.01,1.0086,1.015,1.0125,1.0169,1.0184,1.027,1.0271,1.033,1.034,1.0412,1.0424,1.0506,1.0539,1.0564,1.0637,1.0701,1.0797,1.0878,1.0979,1.1025,1.1161,1.1216,1.1315,1.1436,1.1549,1.1656,1.1769,1.1873,1.1995,1.207,1.2189,1.2296,1.235,1.2402,1.2452,1.2543,1.2606,1.2655,1.2687,1.2801,1.2824,1.2882,1.2926,1.2899,1.2864,1.2788,1.2685,1.2526,1.233,1.2132,1.1882,1.164,1.1385,1.1235,1.1024,1.08,1.0664,1.0495,1.0422,1.0323,1.0253,1.0218,1.0159,1.0148,1.0138,1.0133,1.0175,1.014,1.0184,1.0201,1.0224,1.0265,1.0324,1.0311,1.0345,1.0355,1.0381,1.042,1.0465,1.0456,1.0496,1.0481,1.0526,1.0497,1.0525,1.0493,1.0526,1.0496,1.0458,1.0431,1.0464,1.045,1.0427,1.0384,1.0373,1.0372,1.0379,1.0342,1.0334,1.0292,1.026,1.0256,1.0243,1.0249,1.0262,1.0244,1.0257,1.0247,1.0246,1.0256,1.0252,1.0232,1.0226,1.025,1.0258,1.023,1.0228,1.0207,1.022,1.0193,1.0207,1.0227,1.0261,1.0245,1.0257,1.0257,1.0248,1.0254,1.0258,1.0252,1.0254,1.0249,1.0258,1.0258,1.0258,1.027,1.0259,1.0302,1.0305,1.0305,1.0325,1.0368,1.042,1.0549,1.0675,1.0672,1.0753,1.084,1.0777,1.0741,1.0578,1.0686,1.0892,1.1034,1.1062,1.1012,1.0849,1.0684,1.0429,1.0384,1.0344,1.037,1.037,1.0415,1.0419,1.0488,1.047,1.0477,1.042,1.0272,1.075,1.1926,1.3828,1.6598,1.9124,2.0128,2.075,1.7131,1.2966,1.1922,1.0559,0.93138,0.89697,0.95799,1.0999,1.1012,1.0678,1.0651,1.0548,1.0661,1.0562,1.0625,1.0541,1.0649,1.0588,1.072,1.0648,1.0776,1.0721,1.0796,1.0766,1.0851,1.0849,1.0926,1.0907,1.0968,1.0999,1.108,1.1092,1.1225,1.1238,1.1305,1.1372,1.149,1.1528,1.1564,1.1647,1.1765,1.1844,1.1959,1.2024,1.2121,1.2234,1.2363,1.25,1.2619,1.2686,1.2777,1.289,1.3007,1.3087,1.3165,1.3214,1.3282,1.3361,1.3386,1.3454,1.3501,1.357,1.3595,1.3604,1.3605,1.3568,1.3493,1.3355,1.324,1.3027,1.2811,1.261,1.2356,1.2132,1.1886,1.1689,1.1513,1.1382,1.1228,1.1197,1.1091,1.1047,1.0993,1.0989,1.0966,1.0988,1.0955,1.0967,1.0942,1.0991,1.0974,1.1051,1.1031,1.1095,1.1113,1.1143,1.1162,1.1217,1.1213,1.1234,1.1254,1.1272,1.1247,1.1267,1.123,1.1285,1.1248,1.1252,1.1202,1.1209,1.1197,1.1171,1.1137,1.1159,1.111,1.108,1.1057,1.1042,1.1005,1.1015,1.098,1.0998,1.0961,1.0979,1.0961,1.096,1.0913,1.0905,1.0917,1.0932,1.0922,1.0899,1.0881,1.089,1.085,1.0883,1.0857,1.0855,1.0843,1.0855,1.0859,1.085,1.0841,1.0809,1.0833,1.0839,1.0827,1.0807,1.0797,1.0809,1.0812,1.0805,1.0808,1.0819,1.084,1.0857,1.0886,1.0963,1.1103,1.1159,1.1167,1.1269,1.1274,1.125,1.1202,1.1039,1.1141,1.1318,1.1428,1.1415,1.1289,1.1162,1.0908,1.0742,1.0688,1.0646,1.0703,1.0711,1.0752,1.0729,1.078,1.0793,1.0795,1.0739,1.0613,1.0992,1.2161,1.3976,1.6615,1.9041,2.0781,1.9655,1.5091,1.2449,1.1783,1.0462,0.93472,0.93042,1.0267,1.1302,1.1311,1.1012,1.0926,1.0808,1.0876,1.0813,1.085,1.0792,1.0852,1.0805,1.0863,1.0854,1.0927,1.0892,1.0966,1.0951,1.1004,1.099,1.1049,1.1063,1.11,1.114,1.1218,1.1224,1.1295,1.1319,1.1388,1.1435,1.1506,1.1573,1.1639,1.1715,1.1842,1.1893,1.2001,1.2111,1.2188,1.2271,1.2381,1.2516,1.2582,1.2647,1.2733,1.2834,1.2914,1.2938,1.3031,1.3086,1.3171,1.3226,1.3278,1.3348,1.34,1.343,1.348,1.3492,1.3444,1.3398,1.3283,1.3162,1.2986,1.2915,1.2683,1.2463,1.2198,1.1971,1.1738,1.1551,1.1361,1.1203,1.106,1.0985,1.0905,1.0859,1.0809,1.0801,1.0792,1.0778,1.0799,1.0794,1.0793,1.0816,1.0823,1.0832,1.0832,1.0874,1.0887,1.0929,1.094,1.0964,1.0961,1.098,1.0989,1.1022,1.1015,1.1017,1.0981,1.1004,1.0989,1.0995,1.0948,1.0945,1.0946,1.0927,1.0885,1.0862,1.0832,1.0836,1.0798,1.0802,1.0749,1.0756,1.0732,1.0702,1.0686,1.0665,1.0635,1.0625,1.0623,1.0624,1.0611,1.059,1.0588,1.0619,1.0579,1.0546,1.0545,1.0555,1.0517,1.0533,1.0523,1.0492,1.0497,1.0505,1.0496,1.0484,1.0478,1.0485,1.0563,1.0621,1.0732,1.0802,1.0804,1.0928,1.0932,1.095,1.0859,1.0692,1.0783,1.0947,1.113,1.1095,1.0984,1.086,1.0595,1.0392,1.0366,1.0353,1.0325,1.0336,1.0342,1.0358,1.0363,1.036,1.0387,1.036,1.0192,1.0345,1.1204,1.2792,1.522,1.796,2.0125,2.031,1.6252,1.238,1.1572,1.0308,0.9126,0.8888,0.95137,1.0808,1.0899,1.0617,1.0487,1.0384,1.0369,1.0308,1.0362,1.0309,1.038,1.0376,1.042,1.0414,1.0466,1.0429,1.0491,1.045,1.0492,1.0511,1.0573,1.0557,1.0586,1.0623,1.0701,1.0714,1.0797,1.0816,1.0937,1.0989,1.1074,1.1131,1.1218,1.1292,1.1398,1.1513,1.1644,1.1738,1.1856,1.1947,1.2016,1.2123,1.2208,1.2249,1.2369,1.2463,1.2559,1.2645,1.2673,1.2754,1.283,1.2878,1.2941,1.2992,1.3051,1.3058,1.3088,1.3091,1.3031,1.2987,1.2874,1.2723,1.2547,1.244,1.2229,1.1993,1.1737,1.1461,1.1214,1.0984,1.0807,1.0679,1.051,1.0454,1.0386,1.0334,1.027,1.0264,1.0232,1.0271,1.025,1.0226,1.025,1.0248,1.0247,1.0267,1.0285,1.0375,1.0353,1.0345,1.037,1.0438,1.0406,1.0461,1.0474,1.0478,1.0421,1.0365,1.0387,1.0375,1.04,1.0357,1.0375,1.0359,1.0325,1.031,1.0313,1.0266,1.024,1.024,1.0212,1.0235,1.0221,1.0178,1.0166,1.0118,1.0026,0.99838,0.99251,0.9954,0.99035,0.99071,0.99357,0.99465,0.99394,0.99772,0.99774,0.99525,0.99074,0.99226,0.99252,1.0008,0.99986,1.0057,1.0132,1.0167,1.0259,1.0266,1.0399,1.0421,1.0307,1.0236,1.0143,1.0292,1.039,1.0455,1.0534,1.0462,1.0333,1.0065,0.99401,0.98392,0.97772,0.98195,0.98069,0.98158,0.98409,0.98555,0.98684,0.98752,0.98695,0.98233,1.0253,1.1413,1.22,1.4325,1.6999,1.8649,1.9245,1.592,1.2031,1.0786,1.0378,0.9268,0.80431,0.8203,0.9007,1.0102,1.008,0.98126,0.9812,0.97807,0.97564,0.96845,0.97414,0.96839,0.97978,0.97517,0.98488,0.9868,0.99438,0.99165,0.99685,0.99208,0.99933,1.0051,1.0081,1.0071,1.0067,1.0092,1.026,1.0274,1.036,1.0364,1.0456,1.0489,1.0545,1.053,1.0696,1.0758,1.0833,1.0914,1.097,1.1116,1.1229,1.1258,1.1363,1.1429,1.1527,1.1574,1.1613,1.1693,1.1753,1.1888,1.1966,1.1987,1.205,1.2102,1.2126,1.2233,1.2264,1.2305,1.226,1.2312,1.2211,1.2153,1.2108,1.1993,1.179,1.1574,1.1346,1.1108,1.0988,1.0762,1.0513,1.0405,1.0199,1.0125,1.0048,0.99744,0.99023,0.98678,0.98422,0.98271,0.97607,0.97576,0.97696,0.97372,0.97353,0.97712,0.98704,0.98469,0.98538,0.99197,0.99451,1.0005,0.99432,0.99373,0.98948,0.9951,1.0036,0.99914,0.99168,0.99382,0.99312,0.99731,0.99399,0.9886,0.97867,0.98596,0.98674,0.98436,0.97362,0.97196,0.97382,0.97665,0.97412,0.97006,0.96014,0.95824,0.95743,0.95627,0.95125,0.95571,0.95388,0.96321,0.96008,0.95959,0.96867,0.97711,0.9801,0.99389,1.0002,0.99472,0.9906,0.97865,0.97488,0.97783,0.99667,1.0018,1.0062,0.98985,0.97074,0.95051,0.94214,0.92771,0.92291,0.92521,0.93115,0.93668,0.94227,0.93936,0.93403,0.92819,0.93616,0.95114,0.98175,1.09,1.2569,1.4866,1.6927,1.8264,1.7838,1.3615,1.0775,1.0212,0.95201,0.83368,0.73462,0.77171,0.86391,0.94624,0.93713,0.9245,0.92011,0.92215,0.92273,0.9178,0.92047,0.91837,0.92229,0.93165,0.93351,0.92413,0.92097,0.92257,0.93178,0.93393,0.93562,0.94296,0.93979,0.94501,0.94277,0.95232,0.95933,0.96166,0.97013,0.96903,0.97398,0.98249,0.98081,0.99015,1.0006,1.004,1.0151,1.0219,1.0314,1.0402,1.053,1.055,1.0644,1.0703,1.0796,1.0848,1.0956,1.1026,1.1085,1.1115,1.1189,1.1208,1.1291,1.132,1.1302,1.1371,1.1383,1.1426,1.143,1.1416,1.1323,1.1187,1.1076,1.0932,1.0744,1.0583,1.0349,1.0178,0.99806,0.98412,0.9695,0.95188,0.93876,0.93116,0.92236,0.925,0.92014,0.91565,0.91321,0.91082,0.9082,0.91116,0.90793,0.90577,0.90657,0.90557,0.90971,0.91219,0.92113,0.91832,0.91701,0.91376,0.9161,0.91991,0.93123,0.92586,0.92564,0.92772,0.9294,0.92596,0.92495,0.92639,0.92278,0.92165,0.92346,0.92276,0.92097,0.91728,0.91847,0.91572,0.91049,0.91211,0.90261,0.90201,0.90352,0.90396,0.90042,0.89793,0.89753,0.90556,0.91088,0.91657,0.92747,0.93577,0.93233,0.92928,0.91749,0.92046,0.92724,0.93189,0.93279,0.93215,0.93571,0.90808,0.89037,0.88187,0.87832,0.88341,0.88313,0.88405,0.88751,0.8932,0.88937,0.89111,0.88892,0.89379,0.90155,0.96096,1.0977,1.2997,1.4256,1.6537,1.8267,1.7875,1.3777,1.0384,0.96735,0.87236,0.76135,0.69152,0.75002,0.87088,0.92409,0.8926,0.89458,0.876,0.88654,0.88176,0.88893,0.88922,0.89841,0.89113,0.89811,0.88771,0.90225,0.89777,0.90842,0.90434,0.91159,0.91671,0.92443,0.92481,0.92549,0.92307,0.92992,0.93299,0.94547,0.95229,0.96091,0.9615,0.96556,0.96914,0.97738,0.98086,0.99609,1.0028,1.0151,1.0229,1.03,1.0401,1.0491,1.0586,1.0698,1.0794,1.0875,1.095,1.0983,1.1058,1.1104,1.1236,1.1269,1.1273,1.1234,1.1308,1.1374,1.1378,1.1424,1.1466,1.1377,1.1286,1.1189,1.1067,1.0924,1.0742,1.0495,1.0305,1.0133,0.98804,0.96314,0.9553,0.94074,0.93823,0.92723,0.92529,0.92055,0.91914,0.91256,0.91411,0.90764,0.90392,0.90118,0.9059,0.9117,0.91693,0.91299,0.91147,0.91765,0.92409,0.92964,0.93466,0.93565,0.93593,0.93596,0.94162,0.94209,0.94274,0.94045,0.94544,0.94974,0.95312,0.95586,0.95308,0.9441,0.94608,0.94108,0.93705,0.93552,0.93739,0.94106,0.93875,0.93077,0.93324,0.93093,0.92536,0.92235,0.92701,0.92194,0.9262,0.92243,0.92159,0.91666,0.91637,0.91519,0.91739,0.91849,0.91863,0.91549,0.91463,0.91783,0.92123,0.92654,0.9267,0.92772,0.93548,0.94962,0.95361,0.96024,0.97091,0.97064,0.96168,0.94825,0.95546,0.97125,0.98436,0.98182,0.97351,0.96518,0.94472,0.92499,0.91882,0.91373,0.91325,0.91464,0.9188,0.91829,0.92028,0.92256,0.9248,0.92375,0.92698,0.92618,0.97401,1.0988,1.2825,1.5275,1.7532,1.9075,1.7809,1.3339,1.0645,0.97628,0.86402,0.80732,0.76975,0.80619,0.94254,0.96675,0.94629,0.94025,0.93295,0.94163,0.93916,0.94277,0.93309,0.93658,0.93427,0.93993,0.94063,0.94633,0.94514,0.95159,0.9532,0.95941,0.95746,0.96547,0.96506,0.96866,0.96661,0.97872,0.97877,0.98838,0.98991,1.0014,1.0065,1.0181,1.0207,1.0317,1.0387,1.0478,1.0567,1.068,1.077,1.0883,1.0911,1.1052,1.1198,1.1302,1.1358,1.1472,1.154,1.1652,1.1699,1.1783,1.1825,1.1885,1.1963,1.2024,1.2067,1.2129,1.2148,1.22,1.2179,1.2129,1.2097,1.2007,1.1903,1.1751,1.1565,1.1344,1.113,1.0932,1.0763,1.0568,1.0394,1.028,1.0193,1.0102,1.0048,0.99982,0.99519,0.99494,0.99125,0.99004,0.98801,0.99033,0.99419,0.99638,0.99914,0.998,1.0044,1.0048,1.0102,1.0072,1.0098,1.0136,1.0155,1.0173,1.021,1.0226,1.0246,1.0219,1.0233,1.0233,1.0259,1.0224,1.0225,1.0219,1.0223,1.0191,1.0203,1.016,1.0153,1.0119,1.0144,1.0157,1.0116,1.0121,1.0127,1.0112,1.0095,1.0075,1.0062,1.0035,1.0048,1.0034,1.0048,1.0026,1.0034,1.0025,1.0061,1.007,1.0063,1.007,1.0077,1.0056,1.004,1.0046,1.0044,1.0043,1.0057,1.0026,1.0042,1.0034,1.0028,1.0008,0.99847,0.99897,1.0038,1.0016,1.0026,1.0023,1.0016,1.0035,1.0027,1.0023,1.0042,1.0055,1.0114,1.0166,1.0326,1.0385,1.0449,1.0453,1.0564,1.0566,1.0467,1.036,1.0395,1.0587,1.071,1.0693,1.0618,1.0509,1.0276,1.0077,0.99917,0.99607,0.99685,1.0012,1.0045,1.0085,1.0103,1.0115,1.01,1.0072,0.98702,0.97676,1.0218,1.1539,1.3569,1.6548,1.957,2.1532,1.9256,1.4185,1.1771,1.0083,0.89678,0.89341,0.93332,1.0781,1.0662,1.0383,1.0331,1.0235,1.0236,1.0194,1.0223,1.019,1.0233,1.0215,1.0244,1.0264,1.0306,1.0295,1.0331,1.0301,1.0355,1.0421,1.0467,1.0471,1.0511,1.0496,1.054,1.0524,1.0605,1.0658,1.0733,1.0762,1.0873,1.0893,1.0973,1.1064,1.1226,1.1339,1.1413,1.1508,1.16,1.1695,1.1776,1.188,1.198,1.2032,1.2137,1.2202,1.231,1.2584,1.2458,1.2707,1.2617,1.2538,1.2652,1.2685,1.2813,1.285,1.3009,1.2998,1.3007,1.2941,1.2924,1.2832,1.2705,1.2539,1.2344,1.2092,1.198,1.1757,1.1567,1.1371,1.1166,1.1019,1.0849,1.0732,1.0633,1.0547,1.0492,1.0464,1.0474,1.0484,1.0453,1.0457,1.0413,1.0424,1.0414,1.0441,1.0431,1.0463,1.046,1.0482,1.0485,1.0553,1.0577,1.0591,1.0576,1.055,1.0596,1.0562,1.0626,1.0614,1.0586,1.0599,1.0636,1.0656,1.0625,1.0564,1.0501,1.0533,1.0523,1.0531,1.0479,1.0471,1.0508,1.0492,1.0448,1.0476,1.0403,1.0409,1.0385,1.0348,1.0394,1.0343,1.032,1.034,1.0281,1.0358,1.0393,1.0417,1.0377,1.0287,1.0296,1.0318,1.0309,1.0307,1.0228,1.0148,1.0134,1.0321,1.0273,1.0258,1.0249,1.0244,1.0229,1.0241,1.0218,1.0215,1.0187,1.023,1.0385,1.0371,1.0451,1.0502,1.0524,1.0718,1.0778,1.0794,1.0609,1.0504,1.0545,1.0724,1.093,1.0934,1.0861,1.0719,1.0458,1.0268,1.0213,1.0198,1.0204,1.0209,1.0216,1.0227,1.0304,1.0305,1.0352,1.037,1.0244,1.0314,1.1041,1.2266,1.4462,1.7097,1.909,2.0108,1.73,1.3138,1.1681,1.0949,1.0519,0.90718,0.84384,0.90306,1.0213,1.0571,1.0329,1.0254,1.0266,1.0345,1.0269,1.0241,1.0238,1.0276,1.0296,1.0262,1.0312,1.0321,1.0333,1.0477,1.0532,1.0439,1.0399,1.0487,1.0425,1.0539,1.0552,1.0589,1.0651,1.0678,1.0675,1.071,1.077,1.0923,1.1023,1.1005,1.1031,1.1101,1.1203,1.1303,1.1252,1.1399,1.1496,1.1586,1.1624,1.1787,1.1866,1.1848,1.1999,1.2084,1.216,1.2263,1.2257,1.2294,1.2335,1.2465,1.2483,1.2539,1.2629,1.2536,1.2528,1.2502,1.2523,1.2506,1.2423,1.2238,1.201,1.1943,1.1653,1.1416,1.1221,1.1071,1.0896,1.08,1.0712,1.0505,1.0447,1.0378,1.031,1.0218,1.0195,1.0236,1.0308,1.0264,1.0268,1.0308,1.0326,1.0296,1.0267,1.0375,1.0394,1.0355,1.0353,1.0456,1.0458,1.0474,1.0433,1.0441,1.043,1.0469,1.047,1.0434,1.0453,1.0389,1.0461,1.0416,1.0313,1.0385,1.0265,1.028,1.0206,1.02,1.0175,1.0168,1.0146,1.0179,1.016,1.0115,1.0119,1.008,0.99612,0.99301,0.99042,0.99071,0.99528,1.0012,1.0006,1.0046,1.0024,0.98192,0.99948,1.0044,1.0068,1.0088,1.0291,1.0274,1.0358,1.047,1.0489,1.0395,1.0286,1.0217,1.0314,1.0437,1.0434,1.0418,1.0227,1.0213,0.99271,0.99003,0.98479,0.97261,0.97489,0.97436,0.98293,0.97454,0.97791,0.98069,0.98462,0.97856,0.99187,1.0153,1.1268,1.2964,1.5127,1.7092,1.8684,1.8373,1.4161,1.1538,1.0995,0.98968,0.87524,0.80643,0.85969,0.95537,1.0077,0.98369,0.9828,0.96997,0.97956,0.97433,0.97758,0.9804,0.97928,0.97579,0.98227,0.97953,0.97941,0.98585,0.98279,0.98342,0.98665,0.99682,0.99887,1.0024,1.0008,1.006,1.0089,1.0064,1.0173,1.0253,1.0285,1.0295,1.0347,1.0422,1.038,1.0601,1.0632,1.067,1.076,1.0878,1.0935,1.096,1.1081,1.1126,1.128,1.1238,1.1346,1.1398,1.1513,1.1674,1.1633,1.1638,1.1735,1.1736,1.1853,1.1864,1.1821,1.1824,1.1903,1.1915,1.1829,1.1786,1.1653,1.1482,1.1392,1.1259,1.1038,1.0843,1.0617,1.0434,1.0235,1.0199,1.0068,1.0084,0.99808,0.99102,0.98282,0.973,0.95622,0.96187,0.96408,0.97012,0.96317,0.95988,0.95432,0.96001,0.96765,0.96905,0.96786,0.97017,0.96926,0.97746,0.98448,0.98635,0.97816,0.97783,0.98128,0.99188,0.98915,0.992,0.99454,0.9904,0.9931,0.99668,0.98747,0.98297,0.98679,0.97976,0.97589,0.9789,0.98295,0.97438,0.95642,0.95729,0.97428,0.96109,0.97137,0.97294,0.97836,0.98263,0.98435,1.0018,1.0043,1.0079,1.0011,0.99444,0.99176,1.0027,1.0156,1.0059,1.0096,1.0043,0.98597,0.96363,0.95215,0.94258,0.94374,0.96568,0.94261,0.94013,0.94597,0.96266,0.95607,0.94367,0.95261,0.93679,0.99156,1.0759,1.2199,1.4418,1.6583,1.7548,1.879,1.6437,1.2123,1.0584,0.95253,0.85395,0.76455,0.79306,0.87052,0.97955,0.96771,0.94256,0.93866,0.92377,0.93792,0.95139,0.95135,0.95603,0.92147,0.94169,0.94939,0.9423,0.96836,0.98653,0.99272,0.97865,0.9574,0.95451,0.98091,0.99727,0.98367,1.0005,0.98965,0.99761,1.032,1.0069,1.0275,1.0234,1.035,1.056,1.0633,1.04,1.0558,1.0686,1.0692,1.0902,1.0913,1.1051,1.1196,1.1223,1.1347,1.1321,1.1402,1.1508,1.1576,1.1615,1.1667,1.1699,1.1773,1.1708,1.1722,1.1811,1.1885,1.183,1.1773,1.1779,1.1566,1.1614,1.137,1.1129,1.0928,1.0834,1.0738,1.0481,1.0347,1.0058,0.99357,0.98066,0.98091,0.96816,0.96889,0.95468,0.95534,0.95094,0.93495,0.94605,0.94343,0.93494,0.94929,0.94327,0.93364,0.94073,0.94708,0.94758,0.94325,0.94661,0.9492,0.94945,0.95933,0.95487,0.96721,0.97049,0.97787,0.96428,0.96643,0.97271,0.97339,0.96651,0.97524,0.96467,0.96597,0.96284,0.96398,0.96637,0.96922,0.96049,0.96416,0.96772,0.97117,0.97313,0.9924,0.99646,0.99279,1.0071,1.0166,1.0284,1.0137,1.005,0.99872,0.9995,1.0211,1.0206,1.0149,1.0047,0.98103,0.96746,0.95728,0.96178,0.95573,0.95323,0.95672,0.95866,0.96096,0.96453,0.96044,0.96696,0.95617,0.94258,0.96647,1.0571,1.205,1.4256,1.6692,1.8658,1.844,1.4219,1.1176,1.033,0.90581,0.80678,0.80237,0.83069,0.93273,0.9885,0.97347,0.97421,0.96244,0.97339,0.96009,0.96956,0.95978,0.96556,0.95718,0.96793,0.96018,0.96967,0.96603,0.97355,0.97033,0.978,0.97379,0.98072,0.97813,0.98652,0.98075,0.98876,0.99208,1.0018,1.0011,1.0117,1.0115,1.0225,1.025,1.034,1.0432,1.0547,1.0651,1.0753,1.083,1.094,1.1045,1.1131,1.1153,1.1256,1.1373,1.1459,1.1578,1.1675,1.1709,1.1755,1.185,1.1938,1.1931,1.1971,1.1986,1.2054,1.2065,1.2043,1.1949,1.178,1.171,1.1572,1.1465,1.1254,1.1031,1.0784,1.0567,1.0393,1.0249,1.0093,0.99078,0.98021,0.97838,0.97008,0.96598,0.95582,0.9523,0.95017,0.95105,0.95179,0.95081,0.94335,0.94453,0.94519,0.94511,0.94065,0.93942,0.93856,0.94598,0.94631,0.94326,0.94278,0.94001,0.9388,0.9481,0.95119,0.95282,0.94857,0.95651,0.95118,0.958,0.95249,0.95096,0.95395,0.95048,0.94562,0.9521,0.94921,0.95675,0.96212,0.97353,0.98111,0.98843,0.99144,0.99392,0.99795,0.98043,0.97372,0.97381,0.98277,0.98124,0.97759,0.96157,0.95411,0.94141,0.91794,0.9101,0.90941,0.91213,0.91209,0.9129,0.90657,0.90982,0.90889,0.91347,0.90981,0.90307,0.88538,0.92472,1.0167,1.1901,1.4489,1.7264,1.8415,1.9197,1.5428,1.1104,0.96663,0.82145,0.75332,0.75361,0.84426,0.93338,0.93277,0.90818,0.9132,0.90209,0.90768,0.90195,0.91006,0.90312,0.91129,0.90809,0.91417,0.90907,0.92122,0.91885,0.92536,0.92256,0.92692,0.92603,0.93179,0.93094,0.93957,0.94194,0.95129,0.95002,0.95852,0.96336,0.97196,0.98245,0.99165,0.99501,1.0043,1.0126,1.0274,1.0294,1.0411,1.049,1.0616,1.0757,1.0883,1.0989,1.1089,1.1196,1.1239,1.1349,1.1467,1.1534,1.1569,1.1628,1.1706,1.1764,1.1807,1.1812,1.1854,1.1857,1.1828,1.1761,1.1659,1.1572,1.1373,1.1162,1.0925,1.0689,1.0425,1.0234,1.0006,0.97707,0.95849,0.95024,0.93686,0.93304,0.92367,0.92063,0.91628,0.9164,0.91413,0.91296,0.91047,0.91,0.91187,0.91546,0.91484,0.91433,0.91811,0.92075,0.92216,0.92715,0.92456,0.92765,0.93102,0.93282,0.92908,0.93097,0.93108,0.93324,0.93318,0.92965,0.93,0.92802,0.92773,0.92659,0.9277,0.93104,0.9355,0.94264,0.94893,0.95789,0.96036,0.95647,0.96672,0.97768,0.96913,0.96655,0.95545,0.955,0.96696,0.96784,0.9603,0.94855,0.92542,0.90192,0.8894,0.8836,0.88097,0.88351,0.88506,0.88688,0.88656,0.88857,0.8932,0.89545,0.88812,0.8685,0.85906,0.88902,0.98098,1.1567,1.4211,1.7255,1.9376,1.8231,1.347,1.0256,0.90271,0.77016,0.74192,0.76038,0.90395,0.93794,0.91114,0.90355,0.8901,0.89447,0.88785,0.89359,0.88896,0.89395,0.88826,0.89601,0.89666,0.9002,0.89959,0.90721,0.90494,0.90925,0.91203,0.9172,0.91654,0.9218,0.92292,0.93086,0.93393,0.94244,0.94565,0.95293,0.96049,0.97099,0.97934,0.99004,0.99778,1.0076,1.0157,1.0271,1.0345,1.0459,1.0554,1.0683,1.0811,1.0884,1.0961,1.1057,1.1154,1.1264,1.13,1.1371,1.1456,1.1535,1.1607,1.1686,1.1732,1.1775,1.1828,1.1775,1.1772,1.1702,1.1616,1.1467,1.1313,1.1099,1.0905,1.0621,1.0411,1.0183,0.99711,0.98368,0.97255,0.9544,0.94612,0.93249,0.92671,0.92031,0.91932,0.91665,0.91684,0.91665,0.91778,0.91564,0.91979,0.91743,0.92317,0.92283,0.92455,0.92384,0.92903,0.92806,0.93007,0.93103,0.93194,0.93145,0.93249,0.93265,0.93329,0.93225,0.93251,0.93093,0.93224,0.92965,0.93002,0.92598,0.92465,0.92091,0.92365,0.92839,0.93298,0.93715,0.94847,0.95123,0.95391,0.95901,0.97048,0.97712,0.96463,0.96037,0.95961,0.97106,0.98288,0.97792,0.96552,0.94441,0.92169,0.90962,0.90102,0.9008,0.90283,0.90277,0.90373,0.90256,0.90713,0.91044,0.91695,0.91241,0.90554,0.88889,0.89906,0.96376,1.1017,1.3249,1.6274,1.8942,1.9548,1.5861,1.1332,0.99983,0.88032,0.81332,0.75947,0.76462,0.8978,0.95836,0.94084,0.92201,0.91735,0.91314,0.91269,0.91199,0.9122,0.91224,0.91506,0.91887,0.92361,0.92679,0.93058,0.93364,0.93806,0.94012,0.941,0.94459,0.94704,0.95094,0.95569,0.9626,0.96892,0.9758,0.98135,0.98557,0.99203,0.99942,1.009,1.021,1.034,1.0449,1.0512,1.062,1.0661,1.0755,1.0868,1.0951,1.1054,1.1147,1.1232,1.1333,1.1418,1.148,1.1553,1.1638,1.1715,1.1802,1.183,1.1902,1.1982,1.2039,1.2055,1.2078,1.2039,1.2007,1.1953,1.1859,1.1643,1.1467,1.1226,1.1015,1.0785,1.0539,1.0335,1.0153,0.99672,0.98021,0.96907,0.96306,0.9551,0.95747,0.95098,0.94886,0.94333,0.94459,0.9486,0.95236,0.95481,0.95769,0.95497,0.96097,0.96689,0.96934,0.96836,0.96703,0.97319,0.97901,0.97754,0.98094,0.97766,0.97629,0.97792,0.97449,0.97339,0.97226,0.97401,0.97079,0.97345,0.97019,0.96627,0.96197,0.95941,0.95764,0.9635,0.97614,0.98893,0.98789,0.99157,0.99936,1.013,1.0177,1.0009,0.99545,0.99867,1.0135,1.0142,1.0132,1.0049,0.98849,0.96654,0.94969,0.94687,0.94666,0.94601,0.94451,0.94634,0.94625,0.95446,0.95385,0.96176,0.96444,0.96753,0.96798,1.0074,1.0974,1.2502,1.3747,1.6121,1.7974,1.7984,1.5279,1.1255,1.0021,0.96536,0.87118,0.77643,0.80566,0.89786,0.99068,0.97529,0.95871,0.95494,0.9537,0.95877,0.95787,0.96546,0.96237,0.96423,0.96683,0.96847,0.9737,0.97371,0.97613,0.97991,0.97715,0.98303,0.98852,0.99699,1.0012,1.0082,1.0055,1.0127,1.0126,1.0198,1.0311,1.042,1.0477,1.0514,1.0543,1.0632,1.0689,1.0806,1.0897,1.113,1.1142,1.1188,1.1154,1.1267,1.1423,1.1536,1.1614,1.1604,1.1662,1.1689,1.1763,1.1835,1.1948,1.1998,1.1998,1.2024,1.204,1.2098,1.215,1.2211,1.2152,1.2007,1.1951,1.1835,1.1698,1.1446,1.1256,1.1123,1.0848,1.0629,1.0478,1.0326,1.0206,1.0145,1.0055,1.0064,0.9974,0.99057,0.99625,0.99086,0.99496,0.99159,0.98746,0.99376,1.0008,1.0084,1.0063,1.0087,1.0165,1.0112,1.0129,1.015,1.0171,1.0181,1.0129,1.0143,1.0117,1.0147,1.0162,1.0189,1.0114,1.0057,1.0022,1.0064,1.0043,1.0133,1.0146,1.0125,1.0117,1.0172,1.0312,1.0428,1.0425,1.0345,1.0298,1.0214,1.0291,1.0327,1.0319,1.028,1.0182,0.99865,0.97912,0.96594,0.96886,0.96649,0.96768,0.96967,0.97401,0.98038,0.97596,0.97375,0.97225,0.96667,0.96616,0.97904,1.0431,1.1793,1.3825,1.6517,1.8626,1.9269,1.6067,1.187,1.0434,0.98938,0.8944,0.78044,0.80697,0.88621,0.99435,0.98691,0.96983,0.96899,0.97179,0.97497,0.98032,0.98048,0.98451,0.97989,0.97596,0.98082,0.9763,0.9885,0.9873,0.99899,1.0011,1.0059,1.0055,1.0085,1.0145,1.0113,1.0225,1.0338,1.0369,1.041,1.0383,1.0477,1.0477,1.0551,1.066,1.075,1.0762,1.0934,1.0994,1.1182,1.1248,1.1299,1.134,1.1421,1.1461,1.1563,1.1687,1.1637,1.1593,1.1672,1.1762,1.1885,1.1944,1.1981,1.1949,1.1986,1.2043,1.2089,1.2093,1.1977,1.1992,1.195,1.1874,1.1665,1.1466,1.1281,1.1029,1.0891,1.0709,1.0614,1.0426,1.032,1.0278,1.0119,0.99925,0.99738,0.99467,0.99478,0.9901,0.98608,0.98775,0.9955,0.99292,0.9926,1.0008,1.0025,1.0143,1.0152,1.0124,1.0117,1.0112,1.0129,1.0213,1.0245,1.0201,1.017,1.0214,1.0229,1.0165,1.0065,1.0181,1.0155,1.017,1.0134,1.0116,1.019,1.0308,1.0305,1.032,1.0392,1.0512,1.0555,1.0534,1.0434,1.0339,1.0417,1.0493,1.0458,1.0362,1.0165,1.0005,0.98595,0.97247,0.9672,0.96743,0.97078,0.96866,0.97276,0.97661,0.97549,0.96978,0.97627,0.96649,0.97231,0.98328,1.0379,1.1608,1.3579,1.6222,1.8508,1.9517,1.6542,1.2166,1.0548,0.97182,0.87382,0.79987,0.83141,0.93323,1.0021,1.0013,0.98427,0.97516,0.97339,0.97209,0.97098,0.97315,0.97348,0.9814,0.98266,0.98546,0.98787,0.99189,0.98909,0.99182,0.99497,0.99898,1.0019,1.0007,1.0057,1.0081,1.0122,1.0271,1.0254,1.0328,1.0365,1.0423,1.0546,1.0653,1.0701,1.0749,1.0862,1.0874,1.1024,1.1087,1.1151,1.1198,1.1298,1.1392,1.1518,1.1587,1.1626,1.176,1.1788,1.1852,1.1869,1.196,1.1994,1.2098,1.2114,1.2136,1.2243,1.2291,1.2219,1.2187,1.2138,1.2012,1.1907,1.1746,1.1453,1.1359,1.1181,1.0984,1.0886,1.0708,1.0573,1.038,1.0257,1.0169,1.0094,1.0104,1.009,1.004,1.004,1.0028,1.0043,1.0063,1.0171,1.0224,1.0188,1.0163,1.0145,1.0238,1.0281,1.0322,1.0335,1.0374,1.0391,1.0364,1.0408,1.0401,1.0419,1.042,1.0383,1.0405,1.0438,1.0415,1.0374,1.032,1.033,1.0355,1.0371,1.0391,1.0499,1.0509,1.0598,1.0625,1.0623,1.0751,1.0882,1.0839,1.0762,1.0779,1.0782,1.0849,1.0839,1.0756,1.0696,1.0358,1.024,1.0135,1.009,1.0149,1.0092,1.0143,1.0139,1.0133,1.0214,1.0222,1.0238,1.0119,1.014,1.0333,1.1049,1.2366,1.448,1.7304,1.9559,2.0042,1.6281,1.2082,1.1214,1.0346,0.94024,0.86877,0.87683,0.97658,1.0559,1.0458,1.0304,1.0337,1.0269,1.0273,1.022,1.0258,1.0312,1.0394,1.0466,1.0486,1.0464,1.0514,1.0485,1.0564,1.053,1.0539,1.0633,1.0643,1.0659,1.0756,1.0729,1.0827,1.0865,1.1015,1.0998,1.1065,1.1152,1.1322,1.1397,1.1492,1.149,1.1485,1.1592,1.1656,1.176,1.1981,1.2036,1.2145,1.2248,1.2333,1.2381,1.246,1.2514,1.2621,1.2634,1.2674,1.2749,1.2832,1.2931,1.2992,1.3041,1.306,1.303,1.2986,1.2955,1.2821,1.2717,1.2571,1.2367,1.2142,1.1976,1.1784,1.1584,1.1385,1.1288,1.1137,1.1014,1.0879,1.086,1.0876,1.0821,1.0799,1.079,1.0764,1.0768,1.0775,1.0772,1.0825,1.0885,1.088,1.0868,1.0851,1.0846,1.0937,1.0975,1.0961,1.0966,1.0999,1.1033,1.0986,1.0988,1.0957,1.0994,1.0978,1.0995,1.0945,1.0945,1.0929,1.0887,1.0874,1.0759,1.0799,1.0778,1.0792,1.0787,1.074,1.0751,1.0813,1.0877,1.0897,1.103,1.1079,1.1095,1.1203,1.1279,1.1249,1.1126,1.1135,1.1214,1.1301,1.1344,1.1267,1.1141,1.095,1.0785,1.064,1.0606,1.0553,1.0587,1.0641,1.0658,1.066,1.0747,1.0718,1.0706,1.0657,1.0593,1.0548,1.0913,1.192,1.3674,1.6272,1.9118,2.1068,1.9571,1.4925,1.1938,1.0816,1.0255,0.92047,0.91493,1.0305,1.1052,1.0991,1.0793,1.0807,1.0722,1.0689,1.0649,1.0732,1.0704,1.0734,1.068,1.0733,1.075,1.0831,1.0804,1.0849,1.0868,1.0873,1.0906,1.0892,1.094,1.1047,1.0993,1.1095,1.116,1.1157,1.1205,1.1293,1.1401,1.1518,1.1604,1.1702,1.1725,1.1838,1.1901,1.2037,1.2101,1.2216,1.2332,1.2451,1.2528,1.2643,1.2679,1.2751,1.2762,1.2878,1.2917,1.2984,1.3062,1.3134,1.3181,1.3235,1.3253,1.3268,1.3317,1.3269,1.3277,1.3142,1.3025,1.2825,1.2671,1.2449,1.2269,1.2181,1.1976,1.1783,1.1574,1.1408,1.1335,1.1242,1.1134,1.1059,1.1017,1.1021,1.0992,1.0959,1.0911,1.0956,1.0983,1.096,1.0945,1.0977,1.1042,1.102,1.1028,1.1124,1.1105,1.1072,1.11,1.1077,1.1122,1.1127,1.1147,1.1169,1.1131,1.1136,1.1119,1.1089,1.1028,1.1023,1.0992,1.094,1.0921,1.0892,1.0862,1.088,1.0841,1.0786,1.079,1.0752,1.0762,1.075,1.068,1.0648,1.0662,1.0679,1.0682,1.0608,1.0591,1.0573,1.0594,1.0536,1.0555,1.058,1.0626,1.0677,1.0844,1.0909,1.0953,1.0913,1.1031,1.1071,1.0917,1.0898,1.0996,1.1121,1.1108,1.1114,1.1015,1.0842,1.0607,1.0495,1.0458,1.0452,1.0461,1.0452,1.0474,1.0457,1.0511,1.0532,1.0527,1.0469,1.0393,1.0328,1.0766,1.1907,1.3789,1.669,1.9622,2.1395,1.9019,1.4132,1.1801,1.0321,0.96453,0.90172,0.89958,1.0075,1.0908,1.0752,1.0605,1.0562,1.0456,1.0498,1.0426,1.047,1.0428,1.0486,1.0522,1.053,1.0548,1.0625,1.0635,1.071,1.065,1.0701,1.0653,1.0728,1.0768,1.0762,1.0796,1.0875,1.091,1.1015,1.1032,1.1118,1.1164,1.126,1.1266,1.1404,1.1504,1.1596,1.1676,1.1816,1.1835,1.1986,1.2073,1.2202,1.2276,1.2323,1.2445,1.2553,1.2637,1.2721,1.2797,1.2813,1.2897,1.3001,1.3045,1.3057,1.3135,1.3137,1.3147,1.3114,1.3073,1.3011,1.2896,1.2816,1.2624,1.2424,1.2195,1.2035,1.1913,1.1701,1.1408,1.124,1.1102,1.1003,1.0897,1.0787,1.0741,1.071,1.0707,1.071,1.068,1.0668,1.0685,1.0676,1.0715,1.0739,1.0757,1.0732,1.0746,1.0755,1.0782,1.0766,1.0797,1.0831,1.0855,1.0868,1.0815,1.0835,1.08,1.0828,1.0783,1.0819,1.0795,1.077,1.0785,1.0762,1.0713,1.067,1.0667,1.0629,1.0662,1.0607,1.0605,1.0558,1.0563,1.0561,1.0564,1.0519,1.0503,1.0515,1.0485,1.0499,1.0497,1.0449,1.0456,1.0436,1.0466,1.0465,1.0416,1.0377,1.0398,1.0379,1.0381,1.035,1.0333,1.0318,1.035,1.0335,1.0371,1.0385,1.048,1.0607,1.0673,1.0682,1.0741,1.0809,1.0848,1.0757,1.0597,1.0601,1.0779,1.0942,1.1012,1.0876,1.0779,1.057,1.0372,1.0323,1.0265,1.0213,1.0245,1.0253,1.0253,1.031,1.0336,1.0324,1.0257,1.0166,1.0043,1.0408,1.1513,1.3366,1.6198
