-15.267,-15.27,-15.274,-15.278,-15.273,-15.274,-15.276,-15.283,-15.285,-15.283,-15.29,-15.285,-15.293,-15.294,-15.295,-15.299,-15.301,-15.308,-15.31,-15.303,-15.305,-15.307,-15.308,-15.311,-15.307,-15.302,-15.29,-15.292,-15.285,-15.275,-15.274,-15.266,-15.255,-15.238,-15.213,-15.225,-15.239,-15.24,-15.253,-15.262,-15.271,-15.269,-15.285,-15.305,-15.338,-15.348,-15.351,-15.35,-15.358,-15.357,-15.355,-15.357,-15.354,-15.364,-15.356,-15.358,-15.359,-15.365,-15.366,-15.375,-15.402,-15.447,-15.454,-15.386,-15.215,-14.97,-14.734,-14.514,-14.628,-14.899,-15.006,-15.149,-15.397,-15.462,-15.49,-15.478,-15.383,-15.347,-15.321,-15.32,-15.305,-15.309,-15.299,-15.307,-15.305,-15.31,-15.3,-15.299,-15.285,-15.291,-15.276,-15.27,-15.259,-15.262,-15.256,-15.25,-15.239,-15.235,-15.232,-15.225,-15.21,-15.198,-15.19,-15.188,-15.175,-15.169,-15.154,-15.135,-15.123,-15.11,-15.088,-15.071,-15.052,-15.039,-15.027,-15.003,-14.979,-14.959,-14.948,-14.936,-14.92,-14.91,-14.901,-14.894,-14.891,-14.892,-14.893,-14.894,-14.912,-14.941,-14.977,-15.008,-15.049,-15.09,-15.128,-15.171,-15.197,-15.223,-15.252,-15.282,-15.304,-15.309,-15.331,-15.335,-15.345,-15.355,-15.362,-15.366,-15.369,-15.374,-15.381,-15.383,-15.386,-15.383,-15.395,-15.392,-15.392,-15.386,-15.382,-15.379,-15.382,-15.382,-15.375,-15.374,-15.375,-15.373,-15.378,-15.375,-15.368,-15.368,-15.368,-15.364,-15.361,-15.356,-15.353,-15.355,-15.353,-15.349,-15.347,-15.344,-15.344,-15.346,-15.35,-15.346,-15.346,-15.347,-15.353,-15.35,-15.348,-15.348,-15.354,-15.351,-15.357,-15.356,-15.356,-15.357,-15.365,-15.359,-15.354,-15.356,-15.359,-15.359,-15.357,-15.358,-15.361,-15.357,-15.363,-15.363,-15.368,-15.366,-15.372,-15.37,-15.366,-15.37,-15.365,-15.366,-15.365,-15.368,-15.368,-15.364,-15.365,-15.367,-15.365,-15.361,-15.361,-15.359,-15.358,-15.365,-15.357,-15.358,-15.351,-15.354,-15.354,-15.355,-15.348,-15.343,-15.344,-15.351,-15.346,-15.339,-15.339,-15.341,-15.344,-15.346,-15.34,-15.343,-15.342,-15.343,-15.342,-15.342,-15.339,-15.338,-15.34,-15.339,-15.33,-15.332,-15.33,-15.331,-15.331,-15.326,-15.319,-15.318,-15.319,-15.328,-15.317,-15.314,-15.314,-15.312,-15.311,-15.307,-15.296,-15.292,-15.285,-15.276,-15.261,-15.252,-15.251,-15.23,-15.215,-15.194,-15.177,-15.171,-15.189,-15.185,-15.196,-15.206,-15.203,-15.207,-15.225,-15.255,-15.269,-15.273,-15.275,-15.275,-15.272,-15.268,-15.265,-15.266,-15.264,-15.265,-15.26,-15.258,-15.254,-15.257,-15.256,-15.267,-15.287,-15.319,-15.336,-15.251,-15.046,-14.808,-14.55,-14.378,-14.614,-14.808,-14.912,-15.102,-15.271,-15.3,-15.286,-15.299,-15.27,-15.23,-15.18,-15.178,-15.151,-15.156,-15.143,-15.145,-15.138,-15.137,-15.121,-15.124,-15.107,-15.106,-15.086,-15.083,-15.075,-15.075,-15.069,-15.067,-15.055,-15.054,-15.041,-15.036,-15.023,-15.021,-15.004,-14.995,-14.983,-14.968,-14.952,-14.942,-14.926,-14.912,-14.893,-14.872,-14.854,-14.84,-14.827,-14.804,-14.785,-14.765,-14.743,-14.725,-14.709,-14.693,-14.687,-14.682,-14.674,-14.672,-14.676,-14.682,-14.703,-14.729,-14.758,-14.783,-14.827,-14.844,-14.888,-14.918,-14.95,-14.977,-15.009,-15.033,-15.056,-15.07,-15.083,-15.093,-15.104,-15.105,-15.119,-15.116,-15.122,-15.124,-15.121,-15.119,-15.121,-15.125,-15.133,-15.129,-15.128,-15.117,-15.123,-15.118,-15.114,-15.112,-15.11,-15.106,-15.111,-15.11,-15.109,-15.101,-15.1,-15.101,-15.101,-15.09,-15.093,-15.086,-15.085,-15.081,-15.073,-15.075,-15.066,-15.068,-15.062,-15.057,-15.054,-15.051,-15.048,-15.051,-15.052,-15.046,-15.043,-15.04,-15.041,-15.04,-15.038,-15.048,-15.041,-15.038,-15.053,-15.045,-15.038,-15.034,-15.039,-15.043,-15.044,-15.038,-15.032,-15.035,-15.038,-15.033,-15.036,-15.034,-15.036,-15.037,-15.034,-15.026,-15.019,-15.021,-15.032,-15.034,-15.027,-15.023,-15.023,-15.025,-15.025,-15.02,-15.011,-15.013,-15.011,-15.009,-15.008,-15.007,-15.007,-15.008,-15.007,-15.006,-15,-15.004,-14.997,-15.001,-14.995,-14.992,-14.991,-14.994,-14.99,-14.99,-14.979,-14.97,-14.959,-14.948,-14.953,-14.951,-14.937,-14.931,-14.916,-14.893,-14.882,-14.903,-14.897,-14.904,-14.913,-14.924,-14.926,-14.941,-14.966,-14.988,-14.992,-14.998,-14.997,-15.003,-15.004,-15.002,-15.005,-15.002,-15.003,-15.006,-15.009,-15.003,-15.005,-15.004,-15.016,-15.036,-15.085,-15.112,-15.057,-14.88,-14.636,-14.374,-14.187,-14.284,-14.54,-14.713,-14.849,-14.97,-15.031,-15.027,-15.111,-15.128,-15.058,-15.022,-14.984,-14.978,-14.97,-14.969,-14.966,-14.973,-14.966,-14.962,-14.959,-14.95,-14.94,-14.935,-14.924,-14.921,-14.919,-14.917,-14.917,-14.909,-14.895,-14.89,-14.889,-14.885,-14.881,-14.875,-14.864,-14.86,-14.847,-14.835,-14.819,-14.807,-14.797,-14.782,-14.759,-14.752,-14.733,-14.721,-14.709,-14.688,-14.669,-14.65,-14.636,-14.626,-14.617,-14.603,-14.598,-14.594,-14.602,-14.603,-14.611,-14.634,-14.663,-14.704,-14.721,-14.759,-14.795,-14.83,-14.873,-14.905,-14.935,-14.961,-14.987,-15.012,-15.036,-15.042,-15.054,-15.067,-15.076,-15.081,-15.085,-15.085,-15.091,-15.103,-15.105,-15.11,-15.111,-15.117,-15.122,-15.122,-15.127,-15.12,-15.119,-15.12,-15.128,-15.122,-15.125,-15.126,-15.129,-15.127,-15.13,-15.125,-15.123,-15.129,-15.131,-15.129,-15.121,-15.115,-15.122,-15.125,-15.119,-15.115,-15.113,-15.114,-15.115,-15.119,-15.119,-15.12,-15.123,-15.129,-15.125,-15.13,-15.132,-15.128,-15.137,-15.139,-15.148,-15.148,-15.144,-15.151,-15.158,-15.159,-15.156,-15.159,-15.166,-15.166,-15.166,-15.169,-15.175,-15.175,-15.181,-15.178,-15.181,-15.18,-15.182,-15.192,-15.195,-15.198,-15.194,-15.201,-15.21,-15.216,-15.208,-15.207,-15.212,-15.215,-15.205,-15.206,-15.218,-15.222,-15.224,-15.233,-15.228,-15.226,-15.225,-15.233,-15.241,-15.235,-15.233,-15.239,-15.248,-15.247,-15.246,-15.244,-15.251,-15.25,-15.256,-15.253,-15.244,-15.247,-15.259,-15.256,-15.263,-15.264,-15.26,-15.257,-15.258,-15.256,-15.248,-15.243,-15.229,-15.231,-15.239,-15.221,-15.212,-15.204,-15.182,-15.184,-15.187,-15.188,-15.208,-15.226,-15.236,-15.231,-15.236,-15.252,-15.284,-15.312,-15.314,-15.308,-15.315,-15.32,-15.323,-15.313,-15.309,-15.327,-15.322,-15.327,-15.324,-15.313,-15.322,-15.337,-15.354,-15.398,-15.421,-15.364,-15.199,-14.962,-14.731,-14.492,-14.546,-14.82,-14.933,-15.074,-15.361,-15.448,-15.474,-15.456,-15.365,-15.325,-15.295,-15.299,-15.293,-15.299,-15.29,-15.29,-15.279,-15.285,-15.279,-15.282,-15.273,-15.268,-15.255,-15.25,-15.23,-15.236,-15.231,-15.234,-15.235,-15.236,-15.232,-15.231,-15.226,-15.228,-15.221,-15.213,-15.201,-15.202,-15.191,-15.184,-15.167,-15.156,-15.144,-15.131,-15.113,-15.092,-15.076,-15.063,-15.048,-15.032,-15.007,-14.988,-14.986,-14.974,-14.966,-14.956,-14.949,-14.95,-14.958,-14.97,-14.98,-14.995,-15.03,-15.067,-15.105,-15.139,-15.173,-15.208,-15.243,-15.273,-15.296,-15.313,-15.329,-15.344,-15.361,-15.373,-15.379,-15.387,-15.395,-15.4,-15.41,-15.405,-15.41,-15.416,-15.423,-15.423,-15.43,-15.426,-15.429,-15.432,-15.433,-15.424,-15.42,-15.416,-15.425,-15.422,-15.418,-15.411,-15.416,-15.419,-15.422,-15.409,-15.404,-15.404,-15.412,-15.403,-15.403,-15.402,-15.403,-15.402,-15.396,-15.394,-15.391,-15.388,-15.397,-15.392,-15.391,-15.386,-15.389,-15.393,-15.4,-15.4,-15.397,-15.401,-15.405,-15.413,-15.413,-15.412,-15.414,-15.416,-15.417,-15.422,-15.42,-15.422,-15.422,-15.429,-15.434,-15.432,-15.431,-15.437,-15.44,-15.443,-15.441,-15.44,-15.443,-15.448,-15.446,-15.444,-15.448,-15.447,-15.449,-15.453,-15.454,-15.447,-15.447,-15.449,-15.455,-15.453,-15.447,-15.45,-15.449,-15.454,-15.454,-15.454,-15.451,-15.452,-15.455,-15.448,-15.449,-15.45,-15.452,-15.45,-15.455,-15.456,-15.448,-15.455,-15.455,-15.458,-15.458,-15.452,-15.455,-15.457,-15.456,-15.457,-15.455,-15.457,-15.463,-15.459,-15.456,-15.458,-15.459,-15.463,-15.456,-15.458,-15.459,-15.458,-15.458,-15.458,-15.447,-15.442,-15.43,-15.423,-15.428,-15.413,-15.398,-15.379,-15.358,-15.368,-15.375,-15.374,-15.379,-15.392,-15.405,-15.408,-15.409,-15.434,-15.467,-15.486,-15.482,-15.48,-15.48,-15.483,-15.486,-15.491,-15.486,-15.482,-15.487,-15.489,-15.486,-15.484,-15.482,-15.493,-15.508,-15.553,-15.575,-15.531,-15.392,-15.158,-14.923,-14.681,-14.672,-14.983,-15.108,-15.226,-15.5,-15.584,-15.612,-15.619,-15.541,-15.492,-15.468,-15.453,-15.441,-15.438,-15.443,-15.446,-15.439,-15.437,-15.437,-15.44,-15.425,-15.418,-15.409,-15.406,-15.4,-15.392,-15.385,-15.384,-15.38,-15.374,-15.371,-15.357,-15.351,-15.342,-15.343,-15.333,-15.317,-15.307,-15.299,-15.286,-15.266,-15.246,-15.229,-15.219,-15.203,-15.18,-15.159,-15.14,-15.127,-15.119,-15.102,-15.081,-15.062,-15.051,-15.045,-15.033,-15.021,-15.019,-15.031,-15.038,-15.052,-15.07,-15.098,-15.134,-15.178,-15.214,-15.246,-15.281,-15.327,-15.347,-15.373,-15.396,-15.421,-15.442,-15.459,-15.476,-15.486,-15.496,-15.498,-15.507,-15.511,-15.51,-15.509,-15.517,-15.522,-15.529,-15.529,-15.529,-15.526,-15.526,-15.53,-15.523,-15.521,-15.516,-15.519,-15.518,-15.521,-15.509,-15.512,-15.513,-15.512,-15.506,-15.503,-15.498,-15.5,-15.501,-15.495,-15.493,-15.492,-15.491,-15.492,-15.487,-15.483,-15.487,-15.481,-15.487,-15.493,-15.489,-15.488,-15.487,-15.49,-15.49,-15.488,-15.489,-15.493,-15.498,-15.497,-15.494,-15.492,-15.492,-15.498,-15.496,-15.494,-15.493,-15.491,-15.495,-15.497,-15.496,-15.492,-15.494,-15.492,-15.491,-15.491,-15.488,-15.489,-15.5,-15.498,-15.491,-15.488,-15.489,-15.486,-15.487,-15.488,-15.48,-15.481,-15.478,-15.482,-15.477,-15.475,-15.473,-15.472,-15.478,-15.474,-15.474,-15.468,-15.467,-15.468,-15.464,-15.459,-15.459,-15.46,-15.461,-15.46,-15.458,-15.459,-15.46,-15.464,-15.462,-15.457,-15.444,-15.455,-15.461,-15.457,-15.454,-15.454,-15.448,-15.448,-15.45,-15.443,-15.445,-15.439,-15.44,-15.438,-15.433,-15.428,-15.425,-15.426,-15.429,-15.425,-15.415,-15.413,-15.419,-15.417,-15.422,-15.411,-15.411,-15.408,-15.407,-15.4,-15.394,-15.384,-15.373,-15.359,-15.362,-15.353,-15.334,-15.324,-15.301,-15.286,-15.301,-15.305,-15.303,-15.322,-15.323,-15.323,-15.321,-15.352,-15.372,-15.391,-15.394,-15.389,-15.395,-15.389,-15.393,-15.39,-15.386,-15.383,-15.383,-15.391,-15.39,-15.38,-15.378,-15.382,-15.404,-15.44,-15.475,-15.437,-15.379,-15.175,-14.934,-14.677,-14.512,-14.769,-14.948,-15.082,-15.265,-15.417,-15.425,-15.473,-15.482,-15.391,-15.36,-15.313,-15.317,-15.303,-15.295,-15.285,-15.292,-15.28,-15.287,-15.276,-15.278,-15.265,-15.263,-15.25,-15.233,-15.226,-15.221,-15.212,-15.213,-15.202,-15.198,-15.189,-15.186,-15.172,-15.166,-15.158,-15.152,-15.142,-15.13,-15.116,-15.104,-15.084,-15.059,-15.047,-15.033,-15.009,-14.987,-14.978,-14.96,-14.939,-14.917,-14.897,-14.882,-14.875,-14.861,-14.855,-14.849,-14.846,-14.851,-14.855,-14.864,-14.878,-14.902,-14.938,-14.978,-15.005,-15.042,-15.083,-15.115,-15.148,-15.17,-15.19,-15.217,-15.242,-15.257,-15.262,-15.275,-15.276,-15.28,-15.284,-15.296,-15.295,-15.292,-15.301,-15.297,-15.303,-15.301,-15.302,-15.3,-15.301,-15.294,-15.29,-15.291,-15.292,-15.288,-15.283,-15.286,-15.284,-15.282,-15.282,-15.28,-15.274,-15.264,-15.267,-15.265,-15.264,-15.252,-15.255,-15.256,-15.249,-15.246,-15.244,-15.234,-15.229,-15.225,-15.228,-15.224,-15.22,-15.216,-15.221,-15.22,-15.221,-15.213,-15.219,-15.218,-15.224,-15.218,-15.222,-15.217,-15.219,-15.224,-15.227,-15.215,-15.219,-15.218,-15.226,-15.23,-15.231,-15.229,-15.233,-15.234,-15.232,-15.233,-15.227,-15.235,-15.236,-15.235,-15.235,-15.236,-15.238,-15.243,-15.246,-15.24,-15.242,-15.247,-15.24,-15.253,-15.249,-15.247,-15.254,-15.255,-15.26,-15.26,-15.26,-15.26,-15.261,-15.264,-15.272,-15.268,-15.275,-15.276,-15.274,-15.277,-15.275,-15.277,-15.276,-15.277,-15.269,-15.26,-15.25,-15.246,-15.258,-15.251,-15.235,-15.222,-15.19,-15.195,-15.216,-15.215,-15.224,-15.236,-15.25,-15.255,-15.269,-15.286,-15.315,-15.331,-15.338,-15.341,-15.337,-15.344,-15.346,-15.357,-15.348,-15.355,-15.353,-15.353,-15.36,-15.361,-15.353,-15.366,-15.394,-15.444,-15.463,-15.45,-15.321,-15.083,-14.855,-14.605,-14.528,-14.82,-14.976,-15.102,-15.346,-15.423,-15.433,-15.515,-15.492,-15.421,-15.382,-15.355,-15.353,-15.351,-15.353,-15.351,-15.353,-15.344,-15.349,-15.344,-15.34,-15.33,-15.323,-15.314,-15.32,-15.308,-15.305,-15.3,-15.301,-15.301,-15.295,-15.292,-15.286,-15.276,-15.276,-15.271,-15.261,-15.249,-15.243,-15.228,-15.224,-15.205,-15.187,-15.174,-15.158,-15.142,-15.121,-15.109,-15.092,-15.078,-15.064,-15.048,-15.038,-15.033,-15.031,-15.019,-15.021,-15.019,-15.021,-15.035,-15.054,-15.075,-15.104,-15.143,-15.187,-15.22,-15.259,-15.298,-15.336,-15.365,-15.394,-15.418,-15.435,-15.447,-15.468,-15.484,-15.492,-15.501,-15.504,-15.516,-15.524,-15.531,-15.538,-15.542,-15.55,-15.557,-15.56,-15.563,-15.562,-15.57,-15.565,-15.568,-15.56,-15.558,-15.558,-15.567,-15.565,-15.561,-15.562,-15.566,-15.566,-15.566,-15.56,-15.558,-15.563,-15.568,-15.562,-15.56,-15.551,-15.557,-15.554,-15.549,-15.547,-15.544,-15.546,-15.541,-15.549,-15.545,-15.546,-15.545,-15.551,-15.55,-15.552,-15.548,-15.549,-15.554,-15.561,-15.56,-15.564,-15.561,-15.56,-15.569,-15.569,-15.566,-15.567,-15.569,-15.574,-15.583,-15.578,-15.582,-15.584,-15.59,-15.592,-15.588,-15.591,-15.598,-15.601,-15.605,-15.602,-15.605,-15.603,-15.611,-15.611,-15.608,-15.606,-15.609,-15.612,-15.616,-15.616,-15.613,-15.619,-15.626,-15.625,-15.628,-15.627,-15.624,-15.626,-15.629,-15.63,-15.624,-15.623,-15.626,-15.63,-15.631,-15.628,-15.626,-15.626,-15.631,-15.636,-15.636,-15.637,-15.634,-15.64,-15.642,-15.64,-15.646,-15.649,-15.65,-15.654,-15.653,-15.658,-15.658,-15.662,-15.66,-15.654,-15.653,-15.655,-15.659,-15.661,-15.651,-15.637,-15.628,-15.626,-15.619,-15.623,-15.619,-15.598,-15.592,-15.573,-15.556,-15.567,-15.576,-15.577,-15.59,-15.599,-15.607,-15.614,-15.615,-15.643,-15.675,-15.682,-15.68,-15.679,-15.689,-15.692,-15.688,-15.685,-15.688,-15.69,-15.688,-15.677,-15.682,-15.682,-15.685,-15.693,-15.716,-15.759,-15.768,-15.667,-15.46,-15.223,-14.972,-14.796,-15.059,-15.226,-15.322,-15.552,-15.731,-15.78,-15.801,-15.758,-15.697,-15.671,-15.628,-15.639,-15.612,-15.622,-15.613,-15.622,-15.608,-15.619,-15.602,-15.607,-15.593,-15.593,-15.584,-15.575,-15.56,-15.57,-15.558,-15.557,-15.547,-15.543,-15.533,-15.536,-15.526,-15.518,-15.503,-15.501,-15.486,-15.483,-15.462,-15.451,-15.436,-15.425,-15.409,-15.384,-15.368,-15.353,-15.334,-15.315,-15.311,-15.296,-15.269,-15.258,-15.245,-15.232,-15.223,-15.212,-15.213,-15.213,-15.218,-15.224,-15.241,-15.269,-15.298,-15.335,-15.375,-15.408,-15.456,-15.485,-15.502,-15.528,-15.56,-15.581,-15.613,-15.633,-15.649,-15.653,-15.667,-15.678,-15.687,-15.688,-15.695,-15.696,-15.703,-15.706,-15.71,-15.707,-15.708,-15.711,-15.717,-15.71,-15.704,-15.708,-15.706,-15.701,-15.702,-15.695,-15.699,-15.699,-15.7,-15.693,-15.696,-15.692,-15.693,-15.688,-15.69,-15.682,-15.681,-15.688,-15.686,-15.678,-15.671,-15.673,-15.679,-15.677,-15.675,-15.673,-15.677,-15.672,-15.683,-15.686,-15.687,-15.688,-15.687,-15.688,-15.694,-15.69,-15.684,-15.689,-15.698,-15.7,-15.696,-15.699,-15.697,-15.705,-15.707,-15.708,-15.709,-15.711,-15.718,-15.717,-15.722,-15.719,-15.711,-15.716,-15.719,-15.722,-15.724,-15.727,-15.718,-15.721,-15.721,-15.719,-15.719,-15.721,-15.722,-15.714,-15.713,-15.716,-15.713,-15.722,-15.72,-15.72,-15.715,-15.714,-15.721,-15.719,-15.716,-15.715,-15.72,-15.72,-15.719,-15.717,-15.712,-15.718,-15.72,-15.72,-15.721,-15.715,-15.721,-15.723,-15.721,-15.719,-15.712,-15.717,-15.723,-15.724,-15.719,-15.718,-15.719,-15.723,-15.719,-15.718,-15.721,-15.716,-15.721,-15.724,-15.722,-15.725,-15.723,-15.725,-15.727,-15.732,-15.724,-15.723,-15.727,-15.729,-15.731,-15.732,-15.724,-15.723,-15.721,-15.714,-15.706,-15.698,-15.688,-15.691,-15.693,-15.672,-15.658,-15.635,-15.624,-15.641,-15.637,-15.642,-15.659,-15.675,-15.679,-15.677,-15.691,-15.72,-15.742,-15.748,-15.75,-15.749,-15.748,-15.752,-15.758,-15.747,-15.745,-15.745,-15.756,-15.748,-15.745,-15.747,-15.749,-15.778,-15.797,-15.834,-15.835,-15.721,-15.495,-15.273,-15.018,-14.875,-15.179,-15.335,-15.439,-15.675,-15.818,-15.841,-15.869,-15.823,-15.747,-15.716,-15.679,-15.691,-15.679,-15.689,-15.681,-15.682,-15.676,-15.682,-15.673,-15.671,-15.653,-15.647,-15.635,-15.641,-15.63,-15.624,-15.616,-15.623,-15.609,-15.606,-15.595,-15.591,-15.586,-15.579,-15.571,-15.558,-15.545,-15.534,-15.524,-15.509,-15.486,-15.475,-15.455,-15.449,-15.428,-15.411,-15.39,-15.371,-15.347,-15.33,-15.315,-15.307,-15.29,-15.279,-15.271,-15.263,-15.265,-15.258,-15.26,-15.271,-15.291,-15.306,-15.335,-15.372,-15.412,-15.443,-15.476,-15.516,-15.547,-15.582,-15.609,-15.617,-15.635,-15.654,-15.676,-15.685,-15.691,-15.694,-15.709,-15.711,-15.714,-15.713,-15.718,-15.719,-15.728,-15.732,-15.732,-15.734,-15.728,-15.724,-15.724,-15.719,-15.713,-15.708,-15.702,-15.694,-15.692,-15.682,-15.679,-15.672,-15.671,-15.664,-15.657,-15.65,-15.655,-15.652,-15.643,-15.637,-15.637,-15.629,-15.628,-15.625,-15.62,-15.617,-15.616,-15.614,-15.615,-15.609,-15.606,-15.604,-15.604,-15.603,-15.599,-15.599,-15.596,-15.597,-15.599,-15.592,-15.596,-15.595,-15.595,-15.596,-15.597,-15.591,-15.598,-15.593,-15.592,-15.588,-15.592,-15.592,-15.593,-15.586,-15.59,-15.585,-15.584,-15.587,-15.588,-15.586,-15.582,-15.58,-15.576,-15.584,-15.577,-15.571,-15.575,-15.58,-15.566,-15.568,-15.564,-15.563,-15.562,-15.569,-15.56,-15.558,-15.555,-15.556,-15.554,-15.557,-15.553,-15.552,-15.553,-15.557,-15.553,-15.545,-15.548,-15.55,-15.553,-15.546,-15.545,-15.543,-15.541,-15.542,-15.538,-15.537,-15.537,-15.536,-15.534,-15.537,-15.534,-15.534,-15.533,-15.534,-15.53,-15.529,-15.527,-15.525,-15.531,-15.526,-15.52,-15.528,-15.522,-15.529,-15.518,-15.509,-15.506,-15.498,-15.487,-15.478,-15.487,-15.483,-15.462,-15.45,-15.434,-15.413,-15.41,-15.42,-15.416,-15.425,-15.433,-15.44,-15.448,-15.457,-15.49,-15.506,-15.506,-15.511,-15.514,-15.512,-15.508,-15.511,-15.508,-15.498,-15.505,-15.501,-15.502,-15.506,-15.51,-15.513,-15.515,-15.548,-15.577,-15.585,-15.47,-15.235,-14.999,-14.733,-14.63,-14.922,-15.096,-15.17,-15.304,-15.49,-15.512,-15.528,-15.602,-15.55,-15.507,-15.457,-15.443,-15.422,-15.416,-15.409,-15.417,-15.409,-15.414,-15.402,-15.394,-15.383,-15.385,-15.369,-15.359,-15.346,-15.354,-15.344,-15.34,-15.334,-15.326,-15.316,-15.311,-15.31,-15.306,-15.292,-15.279,-15.27,-15.263,-15.244,-15.236,-15.21,-15.202,-15.189,-15.17,-15.153,-15.138,-15.123,-15.106,-15.085,-15.07,-15.051,-15.038,-15.027,-15.016,-15.012,-15.008,-15.003,-15.005,-15.011,-15.016,-15.032,-15.04,-15.073,-15.104,-15.135,-15.167,-15.202,-15.239,-15.271,-15.295,-15.32,-15.342,-15.368,-15.381,-15.395,-15.408,-15.414,-15.423,-15.429,-15.431,-15.435,-15.438,-15.447,-15.452,-15.453,-15.453,-15.457,-15.457,-15.456,-15.454,-15.448,-15.45,-15.451,-15.45,-15.451,-15.452,-15.45,-15.452,-15.447,-15.447,-15.446,-15.441,-15.442,-15.441,-15.437,-15.432,-15.427,-15.425,-15.426,-15.429,-15.424,-15.419,-15.421,-15.419,-15.424,-15.425,-15.425,-15.419,-15.424,-15.423,-15.426,-15.421,-15.425,-15.425,-15.435,-15.433,-15.434,-15.435,-15.434,-15.439,-15.441,-15.439,-15.443,-15.443,-15.446,-15.448,-15.449,-15.45,-15.454,-15.457,-15.46,-15.461,-15.456,-15.466,-15.472,-15.468,-15.464,-15.462,-15.465,-15.469,-15.467,-15.469,-15.468,-15.472,-15.473,-15.473,-15.473,-15.471,-15.473,-15.479,-15.48,-15.48,-15.476,-15.478,-15.486,-15.482,-15.489,-15.485,-15.483,-15.487,-15.481,-15.472,-15.457,-15.451,-15.461,-15.46,-15.446,-15.442,-15.419,-15.405,-15.411,-15.418,-15.424,-15.426,-15.442,-15.457,-15.46,-15.467,-15.493,-15.525,-15.537,-15.543,-15.542,-15.542,-15.55,-15.554,-15.559,-15.556,-15.558,-15.562,-15.56,-15.567,-15.562,-15.565,-15.573,-15.61,-15.658,-15.664,-15.575,-15.375,-15.144,-14.882,-14.714,-14.909,-15.107,-15.233,-15.426,-15.613,-15.643,-15.658,-15.721,-15.655,-15.598,-15.548,-15.539,-15.535,-15.542,-15.535,-15.54,-15.533,-15.53,-15.525,-15.527,-15.514,-15.507,-15.501,-15.493,-15.49,-15.482,-15.477,-15.481,-15.476,-15.471,-15.467,-15.459,-15.452,-15.445,-15.44,-15.428,-15.421,-15.411,-15.403,-15.388,-15.369,-15.351,-15.337,-15.327,-15.317,-15.294,-15.281,-15.262,-15.243,-15.229,-15.214,-15.192,-15.186,-15.175,-15.171,-15.165,-15.156,-15.159,-15.175,-15.188,-15.2,-15.229,-15.255,-15.291,-15.343,-15.361,-15.388,-15.428,-15.465,-15.501,-15.529,-15.55,-15.566,-15.585,-15.603,-15.615,-15.623,-15.627,-15.64,-15.647,-15.649,-15.655,-15.658,-15.665,-15.674,-15.675,-15.677,-15.677,-15.678,-15.677,-15.678,-15.677,-15.67,-15.668,-15.675,-15.673,-15.671,-15.669,-15.673,-15.677,-15.676,-15.669,-15.669,-15.666,-15.666,-15.667,-15.666,-15.662,-15.66,-15.655,-15.655,-15.647,-15.642,-15.642,-15.641,-15.641,-15.646,-15.644,-15.643,-15.645,-15.648,-15.647,-15.647,-15.653,-15.654,-15.658,-15.662,-15.659,-15.665,-15.665,-15.673,-15.674,-15.669,-15.671,-15.666,-15.68,-15.684,-15.683,-15.682,-15.681,-15.688,-15.694,-15.692,-15.695,-15.693,-15.696,-15.704,-15.704,-15.702,-15.694,-15.701,-15.71,-15.708,-15.71,-15.705,-15.712,-15.716,-15.714,-15.712,-15.715,-15.718,-15.722,-15.718,-15.72,-15.722,-15.722,-15.721,-15.726,-15.721,-15.722,-15.721,-15.724,-15.726,-15.722,-15.72,-15.729,-15.729,-15.732,-15.728,-15.727,-15.729,-15.738,-15.733,-15.735,-15.735,-15.729,-15.732,-15.736,-15.741,-15.735,-15.733,-15.74,-15.741,-15.739,-15.738,-15.737,-15.734,-15.731,-15.723,-15.706,-15.707,-15.716,-15.705,-15.687,-15.679,-15.655,-15.644,-15.662,-15.665,-15.672,-15.679,-15.689,-15.697,-15.703,-15.722,-15.752,-15.76,-15.769,-15.779,-15.777,-15.775,-15.772,-15.78,-15.781,-15.776,-15.776,-15.774,-15.779,-15.782,-15.779,-15.781,-15.806,-15.849,-15.874,-15.798,-15.611,-15.377,-15.141,-14.925,-15.06,-15.297,-15.389,-15.559,-15.727,-15.861,-15.882,-15.905,-15.84,-15.788,-15.75,-15.731,-15.726,-15.721,-15.725,-15.724,-15.729,-15.713,-15.719,-15.71,-15.708,-15.693,-15.686,-15.686,-15.681,-15.676,-15.675,-15.664,-15.666,-15.663,-15.655,-15.65,-15.642,-15.636,-15.628,-15.619,-15.606,-15.598,-15.587,-15.575,-15.564,-15.545,-15.528,-15.52,-15.509,-15.502,-15.484,-15.453,-15.44,-15.424,-15.412,-15.395,-15.377,-15.363,-15.357,-15.348,-15.343,-15.34,-15.332,-15.344,-15.358,-15.377,-15.401,-15.431,-15.448,-15.487,-15.529,-15.558,-15.589,-15.622,-15.649,-15.679,-15.695,-15.719,-15.733,-15.746,-15.763,-15.764,-15.768,-15.769,-15.783,-15.787,-15.789,-15.788,-15.792,-15.799,-15.806,-15.806,-15.806,-15.805,-15.802,-15.798,-15.798,-15.791,-15.795,-15.787,-15.795,-15.79,-15.783,-15.782,-15.782,-15.781,-15.778,-15.778,-15.764,-15.77,-15.773,-15.77,-15.766,-15.756,-15.759,-15.758,-15.753,-15.75,-15.746,-15.751,-15.754,-15.759,-15.757,-15.753,-15.754,-15.763,-15.761,-15.76,-15.758,-15.761,-15.77,-15.769,-15.767,-15.772,-15.767,-15.775,-15.777,-15.78,-15.772,-15.776,-15.782,-15.788,-15.787,-15.79,-15.788,-15.788,-15.791,-15.795,-15.793,-15.793,-15.798,-15.8,-15.801,-15.796,-15.8,-15.8,-15.804,-15.804,-15.803,-15.804,-15.801,-15.811,-15.809,-15.806,-15.803,-15.804,-15.806,-15.803,-15.803,-15.798,-15.802,-15.795,-15.802,-15.799,-15.8,-15.799,-15.8,-15.802,-15.804,-15.8,-15.804,-15.805,-15.81,-15.808,-15.803,-15.805,-15.806,-15.805,-15.807,-15.813,-15.808,-15.809,-15.813,-15.813,-15.815,-15.807,-15.816,-15.816,-15.814,-15.813,-15.808,-15.806,-15.819,-15.815,-15.815,-15.814,-15.815,-15.816,-15.816,-15.815,-15.815,-15.82,-15.818,-15.822,-15.816,-15.812,-15.812,-15.813,-15.803,-15.795,-15.78,-15.783,-15.78,-15.767,-15.742,-15.718,-15.71,-15.724,-15.736,-15.734,-15.743,-15.751,-15.753,-15.764,-15.781,-15.815,-15.826,-15.836,-15.843,-15.84,-15.837,-15.834,-15.839,-15.846,-15.85,-15.846,-15.847,-15.852,-15.85,-15.848,-15.849,-15.862,-15.907,-15.942,-15.912,-15.774,-15.533,-15.301,-15.06,-15.029,-15.353,-15.477,-15.57,-15.848,-15.943,-15.954,-15.98,-15.941,-15.878,-15.836,-15.813,-15.804,-15.8,-15.801,-15.804,-15.796,-15.793,-15.791,-15.785,-15.78,-15.774,-15.76,-15.748,-15.741,-15.748,-15.743,-15.736,-15.731,-15.725,-15.722,-15.719,-15.711,-15.695,-15.683,-15.686,-15.68,-15.661,-15.65,-15.637,-15.627,-15.612,-15.593,-15.577,-15.554,-15.545,-15.535,-15.514,-15.491,-15.476,-15.458,-15.436,-15.427,-15.409,-15.402,-15.397,-15.394,-15.385,-15.386,-15.389,-15.398,-15.417,-15.442,-15.462,-15.497,-15.534,-15.557,-15.592,-15.622,-15.654,-15.69,-15.714,-15.744,-15.755,-15.775,-15.791,-15.806,-15.813,-15.822,-15.825,-15.831,-15.838,-15.841,-15.844,-15.843,-15.851,-15.857,-15.853,-15.853,-15.852,-15.847,-15.843,-15.841,-15.839,-15.837,-15.834,-15.833,-15.834,-15.824,-15.82,-15.821,-15.822,-15.819,-15.817,-15.81,-15.807,-15.81,-15.808,-15.806,-15.796,-15.793,-15.794,-15.789,-15.787,-15.783,-15.781,-15.784,-15.783,-15.786,-15.782,-15.781,-15.778,-15.785,-15.782,-15.78,-15.779,-15.781,-15.786,-15.788,-15.783,-15.785,-15.785,-15.786,-15.79,-15.78,-15.785,-15.785,-15.789,-15.787,-15.785,-15.786,-15.784,-15.783,-15.785,-15.78,-15.779,-15.785,-15.782,-15.783,-15.785,-15.781,-15.782,-15.782,-15.787,-15.782,-15.783,-15.783,-15.783,-15.785,-15.784,-15.782,-15.782,-15.777,-15.779,-15.775,-15.772,-15.767,-15.766,-15.768,-15.761,-15.76,-15.757,-15.75,-15.754,-15.752,-15.746,-15.745,-15.744,-15.748,-15.741,-15.73,-15.728,-15.729,-15.734,-15.732,-15.727,-15.726,-15.724,-15.721,-15.726,-15.717,-15.718,-15.72,-15.708,-15.712,-15.709,-15.706,-15.703,-15.699,-15.697,-15.699,-15.699,-15.7,-15.691,-15.69,-15.696,-15.69,-15.688,-15.684,-15.687,-15.69,-15.686,-15.684,-15.681,-15.678,-15.664,-15.656,-15.639,-15.641,-15.637,-15.62,-15.6,-15.572,-15.565,-15.574,-15.581,-15.577,-15.577,-15.582,-15.588,-15.596,-15.603,-15.627,-15.644,-15.655,-15.655,-15.652,-15.647,-15.641,-15.644,-15.641,-15.641,-15.639,-15.635,-15.632,-15.638,-15.634,-15.633,-15.635,-15.674,-15.717,-15.695,-15.565,-15.322,-15.096,-14.834,-14.772,-15.1,-15.238,-15.34,-15.585,-15.664,-15.671,-15.722,-15.707,-15.639,-15.602,-15.56,-15.54,-15.526,-15.53,-15.527,-15.523,-15.514,-15.508,-15.5,-15.495,-15.487,-15.474,-15.467,-15.462,-15.45,-15.439,-15.44,-15.434,-15.424,-15.422,-15.414,-15.405,-15.397,-15.388,-15.382,-15.369,-15.358,-15.345,-15.332,-15.324,-15.3,-15.284,-15.266,-15.252,-15.236,-15.219,-15.206,-15.185,-15.165,-15.149,-15.13,-15.116,-15.099,-15.089,-15.082,-15.077,-15.067,-15.058,-15.067,-15.081,-15.093,-15.112,-15.138,-15.174,-15.203,-15.233,-15.245,-15.28,-15.312,-15.338,-15.366,-15.391,-15.413,-15.423,-15.437,-15.444,-15.456,-15.465,-15.465,-15.469,-15.479,-15.472,-15.48,-15.485,-15.479,-15.479,-15.483,-15.483,-15.47,-15.473,-15.47,-15.466,-15.469,-15.455,-15.456,-15.457,-15.445,-15.445,-15.443,-15.439,-15.442,-15.438,-15.433,-15.435,-15.437,-15.434,-15.437,-15.428,-15.422,-15.417,-15.42,-15.418,-15.411,-15.409,-15.413,-15.414,-15.409,-15.402,-15.404,-15.406,-15.408,-15.406,-15.404,-15.398,-15.398,-15.393,-15.401,-15.396,-15.391,-15.394,-15.389,-15.397,-15.392,-15.383,-15.387,-15.386,-15.39,-15.393,-15.387,-15.384,-15.391,-15.391,-15.386,-15.386,-15.382,-15.381,-15.384,-15.387,-15.383,-15.38,-15.378,-15.386,-15.378,-15.379,-15.378,-15.382,-15.383,-15.382,-15.378,-15.375,-15.378,-15.381,-15.386,-15.386,-15.382,-15.381,-15.382,-15.391,-15.384,-15.382,-15.389,-15.391,-15.4,-15.393,-15.393,-15.395,-15.4,-15.396,-15.392,-15.383,-15.375,-15.367,-15.363,-15.371,-15.364,-15.353,-15.344,-15.33,-15.308,-15.315,-15.326,-15.324,-15.331,-15.349,-15.361,-15.367,-15.384,-15.414,-15.435,-15.442,-15.442,-15.447,-15.448,-15.45,-15.45,-15.453,-15.454,-15.457,-15.457,-15.461,-15.459,-15.461,-15.47,-15.481,-15.519,-15.559,-15.557,-15.442,-15.21,-14.975,-14.719,-14.624,-14.901,-15.085,-15.164,-15.295,-15.485,-15.485,-15.535,-15.609,-15.544,-15.505,-15.45,-15.449,-15.439,-15.442,-15.433,-15.444,-15.437,-15.438,-15.423,-15.418,-15.406,-15.411,-15.401,-15.392,-15.377,-15.383,-15.377,-15.375,-15.366,-15.366,-15.355,-15.356,-15.351,-15.348,-15.339,-15.331,-15.322,-15.312,-15.301,-15.282,-15.27,-15.256,-15.248,-15.234,-15.219,-15.198,-15.182,-15.173,-15.155,-15.14,-15.124,-15.114,-15.109,-15.1,-15.093,-15.089,-15.086,-15.093,-15.101,-15.115,-15.135,-15.148,-15.172,-15.206,-15.251,-15.286,-15.326,-15.356,-15.392,-15.423,-15.451,-15.477,-15.498,-15.511,-15.53,-15.532,-15.545,-15.565,-15.565,-15.571,-15.578,-15.58,-15.581,-15.592,-15.597,-15.594,-15.599,-15.6,-15.613,-15.613,-15.603,-15.601,-15.611,-15.607,-15.608,-15.611,-15.607,-15.612,-15.618,-15.616,-15.617,-15.609,-15.607,-15.611,-15.613,-15.606,-15.608,-15.601,-15.603,-15.603,-15.602,-15.597,-15.592,-15.591,-15.593,-15.592,-15.587,-15.59,-15.597,-15.601,-15.603,-15.602,-15.601,-15.604,-15.609,-15.611,-15.613,-15.621,-15.622,-15.622,-15.625,-15.627,-15.631,-15.635,-15.638,-15.64,-15.642,-15.644,-15.647,-15.648,-15.653,-15.647,-15.647,-15.655,-15.661,-15.662,-15.663,-15.661,-15.664,-15.66,-15.665,-15.667,-15.667,-15.669,-15.674,-15.669,-15.674,-15.677,-15.677,-15.68,-15.683,-15.685,-15.684,-15.684,-15.686,-15.687,-15.69,-15.689,-15.688,-15.688,-15.692,-15.693,-15.692,-15.7,-15.692,-15.7,-15.693,-15.692,-15.699,-15.706,-15.706,-15.711,-15.705,-15.707,-15.71,-15.71,-15.716,-15.715,-15.714,-15.706,-15.704,-15.7,-15.692,-15.679,-15.686,-15.694,-15.672,-15.661,-15.642,-15.616,-15.615,-15.63,-15.631,-15.634,-15.644,-15.658,-15.665,-15.665,-15.687,-15.718,-15.73,-15.739,-15.739,-15.737,-15.737,-15.738,-15.742,-15.741,-15.74,-15.748,-15.747,-15.743,-15.749,-15.745,-15.754,-15.787,-15.835,-15.841,-15.743,-15.532,-15.303,-15.05,-14.882,-15.141,-15.301,-15.397,-15.624,-15.812,-15.845,-15.859,-15.872,-15.785,-15.747,-15.707,-15.699,-15.689,-15.701,-15.694,-15.697,-15.685,-15.686,-15.681,-15.683,-15.675,-15.661,-15.658,-15.649,-15.644,-15.642,-15.633,-15.631,-15.628,-15.622,-15.619,-15.608,-15.597,-15.596,-15.59,-15.585,-15.568,-15.559,-15.541,-15.535,-15.521,-15.506,-15.487,-15.472,-15.46,-15.442,-15.433,-15.412,-15.394,-15.381,-15.363,-15.347,-15.335,-15.321,-15.312,-15.305,-15.297,-15.29,-15.296,-15.306,-15.324,-15.341,-15.374,-15.399,-15.437,-15.481,-15.5,-15.533,-15.564,-15.6,-15.634,-15.654,-15.673,-15.69,-15.707,-15.725,-15.736,-15.74,-15.742,-15.751,-15.755,-15.758,-15.764,-15.764,-15.768,-15.767,-15.778,-15.776,-15.771,-15.772,-15.768,-15.768,-15.759,-15.755,-15.753,-15.756,-15.758,-15.751,-15.754,-15.745,-15.751,-15.745,-15.747,-15.743,-15.741,-15.741,-15.743,-15.735,-15.736,-15.729,-15.729,-15.731,-15.727,-15.728,-15.732,-15.728,-15.731,-15.73,-15.726,-15.732,-15.733,-15.742,-15.734,-15.733,-15.734,-15.737,-15.743,-15.743,-15.741,-15.746,-15.742,-15.742,-15.751,-15.75,-15.74,-15.746,-15.751,-15.761,-15.75,-15.749,-15.753,-15.758,-15.76,-15.758,-15.756,-15.755,-15.761,-15.756,-15.762,-15.762,-15.76,-15.763,-15.766,-15.769,-15.763,-15.764,-15.773,-15.773,-15.772,-15.762,-15.766,-15.771,-15.765,-15.767,-15.764,-15.764,-15.764,-15.769,-15.772,-15.763,-15.761,-15.765,-15.773,-15.77,-15.766,-15.766,-15.764,-15.775,-15.774,-15.77,-15.765,-15.772,-15.776,-15.774,-15.772,-15.767,-15.768,-15.778,-15.774,-15.774,-15.768,-15.775,-15.773,-15.774,-15.776,-15.767,-15.769,-15.775,-15.776,-15.774,-15.77,-15.767,-15.754,-15.756,-15.75,-15.734,-15.738,-15.721,-15.715,-15.693,-15.668,-15.683,-15.692,-15.687,-15.701,-15.708,-15.717,-15.723,-15.737,-15.774,-15.782,-15.786,-15.795,-15.799,-15.8,-15.798,-15.792,-15.79,-15.791,-15.8,-15.798,-15.786,-15.794,-15.799,-15.806,-15.818,-15.852,-15.892,-15.846,-15.696,-15.45,-15.216,-14.972,-14.978,-15.188,-15.369,-15.49,-15.668,-15.856,-15.877,-15.924,-15.875,-15.81,-15.757,-15.741,-15.736,-15.728,-15.721,-15.726,-15.726,-15.719,-15.716,-15.712,-15.708,-15.698,-15.692,-15.685,-15.676,-15.665,-15.665,-15.657,-15.65,-15.642,-15.637,-15.628,-15.624,-15.616,-15.607,-15.596,-15.587,-15.578,-15.567,-15.551,-15.539,-15.538,-15.516,-15.502,-15.48,-15.461,-15.446,-15.429,-15.408,-15.386,-15.37,-15.347,-15.335,-15.326,-15.309,-15.301,-15.293,-15.289,-15.292,-15.296,-15.299,-15.308,-15.339,-15.367,-15.394,-15.427,-15.462,-15.503,-15.538,-15.567,-15.595,-15.625,-15.651,-15.673,-15.687,-15.699,-15.711,-15.729,-15.731,-15.728,-15.728,-15.734,-15.742,-15.75,-15.759,-15.758,-15.761,-15.765,-15.769,-15.758,-15.759,-15.753,-15.751,-15.746,-15.751,-15.746,-15.742,-15.746,-15.746,-15.746,-15.745,-15.736,-15.734,-15.738,-15.734,-15.729,-15.728,-15.729,-15.727,-15.725,-15.719,-15.717,-15.715,-15.719,-15.717,-15.709,-15.715,-15.715,-15.719,-15.719,-15.716,-15.71,-15.709,-15.71,-15.72,-15.716,-15.717,-15.716,-15.718,-15.723,-15.719,-15.718,-15.717,-15.721,-15.724,-15.717,-15.716,-15.717,-15.721,-15.725,-15.725,-15.723,-15.722,-15.723,-15.724,-15.723,-15.719,-15.718,-15.717,-15.716,-15.718,-15.712,-15.713,-15.719,-15.717,-15.718,-15.708,-15.71,-15.713,-15.715,-15.711,-15.715,-15.707,-15.711,-15.705,-15.709,-15.709,-15.706,-15.702,-15.701,-15.698,-15.693,-15.693,-15.688,-15.69,-15.693,-15.687,-15.68,-15.68,-15.681,-15.678,-15.677,-15.673,-15.669,-15.668,-15.673,-15.663,-15.665,-15.66,-15.659,-15.656,-15.655,-15.655,-15.654,-15.654,-15.658,-15.655,-15.652,-15.645,-15.649,-15.652,-15.652,-15.645,-15.642,-15.642,-15.639,-15.642,-15.631,-15.632,-15.626,-15.625,-15.62,-15.608,-15.593,-15.586,-15.585,-15.578,-15.555,-15.547,-15.519,-15.497,-15.518,-15.515,-15.509,-15.524,-15.531,-15.532,-15.532,-15.557,-15.586,-15.593,-15.591,-15.591,-15.589,-15.588,-15.583,-15.585,-15.579,-15.58,-15.573,-15.575,-15.574,-15.576,-15.571,-15.575,-15.596,-15.634,-15.663,-15.601,-15.419,-15.179,-14.944,-14.72,-14.844,-15.109,-15.225,-15.367,-15.587,-15.631,-15.621,-15.674,-15.624,-15.569,-15.515,-15.497,-15.486,-15.479,-15.479,-15.476,-15.469,-15.468,-15.456,-15.458,-15.445,-15.431,-15.417,-15.418,-15.412,-15.411,-15.404,-15.395,-15.383,-15.39,-15.375,-15.369,-15.366,-15.352,-15.351,-15.34,-15.323,-15.313,-15.302,-15.287,-15.281,-15.263,-15.243,-15.227,-15.222,-15.197,-15.179,-15.152,-15.138,-15.121,-15.11,-15.09,-15.068,-15.065,-15.053,-15.045,-15.037,-15.033,-15.031,-15.034,-15.047,-15.07,-15.087,-15.127,-15.143,-15.173,-15.206,-15.232,-15.271,-15.301,-15.332,-15.353,-15.376,-15.39,-15.409,-15.43,-15.439,-15.44,-15.449,-15.453,-15.462,-15.463,-15.456,-15.465,-15.467,-15.469,-15.479,-15.475,-15.474,-15.478,-15.478,-15.464,-15.467,-15.463,-15.468,-15.463,-15.463,-15.455,-15.461,-15.455,-15.459,-15.457,-15.454,-15.444,-15.442,-15.439,-15.445,-15.441,-15.432,-15.434,-15.433,-15.429,-15.436,-15.42,-15.422,-15.417,-15.419,-15.42,-15.42,-15.416,-15.422,-15.422,-15.421,-15.423,-15.42,-15.424,-15.427,-15.425,-15.422,-15.424,-15.423,-15.428,-15.425,-15.43,-15.416,-15.427,-15.427,-15.431,-15.429,-15.429,-15.433,-15.432,-15.425,-15.43,-15.432,-15.429,-15.431,-15.431,-15.434,-15.43,-15.425,-15.431,-15.431,-15.43,-15.422,-15.422,-15.42,-15.422,-15.425,-15.421,-15.416,-15.415,-15.411,-15.418,-15.417,-15.416,-15.411,-15.419,-15.416,-15.413,-15.409,-15.411,-15.407,-15.406,-15.411,-15.411,-15.408,-15.412,-15.411,-15.408,-15.404,-15.402,-15.397,-15.394,-15.385,-15.38,-15.382,-15.39,-15.369,-15.357,-15.335,-15.314,-15.332,-15.339,-15.336,-15.346,-15.359,-15.37,-15.386,-15.4,-15.43,-15.442,-15.447,-15.454,-15.451,-15.452,-15.45,-15.454,-15.455,-15.458,-15.456,-15.46,-15.457,-15.464,-15.46,-15.464,-15.478,-15.524,-15.565,-15.534,-15.391,-15.136,-15.016,-14.764,-14.618,-14.827,-15.038,-15.201,-15.374,-15.501,-15.471,-15.543,-15.588,-15.536,-15.494,-15.446,-15.436,-15.429,-15.433,-15.43,-15.423,-15.42,-15.419,-15.417,-15.412,-15.403,-15.397,-15.387,-15.388,-15.385,-15.377,-15.37,-15.369,-15.365,-15.362,-15.359,-15.356,-15.346,-15.342,-15.339,-15.333,-15.317,-15.316,-15.305,-15.295,-15.284,-15.267,-15.249,-15.228,-15.22,-15.203,-15.184,-15.164,-15.151,-15.145,-15.127,-15.112,-15.098,-15.096,-15.088,-15.088,-15.083,-15.081,-15.087,-15.1,-15.121,-15.144,-15.181,-15.213,-15.249,-15.285,-15.325,-15.355,-15.385,-15.414,-15.446,-15.469,-15.486,-15.503,-15.517,-15.528,-15.537,-15.539,-15.549,-15.556,-15.567,-15.575,-15.577,-15.58,-15.587,-15.593,-15.599,-15.597,-15.595,-15.596,-15.596,-15.601,-15.594,-15.595,-15.596,-15.606,-15.604,-15.608,-15.605,-15.605,-15.605,-15.609,-15.6,-15.597,-15.595,-15.595,-15.598,-15.595,-15.585,-15.59,-15.586,-15.59,-15.587,-15.585,-15.579,-15.586,-15.589,-15.592,-15.59,-15.587,-15.592,-15.598,-15.602,-15.599,-15.607,-15.609,-15.613,-15.613,-15.614,-15.616,-15.621,-15.625,-15.63,-15.629,-15.627,-15.632,-15.636,-15.635,-15.643,-15.643,-15.65,-15.649,-15.653,-15.651,-15.651,-15.654,-15.66,-15.66,-15.66,-15.651,-15.651,-15.664,-15.663,-15.662,-15.669,-15.667,-15.662,-15.668,-15.67,-15.67,-15.668,-15.67,-15.676,-15.677,-15.671,-15.678,-15.681,-15.685,-15.684,-15.679,-15.679,-15.68,-15.69,-15.685,-15.688,-15.684,-15.687,-15.693,-15.695,-15.689,-15.69,-15.691,-15.697,-15.702,-15.698,-15.697,-15.705,-15.702,-15.698,-15.704,-15.703,-15.705,-15.698,-15.695,-15.689,-15.683,-15.672,-15.682,-15.68,-15.66,-15.645,-15.624,-15.622,-15.634,-15.638,-15.639,-15.654,-15.662,-15.669,-15.676,-15.699,-15.726,-15.746,-15.75,-15.754,-15.751,-15.75,-15.752,-15.762,-15.76,-15.761,-15.753,-15.754,-15.754,-15.757,-15.755,-15.765,-15.799,-15.846,-15.837,-15.728,-15.505,-15.281,-15.032,-14.917,-14.973,-15.245,-15.363,-15.483,-15.779,-15.849,-15.879,-15.861,-15.8,-15.753,-15.718,-15.711,-15.708,-15.706,-15.715,-15.705,-15.704,-15.7,-15.701,-15.694,-15.692,-15.678,-15.67,-15.659,-15.659,-15.651,-15.643,-15.633,-15.634,-15.633,-15.628,-15.614,-15.612,-15.601,-15.6,-15.587,-15.579,-15.568,-15.563,-15.563,-15.553,-15.535,-15.505,-15.49,-15.478,-15.459,-15.446,-15.429,-15.409,-15.391,-15.378,-15.364,-15.346,-15.331,-15.319,-15.322,-15.313,-15.306,-15.31,-15.312,-15.327,-15.352,-15.37,-15.402,-15.441,-15.475,-15.513,-15.54,-15.582,-15.612,-15.646,-15.672,-15.683,-15.708,-15.73,-15.738,-15.747,-15.751,-15.759,-15.764,-15.771,-15.779,-15.78,-15.778,-15.785,-15.792,-15.794,-15.797,-15.796,-15.793,-15.794,-15.79,-15.78,-15.775,-15.771,-15.781,-15.772,-15.77,-15.774,-15.766,-15.769,-15.762,-15.764,-15.758,-15.751,-15.752,-15.754,-15.749,-15.744,-15.747,-15.739,-15.739,-15.734,-15.732,-15.735,-15.731,-15.737,-15.739,-15.737,-15.74,-15.741,-15.74,-15.74,-15.741,-15.736,-15.739,-15.745,-15.745,-15.735,-15.739,-15.737,-15.745,-15.745,-15.74,-15.735,-15.743,-15.741,-15.744,-15.741,-15.738,-15.741,-15.739,-15.747,-15.744,-15.738,-15.741,-15.739,-15.741,-15.743,-15.745,-15.733,-15.742,-15.74,-15.742,-15.744,-15.74,-15.744,-15.745,-15.743,-15.738,-15.732,-15.738,-15.741,-15.739,-15.737,-15.734,-15.738,-15.74,-15.741,-15.735,-15.733,-15.74,-15.743,-15.741,-15.745,-15.737,-15.737,-15.741,-15.742,-15.738,-15.736,-15.739,-15.738,-15.746,-15.736,-15.73,-15.732,-15.735,-15.738,-15.734,-15.735,-15.73,-15.733,-15.729,-15.733,-15.73,-15.731,-15.73,-15.734,-15.732,-15.727,-15.727,-15.729,-15.734,-15.724,-15.724,-15.721,-15.712,-15.713,-15.695,-15.692,-15.682,-15.672,-15.651,-15.622,-15.63,-15.634,-15.637,-15.651,-15.656,-15.666,-15.664,-15.671,-15.698,-15.735,-15.746,-15.743,-15.745,-15.749,-15.75,-15.755,-15.756,-15.754,-15.751,-15.755,-15.752,-15.746,-15.746,-15.742,-15.759,-15.78,-15.819,-15.846,-15.782,-15.605,-15.362,-15.121,-14.894,-15.011,-15.29,-15.397,-15.538,-15.778,-15.836,-15.868,-15.868,-15.81,-15.769,-15.713,-15.711,-15.69,-15.7,-15.687,-15.689,-15.686,-15.698,-15.683,-15.686,-15.671,-15.669,-15.655,-15.645,-15.636,-15.637,-15.628,-15.63,-15.621,-15.617,-15.611,-15.609,-15.6,-15.599,-15.581,-15.575,-15.558,-15.556,-15.543,-15.524,-15.512,-15.501,-15.482,-15.468,-15.449,-15.429,-15.404,-15.397,-15.386,-15.36,-15.339,-15.325,-15.318,-15.307,-15.287,-15.281,-15.275,-15.271,-15.277,-15.281,-15.285,-15.303,-15.336,-15.368,-15.403,-15.43,-15.472,-15.51,-15.529,-15.564,-15.593,-15.613,-15.646,-15.667,-15.686,-15.689,-15.71,-15.719,-15.733,-15.734,-15.731,-15.735,-15.747,-15.747,-15.757,-15.756,-15.759,-15.76,-15.76,-15.752,-15.751,-15.746,-15.746,-15.747,-15.743,-15.74,-15.74,-15.731,-15.737,-15.729,-15.727,-15.719,-15.719,-15.716,-15.717,-15.712,-15.716,-15.709,-15.707,-15.706,-15.706,-15.694,-15.697,-15.698,-15.698,-15.69,-15.691,-15.69,-15.697,-15.696,-15.693,-15.688,-15.694,-15.692,-15.694,-15.695,-15.693,-15.69,-15.692,-15.697,-15.698,-15.692,-15.695,-15.698,-15.705,-15.702,-15.699,-15.697,-15.7,-15.707,-15.705,-15.7,-15.702,-15.704,-15.701,-15.706,-15.702,-15.699,-15.703,-15.705,-15.702,-15.706,-15.699,-15.7,-15.704,-15.706,-15.704,-15.702,-15.701,-15.706,-15.705
