-0.65165,-0.64549,-0.65426,-0.66326,-0.66651,-0.66529,-0.66545,-0.66708,-0.66828,-0.67012,-0.67248,-0.66333,-0.66775,-0.67005,-0.67702,-0.67466,-0.67477,-0.68107,-0.68274,-0.68858,-0.68463,-0.67857,-0.67587,-0.67568,-0.68012,-0.68138,-0.68001,-0.67968,-0.68086,-0.69148,-0.68865,-0.6819,-0.67807,-0.68091,-0.68522,-0.68468,-0.6839,-0.68266,-0.6872,-0.69512,-0.68919,-0.68533,-0.68184,-0.68823,-0.69324,-0.69144,-0.68861,-0.68231,-0.67872,-0.68108,-0.68645,-0.68906,-0.68201,-0.68333,-0.68297,-0.68613,-0.68931,-0.68542,-0.68739,-0.68698,-0.69168,-0.68626,-0.67896,-0.68034,-0.68024,-0.68994,-0.68882,-0.68508,-0.67716,-0.66999,-0.66095,-0.65584,-0.63981,-0.62332,-0.61597,-0.61092,-0.59765,-0.58806,-0.58348,-0.5788,-0.58816,-0.58512,-0.57486,-0.583,-0.59199,-0.60364,-0.61754,-0.63601,-0.64521,-0.6617,-0.67693,-0.68617,-0.68814,-0.69074,-0.69488,-0.70163,-0.70954,-0.70035,-0.69745,-0.7028,-0.70384,-0.71543,-0.72103,-0.72181,-0.72034,-0.63829,-0.57136,-0.38771,-0.081464,0.19243,0.41602,0.49703,0.46109,0.40502,0.15979,-0.27679,-0.78995,-0.93296,-0.88846,-0.82957,-0.7841,-0.77707,-0.74148,-0.75088,-0.72876,-0.7483,-0.74213,-0.75139,-0.73975,-0.73931,-0.73102,-0.74801,-0.73932,-0.74855,-0.72875,-0.73597,-0.73377,-0.73258,-0.72926,-0.7249,-0.72437,-0.73767,-0.73482,-0.7438,-0.73039,-0.73737,-0.73479,-0.74757,-0.74311,-0.7389,-0.73869,-0.74016,-0.73832,-0.74216,-0.73247,-0.7329,-0.73835,-0.74552,-0.74701,-0.74198,-0.74192,-0.74772,-0.75618,-0.75611,-0.74786,-0.74883,-0.74821,-0.75851,-0.7584,-0.76009,-0.75775,-0.76165,-0.7784,-0.76842,-0.77017,-0.76575,-0.76656,-0.77358,-0.7714,-0.76653,-0.7622,-0.75945,-0.76949,-0.7563,-0.76237,-0.75292,-0.76018,-0.76106,-0.76514,-0.75513,-0.74833,-0.73161,-0.73411,-0.73409,-0.727,-0.71206,-0.70131,-0.68967,-0.69151,-0.66838,-0.66281,-0.65219,-0.65243,-0.65454,-0.65497,-0.65161,-0.64687,-0.64306,-0.65009,-0.64833,-0.6438,-0.63535,-0.64316,-0.64598,-0.64785,-0.63832,-0.63322,-0.62144,-0.63,-0.62251,-0.61362,-0.60358,-0.60035,-0.60398,-0.60082,-0.59408,-0.5863,-0.57668,-0.57529,-0.58062,-0.58127,-0.57196,-0.57505,-0.57136,-0.57827,-0.57218,-0.57079,-0.56933,-0.57099,-0.57381,-0.5726,-0.57039,-0.57633,-0.58263,-0.59449,-0.59154,-0.59266,-0.59485,-0.60109,-0.61099,-0.61333,-0.61133,-0.61241,-0.61498,-0.62235,-0.62513,-0.62445,-0.62641,-0.62458,-0.63433,-0.64027,-0.63523,-0.63524,-0.63911,-0.64478,-0.64876,-0.64634,-0.64431,-0.64275,-0.65002,-0.65332,-0.65248,-0.64288,-0.64968,-0.64922,-0.65875,-0.65284,-0.65032,-0.65138,-0.65669,-0.66133,-0.66286,-0.64852,-0.64371,-0.63411,-0.63366,-0.61456,-0.60154,-0.60062,-0.58863,-0.58752,-0.57111,-0.54676,-0.55002,-0.5626,-0.56266,-0.55595,-0.54399,-0.54264,-0.55304,-0.57053,-0.58496,-0.59103,-0.62236,-0.64629,-0.66669,-0.67104,-0.66802,-0.66272,-0.67238,-0.67999,-0.68451,-0.68819,-0.68339,-0.68441,-0.69342,-0.69622,-0.69649,-0.68785,-0.69639,-0.71611,-0.72535,-0.67227,-0.54222,-0.3242,-0.041687,0.23745,0.44654,0.52569,0.49473,0.43563,0.21544,-0.14783,-0.71548,-0.94129,-0.94403,-0.89421,-0.81165,-0.77948,-0.74297,-0.74976,-0.74256,-0.74724,-0.73027,-0.73865,-0.73359,-0.74386,-0.73279,-0.73296,-0.72283,-0.72875,-0.72749,-0.73241,-0.72663,-0.72844,-0.7224,-0.73507,-0.72558,-0.73004,-0.7229,-0.72615,-0.72875,-0.73202,-0.72706,-0.7278,-0.72604,-0.73564,-0.73018,-0.7295,-0.72288,-0.72581,-0.72751,-0.73695,-0.73344,-0.73267,-0.731,-0.73592,-0.74107,-0.7404,-0.73659,-0.7399,-0.74169,-0.75091,-0.74932,-0.74798,-0.75149,-0.75348,-0.76029,-0.75587,-0.7545,-0.75405,-0.75717,-0.76465,-0.76152,-0.75798,-0.75527,-0.7497,-0.75914,-0.75635,-0.75295,-0.74857,-0.74832,-0.75403,-0.75543,-0.74612,-0.74378,-0.7358,-0.73492,-0.72978,-0.71978,-0.70995,-0.71066,-0.70311,-0.70073,-0.6852,-0.67259,-0.66673,-0.66148,-0.66314,-0.66038,-0.65031,-0.65115,-0.65601,-0.66498,-0.66428,-0.65764,-0.65773,-0.66241,-0.66145,-0.66316,-0.65598,-0.65549,-0.65101,-0.65649,-0.65228,-0.64695,-0.64007,-0.63513,-0.63576,-0.63393,-0.62229,-0.61748,-0.61469,-0.61171,-0.61004,-0.60592,-0.59462,-0.5937,-0.59632,-0.59379,-0.59341,-0.58446,-0.58607,-0.58924,-0.59043,-0.59399,-0.58515,-0.59331,-0.59773,-0.60398,-0.60414,-0.59969,-0.6093,-0.61344,-0.62302,-0.62878,-0.61854,-0.6277,-0.63359,-0.64025,-0.64412,-0.64131,-0.64139,-0.64691,-0.65675,-0.65796,-0.65611,-0.65546,-0.66025,-0.66664,-0.6676,-0.66349,-0.66238,-0.66782,-0.67618,-0.67629,-0.67283,-0.66934,-0.67389,-0.68211,-0.68364,-0.68198,-0.67513,-0.67742,-0.68407,-0.68313,-0.6837,-0.67732,-0.67994,-0.68587,-0.68839,-0.68584,-0.68024,-0.68147,-0.68872,-0.68796,-0.68536,-0.67709,-0.68384,-0.68542,-0.68772,-0.68766,-0.68449,-0.68161,-0.68639,-0.69412,-0.68802,-0.68444,-0.68408,-0.68306,-0.69139,-0.68936,-0.68294,-0.68419,-0.68782,-0.69096,-0.68835,-0.68743,-0.68617,-0.68998,-0.69717,-0.69315,-0.69411,-0.68661,-0.69005,-0.69506,-0.69633,-0.69335,-0.68545,-0.68098,-0.67539,-0.65955,-0.65637,-0.63769,-0.6263,-0.62254,-0.61547,-0.59847,-0.58947,-0.59409,-0.59343,-0.59012,-0.59158,-0.58166,-0.57696,-0.5924,-0.60763,-0.62119,-0.63796,-0.65434,-0.67457,-0.69201,-0.69719,-0.69678,-0.70333,-0.70838,-0.7147,-0.71385,-0.70857,-0.71057,-0.71563,-0.72304,-0.72185,-0.7216,-0.73126,-0.74452,-0.74332,-0.64166,-0.46412,-0.18671,0.10809,0.34625,0.48648,0.47099,0.42948,0.22513,-0.14648,-0.67586,-0.94551,-0.92891,-0.86207,-0.81554,-0.80714,-0.77206,-0.76298,-0.75399,-0.76231,-0.76701,-0.76683,-0.75376,-0.76001,-0.75794,-0.7614,-0.76058,-0.75828,-0.75506,-0.76073,-0.75798,-0.75345,-0.7455,-0.7529,-0.75355,-0.76016,-0.75839,-0.75808,-0.75128,-0.75553,-0.76118,-0.7623,-0.75645,-0.75642,-0.75552,-0.76323,-0.76462,-0.76304,-0.75815,-0.75465,-0.76077,-0.76444,-0.76399,-0.76178,-0.76266,-0.77018,-0.77132,-0.76766,-0.76528,-0.76624,-0.76904,-0.77732,-0.78227,-0.77048,-0.77619,-0.78377,-0.78641,-0.78438,-0.77764,-0.78022,-0.785,-0.77869,-0.77858,-0.77114,-0.77429,-0.77256,-0.77366,-0.77064,-0.7657,-0.76639,-0.76483,-0.76994,-0.76898,-0.75619,-0.75026,-0.74349,-0.74895,-0.73986,-0.72694,-0.71456,-0.71011,-0.70841,-0.69733,-0.68256,-0.67024,-0.66992,-0.67425,-0.66606,-0.6678,-0.65808,-0.6623,-0.67292,-0.6697,-0.66786,-0.66084,-0.65978,-0.66669,-0.65981,-0.66327,-0.65187,-0.64712,-0.64925,-0.6467,-0.64174,-0.63396,-0.62745,-0.62814,-0.6313,-0.62178,-0.61694,-0.61266,-0.60793,-0.61206,-0.60501,-0.59935,-0.59523,-0.59741,-0.6009,-0.59757,-0.59208,-0.59355,-0.59666,-0.60377,-0.60132,-0.59932,-0.60331,-0.60587,-0.6087,-0.61091,-0.6123,-0.61372,-0.61967,-0.62998,-0.6301,-0.63282,-0.63271,-0.63874,-0.64729,-0.6493,-0.65219,-0.64899,-0.65024,-0.66465,-0.66458,-0.667,-0.66505,-0.6685,-0.67023,-0.67658,-0.67661,-0.67339,-0.67248,-0.67751,-0.69061,-0.68418,-0.68348,-0.68205,-0.68436,-0.68858,-0.68768,-0.68089,-0.68477,-0.68844,-0.69811,-0.69278,-0.69026,-0.68808,-0.68893,-0.69638,-0.69785,-0.69277,-0.68902,-0.68971,-0.69744,-0.69351,-0.69028,-0.68726,-0.68495,-0.6927,-0.69171,-0.69142,-0.68963,-0.68771,-0.69732,-0.69685,-0.69487,-0.68831,-0.69017,-0.6905,-0.69465,-0.6916,-0.68412,-0.69129,-0.69163,-0.69623,-0.69904,-0.69396,-0.69568,-0.6933,-0.69907,-0.69687,-0.68812,-0.69351,-0.69743,-0.69703,-0.69679,-0.69292,-0.69326,-0.68928,-0.69111,-0.68134,-0.66257,-0.65605,-0.64974,-0.63779,-0.63001,-0.60975,-0.59368,-0.59772,-0.60994,-0.60495,-0.60037,-0.59296,-0.59377,-0.60426,-0.6141,-0.62997,-0.6463,-0.65514,-0.68122,-0.69312,-0.70231,-0.70601,-0.70847,-0.71959,-0.72108,-0.72445,-0.71573,-0.71696,-0.72688,-0.73161,-0.7344,-0.7312,-0.74814,-0.76737,-0.7561,-0.6603,-0.47713,-0.35238,-0.063591,0.21634,0.41604,0.49544,0.43631,0.34562,0.042782,-0.40089,-0.87633,-0.98531,-0.92494,-0.86223,-0.82231,-0.79,-0.77189,-0.77531,-0.77799,-0.78384,-0.77778,-0.77654,-0.77309,-0.78665,-0.77673,-0.77625,-0.76626,-0.77136,-0.77635,-0.77986,-0.77749,-0.77403,-0.7708,-0.77642,-0.7705,-0.77294,-0.76491,-0.77335,-0.77498,-0.78044,-0.77852,-0.77122,-0.77087,-0.7749,-0.77695,-0.78031,-0.77463,-0.7724,-0.77236,-0.78155,-0.77789,-0.77444,-0.77472,-0.77722,-0.78348,-0.78345,-0.78053,-0.77745,-0.78016,-0.78723,-0.78839,-0.78068,-0.78466,-0.7857,-0.79255,-0.79803,-0.79494,-0.79392,-0.79197,-0.79591,-0.79413,-0.79717,-0.7835,-0.78598,-0.78676,-0.78799,-0.78263,-0.77804,-0.77487,-0.78359,-0.78646,-0.77114,-0.76862,-0.76923,-0.76536,-0.76853,-0.75898,-0.7489,-0.74112,-0.73026,-0.72894,-0.7163,-0.69581,-0.6916,-0.68772,-0.68551,-0.67596,-0.66568,-0.66719,-0.66901,-0.68045,-0.67924,-0.67005,-0.67313,-0.67303,-0.67731,-0.67834,-0.66805,-0.66578,-0.65977,-0.6637,-0.66418,-0.64683,-0.64269,-0.63705,-0.63542,-0.63835,-0.62969,-0.61913,-0.612,-0.61409,-0.60681,-0.60818,-0.59923,-0.60604,-0.597,-0.60495,-0.59504,-0.5909,-0.59058,-0.59403,-0.59776,-0.60173,-0.5962,-0.59857,-0.60322,-0.60607,-0.6101,-0.60322,-0.60998,-0.61682,-0.62299,-0.62396,-0.62263,-0.62711,-0.62692,-0.63108,-0.63489,-0.6313,-0.63447,-0.64328,-0.64863,-0.65021,-0.6449,-0.65184,-0.65301,-0.65215,-0.6539,-0.65529,-0.65452,-0.65763,-0.66704,-0.66778,-0.66675,-0.65385,-0.65515,-0.65943,-0.66326,-0.66518,-0.6498,-0.65617,-0.6594,-0.65782,-0.66109,-0.65246,-0.66265,-0.66022,-0.66095,-0.64544,-0.62669,-0.62215,-0.6213,-0.61753,-0.60301,-0.59127,-0.58233,-0.57017,-0.55041,-0.55589,-0.56094,-0.54443,-0.5485,-0.55522,-0.55788,-0.55077,-0.55867,-0.57233,-0.59945,-0.62973,-0.63743,-0.6534,-0.66751,-0.67982,-0.67723,-0.67984,-0.6714,-0.67422,-0.68475,-0.68871,-0.68446,-0.68062,-0.68349,-0.68577,-0.69119,-0.70192,-0.71721,-0.71414,-0.66951,-0.54004,-0.31494,-0.010633,0.26376,0.46457,0.53676,0.52091,0.47147,0.26089,-0.11525,-0.70551,-0.93487,-0.929,-0.88621,-0.8013,-0.77839,-0.73961,-0.73443,-0.72289,-0.73077,-0.72837,-0.73263,-0.72031,-0.72636,-0.71224,-0.73171,-0.72442,-0.72541,-0.71314,-0.715,-0.71347,-0.71699,-0.71094,-0.71589,-0.70988,-0.71751,-0.71538,-0.71778,-0.71142,-0.71338,-0.72056,-0.72416,-0.71774,-0.71644,-0.71345,-0.72293,-0.721,-0.72174,-0.71317,-0.71978,-0.71975,-0.72577,-0.72721,-0.72432,-0.72552,-0.72686,-0.73193,-0.72974,-0.72717,-0.73079,-0.73556,-0.74779,-0.74332,-0.73861,-0.74351,-0.74612,-0.75716,-0.75755,-0.75171,-0.74458,-0.75128,-0.75174,-0.75105,-0.742,-0.74553,-0.74548,-0.75301,-0.75231,-0.74759,-0.7391,-0.74038,-0.74609,-0.74538,-0.73685,-0.72912,-0.72217,-0.72409,-0.71709,-0.71051,-0.69015,-0.68947,-0.68085,-0.67295,-0.665,-0.65488,-0.65198,-0.6536,-0.65098,-0.65369,-0.64606,-0.64882,-0.65536,-0.65639,-0.65698,-0.65047,-0.64953,-0.65327,-0.65563,-0.65535,-0.64263,-0.6364,-0.63392,-0.63531,-0.63155,-0.62129,-0.61556,-0.61418,-0.61637,-0.61031,-0.60013,-0.59632,-0.58962,-0.59335,-0.59093,-0.58572,-0.57808,-0.58229,-0.58501,-0.5836,-0.58124,-0.5749,-0.57356,-0.58252,-0.58072,-0.58532,-0.57753,-0.58396,-0.59378,-0.59968,-0.60316,-0.59937,-0.60285,-0.61126,-0.61324,-0.61931,-0.61171,-0.61809,-0.62417,-0.62822,-0.62918,-0.62954,-0.6265,-0.63606,-0.64418,-0.64446,-0.64395,-0.64141,-0.64589,-0.6552,-0.65235,-0.649,-0.64889,-0.6503,-0.65923,-0.65698,-0.65263,-0.6509,-0.64782,-0.64744,-0.63417,-0.62646,-0.61495,-0.60939,-0.60854,-0.59678,-0.59015,-0.56833,-0.55343,-0.56427,-0.5672,-0.5564,-0.54997,-0.54462,-0.55601,-0.56292,-0.57647,-0.58312,-0.60646,-0.64294,-0.654,-0.66513,-0.669,-0.67312,-0.67876,-0.69129,-0.69135,-0.68757,-0.69397,-0.69332,-0.70313,-0.69797,-0.69702,-0.69575,-0.70064,-0.71128,-0.7312,-0.73009,-0.69077,-0.57204,-0.48526,-0.22306,0.070737,0.33786,0.50198,0.50016,0.45034,0.25989,-0.075611,-0.6379,-0.94095,-0.95627,-0.89493,-0.81824,-0.78657,-0.76653,-0.76226,-0.7496,-0.75155,-0.75149,-0.75295,-0.75506,-0.75204,-0.74383,-0.74424,-0.74054,-0.74893,-0.74208,-0.73778,-0.73742,-0.73609,-0.74327,-0.74393,-0.73566,-0.73572,-0.73419,-0.743,-0.73922,-0.73092,-0.73496,-0.73588,-0.74048,-0.7437,-0.73599,-0.73516,-0.73405,-0.74225,-0.74261,-0.7412,-0.73749,-0.74112,-0.74756,-0.74916,-0.7454,-0.74591,-0.75004,-0.75072,-0.75127,-0.75055,-0.75201,-0.75584,-0.75593,-0.76172,-0.7654,-0.75779,-0.76222,-0.76751,-0.76717,-0.76349,-0.75518,-0.75866,-0.7576,-0.76208,-0.75704,-0.74877,-0.74836,-0.74955,-0.75168,-0.749,-0.74174,-0.74153,-0.7432,-0.74518,-0.73703,-0.72471,-0.71914,-0.71459,-0.71247,-0.70263,-0.68939,-0.67931,-0.67437,-0.66812,-0.66528,-0.655,-0.65082,-0.65115,-0.66004,-0.66017,-0.65607,-0.65679,-0.65811,-0.66248,-0.66416,-0.66158,-0.65619,-0.65924,-0.65946,-0.65706,-0.65539,-0.64752,-0.64213,-0.64336,-0.63943,-0.63616,-0.62379,-0.61523,-0.62287,-0.61182,-0.60969,-0.59938,-0.59776,-0.59962,-0.60683,-0.60119,-0.5935,-0.59392,-0.59376,-0.599,-0.59886,-0.59282,-0.59137,-0.59798,-0.60499,-0.60345,-0.60425,-0.5992,-0.61184,-0.61735,-0.61817,-0.62382,-0.62249,-0.62521,-0.633,-0.63786,-0.63894,-0.638,-0.63878,-0.65037,-0.65314,-0.65468,-0.64865,-0.6529,-0.66392,-0.66358,-0.66734,-0.66306,-0.6636,-0.6753,-0.67604,-0.67646,-0.67328,-0.67202,-0.67477,-0.68272,-0.68533,-0.67238,-0.67902,-0.68209,-0.68404,-0.68344,-0.68049,-0.67672,-0.68096,-0.68624,-0.68762,-0.6789,-0.68198,-0.68391,-0.68804,-0.68894,-0.68037,-0.68043,-0.68049,-0.68989,-0.68553,-0.68359,-0.68015,-0.67916,-0.68656,-0.68625,-0.68104,-0.67308,-0.66276,-0.65656,-0.64765,-0.63665,-0.62416,-0.60992,-0.60861,-0.59868,-0.57505,-0.57082,-0.58489,-0.57784,-0.58286,-0.58044,-0.56307,-0.573,-0.58623,-0.6005,-0.61843,-0.63407,-0.65488,-0.67102,-0.68489,-0.69183,-0.68884,-0.69674,-0.70273,-0.7047,-0.70799,-0.70145,-0.70161,-0.70938,-0.71401,-0.71406,-0.71292,-0.72022,-0.73809,-0.74669,-0.68178,-0.53888,-0.3007,-0.010219,0.26916,0.46543,0.5244,0.46645,0.34291,0.026242,-0.45725,-0.88997,-0.95658,-0.93326,-0.86996,-0.8096,-0.79156,-0.75012,-0.75748,-0.75569,-0.76343,-0.75389,-0.75353,-0.74271,-0.75574,-0.74514,-0.75498,-0.73706,-0.74248,-0.74294,-0.74394,-0.74106,-0.74509,-0.73617,-0.74405,-0.74388,-0.74571,-0.74056,-0.73869,-0.73763,-0.74618,-0.7446,-0.73872,-0.73104,-0.73493,-0.74265,-0.74153,-0.73776,-0.73467,-0.74126,-0.74771,-0.7465,-0.7416,-0.73686,-0.74089,-0.74658,-0.74691,-0.74905,-0.74211,-0.74522,-0.75229,-0.75202,-0.75139,-0.74851,-0.74884,-0.75718,-0.75926,-0.76037,-0.75455,-0.75381,-0.75644,-0.76062,-0.75429,-0.74995,-0.74365,-0.75017,-0.74982,-0.74835,-0.74452,-0.74169,-0.74131,-0.74652,-0.74166,-0.73384,-0.726,-0.72797,-0.72242,-0.71206,-0.70342,-0.69785,-0.68793,-0.68723,-0.66775,-0.66052,-0.65363,-0.6484,-0.65196,-0.6518,-0.64545,-0.64167,-0.64047,-0.65017,-0.6528,-0.64534,-0.63737,-0.63852,-0.64452,-0.64792,-0.64162,-0.63363,-0.63167,-0.63617,-0.63631,-0.63387,-0.62676,-0.61915,-0.61573,-0.61706,-0.61261,-0.60095,-0.59636,-0.59248,-0.59861,-0.59607,-0.59112,-0.58414,-0.5798,-0.58764,-0.58238,-0.57705,-0.58119,-0.57914,-0.58766,-0.5826,-0.58196,-0.57663,-0.58395,-0.59028,-0.59453,-0.59651,-0.59664,-0.60259,-0.60932,-0.61703,-0.6157,-0.62073,-0.61846,-0.63109,-0.63546,-0.62972,-0.63033,-0.63523,-0.64431,-0.64955,-0.647,-0.64036,-0.64235,-0.64622,-0.65034,-0.65146,-0.64473,-0.65405,-0.65904,-0.66033,-0.66034,-0.65252,-0.65545,-0.65954,-0.6675,-0.6695,-0.66046,-0.66294,-0.66128,-0.66854,-0.67338,-0.66331,-0.65976,-0.66735,-0.67087,-0.67093,-0.66155,-0.66511,-0.66824,-0.67065,-0.6714,-0.66746,-0.66278,-0.66538,-0.67544,-0.66685,-0.65189,-0.63667,-0.63022,-0.62927,-0.62219,-0.60758,-0.59388,-0.58135,-0.56576,-0.56174,-0.57688,-0.55501,-0.55933,-0.55998,-0.55933,-0.56078,-0.56857,-0.58239,-0.60729,-0.62623,-0.64077,-0.65024,-0.66339,-0.67695,-0.67927,-0.68386,-0.68159,-0.68065,-0.68621,-0.68931,-0.6832,-0.6821,-0.68757,-0.69051,-0.70011,-0.70165,-0.71389,-0.72125,-0.65471,-0.52281,-0.2902,-0.00087349,0.28777,0.48079,0.52546,0.50013,0.44012,0.22724,-0.16247,-0.73417,-0.926,-0.91107,-0.84318,-0.78511,-0.77433,-0.73738,-0.74606,-0.71966,-0.72767,-0.73697,-0.74489,-0.72882,-0.72951,-0.71213,-0.7322,-0.72895,-0.72969,-0.71482,-0.72426,-0.71604,-0.72402,-0.70961,-0.71177,-0.71002,-0.71695,-0.72393,-0.72344,-0.71194,-0.71856,-0.71191,-0.72511,-0.71792,-0.71776,-0.71411,-0.72066,-0.72385,-0.72034,-0.71632,-0.71432,-0.7143,-0.72528,-0.72689,-0.7192,-0.7224,-0.72216,-0.7208,-0.72727,-0.7287,-0.72524,-0.72985,-0.73412,-0.73599,-0.73766,-0.72756,-0.73559,-0.74172,-0.73871,-0.74209,-0.74286,-0.73983,-0.73691,-0.7398,-0.7368,-0.72689,-0.72273,-0.72745,-0.73004,-0.72824,-0.7253,-0.72758,-0.7272,-0.72484,-0.71158,-0.69878,-0.69624,-0.6958,-0.68993,-0.68668,-0.67305,-0.66145,-0.65458,-0.6541,-0.6373,-0.62568,-0.61581,-0.61411,-0.61665,-0.62377,-0.6154,-0.61887,-0.62108,-0.62545,-0.623,-0.61758,-0.61121,-0.61911,-0.61703,-0.61856,-0.61122,-0.60524,-0.59114,-0.59853,-0.59423,-0.59561,-0.58078,-0.57988,-0.5736,-0.57207,-0.56566,-0.5552,-0.55775,-0.55864,-0.55239,-0.55523,-0.54458,-0.54615,-0.54476,-0.54863,-0.55025,-0.54564,-0.53865,-0.54125,-0.55412,-0.55952,-0.55425,-0.55308,-0.55561,-0.56205,-0.56927,-0.56714,-0.56463,-0.57106,-0.57673,-0.58135,-0.58358,-0.58378,-0.58644,-0.58808,-0.59959,-0.59689,-0.59083,-0.60067,-0.60699,-0.6108,-0.60902,-0.60072,-0.60071,-0.61302,-0.61573,-0.61567,-0.60461,-0.59945,-0.59402,-0.58946,-0.57555,-0.56838,-0.55744,-0.55097,-0.55164,-0.53375,-0.51767,-0.51467,-0.52206,-0.52073,-0.51709,-0.5109,-0.50882,-0.51591,-0.53692,-0.54547,-0.56008,-0.59116,-0.61216,-0.63504,-0.63926,-0.64026,-0.64063,-0.63954,-0.65411,-0.65514,-0.65793,-0.65329,-0.65365,-0.6644,-0.66509,-0.6628,-0.66132,-0.66192,-0.68097,-0.69492,-0.6928,-0.61436,-0.47257,-0.22535,0.063314,0.33267,0.52261,0.56766,0.53066,0.44322,0.18748,-0.23251,-0.79102,-0.91981,-0.91305,-0.85875,-0.76917,-0.74813,-0.71097,-0.72463,-0.70604,-0.71011,-0.69608,-0.70637,-0.70052,-0.70512,-0.68921,-0.70013,-0.69099,-0.70464,-0.69096,-0.69534,-0.68411,-0.69021,-0.69172,-0.69739,-0.68711,-0.68816,-0.68746,-0.69451,-0.69093,-0.69072,-0.68559,-0.69069,-0.69356,-0.69625,-0.69065,-0.69073,-0.6902,-0.69306,-0.69757,-0.69696,-0.69061,-0.69284,-0.69879,-0.70597,-0.70313,-0.69785,-0.70215,-0.70149,-0.71102,-0.71013,-0.70861,-0.71041,-0.71765,-0.72546,-0.72742,-0.71814,-0.72083,-0.72351,-0.73176,-0.73019,-0.72238,-0.71708,-0.71944,-0.72191,-0.72404,-0.71666,-0.71273,-0.71166,-0.71572,-0.71688,-0.71208,-0.70377,-0.70374,-0.70181,-0.69704,-0.68459,-0.67445,-0.66982,-0.67097,-0.65688,-0.65265,-0.63492,-0.63272,-0.62967,-0.62553,-0.61948,-0.61104,-0.61113,-0.62058,-0.62074,-0.62861,-0.6207,-0.62686,-0.62787,-0.63167,-0.62911,-0.62299,-0.62096,-0.62059,-0.62063,-0.6169,-0.60648,-0.60193,-0.59845,-0.59889,-0.59147,-0.5862,-0.57596,-0.57493,-0.57413,-0.56731,-0.55682,-0.55146,-0.55215,-0.55403,-0.55175,-0.54754,-0.5401,-0.54219,-0.54454,-0.54881,-0.5483,-0.54221,-0.54197,-0.54962,-0.55336,-0.55455,-0.55282,-0.55655,-0.56659,-0.57388,-0.57386,-0.57399,-0.57949,-0.58571,-0.59008,-0.59333,-0.59315,-0.59384,-0.59828,-0.60772,-0.60686,-0.60564,-0.60642,-0.6129,-0.62056,-0.61774,-0.61921,-0.61284,-0.61726,-0.6251,-0.62629,-0.6216,-0.61938,-0.62406,-0.63162,-0.63144,-0.62834,-0.62432,-0.62448,-0.63128,-0.63424,-0.63163,-0.62945,-0.62428,-0.63545,-0.63275,-0.63191,-0.62879,-0.62898,-0.63313,-0.63609,-0.63281,-0.63214,-0.6259,-0.63069,-0.63412,-0.63175,-0.6277,-0.63431,-0.62856,-0.63541,-0.63236,-0.63037,-0.62904,-0.62984,-0.63733,-0.63592,-0.63006,-0.63081,-0.63051,-0.6393,-0.63776,-0.62869,-0.62827,-0.61689,-0.61341,-0.60233,-0.59301,-0.59026,-0.57219,-0.5678,-0.55815,-0.54196,-0.52786,-0.53727,-0.5368,-0.53744,-0.53112,-0.52619,-0.52307,-0.53879,-0.54941,-0.56283,-0.58297,-0.59937,-0.62237,-0.63206,-0.63358,-0.63398,-0.64136,-0.64645,-0.6536,-0.65275,-0.64718,-0.649,-0.65154,-0.65935,-0.6581,-0.65359,-0.66391,-0.68088,-0.68921,-0.62211,-0.46803,-0.23271,0.061307,0.33434,0.52487,0.57316,0.53955,0.47636,0.24009,-0.15321,-0.67987,-0.90379,-0.86643,-0.80506,-0.74985,-0.72692,-0.69807,-0.70039,-0.70363,-0.70723,-0.6946,-0.70093,-0.69327,-0.70812,-0.70077,-0.70196,-0.68724,-0.69309,-0.69182,-0.69968,-0.69236,-0.6868,-0.68328,-0.69118,-0.68883,-0.6909,-0.68182,-0.68261,-0.69083,-0.69255,-0.68879,-0.6833,-0.68566,-0.69359,-0.69444,-0.69735,-0.69071,-0.68835,-0.69384,-0.70079,-0.70603,-0.70048,-0.6947,-0.69914,-0.70642,-0.70275,-0.69802,-0.69432,-0.70127,-0.70703,-0.71155,-0.71058,-0.70292,-0.71264,-0.7209,-0.71704,-0.71339,-0.70889,-0.71154,-0.71301,-0.71498,-0.71474,-0.70443,-0.70029,-0.70821,-0.70701,-0.70571,-0.69295,-0.69362,-0.69964,-0.69868,-0.69044,-0.68503,-0.67922,-0.68374,-0.67591,-0.67459,-0.65916,-0.65317,-0.64349,-0.64536,-0.63174,-0.61754,-0.60544,-0.60453,-0.60213,-0.59859,-0.5865,-0.59143,-0.59519,-0.60186,-0.59677,-0.59259,-0.59255,-0.59325,-0.60151,-0.60264,-0.59107,-0.58554,-0.58393,-0.58971,-0.58209,-0.57613,-0.56834,-0.56428,-0.5661,-0.5664,-0.55752,-0.5474,-0.54471,-0.54976,-0.54538,-0.54153,-0.52797,-0.5283,-0.53372,-0.53267,-0.53094,-0.52315,-0.52092,-0.52213,-0.53019,-0.52698,-0.525,-0.52763,-0.52862,-0.53446,-0.53543,-0.53418,-0.53725,-0.54571,-0.55292,-0.5555,-0.55112,-0.5566,-0.56218,-0.56855,-0.57153,-0.57262,-0.573,-0.57271,-0.58284,-0.58853,-0.58587,-0.58837,-0.5901,-0.59748,-0.5991,-0.59822,-0.59921,-0.6017,-0.61129,-0.61062,-0.60741,-0.61009,-0.61108,-0.61279,-0.61581,-0.6179,-0.61305,-0.61252,-0.61799,-0.61722,-0.62179,-0.60983,-0.61646,-0.61839,-0.62217,-0.61955,-0.61674,-0.6144,-0.6146,-0.61716,-0.61918,-0.61314,-0.61684,-0.61592,-0.61882,-0.61753,-0.61301,-0.61037,-0.61358,-0.62077,-0.61992,-0.61702,-0.61303,-0.61496,-0.62379,-0.62066,-0.61629,-0.61378,-0.61914,-0.62137,-0.62526,-0.61916,-0.612,-0.62029,-0.62458,-0.62369,-0.62701,-0.62056,-0.62598,-0.6294,-0.63066,-0.632,-0.62077,-0.61957,-0.62642,-0.62707,-0.62957,-0.61906,-0.6236,-0.62602,-0.61688,-0.60703,-0.59282,-0.58802,-0.5818,-0.57697,-0.56807,-0.55459,-0.53689,-0.5366,-0.54608,-0.53913,-0.53372,-0.52895,-0.52844,-0.53699,-0.54247,-0.5538,-0.56997,-0.59546,-0.61868,-0.62786,-0.63227,-0.63697,-0.63891,-0.64937,-0.65422,-0.65298,-0.64431,-0.65387,-0.66101,-0.66255,-0.65853,-0.65594,-0.6619,-0.68559,-0.68954,-0.62331,-0.47466,-0.23217,0.049768,0.32721,0.51599,0.55948,0.5033,0.46869,0.24913,-0.13426,-0.65824,-0.88932,-0.8601,-0.80287,-0.74746,-0.72058,-0.69616,-0.70385,-0.69961,-0.70741,-0.69784,-0.70519,-0.69585,-0.70579,-0.69399,-0.69787,-0.68902,-0.69321,-0.69155,-0.70223,-0.69421,-0.69616,-0.68286,-0.69938,-0.69636,-0.696,-0.68782,-0.6875,-0.69969,-0.70108,-0.69822,-0.69579,-0.68957,-0.69499,-0.69677,-0.69835,-0.69285,-0.70156,-0.70007,-0.70096,-0.69278,-0.69474,-0.69826,-0.69814,-0.70376,-0.70521,-0.70258,-0.69999,-0.70385,-0.70512,-0.7084,-0.70193,-0.70997,-0.71316,-0.71981,-0.72071,-0.71286,-0.71881,-0.71701,-0.7205,-0.72108,-0.71167,-0.70966,-0.70646,-0.71029,-0.71552,-0.71284,-0.70277,-0.70419,-0.70731,-0.70293,-0.7029,-0.70269,-0.69498,-0.69613,-0.69145,-0.67937,-0.66941,-0.6697,-0.66042,-0.65731,-0.6437,-0.62647,-0.61561,-0.61194,-0.60658,-0.61252,-0.59819,-0.59885,-0.60065,-0.60419,-0.60654,-0.59885,-0.60092,-0.60194,-0.60211,-0.60451,-0.58824,-0.59609,-0.5906,-0.59858,-0.59214,-0.58523,-0.57699,-0.57492,-0.58036,-0.57163,-0.565,-0.55936,-0.55125,-0.55495,-0.55032,-0.54491,-0.53996,-0.53607,-0.53858,-0.53746,-0.5321,-0.52803,-0.52817,-0.52713,-0.5313,-0.53135,-0.52289,-0.52929,-0.54379,-0.53999,-0.5399,-0.5314,-0.53919,-0.54523,-0.55277,-0.55467,-0.5578,-0.55918,-0.56568,-0.57402,-0.56984,-0.57035,-0.56995,-0.57591,-0.58699,-0.58349,-0.57467,-0.57615,-0.58408,-0.59444,-0.59071,-0.58781,-0.59333,-0.59325,-0.60771,-0.60564,-0.6,-0.59627,-0.59893,-0.60187,-0.59895,-0.5937,-0.58559,-0.59717,-0.60577,-0.61059,-0.60728,-0.60069,-0.59756,-0.60876,-0.60253,-0.59558,-0.60118,-0.60239,-0.60914,-0.60651,-0.59073,-0.58123,-0.57381,-0.57219,-0.5634,-0.55294,-0.53697,-0.53214,-0.52195,-0.50016,-0.50132,-0.50204,-0.50232,-0.50048,-0.50568,-0.49552,-0.49358,-0.49871,-0.51122,-0.52626,-0.56382,-0.58385,-0.59731,-0.60653,-0.61331,-0.61462,-0.61675,-0.62211,-0.62284,-0.62719,-0.62667,-0.6297,-0.62727,-0.62883,-0.63907,-0.6392,-0.64369,-0.65602,-0.65937,-0.64405,-0.53539,-0.33946,-0.042861,0.24307,0.47197,0.59065,0.56397,0.54959,0.40987,0.092361,-0.45603,-0.85175,-0.87621,-0.84601,-0.77327,-0.72778,-0.69179,-0.66788,-0.67999,-0.6718,-0.67824,-0.67613,-0.67386,-0.67025,-0.67418,-0.67713,-0.67428,-0.67042,-0.66281,-0.66702,-0.67176,-0.67206,-0.66564,-0.66268,-0.65976,-0.66387,-0.66771,-0.66288,-0.6588,-0.66298,-0.67194,-0.66998,-0.66493,-0.6624,-0.66572,-0.67023,-0.6711,-0.66449,-0.66213,-0.66432,-0.67079,-0.67423,-0.67535,-0.66251,-0.66893,-0.67597,-0.67882,-0.68362,-0.6786,-0.68023,-0.6874,-0.68837,-0.68963,-0.68411,-0.69177,-0.69738,-0.69885,-0.69998,-0.69632,-0.69714,-0.70147,-0.7029,-0.69959,-0.69268,-0.69246,-0.69563,-0.69757,-0.69724,-0.69138,-0.68699,-0.68841,-0.69296,-0.68506,-0.67835,-0.67108,-0.66915,-0.66816,-0.66268,-0.65976,-0.64573,-0.63508,-0.63225,-0.62118,-0.61417,-0.60083,-0.59759,-0.60011,-0.59945,-0.59615,-0.59575,-0.59729,-0.60465,-0.60451,-0.60906,-0.60382,-0.60531,-0.61281,-0.60625,-0.6057,-0.60348,-0.59414,-0.59327,-0.59922,-0.59151,-0.58191,-0.57876,-0.57585,-0.57953,-0.56714,-0.55841,-0.54941,-0.55068,-0.5524,-0.54815,-0.53811,-0.53828,-0.53703,-0.54378,-0.53778,-0.53659,-0.52968,-0.53277,-0.54066,-0.53955,-0.53712,-0.53591,-0.53404,-0.54796,-0.55278,-0.55342,-0.55344,-0.55458,-0.57004,-0.57302,-0.57251,-0.57406,-0.5752,-0.58338,-0.58654,-0.58703,-0.5827,-0.58885,-0.59275,-0.60351,-0.60161,-0.59564,-0.60286,-0.60263,-0.61114,-0.61252,-0.60842,-0.6109,-0.61317,-0.62025,-0.62038,-0.6134,-0.61867,-0.62131,-0.62934,-0.62753,-0.62421,-0.61922,-0.62226,-0.62984,-0.62965,-0.62575,-0.62374,-0.62264,-0.63157,-0.63239,-0.62919,-0.6265,-0.62624,-0.63195,-0.63263,-0.62868,-0.6292,-0.63195,-0.63712,-0.63721,-0.63559,-0.62809,-0.63022,-0.63271,-0.6364,-0.63817,-0.63025,-0.63107,-0.62795,-0.62322,-0.61138,-0.59345,-0.59002,-0.58243,-0.57296,-0.56416,-0.5475,-0.53344,-0.53688,-0.54572,-0.54234,-0.53726,-0.53428,-0.52667,-0.53518,-0.54672,-0.55428,-0.57147,-0.5958,-0.61695,-0.63361,-0.63819,-0.64711,-0.64926,-0.66338,-0.66292,-0.66013,-0.66017,-0.66005,-0.67138,-0.66895,-0.67063,-0.66402,-0.66919,-0.6812,-0.69807,-0.70415,-0.63655,-0.50359,-0.27529,0.014662,0.29696,0.50347,0.55757,0.50376,0.39317,0.092491,-0.38083,-0.83281,-0.92638,-0.90286,-0.83489,-0.7647,-0.74316,-0.71844,-0.72556,-0.714,-0.71454,-0.71023,-0.72057,-0.71949,-0.72302,-0.70915,-0.71449,-0.71133,-0.71872,-0.7095,-0.70683,-0.70374,-0.70752,-0.70858,-0.70883,-0.70505,-0.70368,-0.69774,-0.71208,-0.70676,-0.70778,-0.70165,-0.7042,-0.70694,-0.70464,-0.70443,-0.70617,-0.702,-0.71361,-0.7131,-0.70992,-0.70633,-0.70859,-0.7146,-0.71667,-0.71545,-0.71525,-0.71266,-0.71659,-0.72374,-0.72229,-0.71909,-0.71993,-0.72589,-0.73331,-0.73339,-0.72751,-0.72451,-0.72922,-0.73365,-0.72786,-0.72561,-0.72541,-0.72319,-0.72919,-0.72728,-0.71947,-0.71693,-0.71287,-0.72136,-0.71758,-0.71523,-0.7087,-0.70703,-0.70561,-0.69925,-0.69349,-0.6853,-0.6782,-0.67498,-0.6681,-0.65775,-0.64404,-0.63628,-0.63216,-0.63581,-0.62419,-0.61596,-0.61868,-0.61895,-0.62362,-0.62403,-0.61632,-0.62107,-0.61954,-0.62419,-0.62419,-0.61405,-0.61871,-0.61384,-0.61496,-0.61045,-0.60134,-0.60056,-0.5977,-0.60297,-0.59366,-0.58837,-0.57854,-0.57289,-0.57922,-0.57063,-0.56426,-0.56141,-0.55683,-0.56181,-0.55521,-0.54938,-0.54774,-0.54506,-0.55074,-0.54952,-0.54732,-0.54369,-0.54619,-0.55111,-0.55662,-0.55693,-0.54967,-0.55476,-0.56357,-0.56717,-0.57036,-0.5674,-0.57278,-0.58273,-0.5863,-0.58912,-0.5846,-0.5917,-0.5954,-0.60215,-0.60399,-0.60372,-0.60977,-0.61381,-0.61746,-0.62423,-0.61868,-0.61842,-0.62411,-0.63477,-0.6299,-0.63055,-0.62868,-0.63506,-0.638,-0.63624,-0.63822,-0.63238,-0.63856,-0.64206,-0.64393,-0.64431,-0.6378,-0.64182,-0.64385,-0.64928,-0.64583,-0.64161,-0.64204,-0.64723,-0.64712,-0.65137,-0.63913,-0.64193,-0.64894,-0.64848,-0.65148,-0.64184,-0.64424,-0.64706,-0.64854,-0.65011,-0.64351,-0.64462,-0.65006,-0.65277,-0.65267,-0.64893,-0.64423,-0.65031,-0.65619,-0.65339,-0.64702,-0.64555,-0.65282,-0.65513,-0.65237,-0.65133,-0.65301,-0.65386,-0.66117,-0.6569,-0.65385,-0.65024,-0.65541,-0.65607,-0.65802,-0.65489,-0.65174,-0.65287,-0.65957,-0.65895,-0.66,-0.65066,-0.65482,-0.66554,-0.66212,-0.66079,-0.65888,-0.65389,-0.66244,-0.6612,-0.65904,-0.655,-0.65517,-0.65837,-0.66258,-0.66027,-0.65506,-0.65345,-0.65647,-0.66227,-0.66379,-0.65483,-0.65643,-0.65448,-0.65153,-0.63872,-0.62125,-0.60775,-0.60148,-0.59939,-0.58108,-0.56542,-0.56416,-0.55642,-0.56058,-0.55796,-0.55483,-0.54622,-0.54329,-0.56516,-0.57407,-0.585,-0.60786,-0.61801,-0.63905,-0.65363,-0.65679,-0.66319,-0.66419,-0.6754,-0.6739,-0.66859,-0.6684,-0.66832,-0.66917,-0.67526,-0.67724,-0.67576,-0.69507,-0.7043,-0.66786,-0.53707,-0.31956,-0.033335,0.25089,0.45598,0.53445,0.49511,0.42806,0.1624,-0.27507,-0.76287,-0.90323,-0.87532,-0.80897,-0.76909,-0.75558,-0.7252,-0.72845,-0.723,-0.7378,-0.73208,-0.73508,-0.72268,-0.73486,-0.73279,-0.73557,-0.72601,-0.72686,-0.72396,-0.73506,-0.72957,-0.73073,-0.72052,-0.72849,-0.72548,-0.73235,-0.73273,-0.73051,-0.73081,-0.73539,-0.73442,-0.74261,-0.7319,-0.73974,-0.73515,-0.73806,-0.73805,-0.7362,-0.73939,-0.74239,-0.74244,-0.74227,-0.7358,-0.74279,-0.74272,-0.7519,-0.75628,-0.74798,-0.74635,-0.75423,-0.75875,-0.75696,-0.75774,-0.75803,-0.7637,-0.76993,-0.76706,-0.76307,-0.76198,-0.76719,-0.77003,-0.76715,-0.76328,-0.75822,-0.76323,-0.76662,-0.76381,-0.7597,-0.75254,-0.75062,-0.75994,-0.75551,-0.7573,-0.74067,-0.74463,-0.74528,-0.73962,-0.73058,-0.7194,-0.71493,-0.71005,-0.69835,-0.69366,-0.67902,-0.67141,-0.66474,-0.66558,-0.65584,-0.65141,-0.64831,-0.65398,-0.6597,-0.65739,-0.65159,-0.65122,-0.64727,-0.65415,-0.65047,-0.64417,-0.63675,-0.64088,-0.63822,-0.63625,-0.63018,-0.62207,-0.61708,-0.62319,-0.61341,-0.61506,-0.59966,-0.59498,-0.60087,-0.59839,-0.59466,-0.58516,-0.58441,-0.59279,-0.58648,-0.58225,-0.57541,-0.57396,-0.58333,-0.58704,-0.5846,-0.58247,-0.58203,-0.58768,-0.594,-0.59485,-0.59112,-0.59303,-0.59609,-0.60111,-0.6066,-0.60797,-0.61167,-0.61369,-0.62051,-0.6201,-0.61914,-0.61782,-0.62464,-0.63536,-0.63728,-0.63714,-0.63333,-0.63492,-0.64376,-0.64569,-0.64406,-0.64592,-0.64034,-0.64906,-0.64963,-0.64191,-0.64106,-0.64209,-0.65701,-0.65135,-0.6547,-0.65037,-0.65292,-0.65694,-0.65047,-0.64842,-0.6447,-0.65452,-0.65624,-0.65432,-0.65248,-0.64959,-0.65336,-0.65327,-0.66122,-0.65523,-0.64379,-0.64919,-0.65388,-0.65804,-0.66145,-0.64543,-0.64918,-0.65593,-0.65546,-0.65821,-0.65689,-0.65326,-0.65085,-0.6515,-0.65566,-0.64641,-0.64291,-0.632,-0.63476,-0.61896,-0.5969,-0.58801,-0.57242,-0.57425,-0.56672,-0.55341,-0.54685,-0.55134,-0.5529,-0.53823,-0.5388,-0.53841,-0.56266,-0.57696,-0.60297,-0.61925,-0.61865,-0.63955,-0.65109,-0.65774,-0.66726,-0.66015,-0.66376,-0.66996,-0.67262,-0.67904,-0.66185,-0.66686,-0.67641,-0.68019,-0.68488,-0.69389,-0.6931,-0.67458,-0.57496,-0.3897,-0.095744,0.19416,0.42525,0.54276,0.51893,0.47021,0.2257,-0.18612,-0.755,-0.91569,-0.9004,-0.84747,-0.76572,-0.7547,-0.72515,-0.72083,-0.70291,-0.71119,-0.70532,-0.71294,-0.69661,-0.70411,-0.70165,-0.71657,-0.70236,-0.70839,-0.69475,-0.70209,-0.69604,-0.7,-0.69305,-0.69445,-0.69178,-0.70112,-0.69906,-0.70026,-0.69378,-0.69298,-0.6922,-0.70234,-0.70195,-0.70276,-0.69833,-0.70386,-0.70303,-0.70126,-0.69716,-0.70225,-0.70134,-0.70644,-0.69965,-0.7019,-0.70566,-0.71002,-0.71363,-0.71082,-0.70982,-0.71039,-0.71252,-0.7187,-0.71486,-0.70816,-0.71411,-0.72484,-0.73258,-0.72997,-0.7295,-0.72033,-0.71883,-0.72532,-0.72242,-0.71755,-0.7153,-0.7132,-0.72151,-0.7183,-0.7185,-0.71021,-0.71192,-0.71022,-0.71306,-0.70724,-0.70388,-0.69567,-0.69268,-0.69001,-0.68428,-0.66699,-0.65528,-0.64952,-0.64975,-0.64062,-0.62691,-0.6229,-0.62217,-0.62606,-0.6213,-0.62053,-0.62241,-0.62297,-0.63416,-0.62863,-0.62506,-0.62168,-0.62669,-0.63089,-0.63009,-0.62065,-0.61764,-0.61386,-0.61808,-0.61239,-0.60092,-0.59559,-0.58938,-0.58847,-0.59179,-0.58226,-0.5774,-0.56816,-0.56946,-0.56509,-0.56135,-0.55005,-0.55124,-0.55518,-0.55921,-0.55359,-0.54418,-0.5449,-0.54914,-0.5532,-0.55269,-0.54979,-0.55464,-0.55853,-0.56415,-0.5673,-0.56424,-0.56467,-0.56909,-0.58146,-0.58109,-0.57962,-0.58262,-0.58749,-0.59906,-0.59945,-0.5936,-0.59381,-0.60007,-0.60962,-0.60844,-0.60545,-0.60693,-0.61476,-0.61675,-0.61974,-0.62162,-0.61094,-0.61552,-0.61218,-0.60214,-0.59228,-0.57509,-0.57473,-0.56885,-0.56087,-0.55331,-0.53013,-0.51969,-0.53141,-0.53408,-0.52877,-0.5162,-0.51108,-0.51387,-0.52526,-0.53611,-0.55023,-0.56325,-0.59914,-0.625,-0.63685,-0.64163,-0.64386,-0.64868,-0.65842,-0.66124,-0.65533,-0.65895,-0.66617,-0.6716,-0.67045,-0.6674,-0.66325,-0.67002,-0.67541,-0.68568,-0.69872,-0.68308,-0.59175,-0.43918,-0.16322,0.12422,0.39343,0.54893,0.54638,0.49163,0.27972,-0.069331,-0.643,-0.91888,-0.92687,-0.86605,-0.78293,-0.75487,-0.73261,-0.72853,-0.71453,-0.71189,-0.70427,-0.71614,-0.71658,-0.71825,-0.70878,-0.70997,-0.70521,-0.71366,-0.70388,-0.70521,-0.69868,-0.70266,-0.70652,-0.70894,-0.69766,-0.69928,-0.69441,-0.70837,-0.70375,-0.7022,-0.69913,-0.69693,-0.70745,-0.70689,-0.7052,-0.70187,-0.69849,-0.71037,-0.70901,-0.70568,-0.70596,-0.70473,-0.71474,-0.71383,-0.71385,-0.71271,-0.71302,-0.71596,-0.72256,-0.72132,-0.71688,-0.72054,-0.72492,-0.73321,-0.73399,-0.72971,-0.73352,-0.73273,-0.73495,-0.72834,-0.72069,-0.72086,-0.72348,-0.72383,-0.72273,-0.71315,-0.71881,-0.71486,-0.7204,-0.71485,-0.71396,-0.70718,-0.70443,-0.70745,-0.70136,-0.68948,-0.68219,-0.67746,-0.67938,-0.66755,-0.65472,-0.6465,-0.63975,-0.6376,-0.63321,-0.62311,-0.61985,-0.61863,-0.62495,-0.63077,-0.63252,-0.62857,-0.63073,-0.63525,-0.63959,-0.63919,-0.63376,-0.63743,-0.6369,-0.63959,-0.63399,-0.62388,-0.6226,-0.62101,-0.62273,-0.61457,-0.59996,-0.60354,-0.60311,-0.60166,-0.59724,-0.58732,-0.58047,-0.57793,-0.57935,-0.57845,-0.56909,-0.56659,-0.56757,-0.57423,-0.57414,-0.56801,-0.56718,-0.56798,-0.57296,-0.57723,-0.58053,-0.5761,-0.57788,-0.58577,-0.5896,-0.59457,-0.59186,-0.59653,-0.60748,-0.60982,-0.61234,-0.61062,-0.61301,-0.62396,-0.62678,-0.62882,-0.62147,-0.62766,-0.63846,-0.63848,-0.64213,-0.63577,-0.64206,-0.64563,-0.65157,-0.65075,-0.64733,-0.64971,-0.65216,-0.66154,-0.65864,-0.65501,-0.64498,-0.6373,-0.63504,-0.62055,-0.61152,-0.60353,-0.5905,-0.58866,-0.57233,-0.55195,-0.54873,-0.56608,-0.56335,-0.55296,-0.55007,-0.54085,-0.54382,-0.56748,-0.58108,-0.59406,-0.62032,-0.64649,-0.6634,-0.6756,-0.67832,-0.67292,-0.68049,-0.69134,-0.69287,-0.69356,-0.69338,-0.68724,-0.69413,-0.70058,-0.70216,-0.69921,-0.70217,-0.71364,-0.73365,-0.72433,-0.62776,-0.46755,-0.1929,0.091169,0.36421,0.52865,0.52976,0.46293,0.25876,-0.088093,-0.35721,-0.84007,-0.97233,-0.91709,-0.86718,-0.79473,-0.78072,-0.74394,-0.76359,-0.73762,-0.75734,-0.74222,-0.7588,-0.7466,-0.76256,-0.73806,-0.74945,-0.73432,-0.75164,-0.73803,-0.74036,-0.72668,-0.73822,-0.72849,-0.74065,-0.72964,-0.73382,-0.72738,-0.73708,-0.73703,-0.73895,-0.72532,-0.73625,-0.73525,-0.74213,-0.73734,-0.73419,-0.73586,-0.73949,-0.74207,-0.74227,-0.73737,-0.74085,-0.73992,-0.74752,-0.74794,-0.7414,-0.74269,-0.74214,-0.75252,-0.75416,-0.75045,-0.74887,-0.75253,-0.76127,-0.76398,-0.75705,-0.76007,-0.75669,-0.76096,-0.75628,-0.75574,-0.74284,-0.75045,-0.74503,-0.74955,-0.74514,-0.73991,-0.73858,-0.74267,-0.73875,-0.73673,-0.72691,-0.72634,-0.72009,-0.72116,-0.7112,-0.69601,-0.68948,-0.68533,-0.67547,-0.67302,-0.65577,-0.65364,-0.64306,-0.64538,-0.64139,-0.63475,-0.63241,-0.63646,-0.64383,-0.65045,-0.64217,-0.64523,-0.64599,-0.65507,-0.65438,-0.64831,-0.64201,-0.64561,-0.64498,-0.64539,-0.63652,-0.62989,-0.62267,-0.62885,-0.62526,-0.62191,-0.60805,-0.61079,-0.60741,-0.6064,-0.59977,-0.59235,-0.59224,-0.59887,-0.59308,-0.59206,-0.58442,-0.58966,-0.59303,-0.59271,-0.59266,-0.58669,-0.58844,-0.59681,-0.59894,-0.60652,-0.60513,-0.61057,-0.61352,-0.62357,-0.62872,-0.62561,-0.62755,-0.63335,-0.63692,-0.64289,-0.64385,-0.64619,-0.64877,-0.65571,-0.65297,-0.6585,-0.6585,-0.66389,-0.6734,-0.67175,-0.67047,-0.66702,-0.66908,-0.67597,-0.68117,-0.67655,-0.67473,-0.67391,-0.68479,-0.67964,-0.68581,-0.68121,-0.68566,-0.6954,-0.69533,-0.69242,-0.68743,-0.68845,-0.69022,-0.69138,-0.69331,-0.68869,-0.68763,-0.68989,-0.69745,-0.69228,-0.68874,-0.68918,-0.69532,-0.70195,-0.69786,-0.68998,-0.69472,-0.69993,-0.70708,-0.70291,-0.70673,-0.69921,-0.69896,-0.70154,-0.69833,-0.69425,-0.69864,-0.69863,-0.70754,-0.70327,-0.69587,-0.69035,-0.68242,-0.67826,-0.66869,-0.65535,-0.64677,-0.63175,-0.63454,-0.63107,-0.61394,-0.59164,-0.60292,-0.60137,-0.60013,-0.6032,-0.59161,-0.59517,-0.60056,-0.61395,-0.62633,-0.64145,-0.66356,-0.68418,-0.70935,-0.71034,-0.70766,-0.71364,-0.71577,-0.71963,-0.72416,-0.71907,-0.72021,-0.72358,-0.73509,-0.73203,-0.7331,-0.73865,-0.75364,-0.75718,-0.66525,-0.50606,-0.24617,0.041205,0.29955,0.47092,0.48713,0.43883,0.2947,-0.035824,-0.2848,-0.8029,-0.96184,-0.91273,-0.87101,-0.81395,-0.81024,-0.74913,-0.77458,-0.75312,-0.77559,-0.75915,-0.76776,-0.74983,-0.77536,-0.75408,-0.77576,-0.7493,-0.76362,-0.75298,-0.7718,-0.75694,-0.75677,-0.74918,-0.75966,-0.75132,-0.7622,-0.74373,-0.75818,-0.75562,-0.76719,-0.75499,-0.7576,-0.75175,-0.76189,-0.76195,-0.76874,-0.75292,-0.75197,-0.75549,-0.75901,-0.76391,-0.76683,-0.75502,-0.75524,-0.76182,-0.76085,-0.77031,-0.75961,-0.76119,-0.76809,-0.76748,-0.77443,-0.77065,-0.7722,-0.78778,-0.77736,-0.78385,-0.78005,-0.78296,-0.78133,-0.7882,-0.77541,-0.77073,-0.76389,-0.77143,-0.77059,-0.77351,-0.76535,-0.76965,-0.76822,-0.77297,-0.76436,-0.75114,-0.74341,-0.74994,-0.74249,-0.73426,-0.71916,-0.71377,-0.69886,-0.70515,-0.69861,-0.69372,-0.67253,-0.66427,-0.6549,-0.65913,-0.65809,-0.65327,-0.65061,-0.66114,-0.64561,-0.65185,-0.64074,-0.65051,-0.65365,-0.65652,-0.64751,-0.6425,-0.63539,-0.64196,-0.63761,-0.6298,-0.61836,-0.61875,-0.61372,-0.62553,-0.61036,-0.60332,-0.60044,-0.60128,-0.59959,-0.59567,-0.58382,-0.58133,-0.57629,-0.58074,-0.57667,-0.57738,-0.57692,-0.57677,-0.58086,-0.58198,-0.57783,-0.57811,-0.58373,-0.59083,-0.58659,-0.58759,-0.58971,-0.5904,-0.6037,-0.60315,-0.60425,-0.61023,-0.60634,-0.61919,-0.61734,-0.61524,-0.61702,-0.6185,-0.62293,-0.62841,-0.63039,-0.62363,-0.62619,-0.63457,-0.64005,-0.63094,-0.61202,-0.6083,-0.60401,-0.59936,-0.58891,-0.57142,-0.57037,-0.55739,-0.53929,-0.53743,-0.54444,-0.53967,-0.53841,-0.54051,-0.5374,-0.5364,-0.54339,-0.55944,-0.57651,-0.6007,-0.62824,-0.64261,-0.65544,-0.66297,-0.67144,-0.66792,-0.67431,-0.67698,-0.68613,-0.6874,-0.68292,-0.68129,-0.68432,-0.6898,-0.69361,-0.69459,-0.69274,-0.70495,-0.7159,-0.70809,-0.62624,-0.46855,-0.20808,0.079276,0.33534,0.51366,0.54054,0.47846,0.27972,-0.062534,-0.64285,-0.93384,-0.942,-0.94531,-0.88099,-0.81341,-0.76834,-0.74434,-0.73836,-0.7447,-0.74416,-0.73905,-0.73682,-0.73608,-0.74101,-0.74039,-0.73345,-0.73273,-0.73418,-0.73616,-0.7334,-0.72324,-0.7208,-0.72379,-0.72861,-0.72682,-0.72805,-0.71998,-0.72083,-0.72892,-0.73145,-0.73348,-0.7243,-0.72505,-0.73152,-0.72784,-0.73097,-0.72669,-0.72782,-0.73269,-0.73213,-0.73271,-0.72916,-0.72739,-0.73574,-0.73983,-0.74115,-0.73765,-0.74226,-0.74598,-0.75379,-0.75576,-0.75252,-0.75418,-0.75817,-0.76564,-0.76798,-0.7626,-0.76047,-0.76259,-0.76886,-0.76203,-0.75462,-0.7513,-0.75569,-0.76006,-0.7591,-0.75344,-0.75206,-0.7531,-0.75892,-0.75292,-0.7479,-0.7401,-0.73671,-0.73931,-0.72984,-0.72338,-0.71347,-0.70286,-0.70402,-0.68731,-0.67892,-0.67203,-0.6663,-0.66762,-0.66832,-0.66286,-0.66063,-0.66142,-0.66899,-0.6769,-0.67468,-0.67132,-0.67478,-0.67483,-0.67886,-0.67671,-0.66826,-0.67126,-0.66791,-0.67139,-0.66484,-0.65149,-0.65163,-0.64653,-0.64663,-0.64138,-0.63495,-0.63154,-0.62177,-0.62646,-0.61989,-0.61,-0.60443,-0.6003,-0.60544,-0.60345,-0.59805,-0.59658,-0.59185,-0.60088,-0.60345,-0.60171,-0.59651,-0.60485,-0.60408,-0.61347,-0.61274,-0.61201,-0.61758,-0.62447,-0.62725,-0.63238,-0.6264,-0.63757,-0.63955,-0.64514,-0.64918,-0.64478,-0.65386,-0.6577,-0.66361,-0.66339,-0.66113,-0.66451,-0.6681,-0.67968,-0.6775,-0.67597,-0.67388,-0.67485,-0.68366,-0.68522,-0.67895,-0.68054,-0.68202,-0.68885,-0.68752,-0.68516,-0.68473,-0.68803,-0.69472,-0.6943,-0.69201,-0.68606,-0.68874,-0.69406,-0.69554,-0.69375,-0.68581,-0.68874,-0.69601,-0.69739,-0.69482,-0.68673,-0.69268,-0.69524,-0.69432,-0.69281,-0.68539,-0.69314,-0.69564,-0.69373,-0.69679,-0.69541,-0.69358,-0.69753,-0.7013,-0.70044,-0.69548,-0.69374,-0.69438,-0.70047,-0.70309,-0.69822,-0.69484,-0.69862,-0.70147,-0.7041,-0.69494,-0.69725,-0.69837,-0.70241,-0.70095,-0.6999,-0.69515,-0.69795,-0.70438,-0.70081,-0.69927,-0.6914,-0.6941,-0.70204,-0.70036,-0.69892,-0.69383,-0.69774,-0.70179,-0.70085,-0.70252,-0.6967,-0.69628,-0.70396,-0.70269,-0.70189,-0.69999,-0.69806,-0.70014,-0.70527,-0.70399,-0.69399,-0.68774,-0.67849,-0.67192,-0.66185,-0.65186,-0.63383,-0.62519,-0.62385,-0.61012,-0.5986,-0.61053,-0.59765,-0.60627,-0.60411,-0.59614,-0.59431,-0.59889,-0.61515,-0.63128,-0.65226,-0.65951,-0.67422,-0.69672,-0.7024,-0.70547,-0.71096,-0.71014,-0.72387,-0.7188,-0.71789,-0.71754,-0.71836,-0.72779,-0.73118,-0.73375,-0.74487,-0.75108,-0.69591,-0.55967,-0.33796,-0.04469,0.23317,0.43172,0.47448,0.43106,0.33788,0.038543,-0.42299,-0.87417,-0.97033,-0.88374,-0.82921,-0.79789,-0.78087,-0.77041,-0.76959,-0.75972,-0.7648,-0.77028,-0.77394,-0.76689,-0.76773,-0.7636,-0.77426,-0.77021,-0.76632,-0.76054,-0.76807,-0.7703,-0.77117,-0.76325,-0.7624,-0.76195,-0.76973,-0.76721,-0.76688,-0.75543,-0.76358,-0.76472,-0.76844,-0.76459,-0.75439,-0.75677,-0.76052,-0.76447,-0.76237,-0.75603,-0.75918,-0.76416,-0.76432,-0.7671,-0.76142,-0.76559,-0.77112,-0.77616,-0.77795,-0.77297,-0.77147,-0.77736,-0.78278,-0.78648,-0.78129,-0.78236,-0.78579,-0.79244,-0.79259,-0.78562,-0.7832,-0.78981,-0.79087,-0.79377,-0.77775,-0.77428,-0.77199,-0.78023,-0.77287,-0.77439,-0.76979,-0.77522,-0.77752,-0.77183,-0.76546,-0.75464,-0.75516,-0.75446,-0.7498,-0.7419,-0.72553,-0.72086,-0.71776,-0.70759,-0.70089,-0.6786,-0.67762,-0.6788,-0.67789,-0.67785,-0.6683,-0.67165,-0.67898,-0.68458,-0.68011,-0.67573,-0.67463,-0.674,-0.67561,-0.67136,-0.66199,-0.65976,-0.65962,-0.65803,-0.65295,-0.64879,-0.64074,-0.64301,-0.64157,-0.6278,-0.62494,-0.61801,-0.61702,-0.61978,-0.61712,-0.61694,-0.60359,-0.60462,-0.6105,-0.61065,-0.60924,-0.60073,-0.60248,-0.61015,-0.60306,-0.60824,-0.60294,-0.60148,-0.61062,-0.61721,-0.62049,-0.61328,-0.61898,-0.63019,-0.63771,-0.63402,-0.63821,-0.64112,-0.64605,-0.65091,-0.65368,-0.64984,-0.65356,-0.65699,-0.66518,-0.66766,-0.66784,-0.66743,-0.67254,-0.67846,-0.67558,-0.68076,-0.66886,-0.67432,-0.69125,-0.6839,-0.68421,-0.67929,-0.67996,-0.69097,-0.68978,-0.68324,-0.68102,-0.68197,-0.68155,-0.69114,-0.69089,-0.68715,-0.68969,-0.69175,-0.69119,-0.69087,-0.68292,-0.68087,-0.68754,-0.69239,-0.68994,-0.68224,-0.68041,-0.67991,-0.69027,-0.68119,-0.67385,-0.68452,-0.68448,-0.69011,-0.69096,-0.67928,-0.67975,-0.68112,-0.68514,-0.68251,-0.67802,-0.66161,-0.65256,-0.65529,-0.64363,-0.62812,-0.6121,-0.60145,-0.5949,-0.5774,-0.58079,-0.57673,-0.57552,-0.58316,-0.57457,-0.57175,-0.58341,-0.59451,-0.60094,-0.61819,-0.64017,-0.64559,-0.66954,-0.67827,-0.68246,-0.68695,-0.67982,-0.69718,-0.69935,-0.70339,-0.7044,-0.69508,-0.70036,-0.70084,-0.71219,-0.71797,-0.71869,-0.72072,-0.6977,-0.60417,-0.42955,-0.12356,0.17367,0.40896,0.5357,0.50648,0.47289,0.25311,-0.14242,-0.717,-0.92754,-0.90732,-0.85054,-0.7941,-0.77551,-0.73804,-0.74494,-0.73301,-0.74268,-0.73802,-0.75307,-0.73812,-0.73708,-0.73501,-0.74178,-0.73225,-0.74109,-0.7168,-0.72386,-0.72764,-0.73907,-0.73354,-0.72633,-0.7146,-0.73325,-0.72873,-0.72945,-0.7202,-0.72428,-0.71626,-0.72678,-0.73108,-0.73084,-0.7313,-0.72548,-0.7258,-0.73491,-0.72617,-0.72714,-0.73125,-0.73212,-0.72589,-0.72905,-0.72824,-0.73075,-0.73543,-0.736,-0.73469,-0.73574,-0.7379,-0.74953,-0.74618,-0.7435,-0.73582,-0.74095,-0.75206,-0.74826,-0.75138,-0.74089,-0.74851,-0.74814,-0.74125,-0.73595,-0.73808,-0.73667,-0.74141,-0.7373,-0.73695,-0.72822,-0.73102,-0.72794,-0.72916,-0.72226,-0.71401,-0.70767,-0.71227,-0.70303,-0.6943,-0.67597,-0.67102,-0.66123,-0.65963,-0.64389,-0.63667,-0.62787,-0.63078,-0.63607,-0.62894,-0.62493,-0.62918,-0.62659,-0.6356,-0.63153,-0.63301,-0.62636,-0.63061,-0.63765,-0.63664,-0.62883,-0.62615,-0.61782,-0.61992,-0.61471,-0.60728,-0.60218,-0.60008,-0.60344,-0.59971,-0.58858,-0.58176,-0.57267,-0.57208,-0.57524,-0.57063,-0.56071,-0.56159,-0.55637,-0.56172,-0.55646,-0.54662,-0.54562,-0.546,-0.55522,-0.55504,-0.54886,-0.55753,-0.56207,-0.56939,-0.56773,-0.56603,-0.57008,-0.57255,-0.58225,-0.58524,-0.5836,-0.58169,-0.58652,-0.59714,-0.60003,-0.59814,-0.59541,-0.59766,-0.6093,-0.6095,-0.60948,-0.61055,-0.61084,-0.61805,-0.62214,-0.61505,-0.60833,-0.61467,-0.61371,-0.61268,-0.6016,-0.58906,-0.58613,-0.57809,-0.56964,-0.55824,-0.54676,-0.53831,-0.52284,-0.51631,-0.52783,-0.51661,-0.51594,-0.51692,-0.51952,-0.52013,-0.52439,-0.53797,-0.55246,-0.58275,-0.61314,-0.6224,-0.63746,-0.64078,-0.65362,-0.65924,-0.65824,-0.65998,-0.66398,-0.66901,-0.67156,-0.66499,-0.66674,-0.67366,-0.67671,-0.67823,-0.6791,-0.68599,-0.69556,-0.69007,-0.59336,-0.41722,-0.12694,0.16223,0.40143,0.54156,0.51903
