0.7583,0.75392,0.7434,0.75047,0.7294,0.75659,0.75365,0.74636,0.7586,0.77776,0.76901,0.78099,0.78121,0.78257,0.79219,0.78285,0.80673,0.7891,0.82954,0.82375,0.85216,0.83126,0.8043,0.82165,0.86888,0.8644,0.80917,0.80816,0.80567,0.83609,0.78243,0.79246,0.81798,0.80581,0.78274,0.78745,0.78822,0.77286,0.76561,0.7849,0.79769,0.78322,0.76777,0.80603,0.79886,0.78378,0.78637,0.76421,0.76373,0.76639,0.78292,0.73963,0.75178,0.73685,0.77811,0.7885,0.72237,0.78477,0.78824,0.73756,0.72212,0.7742,0.76876,0.76204,0.7421,0.70791,0.76276,0.77572,0.74782,0.74287,0.74529,0.71639,0.71219,0.76442,0.74092,0.73292,0.75863,0.74715,0.74264,0.73565,0.7502,0.73345,0.73747,0.73807,0.72785,0.72899,0.76769,0.7388,0.73899,0.73912,0.71806,0.72807,0.73379,0.7829,0.81146,0.81483,0.80394,0.77561,0.80022,0.7924,0.82631,0.86221,0.82261,0.818,0.83247,0.80657,0.77384,0.82878,0.78217,0.73418,0.69303,0.69055,0.67434,0.71918,0.72867,0.70652,0.73524,0.74449,0.72452,0.70546,0.67668,0.70873,0.72208,0.70613,0.712,0.664,0.5897,0.52663,0.55403,0.63885,0.87848,1.3152,1.7279,2.0248,2.1913,2.4436,1.9887,1.6217,1.0294,0.48921,0.30163,0.18445,0.22826,0.28895,0.45357,0.5941,0.71542,0.71348,0.72379,0.67007,0.68969,0.74172,0.76333,0.71747,0.72871,0.74233,0.76508,0.73764,0.78118,0.73885,0.75577,0.70865,0.7526,0.74326,0.78041,0.76047,0.77012,0.73233,0.76257,0.7992,0.75908,0.76412,0.78701,0.76945,0.74085,0.75331,0.76046,0.76691,0.77662,0.77401,0.80848,0.76776,0.75721,0.81828,0.7931,0.78752,0.80074,0.77923,0.74404,0.77138,0.80245,0.76893,0.82339,0.78907,0.7969,0.79469,0.80049,0.83799,0.82739,0.81227,0.80532,0.80894,0.80143,0.82998,0.84697,0.85067,0.86114,0.85498,0.84013,0.88324,0.85884,0.8927,0.88882,0.86799,0.87596,0.85386,0.81453,0.86665,0.85936,0.83353,0.82392,0.80951,0.82094,0.82163,0.81258,0.78737,0.7878,0.80908,0.78135,0.78356,0.83489,0.80797,0.80334,0.7721,0.77732,0.80437,0.81018,0.80515,0.79906,0.75889,0.77501,0.7672,0.82343,0.78338,0.74758,0.78286,0.7957,0.77429,0.75716,0.76856,0.77163,0.78594,0.78651,0.77475,0.78109,0.73487,0.73823,0.76307,0.73896,0.76227,0.76031,0.77678,0.74739,0.75468,0.77548,0.77268,0.74734,0.76869,0.75443,0.7638,0.75913,0.7654,0.73166,0.74814,0.72801,0.76993,0.76047,0.74071,0.75105,0.75827,0.76478,0.76005,0.78126,0.82433,0.79557,0.80426,0.79726,0.82667,0.81429,0.85226,0.82123,0.86186,0.85879,0.82459,0.79421,0.77624,0.7499,0.75652,0.71742,0.75043,0.75064,0.70804,0.7264,0.71057,0.71954,0.72027,0.73908,0.74022,0.72902,0.71517,0.72584,0.71616,0.70263,0.68943,0.60273,0.55778,0.59311,0.62752,0.81127,1.141,1.6452,1.9745,2.1255,2.2878,2.0526,1.4325,0.82207,0.43876,0.28945,0.19021,0.22834,0.28117,0.41828,0.53632,0.65539,0.69151,0.68175,0.7118,0.77042,0.73075,0.74589,0.74516,0.74121,0.74036,0.73396,0.76069,0.73044,0.73863,0.77372,0.7542,0.78576,0.78938,0.76186,0.75595,0.78447,0.76821,0.76297,0.79089,0.77098,0.7854,0.77589,0.76543,0.76189,0.78756,0.81452,0.7712,0.77202,0.78334,0.77801,0.79115,0.78949,0.79911,0.8057,0.80021,0.81391,0.79267,0.80811,0.7718,0.81074,0.80589,0.79158,0.8176,0.79783,0.80283,0.82248,0.80906,0.82502,0.84494,0.83311,0.81721,0.83351,0.84812,0.86413,0.87756,0.87749,0.86023,0.89684,0.88542,0.89493,0.87262,0.87487,0.91576,0.87169,0.88324,0.86527,0.89004,0.86881,0.86186,0.86684,0.82687,0.82813,0.83891,0.84884,0.81601,0.80494,0.81834,0.80558,0.85358,0.80796,0.8211,0.84689,0.84007,0.84149,0.79295,0.81641,0.82308,0.82045,0.8373,0.8053,0.83637,0.78457,0.81365,0.78902,0.78887,0.84941,0.81068,0.82151,0.81049,0.80711,0.80374,0.82799,0.81126,0.77526,0.80947,0.80071,0.82914,0.82975,0.79564,0.77404,0.79185,0.78597,0.83424,0.83545,0.85093,0.83376,0.84004,0.85684,0.84003,0.83377,0.86506,0.8808,0.88569,0.92076,0.91325,0.89474,0.85267,0.86677,0.82054,0.79688,0.79678,0.78296,0.7762,0.74549,0.73352,0.76995,0.76379,0.78382,0.74561,0.74612,0.77743,0.77148,0.78857,0.74578,0.76472,0.75025,0.77343,0.69549,0.61069,0.62584,0.63756,0.74311,1.0379,1.4759,1.6762,1.963,2.2141,2.3567,2.1025,1.4505,0.85321,0.48195,0.34747,0.24684,0.2607,0.29205,0.45273,0.57723,0.67592,0.75949,0.77446,0.75499,0.75407,0.76176,0.82064,0.77496,0.76557,0.7585,0.79889,0.80417,0.77266,0.79623,0.80505,0.78323,0.80968,0.80204,0.80105,0.83217,0.81183,0.8038,0.78317,0.80166,0.82256,0.85008,0.80455,0.80902,0.78982,0.84794,0.82829,0.81278,0.81412,0.84636,0.84616,0.81365,0.8396,0.83196,0.85267,0.79206,0.82953,0.83747,0.83567,0.84853,0.83862,0.8355,0.84822,0.83874,0.84788,0.82932,0.86043,0.85701,0.8484,0.87693,0.86457,0.8549,0.82795,0.92118,0.89111,0.91203,0.91275,0.89224,0.90015,0.94547,0.90854,0.909,0.89636,0.93836,0.89571,0.88983,0.87683,0.85515,0.87389,0.89349,0.8752,0.82601,0.85662,0.87065,0.8499,0.84777,0.82917,0.87185,0.83195,0.82941,0.82247,0.81671,0.83067,0.84943,0.84801,0.84528,0.81312,0.85056,0.85445,0.83393,0.83346,0.82131,0.84947,0.8264,0.80903,0.80223,0.82613,0.83316,0.84072,0.80643,0.81465,0.83265,0.85046,0.82086,0.78274,0.82245,0.84681,0.84949,0.83322,0.77018,0.83237,0.82055,0.81117,0.80846,0.8369,0.83986,0.81979,0.8146,0.84625,0.85896,0.9062,0.88751,0.84587,0.88264,0.87649,0.90995,0.93351,0.91729,0.91569,0.89511,0.87637,0.86145,0.8685,0.84015,0.83172,0.7797,0.78454,0.77959,0.79764,0.8143,0.80911,0.7922,0.77901,0.77325,0.75573,0.77198,0.79341,0.78974,0.76692,0.80236,0.78094,0.76282,0.67353,0.5794,0.6571,0.72974,0.97024,1.3814,1.7772,1.9638,2.1922,2.4258,2.2894,1.6856,1.0435,0.58277,0.4027,0.22626,0.26072,0.40012,0.53049,0.67626,0.76377,0.76527,0.75213,0.77859,0.7839,0.83147,0.78875,0.80883,0.78743,0.81711,0.83525,0.812,0.80372,0.83618,0.82631,0.80912,0.77279,0.82471,0.87902,0.83042,0.82793,0.84603,0.84291,0.81848,0.82524,0.83409,0.84169,0.86973,0.81999,0.84201,0.83959,0.84088,0.83813,0.84675,0.8466,0.85083,0.84295,0.85721,0.81406,0.86329,0.85675,0.84608,0.87059,0.84595,0.83175,0.85837,0.8769,0.86352,0.83961,0.85277,0.86977,0.87285,0.85015,0.83733,0.89738,0.87911,0.88583,0.91287,0.8925,0.92132,0.91745,0.90441,0.9452,0.90718,0.91988,0.93475,0.95883,0.93933,0.93413,0.90244,0.89995,0.89611,0.8789,0.92026,0.90558,0.87378,0.88029,0.86025,0.88403,0.88846,0.86864,0.86649,0.85363,0.86839,0.86435,0.86035,0.86156,0.88675,0.87929,0.87419,0.88181,0.83697,0.88444,0.86484,0.82768,0.8486,0.8423,0.87972,0.86909,0.83075,0.85084,0.8622,0.84841,0.85548,0.8401,0.835,0.80551,0.87398,0.85899,0.83804,0.80966,0.82518,0.87298,0.84144,0.84275,0.81879,0.83514,0.84515,0.80245,0.8214,0.82569,0.84139,0.84226,0.83253,0.82008,0.82987,0.8484,0.81361,0.84268,0.85445,0.82662,0.80059,0.80067,0.84885,0.87333,0.89375,0.89453,0.8584,0.87053,0.8889,0.91003,0.95527,0.95427,0.91482,0.91331,0.91491,0.90849,0.86991,0.90057,0.85091,0.82214,0.80101,0.79641,0.83145,0.80536,0.79735,0.78357,0.82496,0.81986,0.7959,0.79053,0.79431,0.82911,0.83332,0.80794,0.78968,0.77912,0.68456,0.68179,0.65477,0.69692,0.83315,1.201,1.74,2.0759,2.2432,2.4885,2.2377,1.5548,0.96617,0.53263,0.39422,0.28563,0.29672,0.39961,0.47718,0.63939,0.76061,0.79504,0.81051,0.80327,0.80634,0.80434,0.80584,0.81117,0.82155,0.8388,0.81745,0.82471,0.84695,0.8129,0.84844,0.85342,0.84292,0.84534,0.83768,0.83652,0.81172,0.84722,0.84131,0.84345,0.87956,0.84471,0.84518,0.82483,0.84143,0.83448,0.86152,0.84111,0.85307,0.86268,0.8286,0.84098,0.87479,0.88293,0.86916,0.84638,0.84979,0.82963,0.841,0.87729,0.88371,0.86,0.83882,0.84321,0.87179,0.85177,0.84206,0.87372,0.85211,0.86834,0.91369,0.86403,0.88307,0.89203,0.89853,0.90239,0.92621,0.90811,0.93197,0.93618,0.93537,0.93087,0.92368,0.92125,0.91844,0.92651,0.9018,0.92316,0.88817,0.94328,0.89751,0.86886,0.89038,0.88863,0.88254,0.8772,0.89041,0.87534,0.85884,0.86506,0.88429,0.88206,0.88278,0.87488,0.87282,0.90788,0.87165,0.87242,0.86197,0.86123,0.84357,0.87723,0.86085,0.85046,0.87471,0.85828,0.8415,0.82855,0.82267,0.90747,0.86371,0.86194,0.84423,0.83472,0.86875,0.8483,0.85217,0.8404,0.85146,0.83134,0.82331,0.82558,0.88734,0.86845,0.83062,0.8443,0.84092,0.84375,0.8522,0.86037,0.83556,0.83836,0.86014,0.81839,0.82748,0.83388,0.80145,0.84501,0.83024,0.84169,0.82826,0.81949,0.85603,0.84215,0.82827,0.833,0.84112,0.8095,0.86497,0.85117,0.88135,0.87086,0.88022,0.88809,0.89218,0.89398,0.91873,0.94097,0.9271,0.90118,0.86944,0.87193,0.84145,0.85814,0.83189,0.79927,0.80582,0.77001,0.80669,0.80012,0.7942,0.80391,0.77831,0.79119,0.80938,0.7841,0.79372,0.76844,0.78022,0.82112,0.75487,0.70939,0.67085,0.65286,0.69304,0.80254,1.126,1.6023,1.9689,2.1593,2.3356,2.2852,1.6897,1.0584,0.61615,0.37254,0.31058,0.28817,0.35115,0.45667,0.63423,0.67318,0.75237,0.77096,0.78994,0.79313,0.79543,0.82023,0.81462,0.82852,0.80414,0.80459,0.81173,0.79334,0.83222,0.85456,0.8186,0.8203,0.81465,0.84583,0.8293,0.82808,0.82392,0.82718,0.79996,0.8372,0.823,0.81958,0.79806,0.83242,0.81674,0.82247,0.80556,0.85151,0.82447,0.85075,0.8488,0.82116,0.84507,0.86773,0.8409,0.83817,0.82718,0.83125,0.80751,0.82847,0.82996,0.83005,0.8323,0.83889,0.85384,0.8514,0.86249,0.84883,0.84913,0.86501,0.86742,0.89035,0.87823,0.888,0.92694,0.89358,0.88539,0.91625,0.90609,0.94029,0.93176,0.88894,0.95507,0.92801,0.91528,0.91998,0.91929,0.87706,0.89917,0.86637,0.88239,0.86205,0.85251,0.8214,0.84561,0.88303,0.86805,0.83385,0.83922,0.849,0.83812,0.85702,0.84619,0.84888,0.82578,0.8292,0.85402,0.81312,0.8397,0.84708,0.83863,0.82558,0.84748,0.82922,0.81764,0.82726,0.86796,0.82314,0.82902,0.83742,0.83516,0.8302,0.80402,0.82319,0.80255,0.82648,0.80258,0.81025,0.80856,0.78356,0.84542,0.80097,0.80505,0.80477,0.81156,0.82169,0.7974,0.79077,0.79404,0.78754,0.79279,0.78775,0.80889,0.77588,0.80576,0.80762,0.78387,0.80554,0.7966,0.80937,0.7963,0.82113,0.80879,0.82173,0.82698,0.85303,0.83652,0.85075,0.87935,0.85132,0.89485,0.87528,0.88269,0.88068,0.82147,0.82024,0.78702,0.77781,0.74945,0.76845,0.75331,0.77203,0.75747,0.74108,0.74209,0.77788,0.76338,0.75983,0.76404,0.76587,0.77807,0.75659,0.74888,0.70683,0.70968,0.61516,0.62495,0.62057,0.74653,1.104,1.515,1.9172,2.1028,2.181,2.328,1.9803,1.3321,0.77668,0.44446,0.35722,0.24748,0.2847,0.33125,0.45295,0.57239,0.70307,0.76331,0.76434,0.73738,0.76883,0.76985,0.79448,0.83555,0.80411,0.77693,0.78423,0.8142,0.81182,0.78556,0.8017,0.82758,0.81293,0.82646,0.81109,0.83425,0.80602,0.81325,0.82802,0.78505,0.8566,0.81899,0.81865,0.79277,0.85808,0.8643,0.82518,0.84557,0.85363,0.84521,0.84593,0.8366,0.83412,0.83527,0.85974,0.85178,0.83269,0.83222,0.82636,0.84168,0.85752,0.86533,0.859,0.86064,0.85359,0.86769,0.83286,0.85618,0.85873,0.89699,0.89187,0.88071,0.88345,0.87267,0.90043,0.90181,0.9098,0.89799,0.931,0.94261,0.93026,0.9169,0.90113,0.9301,0.91333,0.90343,0.87657,0.90467,0.88513,0.86646,0.83778,0.87856,0.83785,0.84934,0.83465,0.84247,0.84712,0.86277,0.85297,0.82316,0.84433,0.83292,0.85582,0.85001,0.84452,0.86406,0.8442,0.83637,0.84147,0.85607,0.85684,0.83142,0.82953,0.87232,0.85656,0.86131,0.85629,0.84658,0.83752,0.82035,0.8596,0.85723,0.8434,0.84078,0.82684,0.82251,0.84253,0.85391,0.83726,0.83549,0.84537,0.81467,0.8675,0.81403,0.81834,0.82188,0.79644,0.80292,0.83532,0.82143,0.81388,0.83309,0.81916,0.80282,0.82294,0.79145,0.82394,0.81649,0.8195,0.83337,0.79944,0.83693,0.81518,0.8082,0.78485,0.78926,0.81692,0.80679,0.77087,0.83895,0.82649,0.82121,0.83618,0.8357,0.84068,0.85108,0.85187,0.87573,0.88653,0.86446,0.85877,0.90632,0.89648,0.86256,0.92565,0.908,0.90179,0.85782,0.86906,0.8353,0.78327,0.78792,0.78194,0.78507,0.81707,0.80179,0.79249,0.76954,0.77385,0.78711,0.78209,0.7812,0.7784,0.78647,0.81499,0.78328,0.79648,0.75987,0.65434,0.61279,0.64147,0.70295,0.79622,1.0843,1.5284,1.948,2.1596,2.4318,2.4238,1.8249,1.1959,0.62646,0.4187,0.33019,0.24843,0.34712,0.50157,0.64235,0.76223,0.78725,0.77238,0.79847,0.79849,0.80632,0.79499,0.79362,0.79372,0.80897,0.84592,0.84366,0.80491,0.8227,0.82575,0.8283,0.80448,0.79909,0.8545,0.85736,0.83557,0.83019,0.82359,0.84975,0.85056,0.85148,0.86886,0.82802,0.82263,0.85678,0.85303,0.86048,0.8608,0.86432,0.82102,0.84871,0.84063,0.84794,0.859,0.8565,0.85283,0.85625,0.83888,0.8709,0.88492,0.84151,0.84249,0.8544,0.84562,0.85595,0.87336,0.88455,0.86263,0.85356,0.8983,0.89673,0.89023,0.88047,0.88189,0.91037,0.93001,0.94393,0.93589,0.92658,0.93657,0.9156,0.91549,0.95092,0.91837,0.9391,0.90765,0.9298,0.90951,0.91343,0.88925,0.85627,0.8864,0.89977,0.88934,0.88152,0.88418,0.85998,0.86518,0.86404,0.8741,0.83756,0.86696,0.86042,0.89591,0.86644,0.88637,0.89406,0.85518,0.85967,0.84782,0.84092,0.82844,0.90426,0.87381,0.84817,0.84845,0.82247,0.84503,0.88861,0.89565,0.8604,0.85933,0.84177,0.83123,0.86274,0.83378,0.84711,0.82792,0.86792,0.86936,0.81563,0.85508,0.85062,0.81707,0.83198,0.85858,0.84751,0.84156,0.84001,0.84458,0.83134,0.82796,0.78716,0.84456,0.84324,0.86698,0.83565,0.83256,0.81004,0.84792,0.84844,0.83322,0.816,0.81992,0.85918,0.83565,0.83411,0.81682,0.83651,0.81832,0.81276,0.828,0.80647,0.82467,0.83011,0.82453,0.83861,0.81407,0.84088,0.83402,0.8321,0.86309,0.83782,0.83376,0.83217,0.82911,0.82018,0.81849,0.839,0.8314,0.81139,0.82236,0.85382,0.84588,0.83782,0.83525,0.80534,0.81175,0.82093,0.85922,0.85509,0.86411,0.86233,0.86185,0.87056,0.88493,0.87334,0.88008,0.87065,0.87761,0.90852,0.946,0.95101,0.88909,0.92681,0.90549,0.90478,0.93026,0.90103,0.85689,0.83468,0.80847,0.81115,0.79169,0.84196,0.81126,0.83592,0.84777,0.8236,0.82703,0.83843,0.83006,0.80142,0.79622,0.81015,0.82284,0.79316,0.74959,0.6846,0.66503,0.69277,0.80296,1.1304,1.5598,2.0108,2.2146,2.2964,2.5682,2.202,1.5195,0.93419,0.53399,0.38323,0.2844,0.32247,0.46851,0.62459,0.72103,0.80794,0.79595,0.7931,0.80061,0.79053,0.87314,0.85126,0.8239,0.85334,0.83713,0.85132,0.84113,0.87735,0.845,0.85506,0.85965,0.85531,0.85634,0.87697,0.83875,0.85407,0.85711,0.85292,0.84436,0.89161,0.89186,0.8588,0.86346,0.87293,0.85452,0.87695,0.88208,0.88119,0.84503,0.8811,0.86609,0.85556,0.88936,0.88098,0.86298,0.88703,0.90101,0.88613,0.87002,0.86573,0.88742,0.87177,0.88943,0.89432,0.90224,0.9069,0.89184,0.89822,0.91067,0.91123,0.89972,0.93237,0.9419,0.91991,0.92535,0.94582,0.95195,0.98796,0.97949,0.95633,0.98308,0.95384,0.99487,0.94498,0.95568,0.9314,0.98768,0.93063,0.92911,0.93435,0.90438,0.88353,0.90216,0.92565,0.93364,0.89077,0.89229,0.8968,0.89611,0.88649,0.90972,0.89563,0.89154,0.87698,0.90232,0.89166,0.87649,0.86692,0.89217,0.88864,0.87647,0.88027,0.8908,0.8877,0.88439,0.87773,0.87866,0.88576,0.90097,0.89846,0.87024,0.86146,0.83901,0.8408,0.87712,0.87514,0.85238,0.88619,0.90668,0.88369,0.86615,0.85792,0.86356,0.87548,0.86706,0.85798,0.85761,0.8559,0.86208,0.85079,0.83593,0.83753,0.83892,0.83671,0.878,0.87187,0.82743,0.8653,0.87291,0.86012,0.87045,0.88373,0.85128,0.86859,0.85668,0.86045,0.86133,0.82708,0.83935,0.86936,0.85942,0.84663,0.85492,0.87679,0.84728,0.85347,0.85829,0.86088,0.85062,0.84768,0.84393,0.82684,0.87003,0.86703,0.86927,0.88128,0.83554,0.82365,0.85303,0.87488,0.83792,0.87761,0.8394,0.84974,0.86565,0.86031,0.87319,0.86628,0.85509,0.84639,0.81203,0.85724,0.89247,0.89267,0.87566,0.8884,0.87737,0.89148,0.91618,0.88857,0.88692,0.90242,0.93708,0.94168,0.93958,0.91642,0.91115,0.92123,0.89404,0.87155,0.89183,0.85975,0.84515,0.84095,0.80857,0.84817,0.83287,0.8189,0.83494,0.83873,0.8327,0.83025,0.81069,0.84783,0.82355,0.83413,0.83181,0.81679,0.79263,0.68645,0.69375,0.72253,0.79714,1.088,1.5349,1.937,2.1887,2.3531,2.3432,2.0875,1.4881,0.9131,0.57806,0.41794,0.34654,0.33972,0.39269,0.49492,0.63272,0.74221,0.81005,0.83274,0.85182,0.83569,0.82664,0.80653,0.86525,0.82768,0.86335,0.88831,0.88637,0.8867,0.87217,0.85378,0.86395,0.88168,0.88499,0.86659,0.89728,0.87457,0.87087,0.87445,0.89489,0.86589,0.84269,0.8806,0.86461,0.89422,0.91146,0.91179,0.89595,0.8884,0.89014,0.91177,0.87179,0.91664,0.87851,0.88882,0.8757,0.89084,0.89418,0.88942,0.91748,0.90537,0.89757,0.89163,0.89379,0.91682,0.92287,0.9139,0.90262,0.92343,0.90911,0.92868,0.93362,0.90434,0.94216,0.94439,0.94205,0.96333,0.95291,0.92668,0.97715,0.97099,0.986,0.96561,0.96852,0.98129,0.97609,0.95864,0.94929,0.94257,0.94789,0.9045,0.90734,0.9083,0.91362,0.88663,0.92398,0.90523,0.87283,0.90638,0.87829,0.8742,0.86648,0.90061,0.88183,0.91359,0.92376,0.88435,0.90666,0.88606,0.88648,0.87405,0.89439,0.91117,0.90685,0.88474,0.89779,0.88916,0.91643,0.89662,0.86852,0.91961,0.90731,0.90491,0.91535,0.90691,0.89766,0.88442,0.90695,0.88446,0.88768,0.8799,0.87802,0.90604,0.86833,0.9015,0.87568,0.87863,0.91496,0.88964,0.88144,0.87403,0.88618,0.87122,0.85689,0.85426,0.87854,0.89502,0.87811,0.86375,0.86885,0.87643,0.88635,0.87867,0.8203,0.88555,0.88406,0.87685,0.87955,0.88151,0.88222,0.87878,0.88789,0.85794,0.8655,0.8693,0.84985,0.81736,0.87665,0.89074,0.88822,0.8623,0.84735,0.86054,0.85997,0.85022,0.87891,0.85437,0.8572,0.86002,0.86774,0.85124,0.86194,0.86294,0.87422,0.85304,0.86796,0.86138,0.86914,0.903,0.87866,0.89691,0.912,0.9162,0.91238,0.91379,0.94269,0.92208,0.93532,0.92283,0.8953,0.9365,0.91426,0.93582,0.8948,0.90767,0.85423,0.83008,0.84683,0.84036,0.84823,0.83775,0.83146,0.82052,0.83591,0.85005,0.82936,0.83475,0.83471,0.84613,0.828,0.80546,0.76104,0.70682,0.66753,0.67373,0.74074,0.89239,1.2198,1.6552,2.0581,2.2407,2.5307,2.3931,1.7176,1.0872,0.62543,0.44356,0.33277,0.31857,0.40475,0.54223,0.69615,0.7897,0.79974,0.82537,0.83225,0.87762,0.84975,0.83284,0.85534,0.83987,0.85832,0.8598,0.85866,0.85374,0.88327,0.86769,0.82282,0.86718,0.86276,0.89078,0.86789,0.87343,0.87268,0.85978,0.86593,0.88869,0.85707,0.88548,0.87881,0.87326,0.88736,0.88928,0.86174,0.87672,0.87858,0.89375,0.89137,0.89999,0.88667,0.90224,0.91653,0.88321,0.86055,0.89093,0.88661,0.89201,0.91808,0.92829,0.88968,0.88705,0.90545,0.91847,0.90127,0.90689,0.93781,0.94214,0.94006,0.929,0.94577,0.91936,0.94164,0.96021,0.96335,0.97051,0.95914,0.95424,0.94287,0.9723,0.96672,0.9658,0.94975,0.97354,0.96343,0.93811,0.92831,0.91753,0.9334,0.90356,0.90821,0.87224,0.889,0.90463,0.88844,0.89232,0.90772,0.88484,0.90493,0.88657,0.90551,0.8822,0.8946,0.89579,0.88207,0.88219,0.88417,0.87494,0.90214,0.88806,0.88645,0.85689,0.88704,0.90634,0.87958,0.88969,0.89125,0.88941,0.90362,0.87868,0.88742,0.85046,0.86938,0.87587,0.88197,0.85964,0.86355,0.86701,0.84083,0.88378,0.89283,0.86114,0.87092,0.86774,0.89208,0.83855,0.88896,0.87961,0.86671,0.85879,0.86859,0.83588,0.85625,0.86138,0.84759,0.888,0.84517,0.85209,0.87492,0.86273,0.84789,0.87461,0.84894,0.85732,0.86998,0.84647,0.8501,0.854,0.86097,0.85386,0.85934,0.83497,0.84679,0.85853,0.87126,0.8455,0.87666,0.83782,0.82918,0.88249,0.85163,0.87541,0.85708,0.84428,0.82124,0.84315,0.8852,0.86807,0.85162,0.84961,0.85173,0.84556,0.84236,0.84945,0.86912,0.86291,0.84365,0.86286,0.84881,0.84237,0.84844,0.85848,0.85761,0.86648,0.84864,0.86818,0.84386,0.83334,0.84049,0.85056,0.83335,0.85776,0.85623,0.88924,0.85394,0.86684,0.89106,0.90899,0.88746,0.91423,0.89023,0.92458,0.94056,0.94345,0.90902,0.90662,0.92329,0.94194,0.90821,0.8813,0.85914,0.86022,0.82902,0.85369,0.80841,0.82588,0.8308,0.84241,0.84584,0.80823,0.82729,0.81416,0.81768,0.8192,0.85423,0.83161,0.82711,0.79528,0.73707,0.67177,0.66012,0.70394,0.91376,1.293,1.7311,2.0846,2.2677,2.5538,2.3083,1.6164,1.0393,0.74781,0.49571,0.34464,0.31818,0.35986,0.51988,0.63964,0.79061,0.79056,0.79838,0.72624,0.77141,0.91789,0.86227,0.83302,0.89765,0.8495,0.89066,0.84505,0.84985,0.82793,0.853,0.85421,0.86674,0.86062,0.86209,0.8605,0.8494,0.86637,0.88301,0.85261,0.90566,0.86417,0.87955,0.88534,0.87294,0.88911,0.88509,0.86506,0.88018,0.86595,0.88154,0.89048,0.86937,0.89386,0.89233,0.89127,0.86837,0.90072,0.91392,0.90017,0.90256,0.87492,0.90087,0.88001,0.89997,0.92509,0.91477,0.91582,0.92796,0.91646,0.92221,0.91209,0.95215,0.95346,0.93016,0.97482,0.95335,0.9478,0.98272,0.97306,0.94338,0.98074,0.97553,0.9919,0.98087,0.97633,0.93424,0.94879,0.94425,0.93161,0.92629,0.91826,0.93065,0.91305,0.90327,0.88599,0.85997,0.89249,0.85341,0.90914,0.91219,0.88968,0.87598,0.85517,0.89378,0.88524,0.90824,0.87714,0.88658,0.87955,0.87404,0.86355,0.88754,0.90881,0.88307,0.87746,0.86481,0.88372,0.88341,0.86283,0.85831,0.86327,0.91454,0.89066,0.88417,0.86799,0.84987,0.86291,0.87066,0.86146,0.89806,0.89037,0.85609,0.88389,0.87645,0.86848,0.8646,0.86675,0.84394,0.87772,0.83902,0.84908,0.8666,0.86973,0.86342,0.86301,0.86685,0.86332,0.85414,0.84014,0.84982,0.87738,0.86253,0.86011,0.85667,0.86115,0.8545,0.86118,0.8359,0.84158,0.83666,0.85263,0.83254,0.86184,0.86085,0.86109,0.85877,0.86765,0.83957,0.84971,0.83452,0.83854,0.85248,0.84853,0.85455,0.85479,0.84574,0.86172,0.85702,0.85252,0.84042,0.83679,0.85711,0.84771,0.82477,0.83669,0.87149,0.85873,0.84796,0.85001,0.85838,0.84673,0.83003,0.82825,0.85892,0.8635,0.85685,0.84446,0.87618,0.85966,0.8947,0.8972,0.89195,0.90639,0.87523,0.89098,0.94838,0.97054,0.92197,0.92712,0.91952,0.91632,0.91154,0.90828,0.88973,0.85063,0.83859,0.84928,0.82461,0.79153,0.78282,0.82653,0.86322,0.85816,0.82198,0.83128,0.85149,0.83433,0.82455,0.81634,0.84574,0.80183,0.77105,0.67898,0.69452,0.7172,0.87659,1.2298,1.6533,2.0091,2.1729,2.3634,2.2954,1.668,1.0151,0.63106,0.54396,0.39619,0.31442,0.35205,0.42932,0.55988,0.69293,0.7866,0.81104,0.82524,0.82625,0.82956,0.87028,0.8647,0.85555,0.84823,0.87343,0.86804,0.85536,0.86758,0.86633,0.88165,0.87726,0.89192,0.89088,0.87632,0.86313,0.88699,0.86265,0.89909,0.86964,0.87835,0.87162,0.90136,0.88827,0.89406,0.89456,0.92375,0.90911,0.89409,0.89309,0.88797,0.90342,0.89589,0.90591,0.89313,0.89437,0.91803,0.94185,0.90328,0.91858,0.90164,0.92122,0.93812,0.92982,0.91697,0.93755,0.9355,0.94872,0.93307,0.96153,0.94442,0.94729,0.96954,0.95879,0.96845,0.96777,0.99926,0.99926,0.99754,0.99887,0.98666,1.0065,0.99898,0.9899,0.96168,0.96297,0.95379,0.97439,0.95282,0.94431,0.95158,0.93463,0.93359,0.92493,0.89751,0.89028,0.91318,0.90129,0.89964,0.8822,0.8776,0.91752,0.8959,0.9078,0.89569,0.91791,0.90572,0.89312,0.90052,0.91176,0.91282,0.90886,0.89763,0.88515,0.9084,0.89941,0.91045,0.91416,0.91347,0.91489,0.90637,0.89695,0.90332,0.93886,0.93406,0.90279,0.90084,0.92221,0.94109,0.91739,0.8581,0.84797,0.87869,0.89272,0.95672,0.93105,0.90634,0.86933,0.87182,0.93609,0.91603,0.88211,0.88315,0.91267,0.90206,0.86623,0.87531,0.87643,0.86576,0.86893,0.88194,0.8474,0.90896,0.8719,0.91344,0.91209,0.90977,0.91805,0.89036,0.88619,0.8826,0.89288,0.87386,0.88694,0.89087,0.90174,0.86735,0.8684,0.89536,0.91521,0.91498,0.96923,0.95269,0.8969,0.96596,0.92567,1.05,1.0437,0.87063,0.92286,0.94434,0.98286,0.96085,0.9495,0.97368,0.95478,0.9284,0.92104,0.90788,0.86851,0.8816,0.854,0.86543,0.88324,0.88174,0.88253,0.87187,0.87054,0.89329,0.88761,0.87673,0.87962,0.88413,0.91689,0.8298,0.74325,0.75199,0.75413,0.80801,0.96197,1.3512,1.7951,2.1499,2.3273,2.5913,2.3755,1.7154,1.1015,0.64343,0.46754,0.38164,0.38599,0.50141,0.65047,0.78087,0.8653,0.87314,0.8963,0.90094,0.88909,0.89464,0.89414,0.90298,0.90677,0.92803,0.91663,0.91492,0.9343,0.91967,0.92147,0.91024,0.91804,0.89678,0.9538,0.91098,0.9379,0.94248,0.94436,0.93168,0.93386,0.93913,0.95205,0.95406,0.94153,0.92618,0.93464,0.94396,0.95213,0.9811,0.96606,1.0133,0.93041,0.87766,0.95609,0.96084,0.87868,0.9138,0.98139,0.94681,0.96543,0.91484,0.96854,1.0096,1.0061,0.98793,1.0185,1.0113,0.97662,0.97759,1.0144,1.0341,1.0214,1.0362,1.0523,1.0703,1.0747,1.0759,1.0776,1.1069,1.1087,1.1071,1.0634,1.0719,1.1055,1.0676,1.0689,1.0681,1.0498,1.0456,1.0621,1.0284,1.0293,1.0271,1.0664,1.0272,0.97584,0.9994,1.044,1.0068,0.98797,1.0357,0.9843,1.0042,0.98966,1.0006,0.97341,1.0038,0.98818,0.99185,1.0261,1.0036,0.98349,0.98774,0.99508,0.9871,0.97742,1.0029,0.99361,1.0011,1.0116,0.97849,0.95711,1.0049,0.98598,0.99611,1.0062,1.0018,0.97235,0.95805,0.97133,0.97431,0.96473,0.97162,0.97495,0.96511,0.97674,0.98782,0.95914,0.9636,0.95273,0.95951,0.95829,0.94511,0.97115,0.93216,0.97949,0.96508,0.92859,0.94588,0.94317,0.94417,0.95259,0.96662,0.94248,0.93651,0.94339,0.93927,0.97975,0.93906,0.9066,0.95829,0.98069,0.96099,0.94984,0.95596,0.95211,0.96132,0.95052,0.94436,0.93727,0.95173,0.95456,0.94281,0.94398,0.98636,0.97602,0.9675,1.016,0.99161,1.0351,1.0021,1.0167,1.0034,1.0303,1.0182,1.0557,1.0085,1.0319,1.0546,0.99897,0.95582,0.91426,0.93208,0.91489,0.93163,0.93066,0.95571,0.93477,0.91037,0.89537,0.92245,0.91383,0.9504,0.94596,0.95746,0.95556,0.93446,0.87839,0.7851,0.77344,0.83822,0.93318,1.1972,1.6113,1.8704,2.1863,2.3524,2.603,2.4101,1.6991,1.1245,0.67383,0.55061,0.43818,0.43141,0.51756,0.65851,0.79377,0.894,0.91626,0.92672,0.90977,0.90937,0.95468,0.94801,0.92134,0.93163,0.91043,0.94873,0.939,0.93487,0.94515,0.93487,0.9615,0.94776,0.94089,0.93342,0.9301,0.95737,0.94807,0.94504,0.93943,0.95187,0.93091,0.93236,0.92623,0.94137,0.94033,0.97735,0.95516,0.96018,0.94243,0.93383,0.92596,0.94287,0.95034,0.93403,0.94658,0.92889,0.94778,0.95425,0.95711,0.96153,0.98474,0.97371,0.97282,0.94684,0.97176,0.97805,0.9873,1.0004,0.98601,0.97842,1.009,1.0391,1.024,1.0345,1.0306,1.0192,1.0283,1.0196,1.0488,1.0376,1.0378,1.0407,1.0155,1.0307,1.0329,1.0177,1.0139,1.0112,0.99165,0.96446,0.96517,0.94995,0.97569,0.93197,0.96198,0.975,0.94795,0.94279,0.9494,0.9378,0.94713,0.92957,0.92999,0.93063,0.95976,0.95115,0.92495,0.95352,0.94491,0.95234,0.9446,0.96436,0.95849,0.92682,0.93275,0.94536,0.96737,0.94234,0.95077,0.92751,0.94132,0.94354,0.93134,0.89664,0.94718,0.94532,0.94083,0.95533,0.94146,0.91918,0.92439,0.94146,0.92711,0.92483,0.94759,0.94011,0.92552,0.91994,0.93442,0.9007,0.93432,0.91794,0.9134,0.90325,0.90574,0.92296,0.9322,0.91335,0.92811,0.92017,0.92594,0.92222,0.93653,0.96654,0.96544,0.96873,0.95762,0.96097,0.99723,1.015,1.0078,0.98494,0.98232,0.97087,0.95046,0.94232,0.92161,0.92669,0.89719,0.8899,0.89375,0.87455,0.87628,0.8883,0.88535,0.89054,0.8733,0.87261,0.87035,0.88465,0.87225,0.90121,0.89965,0.89342,0.84822,0.77761,0.71636,0.72729,0.77775,0.99321,1.3966,1.8344,2.1211,2.2884,2.4296,2.1554,1.5501,0.95442,0.71571,0.54513,0.39387,0.39547,0.40099,0.49631,0.61538,0.75651,0.82844,0.88031,0.83885,0.90122,0.87242,0.89509,0.87246,0.93557,0.90466,0.92086,0.92121,0.92641,0.91481,0.94781,0.92972,0.93256,0.92233,0.92219,0.91257,0.95202,0.91637,0.93029,0.91427,0.95369,0.93685,0.94685,0.96289,0.93735,0.94287,0.94329,0.96223,0.96582,0.95704,0.95274,0.95461,0.95405,0.95849,0.96829,0.9594,0.94749,0.96615,0.96668,0.9848,0.96583,0.98208,0.98683,0.98548,1.0032,0.99581,0.97274,1.0303,1.0227,1.005,0.99185,1.0131,1.0471,1.0595,1.0427,1.046,1.0509,1.0504,1.0709,1.0532,1.0493,1.0616,1.0347,1.0232,1.0295,1.0317,0.99695,0.99558,0.99904,1.0198,0.99748,0.97242,0.95459,0.98479,0.96158,0.93997,0.93724,0.93292,0.96548,0.94935,0.9285,0.91889,0.91406,0.94785,0.92589,0.92308,0.91146,0.96809,0.9702,0.96498,0.92006,0.94083,0.93695,0.93244,0.93156,0.97295,0.95,0.9248,0.92781,0.9295,0.92925,0.94103,0.9455,0.9437,0.8927,0.93228,0.92563,0.92712,0.92046,0.94799,0.91812,0.92082,0.90208,0.90142,0.93037,0.92293,0.92214,0.90717,0.90223,0.9141,0.91561,0.92185,0.89332,0.87875,0.90106,0.93345,0.91455,0.90344,0.90076,0.88032,0.91486,0.90085,0.92001,0.92424,0.91088,0.94373,0.93472,0.94561,0.96557,0.95726,0.97023,0.98944,0.98292,0.94924,0.97221,0.97461,0.9839,0.96201,0.95098,0.92735,0.91023,0.86798,0.87236,0.84028,0.88485,0.87294,0.85974,0.88706,0.8466,0.86109,0.87436,0.87014,0.86211,0.87282,0.87457,0.86929,0.86547,0.86849,0.78888,0.73305,0.70204,0.70389,0.89852,1.301,1.7276,2.0884,2.2912,2.5421,2.3776,1.699,1.1088,0.66052,0.47627,0.35641,0.34934,0.46865,0.60696,0.68541,0.81643,0.85119,0.86475,0.85829,0.85807,0.84426,0.86841,0.8548,0.87161,0.8901,0.90608,0.87656,0.89018,0.90117,0.90028,0.88708,0.89089,0.9013,0.89347,0.87366,0.88704,0.90752,0.88983,0.89016,0.8823,0.89051,0.89897,0.90619,0.90832,0.90414,0.87463,0.92742,0.89985,0.89368,0.91053,0.90851,0.89958,0.90011,0.91061,0.89985,0.90553,0.92603,0.92123,0.91839,0.88589,0.91735,0.90938,0.95923,0.94557,0.93277,0.93688,0.91456,0.95072,0.97072,0.98405,0.97378,0.97019,0.95703,0.96804,0.95398,1.0082,1.0024,0.98661,0.97707,0.99597,1.0309,1.0067,0.9785,0.97587,0.97077,0.97046,0.96498,0.95023,0.92348,0.91876,0.92205,0.95666,0.90783,0.91191,0.93322,0.92096,0.93082,0.92225,0.91475,0.93419,0.89875,0.90101,0.92293,0.97002,0.92708,0.89294,0.89998,0.94399,0.9125,0.92258,0.95327,0.88932,0.89723,0.90457,0.91312,0.90323,0.91102,0.88714,0.88203,0.86338,0.91994,0.90432,0.89828,0.87523,0.88585,0.87984,0.89693,0.89785,0.8819,0.90056,0.89922,0.89571,0.89344,0.87792,0.88909,0.88039,0.88627,0.89301,0.89044,0.88461,0.86405,0.88733,0.8886,0.88052,0.90189,0.8615,0.86949,0.8644,0.87315,0.88558,0.86918,0.87866,0.87165,0.86386,0.87518,0.88085,0.88146,0.86954,0.86086,0.85857,0.85481,0.87254,0.85413,0.86809,0.83904,0.88525,0.85752,0.84808,0.88306,0.85842,0.85835,0.84924,0.87164,0.88232,0.86223,0.84385,0.86644,0.86493,0.86919,0.877,0.8355,0.85672,0.87277,0.92881,0.91018,0.89952,0.89306,0.92156,0.91925,0.91196,0.94432,0.93403,0.9438,0.92517,0.93934,0.90556,0.93253,0.92074,0.90794,0.89342,0.85846,0.8378,0.8597,0.84262,0.83656,0.82281,0.85548,0.8504,0.81197,0.83362,0.84198,0.82779,0.83387,0.84076,0.85612,0.84044,0.83522,0.77294,0.66781,0.7058,0.72285,0.84036,1.1749,1.6568,2.1066,2.2844,2.5525,2.4496,1.7994,1.1744,0.66189,0.53159,0.4456,0.33079,0.35466,0.48709,0.66004,0.80794,0.84132,0.84754,0.80932,0.83784,0.87415,0.8617,0.8826,0.86029,0.8689,0.86232,0.87743,0.87274,0.89444,0.89267,0.87237,0.86066,0.90707,0.8949,0.86428,0.88424,0.89307,0.89501,0.88263,0.88521,0.85697,0.87434,0.87746,0.88777,0.90994,0.89785,0.90244,0.89774,0.90461,0.90771,0.88737,0.88355,0.88953,0.89624,0.89697,0.89854,0.85915,0.87026,0.91434,0.93725,0.92089,0.90755,0.90856,0.9264,0.92178,0.91589,0.94185,0.93468,0.93036,0.94373,0.94901,0.95748,0.95105,0.96409,0.96978,0.97941,0.98407,0.9872,1.0061,1.0139,1.004,0.93263,1.009,0.97608,0.98272,0.98772,0.9658,0.97472,0.97027,0.95257,0.91719,0.88433,0.90167,0.92155,0.8885,0.93279,0.9127,0.91731,0.8862,0.8735,0.8901,0.9142,0.91083,0.92057,0.90187,0.9034,0.89124,0.86243,0.87141,0.89625,0.88923,0.8855,0.91099,0.90716,0.88647,0.87993,0.89638,0.88108,0.87799,0.89148,0.86528,0.86396,0.87269,0.88265,0.88939,0.84834,0.88162,0.90011,0.8738,0.87045,0.87065,0.88452,0.87784,0.87012,0.8756,0.8774,0.8658,0.85943,0.86084,0.85806,0.86034,0.85958,0.84594,0.83808,0.85361,0.86354,0.86418,0.86286,0.84518,0.85799,0.83083,0.83982,0.85326,0.84322,0.85947,0.84605,0.85197,0.85119,0.85421,0.8328,0.83982,0.84816,0.86298,0.83297,0.83042,0.83367,0.83997,0.84083,0.83504,0.82837,0.83153,0.83829,0.86329,0.86759,0.8435,0.86226,0.86441,0.89666,0.9016,0.87834,0.89423,0.94744,0.92653,0.89552,0.90676,0.89916,0.90903,0.89384,0.89041,0.88764,0.83762,0.8049,0.8415,0.82268,0.81136,0.81217,0.80403,0.80982,0.80368,0.82283,0.78442,0.82365,0.82676,0.818,0.8272,0.81333,0.81842,0.79963,0.77035,0.70573,0.64822,0.66932,0.72934,0.97836,1.4002,1.8353,2.1108,2.2257,2.3571,1.9568,1.2811,0.76414,0.50212,0.38827,0.28594,0.32149,0.31241,0.43046,0.56695,0.68331,0.7889,0.79243,0.80563,0.81416,0.80261,0.78406,0.77821,0.84377,0.84161,0.83666,0.8367,0.82453,0.80465,0.84345,0.84586,0.84535,0.8592,0.84083,0.82649,0.81828,0.85493,0.858,0.85976,0.85498,0.83776,0.83916,0.88435,0.85744,0.8792,0.87145,0.85601,0.86217,0.84678,0.8495,0.88742,0.90411,0.87055,0.85651,0.81612,0.90144,0.91928,0.87569,0.8697,0.89421,0.89411,0.8839,0.86951,0.88964,0.9019,0.91525,0.92646,0.90222,0.90771,0.91607,0.92434,0.92395,0.94345,0.91894,0.9603,0.98745,0.98636,0.9433,0.95989,0.95006,0.96108,0.97378,0.96439,0.97451,0.93851,0.91654,0.93306,0.91936,0.89627,0.8982,0.86845,0.87285,0.89188,0.8897,0.90778,0.88438,0.87656,0.86294,0.8668,0.85444,0.85627,0.87259,0.87225,0.87919,0.85931,0.866,0.83274,0.85662,0.87121,0.87937,0.90606,0.89233,0.88227,0.87381,0.86665,0.85804,0.88402,0.88734,0.88469,0.88366,0.87033,0.8545,0.86834,0.89262,0.85505,0.87706,0.87658,0.87615,0.88104,0.85253,0.84402,0.8503,0.87429,0.86168,0.90416,0.85994,0.82303,0.85618,0.88471,0.86585,0.85499,0.84938,0.82782,0.85497,0.85828,0.87095,0.85606,0.84307,0.83097,0.80693,0.81998,0.8642,0.8668,0.84731,0.83557,0.87851,0.87952,0.89376,0.87789,0.89805,0.90227,0.88942,0.89649,0.93841,0.92928,0.93535,0.92133,0.91384,0.91444,0.92535,0.89875,0.87602,0.88429,0.83295,0.82684,0.81586,0.82411,0.83293,0.8253,0.83608,0.82225,0.82395,0.82493,0.82963,0.80963,0.80025,0.80412,0.8207,0.82991,0.82217,0.81328,0.69909,0.64629,0.67446,0.75411,0.94321,1.3491,1.8166,2.136,2.2704,2.5198,2.169,1.5088,0.89547,0.5321,0.42324,0.30499,0.33702,0.45267,0.55932,0.66771,0.79807,0.80512,0.8118,0.80825,0.84293,0.84243,0.84222,0.82715,0.84803,0.85465,0.86135,0.8583,0.85345,0.85269,0.86552,0.84034,0.87132,0.8567,0.85494,0.85017,0.87899,0.8749,0.87544,0.86294,0.86423,0.87038,0.86646,0.87387,0.87725,0.87714,0.89118,0.86463,0.84437,0.84696,0.87699,0.9007,0.90913,0.87124,0.87208,0.88562,0.89003,0.89538,0.88641,0.89912,0.89691,0.93023,0.90591,0.89967,0.88514,0.90241,0.92298,0.9242,0.93633,0.918,0.92156,0.93261,0.94389,0.96492,0.96135,0.98241,0.97176,0.96626,0.97602,0.9855,0.98443,1.0052,0.99506,0.96449,0.97076,0.97158,0.96694,0.97701,0.96266,0.94902,0.92877,0.92848,0.93967,0.93698,0.90763,0.91653,0.90714,0.90087,0.91519,0.90913,0.89909,0.90667,0.9303,0.92722,0.91833,0.92534,0.90172,0.92909,0.92279,0.9301,0.9033,0.92024,0.93297,0.9312,0.88703,0.92649,0.92613,0.90801,0.91672,0.94623,0.92805,0.91242,0.92087,0.91401,0.92821,0.90432,0.90315,0.89744,0.91329,0.90129,0.89111,0.89356,0.89462,0.92449,0.91824,0.89797,0.89789,0.90587,0.90162,0.91526,0.91042,0.91216,0.91158,0.8766,0.8899,0.90617,0.90188,0.92065,0.89746,0.898,0.91483,0.8928,0.86531,0.86593,0.91026,0.93327,0.90391,0.89022,0.88203,0.90054,0.91224,0.89081,0.91088,0.91741,0.90907,0.90275,0.90921,0.90211,0.90687,0.91995,0.91163,0.89224,0.88481,0.88358,0.9412,0.97287,0.96164,0.92092,0.9424,0.95879,0.97789,0.99238,1.0176,1.0001,0.97893,0.97218,0.97797,0.97737,0.97317,0.94397,0.94964,0.89387,0.86483,0.88546,0.89599,0.88097,0.87932,0.90233,0.89464,0.91237,0.88405,0.89234,0.89809,0.88258,0.87993,0.8975,0.90944,0.89298,0.82534,0.74426,0.73131,0.75799,0.80979,1.0322,1.4211,1.8814,2.2298,2.3873,2.6648,2.2872,1.6012,0.99318,0.57904,0.46562,0.35409,0.44559,0.55961,0.73323,0.84736,0.90504,0.86606,0.8898,0.91009,0.90596,0.91143,0.9178,0.93935,0.94596,0.89208,0.93572,0.93944,0.9256,0.92587,0.92187,0.9466,0.94299,0.95731,0.96531,0.93833,0.92469,0.94612,0.94793,0.98413,0.93661,0.92208,0.98414,0.97378,0.92773,0.94695,0.99785,0.97906,0.94797,0.93802,0.91513,0.95183,0.97157,0.97951,0.96054,0.97184,0.96307,0.97183,0.96398,0.9424,0.97469,0.95235,0.94853,1.0085,0.99857,0.96696,0.94032,0.97672,1.0032,1.0139,0.97358,1.0098,0.99317,1.0254,1.0383,1.0258,1.0364,1.0243,1.0508,1.0364,1.0309,1.0343,1.0274,1.0332,1.0384,1.0228,0.98071,1.0005,0.98854,0.99794,1.0236,0.95757,0.96037,0.9545,0.97943,0.97916,0.94847,0.94596,0.95819,0.94223,0.9538,0.96147,0.98214,0.94954,0.95946,0.95221,0.96499,0.9347,0.97328,0.95823,0.96247,0.94197,0.96405,0.96645,0.95518,0.95349,0.93682,0.96383,0.94285,0.96263,0.94934,0.95982,0.95622,0.93977,0.93396,0.94138,0.9545,0.92678,0.96245,0.93187,0.95774,0.96378,0.93813,0.9317,0.95186,0.96744,0.94808,0.95077,0.94123,0.93835,0.93511,0.95664,0.94172,0.95383,0.93194,0.94569,0.94128,0.91837,0.92361,0.94343,0.95739,0.9352,0.92171,0.91306,0.95669,0.96408,0.95889,0.9605,0.93304,0.95284,0.94884,0.9447,0.94791,0.93953,0.93423,0.95737,0.95278,0.94406,0.89542,0.94309,0.8596,0.93621,0.94028,0.95692,0.95264,0.99386,0.99179,0.96506,0.97741,0.99529,0.99268,0.93466,0.938,0.92132,0.96945,0.99984,0.96631,0.9898,1.0012,0.97234,0.99887,1.0101,0.99764,1.0314,1.0574,1.024,1.0477,1.0475,1.0453,1.0248,1.0097,0.9595,1.0017,0.97229,0.97461,0.93414,0.94896,0.96515,0.93099,0.96015,0.95284,0.95847,0.94555,0.93063,0.95362,0.92517,0.93967,0.93383,0.91434,0.89832,0.84364,0.76568,0.79765,0.84316,1.0725,1.5093,1.9211,2.2107,2.3655,2.5456,2.2017,1.5608,0.9661,0.63063,0.49838,0.42317,0.45112,0.45554,0.57363,0.69144,0.82496,0.87884,0.9015,0.9125,0.94173,0.94458,0.95822,0.90338,0.93648,0.95275,0.95951,0.95096,0.92331,0.96382,0.97642,0.95297,0.94784,0.95051,0.93949,0.9734,0.96903,0.9541,0.99077,0.96624,0.96751,1.0022,0.9649,0.94818,0.96588,0.97338,0.95612,0.98838,0.98287,0.96395,0.95685,0.95851,1.005,1.0269,0.99329,0.97438,0.95403,0.98669,0.99073,1.0232,1.0138,1.0044,1.0172,0.96919,0.99906,0.98948,1.0073,1.0049,1.032,1.0408,1.0386,1.041,1.0242,1.0041,1.0396,1.0706,1.0498,1.072,1.07,1.0822,1.0631,1.0447,1.0704,1.0822,1.0713,1.0633,1.0401,1.0282,1.0106,1.0108,1.0176,1.0196,1.0123,1.0021,0.99449,0.9913,0.93991,0.96492,1.0063,0.99085,0.99633,0.96631,0.97612,0.99743,0.97295,0.96811,0.96035,0.99429,0.99111,0.97856,0.9903,0.98078,0.96348,0.99154,0.99138,0.97882,0.99922,0.98842,0.97565,0.9492,0.9912,0.99614,0.98617,0.99749,0.96584,0.96183,0.96019,0.98754,0.97892,0.97385,0.97063,0.96684,0.97133,0.96703,0.955,0.96568,0.967,0.93048,0.95107,0.99285,0.97174,0.96232,0.97592,0.96626,0.95953,0.96803,0.96907,0.98171,0.99085,1.0188,1.0123,0.97876,1,1.0147,1.0378,1.0372,1.0284,1.0387,1.0146,1.0016,1.0149,1.0213,0.97471,0.94009,0.91439,0.92123,0.91746,0.92682,0.92505,0.9192,0.91863,0.90683,0.92428,0.9195,0.92377,0.93766,0.92723,0.92008,0.94423,0.92501,0.83087,0.76668,0.76384,0.81542,0.97418,1.3336,1.7583,2.1275,2.314,2.4063,2.499,2.0517,1.413,0.87174,0.57461,0.45844,0.42616,0.46127,0.51358,0.65498,0.77877,0.87643,0.89859,0.93306,0.92588,0.91213,0.92675,0.96702,0.94969,0.95293,0.94013,0.96469,0.94515,0.94246,0.93756,0.97442,0.97426,0.97608,0.96356,0.96937,0.96542,0.97767,0.94875,0.95383,0.97212,0.97233,0.95846,0.97609,0.98786,0.98711,0.96999,0.95818,0.99569,0.98949,0.97708,0.9805,0.98853,0.9869,1.0164,0.98481,0.99976,1.0059,0.97324,0.96923,0.98779,0.97803,1.0201,1.0274,0.99966,0.98738,1.0126,1.0225,1.0233,1.0147,1.0324,1.0301,1.0389,1.0419,1.0449,1.0348,1.0709,1.0677,1.0703,1.0556,1.0636,1.078,1.0469,1.045,1.0546,1.0347,1.0309,1.0395,1.0243,1.0016,0.99339,0.98483,0.97874,0.99013,0.98571,0.97524,0.9658,0.95718,0.94397,0.93718,0.97291,0.95823,0.96087,0.95692,0.96117,0.9476,0.96407,0.96498,0.9863,0.97385,0.99023,0.98764,0.95376,0.96983,0.97,0.94776,0.95516,0.97742,0.97388,0.99641,0.98357,0.97307,0.97417,0.95388,0.9615,0.9603,0.95302,0.96165,0.97102,0.96884,0.97113,0.97306,0.95315,0.93965,0.93328,0.95573,0.96332,0.95897,0.94826,0.94158,0.94397,0.94607,0.93089,0.94387,0.95683,0.94334,0.95753,0.92384,0.92696,0.95165,0.97499,0.99068,0.98762,0.99927,1.0097,0.98904,1.0003,1.0405,1.0207,0.99977,1.0145,1.0013,1.0114,1.0235,1.0139,0.96166,0.98529,0.91119,0.91656,0.92708,0.90746,0.90903,0.89826,0.90551,0.89754,0.90864,0.92714,0.9317,0.91375,0.92138,0.91136,0.89819,0.91022,0.90918,0.8098,0.75317,0.76601,0.82229,1.0037,1.3913,1.8439,2.0722,2.3007,2.5399,2.5966,1.7439,1.0362,0.66248,0.42817,0.43229,0.44027,0.66519,0.74401,0.85372,0.87345,0.92522,0.90825,0.96247,0.94902,0.9688,0.92936,0.9543,0.94827,0.9606,0.9418,0.97325,0.95344,0.97604,0.94586,0.98445,0.95013,0.99253,0.98249,0.96843,0.97265,1.0043,0.97875,0.98406,0.95985,0.96299,0.96712,1.0078,1.002,0.96566,0.97815,1.0154,0.99939,0.98268,0.9859,0.98552,0.97603,0.9644,0.96778,0.97851,0.97984,0.99277,0.99303,0.97838,1.0012,0.9811,1.0168,1.0052,1.0179,0.98528,0.99356,1.006,0.98779,1.0037,1.034,1.0385,1.0487,1.0424,1.0533,1.0482,1.0571,1.0484,1.0635,1.086,1.0887,1.0734,1.054,1.047,1.0624,1.0286,1.0319,1.0269,1.04,1.0233,1.0322,1.027,1.0076,0.9967,1.0078,0.9956,1.0165,0.99695,1.0057,0.99845,0.98363,0.99752,1.0063,0.99434,0.99583,0.98086,1.0032,1.01,0.98925,0.97991,0.99584,0.98627,1.0007,0.99954,0.99627,0.99518,0.98098,0.97037,1.0045,0.99274,0.99475,0.98926,1.0084,0.97308,0.99565,0.99114,0.97271,0.97718,0.99072,0.96675,1.0025,0.98247,0.9865,0.98248,0.98032,0.94812,0.97491,0.98089,0.96595
