-4.7843,-4.7718,-4.7656,-4.75,-4.7516,-4.7522,-4.7486,-4.7524,-4.7462,-4.7353,-4.7319,-4.7375,-4.7351,-4.7346,-4.731,-4.7457,-4.7505,-4.7641,-4.7784,-4.7956,-4.8178,-4.8345,-4.8467,-4.8671,-4.8885,-4.8958,-4.9122,-4.9334,-4.9382,-4.9473,-4.9473,-4.9569,-4.9656,-4.9684,-4.9633,-4.9626,-4.9591,-4.9608,-4.9642,-4.9571,-4.9513,-4.955,-4.9537,-4.9457,-4.9439,-4.9489,-4.9367,-4.9448,-4.9387,-4.9419,-4.9396,-4.9317,-4.9381,-4.9436,-4.9451,-4.9358,-4.9351,-4.9366,-4.9421,-4.9506,-4.957,-4.9608,-4.9659,-4.9526,-4.9551,-4.9565,-4.956,-4.9665,-4.9725,-4.9742,-4.9757,-4.9694,-4.9687,-4.9518,-4.9427,-4.9368,-4.9458,-4.949,-4.941,-4.9348,-4.9261,-4.9215,-4.92,-4.9209,-4.9295,-4.9281,-4.9153,-4.9211,-4.9321,-4.9419,-4.9646,-4.9801,-4.9782,-4.9898,-4.9891,-4.9873,-4.9817,-4.9687,-4.9695,-4.9715,-4.9808,-4.9812,-4.9838,-4.9649,-4.9076,-4.7928,-4.6889,-4.4744,-4.2362,-4.086,-4.1809,-4.5545,-4.8163,-4.8782,-4.9816,-5.1063,-5.1239,-5.0827,-4.9738,-4.9644,-4.9692,-4.9788,-4.967,-4.9695,-4.971,-4.9633,-4.9619,-4.9635,-4.9697,-4.9587,-4.9519,-4.9554,-4.9633,-4.9624,-4.9525,-4.9474,-4.9476,-4.9456,-4.9242,-4.9193,-4.9179,-4.9206,-4.9185,-4.9042,-4.9014,-4.9009,-4.8943,-4.8942,-4.8785,-4.8575,-4.8586,-4.852,-4.8408,-4.8269,-4.8318,-4.8088,-4.8071,-4.8036,-4.7953,-4.7884,-4.774,-4.7619,-4.7737,-4.7619,-4.7625,-4.7586,-4.757,-4.7606,-4.759,-4.7458,-4.7509,-4.7509,-4.7622,-4.7837,-4.8,-4.809,-4.8199,-4.8433,-4.8605,-4.8591,-4.8863,-4.9109,-4.9244,-4.9353,-4.9387,-4.9551,-4.9523,-4.9578,-4.962,-4.959,-4.9703,-4.9741,-4.9735,-4.9793,-4.9712,-4.9727,-4.9649,-4.9586,-4.9614,-4.9572,-4.9574,-4.9493,-4.9447,-4.9455,-4.9407,-4.9382,-4.9363,-4.939,-4.9294,-4.9314,-4.9326,-4.9422,-4.938,-4.9375,-4.9491,-4.945,-4.9406,-4.9397,-4.9626,-4.9533,-4.9511,-4.9449,-4.9381,-4.9384,-4.9228,-4.9184,-4.9217,-4.9233,-4.9133,-4.9109,-4.9131,-4.9172,-4.9142,-4.9172,-4.9051,-4.9134,-4.9079,-4.9284,-4.9463,-4.9696,-4.9689,-4.9725,-4.9815,-4.9823,-4.9762,-4.9715,-4.9703,-4.9701,-4.9678,-4.9821,-4.9698,-4.9716,-4.9746,-4.9255,-4.8203,-4.6518,-4.4445,-4.2132,-4.0707,-4.2453,-4.6466,-4.8637,-4.9292,-5.0207,-5.1154,-5.1052,-5.0419,-4.989,-4.9611,-4.9654,-4.973,-4.972,-4.9674,-4.9614,-4.9646,-4.9738,-4.9663,-4.9677,-4.9576,-4.9562,-4.9484,-4.9463,-4.9424,-4.9495,-4.9422,-4.9428,-4.9294,-4.9216,-4.9231,-4.9045,-4.91,-4.9077,-4.9016,-4.8934,-4.8923,-4.8809,-4.8762,-4.865,-4.861,-4.8525,-4.8428,-4.832,-4.82,-4.8039,-4.8142,-4.8039,-4.7908,-4.7811,-4.7721,-4.762,-4.7592,-4.7554,-4.7612,-4.7538,-4.7426,-4.7425,-4.7382,-4.7354,-4.7381,-4.7508,-4.7654,-4.775,-4.7885,-4.7874,-4.8021,-4.8208,-4.8417,-4.8524,-4.8735,-4.8836,-4.9004,-4.9239,-4.9256,-4.9261,-4.9342,-4.9354,-4.9571,-4.9549,-4.9628,-4.9577,-4.9561,-4.9569,-4.9622,-4.9601,-4.9595,-4.9631,-4.9556,-4.9504,-4.9447,-4.9485,-4.9405,-4.9413,-4.9289,-4.9298,-4.9154,-4.9286,-4.9395,-4.9203,-4.9258,-4.9288,-4.925,-4.9241,-4.9258,-4.9169,-4.9099,-4.9022,-4.9051,-4.8994,-4.8921,-4.8935,-4.8835,-4.8779,-4.8662,-4.8812,-4.8909,-4.9023,-4.8877,-4.8947,-4.8894,-4.903,-4.9099,-4.9352,-4.9462,-4.948,-4.9518,-4.9564,-4.9622,-4.9672,-4.9656,-4.955,-4.9459,-4.9405,-4.9498,-4.953,-4.9395,-4.9091,-4.8228,-4.6638,-4.446,-4.2254,-4.0792,-4.186,-4.5681,-4.8147,-4.8868,-4.9836,-5.0746,-5.0851,-5.0625,-4.9618,-4.9247,-4.9376,-4.9426,-4.9575,-4.9468,-4.9516,-4.9364,-4.9343,-4.9363,-4.9346,-4.9321,-4.9327,-4.9207,-4.9252,-4.921,-4.92,-4.9047,-4.9094,-4.9069,-4.8973,-4.8889,-4.8854,-4.8845,-4.8859,-4.8789,-4.8707,-4.8603,-4.8515,-4.8461,-4.8383,-4.8344,-4.8154,-4.8074,-4.7921,-4.7811,-4.7848,-4.7723,-4.764,-4.7544,-4.7475,-4.74,-4.737,-4.7275,-4.7186,-4.7175,-4.7198,-4.713,-4.7006,-4.6951,-4.71,-4.7138,-4.7127,-4.717,-4.7301,-4.7383,-4.7571,-4.7782,-4.7945,-4.8074,-4.8144,-4.8322,-4.8588,-4.8735,-4.8856,-4.8958,-4.8916,-4.902,-4.9052,-4.9117,-4.9214,-4.9235,-4.9152,-4.9198,-4.9138,-4.9197,-4.9171,-4.9201,-4.9133,-4.9142,-4.9113,-4.9114,-4.9055,-4.9023,-4.9058,-4.8926,-4.8854,-4.8964,-4.8977,-4.901,-4.89,-4.8884,-4.8974,-4.8909,-4.8936,-4.8874,-4.8939,-4.8926,-4.883,-4.8936,-4.8956,-4.8971,-4.9032,-4.9033,-4.8918,-4.8847,-4.8769,-4.8671,-4.865,-4.8691,-4.8575,-4.8475,-4.8477,-4.8452,-4.8501,-4.8587,-4.8593,-4.8546,-4.8561,-4.8622,-4.8569,-4.8836,-4.8925,-4.9074,-4.9174,-4.9144,-4.9156,-4.9209,-4.912,-4.9088,-4.9122,-4.9115,-4.9074,-4.9138,-4.905,-4.8816,-4.8225,-4.6858,-4.4925,-4.2487,-4.1362,-3.9879,-4.1282,-4.5395,-4.7818,-4.8846,-4.9636,-5.0406,-5.0151,-4.937,-4.8759,-4.8948,-4.8926,-4.901,-4.9047,-4.9051,-4.8978,-4.8947,-4.8846,-4.8874,-4.887,-4.8894,-4.887,-4.8847,-4.8835,-4.8748,-4.8623,-4.8642,-4.8553,-4.8541,-4.8517,-4.848,-4.8418,-4.831,-4.8273,-4.8228,-4.8215,-4.8081,-4.8047,-4.7909,-4.789,-4.7789,-4.7685,-4.7528,-4.7508,-4.7348,-4.7274,-4.7235,-4.7075,-4.6961,-4.6886,-4.692,-4.676,-4.6731,-4.6739,-4.6661,-4.6602,-4.6501,-4.6393,-4.6401,-4.6488,-4.6491,-4.6433,-4.6508,-4.6586,-4.6746,-4.6888,-4.7048,-4.7211,-4.7386,-4.7611,-4.7759,-4.7967,-4.8066,-4.8188,-4.8274,-4.8388,-4.8372,-4.8406,-4.8523,-4.8564,-4.8536,-4.8603,-4.8592,-4.8589,-4.846,-4.855,-4.8505,-4.8539,-4.8495,-4.8478,-4.8553,-4.8443,-4.8453,-4.8413,-4.8414,-4.8375,-4.8337,-4.8334,-4.8354,-4.8455,-4.8393,-4.8347,-4.8333,-4.8338,-4.8355,-4.8324,-4.8329,-4.8365,-4.8405,-4.8393,-4.841,-4.8501,-4.845,-4.8476,-4.849,-4.8525,-4.8504,-4.8472,-4.8435,-4.8505,-4.8492,-4.8544,-4.858,-4.8535,-4.8513,-4.8591,-4.8451,-4.8501,-4.8529,-4.8458,-4.8342,-4.8224,-4.8173,-4.8037,-4.8075,-4.8122,-4.8034,-4.8019,-4.7926,-4.8014,-4.7997,-4.797,-4.7891,-4.7868,-4.7895,-4.7989,-4.8106,-4.827,-4.8423,-4.8435,-4.8487,-4.8462,-4.844,-4.8417,-4.8495,-4.8401,-4.8356,-4.8299,-4.8412,-4.8433,-4.8414,-4.8118,-4.7171,-4.5589,-4.3399,-4.0961,-3.9122,-3.9568,-4.343,-4.6756,-4.7773,-4.8876,-4.9553,-4.9493,-4.8588,-4.7898,-4.8024,-4.8101,-4.824,-4.8235,-4.8225,-4.8144,-4.8192,-4.8168,-4.8085,-4.8099,-4.8055,-4.8038,-4.8041,-4.7917,-4.7924,-4.7877,-4.7856,-4.7798,-4.7746,-4.7714,-4.765,-4.7634,-4.7593,-4.7489,-4.7456,-4.7401,-4.7342,-4.7236,-4.7148,-4.7056,-4.7085,-4.696,-4.6786,-4.6701,-4.6654,-4.6558,-4.6414,-4.6276,-4.6212,-4.6108,-4.6017,-4.5951,-4.5923,-4.5818,-4.577,-4.5737,-4.5698,-4.5625,-4.5585,-4.5597,-4.5506,-4.5556,-4.5552,-4.5589,-4.5694,-4.5833,-4.5961,-4.6142,-4.6395,-4.6504,-4.6752,-4.6934,-4.7119,-4.7292,-4.732,-4.7384,-4.7506,-4.7652,-4.7723,-4.7769,-4.7757,-4.7778,-4.7759,-4.7807,-4.7796,-4.781,-4.7818,-4.7803,-4.7797,-4.7851,-4.7764,-4.7781,-4.7764,-4.7766,-4.7741,-4.7782,-4.7757,-4.7672,-4.7677,-4.7696,-4.7825,-4.7738,-4.7722,-4.7731,-4.7762,-4.7802,-4.7814,-4.7855,-4.7889,-4.7867,-4.7941,-4.7899,-4.7913,-4.7936,-4.7979,-4.795,-4.7979,-4.7992,-4.8028,-4.8028,-4.8054,-4.8129,-4.8094,-4.8092,-4.8076,-4.8102,-4.8123,-4.8098,-4.8062,-4.8081,-4.8127,-4.8065,-4.808,-4.8079,-4.8091,-4.8109,-4.8058,-4.8116,-4.8074,-4.8085,-4.8056,-4.8054,-4.8064,-4.7935,-4.775,-4.7685,-4.7677,-4.772,-4.7691,-4.7661,-4.7544,-4.7479,-4.75,-4.757,-4.7533,-4.7429,-4.7516,-4.7556,-4.7628,-4.7805,-4.7935,-4.8041,-4.8131,-4.813,-4.815,-4.8182,-4.8129,-4.8036,-4.8019,-4.7976,-4.8044,-4.8116,-4.8186,-4.7812,-4.6778,-4.5944,-4.3958,-4.1264,-3.897,-3.8311,-4.1644,-4.5645,-4.7139,-4.8242,-4.9197,-4.9272,-4.8781,-4.7695,-4.7675,-4.7823,-4.782,-4.7847,-4.7849,-4.7928,-4.7847,-4.7877,-4.7841,-4.7814,-4.7766,-4.7797,-4.7749,-4.7729,-4.7655,-4.7701,-4.7598,-4.7617,-4.7557,-4.7537,-4.742,-4.7391,-4.7344,-4.7305,-4.7215,-4.7163,-4.711,-4.702,-4.7002,-4.6855,-4.6839,-4.6681,-4.6642,-4.6538,-4.6427,-4.6309,-4.6189,-4.6156,-4.6009,-4.6024,-4.587,-4.5776,-4.5736,-4.5642,-4.5604,-4.5598,-4.5514,-4.5452,-4.5467,-4.5414,-4.5354,-4.5376,-4.5406,-4.5357,-4.5447,-4.5564,-4.5678,-4.5829,-4.6023,-4.6239,-4.6475,-4.6671,-4.6854,-4.6977,-4.7112,-4.7287,-4.7444,-4.7557,-4.7586,-4.7598,-4.7614,-4.7752,-4.7778,-4.7729,-4.7677,-4.7685,-4.775,-4.7738,-4.7704,-4.7705,-4.7674,-4.7678,-4.7738,-4.775,-4.7683,-4.7589,-4.7642,-4.7623,-4.7636,-4.7595,-4.7579,-4.7543,-4.7606,-4.7621,-4.7629,-4.7715,-4.7657,-4.7716,-4.7737,-4.7733,-4.7782,-4.781,-4.7849,-4.7827,-4.7894,-4.7958,-4.7916,-4.7916,-4.7972,-4.8012,-4.7991,-4.8047,-4.8023,-4.8028,-4.8065,-4.803,-4.7986,-4.7958,-4.8031,-4.7998,-4.8074,-4.8077,-4.8077,-4.8083,-4.8113,-4.8049,-4.8107,-4.814,-4.8146,-4.8074,-4.8016,-4.7857,-4.7799,-4.7674,-4.7708,-4.7742,-4.7789,-4.7695,-4.7593,-4.7615,-4.7515,-4.7628,-4.7606,-4.7581,-4.7609,-4.7731,-4.7893,-4.8081,-4.8148,-4.8238,-4.8252,-4.8174,-4.8207,-4.824,-4.8138,-4.819,-4.8175,-4.8142,-4.8262,-4.8288,-4.8108,-4.7344,-4.6002,-4.3862,-4.1208,-3.9118,-3.8776,-4.2364,-4.6171,-4.6949,-4.7895,-4.8907,-4.9623,-4.9504,-4.8453,-4.7867,-4.8047,-4.8169,-4.8186,-4.8162,-4.8133,-4.814,-4.8157,-4.8138,-4.8092,-4.8083,-4.8012,-4.807,-4.7972,-4.7988,-4.7964,-4.7924,-4.7933,-4.7916,-4.7903,-4.7811,-4.7703,-4.7656,-4.7679,-4.7697,-4.7629,-4.7544,-4.7398,-4.7365,-4.728,-4.7231,-4.7114,-4.6992,-4.6916,-4.6874,-4.6784,-4.6702,-4.6595,-4.6521,-4.6445,-4.6488,-4.6324,-4.6311,-4.6187,-4.6146,-4.6125,-4.6093,-4.6026,-4.6004,-4.5957,-4.5946,-4.597,-4.5961,-4.5898,-4.5963,-4.6062,-4.6187,-4.6296,-4.6433,-4.6608,-4.6824,-4.7023,-4.721,-4.74,-4.7565,-4.7723,-4.7871,-4.801,-4.815,-4.8172,-4.8264,-4.8227,-4.8239,-4.8252,-4.8251,-4.8229,-4.8297,-4.8309,-4.8212,-4.8285,-4.8331,-4.8268,-4.8216,-4.8158,-4.8195,-4.8163,-4.82,-4.825,-4.8154,-4.8145,-4.8165,-4.8184,-4.8169,-4.8307,-4.825,-4.8249,-4.8239,-4.8292,-4.8277,-4.8353,-4.8305,-4.8361,-4.8418,-4.8429,-4.8357,-4.8419,-4.845,-4.8501,-4.8458,-4.8513,-4.846,-4.8588,-4.85,-4.8612,-4.8626,-4.8585,-4.866,-4.8549,-4.8572,-4.8556,-4.8563,-4.8592,-4.859,-4.8496,-4.8376,-4.832,-4.8402,-4.8395,-4.8332,-4.8363,-4.8149,-4.8072,-4.8123,-4.8144,-4.8239,-4.8245,-4.8085,-4.8066,-4.82,-4.8359,-4.8508,-4.882,-4.8797,-4.882,-4.8907,-4.8782,-4.8807,-4.8792,-4.8675,-4.874,-4.8781,-4.8789,-4.8746,-4.8406,-4.7412,-4.6654,-4.4718,-4.2277,-4.071,-4.0001,-4.1102,-4.4984,-4.7831,-4.8278,-4.9438,-5.0418,-5.0251,-4.9504,-4.8733,-4.8684,-4.882,-4.8815,-4.8876,-4.8729,-4.8853,-4.8843,-4.883,-4.8698,-4.8743,-4.867,-4.8759,-4.8691,-4.8681,-4.8658,-4.8597,-4.8552,-4.8505,-4.8483,-4.8493,-4.8329,-4.8361,-4.8282,-4.8217,-4.8276,-4.8196,-4.8127,-4.8079,-4.7935,-4.7881,-4.7768,-4.7753,-4.765,-4.7612,-4.752,-4.7468,-4.7288,-4.7186,-4.7125,-4.715,-4.7102,-4.698,-4.6932,-4.6904,-4.6828,-4.6854,-4.6782,-4.6782,-4.6718,-4.6702,-4.6701,-4.6754,-4.6733,-4.6855,-4.6898,-4.7015,-4.7168,-4.7307,-4.7503,-4.7639,-4.779,-4.7978,-4.8189,-4.8306,-4.8438,-4.8542,-4.8635,-4.8688,-4.8764,-4.8791,-4.8785,-4.8753,-4.8774,-4.8769,-4.882,-4.8772,-4.8786,-4.8755,-4.8744,-4.8726,-4.8699,-4.8705,-4.8698,-4.8713,-4.8648,-4.8659,-4.8613,-4.8595,-4.866,-4.8623,-4.8677,-4.8593,-4.8648,-4.8688,-4.8639,-4.8606,-4.8683,-4.8698,-4.8762,-4.8778,-4.8759,-4.8821,-4.8866,-4.8799,-4.8867,-4.895,-4.8926,-4.8911,-4.8892,-4.8906,-4.8931,-4.8796,-4.8656,-4.8659,-4.8672,-4.8612,-4.8617,-4.8498,-4.84,-4.8369,-4.845,-4.8503,-4.8467,-4.8346,-4.8377,-4.8419,-4.8586,-4.8693,-4.8884,-4.9076,-4.909,-4.917,-4.9119,-4.9152,-4.9101,-4.9132,-4.9067,-4.9019,-4.9039,-4.9027,-4.9047,-4.8898,-4.8197,-4.6748,-4.4819,-4.2381,-4.0748,-4.0247,-4.1433,-4.5315,-4.7891,-4.8465,-4.9374,-5.0412,-5.0571,-4.9913,-4.8903,-4.8824,-4.8985,-4.9005,-4.908,-4.8937,-4.9051,-4.9006,-4.9019,-4.8911,-4.8924,-4.8841,-4.8894,-4.8827,-4.8817,-4.8755,-4.8762,-4.8733,-4.8761,-4.8636,-4.8573,-4.8553,-4.8549,-4.8438,-4.8338,-4.8314,-4.8325,-4.8176,-4.8159,-4.8095,-4.8034,-4.7928,-4.7914,-4.7801,-4.7683,-4.7601,-4.7493,-4.7395,-4.7306,-4.7206,-4.7176,-4.7041,-4.6985,-4.6931,-4.6879,-4.6901,-4.6841,-4.6737,-4.6733,-4.6759,-4.67,-4.6685,-4.6638,-4.6738,-4.682,-4.6937,-4.7016,-4.7124,-4.7314,-4.7583,-4.778,-4.7951,-4.8124,-4.8284,-4.8376,-4.8479,-4.8577,-4.8691,-4.8681,-4.8801,-4.8871,-4.888,-4.8914,-4.8973,-4.896,-4.9009,-4.9,-4.8989,-4.8916,-4.8893,-4.8925,-4.8941,-4.8892,-4.8856,-4.8838,-4.8883,-4.8775,-4.8772,-4.8757,-4.8747,-4.8709,-4.8724,-4.8718,-4.8738,-4.8713,-4.8764,-4.8739,-4.8753,-4.8733,-4.8816,-4.8836,-4.884,-4.8876,-4.8842,-4.8859,-4.895,-4.8927,-4.8938,-4.893,-4.8862,-4.8786,-4.8705,-4.8664,-4.8629,-4.8556,-4.8583,-4.8603,-4.852,-4.8431,-4.8332,-4.8388,-4.8353,-4.8481,-4.8383,-4.8313,-4.8444,-4.8621,-4.8815,-4.8969,-4.9066,-4.9058,-4.9114,-4.9107,-4.914,-4.9052,-4.9073,-4.899,-4.9044,-4.8988,-4.9025,-4.9015,-4.8663,-4.779,-4.6262,-4.4054,-4.146,-3.9711,-4.0332,-4.4192,-4.7514,-4.8545,-4.9577,-5.0059,-5.0418,-5.0182,-4.8907,-4.8621,-4.8839,-4.8918,-4.9009,-4.8932,-4.887,-4.8811,-4.8878,-4.8863,-4.8838,-4.8805,-4.883,-4.8714,-4.8653,-4.8689,-4.8589,-4.8574,-4.853,-4.848,-4.8466,-4.8412,-4.8332,-4.83,-4.8239,-4.8215,-4.8098,-4.8028,-4.7942,-4.788,-4.7769,-4.7697,-4.7612,-4.7491,-4.7378,-4.7239,-4.717,-4.7118,-4.6999,-4.6896,-4.6881,-4.6658,-4.6635,-4.6643,-4.657,-4.6515,-4.6467,-4.6412,-4.637,-4.6376,-4.622,-4.6304,-4.6261,-4.628,-4.6368,-4.6495,-4.6648,-4.678,-4.6866,-4.7118,-4.7274,-4.7543,-4.7709,-4.7881,-4.8052,-4.8228,-4.8392,-4.8404,-4.8447,-4.8511,-4.8563,-4.8665,-4.8636,-4.863,-4.8645,-4.8599,-4.8654,-4.8642,-4.862,-4.8663,-4.8598,-4.8628,-4.8562,-4.853,-4.8504,-4.8491,-4.8517,-4.8495,-4.8493,-4.8491,-4.8526,-4.8513,-4.8467,-4.8506,-4.8478,-4.855,-4.8554,-4.857,-4.8606,-4.855,-4.8613,-4.863,-4.8599,-4.8639,-4.8707,-4.8729,-4.8783,-4.878,-4.8825,-4.8781,-4.8815,-4.8809,-4.8812,-4.8817,-4.8771,-4.8623,-4.8618,-4.8557,-4.8497,-4.8526,-4.8537,-4.8469,-4.8389,-4.8286,-4.8208,-4.8346,-4.8281,-4.8428,-4.8316,-4.824,-4.8387,-4.8629,-4.8808,-4.8915,-4.8981,-4.8976,-4.9002,-4.9004,-4.8975,-4.8983,-4.8955,-4.8886,-4.8876,-4.8964,-4.901,-4.8897,-4.8239,-4.687,-4.484,-4.2159,-3.9727,-3.9048,-4.2395,-4.664,-4.8153,-4.9247,-5.0177,-5.025,-5.0109,-4.9045,-4.8519,-4.8664,-4.8758,-4.8806,-4.88,-4.8808,-4.8821,-4.8813,-4.877,-4.8741,-4.8704,-4.8651,-4.8583,-4.8577,-4.856,-4.8539,-4.8471,-4.8459,-4.8404,-4.8435,-4.8337,-4.8333,-4.8234,-4.816,-4.8071,-4.8056,-4.7959,-4.7874,-4.7781,-4.7727,-4.7657,-4.7556,-4.7393,-4.7264,-4.7174,-4.7085,-4.696,-4.6936,-4.6794,-4.6747,-4.6698,-4.6626,-4.6582,-4.6438,-4.641,-4.6412,-4.6379,-4.632,-4.6289,-4.6165,-4.6205,-4.6158,-4.6232,-4.6262,-4.6354,-4.6507,-4.6738,-4.6841,-4.7047,-4.7192,-4.7341,-4.7622,-4.7823,-4.7997,-4.8162,-4.8312,-4.8372,-4.8491,-4.8541,-4.8567,-4.8665,-4.8661,-4.8715,-4.869,-4.8701,-4.8656,-4.8629,-4.872,-4.8663,-4.8614,-4.8597,-4.8589,-4.8607,-4.8555,-4.8556,-4.8605,-4.8613,-4.8597,-4.8598,-4.8601,-4.8633,-4.8558,-4.8613,-4.8609,-4.8556,-4.8576,-4.8645,-4.8693,-4.8763,-4.8731,-4.8752,-4.8757,-4.8778,-4.8834,-4.8935,-4.887,-4.886,-4.8924,-4.8981,-4.9034,-4.9063,-4.9059,-4.9084,-4.9048,-4.9057,-4.908,-4.9065,-4.9084,-4.8941,-4.8807,-4.884,-4.8773,-4.8677,-4.8728,-4.8814,-4.8778,-4.8584,-4.851,-4.8532,-4.851,-4.86,-4.8579,-4.8506,-4.8615,-4.8724,-4.8948,-4.9116,-4.9246,-4.9292,-4.927,-4.9302,-4.9265,-4.926,-4.9235,-4.9283,-4.9288,-4.9191,-4.9285,-4.9257,-4.8877,-4.7849,-4.6259,-4.3914,-4.1315,-3.9568,-4.0761,-4.4788,-4.7886,-4.8699,-4.9215,-5.0161,-5.0661,-5.0359,-4.9258,-4.8861,-4.9087,-4.908,-4.9129,-4.9171,-4.9185,-4.913,-4.9172,-4.9127,-4.9158,-4.91,-4.9101,-4.8955,-4.8949,-4.8947,-4.891,-4.8924,-4.8881,-4.8812,-4.8735,-4.8704,-4.8691,-4.8689,-4.8606,-4.8545,-4.8533,-4.8393,-4.8345,-4.8272,-4.8211,-4.8156,-4.8067,-4.79,-4.7797,-4.7722,-4.7628,-4.7661,-4.7557,-4.7447,-4.7329,-4.7247,-4.7271,-4.7126,-4.7069,-4.7035,-4.7011,-4.7001,-4.6949,-4.6881,-4.6864,-4.6883,-4.6897,-4.6978,-4.6947,-4.6986,-4.7032,-4.7109,-4.728,-4.747,-4.7601,-4.7821,-4.8004,-4.8224,-4.8413,-4.8579,-4.8682,-4.8812,-4.8928,-4.9083,-4.9065,-4.9125,-4.9092,-4.9076,-4.909,-4.9116,-4.9117,-4.9044,-4.9079,-4.902,-4.904,-4.9036,-4.8988,-4.8984,-4.8957,-4.8935,-4.8907,-4.8867,-4.8979,-4.8867,-4.8817,-4.8788,-4.8832,-4.8833,-4.8835,-4.8783,-4.8858,-4.8885,-4.8919,-4.9009,-4.9051,-4.8917,-4.8881,-4.8956,-4.9043,-4.91,-4.9041,-4.9131,-4.9143,-4.9013,-4.9088,-4.9145,-4.9207,-4.9218,-4.9198,-4.9148,-4.9083,-4.9008,-4.8911,-4.8909,-4.8804,-4.8763,-4.8814,-4.8832,-4.8826,-4.864,-4.8617,-4.8629,-4.8629,-4.8829,-4.8664,-4.8568,-4.8597,-4.8903,-4.9073,-4.9187,-4.9242,-4.923,-4.92,-4.9162,-4.9204,-4.9222,-4.9267,-4.9214,-4.9141,-4.9115,-4.9154,-4.9167,-4.8649,-4.7536,-4.5794,-4.3364,-4.1244,-4.0105,-4.2136,-4.6078,-4.8025,-4.8512,-4.8951,-5.009,-5.0783,-5.0448,-4.9398,-4.898,-4.9042,-4.9113,-4.9163,-4.9202,-4.9168,-4.919,-4.9214,-4.9213,-4.9156,-4.9111,-4.9125,-4.9024,-4.8989,-4.8862,-4.8902,-4.8956,-4.8925,-4.8913,-4.8855,-4.8742,-4.8694,-4.8646,-4.8592,-4.8535,-4.8509,-4.8472,-4.8454,-4.8346,-4.825,-4.8235,-4.7988,-4.7873,-4.7871,-4.7877,-4.7777,-4.7687,-4.759,-4.7462,-4.7513,-4.743,-4.7277,-4.7241,-4.7222,-4.7135,-4.7135,-4.7143,-4.7096,-4.6989,-4.6961,-4.6988,-4.6985,-4.6929,-4.7068,-4.712,-4.7234,-4.7367,-4.7387,-4.7649,-4.7865,-4.8072,-4.8328,-4.845,-4.8729,-4.881,-4.8921,-4.9002,-4.9098,-4.9209,-4.9228,-4.9226,-4.9209,-4.9176,-4.9207,-4.9266,-4.9302,-4.9242,-4.9281,-4.9218,-4.9119,-4.9138,-4.9206,-4.9209,-4.9133,-4.9047,-4.9067,-4.9073,-4.9068,-4.9077,-4.8967,-4.9004,-4.8976,-4.8986,-4.9081,-4.9072,-4.9047,-4.8978,-4.9148,-4.911,-4.9125,-4.9157,-4.9219,-4.9223,-4.9231,-4.9235,-4.9222,-4.9269,-4.9289,-4.9312,-4.9293,-4.9289,-4.9162,-4.9015,-4.8957,-4.9001,-4.8967,-4.8955,-4.8932,-4.8805,-4.8676,-4.8747,-4.8793,-4.8861,-4.8883,-4.8744,-4.8784,-4.8912,-4.9189,-4.9326,-4.9375,-4.9459,-4.9501,-4.9443,-4.9417,-4.9418,-4.9332,-4.9366,-4.9357,-4.9403,-4.9397,-4.9316,-4.9012,-4.8267,-4.6742,-4.4708,-4.2339,-4.0796,-4.0966,-4.4533,-4.7748,-4.8623,-4.9473,-5.0447,-5.0986,-5.0535,-4.9468,-4.917,-4.9267,-4.9323,-4.935,-4.9353,-4.938,-4.9328,-4.938,-4.936,-4.9333,-4.9226,-4.9228,-4.9252,-4.9177,-4.9129,-4.9099,-4.9028,-4.9035,-4.8963,-4.8932,-4.8902,-4.895,-4.8851,-4.8736,-4.868,-4.8639,-4.8518,-4.8486,-4.8483,-4.8381,-4.8247,-4.8246,-4.8147,-4.7993,-4.7833,-4.7707,-4.765,-4.7642,-4.7532,-4.7509,-4.7492,-4.7348,-4.7289,-4.7352,-4.7294,-4.7128,-4.7103,-4.7132,-4.711,-4.7,-4.7039,-4.7076,-4.706,-4.7154,-4.718,-4.7274,-4.7431,-4.761,-4.7844,-4.7991,-4.8049,-4.832,-4.8465,-4.8612,-4.8776,-4.8892,-4.8925,-4.8967,-4.9123,-4.9156,-4.9159,-4.92,-4.9257,-4.9218,-4.9202,-4.9237,-4.9215,-4.92,-4.9171,-4.9201,-4.921,-4.9064,-4.9076,-4.9103,-4.9129,-4.9095,-4.9019,-4.9068,-4.9106,-4.9,-4.9016,-4.8934,-4.8994,-4.9002,-4.8955,-4.8974,-4.8938,-4.8972,-4.9017,-4.9067,-4.907,-4.9112,-4.9151,-4.9159,-4.9207,-4.9195,-4.9174,-4.9189,-4.9191,-4.9066,-4.8951,-4.8876,-4.8815,-4.8794,-4.8861,-4.8844,-4.8735,-4.8629,-4.8609,-4.8672,-4.874,-4.8803,-4.8766,-4.8707,-4.8784,-4.9019,-4.9157,-4.9281,-4.9367,-4.9441,-4.9417,-4.9437,-4.9384,-4.9358,-4.9344,-4.9327,-4.9311,-4.931,-4.9354,-4.9205,-4.8648,-4.8049,-4.6437,-4.4095,-4.1529,-3.9838,-4.0904,-4.4784,-4.7976,-4.8978,-5.003,-5.0747,-5.0743,-4.9797,-4.9003,-4.913,-4.9277,-4.9336,-4.933,-4.9326,-4.9273,-4.9238,-4.9293,-4.9233,-4.9276,-4.922,-4.9207,-4.9104,-4.9128,-4.9064,-4.8991,-4.8961,-4.8938,-4.8901,-4.8818,-4.88,-4.8778,-4.8662,-4.8651,-4.858,-4.8498,-4.8473,-4.8414,-4.8317,-4.8205,-4.8143,-4.8064,-4.7948,-4.7817,-4.7712,-4.7641,-4.7598,-4.7481,-4.7325,-4.7276,-4.7227,-4.7128,-4.7077,-4.7008,-4.6944,-4.6917,-4.6926,-4.6841,-4.6862,-4.6824,-4.6786,-4.6791,-4.6876,-4.6965,-4.7074,-4.7166,-4.734,-4.7514,-4.7684,-4.7949,-4.813,-4.8267,-4.8454,-4.8651,-4.8812,-4.8911,-4.9012,-4.9021,-4.9061,-4.9103,-4.9177,-4.9241,-4.9239,-4.92,-4.9138,-4.917,-4.922,-4.92,-4.9146,-4.9136,-4.9091,-4.9058,-4.9064,-4.9135,-4.9067,-4.9012,-4.9052,-4.9066,-4.9029,-4.9039,-4.9028,-4.9031,-4.899,-4.904,-4.904,-4.9106,-4.9076,-4.9032,-4.9063,-4.9154,-4.9128,-4.9137,-4.9166,-4.9235,-4.9306,-4.9228,-4.9247,-4.926,-4.9328,-4.9328,-4.9395,-4.9393,-4.9352,-4.9353,-4.9277,-4.9218,-4.9143,-4.9034,-4.8977,-4.9026,-4.9039,-4.9018,-4.8846,-4.8749,-4.8734,-4.8856,-4.89,-4.8932,-4.8774,-4.8738,-4.8904,-4.9119,-4.9325,-4.9402,-4.9493,-4.943,-4.9475,-4.9417,-4.944,-4.9446,-4.9398,-4.9406,-4.9429,-4.9457,-4.9478,-4.9256,-4.8517,-4.786,-4.6082,-4.3474,-4.0896,-3.9383,-4.1434,-4.5732,-4.8258,-4.9257,-5.0315,-5.0736,-5.0548,-4.934,-4.8986,-4.9207,-4.9237,-4.9242,-4.9304,-4.9282,-4.9268,-4.9278,-4.9305,-4.92,-4.92,-4.9172,-4.9068,-4.9115,-4.9103,-4.9042,-4.8985,-4.899,-4.8887,-4.8849,-4.8806,-4.8717,-4.8652,-4.8637,-4.8576,-4.8518,-4.8513,-4.8434,-4.8375,-4.8224,-4.8175,-4.8056,-4.7996,-4.7853,-4.7769,-4.7665,-4.7542,-4.7471,-4.7395,-4.7299,-4.7149,-4.713,-4.7094,-4.7007,-4.6987,-4.6915,-4.6823,-4.6875,-4.6795,-4.6758,-4.6714,-4.6724,-4.6737,-4.6733,-4.6799,-4.6956,-4.7078,-4.7251,-4.7428,-4.7652,-4.7888,-4.8089,-4.8254,-4.847,-4.8597,-4.8695,-4.8853,-4.8923,-4.8947,-4.9023,-4.9104,-4.9133,-4.9192,-4.9173,-4.9202,-4.9201,-4.9242,-4.9246,-4.9192,-4.9167,-4.9144,-4.9172,-4.9142,-4.9171,-4.9125,-4.9153,-4.9175,-4.9198,-4.9238,-4.9206,-4.9161,-4.924,-4.9202,-4.9146,-4.9179,-4.922,-4.9222,-4.9269,-4.9292,-4.9228,-4.9325,-4.9385,-4.9407,-4.944,-4.9415,-4.9443,-4.9423,-4.9523,-4.9568,-4.9571,-4.9531,-4.9494,-4.9593,-4.9531,-4.9504,-4.9538,-4.9533,-4.958,-4.9588,-4.9513,-4.9361,-4.9374,-4.926,-4.9244,-4.9243,-4.9253,-4.9221,-4.9078,-4.8993,-4.8944,-4.8978,-4.9016,-4.9088,-4.9051,-4.9024,-4.9093,-4.925,-4.9403,-4.9582,-4.9653,-4.9661,-4.9659,-4.9642,-4.9713,-4.9676,-4.9612,-4.9655,-4.9578,-4.9604,-4.9563,-4.9576,-4.914,-4.8097,-4.634,-4.3919,-4.1472,-4.0101,-4.1852,-4.581,-4.8344,-4.9049,-5.0133,-5.1032,-5.1058,-5.0379,-4.9393,-4.9425,-4.9589,-4.9524,-4.9514,-4.9505,-4.9626,-4.9542,-4.9526,-4.9474,-4.954,-4.9517,-4.9386,-4.942,-4.9331,-4.9277,-4.9284,-4.9221,-4.9132,-4.9163,-4.9138,-4.9016,-4.9024,-4.9053,-4.8959,-4.8904,-4.8911,-4.875,-4.8693,-4.8473,-4.8474,-4.8346,-4.8351,-4.833,-4.8129,-4.8055,-4.7982,-4.7897,-4.7851,-4.7807,-4.771,-4.763,-4.7529,-4.7496,-4.7491,-4.7419,-4.7401,-4.7337,-4.7245,-4.7233,-4.7195,-4.7245,-4.7238,-4.723,-4.7297,-4.7381,-4.7506,-4.7555,-4.7706,-4.7928,-4.8134,-4.8234,-4.8403,-4.8684,-4.8765,-4.8886,-4.8986,-4.9117,-4.9153,-4.9211,-4.9283,-4.936,-4.9403,-4.9493,-4.9501,-4.9372,-4.9345,-4.9358,-4.932,-4.9328,-4.9362,-4.9308,-4.9236,-4.9195,-4.918,-4.9201,-4.9205,-4.9207,-4.9222,-4.9057,-4.9091,-4.9114,-4.91,-4.918,-4.9209,-4.9184,-4.9195,-4.9186,-4.9297,-4.9342,-4.9343,-4.9303,-4.9263,-4.9269,-4.9268,-4.9471,-4.9424,-4.9377,-4.9349,-4.9505,-4.9512,-4.9446,-4.9395,-4.9339,-4.9258,-4.9089,-4.9117,-4.9077,-4.9128,-4.916,-4.8977,-4.8874,-4.8867,-4.885,-4.8867,-4.901,-4.8944,-4.8925,-4.9005,-4.92,-4.9427,-4.9562,-4.9519,-4.9532,-4.9582,-4.9579,-4.9682,-4.9605,-4.9503,-4.9531,-4.9592,-4.9608,-4.9507,-4.9347,-4.9145,-4.7999,-4.6351,-4.4017,-4.1759,-4.0511,-4.203,-4.6045,-4.819,-4.8676,-4.9683,-5.0933,-5.1002,-5.0427,-4.9438,-4.9312,-4.9437,-4.9435,-4.9411,-4.9494,-4.9508,-4.9463,-4.944,-4.9421,-4.9395,-4.9351,-4.934,-4.9258,-4.9309,-4.9178,-4.9158,-4.9056,-4.9165,-4.9045,-4.9017,-4.8974,-4.8934,-4.8834,-4.8824,-4.8783,-4.8675,-4.8661,-4.8476,-4.8426,-4.8464,-4.83,-4.8264,-4.8219,-4.8072,-4.7924,-4.7902,-4.7799,-4.7599,-4.7613,-4.7593,-4.7564,-4.7435,-4.7369,-4.7399,-4.7261,-4.7312,-4.7308,-4.7218,-4.7149,-4.7168,-4.709,-4.7135,-4.726,-4.7303,-4.7329,-4.7461,-4.7584,-4.7773,-4.7901,-4.8117,-4.8351,-4.8514,-4.8673,-4.882,-4.8946,-4.9022,-4.9032,-4.9111,-4.9287,-4.922,-4.933,-4.916,-4.9393,-4.9361,-4.9341,-4.9329,-4.936,-4.931,-4.9294,-4.9203,-4.9199,-4.9238,-4.9126,-4.9199,-4.9161,-4.9151,-4.912,-4.9148,-4.9141,-4.9085,-4.9051,-4.9021,-4.9099,-4.9058,-4.9041,-4.9128,-4.9118,-4.9092,-4.9109,-4.9204,-4.9241,-4.9244,-4.915,-4.9228,-4.912,-4.9081,-4.8975,-4.8923,-4.8904,-4.8919,-4.8904,-4.8782,-4.8675,-4.8754,-4.8743,-4.8823,-4.8763,-4.867,-4.8735,-4.8836,-4.8947,-4.9094,-4.9291,-4.9357,-4.9476,-4.9449,-4.9449,-4.9449,-4.9388,-4.941,-4.9372,-4.9359,-4.9303,-4.9338,-4.9372,-4.9246,-4.8585,-4.7248,-4.5303,-4.296,-4.1077,-4.0383,-4.3413,-4.7099,-4.8332,-4.9124,-4.9587,-5.0622,-5.0797,-5.0217,-4.9169,-4.91,-4.9245,-4.9217,-4.9327,-4.9213,-4.9232,-4.913,-4.9186,-4.9163,-4.9217,-4.9159,-4.9186,-4.9085,-4.9053,-4.9002,-4.8989,-4.8937,-4.898,-4.8849,-4.8936,-4.876,-4.8699,-4.8639,-4.8636,-4.8552,-4.8591,-4.8387,-4.8356,-4.8209,-4.8174,-4.8097,-4.8032,-4.8007,-4.7837,-4.7721,-4.764,-4.7628,-4.7531,-4.7425,-4.7354,-4.7263,-4.7179,-4.7176,-4.7085,-4.707,-4.6996,-4.7016,-4.6957,-4.6988,-4.689,-4.6887,-4.6958,-4.6989,-4.7115,-4.7208,-4.743,-4.756,-4.7708,-4.7866,-4.808,-4.8292,-4.843,-4.8592,-4.867,-4.8792,-4.8913,-4.9009,-4.9126,-4.9151,-4.9172,-4.9093,-4.9186,-4.9156,-4.9142,-4.9238,-4.9242,-4.9275,-4.922,-4.9159,-4.9066,-4.911,-4.904,-4.9033,-4.9032,-4.9009,-4.8962,-4.8967,-4.8973,-4.8953,-4.8958,-4.8917,-4.892,-4.9016,-4.8909,-4.8838,-4.8852,-4.8901,-4.894,-4.8973,-4.8813,-4.8828,-4.8697,-4.8624,-4.8622,-4.8638,-4.8626,-4.8464,-4.8419,-4.8458,-4.8495,-4.8563,-4.8523,-4.8408,-4.8488,-4.8555,-4.874,-4.8864,-4.9,-4.9064,-4.9088,-4.9114,-4.9093,-4.9122,-4.9124,-4.9114,-4.9056,-4.9006,-4.9064,-4.917,-4.9114,-4.8915,-4.8082,-4.6781,-4.4813,-4.2177,-4.0174,-3.9595,-4.1157,-4.5174,-4.7816,-4.8661,-4.9697,-5.0305,-5.0102,-4.9155,-4.8645,-4.8693,-4.8808,-4.8856,-4.8853,-4.8891,-4.8885,-4.8788,-4.8724,-4.8733,-4.8704,-4.8683,-4.8649,-4.8629,-4.8619,-4.8623,-4.8528,-4.8467,-4.8458,-4.8478,-4.8358,-4.8246,-4.8183,-4.8163,-4.812,-4.8079,-4.7938,-4.7827,-4.7721,-4.7671,-4.7593,-4.7449,-4.7392,-4.7314,-4.7184,-4.7069,-4.6985,-4.6889,-4.6801,-4.67,-4.6643,-4.6488,-4.6396,-4.6353,-4.6343,-4.6263,-4.6222,-4.6157,-4.6116,-4.6092,-4.6151,-4.6148,-4.6186,-4.6225,-4.6344,-4.6463,-4.6621,-4.6856,-4.7138,-4.7366,-4.7492,-4.7709,-4.787,-4.806,-4.821,-4.8268,-4.8397,-4.8439,-4.8496,-4.8546,-4.8615,-4.8613,-4.865,-4.8661,-4.869,-4.8652,-4.8638,-4.8617,-4.8633,-4.8586,-4.8645,-4.8619,-4.8624,-4.8611,-4.8604,-4.8566,-4.8585,-4.8601,-4.8573,-4.8516,-4.8549,-4.856,-4.8562,-4.8548,-4.8565,-4.8574,-4.8607,-4.8607,-4.8603,-4.862,-4.8635,-4.8631,-4.8666,-4.8638,-4.8564,-4.8487,-4.8431,-4.8379,-4.8361,-4.8342,-4.8197,-4.821,-4.8189,-4.8162,-4.8256,-4.8317,-4.8269,-4.8182,-4.8198,-4.833,-4.8491,-4.8739,-4.8899,-4.8943,-4.8946,-4.8967,-4.8948,-4.8903,-4.8877,-4.887,-4.8827,-4.8829,-4.8834,-4.8885,-4.8869,-4.8585,-4.772,-4.6137,-4.3811,-4.0982,-3.8897,-3.9659,-4.3777,-4.7535,-4.866,-4.9738,-5.0219,-5.0092,-4.8974,-4.8382,-4.8549,-4.8611,-4.8724,-4.8699,-4.8707,-4.8669,-4.8682,-4.8646,-4.8635,-4.8607,-4.8585,-4.8516,-4.8499,-4.8446,-4.8423,-4.8345,-4.8325,-4.8245,-4.823,-4.8159,-4.8111,-4.8024,-4.7985,-4.795,-4.7921,-4.7766,-4.7705,-4.7617,-4.7569,-4.744,-4.7359,-4.7239,-4.7136,-4.702,-4.6927,-4.6794,-4.6708,-4.6593,-4.6501,-4.6411,-4.6336,-4.6232,-4.6127,-4.6108,-4.6061,-4.6026,-4.597,-4.5881,-4.586,-4.5832,-4.5842,-4.5886,-4.5925,-4.596,-4.6067,-4.6259,-4.6437,-4.6641,-4.6843,-4.707,-4.7303,-4.75,-4.7679,-4.7765,-4.7875,-4.7993,-4.8092,-4.8208,-4.8252,-4.8352,-4.8328,-4.8347,-4.8339,-4.8336,-4.8335,-4.8332,-4.8313,-4.8305,-4.827,-4.8277,-4.8247,-4.8224,-4.8229,-4.8225,-4.8184,-4.8214,-4.8199,-4.8214,-4.8208,-4.8207,-4.8215,-4.8245,-4.8253,-4.8283,-4.8287,-4.8296,-4.8315,-4.8333,-4.8334,-4.837,-4.8379,-4.8409,-4.8427,-4.8445,-4.8446,-4.8492,-4.8466,-4.8448,-4.8363,-4.822,-4.818,-4.8113,-4.8136,-4.8151,-4.8013,-4.7915,-4.7895,-4.7988,-4.8058,-4.7925,-4.7839,-4.7881,-4.7921,-4.799,-4.8167,-4.8412,-4.851,-4.8578,-4.86,-4.8603,-4.8571,-4.8569,-4.8551,-4.8517,-4.8484,-4.8447,-4.8477,-4.8532,-4.8524,-4.8054,-4.6877,-4.4952,-4.2316,-3.9687,-3.8737,-3.9166,-4.3034,-4.6948,-4.8006,-4.9104,-4.9844,-4.9876,-4.9086,-4.808,-4.8124,-4.8318,-4.8311,-4.8338,-4.8294,-4.832,-4.8267,-4.8277,-4.8236,-4.8234,-4.8183,-4.8184,-4.8127,-4.8109,-4.8061,-4.8071,-4.7981,-4.7943,-4.7884,-4.7834,-4.7762,-4.7738,-4.7667,-4.7603,-4.753,-4.7465,-4.7363,-4.7276,-4.7211,-4.7102,-4.7046,-4.6949,-4.6839,-4.6734,-4.6641,-4.6556,-4.6429,-4.6357,-4.6258,-4.6152,-4.6077,-4.6011,-4.5935,-4.588,-4.5808,-4.5776,-4.5705,-4.567,-4.5615,-4.5583,-4.5601,-4.5606,-4.5636,-4.5691,-4.5789,-4.5925,-4.6136,-4.6325,-4.6552,-4.6753,-4.6993,-4.7174,-4.7378,-4.7527,-4.771,-4.7803,-4.7925,-4.8006,-4.8076,-4.8154,-4.8207,-4.8114,-4.8153,-4.8123,-4.8143,-4.8112,-4.8101,-4.8086,-4.8122,-4.8076,-4.8045,-4.8026,-4.8065,-4.8035,-4.8003,-4.8009,-4.802,-4.8058,-4.803,-4.8006,-4.8019,-4.8026,-4.8068,-4.8101,-4.809,-4.8085,-4.8118,-4.8166,-4.8175,-4.8196,-4.8225,-4.8246,-4.8293,-4.8299,-4.8329,-4.8345,-4.836,-4.8386,-4.8404,-4.8432,-4.8415,-4.8443,-4.8456,-4.8466,-4.8451,-4.8429,-4.8386,-4.8359,-4.8188,-4.814,-4.805,-4.8054,-4.8063,-4.8048,-4.8024,-4.7936,-4.8039,-4.8041,-4.7887,-4.7841,-4.7845,-4.7846,-4.7969,-4.8166,-4.8416,-4.8499,-4.8563,-4.856,-4.8566,-4.8537,-4.8524,-4.8481,-4.8468,-4.8443,-4.8426,-4.8442,-4.8416,-4.8313,-4.7656,-4.6265,-4.413,-4.2744,-4.0149,-3.8414,-4.0157,-4.4382,-4.7285,-4.8022,-4.9181,-4.9805,-4.9739,-4.8647,-4.7969,-4.8027,-4.8227,-4.8218,-4.8229,-4.818,-4.82,-4.8164,-4.8205,-4.8175,-4.8128,-4.811,-4.8079,-4.8022,-4.8017,-4.7974,-4.7889,-4.7889,-4.7869,-4.7762,-4.7734,-4.7673,-4.7632,-4.7591,-4.7504,-4.743,-4.738,-4.7302,-4.7221,-4.7186,-4.7093,-4.7006,-4.6896,-4.6816,-4.6723,-4.6649,-4.6541,-4.6441,-4.6332,-4.6251,-4.6145,-4.6066,-4.5989,-4.5975,-4.592,-4.5858,-4.5795,-4.5779,-4.5736,-4.5726,-4.5677,-4.5648,-4.5667,-4.5678,-4.5687,-4.5787,-4.5878,-4.6031,-4.6218,-4.6451,-4.665,-4.6875,-4.7085,-4.7282,-4.7455,-4.7631,-4.7729,-4.7807,-4.7908,-4.7935,-4.7985,-4.801,-4.8014,-4.8034,-4.8028,-4.8033,-4.8006,-4.8008,-4.7972,-4.7962,-4.795,-4.7966,-4.793,-4.7965,-4.795,-4.7961,-4.793,-4.794,-4.7953,-4.7958,-4.801,-4.8022,-4.7994,-4.8014,-4.8073,-4.8056,-4.8092,-4.8087,-4.8085,-4.8132,-4.8168,-4.8192,-4.8252,-4.8299,-4.8308,-4.8359,-4.835,-4.8388,-4.8354,-4.8393,-4.8443,-4.8429,-4.8462,-4.8454,-4.8505,-4.8482,-4.8501,-4.847,-4.8376,-4.8278,-4.8216,-4.8131,-4.8102,-4.814,-4.8075,-4.8081,-4.8008,-4.7909,-4.7977,-4.7992,-4.7941,-4.7849,-4.7837,-4.7847,-4.8001,-4.8177,-4.8409,-4.853,-4.8578,-4.8623,-4.8589,-4.8643,-4.86,-4.8581,-4.851,-4.8492,-4.8521,-4.8604,-4.8572,-4.8422,-4.8175,-4.7168,-4.5452,-4.3009,-4.0361,-3.8785,-4.0369,-4.448,-4.7306,-4.8019,-4.9062,-5,-4.9956,-4.9239,-4.8161,-4.8309,-4.846,-4.8496,-4.8536,-4.8523,-4.8503,-4.8517,-4.8526,-4.8486,-4.8426,-4.8354,-4.8324,-4.8311,-4.8307,-4.828,-4.8255,-4.8204,-4.8194,-4.8158,-4.8127,-4.8045,-4.7992,-4.7949,-4.7926,-4.784,-4.7822,-4.7695,-4.7599,-4.7504,-4.7454,-4.7387,-4.728,-4.7204,-4.7135,-4.7051,-4.6998,-4.6824,-4.6743,-4.6716,-4.6621,-4.6541,-4.651,-4.6465,-4.6381,-4.6323,-4.6323,-4.6298,-4.6274,-4.6209,-4.6133,-4.6123,-4.6173,-4.6152,-4.621,-4.6291,-4.6414,-4.6549,-4.6681,-4.6855,-4.7035,-4.7262,-4.7456,-4.7688,-4.7835,-4.7961,-4.8059,-4.8171,-4.8272,-4.8309,-4.8417,-4.8431,-4.84,-4.8387,-4.8435,-4.8515,-4.848,-4.8482,-4.8456,-4.8369,-4.8424,-4.8453,-4.8475,-4.8395,-4.8389,-4.8333,-4.8343,-4.8325,-4.8345,-4.8359,-4.8358,-4.8397,-4.841,-4.8367,-4.8408,-4.8366,-4.8452,-4.8448,-4.8541,-4.8468,-4.8502,-4.8525,-4.8503,-4.8547,-4.8632,-4.8645,-4.8651,-4.8706,-4.8756,-4.877,-4.8705,-4.8712,-4.869,-4.8704,-4.8709,-4.8648,-4.8562,-4.8468,-4.8424,-4.8419,-4.8373,-4.831,-4.829,-4.8238,-4.8108,-4.8147,-4.8159,-4.8166,-4.8149,-4.8162,-4.8183,-4.8248,-4.8349,-4.86,-4.868,-4.8739,-4.8782,-4.8859,-4.8808,-4.884,-4.8697,-4.878,-4.8723,-4.8744,-4.877,-4.8698,-4.8477,-4.8227,-4.7214,-4.5629,-4.3331,-4.0978,-3.9692,-4.0846,-4.4618,-4.7347,-4.7849,-4.8586,-4.986,-5.0309,-4.983,-4.8702,-4.8432,-4.8599,-4.865,-4.8623,-4.8587,-4.862,-4.8648,-4.8657,-4.8633,-4.8665,-4.8609,-4.8495,-4.8475,-4.8501,-4.8367,-4.836,-4.8331,-4.8374,-4.8321,-4.8216,-4.8139,-4.8057,-4.8065,-4.8059,-4.7971,-4.7926,-4.789,-4.7846,-4.7708,-4.7646,-4.7587,-4.7493,-4.7413,-4.7368,-4.729,-4.7167,-4.7102,-4.7048,-4.6942,-4.6865,-4.6827,-4.6656,-4.6617,-4.6629,-4.659,-4.6554,-4.6565,-4.6447,-4.6469,-4.6503,-4.6496,-4.6539,-4.65,-4.6479,-4.6624,-4.6659,-4.6789,-4.7007,-4.7121,-4.7359,-4.7546,-4.7764,-4.7957,-4.8111,-4.8235,-4.8269,-4.8336,-4.8459,-4.8532,-4.8552,-4.8614,-4.8663,-4.8603,-4.8583,-4.8657,-4.8709,-4.8636,-4.8583,-4.8617,-4.8594,-4.857,-4.8452,-4.847,-4.847,-4.847,-4.8431,-4.8439,-4.8392,-4.8388,-4.8457,-4.8403,-4.8377,-4.8368,-4.8436,-4.8445,-4.8403,-4.8451,-4.8428,-4.8554,-4.8556,-4.8606,-4.8537,-4.8549,-4.8551,-4.8458,-4.8398,-4.8375,-4.8338,-4.8346,-4.8273,-4.8222,-4.8086,-4.8081,-4.8181,-4.828,-4.8248,-4.8091,-4.812,-4.8133,-4.8277,-4.8464,-4.8671,-4.8772,-4.8831,-4.8872,-4.8873,-4.8854,-4.8801,-4.8771,-4.8758,-4.8729,-4.8754,-4.873,-4.8757,-4.8686,-4.8233,-4.7053,-4.5308,-4.3006,-4.0855,-3.975,-4.1608,-4.5607,-4.7848,-4.8319,-4.9193,-4.9826,-5.0353,-5.0024,-4.8941,-4.8559,-4.8677,-4.8796,-4.8745,-4.8763,-4.8692,-4.8725,-4.8705,-4.8686,-4.8651,-4.8668,-4.8583,-4.8568,-4.8459,-4.8416,-4.8412,-4.844,-4.8359,-4.8381,-4.8289,-4.8214,-4.8173,-4.8158,-4.8051,-4.7995,-4.7958,-4.786,-4.7858,-4.777,-4.7708,-4.7588,-4.753,-4.7385,-4.7311,-4.7194,-4.7162,-4.7088,-4.7005,-4.6915,-4.6799,-4.6725,-4.6663,-4.6693,-4.6681,-4.661,-4.6557,-4.654,-4.646,-4.6448,-4.6435,-4.6423,-4.6501,-4.65,-4.6601,-4.6618,-4.6782,-4.7066,-4.7155,-4.7341,-4.7472,-4.7639,-4.7857,-4.8031,-4.8222,-4.84,-4.8424,-4.8477,-4.8538,-4.8601,-4.8697,-4.8646,-4.8722,-4.8747,-4.8782,-4.8784,-4.8749,-4.8703,-4.8666,-4.8683,-4.8635,-4.8629,-4.859,-4.8624,-4.8575,-4.8564,-4.8521,-4.8503,-4.8533,-4.8482,-4.8475,-4.8482,-4.8487,-4.8529,-4.8492,-4.8545,-4.8524,-4.8482,-4.8512,-4.8414,-4.834,-4.8223,-4.8206,-4.8207,-4.8179,-4.806,-4.7978,-4.8014,-4.8154,-4.8217,-4.8142,-4.8065,-4.8165,-4.8229,-4.8349,-4.8529,-4.8695,-4.8836,-4.883,-4.8865,-4.889,-4.8838,-4.8856,-4.8771,-4.8808,-4.8763,-4.8742,-4.8733,-4.8724,-4.8459,-4.768,-4.6212,-4.41,-4.1669,-3.995,-4.0179,-4.3676,-4.7203,-4.7848,-4.8477,-4.9482,-5.0271,-5.0051,-4.9123,-4.8436,-4.8489,-4.8693,-4.8633,-4.8678,-4.8668,-4.8746,-4.8682,-4.8689,-4.8584,-4.8608,-4.8563,-4.8492,-4.8449,-4.8434,-4.8403,-4.8351,-4.8373,-4.833,-4.8329,-4.8158,-4.8139,-4.809,-4.8017,-4.7955,-4.7843,-4.7818,-4.7744,-4.7681,-4.7602,-4.7488,-4.7419,-4.7323,-4.7144,-4.7073,-4.7034,-4.6988,-4.6863,-4.6788,-4.6699,-4.6596,-4.6501,-4.6461,-4.642,-4.6305,-4.628,-4.6254,-4.6193,-4.6183,-4.6148,-4.6176,-4.6234,-4.6276,-4.6326,-4.6444,-4.6514,-4.6646,-4.6849,-4.7012,-4.7239,-4.7455,-4.7623,-4.7806,-4.8004,-4.8171,-4.823,-4.8249,-4.8314,-4.845,-4.8501,-4.8498,-4.8529,-4.8561,-4.8512,-4.8514,-4.8537,-4.8515,-4.8542,-4.848,-4.8495,-4.8434,-4.8425,-4.8358,-4.8352,-4.8366,-4.8336,-4.8279,-4.827,-4.8197,-4.8216,-4.8246,-4.827,-4.8239,-4.8319,-4.8281,-4.8263,-4.832,-4.828,-4.8268,-4.8237,-4.8195,-4.8146,-4.7994,-4.7917,-4.799,-4.7951,-4.7838,-4.7746,-4.7766,-4.789,-4.7983,-4.7924,-4.7775,-4.7864,-4.7913,-4.7978,-4.8183,-4.8369,-4.848,-4.8566,-4.8613,-4.8608,-4.8557,-4.8562,-4.8494,-4.8536,-4.8475,-4.8457,-4.8512,-4.8513,-4.8431,-4.788,-4.6671,-4.4621,-4.2003,-4.0719,-3.8989,-3.9795,-4.3873,-4.717,-4.8236,-4.9208,-4.9941,-4.9714,-4.8916,-4.8102,-4.8274,-4.8374,-4.8467,-4.8338,-4.8481,-4.8385,-4.8483,-4.8374,-4.8382,-4.8294,-4.8359,-4.8214,-4.8251,-4.8207,-4.8205,-4.8055,-4.8014,-4.7943,-4.792,-4.7818,-4.7812,-4.7711,-4.7708,-4.7587,-4.7534,-4.7483,-4.7376,-4.7295,-4.7187,-4.7097,-4.7056,-4.6967,-4.6865,-4.6721,-4.6646,-4.6548,-4.6416,-4.633,-4.6324,-4.6207,-4.6043,-4.5968,-4.5944,-4.5878,-4.5856,-4.5816,-4.5811,-4.576,-4.5721,-4.5722,-4.5731,-4.5735,-4.5796,-4.5916,-4.6031,-4.6175,-4.6347,-4.6579,-4.674,-4.6993,-4.72,-4.7404,-4.759,-4.7729,-4.7825,-4.7915,-4.7997,-4.8084,-4.8155,-4.8191,-4.8168,-4.8186,-4.818,-4.8212,-4.8156,-4.8212,-4.8179,-4.8174,-4.8118,-4.8126,-4.8087,-4.8074,-4.8071,-4.8063,-4.8037,-4.804,-4.8066,-4.8054,-4.804,-4.8059,-4.8006,-4.8061,-4.8079,-4.8146,-4.8099,-4.8082,-4.8056,-4.8078,-4.8154,-4.8185,-4.8153,-4.8224,-4.8187,-4.8267,-4.8302,-4.8314,-4.8294,-4.8351,-4.8304,-4.8345,-4.8288,-4.821,-4.804,-4.802,-4.797,-4.7986,-4.7967,-4.7881,-4.7826,-4.7883,-4.7948,-4.7936,-4.7788,-4.774,-4.7792,-4.7874,-4.8027,-4.827,-4.8405,-4.8414,-4.8451,-4.8436,-4.8528,-4.844,-4.8451,-4.8427,-4.8395,-4.8364,-4.8365,-4.8428,-4.8493,-4.8267,-4.755,-4.6107,-4.3946,-4.109,-3.893,-3.9002,-4.2787,-4.6706,-4.7427,-4.8449,-4.9499,-4.9747,-4.9565,-4.8274,-4.798,-4.817,-4.8246,-4.8295,-4.8323,-4.8327,-4.8246,-4.8273,-4.8292,-4.8279,-4.8173,-4.8191,-4.81,-4.8095,-4.8064,-4.8064,-4.7985,-4.7915,-4.7897,-4.7825,-4.7793,-4.7759,-4.7687,-4.7635,-4.7529,-4.7487,-4.7397,-4.7324,-4.7226,-4.7164,-4.7092,-4.6969,-4.6847,-4.6755,-4.6669,-4.6612,-4.6523,-4.6375,-4.6284,-4.6186,-4.6147,-4.6031,-4.5979,-4.586,-4.5841,-4.5812,-4.5773,-4.5712,-4.5669,-4.5611,-4.5589,-4.5588,-4.5695,-4.5745,-4.5836,-4.592,-4.6022,-4.6243,-4.6407,-4.6639,-4.689,-4.7068,-4.7289,-4.7452,-4.7622,-4.7738,-4.7839,-4.7942,-4.7999,-4.8066,-4.808,-4.8074,-4.8136,-4.8097,-4.8072,-4.8072,-4.8122,-4.8077,-4.8032,-4.8017,-4.798,-4.7995,-4.8009,-4.7977,-4.8016,-4.7964,-4.7952,-4.7975,-4.793,-4.7939,-4.793,-4.7924,-4.7988,-4.7998,-4.8001,-4.8019,-4.8026,-4.806,-4.8119,-4.815,-4.8133,-4.8151,-4.8162,-4.8206,-4.8212,-4.8233,-4.8235,-4.8263,-4.8285,-4.8256,-4.8296,-4.8345,-4.8383,-4.8321,-4.8337,-4.8317,-4.8339,-4.8368,-4.8328,-4.8395,-4.8416,-4.8379,-4.8293,-4.8271,-4.8109,-4.8035,-4.7966,-4.7959,-4.7961,-4.7912,-4.7872,-4.7881,-4.7972,-4.7931,-4.7768,-4.7757,-4.7811,-4.775,-4.79,-4.8061,-4.8294,-4.8389,-4.8395,-4.8461,-4.8463,-4.842,-4.8454,-4.8389,-4.8326,-4.8328,-4.8294,-4.8382,-4.8403,-4.8113,-4.7213,-4.558,-4.4441,-4.1785,-3.928,-3.848,-4.1431,-4.5779,-4.7343,-4.8527,-4.9462,-4.9727,-4.9315,-4.81,-4.7886,-4.8147,-4.8171,-4.8285,-4.8165,-4.8279,-4.8183,-4.8257,-4.8103,-4.8194,-4.8098,-4.821,-4.8116,-4.8116,-4.8053,-4.8041,-4.7967,-4.7927,-4.7799,-4.7796,-4.7762,-4.7723,-4.7649,-4.7644,-4.7516,-4.7511,-4.7394,-4.7322,-4.7306,-4.7232,-4.714,-4.7082,-4.6952,-4.6884,-4.6749,-4.6698,-4.6599,-4.6561,-4.6466,-4.6349,-4.6222,-4.6188,-4.6125,-4.6127,-4.5996,-4.5993,-4.5961,-4.5907,-4.5871,-4.5882,-4.5839,-4.5838,-4.5863,-4.5871,-4.6034,-4.6081,-4.6232,-4.64,-4.6595,-4.6796,-4.6984,-4.7182,-4.7413,-4.753,-4.7784,-4.7914,-4.8056,-4.8091,-4.817,-4.8224,-4.8331,-4.8323,-4.8342,-4.8343,-4.8393,-4.8373,-4.8317,-4.8279,-4.8295,-4.8276,-4.8307,-4.8346,-4.8347,-4.8281,-4.8354,-4.8258,-4.8308,-4.827,-4.8304,-4.823,-4.8291,-4.824,-4.8281,-4.8219,-4.8268,-4.8279,-4.8389,-4.8353,-4.8401,-4.8364,-4.8431,-4.8435,-4.8491,-4.8543,-4.8533,-4.8608,-4.86,-4.8682,-4.8667,-4.8633,-4.8677,-4.8693,-4.8654,-4.873,-4.8748,-4.8719,-4.8674,-4.8784,-4.8805,-4.884,-4.8799,-4.8748,-4.8804,-4.8701,-4.8648,-4.8553,-4.8538,-4.8492,-4.8411,-4.8436,-4.8426,-4.8399,-4.8326,-4.825,-4.8319,-4.8413,-4.8305,-4.8204,-4.8267,-4.8331,-4.8363,-4.8638,-4.8861,-4.8861,-4.8896,-4.8909,-4.8948,-4.8903,-4.8816,-4.8779,-4.8716,-4.8775,-4.8744,-4.8827,-4.8814,-4.8533,-4.7868,-4.6465,-4.4326,-4.1817,-3.9928,-3.9965,-4.3346,-4.6866,-4.7936,-4.8638,-4.9793,-5.0375,-5.0007,-4.9647,-4.8583,-4.8605,-4.8863,-4.8786,-4.8819,-4.8798,-4.8804,-4.8784,-4.881,-4.8766,-4.8797,-4.8691,-4.8664,-4.8604,-4.8597,-4.8554,-4.8585,-4.8526,-4.842,-4.8377,-4.8385,-4.8345,-4.8312,-4.8243,-4.815,-4.8065,-4.8101,-4.7968,-4.7983,-4.7862,-4.7797,-4.7708,-4.7642,-4.7468,-4.7411,-4.732,-4.7271,-4.7244,-4.7195,-4.7102,-4.7004,-4.6959,-4.6897,-4.6823,-4.6789,-4.677,-4.6694,-4.6703,-4.6597,-4.6577,-4.6628,-4.6568,-4.6597,-4.6613,-4.666,-4.6756,-4.6853,-4.7052,-4.7272,-4.7415,-4.7558,-4.7755,-4.7871,-4.812,-4.8231,-4.8423,-4.8463,-4.8584,-4.8674,-4.8791,-4.8783,-4.8828,-4.8778,-4.883,-4.8804,-4.8863,-4.8898,-4.8878,-4.8759,-4.8734,-4.8717,-4.8763,-4.8818,-4.8829,-4.8686,-4.8663,-4.8701,-4.865,-4.8655,-4.8686,-4.86,-4.8685,-4.8654,-4.8654,-4.8687,-4.8655,-4.8696,-4.8762,-4.8747,-4.8823,-4.8881,-4.8838,-4.8857,-4.8935,-4.887,-4.891,-4.8933,-4.8986,-4.9037,-4.8998,-4.9021,-4.8998,-4.9103,-4.903,-4.8957,-4.8963,-4.8793,-4.8752,-4.8681,-4.8672,-4.8692,-4.859,-4.8624,-4.8594,-4.8522,-4.8605,-4.863,-4.8493,-4.8477,-4.86,-4.857,-4.8747,-4.8944,-4.9115,-4.9127,-4.9179,-4.9182,-4.9232,-4.9259
