-4.96,-4.9633,-4.9583,-4.959,-4.9552,-4.9558,-4.9593,-4.9581,-4.9523,-4.9623,-4.9557,-4.954,-4.9562,-4.9584,-4.9555,-4.9557,-4.9547,-4.9533,-4.9608,-4.9643,-4.9628,-4.9594,-4.9624,-4.9564,-4.9563,-4.9472,-4.9307,-4.9398,-4.9376,-4.9206,-4.9163,-4.9232,-4.9146,-4.9225,-4.9146,-4.9115,-4.9052,-4.9049,-4.9187,-4.9228,-4.9441,-4.9698,-4.9725,-4.9749,-4.9795,-4.9831,-4.9775,-4.9808,-4.9805,-4.9807,-4.9761,-4.9753,-4.9789,-4.9777,-4.994,-5.0235,-5.0558,-5,-4.8325,-4.5614,-4.3264,-4.0809,-4.1446,-4.3641,-4.56,-4.6992,-4.9294,-5.1297,-5.1252,-5.1703,-5.1039,-5.0301,-4.9817,-4.9468,-4.9269,-4.9233,-4.9035,-4.9041,-4.8932,-4.8814,-4.8728,-4.8737,-4.8575,-4.8469,-4.8268,-4.8207,-4.8105,-4.8136,-4.815,-4.8077,-4.7931,-4.788,-4.7826,-4.7724,-4.7636,-4.7448,-4.7387,-4.7387,-4.7246,-4.7079,-4.692,-4.6701,-4.658,-4.6503,-4.6394,-4.6161,-4.5969,-4.5744,-4.5615,-4.534,-4.5158,-4.4931,-4.4661,-4.447,-4.444,-4.423,-4.4039,-4.393,-4.391,-4.3905,-4.3825,-4.3851,-4.3943,-4.4115,-4.4217,-4.4503,-4.4829,-4.5316,-4.5785,-4.6176,-4.6579,-4.6976,-4.7346,-4.7705,-4.8011,-4.8285,-4.8467,-4.8685,-4.8873,-4.8964,-4.9083,-4.915,-4.9255,-4.9315,-4.9387,-4.9272,-4.938,-4.9367,-4.941,-4.9366,-4.9392,-4.9464,-4.9505,-4.9478,-4.9431,-4.9384,-4.9404,-4.9359,-4.9389,-4.9393,-4.9424,-4.945,-4.9395,-4.9295,-4.93,-4.9286,-4.9254,-4.9264,-4.9234,-4.9218,-4.9147,-4.916,-4.9209,-4.915,-4.9166,-4.9092,-4.9044,-4.9027,-4.9068,-4.9042,-4.9073,-4.9032,-4.9026,-4.8991,-4.8952,-4.9004,-4.8957,-4.8934,-4.8927,-4.897,-4.8955,-4.8891,-4.8948,-4.9,-4.8977,-4.8996,-4.8968,-4.9019,-4.9017,-4.9064,-4.9082,-4.9024,-4.9047,-4.9116,-4.9061,-4.9081,-4.9055,-4.9118,-4.9125,-4.9128,-4.9209,-4.9142,-4.9106,-4.9117,-4.9179,-4.917,-4.9145,-4.9135,-4.9096,-4.913,-4.9071,-4.9097,-4.9069,-4.9064,-4.9044,-4.9061,-4.9023,-4.9043,-4.9078,-4.9044,-4.9044,-4.9005,-4.902,-4.9026,-4.9082,-4.9114,-4.9012,-4.9092,-4.9078,-4.9033,-4.9094,-4.9024,-4.9012,-4.8998,-4.9037,-4.8967,-4.8916,-4.8977,-4.8961,-4.8984,-4.8999,-4.8943,-4.8985,-4.8983,-4.8933,-4.9002,-4.8936,-4.8931,-4.8936,-4.8932,-4.8982,-4.8939,-4.8903,-4.8981,-4.8922,-4.8804,-4.8867,-4.8906,-4.8869,-4.8983,-4.8904,-4.8904,-4.893,-4.8937,-4.8959,-4.8929,-4.8874,-4.8911,-4.8957,-4.8901,-4.8945,-4.895,-4.8889,-4.8991,-4.9043,-4.8973,-4.9001,-4.8996,-4.8976,-4.8912,-4.8924,-4.8979,-4.8973,-4.8967,-4.8996,-4.8898,-4.8974,-4.8974,-4.9006,-4.8905,-4.8929,-4.9079,-4.8952,-4.8955,-4.8933,-4.8788,-4.8608,-4.8716,-4.8709,-4.8507,-4.8563,-4.8578,-4.8534,-4.8653,-4.8565,-4.8439,-4.8414,-4.8491,-4.8516,-4.8617,-4.8877,-4.9109,-4.9114,-4.9223,-4.916,-4.9173,-4.9213,-4.9137,-4.9178,-4.9137,-4.9127,-4.9131,-4.9133,-4.9101,-4.935,-4.9741,-4.9976,-4.9215,-4.7112,-4.4583,-4.1869,-3.9927,-4.2443,-4.4812,-4.6162,-4.7704,-4.9912,-5.0115,-4.9987,-5.0761,-5.021,-4.9701,-4.9125,-4.8814,-4.8571,-4.8564,-4.8328,-4.8458,-4.8148,-4.8273,-4.8177,-4.8119,-4.7952,-4.7868,-4.773,-4.7729,-4.7611,-4.7514,-4.7434,-4.7424,-4.7256,-4.7231,-4.7055,-4.6981,-4.6778,-4.6621,-4.6571,-4.6463,-4.622,-4.6197,-4.6063,-4.5799,-4.5599,-4.5435,-4.5119,-4.4935,-4.475,-4.4498,-4.4382,-4.4032,-4.3805,-4.351,-4.3283,-4.3055,-4.2755,-4.2599,-4.2404,-4.2227,-4.214,-4.2106,-4.2005,-4.1948,-4.2072,-4.2232,-4.2434,-4.2639,-4.3003,-4.3365,-4.3711,-4.3879,-4.4328,-4.466,-4.4937,-4.523,-4.5528,-4.5725,-4.588,-4.6015,-4.6173,-4.6282,-4.6296,-4.6305,-4.6389,-4.6325,-4.6338,-4.6399,-4.6342,-4.6348,-4.6341,-4.6315,-4.6326,-4.6259,-4.6299,-4.621,-4.6221,-4.6157,-4.6103,-4.6111,-4.6046,-4.6045,-4.6008,-4.5925,-4.5911,-4.5898,-4.5953,-4.5901,-4.5856,-4.5814,-4.5789,-4.58,-4.5748,-4.5709,-4.5662,-4.5573,-4.5578,-4.5528,-4.5495,-4.557,-4.5571,-4.5504,-4.5537,-4.5497,-4.5508,-4.5491,-4.5548,-4.5507,-4.5505,-4.5471,-4.5579,-4.5478,-4.5595,-4.5589,-4.559,-4.5488,-4.5577,-4.5679,-4.5581,-4.5585,-4.5631,-4.5593,-4.5536,-4.5527,-4.5612,-4.5601,-4.5492,-4.5546,-4.5615,-4.5515,-4.5499,-4.5496,-4.5452,-4.5481,-4.5423,-4.5496,-4.5435,-4.5457,-4.5419,-4.5386,-4.5373,-4.5378,-4.5308,-4.534,-4.5287,-4.5345,-4.5283,-4.516,-4.5292,-4.5198,-4.5298,-4.529,-4.5243,-4.5291,-4.5244,-4.5225,-4.5163,-4.52,-4.518,-4.5235,-4.5272,-4.5201,-4.5124,-4.5103,-4.5007,-4.4963,-4.4979,-4.4855,-4.4715,-4.4771,-4.4755,-4.4888,-4.4872,-4.4821,-4.477,-4.4733,-4.4766,-4.4804,-4.4951,-4.5261,-4.5407,-4.5524,-4.5537,-4.5603,-4.5525,-4.552,-4.5529,-4.5572,-4.5545,-4.5558,-4.5512,-4.5565,-4.569,-4.5877,-4.6274,-4.6526,-4.5811,-4.3816,-4.116,-3.8553,-3.6416,-3.7984,-4.0914,-4.2625,-4.4155,-4.6425,-4.6785,-4.7122,-4.7512,-4.6437,-4.6067,-4.5469,-4.5329,-4.5208,-4.519,-4.5086,-4.5073,-4.4949,-4.4927,-4.4864,-4.4731,-4.4662,-4.4571,-4.4451,-4.4453,-4.4274,-4.4298,-4.4162,-4.4175,-4.4049,-4.392,-4.3754,-4.3749,-4.3657,-4.3529,-4.3455,-4.334,-4.3143,-4.2973,-4.2828,-4.266,-4.2516,-4.2352,-4.2144,-4.19,-4.1696,-4.15,-4.126,-4.1033,-4.0832,-4.0596,-4.0351,-4.0191,-4.0046,-3.9968,-3.9854,-3.973,-3.9709,-3.9703,-3.9661,-3.9724,-3.9915,-4.0139,-4.05,-4.0915,-4.1347,-4.1844,-4.2248,-4.2745,-4.3124,-4.3511,-4.3816,-4.4135,-4.4431,-4.4561,-4.4746,-4.4881,-4.4998,-4.5124,-4.5259,-4.5281,-4.5397,-4.5437,-4.5428,-4.5518,-4.5567,-4.5578,-4.5653,-4.5671,-4.5655,-4.5682,-4.5762,-4.5733,-4.573,-4.5729,-4.574,-4.5688,-4.5732,-4.5781,-4.5817,-4.5766,-4.5855,-4.5815,-4.5882,-4.5892,-4.5833,-4.5802,-4.5774,-4.5776,-4.5765,-4.575,-4.5748,-4.5714,-4.5685,-4.5716,-4.5704,-4.5659,-4.5617,-4.5683,-4.5674,-4.5658,-4.5657,-4.5702,-4.5669,-4.5714,-4.579,-4.5707,-4.5806,-4.581,-4.5848,-4.5798,-4.587,-4.5856,-4.5899,-4.5905,-4.5897,-4.5965,-4.5938,-4.5974,-4.5976,-4.6001,-4.5967,-4.5935,-4.6023,-4.6091,-4.608,-4.6106,-4.6094,-4.6183,-4.6195,-4.6104,-4.6246,-4.6241,-4.6265,-4.6302,-4.6245,-4.6251,-4.6249,-4.6332,-4.6377,-4.6346,-4.6345,-4.6391,-4.6432,-4.6378,-4.6312,-4.6446,-4.6391,-4.6445,-4.6528,-4.648,-4.6483,-4.6614,-4.6506,-4.6527,-4.6569,-4.6575,-4.6585,-4.6575,-4.6621,-4.6734,-4.6758,-4.6707,-4.6723,-4.6715,-4.676,-4.6775,-4.6851,-4.6806,-4.6803,-4.6789,-4.689,-4.6859,-4.683,-4.6858,-4.6952,-4.6941,-4.6865,-4.6989,-4.6987,-4.6938,-4.7048,-4.7032,-4.7021,-4.7043,-4.6996,-4.7116,-4.7116,-4.7001,-4.6965,-4.7001,-4.6848,-4.69,-4.6836,-4.6688,-4.662,-4.6696,-4.6707,-4.6689,-4.6717,-4.6649,-4.6651,-4.664,-4.6663,-4.6707,-4.6855,-4.7128,-4.7359,-4.745,-4.7407,-4.742,-4.7379,-4.7356,-4.7459,-4.75,-4.7438,-4.7415,-4.7417,-4.7427,-4.7514,-4.7781,-4.8201,-4.8284,-4.7107,-4.4772,-4.231,-3.9721,-3.8179,-4.1334,-4.3417,-4.4589,-4.7119,-4.9019,-4.919,-4.941,-4.8994,-4.8047,-4.7979,-4.7396,-4.7235,-4.7043,-4.7044,-4.686,-4.6824,-4.6684,-4.6729,-4.6579,-4.6575,-4.6275,-4.6274,-4.6116,-4.6123,-4.603,-4.603,-4.5945,-4.5977,-4.5864,-4.5824,-4.5717,-4.5646,-4.5582,-4.5511,-4.5361,-4.5324,-4.5138,-4.5028,-4.4897,-4.4659,-4.4506,-4.4361,-4.4123,-4.3974,-4.3846,-4.3614,-4.3368,-4.3182,-4.2981,-4.2709,-4.2641,-4.247,-4.2285,-4.2135,-4.2028,-4.194,-4.1863,-4.1882,-4.1836,-4.1882,-4.2071,-4.2252,-4.2573,-4.3008,-4.3449,-4.3868,-4.4253,-4.4725,-4.5161,-4.5539,-4.5738,-4.5973,-4.6343,-4.6541,-4.6805,-4.6994,-4.7135,-4.7173,-4.7317,-4.7347,-4.7423,-4.7415,-4.7498,-4.7486,-4.754,-4.7493,-4.7601,-4.7568,-4.7553,-4.7492,-4.7552,-4.7501,-4.7537,-4.7496,-4.7399,-4.7516,-4.7553,-4.7526,-4.7532,-4.7507,-4.7524,-4.7457,-4.7431,-4.7429,-4.7446,-4.7341,-4.7289,-4.7263,-4.7315,-4.7312,-4.7331,-4.725,-4.7249,-4.724,-4.7182,-4.7248,-4.7156,-4.7177,-4.7136,-4.7172,-4.7185,-4.7169,-4.7198,-4.7185,-4.7198,-4.7266,-4.7265,-4.7265,-4.7317,-4.7355,-4.7309,-4.734,-4.7363,-4.7315,-4.7364,-4.7408,-4.7464,-4.7421,-4.7472,-4.747,-4.7426,-4.7528,-4.75,-4.7508,-4.7506,-4.7517,-4.7564,-4.7562,-4.7537,-4.7554,-4.7569,-4.7536,-4.761,-4.7647,-4.7578,-4.7625,-4.7584,-4.7534,-4.7554,-4.7524,-4.7611,-4.7581,-4.7551,-4.7544,-4.7534,-4.7579,-4.7529,-4.7523,-4.7521,-4.7546,-4.7614,-4.7609,-4.7633,-4.7626,-4.7644,-4.7672,-4.7675,-4.7715,-4.7659,-4.7722,-4.7686,-4.7726,-4.7687,-4.7709,-4.7737,-4.7786,-4.7731,-4.7738,-4.7748,-4.7743,-4.7767,-4.7845,-4.7851,-4.7834,-4.7892,-4.7906,-4.7851,-4.7879,-4.7946,-4.7888,-4.7869,-4.7905,-4.7944,-4.7932,-4.7902,-4.7875,-4.7924,-4.7935,-4.7942,-4.797,-4.7865,-4.7961,-4.7948,-4.7925,-4.796,-4.7924,-4.7906,-4.7957,-4.7925,-4.79,-4.7913,-4.7879,-4.7858,-4.7848,-4.7898,-4.7876,-4.7948,-4.7919,-4.7917,-4.7818,-4.7643,-4.7687,-4.7675,-4.7563,-4.7425,-4.749,-4.7517,-4.7551,-4.7619,-4.7511,-4.7459,-4.7369,-4.7542,-4.758,-4.765,-4.7931,-4.8173,-4.8179,-4.8155,-4.8201,-4.8208,-4.8136,-4.8219,-4.8199,-4.819,-4.8172,-4.8211,-4.8192,-4.8241,-4.8536,-4.884,-4.8848,-4.7719,-4.5393,-4.289,-4.0318,-3.8898,-4.2157,-4.4248,-4.5454,-4.791,-4.9743,-4.9881,-4.9991,-5.0019,-4.9039,-4.8713,-4.8212,-4.8044,-4.779,-4.7738,-4.7595,-4.7455,-4.7371,-4.7414,-4.7243,-4.7267,-4.7056,-4.6897,-4.683,-4.676,-4.6618,-4.6674,-4.6623,-4.66,-4.651,-4.6461,-4.6386,-4.6319,-4.6199,-4.6088,-4.5991,-4.5843,-4.5705,-4.5599,-4.541,-4.5257,-4.5112,-4.4955,-4.4764,-4.4581,-4.4371,-4.421,-4.4036,-4.3935,-4.3728,-4.3501,-4.3349,-4.3135,-4.2927,-4.2749,-4.2655,-4.2628,-4.2529,-4.2505,-4.2491,-4.2497,-4.2651,-4.2907,-4.3161,-4.3497,-4.3899,-4.4316,-4.4825,-4.5037,-4.5439,-4.5888,-4.6287,-4.655,-4.6908,-4.712,-4.7326,-4.7464,-4.7639,-4.7805,-4.7889,-4.7982,-4.8005,-4.8032,-4.807,-4.8102,-4.8169,-4.8167,-4.8107,-4.8129,-4.8181,-4.8137,-4.8157,-4.8151,-4.8089,-4.8064,-4.8015,-4.7987,-4.8062,-4.8064,-4.807,-4.8075,-4.8043,-4.7967,-4.8035,-4.7968,-4.7891,-4.7921,-4.8014,-4.7881,-4.7904,-4.7889,-4.7792,-4.7769,-4.7737,-4.7749,-4.7788,-4.7724,-4.7731,-4.7647,-4.7643,-4.7723,-4.7661,-4.7707,-4.7755,-4.7746,-4.7764,-4.7777,-4.7787,-4.7807,-4.7822,-4.7856,-4.7857,-4.7819,-4.7853,-4.7866,-4.782,-4.7788,-4.7819,-4.789,-4.7946,-4.7929,-4.7949,-4.7949,-4.7947,-4.7941,-4.7945,-4.7893,-4.7865,-4.7931,-4.7875,-4.7953,-4.7947,-4.7998,-4.7937,-4.7906,-4.7953,-4.7947,-4.7915,-4.79,-4.7893,-4.7891,-4.7858,-4.7874,-4.7861,-4.7823,-4.7782,-4.7725,-4.7737,-4.7693,-4.7674,-4.7713,-4.7765,-4.7736,-4.776,-4.7759,-4.7719,-4.7746,-4.7618,-4.7717,-4.7804,-4.7755,-4.7782,-4.7762,-4.7737,-4.7769,-4.7767,-4.7764,-4.778,-4.775,-4.7734,-4.7736,-4.7746,-4.7692,-4.7738,-4.7687,-4.7732,-4.7738,-4.7762,-4.7725,-4.7734,-4.7807,-4.7832,-4.7789,-4.7853,-4.7893,-4.7884,-4.7904,-4.7939,-4.7915,-4.7898,-4.794,-4.7913,-4.7999,-4.8006,-4.7971,-4.8062,-4.7979,-4.7989,-4.8104,-4.8014,-4.8079,-4.8031,-4.8075,-4.8024,-4.8013,-4.8108,-4.8135,-4.8063,-4.8035,-4.7977,-4.7891,-4.7889,-4.795,-4.778,-4.7732,-4.782,-4.7755,-4.776,-4.7786,-4.7843,-4.7709,-4.7655,-4.776,-4.7776,-4.8006,-4.8301,-4.8399,-4.8496,-4.8529,-4.8532,-4.8519,-4.8474,-4.8453,-4.8523,-4.851,-4.846,-4.8518,-4.8592,-4.8715,-4.9045,-4.9352,-4.9106,-4.7608,-4.4936,-4.2599,-3.9995,-4.0093,-4.3689,-4.5205,-4.6365,-4.9073,-4.9803,-4.9752,-5.0241,-5.0162,-4.9495,-4.901,-4.8514,-4.827,-4.8199,-4.8145,-4.8079,-4.798,-4.7955,-4.7857,-4.7794,-4.7651,-4.7567,-4.7411,-4.7374,-4.734,-4.7379,-4.7166,-4.7223,-4.7044,-4.6951,-4.6903,-4.6797,-4.6695,-4.6573,-4.6524,-4.6355,-4.6216,-4.6083,-4.5865,-4.5758,-4.553,-4.5373,-4.5273,-4.4986,-4.48,-4.4547,-4.443,-4.422,-4.3879,-4.3646,-4.3412,-4.3133,-4.2872,-4.2705,-4.2416,-4.2222,-4.2101,-4.199,-4.1861,-4.1788,-4.1892,-4.2067,-4.2196,-4.2402,-4.269,-4.3108,-4.3309,-4.3717,-4.4155,-4.4459,-4.4753,-4.5057,-4.5382,-4.5604,-4.5841,-4.593,-4.6075,-4.6127,-4.6195,-4.6218,-4.6306,-4.6289,-4.6319,-4.6262,-4.6274,-4.6293,-4.6285,-4.6196,-4.6207,-4.6236,-4.6215,-4.6168,-4.6126,-4.6023,-4.6017,-4.5987,-4.6119,-4.6086,-4.5977,-4.5958,-4.598,-4.5934,-4.5964,-4.5918,-4.5878,-4.5799,-4.579,-4.5814,-4.5726,-4.5582,-4.5575,-4.5646,-4.5474,-4.5407,-4.5342,-4.5386,-4.5364,-4.5297,-4.5319,-4.5217,-4.5241,-4.5294,-4.5228,-4.5301,-4.5301,-4.5228,-4.533,-4.533,-4.5322,-4.5368,-4.5317,-4.5334,-4.5269,-4.5337,-4.5391,-4.5255,-4.5341,-4.5321,-4.5375,-4.5309,-4.5282,-4.5318,-4.5235,-4.5241,-4.5245,-4.5222,-4.5203,-4.5246,-4.5254,-4.5232,-4.522,-4.5195,-4.5171,-4.5127,-4.5133,-4.5186,-4.5036,-4.5068,-4.5101,-4.5046,-4.5045,-4.5008,-4.4927,-4.4993,-4.4972,-4.5026,-4.4991,-4.5045,-4.5,-4.4959,-4.4956,-4.4963,-4.4831,-4.4909,-4.4922,-4.4729,-4.464,-4.4699,-4.4592,-4.4353,-4.4438,-4.4516,-4.4405,-4.4501,-4.4455,-4.4391,-4.4327,-4.4409,-4.4408,-4.447,-4.4719,-4.4957,-4.5026,-4.5066,-4.5136,-4.5094,-4.5062,-4.5091,-4.5133,-4.5059,-4.5071,-4.5047,-4.5138,-4.5185,-4.5265,-4.569,-4.5934,-4.5457,-4.4729,-4.234,-3.9766,-3.7045,-3.5853,-3.8916,-4.1041,-4.2745,-4.482,-4.5998,-4.5915,-4.6505,-4.6684,-4.577,-4.5454,-4.4984,-4.4781,-4.469,-4.4666,-4.4607,-4.4541,-4.4425,-4.445,-4.4268,-4.4241,-4.4077,-4.4079,-4.3868,-4.3821,-4.3757,-4.3709,-4.3583,-4.3551,-4.3463,-4.3381,-4.3293,-4.3204,-4.3149,-4.2975,-4.2823,-4.2709,-4.2609,-4.2391,-4.2266,-4.2109,-4.1963,-4.1773,-4.1545,-4.1408,-4.1096,-4.0851,-4.066,-4.0329,-4.0176,-3.9956,-3.9661,-3.9425,-3.9338,-3.9254,-3.9072,-3.8975,-3.8913,-3.8839,-3.8925,-3.9108,-3.9245,-3.9456,-3.9857,-4.0407,-4.0768,-4.1203,-4.1703,-4.2109,-4.2516,-4.2868,-4.3123,-4.3477,-4.3708,-4.3986,-4.4089,-4.4129,-4.432,-4.4361,-4.4342,-4.4464,-4.4486,-4.4451,-4.4569,-4.4545,-4.4586,-4.4572,-4.4554,-4.4615,-4.4648,-4.4558,-4.4532,-4.4553,-4.453,-4.4424,-4.4452,-4.4504,-4.446,-4.4441,-4.4448,-4.4523,-4.4482,-4.4473,-4.4426,-4.4458,-4.4387,-4.4347,-4.4316,-4.4297,-4.4268,-4.4205,-4.4185,-4.4219,-4.4134,-4.411,-4.4132,-4.4113,-4.4078,-4.4097,-4.4117,-4.421,-4.42,-4.4208,-4.4241,-4.4288,-4.4311,-4.4256,-4.4424,-4.4415,-4.4436,-4.44,-4.4465,-4.4462,-4.4469,-4.4442,-4.4468,-4.4483,-4.4529,-4.4482,-4.4487,-4.4519,-4.4554,-4.455,-4.4545,-4.4578,-4.4525,-4.4538,-4.4619,-4.4578,-4.4504,-4.4607,-4.4562,-4.454,-4.4639,-4.4567,-4.4539,-4.4597,-4.4628,-4.4565,-4.4597,-4.4545,-4.458,-4.459,-4.4607,-4.4543,-4.4592,-4.4626,-4.464,-4.4615,-4.4642,-4.4658,-4.4703,-4.4731,-4.4733,-4.4725,-4.4807,-4.4849,-4.4836,-4.4818,-4.4811,-4.4808,-4.4836,-4.4954,-4.4997,-4.4938,-4.4932,-4.4866,-4.4747,-4.4645,-4.4761,-4.4607,-4.4514,-4.4598,-4.4583,-4.4694,-4.4688,-4.4655,-4.4586,-4.4555,-4.4596,-4.4625,-4.4732,-4.5028,-4.5315,-4.5342,-4.5448,-4.5408,-4.54,-4.5436,-4.5442,-4.5471,-4.5457,-4.5468,-4.5448,-4.5441,-4.5514,-4.5848,-4.6203,-4.6151,-4.4897,-4.3761,-4.12,-3.8517,-3.6327,-3.7496,-4.0595,-4.2104,-4.3719,-4.6377,-4.7045,-4.7116,-4.7239,-4.6251,-4.584,-4.5274,-4.5263,-4.5073,-4.5089,-4.4979,-4.496,-4.4844,-4.485,-4.4796,-4.4779,-4.4628,-4.4524,-4.4345,-4.4285,-4.4236,-4.4156,-4.4102,-4.4027,-4.3923,-4.3895,-4.3735,-4.3698,-4.3587,-4.352,-4.3431,-4.3246,-4.3173,-4.3083,-4.2855,-4.2756,-4.2625,-4.2414,-4.2261,-4.2034,-4.1865,-4.1632,-4.1412,-4.1205,-4.0949,-4.0791,-4.0536,-4.0384,-4.0221,-4.0035,-3.9958,-3.9796,-3.9721,-3.9698,-3.9749,-3.9822,-3.9955,-4.0144,-4.0565,-4.0874,-4.1302,-4.1733,-4.2238,-4.2646,-4.3093,-4.3495,-4.3834,-4.4125,-4.44,-4.4606,-4.4805,-4.4976,-4.5092,-4.517,-4.5265,-4.5358,-4.5425,-4.5488,-4.55,-4.5517,-4.5521,-4.5594,-4.5678,-4.5614,-4.5652,-4.5649,-4.5672,-4.5632,-4.5626,-4.5593,-4.5615,-4.5586,-4.5633,-4.5684,-4.571,-4.573,-4.5696,-4.5672,-4.5673,-4.5663,-4.565,-4.5608,-4.5632,-4.561,-4.5616,-4.5564,-4.5591,-4.554,-4.547,-4.5504,-4.5494,-4.5462,-4.5506,-4.5543,-4.5489,-4.554,-4.5579,-4.5581,-4.5603,-4.5586,-4.5684,-4.5695,-4.5736,-4.5706,-4.5757,-4.5784,-4.5784,-4.586,-4.5943,-4.5943,-4.5924,-4.5977,-4.6,-4.6114,-4.6054,-4.6073,-4.6083,-4.6078,-4.6056,-4.6124,-4.6149,-4.609,-4.6118,-4.6145,-4.6168,-4.6158,-4.6162,-4.6199,-4.62,-4.6229,-4.6232,-4.6226,-4.6224,-4.6256,-4.6281,-4.627,-4.6299,-4.6307,-4.6263,-4.6197,-4.6193,-4.6285,-4.627,-4.6268,-4.63,-4.6319,-4.6314,-4.6315,-4.6288,-4.6367,-4.638,-4.6323,-4.6364,-4.6383,-4.6383,-4.6356,-4.6378,-4.6377,-4.6385,-4.6448,-4.6417,-4.648,-4.6451,-4.6422,-4.6488,-4.6436,-4.6454,-4.6463,-4.6543,-4.6541,-4.6577,-4.6616,-4.6584,-4.6625,-4.6571,-4.661,-4.6697,-4.6625,-4.663,-4.6683,-4.6587,-4.6598,-4.6606,-4.6675,-4.6746,-4.6632,-4.6548,-4.6518,-4.6402,-4.6402,-4.6349,-4.6159,-4.6165,-4.6269,-4.6122,-4.6163,-4.6255,-4.6202,-4.6077,-4.6113,-4.6128,-4.6185,-4.6358,-4.6621,-4.6802,-4.6907,-4.6861,-4.6909,-4.6874,-4.6861,-4.692,-4.6893,-4.6862,-4.6905,-4.6947,-4.6986,-4.6999,-4.7179,-4.7507,-4.7726,-4.7075,-4.5238,-4.2589,-4.0163,-3.7888,-3.9191,-4.2486,-4.3776,-4.5345,-4.8149,-4.8783,-4.8938,-4.8862,-4.7829,-4.7493,-4.689,-4.6834,-4.6645,-4.6597,-4.6498,-4.64,-4.6271,-4.6265,-4.6186,-4.6155,-4.5944,-4.5843,-4.5654,-4.5676,-4.5633,-4.5577,-4.5477,-4.5477,-4.5335,-4.5315,-4.5185,-4.5128,-4.5061,-4.5023,-4.4884,-4.4739,-4.4586,-4.4482,-4.4343,-4.4171,-4.3993,-4.3832,-4.3722,-4.3532,-4.3368,-4.3133,-4.2925,-4.2696,-4.2517,-4.2288,-4.2132,-4.1863,-4.1792,-4.1705,-4.1524,-4.1434,-4.1318,-4.125,-4.1343,-4.1356,-4.1532,-4.1685,-4.1959,-4.2346,-4.2801,-4.3194,-4.3631,-4.4121,-4.4567,-4.4907,-4.5275,-4.5631,-4.5746,-4.6015,-4.622,-4.6402,-4.6553,-4.6649,-4.6751,-4.684,-4.6934,-4.6937,-4.6987,-4.707,-4.7062,-4.7068,-4.7038,-4.7076,-4.717,-4.7182,-4.7172,-4.712,-4.7139,-4.7084,-4.708,-4.7073,-4.7108,-4.7127,-4.7121,-4.7089,-4.7086,-4.6927,-4.6981,-4.7088,-4.6994,-4.6928,-4.6929,-4.6892,-4.6913,-4.6825,-4.6867,-4.6818,-4.6799,-4.6791,-4.6747,-4.6764,-4.668,-4.6714,-4.6726,-4.6771,-4.6734,-4.6744,-4.6724,-4.6711,-4.6771,-4.6732,-4.6821,-4.6893,-4.6839,-4.685,-4.6844,-4.6849,-4.6868,-4.6882,-4.6918,-4.7039,-4.689,-4.68,-4.6963,-4.699,-4.6906,-4.6973,-4.6949,-4.6998,-4.7006,-4.7006,-4.7007,-4.6992,-4.7075,-4.7054,-4.7044,-4.7124,-4.7115,-4.7057,-4.7105,-4.7135,-4.7172,-4.706,-4.714,-4.714,-4.7138,-4.7167,-4.7167,-4.7125,-4.7133,-4.7118,-4.7064,-4.7043,-4.7038,-4.708,-4.6992,-4.71,-4.7119,-4.7169,-4.7138,-4.7102,-4.7128,-4.7111,-4.7064,-4.7179,-4.7228,-4.7205,-4.7235,-4.7232,-4.7251,-4.7229,-4.7204,-4.7226,-4.7348,-4.7252,-4.722,-4.7265,-4.7236,-4.721,-4.7179,-4.7212,-4.7223,-4.73,-4.7197,-4.7134,-4.7244,-4.7249,-4.721,-4.7226,-4.7241,-4.7185,-4.7264,-4.7287,-4.7237,-4.7221,-4.7187,-4.7265,-4.7235,-4.7187,-4.7169,-4.7264,-4.7213,-4.7199,-4.7222,-4.7193,-4.7106,-4.7114,-4.7115,-4.7066,-4.71,-4.7188,-4.7295,-4.7107,-4.7045,-4.6866,-4.6849,-4.6907,-4.6799,-4.6692,-4.666,-4.6668,-4.6715,-4.6777,-4.6793,-4.6712,-4.6626,-4.6689,-4.6678,-4.6814,-4.6944,-4.719,-4.7341,-4.7399,-4.7446,-4.745,-4.7473,-4.7445,-4.7379,-4.7448,-4.7432,-4.74,-4.7437,-4.7449,-4.753,-4.7749,-4.8017,-4.8238,-4.7377,-4.5177,-4.2589,-4.0065,-3.8081,-4.0594,-4.3303,-4.4608,-4.6476,-4.8852,-4.922,-4.9271,-4.9198,-4.8561,-4.811,-4.7422,-4.7341,-4.7029,-4.7107,-4.6827,-4.6942,-4.6692,-4.6781,-4.6653,-4.6639,-4.6428,-4.6389,-4.6169,-4.6126,-4.601,-4.605,-4.5985,-4.6013,-4.5842,-4.5868,-4.5721,-4.5701,-4.5519,-4.5497,-4.532,-4.5268,-4.5137,-4.4994,-4.4813,-4.4695,-4.4529,-4.4387,-4.4086,-4.3975,-4.3784,-4.3564,-4.3375,-4.3216,-4.2917,-4.283,-4.2687,-4.2457,-4.2232,-4.2102,-4.1934,-4.1793,-4.1777,-4.1789,-4.1765,-4.1775,-4.1894,-4.2048,-4.2347,-4.2635,-4.3059,-4.3494,-4.3955,-4.438,-4.4762,-4.4915,-4.5378,-4.5679,-4.6009,-4.6234,-4.6516,-4.6616,-4.6849,-4.6865,-4.6957,-4.7026,-4.7088,-4.7092,-4.7114,-4.716,-4.7144,-4.7118,-4.7134,-4.7139,-4.7099,-4.7102,-4.7205,-4.7124,-4.7166,-4.7071,-4.7025,-4.693,-4.6999,-4.6995,-4.7025,-4.693,-4.6943,-4.6906,-4.6881,-4.6831,-4.6793,-4.6725,-4.6735,-4.669,-4.6763,-4.6712,-4.6747,-4.6685,-4.6634,-4.6597,-4.6569,-4.6499,-4.6589,-4.6513,-4.6508,-4.6522,-4.6469,-4.651,-4.6557,-4.6578,-4.6579,-4.6607,-4.6561,-4.6558,-4.6687,-4.6685,-4.6736,-4.6732,-4.6735,-4.6754,-4.6765,-4.6696,-4.6727,-4.68,-4.6828,-4.6828,-4.6848,-4.6862,-4.6838,-4.6854,-4.6908,-4.6954,-4.691,-4.695,-4.694,-4.6954,-4.695,-4.6905,-4.6948,-4.6933,-4.6939,-4.7003,-4.7013,-4.7013,-4.7059,-4.7016,-4.699,-4.7029,-4.6998,-4.6985,-4.6981,-4.6997,-4.7036,-4.7029,-4.7045,-4.7001,-4.7007,-4.7051,-4.6967,-4.7046,-4.7079,-4.7041,-4.706,-4.708,-4.7055,-4.7057,-4.7069,-4.706,-4.7128,-4.7103,-4.7058,-4.7154,-4.7176,-4.7182,-4.7157,-4.7119,-4.7174,-4.7226,-4.7127,-4.7141,-4.7248,-4.722,-4.716,-4.723,-4.7138,-4.717,-4.7192,-4.7231,-4.7238,-4.7173,-4.7182,-4.7256,-4.7158,-4.7142,-4.7096,-4.7113,-4.7128,-4.7151,-4.7111,-4.7073,-4.7072,-4.7062,-4.6839,-4.6881,-4.6885,-4.6662,-4.6541,-4.6558,-4.6468,-4.6594,-4.6508,-4.6437,-4.6352,-4.6407,-4.6388,-4.6483,-4.6703,-4.6876,-4.6915,-4.696,-4.7016,-4.6982,-4.6981,-4.693,-4.6933,-4.6953,-4.6899,-4.6843,-4.683,-4.6952,-4.7121,-4.7423,-4.7731,-4.7253,-4.5565,-4.2825,-4.0262,-3.7914,-3.7513,-4.0826,-4.2828,-4.4381,-4.6204,-4.744,-4.7407,-4.792,-4.8162,-4.742,-4.7047,-4.6401,-4.6209,-4.605,-4.5933,-4.5774,-4.5862,-4.5651,-4.5613,-4.5494,-4.5463,-4.5334,-4.5171,-4.4976,-4.497,-4.4856,-4.4793,-4.4705,-4.4619,-4.4547,-4.4473,-4.4356,-4.4303,-4.4186,-4.4097,-4.3916,-4.3829,-4.3677,-4.355,-4.3394,-4.3333,-4.3122,-4.294,-4.2715,-4.2557,-4.2272,-4.2025,-4.1806,-4.1553,-4.1299,-4.1085,-4.0733,-4.059,-4.0411,-4.0183,-4.015,-3.9972,-3.9848,-3.9855,-3.9824,-3.989,-4.0024,-4.0209,-4.0444,-4.0796,-4.1244,-4.1696,-4.2047,-4.2448,-4.2859,-4.3249,-4.3573,-4.388,-4.4084,-4.4318,-4.4468,-4.4485,-4.4652,-4.4722,-4.4822,-4.4882,-4.496,-4.4963,-4.4938,-4.4957,-4.5062,-4.5067,-4.5001,-4.5074,-4.505,-4.5086,-4.4943,-4.4959,-4.4942,-4.4802,-4.4915,-4.4868,-4.4866,-4.4714,-4.481,-4.4698,-4.4654,-4.4631,-4.4577,-4.4627,-4.4566,-4.4547,-4.4513,-4.447,-4.4459,-4.4379,-4.4364,-4.4236,-4.4177,-4.4257,-4.4211,-4.4159,-4.4188,-4.4175,-4.4168,-4.416,-4.4171,-4.4182,-4.4164,-4.425,-4.4226,-4.4222,-4.4236,-4.4275,-4.4318,-4.437,-4.4332,-4.4372,-4.4305,-4.4343,-4.4398,-4.4337,-4.433,-4.4404,-4.4328,-4.4369,-4.4344,-4.4336,-4.4308,-4.4327,-4.4359,-4.4364,-4.4423,-4.4428,-4.4396,-4.4383,-4.4342,-4.4293,-4.4371,-4.4336,-4.4384,-4.4313,-4.4314,-4.4311,-4.4407,-4.4358,-4.4263,-4.4269,-4.4279,-4.4224,-4.4251,-4.4262,-4.4249,-4.4284,-4.4263,-4.425,-4.414,-4.4152,-4.4026,-4.3964,-4.4117,-4.3853,-4.3818,-4.3868,-4.386,-4.395,-4.3916,-4.3887,-4.3881,-4.3833,-4.3906,-4.3932,-4.4091,-4.4382,-4.4657,-4.4652,-4.4742,-4.4797,-4.4692,-4.4697,-4.4784,-4.482,-4.4718,-4.4708,-4.4672,-4.4693,-4.4831,-4.5167,-4.5372,-4.5501,-4.4795,-4.2816,-4.0205,-3.7624,-3.5581,-3.7278,-4.0141,-4.1761,-4.3419,-4.5781,-4.6187,-4.6407,-4.6578,-4.5534,-4.5152,-4.4637,-4.4578,-4.4441,-4.4493,-4.4362,-4.4323,-4.4199,-4.4338,-4.4228,-4.4195,-4.408,-4.401,-4.3855,-4.3772,-4.3546,-4.3508,-4.3425,-4.3396,-4.3297,-4.3225,-4.3144,-4.3051,-4.2952,-4.2843,-4.2756,-4.2616,-4.2388,-4.227,-4.2152,-4.1963,-4.1725,-4.1613,-4.1359,-4.1181,-4.0987,-4.0803,-4.0562,-4.0291,-4.0105,-3.9874,-3.9711,-3.9533,-3.9314,-3.9166,-3.9086,-3.8942,-3.8921,-3.8886,-3.8935,-3.8985,-3.9127,-3.9356,-3.9789,-4.0235,-4.0688,-4.0985,-4.1437,-4.207,-4.2521,-4.293,-4.3255,-4.3539,-4.3835,-4.3986,-4.4136,-4.4259,-4.4366,-4.4386,-4.4558,-4.4684,-4.4691,-4.4749,-4.4802,-4.482,-4.4843,-4.4856,-4.4868,-4.4876,-4.4947,-4.4926,-4.4934,-4.4957,-4.4961,-4.4882,-4.4858,-4.4847,-4.4854,-4.4864,-4.4878,-4.4931,-4.4993,-4.4901,-4.4868,-4.4864,-4.4926,-4.4835,-4.4819,-4.4802,-4.4793,-4.4739,-4.4723,-4.4707,-4.4729,-4.4637,-4.4656,-4.4635,-4.4648,-4.4623,-4.4629,-4.4683,-4.4723,-4.4749,-4.4754,-4.4798,-4.4847,-4.4909,-4.49,-4.4953,-4.5001,-4.4978,-4.5002,-4.5044,-4.5095,-4.5048,-4.5087,-4.5075,-4.5143,-4.516,-4.5112,-4.5169,-4.523,-4.5282,-4.5318,-4.5282,-4.5323,-4.534,-4.5314,-4.5301,-4.5365,-4.5388,-4.5399,-4.5375,-4.5395,-4.5384,-4.5385,-4.5429,-4.5398,-4.5407,-4.5448,-4.5412,-4.5436,-4.5432,-4.5435,-4.5478,-4.5517,-4.5478,-4.5481,-4.5485,-4.5498,-4.5543,-4.5509,-4.5514,-4.553,-4.5531,-4.5543,-4.5592,-4.5593,-4.5561,-4.5531,-4.5641,-4.5591,-4.5715,-4.5738,-4.5731,-4.578,-4.5722,-4.5721,-4.5753,-4.5749,-4.5775,-4.5775,-4.5827,-4.5652,-4.5801,-4.5648,-4.5552,-4.5585,-4.5575,-4.5378,-4.5419,-4.5512,-4.5451,-4.5514,-4.5532,-4.5399,-4.5381,-4.5388,-4.5422,-4.5513,-4.5701,-4.5967,-4.6128,-4.6165,-4.6193,-4.6188,-4.6146,-4.6149,-4.6168,-4.6169,-4.6191,-4.6187,-4.6184,-4.6164,-4.6288,-4.6616,-4.702,-4.6835,-4.5467,-4.2898,-4.0523,-3.7906,-3.7026,-4.0609,-4.2335,-4.3705,-4.659,-4.781,-4.7854,-4.8097,-4.785,-4.6866,-4.6497,-4.6074,-4.585,-4.5683,-4.5656,-4.5561,-4.5462,-4.5441,-4.5376,-4.5329,-4.5216,-4.5121,-4.4966,-4.4817,-4.4795,-4.4708,-4.4684,-4.4684,-4.4488,-4.4473,-4.4461,-4.432,-4.4238,-4.4123,-4.397,-4.3828,-4.3673,-4.3517,-4.3382,-4.3235,-4.3032,-4.29,-4.2667,-4.2412,-4.2309,-4.2045,-4.1908,-4.1727,-4.1496,-4.1343,-4.1057,-4.0821,-4.0614,-4.05,-4.0413,-4.023,-4.0152,-4.0096,-4.0028,-4.0118,-4.0283,-4.0482,-4.0738,-4.1065,-4.1476,-4.1984,-4.2388,-4.2626,-4.305,-4.3518,-4.3861,-4.4229,-4.4535,-4.4783,-4.5061,-4.5225,-4.5362,-4.5508,-4.5666,-4.579,-4.5853,-4.5895,-4.5954,-4.6126,-4.6161,-4.6195,-4.6178,-4.6216,-4.6228,-4.628,-4.6224,-4.6239,-4.6189,-4.6142,-4.6129,-4.6104,-4.6186,-4.6221,-4.6278,-4.6305,-4.6345,-4.6366,-4.6271,-4.6286,-4.6282,-4.6231,-4.6193,-4.6214,-4.6298,-4.6268,-4.62,-4.6243,-4.621,-4.6217,-4.6229,-4.6282,-4.6282,-4.6294,-4.6355,-4.6342,-4.635,-4.6346,-4.6341,-4.6417,-4.6373,-4.6394,-4.6417,-4.6389,-4.634,-4.6276,-4.6396,-4.6316,-4.6324,-4.6368,-4.6246,-4.6274,-4.6349,-4.6325,-4.6308,-4.6267,-4.6294,-4.633,-4.634,-4.6373,-4.6398,-4.6419,-4.647,-4.6401,-4.641,-4.65,-4.6516,-4.6571,-4.6518,-4.6598,-4.6595,-4.6539,-4.6589,-4.6536,-4.6626,-4.663,-4.6622,-4.6525,-4.6538,-4.6554,-4.6574,-4.6603,-4.6567,-4.6573,-4.6559,-4.6563,-4.6563,-4.6561,-4.6598,-4.6635,-4.6619,-4.6592,-4.6559,-4.6674,-4.6687,-4.6672,-4.6692,-4.6687,-4.679,-4.6815,-4.6784,-4.6806,-4.6806,-4.6796,-4.6792,-4.6857,-4.6785,-4.6783,-4.6794,-4.6826,-4.6797,-4.6804,-4.6836,-4.6845,-4.694,-4.6968,-4.6893,-4.6866,-4.6792,-4.6609,-4.6688,-4.656,-4.6425,-4.6388,-4.6435,-4.6361,-4.635,-4.6496,-4.636,-4.64,-4.6436,-4.6377,-4.6424,-4.6456,-4.6831,-4.6954,-4.6961,-4.7046,-4.706,-4.7052,-4.702,-4.7088,-4.7168,-4.7068,-4.7183,-4.7222,-4.7151,-4.7221,-4.7513,-4.7831,-4.7971,-4.7051,-4.4996,-4.2368,-3.9954,-3.7932,-3.9936,-4.3043,-4.4577,-4.6305,-4.8708,-4.9202,-4.9388,-4.9392,-4.8348,-4.8012,-4.7627,-4.7453,-4.7137,-4.7165,-4.7023,-4.6918,-4.6685,-4.6826,-4.6564,-4.6546,-4.6359,-4.6192,-4.5913,-4.5845,-4.5711,-4.5734,-4.5534,-4.5506,-4.5323,-4.5241,-4.5224,-4.5247,-4.5086,-4.5022,-4.4886,-4.4738,-4.4617,-4.4583,-4.4355,-4.436,-4.4185,-4.4018,-4.3951,-4.3795,-4.3591,-4.344,-4.3206,-4.3055,-4.2864,-4.2638,-4.2546,-4.2339,-4.2206,-4.2028,-4.1905,-4.1674,-4.1586,-4.1568,-4.1612,-4.165,-4.1723,-4.1833,-4.2211,-4.2587,-4.2979,-4.3397,-4.3796,-4.4243,-4.4687,-4.5082,-4.5254,-4.5516,-4.5899,-4.6123,-4.6382,-4.6492,-4.6785,-4.6865,-4.6989,-4.7049,-4.7173,-4.7301,-4.7378,-4.7429,-4.7493,-4.7532,-4.7625,-4.7668,-4.7738,-4.7723,-4.7762,-4.7776,-4.7806,-4.7838,-4.7857,-4.7947,-4.8038,-4.8031,-4.8148,-4.8149,-4.8161,-4.81,-4.8107,-4.8052,-4.8079,-4.8056,-4.8066,-4.7947,-4.7905,-4.786,-4.7747,-4.7722,-4.7537,-4.7421,-4.7358,-4.7127,-4.6951,-4.6781,-4.6676,-4.6606,-4.6469,-4.6478,-4.6399,-4.6416,-4.6492,-4.6585,-4.6704,-4.6828,-4.6832,-4.6987,-4.7101,-4.7112,-4.7293,-4.7411,-4.7458,-4.7505,-4.7653,-4.7712,-4.77,-4.7675,-4.7628,-4.7661,-4.7707,-4.7696,-4.7673,-4.7643,-4.7645,-4.7597,-4.7544,-4.7503,-4.753,-4.7462,-4.7457,-4.7439,-4.7357,-4.7373,-4.7384,-4.7413,-4.7358,-4.7393,-4.744,-4.7457,-4.7476,-4.745,-4.7522,-4.7556,-4.7594,-4.761,-4.7681,-4.7728,-4.777,-4.7799,-4.7799,-4.7768,-4.7862,-4.7926,-4.7844,-4.7887,-4.7877,-4.7829,-4.7849,-4.7822,-4.779,-4.7787,-4.7745,-4.775,-4.7652,-4.7687,-4.763,-4.7601,-4.7667,-4.7603,-4.7536,-4.7572,-4.7578,-4.7586,-4.7608,-4.7539,-4.7502,-4.746,-4.7273,-4.7383,-4.7323,-4.7123,-4.7191,-4.7199,-4.7169,-4.7314,-4.725,-4.7133,-4.7104,-4.7114,-4.7177,-4.7206,-4.738,-4.7684,-4.7807,-4.7795,-4.791,-4.7902,-4.7911,-4.7871,-4.7837,-4.7924,-4.7902,-4.7895,-4.7911,-4.7918,-4.8018,-4.8331,-4.8582,-4.848,-4.7173,-4.596,-4.3332,-4.0764,-3.8683,-4.032,-4.3576,-4.509,-4.6722,-4.9037,-4.948,-4.9509,-4.973,-4.8747,-4.8504,-4.7772,-4.7705,-4.7445,-4.7496,-4.7306,-4.7311,-4.7217,-4.7235,-4.719,-4.7131,-4.6935,-4.6863,-4.6662,-4.6695,-4.6541,-4.6509,-4.6475,-4.6481,-4.638,-4.6295,-4.6219,-4.6118,-4.6028,-4.5931,-4.578,-4.5761,-4.5578,-4.5544,-4.5397,-4.5244,-4.5116,-4.4926,-4.4715,-4.4472,-4.4258,-4.4029,-4.3728,-4.3471,-4.3181,-4.3035,-4.2764,-4.255,-4.2383,-4.2175,-4.2063,-4.1885,-4.197,-4.187,-4.1881,-4.192,-4.2066,-4.2245,-4.2563,-4.2958,-4.3417,-4.3845,-4.4342,-4.4661,-4.5123,-4.5534,-4.5948,-4.622,-4.6517,-4.6745,-4.6908,-4.7085,-4.7181,-4.7227,-4.727,-4.7394,-4.7434,-4.7463,-4.7503,-4.752,-4.7545,-4.7505,-4.7587,-4.7474,-4.7539,-4.7486,-4.7492,-4.7482,-4.7511,-4.7432,-4.7431,-4.742,-4.7391,-4.7453,-4.7505,-4.7413,-4.7417,-4.7366,-4.7327,-4.7333,-4.7322,-4.725,-4.7278,-4.7257,-4.7153,-4.7085,-4.7109,-4.7028,-4.6932,-4.6948,-4.6969,-4.6919,-4.6867,-4.6843,-4.6831,-4.678,-4.6792,-4.6786,-4.6813,-4.6727,-4.6802,-4.6726,-4.6752,-4.674,-4.6826,-4.6752,-4.6779,-4.6737,-4.6783,-4.6825,-4.6818,-4.6857,-4.6873,-4.6827,-4.6831,-4.6931,-4.691,-4.6999,-4.6978,-4.6924,-4.6985,-4.7052,-4.7013,-4.7004,-4.6986,-4.6946,-4.689,-4.6818,-4.6746,-4.6822,-4.6833,-4.6832,-4.6799,-4.6763,-4.6655,-4.6744,-4.6593,-4.665,-4.6548,-4.6621,-4.6522,-4.6558,-4.6536,-4.6463,-4.6422,-4.6439,-4.6524,-4.6505,-4.6395,-4.6431,-4.6327,-4.6232,-4.6247,-4.615,-4.5915,-4.589,-4.5938,-4.5905,-4.5835,-4.6018,-4.5951,-4.5815,-4.5735,-4.5851,-4.5946,-4.6091,-4.6287,-4.6422,-4.6463,-4.6391,-4.6417,-4.6349,-4.6346,-4.6327,-4.6312,-4.6276,-4.6251,-4.6274,-4.6254,-4.6276,-4.6489,-4.6876,-4.707,-4.6449,-4.451,-4.1678,-3.9061,-3.7164,-3.8712,-4.1656,-4.3708,-4.528,-4.6913,-4.6838,-4.6997,-4.7814,-4.7562,-4.6966,-4.6446,-4.6027,-4.5695,-4.5704,-4.5497,-4.5473,-4.5332,-4.546,-4.5301,-4.5302,-4.5074,-4.499,-4.4852,-4.4762,-4.4675,-4.4529,-4.4404,-4.4355,-4.4296,-4.4151,-4.4088,-4.4042,-4.3805,-4.3733,-4.357,-4.3388,-4.3324,-4.32,-4.3061,-4.2867,-4.267,-4.2491,-4.2305,-4.2106,-4.1853,-4.1663,-4.134,-4.1089,-4.098,-4.0803,-4.0533,-4.0384,-4.0228,-4.007,-3.996,-3.9917,-3.9822,-3.9813,-3.9794,-3.9891,-4.0095,-4.0368,-4.0645,-4.1094,-4.1533,-4.1984,-4.2395,-4.2866,-4.314,-4.3461,-4.3842,-4.4072,-4.4296,-4.4555,-4.4817,-4.4879,-4.5035,-4.5014,-4.5201,-4.5241,-4.5279,-4.5272,-4.54,-4.5366,-4.5435,-4.5406,-4.5504,-4.5483,-4.5439,-4.5421,-4.5458,-4.5413,-4.5383,-4.5396,-4.5374,-4.5302,-4.5381,-4.5381,-4.5331,-4.5319,-4.5289,-4.5239,-4.5279,-4.5323,-4.5279,-4.525,-4.5213,-4.5123,-4.5186,-4.5167,-4.5112,-4.5091,-4.5054,-4.5098,-4.5116,-4.5087,-4.5133,-4.5099,-4.5207,-4.522,-4.5191,-4.523,-4.5272,-4.5318,-4.5354,-4.5341,-4.5403,-4.5414,-4.5406,-4.5415,-4.5488,-4.5517,-4.552,-4.553,-4.5586,-4.566,-4.5646,-4.5705,-4.5718,-4.5788,-4.5774,-4.5769,-4.5775,-4.5815,-4.583,-4.5844,-4.5836,-4.5915,-4.5924,-4.5906,-4.5921,-4.5935,-4.5985,-4.5946,-4.596,-4.5992,-4.6042,-4.6006,-4.6048,-4.6074,-4.6045,-4.6081,-4.6075,-4.609,-4.6112,-4.6107,-4.6194,-4.6148,-4.6212,-4.621,-4.6201,-4.6255,-4.6262,-4.6308,-4.6298,-4.6327,-4.6331,-4.6317,-4.6385,-4.6444,-4.6445,-4.6449,-4.6459,-4.6516,-4.6532,-4.6601,-4.6552,-4.6527,-4.6537,-4.6401,-4.6316,-4.6465,-4.6381,-4.625,-4.6272,-4.6292,-4.6288,-4.6459,-4.6336,-4.635,-4.6295,-4.6396,-4.6447,-4.6559,-4.6757,-4.7021,-4.7059,-4.7188,-4.7198,-4.7132,-4.7124,-4.7119,-4.7159,-4.7109,-4.7149,-4.709,-4.7109,-4.7236,-4.744,-4.7783,-4.8028,-4.7201,-4.5207,-4.268,-4.0075,-3.8001,-4.0094,-4.2829,-4.4316,-4.6202,-4.8641,-4.9124,-4.9067,-4.9511,-4.8654,-4.8119,-4.7557,-4.7368,-4.7211,-4.7208,-4.698,-4.6993,-4.6893,-4.6941,-4.6872,-4.6866,-4.6769,-4.6599,-4.6555,-4.6537,-4.6377,-4.6385,-4.6356,-4.6337,-4.6319,-4.6206,-4.6174,-4.6124,-4.5978,-4.5887,-4.5803,-4.5645,-4.5589,-4.5473,-4.5315,-4.5146,-4.4926,-4.4767,-4.4557,-4.4369,-4.4198,-4.4002,-4.389,-4.3666,-4.337,-4.3153,-4.3037,-4.2785,-4.2637,-4.2471,-4.2308,-4.2141,-4.2066,-4.2112,-4.2184,-4.2191,-4.231,-4.2559,-4.2934,-4.3325,-4.3775,-4.4291,-4.4555,-4.4969,-4.5404,-4.5804,-4.6178,-4.6508,-4.6761,-4.6959,-4.7278,-4.7456,-4.7535,-4.7631,-4.7699,-4.7763,-4.7773,-4.782,-4.7806,-4.7723,-4.779,-4.7786,-4.7786,-4.773,-4.7753,-4.7749,-4.7684,-4.7713,-4.7689,-4.7644,-4.7584,-4.7606,-4.7621,-4.7615,-4.765,-4.7748,-4.7719,-4.7675,-4.7706,-4.7673,-4.7661,-4.7746,-4.7751,-4.776,-4.7712,-4.7747,-4.7809,-4.7733,-4.7733,-4.7649,-4.765,-4.7593,-4.7594,-4.7485,-4.7542,-4.7494,-4.7464,-4.7433,-4.741,-4.7359,-4.7379,-4.7374,-4.7395,-4.7395,-4.7466,-4.7477,-4.7474,-4.7488,-4.7595,-4.7575,-4.7581,-4.7644,-4.7723,-4.7744,-4.7813,-4.7758,-4.7807,-4.7829,-4.775,-4.7879,-4.7904,-4.7831,-4.7878,-4.7886,-4.7909,-4.7878,-4.7854,-4.7875,-4.7855,-4.7867,-4.7837,-4.7874,-4.7834,-4.7954,-4.7962,-4.8007,-4.8016,-4.8009,-4.8041,-4.8033,-4.8097,-4.81,-4.8124,-4.8124,-4.8158,-4.8188,-4.8149,-4.8229,-4.8206,-4.8237,-4.8282,-4.8276,-4.8274,-4.8233,-4.821,-4.83,-4.8314,-4.8321,-4.8225,-4.8289,-4.8309,-4.8309,-4.8303,-4.8289,-4.8288,-4.832,-4.8348,-4.8368,-4.8389,-4.8499,-4.8455,-4.8399,-4.8468,-4.8455,-4.8488,-4.8459,-4.8401,-4.8437,-4.8466,-4.8507,-4.8429,-4.837,-4.826,-4.8099,-4.8085,-4.8161,-4.8007,-4.7829,-4.7862,-4.7823,-4.7824,-4.7881,-4.7813,-4.7719,-4.7685,-4.7734,-4.7741,-4.7817,-4.8195,-4.8339,-4.8448,-4.8489,-4.8412,-4.8474,-4.8463,-4.8412,-4.8379,-4.8391,-4.8421,-4.8401,-4.8478,-4.8516,-4.8703,-4.9084,-4.9173,-4.816,-4.5908,-4.3411,-4.0757,-3.8866,-4.1586,-4.4109,-4.5493,-4.7625,-4.976,-5.0165,-5.0032,-5.0282,-4.9295,-4.8806,-4.823,-4.8109,-4.7888,-4.7814,-4.7635,-4.7546,-4.7492,-4.7462,-4.7403,-4.73,-4.7096,-4.6966,-4.6812,-4.6738,-4.6678,-4.6707,-4.6632,-4.6635,-4.6566,-4.6489,-4.6341,-4.6281,-4.622,-4.6125,-4.5984,-4.5876,-4.5743,-4.5646,-4.5428,-4.528,-4.5046,-4.4942,-4.4763,-4.4678,-4.4445,-4.4333,-4.4179,-4.3931,-4.3671,-4.3403,-4.3244,-4.3074,-4.2898,-4.2697,-4.2642,-4.2456,-4.2417,-4.2368,-4.2435,-4.2492,-4.2618,-4.2794,-4.3115,-4.3461,-4.3928,-4.4427,-4.4666,-4.5126,-4.5543,-4.5909,-4.6316,-4.6576,-4.6873,-4.7113,-4.7395,-4.7553,-4.7669,-4.7827,-4.791,-4.797,-4.8035,-4.8103,-4.8138,-4.8127,-4.8119,-4.8049,-4.8127,-4.816,-4.8172,-4.81,-4.8151,-4.8105,-4.8098,-4.8106,-4.8063,-4.8065,-4.8066,-4.81,-4.8135,-4.8054,-4.8027,-4.8,-4.7959,-4.7921,-4.7956,-4.787,-4.7882,-4.7815,-4.7855,-4.7779,-4.7793,-4.7657,-4.7697,-4.7656,-4.7665,-4.7647,-4.7602,-4.7637,-4.7579,-4.7566,-4.7593,-4.7597,-4.7585,-4.7563,-4.7659,-4.7621,-4.7638,-4.7624,-4.7652,-4.7654,-4.7603,-4.7718,-4.7711,-4.7697,-4.7641,-4.7644,-4.7726,-4.7705,-4.7684,-4.7712,-4.7678,-4.7702,-4.7715,-4.7719,-4.7742,-4.7739,-4.7768,-4.7771,-4.7769,-4.7794,-4.7755,-4.773,-4.7756,-4.7816,-4.7798,-4.7796,-4.7796,-4.7757,-4.782,-4.7754,-4.7725,-4.7705,-4.7688,-4.7712,-4.7689,-4.7647,-4.7634,-4.7652,-4.7675,-4.7638,-4.7646,-4.767,-4.7656,-4.7631,-4.7609,-4.7701,-4.7692,-4.7711,-4.7748,-4.7762,-4.7734,-4.7741,-4.7726,-4.7716,-4.7688,-4.7825,-4.7762,-4.7752,-4.7735,-4.776,-4.7733,-4.7709,-4.7715,-4.7716,-4.7745,-4.7782,-4.773,-4.7733,-4.7784,-4.7719,-4.7685,-4.7695,-4.7616,-4.768,-4.7671,-4.7585,-4.7626,-4.7634,-4.7619,-4.7618,-4.7657,-4.7562,-4.7564,-4.7533,-4.7315,-4.735,-4.7274,-4.7149,-4.7074,-4.7107,-4.7043,-4.7145,-4.7145,-4.7024,-4.7017,-4.6959,-4.6997,-4.7111,-4.717,-4.7457,-4.7716,-4.7742,-4.7776,-4.7825,-4.7768,-4.7733,-4.7768,-4.7748,-4.7739,-4.776,-4.7706,-4.7712,-4.7869,-4.825,-4.853,-4.8155,-4.6574,-4.3953,-4.1529,-4.0088,-3.8387,-4.1109,-4.3616,-4.488,-4.6994,-4.9022,-4.9312,-4.9469,-4.9264,-4.8189,-4.795,-4.7349,-4.7408,-4.7077,-4.7185,-4.698,-4.7065,-4.6835,-4.6957,-4.6774,-4.6818,-4.6604,-4.6601,-4.6369,-4.6411,-4.6309,-4.6306,-4.6219,-4.6215,-4.6139,-4.6106,-4.5989,-4.5928,-4.5809,-4.5789,-4.5666,-4.5595,-4.5392,-4.5291,-4.5224,-4.5112,-4.4893,-4.4792,-4.4604,-4.4452,-4.4213,-4.3956,-4.3773,-4.3537,-4.3298,-4.3122,-4.2908,-4.2734,-4.2544,-4.2393,-4.2309,-4.2176,-4.2061,-4.2108,-4.2147,-4.2191,-4.238,-4.2509,-4.2823,-4.3173,-4.3597,-4.4065,-4.4567,-4.4978,-4.5399,-4.5758,-4.6164,-4.6455,-4.6751,-4.6933,-4.7224,-4.7367,-4.7507,-4.7558,-4.7707,-4.7698,-4.7783,-4.7848,-4.7901,-4.7908,-4.7919,-4.7897,-4.7918,-4.7979,-4.796,-4.7933,-4.7924,-4.7809,-4.7854,-4.787,-4.7881,-4.7841,-4.7852,-4.7796,-4.7762,-4.7797,-4.7879,-4.7778,-4.7794,-4.7739,-4.7748,-4.7649,-4.7679,-4.7713,-4.7682,-4.7668,-4.7642,-4.7605,-4.7648,-4.767,-4.7594,-4.7551,-4.7578,-4.7635,-4.7627,-4.7549,-4.7679,-4.7613,-4.7629,-4.7568,-4.7578,-4.7605,-4.7713,-4.7705,-4.7721,-4.7759,-4.7708,-4.7663,-4.7689,-4.7734,-4.7742,-4.7786,-4.7772,-4.7707,-4.7741,-4.7778,-4.783,-4.7754,-4.7734,-4.7688,-4.7626,-4.7761,-4.775,-4.7658,-4.7627,-4.7631,-4.7708,-4.7717,-4.7587,-4.7653,-4.7679,-4.7671,-4.7609,-4.7588,-4.7498,-4.7523,-4.7569,-4.7516,-4.7527,-4.7534,-4.7427,-4.75,-4.7468,-4.745,-4.7413,-4.737,-4.7391,-4.7371,-4.7395,-4.7291,-4.7306,-4.7348,-4.7338,-4.7218,-4.7202,-4.717,-4.7072,-4.7008,-4.7052,-4.6845,-4.6651,-4.6731,-4.6745,-4.6724,-4.6777,-4.6746,-4.6625,-4.6569,-4.6593,-4.6696,-4.6785,-4.7135,-4.7223,-4.7294,-4.7298,-4.7324,-4.7311,-4.7322,-4.7246,-4.7236,-4.7232,-4.7254,-4.7228,-4.7259,-4.7291,-4.7475,-4.7857,-4.8005,-4.724,-4.512,-4.2463,-3.9768,-3.8087,-4.022,-4.2805,-4.4694,-4.6415,-4.7519,-4.7888,-4.7832,-4.8609,-4.8563,-4.779,-4.7342,-4.6853,-4.6686,-4.6571,-4.6497,-4.6454,-4.6402,-4.6315,-4.6184,-4.6127,-4.5956,-4.5898,-4.5814,-4.5707,-4.5595,-4.5578,-4.5413,-4.5315,-4.523,-4.5141,-4.5007,-4.4907,-4.4783,-4.4747,-4.4608,-4.4503,-4.4404,-4.4281,-4.4152,-4.3976,-4.3789,-4.3653,-4.3446,-4.3232,-4.3017,-4.2946,-4.2686,-4.2465,-4.225,-4.2008,-4.1794,-4.153,-4.1359,-4.1217,-4.1054,-4.096,-4.0885,-4.0858,-4.0904,-4.1001,-4.1169,-4.1374,-4.1702,-4.2042,-4.2494,-4.2719,-4.3139,-4.3587,-4.391,-4.4369,-4.4794,-4.5078,-4.5319,-4.5561,-4.5752,-4.5905,-4.6018,-4.6084,-4.6172,-4.6221,-4.6304,-4.6362,-4.6313,-4.6421,-4.6413,-4.645,-4.6433,-4.6431,-4.6472,-4.6523,-4.6472,-4.6484,-4.6468,-4.6447,-4.6504,-4.6488,-4.6534,-4.659,-4.6577,-4.6546,-4.6619,-4.658,-4.6564,-4.6523,-4.6524,-4.6522,-4.6521,-4.6464,-4.6425,-4.6416,-4.6431,-4.6401,-4.6374,-4.6403,-4.635,-4.6346,-4.6389,-4.6389,-4.6391,-4.6353,-4.6417,-4.6532,-4.652,-4.6543,-4.6571,-4.6599,-4.6629,-4.6622,-4.6648,-4.671,-4.6775,-4.6723,-4.6775,-4.6819,-4.6846,-4.6817,-4.6903,-4.6914,-4.6923,-4.6941,-4.6981,-4.7017,-4.7055,-4.7082,-4.7077,-4.7128,-4.7116,-4.7106,-4.7107,-4.715,-4.7217,-4.7287,-4.7255,-4.7312,-4.7267,-4.7283,-4.7326,-4.7366,-4.7364,-4.7346,-4.7296,-4.7332,-4.7336,-4.7345,-4.7342,-4.7316,-4.7426,-4.7443,-4.7442,-4.7435,-4.741,-4.7455,-4.7462,-4.7457,-4.7488,-4.7515,-4.7509,-4.7507,-4.7561,-4.7564,-4.7587,-4.7576,-4.7584,-4.7527,-4.7564,-4.7629,-4.7657,-4.7678,-4.7579,-4.7554,-4.753,-4.7453,-4.7453,-4.7441,-4.7244,-4.7198,-4.7261,-4.7213,-4.7319,-4.7316,-4.7247,-4.7228,-4.7225,-4.7322,-4.7297,-4.7494,-4.7825,-4.7939,-4.7978,-4.8066,-4.8032,-4.8011,-4.8007,-4.8027,-4.801,-4.7962,-4.7993,-4.7981,-4.804,-4.8255,-4.8601,-4.8835,-4.8162,-4.6354,-4.3764,-4.1304,-3.8926,-3.8792,-4.2314,-4.4092,-4.531,-4.8163,-4.9687,-4.9865,-5.0088,-4.941,-4.8568,-4.8213,-4.7859,-4.7816,-4.7664,-4.7604,-4.7369,-4.7348,-4.7316,-4.7318,-4.7235,-4.7154,-4.703,-4.7034,-4.6867,-4.681,-4.668,-4.6779,-4.6753,-4.6646,-4.6545,-4.6505,-4.6334,-4.6293,-4.6193,-4.6114,-4.5941,-4.577,-4.5655,-4.5471,-4.5327,-4.5226,-4.5121,-4.4937,-4.474,-4.4522,-4.4322,-4.4109,-4.3877,-4.3662,-4.345,-4.3241,-4.3028,-4.2799,-4.2691,-4.259,-4.2462,-4.2371,-4.2289,-4.2256,-4.2335,-4.2471,-4.2588,-4.2783,-4.3168,-4.3528,-4.3988,-4.4375,-4.4871,-4.5284,-4.5711,-4.6101,-4.6477,-4.6748,-4.6997,-4.7149,-4.7435,-4.7523,-4.765,-4.7734,-4.7772,-4.7839,-4.7905,-4.7901,-4.7947,-4.7984,-4.7988,-4.7992,-4.8032,-4.7997,-4.8066,-4.8074,-4.7999,-4.7994,-4.7913,-4.7879,-4.7946,-4.7905,-4.793,-4.7932,-4.7929,-4.7885,-4.7891,-4.7848,-4.7838,-4.78,-4.7767,-4.7754,-4.7751,-4.7699,-4.7732,-4.7683,-4.7608,-4.757,-4.7611,-4.7548,-4.7555,-4.7569,-4.7552,-4.7523,-4.7534,-4.7502,-4.7495,-4.752,-4.7518,-4.7497,-4.7521,-4.7556,-4.7533,-4.7567,-4.7583,-4.7619,-4.7617,-4.7652,-4.7678,-4.7664,-4.7708,-4.7693,-4.77,-4.7685,-4.7713,-4.7672,-4.7672,-4.7721,-4.7709,-4.7762,-4.7757,-4.7759,-4.7772,-4.7779,-4.7753,-4.774,-4.7783,-4.7763,-4.7802,-4.7847,-4.7752,-4.7822,-4.7794,-4.7788,-4.7764,-4.7779,-4.7807,-4.7778
