-2.2788,-2.2686,-2.2593,-2.2315,-2.2282,-2.2284,-2.2065,-2.1815,-2.1669,-2.1612,-2.1628,-2.1657,-2.1361,-2.1331,-2.1297,-2.1404,-2.1464,-2.1598,-2.1823,-2.2133,-2.2538,-2.2774,-2.2956,-2.3407,-2.3909,-2.4357,-2.4544,-2.4793,-2.4842,-2.5124,-2.5259,-2.5588,-2.5475,-2.556,-2.5662,-2.5595,-2.558,-2.5723,-2.5612,-2.5632,-2.5694,-2.5708,-2.5784,-2.5935,-2.5755,-2.5805,-2.5654,-2.5654,-2.552,-2.5447,-2.5324,-2.537,-2.5497,-2.5587,-2.5515,-2.5548,-2.5511,-2.5318,-2.5196,-2.5325,-2.5394,-2.5258,-2.5372,-2.5398,-2.5378,-2.5532,-2.5671,-2.564,-2.5661,-2.562,-2.5519,-2.5647,-2.5563,-2.5616,-2.572,-2.5728,-2.5717,-2.5712,-2.5632,-2.5553,-2.5634,-2.576,-2.5642,-2.5574,-2.5681,-2.5767,-2.5836,-2.5927,-2.579,-2.5724,-2.5675,-2.5496,-2.5493,-2.562,-2.5644,-2.5612,-2.5561,-2.561,-2.5673,-2.561,-2.5532,-2.5451,-2.5546,-2.5552,-2.5645,-2.58,-2.5545,-2.5406,-2.5332,-2.53,-2.5199,-2.5222,-2.5322,-2.5051,-2.4773,-2.4575,-2.4834,-2.5131,-2.5252,-2.5293,-2.5204,-2.5165,-2.5329,-2.5559,-2.5668,-2.5531,-2.5511,-2.5738,-2.5758,-2.5696,-2.5786,-2.5738,-2.5658,-2.5627,-2.5509,-2.5422,-2.5409,-2.56,-2.5619,-2.5578,-2.5021,-2.3509,-2.1786,-2.019,-1.8847,-1.9834,-2.2858,-2.7007,-3.0999,-3.086,-2.8984,-2.8039,-2.7322,-2.638,-2.5821,-2.5595,-2.5405,-2.5252,-2.5229,-2.5314,-2.5331,-2.5219,-2.5172,-2.5153,-2.5153,-2.4945,-2.4861,-2.4955,-2.5008,-2.5011,-2.4994,-2.4968,-2.48,-2.453,-2.4658,-2.4703,-2.4674,-2.4622,-2.4636,-2.4718,-2.4469,-2.4455,-2.4376,-2.4336,-2.4209,-2.4109,-2.4005,-2.3928,-2.3938,-2.3908,-2.373,-2.341,-2.3361,-2.3329,-2.3082,-2.2857,-2.2673,-2.2499,-2.2363,-2.2235,-2.2006,-2.1852,-2.1628,-2.1406,-2.1352,-2.1134,-2.0977,-2.0965,-2.0841,-2.0731,-2.0729,-2.0717,-2.0618,-2.0577,-2.0717,-2.0875,-2.098,-2.1177,-2.1436,-2.1871,-2.2266,-2.2802,-2.3288,-2.3717,-2.3953,-2.4157,-2.463,-2.4779,-2.4973,-2.5025,-2.5142,-2.5187,-2.5206,-2.5233,-2.5322,-2.5494,-2.5581,-2.551,-2.5554,-2.558,-2.561,-2.5246,-2.5114,-2.5241,-2.5473,-2.5715,-2.5725,-2.5552,-2.515,-2.5159,-2.5267,-2.5338,-2.5329,-2.5214,-2.5058,-2.5232,-2.5362,-2.5257,-2.5127,-2.5176,-2.5211,-2.514,-2.5382,-2.5325,-2.5245,-2.5153,-2.5154,-2.52,-2.5194,-2.5257,-2.5352,-2.5216,-2.5289,-2.5309,-2.5297,-2.514,-2.5383,-2.5434,-2.5207,-2.5223,-2.5423,-2.5572,-2.5555,-2.5382,-2.5244,-2.5326,-2.5234,-2.5253,-2.5432,-2.557,-2.5501,-2.5434,-2.5275,-2.5154,-2.5233,-2.5312,-2.55,-2.5295,-2.5338,-2.5237,-2.5132,-2.5283,-2.5487,-2.5402,-2.529,-2.5309,-2.508,-2.501,-2.5288,-2.556,-2.55,-2.5468,-2.5283,-2.5248,-2.526,-2.5344,-2.5276,-2.5145,-2.505,-2.5285,-2.5183,-2.5127,-2.5081,-2.5032,-2.4992,-2.4899,-2.4675,-2.4483,-2.4687,-2.4876,-2.4855,-2.4876,-2.4893,-2.5126,-2.5068,-2.5113,-2.5207,-2.5365,-2.5522,-2.5348,-2.5433,-2.5226,-2.5163,-2.5339,-2.5503,-2.5399,-2.5377,-2.5487,-2.5281,-2.541,-2.5533,-2.5562,-2.5425,-2.4733,-2.3135,-2.1304,-1.9589,-1.8617,-1.9824,-2.3293,-2.7806,-3.1112,-2.9697,-2.8102,-2.7447,-2.6577,-2.5976,-2.5402,-2.5402,-2.5351,-2.5479,-2.537,-2.5315,-2.5146,-2.506,-2.5139,-2.5183,-2.4947,-2.4811,-2.4805,-2.5044,-2.4906,-2.4706,-2.4666,-2.4884,-2.4835,-2.4715,-2.4791,-2.4923,-2.485,-2.4584,-2.449,-2.4556,-2.4569,-2.4493,-2.4357,-2.4399,-2.4275,-2.4032,-2.3895,-2.3911,-2.3767,-2.3563,-2.3452,-2.3385,-2.3254,-2.3168,-2.3052,-2.3104,-2.2901,-2.2571,-2.2378,-2.2215,-2.2003,-2.1874,-2.1775,-2.1563,-2.1288,-2.1044,-2.1045,-2.1008,-2.095,-2.0672,-2.0579,-2.0442,-2.0429,-2.0322,-2.0491,-2.0732,-2.1369,-2.1653,-2.182,-2.1927,-2.2379,-2.2832,-2.3252,-2.3631,-2.3942,-2.409,-2.4305,-2.4532,-2.4741,-2.4946,-2.513,-2.541,-2.5295,-2.5375,-2.541,-2.5323,-2.5286,-2.5567,-2.5659,-2.5704,-2.5434,-2.5341,-2.5325,-2.5444,-2.563,-2.5552,-2.5489,-2.5664,-2.5573,-2.5305,-2.5222,-2.5254,-2.5302,-2.532,-2.5402,-2.536,-2.5339,-2.5323,-2.5225,-2.5166,-2.5228,-2.5255,-2.5117,-2.515,-2.5408,-2.5405,-2.5262,-2.5308,-2.5172,-2.5154,-2.5254,-2.5437,-2.5656,-2.5684,-2.5546,-2.5538,-2.5459,-2.5332,-2.5421,-2.5394,-2.5435,-2.5436,-2.5548,-2.5592,-2.5677,-2.5599,-2.5367,-2.5585,-2.589,-2.5672,-2.557,-2.5509,-2.5515,-2.5503,-2.5626,-2.5446,-2.5344,-2.5528,-2.5625,-2.5569,-2.5471,-2.5697,-2.5629,-2.5692,-2.5558,-2.5649,-2.574,-2.5653,-2.5767,-2.5759,-2.5701,-2.5688,-2.5738,-2.5797,-2.582,-2.5679,-2.5792,-2.5728,-2.5705,-2.5629,-2.5674,-2.5948,-2.6078,-2.6025,-2.5891,-2.5746,-2.5867,-2.6129,-2.6201,-2.6195,-2.6024,-2.6101,-2.5959,-2.6235,-2.6241,-2.6286,-2.6261,-2.6085,-2.603,-2.6017,-2.6139,-2.6097,-2.6034,-2.5895,-2.6024,-2.582,-2.5772,-2.5916,-2.6072,-2.6229,-2.644,-2.6588,-2.6491,-2.6623,-2.6804,-2.7037,-2.6888,-2.6902,-2.6851,-2.6969,-2.6975,-2.6925,-2.7038,-2.6868,-2.6952,-2.6875,-2.6883,-2.6979,-2.7103,-2.7003,-2.6364,-2.5012,-2.3416,-2.1895,-2.0588,-2.1653,-2.4546,-2.8589,-3.236,-3.1152,-3.009,-2.9212,-2.8708,-2.8181,-2.7547,-2.7326,-2.6884,-2.6846,-2.693,-2.7143,-2.6947,-2.7058,-2.6924,-2.7007,-2.6932,-2.6952,-2.6774,-2.6943,-2.6667,-2.6787,-2.6736,-2.693,-2.6904,-2.6893,-2.6778,-2.6864,-2.6838,-2.6711,-2.6462,-2.6566,-2.6664,-2.6609,-2.6426,-2.6274,-2.6362,-2.6424,-2.631,-2.6146,-2.6033,-2.5866,-2.5816,-2.5908,-2.5487,-2.5445,-2.5329,-2.5373,-2.5208,-2.5046,-2.4912,-2.4618,-2.4286,-2.4053,-2.4118,-2.3987,-2.3888,-2.3742,-2.3596,-2.3626,-2.3469,-2.3283,-2.3299,-2.3212,-2.3054,-2.2847,-2.2998,-2.3128,-2.3466,-2.3602,-2.3657,-2.3823,-2.4166,-2.4524,-2.4923,-2.5149,-2.5457,-2.5882,-2.6164,-2.6387,-2.6711,-2.6825,-2.6915,-2.6876,-2.7165,-2.7322,-2.73,-2.7402,-2.7338,-2.7348,-2.7357,-2.7256,-2.7172,-2.6988,-2.7225,-2.728,-2.721,-2.705,-2.7068,-2.7084,-2.7104,-2.6942,-2.6785,-2.6712,-2.6889,-2.6994,-2.6943,-2.6739,-2.6822,-2.6907,-2.7032,-2.6887,-2.6849,-2.6822,-2.6718,-2.6539,-2.6586,-2.6747,-2.6868,-2.6795,-2.6879,-2.6969,-2.6974,-2.6847,-2.6921,-2.6894,-2.6913,-2.6945,-2.6857,-2.6803,-2.6895,-2.6931,-2.6924,-2.6963,-2.6904,-2.6935,-2.693,-2.694,-2.6872,-2.6845,-2.6779,-2.6653,-2.6809,-2.6816,-2.6682,-2.6658,-2.6691,-2.6857,-2.6744,-2.6745,-2.6738,-2.6759,-2.6817,-2.6983,-2.6957,-2.7096,-2.7088,-2.6948,-2.6756,-2.6585,-2.6668,-2.6907,-2.6918,-2.6888,-2.6838,-2.6815,-2.6859,-2.6757,-2.6735,-2.6687,-2.6411,-2.6211,-2.6196,-2.6339,-2.6283,-2.6195,-2.6248,-2.6356,-2.6462,-2.653,-2.6606,-2.6697,-2.6668,-2.6743,-2.6793,-2.6886,-2.7004,-2.6914,-2.6833,-2.6766,-2.6904,-2.7022,-2.705,-2.6981,-2.6738,-2.6788,-2.6856,-2.6972,-2.6875,-2.6816,-2.6166,-2.4759,-2.3293,-2.1804,-2.0787,-2.0562,-2.2269,-2.6368,-3.0781,-3.2168,-3.0512,-2.9587,-2.8861,-2.8067,-2.7401,-2.7116,-2.6875,-2.6768,-2.6832,-2.6736,-2.6282,-2.6311,-2.6546,-2.6578,-2.6725,-2.6717,-2.672,-2.6675,-2.6458,-2.632,-2.6406,-2.6287,-2.6321,-2.6447,-2.6306,-2.6157,-2.5996,-2.6014,-2.5989,-2.6013,-2.592,-2.5837,-2.5781,-2.5604,-2.5546,-2.5443,-2.5331,-2.5094,-2.5167,-2.5285,-2.5126,-2.495,-2.4856,-2.4702,-2.4498,-2.4217,-2.3994,-2.3693,-2.3634,-2.3481,-2.3362,-2.3017,-2.2922,-2.2845,-2.2794,-2.2657,-2.2317,-2.1946,-2.2002,-2.2046,-2.1817,-2.1733,-2.1907,-2.2076,-2.2111,-2.2141,-2.2348,-2.2538,-2.2785,-2.3301,-2.3698,-2.4132,-2.4402,-2.4733,-2.487,-2.5212,-2.5599,-2.5791,-2.6041,-2.6118,-2.6127,-2.6227,-2.6255,-2.6355,-2.6535,-2.6631,-2.6681,-2.6657,-2.6761,-2.6624,-2.6551,-2.6556,-2.6526,-2.6382,-2.6328,-2.6364,-2.6315,-2.6432,-2.6299,-2.6286,-2.6372,-2.6419,-2.6303,-2.631,-2.6284,-2.6215,-2.6243,-2.5959,-2.6049,-2.6055,-2.6212,-2.624,-2.6169,-2.6153,-2.5989,-2.5915,-2.5962,-2.6136,-2.6263,-2.6163,-2.6032,-2.6296,-2.6317,-2.6082,-2.6052,-2.6156,-2.6207,-2.6159,-2.6165,-2.6316,-2.6401,-2.6289,-2.6241,-2.6248,-2.6298,-2.6176,-2.6265,-2.6267,-2.623,-2.6259,-2.6253,-2.6321,-2.6324,-2.6234,-2.6312,-2.6222,-2.6188,-2.6103,-2.621,-2.6129,-2.6332,-2.6347,-2.6367,-2.6404,-2.6308,-2.6417,-2.6398,-2.6372,-2.6147,-2.6203,-2.6235,-2.6499,-2.6445,-2.6385,-2.628,-2.636,-2.6431,-2.6418,-2.6224,-2.5987,-2.6185,-2.648,-2.6466,-2.6414,-2.6311,-2.6393,-2.6351,-2.6514,-2.6205,-2.5954,-2.6118,-2.6292,-2.6199,-2.6085,-2.5845,-2.5669,-2.543,-2.5416,-2.5803,-2.5853,-2.5851,-2.5907,-2.5941,-2.6135,-2.6236,-2.6379,-2.6441,-2.6533,-2.6439,-2.6353,-2.6337,-2.64,-2.6466,-2.6422,-2.6419,-2.6223,-2.6279,-2.651,-2.6479,-2.6434,-2.6351,-2.5593,-2.4132,-2.2265,-2.0739,-1.974,-1.9959,-2.2077,-2.6358,-3.0791,-3.1712,-2.9747,-2.8439,-2.7815,-2.7176,-2.6803,-2.6529,-2.6299,-2.6301,-2.6104,-2.5904,-2.5846,-2.5949,-2.6055,-2.6171,-2.6058,-2.6018,-2.5727,-2.5664,-2.5789,-2.5825,-2.5778,-2.5695,-2.5832,-2.5818,-2.5708,-2.5735,-2.5472,-2.5344,-2.5516,-2.5485,-2.5493,-2.5431,-2.5279,-2.5009,-2.4906,-2.4912,-2.5011,-2.5014,-2.4905,-2.4701,-2.457,-2.4502,-2.4258,-2.4013,-2.387,-2.3822,-2.3604,-2.3418,-2.3357,-2.3149,-2.2841,-2.2679,-2.2372,-2.2334,-2.2295,-2.2205,-2.2032,-2.1778,-2.1677,-2.1586,-2.1427,-2.1309,-2.1436,-2.1416,-2.1459,-2.1554,-2.1562,-2.1921,-2.2114,-2.2416,-2.2974,-2.3422,-2.3859,-2.4033,-2.4554,-2.4868,-2.5186,-2.5401,-2.5581,-2.5679,-2.5703,-2.5823,-2.591,-2.587,-2.6091,-2.6237,-2.6174,-2.6089,-2.6288,-2.6564,-2.6311,-2.6301,-2.6289,-2.6493,-2.646,-2.648,-2.6373,-2.6256,-2.6175,-2.6266,-2.6161,-2.6225,-2.6125,-2.6276,-2.6273,-2.6177,-2.6113,-2.5857,-2.5682,-2.6026,-2.6184,-2.611,-2.6069,-2.5994,-2.6122,-2.6115,-2.617,-2.6065,-2.6011,-2.6089,-2.6345,-2.6282,-2.6321,-2.6318,-2.6243,-2.6238,-2.6406,-2.6394,-2.6461,-2.6546,-2.6647,-2.6635,-2.6689,-2.6663,-2.6756,-2.6871,-2.691,-2.6874,-2.7027,-2.7236,-2.7168,-2.7263,-2.7224,-2.7276,-2.7328,-2.736,-2.7386,-2.7553,-2.7526,-2.7414,-2.7288,-2.7524,-2.7933,-2.7932,-2.7949,-2.7709,-2.7772,-2.7924,-2.7863,-2.7875,-2.8104,-2.7929,-2.7943,-2.7993,-2.8049,-2.8013,-2.8004,-2.8104,-2.8047,-2.796,-2.8091,-2.8323,-2.8347,-2.8216,-2.8124,-2.8215,-2.824,-2.8275,-2.8259,-2.8216,-2.8238,-2.833,-2.8429,-2.8438,-2.8422,-2.8448,-2.8405,-2.8379,-2.8299,-2.8048,-2.8077,-2.8034,-2.8159,-2.8022,-2.7876,-2.7936,-2.7862,-2.7716,-2.7699,-2.786,-2.7838,-2.7626,-2.7849,-2.8159,-2.8228,-2.8312,-2.8467,-2.8226,-2.8256,-2.8219,-2.8292,-2.8619,-2.8558,-2.8374,-2.8226,-2.8321,-2.8339,-2.8373,-2.8455,-2.8404,-2.8285,-2.7677,-2.6168,-2.4695,-2.3214,-2.2047,-2.2883,-2.5613,-2.9297,-3.2438,-3.1523,-3.036,-3.005,-2.9675,-2.9091,-2.848,-2.8193,-2.8095,-2.7914,-2.7738,-2.7852,-2.7643,-2.7747,-2.7851,-2.7746,-2.7471,-2.7443,-2.7457,-2.7604,-2.752,-2.7435,-2.7406,-2.7489,-2.7448,-2.7549,-2.7406,-2.711,-2.7043,-2.7069,-2.716,-2.7269,-2.7099,-2.6866,-2.6849,-2.6784,-2.6715,-2.6469,-2.6465,-2.6366,-2.6331,-2.6072,-2.5968,-2.6071,-2.5849,-2.5955,-2.5715,-2.5513,-2.5464,-2.5085,-2.475,-2.4335,-2.4624,-2.4714,-2.4545,-2.4194,-2.4001,-2.3945,-2.3849,-2.3728,-2.358,-2.3611,-2.341,-2.3337,-2.3252,-2.3228,-2.3372,-2.3506,-2.3446,-2.3501,-2.3838,-2.4182,-2.451,-2.4886,-2.5308,-2.5667,-2.5752,-2.5949,-2.6349,-2.6556,-2.6879,-2.7095,-2.7106,-2.7124,-2.7298,-2.7614,-2.7777,-2.7592,-2.7466,-2.7645,-2.7455,-2.7456,-2.7498,-2.7671,-2.761,-2.7552,-2.7424,-2.7399,-2.7467,-2.7411,-2.73,-2.7338,-2.7354,-2.7203,-2.6981,-2.7077,-2.7098,-2.7298,-2.7261,-2.725,-2.7354,-2.7418,-2.7332,-2.7208,-2.7184,-2.7118,-2.7184,-2.7148,-2.7281,-2.7245,-2.7474,-2.7464,-2.7322,-2.7195,-2.7217,-2.7291,-2.7213,-2.7112,-2.7453,-2.7591,-2.7695,-2.7533,-2.7362,-2.7257,-2.7348,-2.7438,-2.7299,-2.7262,-2.7338,-2.7082,-2.7212,-2.7271,-2.7117,-2.7369,-2.748,-2.7388,-2.7237,-2.7285,-2.7327,-2.7249,-2.7241,-2.714,-2.7304,-2.741,-2.7278,-2.7239,-2.7258,-2.6994,-2.6825,-2.6793,-2.6866,-2.705,-2.683,-2.6563,-2.6493,-2.6499,-2.6573,-2.6416,-2.6666,-2.6794,-2.6862,-2.6855,-2.689,-2.7045,-2.6894,-2.6945,-2.7126,-2.7257,-2.7246,-2.7039,-2.6916,-2.7051,-2.7234,-2.7169,-2.722,-2.7206,-2.7154,-2.7013,-2.6988,-2.7143,-2.7014,-2.6502,-2.5359,-2.3761,-2.2076,-2.0404,-2.0623,-2.3094,-2.7331,-3.143,-3.1326,-2.9967,-2.9157,-2.8504,-2.7499,-2.6933,-2.6673,-2.6786,-2.6876,-2.6824,-2.6732,-2.6602,-2.6428,-2.6432,-2.6385,-2.6391,-2.6435,-2.624,-2.6173,-2.6164,-2.627,-2.6279,-2.6259,-2.6116,-2.5972,-2.5848,-2.5814,-2.5969,-2.6187,-2.6244,-2.6093,-2.5893,-2.5579,-2.5551,-2.5759,-2.5841,-2.5721,-2.5522,-2.5458,-2.5183,-2.5016,-2.4957,-2.4849,-2.4733,-2.459,-2.4333,-2.4228,-2.4058,-2.4036,-2.3836,-2.3697,-2.3383,-2.307,-2.3104,-2.2938,-2.2884,-2.2758,-2.2444,-2.2302,-2.2171,-2.1927,-2.1812,-2.1873,-2.1976,-2.1964,-2.1956,-2.2183,-2.2528,-2.2825,-2.3123,-2.3291,-2.3748,-2.4198,-2.4718,-2.5091,-2.541,-2.5631,-2.5784,-2.6014,-2.6267,-2.6444,-2.6431,-2.6453,-2.6547,-2.6762,-2.6841,-2.6938,-2.6648,-2.6609,-2.6735,-2.6845,-2.6981,-2.6874,-2.6574,-2.6617,-2.6879,-2.6808,-2.6839,-2.6701,-2.6692,-2.6707,-2.6692,-2.6624,-2.6582,-2.6411,-2.6431,-2.652,-2.6561,-2.6549,-2.6531,-2.6541,-2.6645,-2.6537,-2.6461,-2.6173,-2.635,-2.6554,-2.6485,-2.6491,-2.6302,-2.6484,-2.6505,-2.6625,-2.678,-2.6693,-2.6519,-2.6724,-2.6669,-2.64,-2.6236,-2.6181,-2.6558,-2.6794,-2.6609,-2.6448,-2.6381,-2.6455,-2.6656,-2.6684,-2.6745,-2.6781,-2.6782,-2.6751,-2.6487,-2.6307,-2.6284,-2.6389,-2.6403,-2.6407,-2.6519,-2.6442,-2.6403,-2.6512,-2.6398,-2.6413,-2.663,-2.6816,-2.6619,-2.6444,-2.6363,-2.6426,-2.6366,-2.6352,-2.658,-2.6541,-2.6552,-2.6536,-2.6478,-2.634,-2.6157,-2.6145,-2.6136,-2.6285,-2.6242,-2.6184,-2.5946,-2.5971,-2.5975,-2.565,-2.5643,-2.5831,-2.6056,-2.6173,-2.6179,-2.591,-2.5913,-2.6217,-2.6498,-2.6604,-2.6593,-2.6514,-2.6463,-2.6508,-2.6456,-2.6604,-2.6621,-2.6471,-2.6345,-2.6315,-2.6418,-2.6385,-2.6548,-2.6338,-2.5261,-2.3586,-2.1991,-2.0409,-1.9904,-2.1402,-2.5315,-2.9826,-3.1795,-3.1353,-2.9652,-2.8612,-2.7761,-2.7058,-2.6813,-2.6257,-2.6014,-2.6222,-2.6374,-2.6248,-2.6329,-2.616,-2.6046,-2.601,-2.6085,-2.6117,-2.5987,-2.5885,-2.592,-2.5964,-2.5841,-2.5751,-2.5616,-2.5707,-2.5697,-2.5789,-2.5865,-2.574,-2.5645,-2.5639,-2.5491,-2.5391,-2.5323,-2.5236,-2.5185,-2.5129,-2.4892,-2.4672,-2.4704,-2.4555,-2.4492,-2.4709,-2.4643,-2.4288,-2.4001,-2.3796,-2.3668,-2.3547,-2.3479,-2.315,-2.2786,-2.2619,-2.2556,-2.2441,-2.2229,-2.2139,-2.2006,-2.176,-2.1605,-2.1463,-2.1418,-2.1482,-2.1357,-2.1321,-2.124,-2.1307,-2.1442,-2.1772,-2.2078,-2.2547,-2.2818,-2.3393,-2.39,-2.4094,-2.4401,-2.4781,-2.5274,-2.5494,-2.5551,-2.5615,-2.5737,-2.5875,-2.6064,-2.6091,-2.5909,-2.6031,-2.6108,-2.6083,-2.5946,-2.6119,-2.6118,-2.6164,-2.6144,-2.5987,-2.6072,-2.6221,-2.6406,-2.635,-2.6197,-2.6117,-2.6156,-2.6192,-2.6199,-2.6125,-2.6068,-2.6046,-2.6128,-2.62,-2.6272,-2.629,-2.6277,-2.6114,-2.6049,-2.6089,-2.6208,-2.622,-2.6199,-2.6162,-2.643,-2.6513,-2.6423,-2.6289,-2.6506,-2.6394,-2.6468,-2.6455,-2.645,-2.6416,-2.6398,-2.6366,-2.6455,-2.6699,-2.6642,-2.6475,-2.6618,-2.6636,-2.6443,-2.6388,-2.6576,-2.6649,-2.6624,-2.6614,-2.6627,-2.6532,-2.6665,-2.6878,-2.6748,-2.666,-2.6733,-2.6748,-2.6672,-2.6797,-2.6805,-2.6983,-2.6957,-2.7028,-2.6962,-2.6995,-2.7137,-2.7155,-2.718,-2.7154,-2.7266,-2.7336,-2.7242,-2.732,-2.7473,-2.7559,-2.7656,-2.7741,-2.7727,-2.7653,-2.764,-2.7632,-2.7757,-2.8048,-2.8068,-2.8139,-2.8021,-2.8125,-2.823,-2.8178,-2.8076,-2.8172,-2.8394,-2.8276,-2.8027,-2.8052,-2.8154,-2.8098,-2.7953,-2.7746,-2.7575,-2.7657,-2.7724,-2.7767,-2.7915,-2.8021,-2.8034,-2.8137,-2.8204,-2.8215,-2.8273,-2.848,-2.8674,-2.8699,-2.8681,-2.8662,-2.8656,-2.8633,-2.861,-2.8453,-2.8394,-2.8492,-2.8614,-2.8567,-2.8642,-2.8314,-2.7127,-2.5709,-2.4835,-2.3341,-2.2028,-2.2859,-2.5677,-2.9826,-3.3647,-3.2823,-3.1121,-3.0508,-2.9835,-2.9137,-2.8459,-2.8494,-2.8276,-2.8267,-2.8215,-2.8295,-2.8114,-2.8065,-2.8012,-2.8049,-2.8,-2.792,-2.7644,-2.7701,-2.7765,-2.7835,-2.7773,-2.7603,-2.7692,-2.7586,-2.7383,-2.7403,-2.7226,-2.708,-2.7295,-2.7242,-2.7164,-2.712,-2.7078,-2.6994,-2.6792,-2.6662,-2.6496,-2.6259,-2.6066,-2.6165,-2.6239,-2.5998,-2.5878,-2.5776,-2.5677,-2.5508,-2.5138,-2.4872,-2.4771,-2.4758,-2.4682,-2.4288,-2.4233,-2.4151,-2.3904,-2.3781,-2.3594,-2.3589,-2.3615,-2.3591,-2.3473,-2.329,-2.3185,-2.3263,-2.332,-2.3381,-2.3538,-2.3805,-2.4011,-2.4228,-2.4564,-2.4775,-2.4905,-2.5663,-2.5989,-2.624,-2.6334,-2.6574,-2.6742,-2.703,-2.7423,-2.7479,-2.7496,-2.7522,-2.7467,-2.7348,-2.7427,-2.7442,-2.7636,-2.7604,-2.7508,-2.7513,-2.7524,-2.7494,-2.7646,-2.7592,-2.7605,-2.7523,-2.7535,-2.7535,-2.7511,-2.7412,-2.7248,-2.7151,-2.7171,-2.7193,-2.7217,-2.7224,-2.7334,-2.7345,-2.7432,-2.7444,-2.7405,-2.7351,-2.7362,-2.7331,-2.7262,-2.7371,-2.7299,-2.7416,-2.7411,-2.736,-2.7605,-2.7618,-2.7664,-2.7585,-2.7524,-2.7333,-2.7292,-2.7285,-2.7357,-2.7286,-2.713,-2.708,-2.7168,-2.7324,-2.7486,-2.749,-2.7273,-2.7261,-2.729,-2.7192,-2.7048,-2.7072,-2.7228,-2.7375,-2.7355,-2.7356,-2.7304,-2.7228,-2.7294,-2.7342,-2.7205,-2.7125,-2.7128,-2.6856,-2.6814,-2.6741,-2.6629,-2.6778,-2.6928,-2.6864,-2.6962,-2.6948,-2.7062,-2.7277,-2.7346,-2.7268,-2.7251,-2.7255,-2.7434,-2.7601,-2.7575,-2.7547,-2.7422,-2.7496,-2.7457,-2.7428,-2.7298,-2.7353,-2.7567,-2.7617,-2.7201,-2.6326,-2.4543,-2.2745,-2.12,-2.0866,-2.2709,-2.6655,-3.0419,-3.1784,-3.0572,-3.011,-2.9595,-2.8772,-2.8147,-2.7721,-2.7538,-2.7212,-2.7103,-2.695,-2.6912,-2.6837,-2.688,-2.682,-2.6935,-2.6931,-2.6716,-2.6576,-2.6739,-2.6628,-2.6716,-2.6683,-2.676,-2.6681,-2.6715,-2.6471,-2.6469,-2.642,-2.6234,-2.6299,-2.6383,-2.6354,-2.6252,-2.6221,-2.6141,-2.5984,-2.5852,-2.5828,-2.5679,-2.5463,-2.5333,-2.529,-2.5298,-2.5288,-2.5095,-2.4902,-2.4575,-2.448,-2.4234,-2.3997,-2.3844,-2.3663,-2.3488,-2.324,-2.296,-2.2923,-2.277,-2.2643,-2.2391,-2.246,-2.2345,-2.2251,-2.2264,-2.2323,-2.2449,-2.2574,-2.2844,-2.2994,-2.3344,-2.3787,-2.4189,-2.4604,-2.4889,-2.5371,-2.5637,-2.5847,-2.6165,-2.6494,-2.6574,-2.6754,-2.6779,-2.6898,-2.7036,-2.7002,-2.7138,-2.7097,-2.7082,-2.7101,-2.7268,-2.7094,-2.697,-2.708,-2.7153,-2.7183,-2.7192,-2.7128,-2.6945,-2.6878,-2.6879,-2.6824,-2.6743,-2.6866,-2.7028,-2.7062,-2.6819,-2.6713,-2.6841,-2.6702,-2.6673,-2.6629,-2.6869,-2.6875,-2.6759,-2.6682,-2.6665,-2.658,-2.6757,-2.6847,-2.6854,-2.6734,-2.6864,-2.6907,-2.686,-2.6775,-2.6882,-2.6889,-2.6753,-2.6683,-2.6832,-2.7011,-2.6995,-2.7013,-2.6995,-2.691,-2.6848,-2.7041,-2.6944,-2.6697,-2.6388,-2.6687,-2.6918,-2.6967,-2.6935,-2.6789,-2.6709,-2.6793,-2.68,-2.691,-2.6889,-2.6899,-2.6803,-2.6625,-2.6822,-2.6996,-2.6976,-2.6516,-2.6597,-2.6742,-2.6711,-2.6471,-2.6289,-2.6386,-2.6444,-2.6311,-2.6232,-2.6209,-2.6015,-2.6106,-2.6475,-2.661,-2.6503,-2.6385,-2.6435,-2.6553,-2.6638,-2.6718,-2.6761,-2.6796,-2.6773,-2.6816,-2.6865,-2.6721,-2.6762,-2.68,-2.6782,-2.6859,-2.6684,-2.6634,-2.6818,-2.683,-2.6561,-2.5691,-2.4208,-2.225,-2.0466,-2.0047,-2.1613,-2.538,-2.997,-3.2389,-3.0777,-2.9399,-2.8657,-2.8103,-2.7372,-2.7078,-2.7015,-2.6676,-2.6673,-2.6499,-2.6322,-2.617,-2.6258,-2.6226,-2.632,-2.6334,-2.6467,-2.6244,-2.6142,-2.5983,-2.6156,-2.6377,-2.6269,-2.6273,-2.6265,-2.6133,-2.5971,-2.6002,-2.6097,-2.5871,-2.576,-2.5681,-2.5718,-2.5635,-2.5661,-2.5587,-2.5415,-2.5243,-2.5086,-2.5057,-2.5204,-2.4981,-2.4669,-2.4542,-2.4508,-2.4513,-2.4359,-2.4082,-2.3914,-2.3709,-2.3499,-2.3172,-2.2905,-2.2743,-2.2467,-2.2459,-2.2319,-2.2077,-2.1984,-2.1975,-2.2052,-2.2142,-2.2002,-2.189,-2.1745,-2.1857,-2.2117,-2.2099,-2.2573,-2.3204,-2.3614,-2.4015,-2.4367,-2.4993,-2.5295,-2.5439,-2.5494,-2.5752,-2.6009,-2.6201,-2.657,-2.6752,-2.6717,-2.6648,-2.6655,-2.6583,-2.6434,-2.6415,-2.6662,-2.6751,-2.6739,-2.6761,-2.6686,-2.6661,-2.6818,-2.6847,-2.6661,-2.6659,-2.663,-2.6793,-2.6755,-2.6695,-2.6571,-2.6549,-2.6536,-2.6437,-2.6597,-2.6751,-2.6718,-2.6387,-2.6169,-2.641,-2.6722,-2.6724,-2.6703,-2.6455,-2.6384,-2.656,-2.6574,-2.6547,-2.648,-2.6426,-2.6571,-2.6623,-2.6587,-2.6533,-2.6535,-2.6503,-2.6689,-2.6757,-2.6611,-2.6495,-2.6574,-2.6461,-2.6346,-2.6589,-2.6697,-2.6857,-2.6704,-2.6657,-2.6582,-2.6603,-2.6622,-2.6649,-2.6598,-2.6435,-2.6242,-2.6418,-2.6678,-2.6748,-2.6694,-2.6536,-2.6564,-2.6588,-2.6526,-2.6523,-2.6649,-2.6758,-2.6635,-2.652,-2.6455,-2.6552,-2.6589,-2.6518,-2.6538,-2.6675,-2.6606,-2.6471,-2.6479,-2.6541,-2.6697,-2.6452,-2.6483,-2.6692,-2.6888,-2.6756,-2.6586,-2.6607,-2.6588,-2.6701,-2.6535,-2.6594,-2.6597,-2.6652,-2.6602,-2.665,-2.6438,-2.6371,-2.6541,-2.6699,-2.668,-2.6634,-2.6557,-2.6765,-2.6853,-2.67,-2.6545,-2.6229,-2.6437,-2.6543,-2.653,-2.6127,-2.6002,-2.5919,-2.5852,-2.5811,-2.5907,-2.6095,-2.6193,-2.6245,-2.6425,-2.6517,-2.6526,-2.6671,-2.6741,-2.6781,-2.6828,-2.6747,-2.6782,-2.6536,-2.6498,-2.6659,-2.6882,-2.683,-2.6699,-2.6637,-2.6706,-2.6872,-2.671,-2.5985,-2.4585,-2.2884,-2.1208,-2.0207,-2.1225,-2.4301,-2.8837,-3.2368,-3.1063,-2.9467,-2.8821,-2.7921,-2.7243,-2.684,-2.6752,-2.6631,-2.6531,-2.6266,-2.6483,-2.6534,-2.6545,-2.6592,-2.6559,-2.6432,-2.6347,-2.6356,-2.6373,-2.6217,-2.6072,-2.6047,-2.6126,-2.6284,-2.6581,-2.643,-2.6269,-2.619,-2.6202,-2.6223,-2.6065,-2.6051,-2.5805,-2.5726,-2.5753,-2.5684,-2.5742,-2.5663,-2.5517,-2.5374,-2.5329,-2.5148,-2.5142,-2.4898,-2.4579,-2.451,-2.4434,-2.4375,-2.4306,-2.4119,-2.3958,-2.371,-2.3441,-2.3239,-2.3138,-2.3133,-2.3137,-2.3018,-2.2917,-2.2695,-2.2584,-2.2375,-2.2343,-2.2411,-2.2505,-2.2675,-2.2783,-2.2774,-2.2859,-2.3169,-2.3543,-2.381,-2.4064,-2.44,-2.4979,-2.5509,-2.5634,-2.5942,-2.6209,-2.6531,-2.6591,-2.6779,-2.6979,-2.7121,-2.7036,-2.715,-2.7187,-2.7299,-2.7286,-2.7333,-2.7272,-2.7235,-2.7363,-2.7433,-2.7387,-2.7199,-2.7236,-2.7404,-2.7472,-2.7456,-2.7425,-2.7189,-2.6966,-2.705,-2.7332,-2.7322,-2.7187,-2.7091,-2.7039,-2.7042,-2.7134,-2.7198,-2.7136,-2.7036,-2.7009,-2.7004,-2.7196,-2.7234,-2.7194,-2.7247,-2.731,-2.7248,-2.7157,-2.7257,-2.7336,-2.7368,-2.7412,-2.7439,-2.728,-2.7249,-2.7361,-2.7322,-2.7222,-2.7139,-2.7208,-2.7136,-2.7155,-2.7137,-2.7125,-2.7314,-2.741,-2.7338,-2.7202,-2.7249,-2.7262,-2.7443,-2.7319,-2.7274,-2.7187,-2.7167,-2.7275,-2.7232,-2.6953,-2.7045,-2.7173,-2.7138,-2.7114,-2.7043,-2.7074,-2.7141,-2.736,-2.7402,-2.7363,-2.7246,-2.7137,-2.7204,-2.7213,-2.7182,-2.7197,-2.7017,-2.7078,-2.7243,-2.7256,-2.7178,-2.7001,-2.7112,-2.7118,-2.709,-2.7214,-2.6882,-2.6773,-2.7029,-2.7122,-2.7192,-2.7104,-2.7183,-2.7313,-2.7261,-2.721,-2.7208,-2.7028,-2.7132,-2.7116,-2.7054,-2.689,-2.679,-2.6735,-2.6761,-2.6509,-2.6308,-2.6175,-2.6174,-2.6463,-2.6544,-2.6594,-2.6669,-2.6764,-2.6929,-2.7214,-2.7159,-2.7078,-2.7065,-2.7156,-2.7261,-2.7204,-2.7077,-2.6967,-2.7177,-2.7133,-2.7156,-2.7112,-2.6926,-2.6973,-2.7014,-2.6889,-2.6145,-2.49,-2.3563,-2.2342,-2.1443,-2.1213,-2.266,-2.6342,-3.0043,-3.1349,-3.0016,-2.9156,-2.8671,-2.7911,-2.7429,-2.7065,-2.6879,-2.6667,-2.6399,-2.6641,-2.672,-2.6861,-2.6826,-2.6699,-2.6648,-2.6566,-2.6419,-2.6398,-2.6324,-2.6298,-2.6267,-2.6236,-2.626,-2.6248,-2.6125,-2.6075,-2.6164,-2.6271,-2.6153,-2.5891,-2.5952,-2.5781,-2.5721,-2.5717,-2.5718,-2.5647,-2.5493,-2.5414,-2.5477,-2.5297,-2.4967,-2.4875,-2.4866,-2.4896,-2.4821,-2.4507,-2.4191,-2.4027,-2.4019,-2.3912,-2.3685,-2.3409,-2.3297,-2.316,-2.3067,-2.2734,-2.2748,-2.2738,-2.2626,-2.2628,-2.2547,-2.2553,-2.2278,-2.2342,-2.2326,-2.2322,-2.2468,-2.2668,-2.2829,-2.3242,-2.374,-2.4253,-2.4282,-2.4522,-2.4788,-2.5336,-2.5756,-2.5744,-2.5962,-2.6114,-2.6422,-2.6642,-2.673,-2.6606,-2.6736,-2.6999,-2.69,-2.6756,-2.68,-2.6759,-2.6618,-2.6259,-2.6531,-2.6894,-2.6977,-2.7014,-2.6811,-2.6721,-2.6685,-2.6487,-2.6614,-2.6528,-2.6428,-2.6452,-2.6492,-2.661,-2.6523,-2.641,-2.6285,-2.6449,-2.6367,-2.6342,-2.6134,-2.6036,-2.6134,-2.622,-2.6596,-2.6669,-2.6644,-2.6665,-2.6664,-2.6647,-2.6568,-2.6474,-2.6425,-2.6499,-2.6626,-2.6426,-2.6595,-2.6638,-2.6618,-2.6534,-2.6389,-2.6217,-2.6325,-2.6499,-2.6676,-2.6578,-2.6525,-2.6485,-2.6379,-2.6528,-2.6684,-2.658,-2.6463,-2.6553,-2.656,-2.6573,-2.6411,-2.6353,-2.6442,-2.6442,-2.6427,-2.6428,-2.6373,-2.6384,-2.6415,-2.655,-2.6511,-2.6426,-2.6391,-2.6637,-2.6602,-2.653,-2.6573,-2.6525,-2.6453,-2.6558,-2.6473,-2.6371,-2.6474,-2.6507,-2.6486,-2.6446,-2.6391,-2.6364,-2.649,-2.6474,-2.6566,-2.6572,-2.6395,-2.6495,-2.6685,-2.6578,-2.6572,-2.6463,-2.642,-2.6426,-2.6352,-2.6574,-2.6424,-2.6292,-2.6368,-2.6448,-2.6299,-2.6155,-2.592,-2.5879,-2.5909,-2.5701,-2.5599,-2.5639,-2.6102,-2.6183,-2.6128,-2.6039,-2.6144,-2.6187,-2.6153,-2.621,-2.6309,-2.6529,-2.6684,-2.6849,-2.6803,-2.6639,-2.654,-2.642,-2.6384,-2.6348,-2.6318,-2.6427,-2.659,-2.6596,-2.6028,-2.4422,-2.2498,-2.0897,-1.9839,-2.0948,-2.3784,-2.8433,-3.2161,-3.1068,-2.9276,-2.8504,-2.8064,-2.7324,-2.6879,-2.6655,-2.6299,-2.6278,-2.6251,-2.6352,-2.6158,-2.6045,-2.5907,-2.6012,-2.6003,-2.6095,-2.6111,-2.5972,-2.5911,-2.5996,-2.5836,-2.5839,-2.5852,-2.5848,-2.5692,-2.5626,-2.5708,-2.5771,-2.5553,-2.5538,-2.5561,-2.5306,-2.5105,-2.513,-2.5362,-2.5361,-2.5181,-2.5023,-2.481,-2.4634,-2.4581,-2.4475,-2.4448,-2.428,-2.4172,-2.4015,-2.3694,-2.3586,-2.3495,-2.3487,-2.3271,-2.2838,-2.2695,-2.2639,-2.2578,-2.2235,-2.2069,-2.1807,-2.1768,-2.1686,-2.1724,-2.1732,-2.1702,-2.1881,-2.181,-2.1835,-2.1851,-2.2089,-2.226,-2.2604,-2.2894,-2.352,-2.4207,-2.4365,-2.4627,-2.491,-2.5276,-2.5616,-2.5894,-2.5669,-2.5877,-2.6161,-2.619,-2.6251,-2.6383,-2.6411,-2.6534,-2.6431,-2.64,-2.6304,-2.64,-2.6357,-2.6254,-2.6406,-2.636,-2.6488,-2.6367,-2.6326,-2.6334,-2.6149,-2.6351,-2.6345,-2.6338,-2.628,-2.6296,-2.6338,-2.6098,-2.616,-2.6107,-2.6076,-2.5928,-2.6069,-2.5961,-2.5976,-2.6148,-2.608,-2.6018,-2.6052,-2.6098,-2.62,-2.6234,-2.6028,-2.6106,-2.6264,-2.6224,-2.6117,-2.6091,-2.6105,-2.615,-2.6163,-2.6199,-2.636,-2.6311,-2.6205,-2.6132,-2.6196,-2.6251,-2.6216,-2.6084,-2.5906,-2.6081,-2.6205,-2.6017,-2.6064,-2.6202,-2.622,-2.6368,-2.6248,-2.5946,-2.5871,-2.6075,-2.6179,-2.623,-2.6184,-2.6102,-2.6065,-2.6121,-2.616,-2.6225,-2.6187,-2.5926,-2.6063,-2.6104,-2.6088,-2.5862,-2.6001,-2.6011,-2.6062,-2.6238,-2.6238,-2.6153,-2.6188,-2.612,-2.6104,-2.6099,-2.6126,-2.6048,-2.5927,-2.604,-2.5989,-2.5963,-2.6007,-2.608,-2.6096,-2.6034,-2.5922,-2.6001,-2.6056,-2.5756,-2.5709,-2.5872,-2.5829,-2.5724,-2.5532,-2.5532,-2.5264,-2.5318,-2.5474,-2.5568,-2.5648,-2.5703,-2.5744,-2.5736,-2.5894,-2.6092,-2.5994,-2.582,-2.5935,-2.6196,-2.6283,-2.6182,-2.6061,-2.6024,-2.6087,-2.5999,-2.5924,-2.5952,-2.6116,-2.6156,-2.5823,-2.4818,-2.326,-2.1631,-2.0842,-1.9929,-2.049,-2.3322,-2.7572,-3.1514,-3.0485,-2.8936,-2.8219,-2.7269,-2.6594,-2.6173,-2.6104,-2.5927,-2.5867,-2.5728,-2.5794,-2.556,-2.5607,-2.5586,-2.5594,-2.5493,-2.5608,-2.5606,-2.5661,-2.5599,-2.5487,-2.5363,-2.5342,-2.5227,-2.5126,-2.5305,-2.5301,-2.5209,-2.5297,-2.527,-2.5315,-2.5317,-2.5147,-2.4982,-2.4794,-2.4788,-2.4762,-2.4756,-2.4575,-2.4246,-2.4117,-2.4091,-2.4103,-2.409,-2.401,-2.3754,-2.3518,-2.3441,-2.3028,-2.2875,-2.2548,-2.2522,-2.2547,-2.2306,-2.2038,-2.1926,-2.1917,-2.1865,-2.1647,-2.1516,-2.1473,-2.1204,-2.1199,-2.1363,-2.1343,-2.1257,-2.1263,-2.1397,-2.1956,-2.2564,-2.2793,-2.298,-2.3169,-2.3613,-2.4001,-2.4238,-2.4532,-2.5059,-2.5315,-2.5471,-2.5511,-2.5641,-2.5856,-2.6066,-2.6113,-2.6257,-2.6227,-2.6185,-2.6142,-2.6217,-2.6255,-2.6233,-2.6284,-2.6308,-2.6232,-2.6122,-2.6117,-2.6145,-2.6619,-2.6775,-2.6708,-2.6507,-2.6356,-2.6415,-2.6419,-2.6487,-2.6461,-2.6543,-2.6645,-2.6552,-2.6644,-2.6745,-2.676,-2.6839,-2.6788,-2.6755,-2.6703,-2.652,-2.6795,-2.6921,-2.7002,-2.6791,-2.6956,-2.7161,-2.7263,-2.7137,-2.7062,-2.7235,-2.7288,-2.7328,-2.7337,-2.7358,-2.7389,-2.7472,-2.7538,-2.7371,-2.7279,-2.727,-2.7287,-2.7393,-2.727,-2.7254,-2.724,-2.7177,-2.7305,-2.7522,-2.7528,-2.7353,-2.7349,-2.7367,-2.7441,-2.7329,-2.744,-2.7708,-2.7719,-2.7432,-2.7418,-2.7446,-2.7684,-2.7708,-2.7706,-2.776,-2.7757,-2.7778,-2.7702,-2.7777,-2.7734,-2.7767,-2.7773,-2.7787,-2.7759,-2.7892,-2.7611,-2.731,-2.7513,-2.7861,-2.7896,-2.7941,-2.795,-2.8107,-2.8078,-2.7992,-2.7694,-2.7246,-2.7292,-2.7593,-2.7711,-2.7458,-2.72,-2.7267,-2.7064,-2.705,-2.711,-2.7179,-2.7132,-2.7186,-2.7232,-2.7354,-2.7413,-2.7131,-2.7228,-2.7403,-2.7501,-2.7502,-2.7554,-2.7618,-2.7595,-2.7571,-2.7416,-2.7283,-2.7184,-2.7191,-2.7367,-2.7369,-2.6837,-2.557,-2.4834,-2.3352,-2.1713,-2.1117,-2.2423,-2.5743,-2.9323,-3.1205,-3.0047,-2.9311,-2.8823,-2.8068,-2.7394,-2.7452,-2.75,-2.7113,-2.6996,-2.6892,-2.674,-2.6693,-2.6693,-2.6537,-2.6665,-2.666,-2.6716,-2.6691,-2.6677,-2.6548,-2.6341,-2.6293,-2.6372,-2.6313,-2.6284,-2.6356,-2.6302,-2.6222,-2.6238,-2.6095,-2.6025,-2.5952,-2.6078,-2.6045,-2.5817,-2.5569,-2.5403,-2.5416,-2.5416,-2.5286,-2.5112,-2.4941,-2.511,-2.4997,-2.4997,-2.4854,-2.4523,-2.43,-2.4243,-2.4276,-2.398,-2.3781,-2.3571,-2.3435,-2.3301,-2.3178,-2.3064,-2.2989,-2.2769,-2.281,-2.2694,-2.248,-2.246,-2.2616,-2.2689,-2.2626,-2.2564,-2.252,-2.2743,-2.3046,-2.345,-2.4062,-2.4748,-2.5008,-2.5267,-2.5301,-2.5529,-2.5927,-2.6317,-2.6475,-2.6527,-2.6484,-2.6581,-2.6727,-2.6789,-2.6704,-2.6606,-2.6728,-2.6626,-2.6755,-2.6883,-2.6927,-2.6995,-2.6961,-2.6872,-2.6776,-2.6762,-2.6692,-2.6634,-2.6707,-2.6593,-2.6756,-2.6563,-2.6509,-2.6543,-2.6421,-2.6345,-2.627,-2.639,-2.6532,-2.6606,-2.6517,-2.6412,-2.6415,-2.6441,-2.6454,-2.6426,-2.6511,-2.6467,-2.6542,-2.6629,-2.6654,-2.6523,-2.6656,-2.681,-2.6745,-2.6752,-2.6652,-2.649,-2.6501,-2.6501,-2.6548,-2.6522,-2.6547,-2.6705,-2.6695,-2.6752,-2.669,-2.6641,-2.6638,-2.6672,-2.6653,-2.6476,-2.6503,-2.6473,-2.647,-2.6467,-2.6596,-2.6403,-2.6278,-2.6491,-2.6533,-2.6524,-2.6516,-2.6596,-2.651,-2.65,-2.6003,-2.5803,-2.586,-2.603,-2.6115,-2.6253,-2.6095,-2.5957,-2.5865,-2.559,-2.5643,-2.5945,-2.6111,-2.5989,-2.6069,-2.6069,-2.5978,-2.5994,-2.6185,-2.6387,-2.6455,-2.6308,-2.6275,-2.6534,-2.6588,-2.6442,-2.6433,-2.6368,-2.6606,-2.6578,-2.6399,-2.6574,-2.6417,-2.6164,-2.523,-2.3715,-2.1876,-2.0898,-1.9593,-2.0354,-2.3376,-2.7675,-3.1621,-3.0695,-2.9214,-2.8473,-2.7686,-2.6948,-2.6626,-2.656,-2.6379,-2.6165,-2.6115,-2.6181,-2.6074,-2.5988,-2.585,-2.5849,-2.5834,-2.595,-2.597,-2.5874,-2.5868,-2.5655,-2.5581,-2.5785,-2.5732,-2.5796,-2.5596,-2.5609,-2.5545,-2.5474,-2.5558,-2.5423,-2.5475,-2.5533,-2.5459,-2.5292,-2.5069,-2.5045,-2.4912,-2.4811,-2.4738,-2.4646,-2.4443,-2.4335,-2.4364,-2.4355,-2.416,-2.3727,-2.355,-2.3181,-2.3151,-2.3095,-2.2851,-2.2718,-2.2687,-2.2553,-2.2344,-2.2049,-2.1878,-2.1766,-2.1687,-2.1491,-2.1404,-2.1498,-2.158,-2.1563,-2.1685,-2.1814,-2.2012,-2.2325,-2.2634,-2.3016,-2.3393,-2.388,-2.4296,-2.4634,-2.481,-2.5067,-2.5362,-2.5649,-2.5749,-2.5764,-2.5775,-2.6035,-2.6205,-2.6116,-2.6056,-2.6258,-2.6421,-2.6349,-2.6203,-2.6151,-2.6258,-2.622,-2.6277,-2.6343,-2.6287,-2.6204,-2.6127,-2.6202,-2.6263,-2.6132,-2.6071,-2.5887,-2.5797,-2.5893,-2.5842,-2.5929,-2.6027,-2.6019,-2.611,-2.5929,-2.5937,-2.5973,-2.5962,-2.5967,-2.5925,-2.575,-2.565,-2.5885,-2.6014,-2.607,-2.5965,-2.5831,-2.5862,-2.5873,-2.6081,-2.5986,-2.587,-2.5981,-2.6034,-2.6208,-2.6159,-2.5999,-2.5862,-2.5975,-2.5917,-2.5895,-2.592,-2.5919,-2.6044,-2.6034,-2.5923,-2.5931,-2.5869,-2.5927,-2.5932,-2.5876,-2.5798,-2.585,-2.5904,-2.5967,-2.5889,-2.5659,-2.5788,-2.6007,-2.6085,-2.6033,-2.5845,-2.5757,-2.5841,-2.5954,-2.6052,-2.5981,-2.5913,-2.581,-2.5866,-2.587,-2.5943,-2.5911,-2.5811,-2.5786,-2.5859,-2.6131,-2.6146,-2.5964,-2.5892,-2.5738,-2.5744,-2.5853,-2.5895,-2.5977,-2.5991,-2.6008,-2.6067,-2.57,-2.5652,-2.5723,-2.5646,-2.543,-2.5315,-2.5348,-2.5187,-2.5211,-2.5199,-2.5235,-2.5362,-2.5433,-2.5613,-2.5754,-2.5777,-2.5839,-2.5831,-2.5831,-2.5754,-2.5687,-2.5903,-2.5978,-2.6083,-2.602,-2.5976,-2.5938,-2.588,-2.6003,-2.5981,-2.6078,-2.5842,-2.5659,-2.4481,-2.2855,-2.1186,-1.9524,-1.9289,-2.113,-2.5185,-2.9768,-3.1266,-2.9565,-2.8139,-2.7315,-2.6636,-2.6233,-2.6151,-2.589,-2.5692,-2.5693,-2.5646,-2.5656,-2.5499,-2.5483,-2.547,-2.5382,-2.5295,-2.5444,-2.5474,-2.5272,-2.5134,-2.5263,-2.52,-2.5098,-2.5257,-2.5272,-2.5283,-2.52,-2.517,-2.511,-2.4974,-2.4919,-2.4849,-2.4902,-2.4688,-2.4704,-2.4611,-2.4422,-2.4366,-2.4189,-2.4076,-2.4117,-2.3962,-2.3741,-2.348,-2.357,-2.3518,-2.3393,-2.3253,-2.2952,-2.2781,-2.2647,-2.2505,-2.2188,-2.1844,-2.1788,-2.1764,-2.1622,-2.148,-2.1328,-2.1194,-2.0941,-2.0879,-2.1054,-2.0981,-2.0916,-2.107,-2.1272,-2.1516,-2.1659,-2.2157,-2.2406,-2.281,-2.3187,-2.3439,-2.3741,-2.4083,-2.459,-2.4827,-2.5082,-2.5162,-2.524,-2.5375,-2.5516,-2.5681,-2.5712,-2.5595,-2.5544,-2.5396,-2.5484,-2.5526,-2.5552,-2.5583,-2.5649,-2.5637,-2.5698,-2.5657,-2.5612,-2.5726,-2.5631,-2.5545,-2.5523,-2.5515,-2.5556,-2.5614,-2.5481,-2.5469,-2.5292,-2.5417,-2.5462,-2.5412,-2.5372,-2.5367,-2.5321,-2.5347,-2.5265,-2.5479,-2.5444,-2.5429,-2.5379,-2.5386,-2.5366,-2.5268,-2.5263,-2.5335,-2.5356,-2.5332,-2.5428,-2.545,-2.5547,-2.5416,-2.5392,-2.5402,-2.5433,-2.5497,-2.5528,-2.5402,-2.5365,-2.5375,-2.5357,-2.5432,-2.5427,-2.5436,-2.539,-2.5435,-2.5276,-2.5338,-2.538,-2.5288,-2.532,-2.522,-2.5059,-2.5162,-2.5254,-2.5355,-2.5379,-2.5545,-2.5554,-2.5516,-2.5417,-2.538,-2.5356,-2.5317,-2.5215,-2.5214,-2.5346,-2.5333,-2.5397,-2.5335,-2.534,-2.5392,-2.5348,-2.5207,-2.5105,-2.5016,-2.4972,-2.524,-2.5363,-2.5519,-2.5369,-2.5346,-2.5419,-2.5383,-2.5373,-2.5203,-2.5249,-2.5148,-2.5089,-2.5103,-2.5165,-2.5317,-2.5397,-2.5335,-2.5253,-2.5035,-2.508,-2.4889,-2.4991,-2.5171,-2.5293,-2.5227,-2.5195,-2.5096,-2.5119,-2.5064,-2.4854,-2.4722,-2.4788,-2.4508,-2.4344,-2.4623,-2.4821,-2.4818,-2.4878,-2.4984,-2.4956,-2.4887,-2.5016,-2.5192,-2.5329,-2.5354,-2.5299,-2.5282,-2.5173,-2.5015,-2.505,-2.5185,-2.5282,-2.5367,-2.528,-2.5286,-2.5251,-2.4764,-2.3973,-2.2378,-2.0522,-1.9025,-1.8937,-2.0203,-2.3826,-2.8415,-3.0604,-2.9111,-2.7746,-2.7052,-2.6093,-2.5608,-2.5171,-2.4962,-2.4873,-2.498,-2.5105,-2.5175,-2.4961,-2.488,-2.4697,-2.4682,-2.4651,-2.4809,-2.4812,-2.4576,-2.4244,-2.4316,-2.4511,-2.4661,-2.4681,-2.4557,-2.4653,-2.4737,-2.4493,-2.4425,-2.4317,-2.412,-2.4063,-2.4183,-2.4138,-2.3942,-2.3861,-2.3948,-2.3734,-2.3581,-2.3688,-2.3606,-2.3437,-2.3359,-2.3178,-2.3039,-2.2804,-2.2703,-2.2474,-2.2312,-2.2089,-2.2011,-2.1873,-2.1828,-2.1596,-2.1366,-2.1171,-2.1128,-2.0972,-2.0866,-2.0748,-2.0674,-2.0487,-2.054,-2.042,-2.0497,-2.0511,-2.0616,-2.0756,-2.1079,-2.1569,-2.183,-2.1908,-2.2388,-2.2908,-2.323,-2.3652,-2.3915,-2.4139,-2.4344,-2.4687,-2.4748,-2.481,-2.5087,-2.5205,-2.5193,-2.5211,-2.5172,-2.5345,-2.5338,-2.5317,-2.5376,-2.5311,-2.5267,-2.5442,-2.5419,-2.5387,-2.5357,-2.5372,-2.5373,-2.538,-2.5292,-2.5249,-2.5162,-2.5173,-2.5169,-2.5168,-2.5069,-2.5232,-2.52,-2.508,-2.5257,-2.5276,-2.5253,-2.525,-2.5039,-2.4998,-2.5103,-2.5198,-2.5107,-2.5216,-2.5255,-2.5385,-2.5293,-2.5452,-2.5381,-2.5404,-2.5358,-2.5452,-2.5609,-2.5659,-2.5688,-2.5545,-2.5505,-2.5636,-2.5761,-2.5711,-2.568,-2.5746,-2.5986,-2.5906,-2.5981,-2.6014,-2.5882,-2.5916,-2.5904,-2.5908,-2.5855,-2.586,-2.5977,-2.6188,-2.6165,-2.6142,-2.6162,-2.6212,-2.6263,-2.6263,-2.622,-2.5991,-2.5773,-2.5983,-2.6016,-2.6197,-2.6133,-2.627,-2.6408,-2.6366,-2.6325,-2.6275,-2.6197,-2.6173,-2.6267,-2.6357,-2.6365,-2.635,-2.6385,-2.6319,-2.6191,-2.6126,-2.6404,-2.6474,-2.649,-2.6346,-2.6239,-2.6206,-2.6267,-2.6294,-2.6395,-2.6373,-2.6288,-2.6241,-2.6256,-2.6443,-2.6528,-2.6465,-2.6558,-2.6666,-2.6497,-2.6393,-2.6451,-2.6283,-2.6252,-2.6419,-2.6432,-2.6219,-2.6098,-2.6131,-2.5899,-2.5713,-2.589,-2.6013,-2.6106,-2.6022,-2.6039,-2.5964,-2.6104,-2.6369,-2.6617,-2.6596,-2.6523,-2.6486,-2.6507,-2.6527,-2.638,-2.6261,-2.6299,-2.644,-2.655,-2.6436,-2.6406,-2.6389,-2.6083,-2.4926,-2.334,-2.2516,-2.1023,-1.9967,-2.0728,-2.318,-2.692,-3.0486,-2.9935,-2.8437,-2.8038,-2.733,-2.6792,-2.6261,-2.6187,-2.5837,-2.5775,-2.5717,-2.5796,-2.5678,-2.5539,-2.5326,-2.5336,-2.5603,-2.5528,-2.5394,-2.5624,-2.5557,-2.5516,-2.5414,-2.5391,-2.5243,-2.5302,-2.5193,-2.531,-2.5167,-2.4961,-2.4903,-2.492,-2.4879,-2.4851,-2.4792,-2.4782,-2.469,-2.4612,-2.4528,-2.446,-2.4329,-2.4245,-2.4155,-2.4124,-2.3928,-2.3695,-2.3493,-2.3503,-2.348,-2.3283,-2.3085,-2.2937,-2.2884,-2.2672,-2.2633,-2.2406,-2.2186,-2.2073,-2.1892,-2.1918,-2.1762,-2.1542,-2.1575,-2.157,-2.1553,-2.1372,-2.1364,-2.157,-2.1884,-2.1967,-2.2142,-2.2548,-2.2975,-2.3252,-2.3399,-2.3747,-2.4005,-2.4207,-2.4515,-2.4712,-2.517,-2.5243,-2.5422,-2.5563,-2.5612,-2.5726,-2.581,-2.5924,-2.6059,-2.6094,-2.6041,-2.6012,-2.5801,-2.5785,-2.5817,-2.5864,-2.5994,-2.5942,-2.5823,-2.5771,-2.5848,-2.5777,-2.5775,-2.5617,-2.5563,-2.5538,-2.5654,-2.563,-2.5611,-2.57,-2.5755,-2.572,-2.573,-2.5651,-2.5717,-2.5722,-2.5832,-2.5798,-2.58,-2.5699,-2.5772,-2.5875,-2.5682,-2.5878,-2.6028,-2.5981,-2.6022,-2.5899,-2.5874,-2.5998,-2.6104,-2.6077,-2.6079,-2.5986,-2.5975,-2.5979,-2.5902,-2.5957,-2.5927,-2.5941,-2.6117,-2.6183,-2.6105,-2.597,-2.5889,-2.6104,-2.6258,-2.6227,-2.6226,-2.6168,-2.6289,-2.6556,-2.6552,-2.666,-2.6615,-2.6559,-2.6615,-2.6368,-2.6363,-2.6242,-2.6226,-2.6325,-2.6389,-2.6156,-2.588,-2.576,-2.5614,-2.5761,-2.5925,-2.5964,-2.6003,-2.603,-2.5972,-2.5885,-2.5972,-2.5993,-2.5969,-2.6094,-2.6033,-2.5889,-2.5893,-2.5895,-2.5908,-2.5814,-2.5685,-2.5591,-2.5567,-2.5613,-2.5533,-2.5406,-2.5108,-2.3969,-2.2359,-2.0672,-1.8999,-1.8547,-1.932,-2.2308,-2.6376,-2.9803,-2.9002,-2.77,-2.719,-2.6479,-2.5905,-2.5259,-2.5153,-2.4941,-2.49,-2.4589,-2.4596,-2.4468,-2.4595,-2.4498,-2.4367,-2.4282,-2.4331,-2.4247,-2.4359,-2.4197,-2.4149,-2.4192,-2.4239,-2.4209,-2.4175,-2.4217,-2.4214,-2.4202,-2.4382,-2.4283,-2.4188,-2.4062,-2.405,-2.4049,-2.3957,-2.3817,-2.3788,-2.3743,-2.3765,-2.3658,-2.3486,-2.3397,-2.3333,-2.3348,-2.3251,-2.3078,-2.2909,-2.278,-2.2643,-2.247,-2.2183,-2.1939,-2.1827,-2.1692,-2.1563,-2.1368,-2.1277,-2.1173,-2.1077,-2.1119,-2.0934,-2.0957,-2.0794,-2.0899,-2.0792,-2.0826,-2.0999,-2.1309,-2.175,-2.2103,-2.2539,-2.3029,-2.3398,-2.3826,-2.4076,-2.4441,-2.448,-2.4508,-2.4725,-2.5105,-2.5156,-2.5103,-2.4962,-2.5028,-2.513,-2.5207,-2.5216,-2.5285,-2.5249,-2.5196,-2.5032,-2.504,-2.506,-2.5081,-2.512,-2.5062,-2.5057,-2.5009,-2.4951,-2.4986,-2.4966,-2.4845,-2.484,-2.4707,-2.4805,-2.4816,-2.4675,-2.451,-2.4612,-2.4658,-2.4616,-2.4476,-2.4342,-2.4341,-2.44,-2.4415,-2.4384,-2.4269,-2.4194,-2.4244,-2.4181,-2.4322,-2.421,-2.4153,-2.417,-2.4352,-2.4325,-2.4307,-2.4157,-2.4222,-2.4235,-2.4213,-2.4175,-2.4101,-2.4205,-2.4177,-2.4184,-2.4087,-2.4063,-2.4083,-2.4102,-2.418,-2.4027,-2.4041,-2.4052,-2.4062,-2.4071,-2.3947,-2.3685,-2.3537,-2.3469,-2.3438,-2.346,-2.3304,-2.3174,-2.28,-2.2713,-2.2649,-2.2678,-2.2886,-2.3123,-2.3254,-2.3371,-2.336,-2.3473,-2.3608,-2.3738,-2.3749,-2.3722,-2.3744,-2.3767,-2.379,-2.38,-2.3719,-2.3707,-2.3611,-2.3698,-2.3668,-2.3654,-2.3635,-2.3668,-2.3761,-2.3531,-2.258,-2.0748,-1.8561,-1.6526,-1.5637,-1.7279,-2.1544,-2.6605,-2.9369,-2.786,-2.621,-2.5518,-2.4487,-2.3988,-2.3843,-2.3685,-2.3448,-2.3494,-2.3485,-2.3632,-2.3567,-2.3531,-2.3496,-2.3543,-2.3544,-2.3614,-2.3541,-2.3518,-2.3472,-2.3539,-2.3493,-2.3475,-2.3417,-2.3357,-2.3353,-2.3308,-2.3249,-2.3186,-2.302,-2.3016,-2.2938,-2.2853,-2.2663,-2.2589,-2.2487,-2.2406,-2.2315,-2.2101,-2.2021,-2.1949,-2.1781,-2.1616,-2.1378,-2.1285,-2.1182,-2.1028,-2.0846,-2.0539,-2.0259,-2.0168,-1.9915,-1.9723,-1.9441,-1.9165,-1.907,-1.8952,-1.8852,-1.8678,-1.8548,-1.8458,-1.849,-1.8388,-1.8392,-1.8446,-1.8506,-1.8763,-1.9121,-1.9461,-1.9826,-2.0328,-2.0798,-2.1287,-2.1724,-2.2064,-2.2347,-2.27,-2.3027,-2.3208,-2.3377,-2.3428,-2.3583,-2.3651,-2.3677,-2.3621,-2.3633,-2.371,-2.3743,-2.3755,-2.3695,-2.3685,-2.3781,-2.3825,-2.3802,-2.3819,-2.3898,-2.3851,-2.4014,-2.3901,-2.3708,-2.3547,-2.3667,-2.376,-2.3722,-2.3684,-2.3781,-2.379,-2.375,-2.3612,-2.3608,-2.3685,-2.361,-2.3826,-2.4017,-2.3993,-2.3838,-2.3651,-2.3786,-2.4036,-2.4302,-2.4126,-2.3951,-2.3896,-2.3916,-2.3815,-2.3704,-2.3769,-2.3949,-2.4119,-2.4197,-2.4149,-2.4019,-2.4125,-2.4284,-2.435,-2.4348,-2.4253,-2.4197,-2.4016,-2.3961,-2.3793,-2.3737,-2.3911,-2.3866,-2.3545,-2.3299,-2.3273,-2.3066,-2.3331,-2.3597,-2.3769,-2.393,-2.3988,-2.4218,-2.4222,-2.4293,-2.4352,-2.4428,-2.4571,-2.4642,-2.4651,-2.4519,-2.4471,-2.4554,-2.45,-2.4439,-2.4462,-2.4471,-2.4616,-2.4712,-2.4717,-2.4819,-2.4596,-2.3743,-2.1949,-1.9895,-1.7732,-1.6983,-1.9215,-2.3855,-2.8771,-3.0863,-2.9116,-2.7682,-2.6987,-2.5987,-2.5725,-2.5318,-2.5121,-2.5063,-2.5094,-2.5085,-2.4955,-2.4941,-2.4876,-2.4908,-2.4808,-2.4768,-2.4849,-2.4883,-2.4858,-2.4804,-2.4865,-2.4802,-2.4846,-2.4888,-2.489,-2.4787,-2.471,-2.4725,-2.4754,-2.4689,-2.457,-2.4439,-2.4428,-2.4381,-2.4264,-2.41,-2.3992,-2.3951,-2.3887,-2.3636,-2.3516,-2.3341,-2.3312,-2.3115,-2.2865,-2.2771,-2.2522,-2.224,-2.2155,-2.1975,-2.1783,-2.1434,-2.1205,-2.105,-2.0922,-2.0764,-2.0526,-2.0382,-2.0367,-2.0127,-2.0048,-2.0026,-1.9883,-1.9935,-2.0111,-2.0134,-2.0249,-2.0491,-2.0901,-2.1283,-2.1662,-2.1985,-2.238,-2.2771,-2.3181,-2.3456
