-0.22412,-0.22732,-0.22016,-0.22372,-0.20981,-0.21919,-0.22021,-0.21491,-0.20393,-0.2069,-0.21136,-0.20963,-0.20286,-0.2017,-0.20005,-0.20365,-0.21077,-0.20754,-0.19754,-0.19363,-0.19441,-0.20351,-0.19028,-0.18665,-0.19344,-0.19677,-0.19526,-0.19573,-0.1779,-0.18116,-0.18872,-0.19246,-0.19627,-0.17985,-0.17436,-0.1736,-0.18063,-0.17419,-0.15206,-0.15564,-0.1525,-0.15598,-0.15918,-0.15488,-0.14747,-0.14694,-0.14738,-0.14657,-0.13297,-0.13239,-0.14733,-0.14182,-0.13315,-0.12462,-0.11831,-0.11426,-0.11559,-0.10622,-0.098531,-0.077998,-0.066303,-0.070843,-0.067514,-0.059476,-0.037478,-0.036824,-0.044926,-0.038223,-0.042497,-0.033013,-0.036401,-0.043946,-0.043398,-0.038229,-0.025191,-0.02703,-0.036527,-0.038034,-0.023926,-0.0074189,0.00091447,0.0039958,-0.0044525,0.0072682,0.024257,0.029924,0.024229,0.021659,0.030521,0.042686,0.032373,0.039337,0.0338,0.037057,0.045219,0.040959,0.040808,0.041239,0.045035,0.043684,0.032351,0.0261,0.017458,0.01959,0.0085972,0.004467,-0.0085449,-0.021323,-0.030392,-0.024702,-0.02612,-0.036231,-0.048082,-0.054539,-0.064526,-0.047748,-0.052401,-0.065065,-0.074373,-0.075636,-0.065963,-0.073908,-0.085021,-0.085143,-0.093697,-0.091632,-0.096175,-0.10813,-0.11077,-0.1102,-0.09878,-0.10029,-0.11125,-0.10642,-0.10904,-0.10142,-0.10063,-0.10981,-0.11834,-0.11585,-0.11365,-0.10978,-0.10408,-0.096549,-0.084891,-0.073051,-0.055659,-0.05353,-0.058688,-0.048604,-0.021531,-0.00098356,-0.0016488,-0.0097877,-0.0074579,-0.012135,-0.0060132,-0.0049773,-0.007905,-0.021664,-0.034154,-0.043536,-0.068926,-0.10768,-0.11641,-0.12978,-0.13159,-0.14407,-0.15245,-0.1539,-0.15746,-0.14831,-0.15447,-0.16496,-0.16808,-0.16426,-0.1588,-0.16534,-0.16881,-0.18341,-0.18337,-0.17014,-0.078905,0.075714,0.34277,0.65705,0.95472,1.1814,1.2529,1.1928,1.0357,0.66677,0.073475,-0.41678,-0.50619,-0.45277,-0.38068,-0.34219,-0.31113,-0.27179,-0.2646,-0.2321,-0.22138,-0.21075,-0.2238,-0.21894,-0.21513,-0.2039,-0.20106,-0.20856,-0.21452,-0.20162,-0.19848,-0.18505,-0.20047,-0.20126,-0.19979,-0.18807,-0.19913,-0.19519,-0.19353,-0.18582,-0.18352,-0.17562,-0.18012,-0.18607,-0.18745,-0.17382,-0.1744,-0.1779,-0.18437,-0.17733,-0.17382,-0.18061,-0.18234,-0.18212,-0.17672,-0.17078,-0.16802,-0.17693,-0.1811,-0.17381,-0.16276,-0.15766,-0.15196,-0.1635,-0.16336,-0.14203,-0.14059,-0.1412,-0.13882,-0.1314,-0.12622,-0.12326,-0.12727,-0.132,-0.12712,-0.11818,-0.11441,-0.11633,-0.11054,-0.12052,-0.11251,-0.10329,-0.095987,-0.097777,-0.098092,-0.091334,-0.076689,-0.07316,-0.07338,-0.068382,-0.055547,-0.040594,-0.040214,-0.048293,-0.041554,-0.03649,-0.031163,-0.041975,-0.044104,-0.037314,-0.038925,-0.028329,-0.033585,-0.041109,-0.045815,-0.046788,-0.015757,-0.018851,-0.015431,-0.015321,-0.0072002,0.0065042,0.015244,0.014092,0.010232,0.012067,0.023743,0.027768,0.026082,0.027325,0.034954,0.040656,0.047714,0.046017,0.031483,0.026505,0.035126,0.040773,0.040055,0.022301,0.014691,0.013884,0.013131,-0.002096,-0.01406,-0.024827,-0.024728,-0.020882,-0.024216,-0.035039,-0.048501,-0.057034,-0.045966,-0.058425,-0.069545,-0.068408,-0.073959,-0.082125,-0.081774,-0.091895,-0.094485,-0.10119,-0.096503,-0.097727,-0.10902,-0.10872,-0.10985,-0.10875,-0.10433,-0.10963,-0.11998,-0.1219,-0.11858,-0.11714,-0.11894,-0.12558,-0.13323,-0.12506,-0.11853,-0.1253,-0.13795,-0.13661,-0.1246,-0.12274,-0.12683,-0.13667,-0.13375,-0.12747,-0.12289,-0.12925,-0.14415,-0.14109,-0.13744,-0.13368,-0.14001,-0.14515,-0.14616,-0.14297,-0.13392,-0.13674,-0.14536,-0.14426,-0.14188,-0.13574,-0.14089,-0.15295,-0.14752,-0.14889,-0.14112,-0.14299,-0.14505,-0.14929,-0.15239,-0.14332,-0.13983,-0.14543,-0.15754,-0.15354,-0.147,-0.14266,-0.15576,-0.15704,-0.1571,-0.1422,-0.14402,-0.14755,-0.1609,-0.1534,-0.14869,-0.14419,-0.14876,-0.15746,-0.15456,-0.15219,-0.15208,-0.14778,-0.16067,-0.16153,-0.1531,-0.14824,-0.14998,-0.15845,-0.15712,-0.15016,-0.15429,-0.15058,-0.16463,-0.154,-0.15144,-0.14839,-0.15015,-0.15634,-0.16148,-0.15548,-0.14254,-0.14824,-0.15368,-0.15653,-0.15404,-0.14721,-0.14579,-0.15729,-0.1602,-0.15637,-0.15457,-0.15096,-0.14266,-0.13639,-0.12879,-0.10098,-0.095885,-0.090375,-0.093569,-0.076781,-0.059246,-0.047768,-0.041446,-0.04724,-0.039237,-0.025271,-0.025554,-0.035992,-0.066985,-0.077318,-0.09214,-0.10679,-0.1275,-0.14351,-0.14934,-0.14808,-0.15096,-0.16596,-0.17773,-0.18279,-0.17457,-0.17673,-0.17888,-0.1857,-0.18554,-0.18834,-0.19391,-0.19557,-0.13629,-0.014532,0.23587,0.55861,0.85658,1.1104,1.1909,1.2133,1.2004,1.0108,0.62187,0.053753,-0.40918,-0.47413,-0.40132,-0.3578,-0.32221,-0.29246,-0.25906,-0.25007,-0.23692,-0.24929,-0.24195,-0.23067,-0.22706,-0.23582,-0.24348,-0.24659,-0.2329,-0.22951,-0.22729,-0.24145,-0.23353,-0.23363,-0.22978,-0.24247,-0.24138,-0.23996,-0.23234,-0.23033,-0.22773,-0.23827,-0.22903,-0.22747,-0.21987,-0.22452,-0.22312,-0.22296,-0.21887,-0.2069,-0.20745,-0.21415,-0.21846,-0.21146,-0.21142,-0.21335,-0.21839,-0.21605,-0.21497,-0.2015,-0.20674,-0.20903,-0.20945,-0.20849,-0.19258,-0.19809,-0.19208,-0.19131,-0.18699,-0.17335,-0.17737,-0.17052,-0.17505,-0.16984,-0.16168,-0.1619,-0.16691,-0.16035,-0.15543,-0.15429,-0.14983,-0.14832,-0.14801,-0.14623,-0.13284,-0.13432,-0.13252,-0.13253,-0.12639,-0.11139,-0.098684,-0.093069,-0.092242,-0.09106,-0.076854,-0.070241,-0.073813,-0.07701,-0.070619,-0.060552,-0.05937,-0.048786,-0.061008,-0.056268,-0.058207,-0.040337,-0.04081,-0.042754,-0.043226,-0.035323,-0.023159,-0.0109,-0.0083221,-0.033159,-0.025415,-0.0090182,0.0046198,0.0021653,0.00036088,0.015415,0.020838,0.0194,0.015525,0.010107,0.019811,0.025695,0.026155,0.013808,0.0053191,0.0025667,0.0043978,0.017068,-0.009451,-0.010848,-0.040977,-0.042987,-0.033854,-0.047439,-0.075283,-0.05689,-0.062365,-0.078464,-0.076625,-0.093508,-0.096722,-0.098261,-0.097901,-0.10193,-0.11053,-0.1149,-0.11927,-0.13012,-0.11066,-0.13465,-0.1262,-0.12089,-0.12136,-0.12342,-0.14023,-0.14959,-0.1384,-0.14114,-0.14659,-0.15064,-0.14213,-0.14454,-0.14163,-0.14441,-0.15199,-0.1518,-0.15423,-0.16044,-0.14975,-0.14373,-0.17621,-0.16198,-0.15714,-0.15188,-0.16005,-0.16238,-0.16503,-0.1643,-0.15462,-0.15938,-0.16634,-0.16596,-0.16282,-0.16978,-0.16576,-0.1731,-0.18022,-0.1695,-0.15547,-0.16359,-0.17641,-0.17106,-0.16728,-0.16393,-0.16082,-0.17595,-0.17508,-0.1657,-0.16632,-0.16652,-0.17503,-0.16911,-0.16122,-0.16441,-0.1656,-0.16475,-0.17158,-0.17375,-0.16586,-0.1642,-0.16788,-0.17826,-0.16638,-0.16269,-0.17536,-0.17001,-0.16927,-0.17826,-0.16686,-0.16484,-0.16595,-0.17561,-0.17304,-0.16563,-0.16307,-0.16697,-0.17975,-0.17318,-0.16473,-0.16352,-0.17188,-0.18319,-0.18467,-0.16711,-0.16404,-0.15364,-0.1578,-0.13949,-0.10955,-0.10552,-0.10056,-0.094541,-0.088219,-0.068121,-0.061582,-0.060126,-0.057295,-0.070165,-0.059534,-0.054554,-0.066607,-0.08787,-0.1093,-0.12865,-0.13387,-0.1583,-0.17937,-0.18363,-0.19563,-0.19121,-0.20078,-0.21037,-0.21195,-0.2107,-0.20586,-0.22167,-0.21809,-0.22656,-0.22766,-0.22476,-0.2238,-0.20963,-0.045774,0.2144,0.53781,0.84129,1.0825,1.1998,1.2008,1.1507,0.7948,0.29683,-0.29229,-0.53151,-0.50918,-0.44403,-0.38733,-0.36969,-0.32108,-0.30624,-0.27454,-0.27537,-0.27123,-0.26536,-0.26668,-0.26678,-0.26132,-0.26995,-0.26751,-0.25298,-0.24865,-0.26024,-0.25991,-0.25546,-0.25012,-0.2479,-0.23996,-0.25142,-0.25373,-0.24717,-0.23442,-0.23992,-0.24164,-0.24834,-0.24599,-0.23708,-0.22945,-0.23523,-0.2363,-0.22733,-0.21104,-0.21953,-0.22893,-0.22857,-0.21541,-0.21298,-0.21805,-0.20886,-0.21824,-0.21588,-0.21202,-0.2084,-0.20575,-0.21976,-0.20568,-0.19595,-0.19675,-0.19143,-0.19409,-0.18632,-0.18067,-0.1724,-0.1766,-0.17439,-0.17575,-0.17292,-0.16239,-0.15892,-0.16706,-0.16952,-0.16183,-0.15158,-0.1521,-0.15334,-0.14984,-0.14318,-0.13631,-0.12994,-0.13564,-0.13131,-0.10994,-0.10098,-0.097511,-0.098413,-0.084734,-0.082751,-0.070571,-0.074401,-0.079781,-0.084036,-0.079488,-0.067561,-0.070093,-0.07238,-0.074382,-0.070444,-0.062816,-0.055514,-0.060031,-0.058813,-0.048504,-0.033054,-0.029859,-0.036589,-0.035737,-0.030001,-0.0254,-0.018979,-0.017622,-0.033729,-0.024948,-0.0046198,-0.0018955,-0.00091571,-0.026007,-0.023659,-0.0094593,-0.0089315,-0.0094941,-0.030365,-0.029328,-0.022162,-0.02738,-0.032025,-0.048967,-0.056331,-0.053708,-0.048988,-0.062758,-0.071284,-0.082105,-0.084753,-0.072845,-0.084609,-0.11034,-0.11862,-0.11892,-0.11516,-0.12022,-0.12976,-0.13744,-0.1388,-0.13596,-0.13933,-0.14851,-0.14955,-0.14683,-0.13723,-0.14934,-0.15219,-0.16454,-0.15554,-0.1534,-0.15967,-0.15575,-0.17042,-0.17894,-0.16061,-0.15695,-0.16444,-0.17957,-0.17983,-0.17071,-0.1718,-0.17223,-0.18111,-0.17107,-0.17127,-0.16627,-0.1743,-0.18713,-0.19194,-0.1829,-0.17289,-0.17361,-0.18857,-0.1922,-0.19068,-0.18094,-0.1868,-0.19031,-0.18892,-0.18622,-0.17957,-0.1845,-0.1937,-0.19318,-0.19324,-0.18891,-0.18955,-0.18723,-0.19932,-0.19481,-0.18345,-0.18439,-0.19012,-0.19859,-0.19763,-0.1782,-0.18096,-0.19727,-0.19345,-0.18407,-0.1744,-0.18724,-0.18558,-0.19339,-0.19598,-0.1849,-0.18444,-0.19303,-0.19165,-0.19686,-0.17543,-0.15721,-0.1494,-0.15,-0.13711,-0.11674,-0.10074,-0.095336,-0.093787,-0.088823,-0.072981,-0.062537,-0.062737,-0.075933,-0.07925,-0.072641,-0.07802,-0.10292,-0.13845,-0.15558,-0.16444,-0.16335,-0.17346,-0.1835,-0.21533,-0.21186,-0.19999,-0.20387,-0.21314,-0.2189,-0.21277,-0.20719,-0.21037,-0.23059,-0.24267,-0.23924,-0.20643,-0.082544,0.10799,0.42054,0.72705,1.0039,1.1929,1.2139,1.1674,0.93213,0.51783,-0.090415,-0.47886,-0.52504,-0.46867,-0.38169,-0.33533,-0.31378,-0.31297,-0.28126,-0.27215,-0.25407,-0.25598,-0.26519,-0.26145,-0.2538,-0.25144,-0.25323,-0.27079,-0.26372,-0.25026,-0.24633,-0.24504,-0.24838,-0.2477,-0.24893,-0.24183,-0.23934,-0.24731,-0.25566,-0.25471,-0.23203,-0.242,-0.23993,-0.24108,-0.23776,-0.22857,-0.24058,-0.236,-0.23675,-0.22714,-0.21481,-0.21236,-0.22073,-0.23244,-0.22755,-0.22225,-0.21127,-0.2141,-0.22767,-0.23029,-0.22044,-0.21142,-0.2153,-0.21812,-0.21519,-0.20016,-0.1999,-0.1995,-0.20563,-0.19226,-0.18349,-0.17754,-0.16994,-0.1871,-0.18328,-0.17144,-0.16722,-0.16394,-0.1681,-0.16865,-0.16907,-0.1546,-0.14695,-0.15256,-0.15022,-0.14203,-0.12903,-0.12059,-0.12027,-0.1109,-0.098584,-0.085302,-0.081776,-0.090813,-0.091247,-0.079944,-0.069365,-0.063198,-0.068934,-0.07631,-0.075675,-0.071599,-0.070379,-0.066226,-0.077354,-0.070651,-0.051753,-0.048195,-0.048641,-0.05137,-0.044024,-0.033069,-0.032191,-0.027243,-0.036524,-0.031687,-0.012371,-0.010213,-0.0085568,-0.010975,-0.005663,0.0018622,0.006794,0.0044405,-0.0089028,-0.015598,-0.010656,-0.0040033,-0.015413,-0.033906,-0.039535,-0.023679,-0.024765,-0.028662,-0.048421,-0.057,-0.056334,-0.055792,-0.06271,-0.07402,-0.090581,-0.093312,-0.083067,-0.088557,-0.095925,-0.11025,-0.10806,-0.1024,-0.11372,-0.1243,-0.13145,-0.12725,-0.12062,-0.13092,-0.1362,-0.14259,-0.15227,-0.13343,-0.13792,-0.14475,-0.15128,-0.15627,-0.14766,-0.14856,-0.15411,-0.15116,-0.15366,-0.15433,-0.15008,-0.15867,-0.17679,-0.16927,-0.15273,-0.15085,-0.15958,-0.16196,-0.15759,-0.15594,-0.15699,-0.16134,-0.15751,-0.16545,-0.16125,-0.13533,-0.12579,-0.13175,-0.11647,-0.10219,-0.088464,-0.084081,-0.084156,-0.075777,-0.04841,-0.038704,-0.037073,-0.049288,-0.045691,-0.045084,-0.046923,-0.053543,-0.068812,-0.10331,-0.13248,-0.13875,-0.15016,-0.16282,-0.18822,-0.18371,-0.18195,-0.1875,-0.20108,-0.20576,-0.20538,-0.19846,-0.19682,-0.20555,-0.20718,-0.20322,-0.20844,-0.21063,-0.21964,-0.15674,-0.0071051,0.23161,0.54162,0.82296,1.0747,1.2094,1.1713,1.0892,0.92737,0.51614,-0.35969,-0.53969,-0.49039,-0.45362,-0.36485,-0.34797,-0.27843,-0.29438,-0.25618,-0.27295,-0.23799,-0.25999,-0.22585,-0.24724,-0.23549,-0.26051,-0.23447,-0.24213,-0.2263,-0.25446,-0.23187,-0.24474,-0.22637,-0.24153,-0.23538,-0.2412,-0.22805,-0.23358,-0.21452,-0.23054,-0.23424,-0.23289,-0.21661,-0.21777,-0.21966,-0.23257,-0.21942,-0.21752,-0.21186,-0.21631,-0.22633,-0.22719,-0.21169,-0.21217,-0.21277,-0.22315,-0.21953,-0.20829,-0.20053,-0.20399,-0.21357,-0.21347,-0.19456,-0.187,-0.18479,-0.19023,-0.19624,-0.17985,-0.17066,-0.16567,-0.17801,-0.17395,-0.17014,-0.15721,-0.16102,-0.16528,-0.16418,-0.15568,-0.15954,-0.14859,-0.15426,-0.15184,-0.15075,-0.13899,-0.12923,-0.12221,-0.13182,-0.11731,-0.10693,-0.084119,-0.095256,-0.094549,-0.086354,-0.069617,-0.075711,-0.071843,-0.083273,-0.07916,-0.079381,-0.06813,-0.075709,-0.082033,-0.085299,-0.071647,-0.068983,-0.060138,-0.073208,-0.06128,-0.056359,-0.04393,-0.045308,-0.042979,-0.043269,-0.031482,-0.023536,-0.016949,-0.031378,-0.016747,-0.015144,-0.0075345,-0.0081141,-0.016445,-0.016541,-0.0094702,-0.0049945,-0.011926,-0.017234,-0.022847,-0.026358,-0.022191,-0.027897,-0.034549,-0.049148,-0.055337,-0.052219,-0.058524,-0.075431,-0.082851,-0.085752,-0.078819,-0.089938,-0.093182,-0.10507,-0.1054,-0.099472,-0.10245,-0.11624,-0.12328,-0.13486,-0.12737,-0.13019,-0.13454,-0.14666,-0.15063,-0.14032,-0.14559,-0.14606,-0.15608,-0.1581,-0.15483,-0.14568,-0.15374,-0.15774,-0.15694,-0.16096,-0.15862,-0.15938,-0.16507,-0.17308,-0.16212,-0.15954,-0.16668,-0.16923,-0.16964,-0.16883,-0.16128,-0.1698,-0.17964,-0.1774,-0.17529,-0.16001,-0.16204,-0.1634,-0.16338,-0.14927,-0.12873,-0.12204,-0.11016,-0.098626,-0.097043,-0.074507,-0.054591,-0.050577,-0.067502,-0.054427,-0.043537,-0.047477,-0.051309,-0.060566,-0.070813,-0.071969,-0.093014,-0.12194,-0.15645,-0.17118,-0.18076,-0.18242,-0.19159,-0.19984,-0.20936,-0.20065,-0.19607,-0.20142,-0.21325,-0.20901,-0.20809,-0.20253,-0.21334,-0.23576,-0.2405,-0.237,-0.19022,-0.065132,0.14421,0.44976,0.74655,1.0456,1.2205,1.206,1.1605,0.87735,0.42919,-0.188,-0.51214,-0.51577,-0.45975,-0.37767,-0.35132,-0.30345,-0.30315,-0.27742,-0.2728,-0.24598,-0.25636,-0.25539,-0.25866,-0.24456,-0.23914,-0.23429,-0.24598,-0.23981,-0.24472,-0.23352,-0.23761,-0.24606,-0.2508,-0.23055,-0.23446,-0.2377,-0.24792,-0.2363,-0.23765,-0.22791,-0.22497,-0.23487,-0.23664,-0.2212,-0.21589,-0.21465,-0.22619,-0.21539,-0.21082,-0.21108,-0.20948,-0.21491,-0.2155,-0.21029,-0.2139,-0.20678,-0.20855,-0.21058,-0.20216,-0.19863,-0.19221,-0.19563,-0.19574,-0.19099,-0.18056,-0.17616,-0.17717,-0.18078,-0.16946,-0.16042,-0.15464,-0.15677,-0.1613,-0.16071,-0.15106,-0.15388,-0.15297,-0.15495,-0.14591,-0.13777,-0.13717,-0.13304,-0.14,-0.13293,-0.12167,-0.11323,-0.10676,-0.11239,-0.089428,-0.075759,-0.071611,-0.07449,-0.086954,-0.084494,-0.074221,-0.070093,-0.068823,-0.06597,-0.063602,-0.068985,-0.067031,-0.064019,-0.066318,-0.069113,-0.056881,-0.044333,-0.038648,-0.053816,-0.044467,-0.04003,-0.024998,-0.024824,-0.027006,-0.027522,-0.012942,-0.008711,4.1109e-06,-0.0020948,-0.0041736,-0.0064944,-1.1916e-05,0.0036661,-0.0042039,-0.012668,-0.0086754,-0.0099247,-0.01356,-0.019445,-0.031326,-0.038323,-0.027546,-0.033188,-0.044376,-0.063024,-0.071236,-0.055997,-0.061245,-0.07241,-0.085411,-0.099111,-0.095242,-0.092179,-0.097335,-0.1138,-0.11068,-0.12054,-0.11404,-0.12651,-0.12963,-0.14043,-0.13545,-0.13187,-0.13791,-0.15141,-0.14871,-0.14757,-0.14779,-0.15038,-0.15086,-0.16655,-0.16489,-0.15724,-0.1566,-0.16345,-0.16858,-0.17333,-0.16191,-0.1635,-0.17242,-0.17851,-0.17152,-0.1628,-0.16737,-0.17088,-0.17796,-0.17621,-0.16718,-0.16506,-0.17217,-0.17814,-0.18663,-0.17124,-0.16946,-0.17305,-0.18243,-0.18942,-0.17717,-0.17233,-0.18023,-0.19041,-0.18156,-0.16744,-0.17055,-0.17385,-0.18348,-0.18118,-0.1745,-0.16917,-0.1736,-0.1815,-0.18713,-0.18544,-0.17915,-0.17779,-0.18791,-0.18649,-0.18332,-0.17057,-0.1742,-0.1775,-0.18715,-0.18544,-0.17029,-0.17545,-0.1889,-0.18822,-0.18675,-0.17219,-0.17482,-0.18097,-0.19168,-0.19233,-0.18723,-0.18147,-0.18317,-0.18114,-0.17216,-0.1429,-0.13494,-0.12374,-0.12206,-0.11683,-0.099154,-0.077084,-0.072391,-0.08643,-0.078654,-0.074039,-0.066903,-0.061195,-0.075087,-0.076121,-0.080681,-0.10279,-0.12779,-0.15566,-0.16956,-0.17817,-0.18216,-0.19404,-0.21032,-0.21327,-0.21188,-0.20344,-0.21538,-0.2224,-0.22369,-0.22121,-0.22035,-0.22042,-0.24039,-0.24061,-0.19227,-0.053465,0.16715,0.47551,0.77504,1.0567,1.2191,1.2086,1.1911,1.0191,0.62524,-0.19769,-0.52482,-0.49163,-0.4424,-0.36942,-0.34967,-0.31352,-0.30793,-0.28443,-0.28987,-0.25223,-0.2737,-0.25491,-0.27686,-0.26168,-0.26923,-0.25054,-0.2684,-0.26218,-0.26889,-0.24458,-0.25803,-0.25545,-0.26857,-0.25312,-0.25369,-0.2418,-0.25146,-0.25158,-0.2579,-0.24366,-0.23482,-0.23291,-0.24837,-0.24898,-0.24899,-0.23049,-0.23251,-0.23826,-0.23485,-0.23299,-0.2315,-0.23308,-0.24077,-0.23757,-0.22892,-0.22513,-0.22197,-0.22739,-0.22745,-0.2295,-0.217,-0.21892,-0.21898,-0.21966,-0.21317,-0.2053,-0.19127,-0.19571,-0.19881,-0.19862,-0.18238,-0.181,-0.18527,-0.18929,-0.18236,-0.17905,-0.16888,-0.16938,-0.16997,-0.17832,-0.16205,-0.15272,-0.15193,-0.15574,-0.14692,-0.14128,-0.12397,-0.11742,-0.11297,-0.12083,-0.096412,-0.090823,-0.0855,-0.091612,-0.089334,-0.087451,-0.075664,-0.075935,-0.073263,-0.081646,-0.079968,-0.073491,-0.066213,-0.07779,-0.076918,-0.07214,-0.044694,-0.045706,-0.046965,-0.054173,-0.04171,-0.036107,-0.036141,-0.03388,-0.039251,-0.035001,-0.021253,-0.016615,-0.013862,-0.018792,-0.020859,-0.017224,-0.015282,-0.022933,-0.027104,-0.036988,-0.026433,-0.025338,-0.027812,-0.054779,-0.048072,-0.051661,-0.053945,-0.071524,-0.080523,-0.088239,-0.086385,-0.072893,-0.087941,-0.10324,-0.10545,-0.11395,-0.1096,-0.11118,-0.12569,-0.13155,-0.13882,-0.13106,-0.14431,-0.14891,-0.15425,-0.15838,-0.15008,-0.15748,-0.16869,-0.16617,-0.16891,-0.16481,-0.1669,-0.17288,-0.18505,-0.18464,-0.17779,-0.17837,-0.18175,-0.19194,-0.19233,-0.18626,-0.18462,-0.18313,-0.19613,-0.19457,-0.18461,-0.18502,-0.19195,-0.19768,-0.19844,-0.1931,-0.1923,-0.19616,-0.20713,-0.20245,-0.20134,-0.18877,-0.19634,-0.19887,-0.20842,-0.20292,-0.20144,-0.2012,-0.20899,-0.21165,-0.21604,-0.19599,-0.20493,-0.21135,-0.21134,-0.20834,-0.19191,-0.19382,-0.20874,-0.20749,-0.20771,-0.19495,-0.19959,-0.20788,-0.21196,-0.20913,-0.20056,-0.20017,-0.20904,-0.2161,-0.20933,-0.20189,-0.20257,-0.20596,-0.20449,-0.20093,-0.19484,-0.18534,-0.18595,-0.19521,-0.17727,-0.15336,-0.14565,-0.12258,-0.12929,-0.12144,-0.091643,-0.079552,-0.085269,-0.09037,-0.090207,-0.076762,-0.071214,-0.075223,-0.099827,-0.10314,-0.13188,-0.14254,-0.15921,-0.18324,-0.196,-0.20313,-0.21313,-0.2131,-0.22059,-0.23266,-0.2285,-0.22209,-0.22207,-0.23896,-0.2373,-0.23909,-0.23395,-0.2479,-0.23761,-0.13502,-0.046458,0.19504,0.53041,0.81853,1.0765,1.1946,1.19,1.1194,0.79003,0.27952,-0.30874,-0.53053,-0.49442,-0.44554,-0.3808,-0.36286,-0.3001,-0.30006,-0.28435,-0.30171,-0.27877,-0.2819,-0.2626,-0.27642,-0.2671,-0.27718,-0.25988,-0.27158,-0.27197,-0.28433,-0.27061,-0.26674,-0.26063,-0.26749,-0.26605,-0.27055,-0.2583,-0.25991,-0.25837,-0.26796,-0.26409,-0.26327,-0.24247,-0.2473,-0.25123,-0.26128,-0.26162,-0.24377,-0.25176,-0.24274,-0.2442,-0.24431,-0.23457,-0.24201,-0.2446,-0.23803,-0.24036,-0.22365,-0.22668,-0.23927,-0.24209,-0.2377,-0.22963,-0.21858,-0.2218,-0.22745,-0.23117,-0.21299,-0.20416,-0.20648,-0.20584,-0.20171,-0.19497,-0.18352,-0.18686,-0.19441,-0.18374,-0.17332,-0.17023,-0.17648,-0.18199,-0.178,-0.17629,-0.15543,-0.15275,-0.15399,-0.15083,-0.14265,-0.13563,-0.12414,-0.1268,-0.11093,-0.11231,-0.093006,-0.092868,-0.091443,-0.090111,-0.086976,-0.075754,-0.081104,-0.086836,-0.091606,-0.093671,-0.082117,-0.078366,-0.077112,-0.07937,-0.080565,-0.070803,-0.062176,-0.067617,-0.063276,-0.057121,-0.03389,-0.031952,-0.035359,-0.039708,-0.032673,-0.026013,-0.018963,-0.021814,-0.031089,-0.025475,-0.0213,-0.015651,-0.02041,-0.035661,-0.04138,-0.041485,-0.034637,-0.04322,-0.057362,-0.057972,-0.059671,-0.059237,-0.077348,-0.092371,-0.094904,-0.10143,-0.10451,-0.10851,-0.10826,-0.11711,-0.12226,-0.11756,-0.11982,-0.13505,-0.14752,-0.15013,-0.13954,-0.1478,-0.1568,-0.15697,-0.15205,-0.15849,-0.15358,-0.16526,-0.17771,-0.1771,-0.17188,-0.17601,-0.17646,-0.18447,-0.18374,-0.18309,-0.18315,-0.18277,-0.19347,-0.1974,-0.18568,-0.18496,-0.18195,-0.19159,-0.19672,-0.19176,-0.19004,-0.19474,-0.20458,-0.20116,-0.18562,-0.18265,-0.18942,-0.19927,-0.20647,-0.19987,-0.19755,-0.19678,-0.20645,-0.2063,-0.20309,-0.19512,-0.19876,-0.20454,-0.21176,-0.20209,-0.19516,-0.19996,-0.20881,-0.20841,-0.19893,-0.17855,-0.17915,-0.16248,-0.16317,-0.14562,-0.13196,-0.12392,-0.11972,-0.10217,-0.089682,-0.077188,-0.079405,-0.084463,-0.096654,-0.087712,-0.073567,-0.079766,-0.10405,-0.13742,-0.16489,-0.17086,-0.17873,-0.19478,-0.21711,-0.22305,-0.22101,-0.22153,-0.22493,-0.23978,-0.24427,-0.22767,-0.22519,-0.23585,-0.24634,-0.25269,-0.25682,-0.25318,-0.23433,-0.12896,0.062892,0.37237,0.6768,0.68379,1.0618,1.2084,1.1422,1.0841,0.70749,0.21949,-0.38579,-0.54307,-0.51115,-0.43636,-0.39901,-0.36124,-0.32898,-0.30057,-0.29756,-0.29663,-0.29333,-0.28055,-0.27172,-0.2742,-0.27593,-0.28098,-0.28147,-0.26734,-0.26858,-0.27005,-0.2837,-0.27989,-0.26718,-0.26128,-0.26887,-0.27849,-0.26845,-0.25815,-0.25719,-0.26109,-0.26117,-0.26999,-0.24911,-0.24703,-0.23885,-0.25792,-0.25071,-0.25661,-0.2479,-0.24588,-0.24787,-0.24191,-0.24646,-0.23642,-0.23564,-0.24454,-0.2399,-0.23591,-0.22621,-0.23478,-0.24429,-0.23419,-0.23048,-0.22234,-0.2172,-0.22617,-0.22006,-0.21897,-0.20463,-0.19767,-0.19716,-0.20626,-0.19656,-0.18297,-0.17764,-0.18536,-0.19529,-0.19175,-0.17501,-0.17061,-0.1731,-0.18054,-0.16875,-0.16724,-0.15249,-0.15651,-0.15633,-0.14272,-0.13323,-0.11656,-0.11599,-0.11893,-0.11042,-0.094668,-0.089265,-0.092529,-0.10243,-0.10114,-0.090482,-0.087013,-0.085183,-0.093576,-0.093116,-0.092836,-0.080445,-0.07941,-0.084729,-0.084689,-0.07077,-0.058089,-0.051836,-0.064076,-0.058681,-0.048853,-0.045378,-0.038159,-0.043243,-0.038001,-0.03642,-0.024621,-0.021256,-0.030795,-0.03453,-0.027876,-0.028359,-0.030385,-0.035353,-0.047266,-0.04392,-0.044813,-0.053234,-0.057317,-0.076432,-0.078738,-0.068015,-0.080491,-0.094596,-0.10947,-0.11335,-0.11077,-0.10986,-0.1136,-0.14047,-0.14101,-0.13656,-0.12895,-0.1342,-0.14727,-0.1519,-0.15585,-0.14678,-0.16046,-0.17248,-0.16916,-0.16618,-0.15992,-0.17136,-0.18265,-0.17671,-0.1742,-0.16963,-0.17942,-0.1917,-0.19252,-0.18793,-0.17514,-0.17917,-0.18501,-0.19814,-0.19129,-0.18222,-0.18659,-0.18556,-0.19708,-0.19882,-0.18777,-0.19539,-0.20038,-0.20333,-0.20385,-0.19237,-0.20094,-0.20213,-0.21109,-0.20874,-0.1939,-0.19235,-0.19252,-0.18919,-0.17334,-0.15719,-0.14157,-0.14233,-0.13557,-0.13255,-0.10713,-0.077206,-0.083626,-0.091826,-0.096826,-0.083658,-0.08077,-0.087429,-0.093001,-0.097631,-0.10832,-0.11948,-0.14277,-0.18328,-0.18639,-0.19686,-0.19609,-0.20947,-0.22414,-0.23447,-0.23235,-0.2248,-0.22484,-0.24192,-0.24451,-0.24042,-0.23344,-0.23849,-0.26593,-0.26583,-0.26119,-0.18698,-0.035129,0.19324,0.50064,0.79839,1.0618,1.2054,1.1667,1.0761,0.73114,0.24502,-0.35276,-0.57369,-0.54809,-0.48853,-0.40558,-0.39756,-0.34859,-0.34413,-0.31237,-0.30638,-0.28135,-0.2908,-0.2916,-0.2938,-0.27761,-0.27304,-0.26651,-0.28391,-0.26993,-0.27113,-0.25939,-0.27124,-0.28036,-0.27943,-0.26713,-0.2698,-0.264,-0.27962,-0.27713,-0.27435,-0.25764,-0.26538,-0.26911,-0.28088,-0.26571,-0.26131,-0.25633,-0.2582,-0.26584,-0.26377,-0.25057,-0.24722,-0.25574,-0.26229,-0.25426,-0.24528,-0.24548,-0.25038,-0.25515,-0.25081,-0.24295,-0.22677,-0.23242,-0.23442,-0.22527,-0.21582,-0.21215,-0.20339,-0.21007,-0.2062,-0.20191,-0.18605,-0.18835,-0.20199,-0.1971,-0.19079,-0.18215,-0.18433,-0.18964,-0.18871,-0.18264,-0.16672,-0.16346,-0.16758,-0.16225,-0.15272,-0.13932,-0.13349,-0.13499,-0.13053,-0.11999,-0.10455,-0.10632,-0.10378,-0.10853,-0.10806,-0.10267,-0.094182,-0.10395,-0.10234,-0.10544,-0.095247,-0.092641,-0.08694,-0.10864,-0.096904,-0.088416,-0.083422,-0.079732,-0.079283,-0.078367,-0.06037,-0.062562,-0.055952,-0.063772,-0.052236,-0.045596,-0.043011,-0.053689,-0.063894,-0.059464,-0.049811,-0.043672,-0.041116,-0.049287,-0.055149,-0.05106,-0.054047,-0.055328,-0.074013,-0.075895,-0.076757,-0.081693,-0.087516,-0.1022,-0.11094,-0.1134,-0.10665,-0.11544,-0.11852,-0.12965,-0.13674,-0.13309,-0.14994,-0.15003,-0.15734,-0.15906,-0.15277,-0.16779,-0.1743,-0.1844,-0.1805,-0.17514,-0.18156,-0.18704,-0.19148,-0.1877,-0.1832,-0.19323,-0.19311,-0.20248,-0.20484,-0.19362,-0.19359,-0.2036,-0.21608,-0.21884,-0.20521,-0.2013,-0.20215,-0.2016,-0.18542,-0.16193,-0.15616,-0.15804,-0.14875,-0.14396,-0.12198,-0.099803,-0.088543,-0.078913,-0.094329,-0.086088,-0.077995,-0.081854,-0.089776,-0.099155,-0.10543,-0.1086,-0.13164,-0.17645,-0.19987,-0.20948,-0.21919,-0.22352,-0.23678,-0.23501,-0.23349,-0.23003,-0.24018,-0.24362,-0.25179,-0.25152,-0.24374,-0.24107,-0.24633,-0.26184,-0.28253,-0.25909,-0.22756,-0.10745,0.082518,0.39164,0.70476,0.97873,1.1724,1.1811,1.1165,0.84422,0.3928,0.065897,-0.47386,-0.59319,-0.54373,-0.49179,-0.39715,-0.38809,-0.33169,-0.32611,-0.29612,-0.30844,-0.2897,-0.29972,-0.27974,-0.28192,-0.27047,-0.30166,-0.28048,-0.28015,-0.2662,-0.27845,-0.27469,-0.28901,-0.27026,-0.26484,-0.25246,-0.27369,-0.26664,-0.27254,-0.25688,-0.25928,-0.25966,-0.26953,-0.25585,-0.25432,-0.24406,-0.25023,-0.24858,-0.2401,-0.24015,-0.24134,-0.24499,-0.25485,-0.25178,-0.25137,-0.23948,-0.23652,-0.25042,-0.24118,-0.23597,-0.2263,-0.22931,-0.23691,-0.22913,-0.21451,-0.21415,-0.21359,-0.21724,-0.19339,-0.19142,-0.18554,-0.20059,-0.20992,-0.2058,-0.19601,-0.18724,-0.17934,-0.18629,-0.18128,-0.17598,-0.16549,-0.16342,-0.1704,-0.17366,-0.15961,-0.14741,-0.13913,-0.14253,-0.13144,-0.12124,-0.10185,-0.1067,-0.10259,-0.10594,-0.098262,-0.090295,-0.085632,-0.085621,-0.091406,-0.095571,-0.091199,-0.087718,-0.085068,-0.098395,-0.085147,-0.067221,-0.066211,-0.065468,-0.075911,-0.061999,-0.041528,-0.046047,-0.043271,-0.048698,-0.043321,-0.039071,-0.025029,-0.022316,-0.023953,-0.037759,-0.030696,-0.019809,-0.019023,-0.03189,-0.038218,-0.035365,-0.027011,-0.032763,-0.044721,-0.050785,-0.040801,-0.037394,-0.051518,-0.065375,-0.08121,-0.082134,-0.081269,-0.086807,-0.096208,-0.10897,-0.11827,-0.11368,-0.11902,-0.12506,-0.13398,-0.13837,-0.1295,-0.13308,-0.14703,-0.15535,-0.14952,-0.15037,-0.14662,-0.15271,-0.15632,-0.14098,-0.12,-0.12122,-0.12002,-0.1213,-0.10795,-0.09969,-0.078472,-0.053627,-0.048368,-0.060966,-0.0454,-0.046706,-0.049462,-0.055312,-0.058763,-0.058173,-0.073986,-0.084813,-0.11807,-0.14082,-0.16154,-0.1632,-0.18691,-0.20136,-0.21312,-0.2098,-0.20547,-0.2104,-0.22507,-0.22984,-0.21819,-0.20374,-0.21163,-0.21961,-0.22116,-0.22768,-0.23214,-0.2342,-0.22991,-0.12278,0.054595,0.36763,0.66319,0.93874,1.1452,1.2064,1.1556,0.92424,0.50669,-0.13851,-0.51432,-0.53962,-0.5093,-0.44089,-0.38772,-0.349,-0.32923,-0.29457,-0.28772,-0.28187,-0.26974,-0.26403,-0.25565,-0.25475,-0.26077,-0.2573,-0.25856,-0.24924,-0.25053,-0.26423,-0.26284,-0.25346,-0.24087,-0.24668,-0.25757,-0.25283,-0.24654,-0.2388,-0.23941,-0.24457,-0.23739,-0.23766,-0.23394,-0.22527,-0.2323,-0.24038,-0.23795,-0.23112,-0.22787,-0.22706,-0.23394,-0.23242,-0.22575,-0.22701,-0.23827,-0.23818,-0.24029,-0.22628,-0.22082,-0.21781,-0.23082,-0.22746,-0.21494,-0.20906,-0.20578,-0.21201,-0.20653,-0.19634,-0.18457,-0.1828,-0.19806,-0.19515,-0.18165,-0.18055,-0.18568,-0.18916,-0.18264,-0.17378,-0.16657,-0.16517,-0.17701,-0.16735,-0.15874,-0.1501,-0.14374,-0.15402,-0.15205,-0.13533,-0.11426,-0.10898,-0.10896,-0.10184,-0.095783,-0.083825,-0.09043,-0.099716,-0.099596,-0.10107,-0.085781,-0.086926,-0.087638,-0.09195,-0.089164,-0.07459,-0.071258,-0.07389,-0.070315,-0.058583,-0.042018,-0.045638,-0.041829,-0.047649,-0.045676,-0.024338,-0.024492,-0.029029,-0.030956,-0.027437,-0.013292,-0.0092974,-0.017327,-0.020662,-0.027108,-0.026989,-0.020382,-0.027146,-0.037646,-0.03998,-0.035863,-0.04598,-0.057857,-0.072785,-0.075387,-0.079124,-0.085743,-0.090899,-0.10242,-0.10314,-0.10714,-0.09973,-0.10931,-0.11948,-0.13329,-0.14085,-0.12775,-0.13339,-0.14532,-0.15426,-0.15701,-0.14095,-0.15145,-0.16317,-0.16707,-0.17118,-0.15715,-0.16779,-0.16973,-0.17888,-0.17373,-0.16564,-0.17284,-0.1858,-0.18862,-0.19119,-0.16747,-0.16709,-0.17327,-0.18888,-0.20027,-0.18607,-0.18055,-0.1904,-0.19571,-0.20416,-0.18978,-0.18686,-0.18253,-0.19012,-0.18947,-0.18219,-0.16271,-0.15382,-0.15774,-0.14788,-0.12752,-0.11232,-0.10569,-0.099159,-0.086158,-0.082546,-0.070478,-0.080686,-0.086676,-0.083886,-0.084738,-0.080957,-0.10276,-0.11756,-0.14579,-0.16439,-0.16766,-0.18373,-0.20405,-0.21949,-0.22368,-0.21775,-0.2257,-0.22173,-0.2302,-0.2353,-0.22837,-0.23038,-0.24214,-0.24574,-0.24846,-0.25573,-0.25828,-0.23128,-0.18247,-0.01188,0.26369,0.56098,0.86285,1.1001,1.2002,1.1598,1.0317,0.66312,0.10485,-0.42852,-0.57215,-0.51046,-0.4591,-0.41241,-0.37877,-0.32204,-0.31172,-0.3003,-0.30465,-0.29554,-0.29348,-0.27657,-0.27613,-0.28158,-0.28965,-0.28039,-0.27448,-0.26746,-0.28661,-0.28586,-0.28799,-0.26687,-0.27886,-0.27923,-0.28361,-0.27242,-0.26886,-0.26279,-0.26859,-0.27698,-0.27231,-0.25691,-0.25745,-0.25081,-0.26933,-0.25988,-0.24799,-0.24934,-0.25192,-0.2577,-0.2524,-0.24987,-0.24346,-0.24743,-0.26015,-0.25416,-0.24071,-0.24582,-0.24281,-0.24588,-0.239,-0.23183,-0.22499,-0.21979,-0.22498,-0.21977,-0.21012,-0.20304,-0.19715,-0.20981,-0.20433,-0.19918,-0.19233,-0.19333,-0.19499,-0.19503,-0.18491,-0.1806,-0.18133,-0.17848,-0.18308,-0.17063,-0.15751,-0.15659,-0.14667,-0.15288,-0.14589,-0.13098,-0.11812,-0.1196,-0.12103,-0.10859,-0.092028,-0.10173,-0.10463,-0.11157,-0.10811,-0.093959,-0.088149,-0.08755,-0.099433,-0.10996,-0.091892,-0.088577,-0.084019,-0.089215,-0.08382,-0.070566,-0.062492,-0.059019,-0.062828,-0.066649,-0.052325,-0.046087,-0.044798,-0.053717,-0.048155,-0.037045,-0.033413,-0.032667,-0.032371,-0.033497,-0.037203,-0.035237,-0.038117,-0.0449,-0.054709,-0.052896,-0.047367,-0.063682,-0.07435,-0.08309,-0.082505,-0.088753,-0.095167,-0.10986,-0.11247,-0.10994,-0.11052,-0.11718,-0.12484,-0.1411,-0.14903,-0.14298,-0.14688,-0.16037,-0.16287,-0.16633,-0.16134,-0.16579,-0.17866,-0.18286,-0.18453,-0.17959,-0.1869,-0.19838,-0.2105,-0.2041,-0.1887,-0.18737,-0.19474,-0.20674,-0.20614,-0.20253,-0.20027,-0.20589,-0.21337,-0.21731,-0.21003,-0.19976,-0.20178,-0.21242,-0.2109,-0.20445,-0.20623,-0.21422,-0.22851,-0.22215,-0.21387,-0.20468,-0.21335,-0.21901,-0.22118,-0.22048,-0.21344,-0.21066,-0.22272,-0.22208,-0.2268,-0.21559,-0.22138,-0.22295,-0.22747,-0.22667,-0.22198,-0.21678,-0.21851,-0.22885,-0.22669,-0.21187,-0.21298,-0.21535,-0.22343,-0.22398,-0.22037,-0.22153,-0.22325,-0.23301,-0.22903,-0.2248,-0.22185,-0.22243,-0.23299,-0.23226,-0.22694,-0.22835,-0.21722,-0.23483,-0.22797,-0.22299,-0.22378,-0.22182,-0.23057,-0.22755,-0.22833,-0.21956,-0.22117,-0.23314,-0.23155,-0.22633,-0.2177,-0.22236,-0.23018,-0.21201,-0.1991,-0.18532,-0.17812,-0.17518,-0.16146,-0.15158,-0.14127,-0.12669,-0.11083,-0.12005,-0.1116,-0.096662,-0.10227,-0.10442,-0.11228,-0.11461,-0.1243,-0.15051,-0.17793,-0.20364,-0.21225,-0.20915,-0.21953,-0.22773,-0.24906,-0.2363,-0.23071,-0.22961,-0.23881,-0.25316,-0.25642,-0.24906,-0.24592,-0.26063,-0.27038,-0.25831,-0.13507,0.047173,0.33085,0.63444,0.9163,1.148,1.1871,1.1588,0.95371,0.55896,0.29149,-0.26821,-0.54583,-0.50568,-0.46453,-0.39793,-0.37002,-0.32081,-0.32545,-0.3057,-0.31039,-0.27219,-0.29395,-0.28698,-0.30345,-0.28566,-0.28672,-0.2772,-0.30237,-0.29446,-0.29794,-0.28409,-0.28637,-0.28314,-0.28888,-0.28513,-0.28276,-0.27979,-0.28344,-0.28595,-0.28773,-0.27177,-0.27584,-0.26891,-0.28213,-0.27213,-0.26748,-0.26367,-0.26866,-0.27703,-0.2753,-0.27235,-0.26024,-0.25597,-0.26301,-0.26709,-0.26164,-0.25065,-0.2551,-0.26567,-0.26761,-0.26429,-0.24334,-0.24843,-0.24176,-0.2431,-0.2391,-0.23149,-0.23381,-0.23465,-0.23229,-0.22953,-0.20667,-0.21247,-0.21139,-0.21647,-0.20621,-0.20808,-0.20087,-0.20493,-0.20423,-0.19593,-0.18182,-0.18318,-0.18151,-0.17895,-0.1691,-0.15385,-0.14948,-0.15161,-0.14433,-0.13816,-0.12253,-0.11179,-0.11486,-0.12069,-0.11184,-0.096616,-0.096634,-0.093382,-0.097266,-0.096879,-0.08155,-0.082596,-0.083363,-0.091874,-0.07986,-0.080912,-0.061152,-0.051937,-0.06277,-0.059263,-0.052842,-0.040414,-0.027282,-0.037596,-0.033548,-0.035373,-0.016416,-0.019022,-0.030667,-0.030384,-0.027396,-0.023994,-0.015277,-0.033269,-0.033512,-0.033796,-0.026623,-0.032536,-0.040058,-0.053134,-0.047743,-0.048018,-0.054352,-0.066721,-0.084743,-0.088365,-0.088682,-0.09183,-0.10165,-0.11493,-0.1124,-0.10765,-0.11495,-0.12189,-0.14002,-0.13625,-0.13277,-0.13947,-0.1403,-0.15479,-0.15551,-0.15612,-0.15737,-0.16739,-0.16785,-0.16978,-0.16679,-0.16711,-0.17651,-0.17923,-0.17756,-0.1677,-0.16545,-0.17191,-0.18803,-0.19066,-0.18241,-0.17551,-0.18165,-0.19704,-0.19595,-0.18222,-0.17781,-0.18319,-0.19182,-0.19411,-0.19551,-0.18141,-0.18798,-0.18763,-0.19921,-0.19589,-0.1737,-0.1779,-0.18911,-0.1944,-0.18757,-0.1813,-0.18772,-0.19159,-0.20001,-0.19826,-0.19509,-0.18731,-0.19155,-0.20146,-0.19535,-0.16663,-0.1545,-0.14711,-0.14899,-0.13411,-0.11858,-0.10411,-0.099193,-0.092985,-0.087929,-0.068944,-0.078217,-0.079259,-0.083231,-0.084657,-0.079672,-0.085417,-0.10532,-0.13403,-0.16385,-0.17745,-0.17506,-0.1873,-0.20166,-0.21441,-0.2197,-0.20824,-0.21553,-0.2263,-0.23333,-0.23382,-0.21409,-0.21658,-0.22513,-0.23618,-0.25215,-0.24033,-0.18835,-0.07372,0.1432,0.45897,0.75952,1.0342,1.1767,1.1395,1.0771,0.78301,0.32186,-0.30888,-0.5446,-0.52945,-0.46729,-0.39131,-0.37874,-0.34876,-0.3353,-0.29303,-0.2929,-0.27024,-0.29027,-0.2709,-0.28001,-0.2622,-0.27289,-0.27368,-0.28242,-0.26988,-0.26496,-0.25975,-0.28158,-0.28072,-0.27593,-0.25904,-0.27388,-0.26975,-0.27969,-0.26949,-0.25966,-0.25617,-0.26707,-0.26371,-0.26439,-0.24471,-0.24166,-0.25347,-0.25997,-0.25656,-0.2446,-0.24823,-0.26088,-0.25736,-0.25039,-0.24418,-0.24495,-0.24977,-0.25702,-0.2593,-0.25173,-0.24413,-0.24398,-0.24826,-0.24031,-0.22984,-0.22646,-0.22777,-0.22508,-0.21747,-0.21106,-0.2127,-0.21066,-0.21686,-0.21261,-0.21017,-0.20212,-0.20214,-0.20869,-0.20917,-0.20159,-0.19044,-0.19213,-0.19681,-0.19685,-0.17587,-0.16754,-0.17148,-0.16457,-0.16772,-0.14914,-0.13563,-0.12139,-0.1281,-0.12601,-0.1276,-0.11643,-0.12091,-0.11772,-0.12666,-0.11775,-0.10174,-0.10325,-0.10835,-0.11067,-0.11133,-0.090815,-0.093411,-0.091912,-0.09385,-0.084443,-0.075976,-0.067519,-0.065687,-0.066651,-0.063542,-0.045084,-0.041233,-0.04145,-0.05662,-0.048387,-0.041445,-0.030417,-0.027182,-0.032551,-0.037073,-0.030697,-0.030851,-0.034575,-0.050038,-0.049805,-0.052665,-0.063546,-0.065681,-0.08052,-0.092329,-0.083231,-0.094896,-0.096493,-0.10767,-0.11605,-0.11544,-0.11887,-0.12699,-0.13351,-0.13995,-0.14327,-0.13856,-0.14515,-0.15976,-0.16376,-0.1655,-0.15998,-0.16514,-0.17561,-0.18127,-0.17898,-0.17339,-0.17904,-0.18056,-0.19158,-0.19051,-0.18975,-0.19314,-0.18888,-0.20337,-0.20824,-0.19159,-0.19955,-0.20032,-0.19869,-0.20177,-0.19742,-0.19442,-0.19748,-0.20606,-0.20229,-0.19448,-0.18731,-0.19751,-0.21103,-0.20608,-0.20931,-0.19885,-0.20035,-0.21132,-0.21396,-0.20913,-0.21042,-0.21375,-0.22113,-0.21813,-0.21322,-0.20346,-0.19882,-0.21706,-0.21536,-0.21578,-0.21628,-0.21513,-0.22172,-0.22292,-0.21973,-0.20796,-0.21592,-0.21291,-0.22167,-0.23015,-0.21316,-0.21083,-0.21184,-0.22246,-0.22553,-0.20432,-0.2177,-0.22431,-0.22733,-0.21977,-0.21508,-0.21067,-0.21735,-0.22328,-0.22455,-0.22052,-0.21469,-0.21878,-0.22724,-0.22003,-0.21518,-0.21444,-0.20987,-0.20458,-0.18661,-0.17069,-0.15943,-0.15008,-0.1532,-0.13905,-0.13507,-0.11607,-0.10809,-0.10631,-0.10528,-0.10193,-0.095911,-0.09682,-0.11173,-0.12781,-0.14684,-0.16591,-0.1753,-0.19612,-0.21194,-0.21629,-0.22373,-0.22739,-0.23789,-0.24847,-0.24397,-0.24001,-0.2438,-0.24979,-0.25952,-0.25494,-0.25054,-0.26148,-0.26406,-0.21091,-0.068514,0.17472,0.49019,0.79789,1.0419,1.169,1.157,1.0868,0.76274,0.28262,-0.29853,-0.4925,-0.53071,-0.48712,-0.41724,-0.39915,-0.3399,-0.31962,-0.29119,-0.31571,-0.3016,-0.30762,-0.28557,-0.29122,-0.29094,-0.30293,-0.2865,-0.28935,-0.27909,-0.30137,-0.29029,-0.29698,-0.28013,-0.29192,-0.28591,-0.30045,-0.28465,-0.28933,-0.28117,-0.2887,-0.28498,-0.285,-0.27625,-0.27866,-0.27774,-0.28141,-0.27487,-0.26555,-0.26516,-0.26708,-0.27084,-0.27164,-0.26764,-0.26131,-0.26082,-0.27239,-0.26731,-0.26244,-0.25169,-0.25485,-0.26078,-0.25653,-0.24888,-0.24152,-0.24012,-0.2423,-0.2441,-0.22673,-0.22001,-0.21734,-0.22266,-0.22044,-0.21489,-0.20316,-0.20865,-0.2126,-0.20899,-0.19923,-0.19087,-0.20128,-0.20287,-0.19881,-0.19553,-0.18103,-0.17607,-0.17157,-0.17328,-0.16227,-0.14403,-0.14395,-0.14508,-0.13434,-0.13612,-0.12254,-0.12248,-0.11815,-0.12085,-0.12712,-0.1104,-0.10253,-0.10129,-0.10599,-0.11128,-0.099386,-0.094191,-0.099722,-0.099878,-0.094599,-0.075344,-0.063041,-0.07004,-0.076377,-0.075354,-0.066797,-0.053846,-0.050737,-0.055779,-0.055522,-0.055642,-0.033938,-0.038281,-0.044852,-0.041709,-0.034101,-0.031382,-0.031389,-0.049565,-0.051073,-0.049827,-0.044805,-0.062607,-0.069936,-0.076426,-0.081685,-0.078272,-0.085594,-0.098276,-0.10656,-0.11291,-0.11185,-0.12135,-0.12496,-0.13942,-0.1431,-0.13719,-0.1404,-0.15276,-0.16003,-0.16905,-0.15714,-0.1627,-0.17691,-0.18782,-0.184,-0.17926,-0.17369,-0.18237,-0.19994,-0.19827,-0.19387,-0.188,-0.19646,-0.21025,-0.20647,-0.20085,-0.19833,-0.20278,-0.21141,-0.21206,-0.20542,-0.19914,-0.20789,-0.22229,-0.22097,-0.21266,-0.20045,-0.2011,-0.21166,-0.21554,-0.21379,-0.20474,-0.20927,-0.22065,-0.2208,-0.22227,-0.20354,-0.20874,-0.22025,-0.22157,-0.22043,-0.21159,-0.21467,-0.21897,-0.22267,-0.22739,-0.22009,-0.21515,-0.22442,-0.22615,-0.22557,-0.22023,-0.21805,-0.2149,-0.23059,-0.22101,-0.21406,-0.21616,-0.21372,-0.2289,-0.22285,-0.21311,-0.21547,-0.2181,-0.22377,-0.22517,-0.22131,-0.21009,-0.20936,-0.22339,-0.23891,-0.22533,-0.21495,-0.21545,-0.22585,-0.21778,-0.2024,-0.18822,-0.17444,-0.17465,-0.17165,-0.14909,-0.13409,-0.12858,-0.12377,-0.11665,-0.11403,-0.093732,-0.10358,-0.1014,-0.11853,-0.12652,-0.12957,-0.15459,-0.17915,-0.19325,-0.19816,-0.20159,-0.2221,-0.23791,-0.25573,-0.25129,-0.24312,-0.24491,-0.24851,-0.26092,-0.25552,-0.24224,-0.25123,-0.26365,-0.27966,-0.27706,-0.18573,-0.034731,0.21473,0.5229,0.81177,1.0718,1.1901,1.1677,1.0483,0.7001,0.19406,-0.36502,-0.55775,-0.54111,-0.50212,-0.42064,-0.38234,-0.3459,-0.33642,-0.31482,-0.30845,-0.28845,-0.30286,-0.29208,-0.30209,-0.28965,-0.2846,-0.27792,-0.28409,-0.28742,-0.29675,-0.27632,-0.28453,-0.28473,-0.29656,-0.29252,-0.28578,-0.27023,-0.27981,-0.28695,-0.28137,-0.2686,-0.27179,-0.26821,-0.27973,-0.27074,-0.2563,-0.25738,-0.25989,-0.26212,-0.26011,-0.24904,-0.25763,-0.26105,-0.26573,-0.26533,-0.25294,-0.24604,-0.25187,-0.26344,-0.25146,-0.24808,-0.23401,-0.24025,-0.2364,-0.23774,-0.22962,-0.22271,-0.22445,-0.22486,-0.20815,-0.21039,-0.20182,-0.20124,-0.19576,-0.21237,-0.20631,-0.19923,-0.1991,-0.19982,-0.19493,-0.1855,-0.17055,-0.17333,-0.16619,-0.16788,-0.15742,-0.14808,-0.13835,-0.14292,-0.14042,-0.13208,-0.116,-0.11449,-0.11,-0.11815,-0.10342,-0.113,-0.099111,-0.11051,-0.11142,-0.10626,-0.097757,-0.086975,-0.091532,-0.10315,-0.099227,-0.08324,-0.079273,-0.078006,-0.087378,-0.074312,-0.061942,-0.060174,-0.060834,-0.064791,-0.060235,-0.051942,-0.039749,-0.040432,-0.044551,-0.038825,-0.03017,-0.021851,-0.020969,-0.037544,-0.04217,-0.037929,-0.039123,-0.037461,-0.052289,-0.06073,-0.060399,-0.063199,-0.063919,-0.072378,-0.081386,-0.08512,-0.083835,-0.087881,-0.095437,-0.11185,-0.11725,-0.11762,-0.12319,-0.13211,-0.14761,-0.14626,-0.12787,-0.13647,-0.15704,-0.16705,-0.16753,-0.16034,-0.16482,-0.16667,-0.17745,-0.1826,-0.16851,-0.16412,-0.17234,-0.18702,-0.18868,-0.17811,-0.17598,-0.17674,-0.18654,-0.18635,-0.17965,-0.18431,-0.18828,-0.19237,-0.19843,-0.18926,-0.18363,-0.17808,-0.18491,-0.19593,-0.19435,-0.18599,-0.18097,-0.19148,-0.20129,-0.19279,-0.17837,-0.17985,-0.19446,-0.20116,-0.19545,-0.18895,-0.18613,-0.19761,-0.20295,-0.19318,-0.18479,-0.16803,-0.16199,-0.14584,-0.14767,-0.12459,-0.10888,-0.097205,-0.09802,-0.10094,-0.082163,-0.064548,-0.070387,-0.077261,-0.090649,-0.083693,-0.095117,-0.12343,-0.15387,-0.16526,-0.15466,-0.17392,-0.19327,-0.20692,-0.21853,-0.20949,-0.2078,-0.21506,-0.22202,-0.22348,-0.21822,-0.21257,-0.21292,-0.22362,-0.23765,-0.23306,-0.22823,-0.14698,-7.7317e-05,0.25765,0.57926,0.73395,0.99447,1.1748,1.1848,1.1513,0.8923,0.46105,-0.18668,-0.5072,-0.52672,-0.4749,-0.38913,-0.35342,-0.32336,-0.29986,-0.27062,-0.26698,-0.26291,-0.27064,-0.2653,-0.26148,-0.25012,-0.25248,-0.26125,-0.26678,-0.25522,-0.24453,-0.24351,-0.25233,-0.25291,-0.24578,-0.23894,-0.24248,-0.25183,-0.25723,-0.24389,-0.23331,-0.23832,-0.25187,-0.24548,-0.24603,-0.23341,-0.23659,-0.23813,-0.23958,-0.23897,-0.23344,-0.22491,-0.23436,-0.24238,-0.23413,-0.22156,-0.22522,-0.23964,-0.23324,-0.22705,-0.22344,-0.22384,-0.22821,-0.23111,-0.23081,-0.21613,-0.20523,-0.20491,-0.21459,-0.21014,-0.1895,-0.18863,-0.18624,-0.19705,-0.19064,-0.18629,-0.18377,-0.18624,-0.19931,-0.19738,-0.18789,-0.17416,-0.17238,-0.17827,-0.17992,-0.16158,-0.14524,-0.13562,-0.13953,-0.14042,-0.12675,-0.11433,-0.10504,-0.10615,-0.10268,-0.094463,-0.092971,-0.092602,-0.097833,-0.0939,-0.086283,-0.077391,-0.080091,-0.091997,-0.094637,-0.085876,-0.076237,-0.071423,-0.06856,-0.077517,-0.063885,-0.046591,-0.04486,-0.045125,-0.053115,-0.041115,-0.033055,-0.030995,-0.024934,-0.026744,-0.019746,-0.006994,-0.0081776,-0.011538,-0.023022,-0.026417,-0.021322,-0.016194,-0.018717,-0.033898,-0.039085,-0.031652,-0.031623,-0.036336,-0.060847,-0.07109,-0.066027,-0.069945,-0.074443,-0.089225,-0.095012,-0.095317,-0.09369,-0.099083,-0.11476,-0.12032,-0.1133,-0.1068,-0.11943,-0.13477,-0.14134,-0.13607,-0.126,-0.13805,-0.14631,-0.15514,-0.15562,-0.14773,-0.1588,-0.16159,-0.16598,-0.16467,-0.14864,-0.15541,-0.16514,-0.1694,-0.16416,-0.14702,-0.12991,-0.124,-0.12217,-0.11982,-0.094114,-0.085684,-0.078729,-0.066414,-0.055408,-0.053858,-0.046601,-0.051287,-0.0544,-0.058715,-0.05129,-0.063537,-0.085174,-0.088864,-0.12218,-0.14868,-0.1556,-0.17193,-0.1952,-0.1948,-0.1991,-0.19312,-0.1995,-0.21563,-0.21429,-0.20283,-0.20178,-0.20212,-0.22422,-0.22544,-0.22298,-0.22857,-0.23284,-0.21182,-0.15333,0.010318,0.29198,0.58319,0.88342,1.1209,1.2163,1.1818,1.0485,0.66825,0.099188,-0.42529,-0.52736,-0.47949,-0.43469,-0.37415,-0.34863,-0.29884,-0.29221,-0.27713,-0.28532,-0.2684,-0.26161,-0.25179,-0.26246,-0.25722,-0.25444,-0.24881,-0.23745,-0.24449,-0.26525,-0.2547,-0.24887,-0.24176,-0.24538,-0.24282,-0.2456,-0.23644,-0.23604,-0.24074,-0.24415,-0.24346,-0.24231,-0.22722,-0.22308,-0.23053,-0.23515,-0.22411,-0.21998,-0.21509,-0.22335,-0.22133,-0.21739,-0.21835,-0.21861,-0.22383,-0.22624,-0.21826,-0.2034,-0.20168,-0.2045,-0.21433,-0.20986,-0.19942,-0.19045,-0.19548,-0.20067,-0.18769,-0.15994,-0.16611,-0.16394,-0.17793,-0.16751,-0.15441,-0.15712,-0.15253,-0.16084,-0.15153,-0.13951,-0.14512,-0.1433,-0.14367,-0.14235,-0.13541,-0.12609,-0.11747,-0.1254,-0.11862,-0.10292,-0.0923,-0.085294,-0.092512,-0.089114,-0.082512,-0.081218,-0.079041,-0.088199,-0.084396,-0.073809,-0.071742,-0.076814,-0.081449,-0.082469,-0.073998,-0.070977,-0.072408,-0.064318,-0.06909,-0.063207,-0.048437,-0.038174,-0.037583,-0.044655,-0.039085,-0.017288,-0.024949,-0.020654,-0.023196,-0.021665,-0.011466,-0.012413,-0.01288,-0.019483,-0.020651,-0.0142,-0.015046,-0.01921,-0.030642,-0.036868,-0.025737,-0.025156,-0.044779,-0.054171,-0.060693,-0.055969,-0.062033,-0.072376,-0.087806,-0.09661,-0.091432,-0.10049,-0.11025,-0.1179,-0.12186,-0.12084,-0.11867,-0.11831,-0.1323,-0.1425,-0.13729,-0.12873,-0.14292,-0.16155,-0.16088,-0.15753,-0.15028,-0.14804,-0.16787,-0.1706,-0.17022,-0.15892,-0.16005,-0.16947,-0.1801,-0.17902,-0.16628,-0.15153,-0.16973,-0.18821,-0.17623,-0.17412,-0.17758,-0.17893,-0.18755,-0.18972,-0.17504,-0.17582,-0.18007,-0.18865,-0.1869,-0.18232,-0.18165,-0.18349,-0.19104,-0.19015,-0.18776,-0.18519,-0.18081,-0.19503,-0.19284,-0.18424,-0.18112,-0.18794,-0.19832,-0.19423,-0.1793,-0.15553,-0.14996,-0.15757,-0.14477,-0.1248,-0.11184,-0.10678,-0.10139,-0.086821,-0.079504,-0.064523,-0.060767,-0.076877,-0.084375,-0.079833,-0.079244,-0.083531,-0.11634,-0.14751,-0.15588,-0.16201,-0.17559,-0.19519,-0.20535,-0.21202,-0.20592,-0.20987,-0.2202,-0.22802,-0.22657,-0.2198,-0.22255,-0.22782,-0.23621,-0.24106,-0.24342,-0.24441,-0.17687,-0.046188,0.19466,0.51537,0.81462,1.0684,1.1977,1.1799,1.1109,0.95831,0.55657,-0.038805,-0.49437,-0.55122,-0.46478,-0.40735,-0.37081,-0.35333,-0.31086,-0.29516,-0.28362,-0.28953,-0.28283,-0.28726,-0.27344,-0.2696,-0.27338,-0.27902,-0.27321,-0.26921,-0.26274,-0.26732,-0.28233,-0.26958,-0.25977,-0.26627,-0.26134,-0.27917,-0.26378,-0.26228,-0.25267,-0.25805,-0.26258,-0.25896,-0.25118,-0.24561,-0.24436,-0.25808,-0.25457,-0.24863,-0.24526,-0.24239,-0.24939,-0.25077,-0.24564,-0.23199,-0.23742,-0.24602,-0.24254,-0.23156,-0.23134,-0.23481,-0.23827,-0.22795,-0.22276,-0.22095,-0.21793,-0.22355,-0.21024,-0.20009,-0.18808,-0.18439,-0.20279,-0.20063,-0.19512,-0.18288,-0.18507,-0.18479,-0.18677,-0.17729,-0.17087,-0.16769,-0.16955,-0.17077,-0.16456,-0.14846,-0.14295,-0.14428,-0.14198,-0.1282,-0.12501,-0.11656,-0.11386,-0.11593,-0.11487,-0.093593,-0.088546,-0.093245,-0.097894,-0.10331,-0.083396,-0.081576,-0.094575,-0.091344,-0.089686,-0.071431,-0.074151,-0.074556,-0.082169,-0.072156,-0.066425,-0.050893,-0.052953,-0.057524,-0.049679,-0.044165,-0.034337,-0.039391,-0.049474,-0.045714,-0.037386,-0.023373,-0.025408,-0.039642,-0.042168,-0.038104,-0.028037,-0.037489,-0.048395,-0.052384,-0.055589,-0.050427,-0.052143,-0.05604,-0.085579,-0.085981,-0.074582,-0.088953,-0.10459,-0.12021,-0.12209,-0.11781,-0.11891,-0.12515,-0.13993,-0.14431,-0.13786,-0.14915,-0.15531,-0.16493,-0.16795,-0.16736,-0.15608,-0.15897,-0.18056,-0.18717,-0.18714,-0.17483,-0.18134,-0.19113,-0.18863,-0.18824,-0.19372,-0.19809,-0.2006,-0.20454,-0.19547,-0.19223,-0.19808,-0.21115,-0.20948,-0.20565,-0.19859,-0.1951,-0.20224,-0.20992,-0.20965,-0.19968,-0.2011,-0.21175,-0.21202,-0.21446,-0.21037,-0.20795,-0.21521,-0.21832,-0.21707,-0.21425,-0.21849,-0.22429,-0.21362,-0.21297,-0.21197,-0.20855,-0.2173,-0.22831,-0.22328,-0.21459,-0.20851,-0.21883,-0.22818,-0.21877,-0.21784,-0.21079,-0.19672,-0.19757,-0.18071,-0.16143,-0.15245,-0.14061,-0.14254,-0.1298,-0.10748,-0.099652,-0.0969,-0.10441,-0.11451,-0.096357,-0.086927,-0.10002,-0.11622,-0.14026,-0.1531,-0.17906,-0.19216,-0.21116,-0.22409,-0.22782
