2.4792,2.4026,2.3306,2.3061,2.2809,2.2652,2.2531,2.2482,2.2333,2.2431,2.2223,2.2233,2.2165,2.235,2.2205,2.2286,2.2248,2.2268,2.2291,2.2325,2.2334,2.2364,2.2396,2.2537,2.2452,2.2529,2.2485,2.2664,2.2753,2.2589,2.2734,2.2726,2.2905,2.2875,2.2897,2.2945,2.3268,2.3194,2.3228,2.3324,2.338,2.3344,2.3558,2.3908,2.3988,2.4148,2.4109,2.4347,2.4439,2.4584,2.4794,2.4743,2.4987,2.5155,2.5059,2.5155,2.5312,2.5074,2.5107,2.4924,2.4802,2.4497,2.4301,2.4001,2.3812,2.3666,2.3304,2.3182,2.3036,2.2953,2.2873,2.2737,2.2712,2.2715,2.277,2.2633,2.256,2.2524,2.2605,2.2665,2.2631,2.2552,2.2601,2.257,2.2487,2.2584,2.2657,2.2659,2.2646,2.2688,2.2682,2.2645,2.2686,2.2633,2.2615,2.2738,2.261,2.2789,2.2672,2.2689,2.2708,2.2638,2.2677,2.2542,2.2635,2.2656,2.265,2.2585,2.2658,2.2627,2.2525,2.2583,2.2575,2.2426,2.2596,2.2616,2.2644,2.263,2.2778,2.2789,2.2821,2.2981,2.2936,2.302,2.3208,2.3576,2.3727,2.3578,2.3677,2.366,2.3562,2.3446,2.3115,2.2794,2.2588,2.2469,2.238,2.2408,2.2313,2.2399,2.2364,2.2184,2.2101,2.22,2.2178,2.2112,2.2091,2.2157,2.2076,2.2191,2.2109,2.1295,2.0601,2.0746,2.1737,2.4524,2.8344,3.2553,3.6395,3.7965,3.7803,3.5678,3.1241,2.6601,2.4394,2.3528,2.2954,2.2679,2.2413,2.2261,2.2155,2.2287,2.2128,2.2066,2.2055,2.2043,2.2016,2.2026,2.2013,2.2134,2.2048,2.222,2.2055,2.2044,2.2192,2.2092,2.2277,2.2109,2.2224,2.2321,2.2142,2.2254,2.2348,2.2475,2.2394,2.2438,2.2551,2.2582,2.2582,2.2656,2.2736,2.2865,2.3047,2.3019,2.3155,2.3117,2.3318,2.3504,2.3707,2.3823,2.3875,2.4114,2.4245,2.4374,2.4477,2.4641,2.473,2.4818,2.4898,2.4907,2.4883,2.4844,2.4907,2.4711,2.4492,2.4261,2.4085,2.3711,2.3487,2.3344,2.3167,2.3043,2.2766,2.2605,2.2633,2.2566,2.2601,2.2512,2.244,2.2445,2.2387,2.2465,2.247,2.2591,2.2401,2.2462,2.2375,2.2309,2.2491,2.2429,2.2435,2.2436,2.2455,2.2463,2.2331,2.2513,2.2371,2.2459,2.2375,2.2365,2.2475,2.251,2.2357,2.2364,2.2456,2.2426,2.2395,2.2255,2.233,2.2441,2.2337,2.2331,2.2393,2.2369,2.2361,2.2472,2.2563,2.265,2.2657,2.2819,2.2792,2.2936,2.3094,2.3479,2.3293,2.3455,2.3631,2.3663,2.3386,2.3029,2.2887,2.2535,2.242,2.2177,2.2142,2.2054,2.2219,2.2094,2.1997,2.2,2.2053,2.1962,2.2093,2.2144,2.1897,2.183,2.1961,2.1859,2.1814,2.09,2.0511,2.0579,2.2253,2.5154,2.9053,3.3471,3.6908,3.7679,3.5978,3.1543,2.7215,2.5568,2.4026,2.3244,2.2922,2.2522,2.2488,2.2171,2.2067,2.2053,2.2034,2.2041,2.182,2.1782,2.2092,2.1968,2.2175,2.1974,2.1967,2.1933,2.1991,2.206,2.211,2.2031,2.2095,2.2243,2.2131,2.222,2.219,2.2267,2.2252,2.2447,2.2404,2.2412,2.2457,2.2531,2.266,2.2632,2.2737,2.2929,2.3143,2.3314,2.3062,2.3455,2.347,2.3477,2.3551,2.3874,2.3825,2.4014,2.4165,2.4288,2.4488,2.4323,2.4589,2.4706,2.4754,2.4782,2.4777,2.4549,2.456,2.4478,2.4137,2.3864,2.358,2.3385,2.3265,2.3168,2.2809,2.2776,2.257,2.2437,2.2396,2.2348,2.2427,2.2384,2.2367,2.2341,2.2284,2.2269,2.2367,2.2355,2.2187,2.2447,2.2219,2.2267,2.2346,2.2324,2.2283,2.2305,2.2301,2.227,2.2241,2.2406,2.2284,2.2213,2.2241,2.2292,2.2291,2.2248,2.2232,2.2387,2.2285,2.2138,2.2301,2.2181,2.236,2.2124,2.2268,2.2292,2.2096,2.2199,2.2261,2.2138,2.2165,2.2254,2.2228,2.2364,2.2547,2.2467,2.2535,2.252,2.2594,2.286,2.3175,2.3245,2.3335,2.3337,2.358,2.3366,2.3116,2.2826,2.2609,2.218,2.1974,2.1877,2.1936,2.2104,2.1883,2.1768,2.1869,2.1859,2.1837,2.1679,2.181,2.1823,2.1732,2.1896,2.1852,2.1734,2.1194,2.0309,2.0214,2.1084,2.3686,2.7594,3.1676,3.5736,3.7731,3.681,3.3202,2.8534,2.6324,2.4312,2.3185,2.2719,2.2266,2.2296,2.2028,2.2032,2.1685,2.1773,2.1613,2.1703,2.1606,2.1803,2.1622,2.1782,2.1775,2.1857,2.1674,2.1717,2.1755,2.1821,2.1878,2.1979,2.1831,2.1892,2.19,2.2038,2.205,2.2093,2.208,2.2198,2.2182,2.2223,2.2358,2.2374,2.2437,2.2588,2.2667,2.265,2.2658,2.2816,2.2964,2.3072,2.3229,2.3369,2.3503,2.3622,2.3752,2.3704,2.4104,2.4213,2.4258,2.4303,2.4447,2.4515,2.4557,2.4537,2.4574,2.4324,2.4284,2.413,2.4008,2.3746,2.3407,2.3212,2.3051,2.2854,2.2694,2.2452,2.243,2.2365,2.2368,2.2231,2.2232,2.2131,2.2081,2.2236,2.2203,2.2086,2.2143,2.2206,2.2272,2.2157,2.2156,2.2164,2.2078,2.2249,2.223,2.2195,2.2245,2.2105,2.2175,2.2199,2.2179,2.21,2.2211,2.2063,2.2027,2.2179,2.2081,2.2153,2.2076,2.2044,2.2038,2.2112,2.2161,2.2213,2.2222,2.2246,2.2156,2.1992,2.1978,2.2173,2.2434,2.2394,2.2549,2.2447,2.2551,2.2736,2.3021,2.3083,2.3078,2.3208,2.3225,2.3277,2.3179,2.3085,2.2698,2.2482,2.2374,2.2086,2.1905,2.1979,2.1795,2.1819,2.1921,2.1867,2.185,2.1914,2.1717,2.1828,2.1879,2.1884,2.1851,2.1775,2.1636,2.1321,2.0426,2.0316,2.0756,2.3164,2.6704,3.1055,3.4707,3.6728,3.6402,3.2843,2.7892,2.4779,2.3855,2.304,2.2768,2.2368,2.2298,2.2015,2.1936,2.1707,2.183,2.1707,2.1678,2.182,2.1938,2.1778,2.1845,2.1876,2.1928,2.176,2.1706,2.1913,2.1987,2.1861,2.1933,2.2001,2.2039,2.1953,2.2205,2.2226,2.2182,2.2144,2.2272,2.2463,2.2343,2.2558,2.2469,2.2463,2.2539,2.2514,2.2924,2.308,2.3066,2.3233,2.3331,2.3405,2.3458,2.3584,2.3891,2.4133,2.4099,2.4257,2.441,2.4456,2.4429,2.4571,2.4536,2.4724,2.4733,2.4643,2.4412,2.4223,2.4126,2.391,2.3871,2.3554,2.3204,2.3027,2.2934,2.2678,2.2633,2.2595,2.2322,2.2334,2.2147,2.2313,2.2257,2.2179,2.2226,2.2158,2.2258,2.2259,2.2145,2.2259,2.2246,2.2295,2.2212,2.217,2.2272,2.2226,2.2233,2.2183,2.2218,2.2155,2.2191,2.2223,2.2259,2.2281,2.2218,2.2195,2.2308,2.2336,2.2468,2.2451,2.2612,2.2737,2.2683,2.2727,2.2767,2.2941,2.3071,2.3119,2.3149,2.305,2.3055,2.3139,2.2878,2.2567,2.2405,2.2146,2.1986,2.1909,2.1855,2.1846,2.1773,2.1783,2.1685,2.1769,2.1791,2.1743,2.1624,2.1669,2.1722,2.1622,2.1633,2.1661,2.1171,2.0384,2.007,2.0765,2.3168,2.6988,3.0818,3.4973,3.7459,3.7482,3.5846,3.1314,2.6667,2.4315,2.317,2.2562,2.244,2.222,2.1992,2.1903,2.1801,2.1911,2.161,2.171,2.1704,2.1741,2.1692,2.176,2.1723,2.1838,2.1728,2.1696,2.1697,2.1713,2.1816,2.185,2.1947,2.1895,2.1879,2.1814,2.1883,2.1952,2.2025,2.2178,2.2147,2.2209,2.2332,2.2378,2.2295,2.2359,2.248,2.2556,2.2685,2.2669,2.2837,2.3033,2.3205,2.3239,2.3386,2.3605,2.372,2.3859,2.393,2.4082,2.4191,2.4239,2.4229,2.4272,2.4311,2.4205,2.423,2.4019,2.389,2.3638,2.3399,2.321,2.3049,2.2922,2.2723,2.2493,2.2366,2.2281,2.2146,2.2118,2.2158,2.2101,2.21,2.2036,2.2104,2.2043,2.2065,2.1898,2.197,2.2147,2.2226,2.2147,2.2166,2.2019,2.2065,2.2035,2.2041,2.2028,2.2132,2.2078,2.208,2.2066,2.2187,2.219,2.2339,2.2474,2.2493,2.2471,2.2552,2.2655,2.2728,2.301,2.3033,2.3096,2.3269,2.3233,2.3097,2.302,2.2969,2.2595,2.2297,2.2015,2.2034,2.2003,2.1959,2.2059,2.1877,2.1806,2.1784,2.1653,2.1719,2.1731,2.177,2.1721,2.1729,2.172,2.1686,2.1371,2.0345,2.0014,2.0297,2.2572,2.6074,3.0224,3.4542,3.7422,3.761,3.6497,3.2439,2.7593,2.4577,2.3288,2.2756,2.2362,2.2255,2.2026,2.1917,2.1734,2.1867,2.1717,2.1668,2.156,2.1661,2.1645,2.1718,2.1711,2.1683,2.1712,2.1753,2.1707,2.1748,2.1692,2.1931,2.189,2.1913,2.188,2.1894,2.1937,2.2071,2.2013,2.2062,2.2007,2.2151,2.2264,2.2222,2.2376,2.2516,2.256,2.2633,2.2475,2.2761,2.281,2.2898,2.3164,2.3198,2.3434,2.3556,2.3646,2.3751,2.3933,2.397,2.4071,2.4042,2.4097,2.4215,2.43,2.4192,2.4199,2.3938,2.38,2.3611,2.3427,2.3231,2.301,2.2915,2.2683,2.2513,2.2383,2.2215,2.2305,2.2224,2.2206,2.213,2.2165,2.216,2.2174,2.2044,2.2122,2.2186,2.2122,2.2049,2.2094,2.2134,2.2211,2.2163,2.2164,2.206,2.2148,2.2125,2.2115,2.2225,2.2231,2.2159,2.2261,2.2086,2.2236,2.2182,2.2306,2.2367,2.2343,2.2434,2.2712,2.2611,2.2564,2.2835,2.2898,2.3089,2.3292,2.3179,2.3288,2.3206,2.3122,2.3001,2.2839,2.2483,2.2143,2.219,2.2013,2.2064,2.1867,2.1828,2.1834,2.1815,2.1841,2.1791,2.1711,2.1807,2.1875,2.1815,2.167,2.1807,2.1755,2.0972,2.0345,2.0344,2.1634,2.4451,2.8439,3.0598,3.4575,3.7563,3.7117,3.4402,2.939,2.5551,2.3808,2.319,2.2571,2.2335,2.2271,2.1946,2.1863,2.1898,2.1785,2.177,2.1661,2.1842,2.1719,2.1781,2.1725,2.1891,2.1736,2.1865,2.184,2.187,2.18,2.1872,2.1919,2.1972,2.1936,2.2047,2.2024,2.2142,2.2126,2.2194,2.2207,2.2258,2.2224,2.234,2.23,2.2547,2.2504,2.2606,2.274,2.2846,2.2872,2.3044,2.3209,2.3262,2.3328,2.3605,2.3737,2.3838,2.392,2.3996,2.4217,2.4188,2.4299,2.4368,2.4378,2.4336,2.426,2.4197,2.3946,2.3977,2.3786,2.345,2.3284,2.3022,2.2868,2.2867,2.2666,2.2479,2.2341,2.2296,2.2339,2.2233,2.2066,2.224,2.2195,2.2163,2.2205,2.2321,2.2339,2.2204,2.2406,2.2309,2.2396,2.2295,2.2252,2.2218,2.2218,2.2322,2.2309,2.2388,2.2423,2.234,2.2595,2.2426,2.2273,2.2165,2.2415,2.2384,2.2436,2.2482,2.2412,2.2338,2.2349,2.2144,2.2229,2.2375,2.2456,2.2552,2.2514,2.2485,2.2818,2.2723,2.2795,2.3007,2.3098,2.3166,2.3245,2.3285,2.3471,2.3266,2.3181,2.3062,2.2489,2.2236,2.2221,2.2057,2.1999,2.1989,2.1963,2.1961,2.1896,2.1882,2.1811,2.1795,2.1702,2.1704,2.1754,2.1745,2.1742,2.1682,2.1475,2.0796,2.0092,2.0329,2.1747,2.4539,2.8575,3.278,3.582,3.684,3.5329,3.0501,2.6154,2.4223,2.3741,2.3011,2.2457,2.2252,2.1949,2.1955,2.1791,2.18,2.1644,2.1633,2.1595,2.1744,2.163,2.1644,2.1592,2.169,2.1661,2.1714,2.1711,2.1822,2.1768,2.1785,2.1784,2.1745,2.1715,2.1927,2.1788,2.182,2.1928,2.1932,2.197,2.2038,2.2067,2.2193,2.2154,2.2318,2.2357,2.2573,2.2549,2.2652,2.273,2.2816,2.2958,2.3128,2.3336,2.3449,2.3544,2.3585,2.3697,2.3944,2.4067,2.4065,2.4211,2.4204,2.4295,2.4259,2.4215,2.4017,2.396,2.3744,2.3499,2.3338,2.3191,2.2966,2.2721,2.2602,2.2543,2.2356,2.2268,2.2249,2.2083,2.2011,2.214,2.2065,2.2082,2.21,2.1979,2.1957,2.2027,2.2031,2.2032,2.1974,2.1982,2.2083,2.212,2.2053,2.2096,2.2204,2.2038,2.201,2.2138,2.2156,2.2197,2.216,2.2233,2.2085,2.2171,2.221,2.2277,2.2295,2.2432,2.2455,2.2522,2.2501,2.2577,2.2615,2.2797,2.3002,2.306,2.3123,2.311,2.3169,2.3076,2.2847,2.2584,2.2332,2.2034,2.2036,2.1762,2.179,2.1828,2.1768,2.181,2.17,2.1696,2.1717,2.1671,2.1642,2.1676,2.1623,2.1705,2.1632,2.1639,2.0822,1.9972,2.0068,2.1156,2.3829,2.7649,3.1882,3.5613,3.7175,3.6912,3.4662,2.9907,2.5704,2.3774,2.2946,2.2412,2.2205,2.203,2.1828,2.1765,2.1597,2.1538,2.1644,2.1541,2.1598,2.1479,2.1528,2.1689,2.1617,2.1681,2.174,2.1773,2.1644,2.1712,2.175,2.1736,2.1752,2.1707,2.1791,2.1846,2.1938,2.1909,2.1947,2.2078,2.1974,2.2034,2.2189,2.2201,2.2321,2.2338,2.2434,2.2382,2.2487,2.268,2.2799,2.3011,2.3042,2.3105,2.3267,2.3494,2.3599,2.3604,2.3805,2.3885,2.3991,2.4149,2.4028,2.403,2.4007,2.3946,2.3969,2.3802,2.3547,2.3419,2.3278,2.294,2.2723,2.266,2.2427,2.2199,2.2283,2.2132,2.2113,2.2252,2.1971,2.1927,2.1986,2.1876,2.1959,2.1951,2.1965,2.1932,2.2058,2.1997,2.198,2.1934,2.1952,2.2033,2.1935,2.1931,2.1986,2.1993,2.1977,2.1976,2.1855,2.1893,2.2011,2.2097,2.2083,2.2189,2.229,2.2302,2.2373,2.2434,2.2612,2.2595,2.2801,2.3011,2.2963,2.293,2.2941,2.294,2.286,2.2804,2.2542,2.2135,2.2068,2.2,2.1932,2.1757,2.1739,2.1774,2.1671,2.1683,2.1669,2.1606,2.159,2.1489,2.1453,2.1509,2.1636,2.1662,2.1476,2.051,1.9814,2.0055,2.1634,2.4715,2.8826,3.3057,3.4737,3.6853,3.665,3.3107,2.8247,2.4829,2.3515,2.2805,2.2423,2.2194,2.2056,2.1824,2.1734,2.1561,2.1679,2.1504,2.1549,2.1489,2.1501,2.1513,2.1523,2.1544,2.1632,2.1594,2.1725,2.1657,2.1605,2.1673,2.1734,2.1744,2.1797,2.1745,2.1797,2.1832,2.1927,2.1899,2.1926,2.1991,2.2116,2.2184,2.2213,2.2257,2.2283,2.2393,2.2448,2.2484,2.273,2.2799,2.2914,2.2903,2.3161,2.3307,2.3437,2.3629,2.3749,2.3746,2.3815,2.3979,2.4037,2.4015,2.3984,2.3978,2.3924,2.3868,2.3563,2.3478,2.3318,2.3051,2.277,2.2676,2.2453,2.2282,2.2259,2.2202,2.1929,2.1956,2.1947,2.2039,2.2023,2.195,2.1982,2.1985,2.1902,2.1964,2.1852,2.1847,2.1824,2.1853,2.1881,2.1946,2.1956,2.1956,2.2035,2.1994,2.1962,2.196,2.1982,2.1938,2.2036,2.2099,2.1969,2.182,2.1914,2.1922,2.2011,2.1911,2.1949,2.1946,2.1829,2.1932,2.1937,2.185,2.1834,2.2056,2.2183,2.2241,2.2105,2.2114,2.2384,2.2462,2.2664,2.2817,2.2867,2.2946,2.2958,2.2968,2.2898,2.2674,2.2268,2.2115,2.1908,2.1696,2.1655,2.1717,2.172,2.162,2.1535,2.1635,2.1594,2.162,2.1609,2.158,2.1479,2.1558,2.1472,2.1527,2.1321,2.096,2.0031,1.9911,2.0616,2.3035,2.6605,3.0549,3.4744,3.7149,3.6697,3.3351,2.8477,2.4818,2.3427,2.2983,2.2413,2.2166,2.1975,2.1854,2.1741,2.1614,2.1691,2.1531,2.1601,2.167,2.153,2.1569,2.1641,2.1567,2.1659,2.153,2.1624,2.1528,2.1708,2.1687,2.1819,2.1731,2.1674,2.1726,2.1829,2.1847,2.1969,2.1763,2.1969,2.2128,2.2204,2.2257,2.2423,2.235,2.236,2.2309,2.2335,2.2544,2.2756,2.2751,2.2912,2.3008,2.3214,2.3375,2.3464,2.3657,2.3815,2.3946,2.3999,2.4046,2.4228,2.4242,2.4304,2.4366,2.4098,2.4091,2.3923,2.3687,2.3542,2.3345,2.3166,2.2981,2.2742,2.2685,2.2409,2.2306,2.227,2.2119,2.199,2.1995,2.189,2.1789,2.1757,2.1725,2.1757,2.1866,2.1694,2.1627,2.1607,2.175,2.1796,2.1631,2.174,2.158,2.1574,2.186,2.1741,2.175,2.1797,2.1756,2.1849,2.1879,2.1988,2.1971,2.1938,2.1965,2.1964,2.1975,2.1864,2.1827,2.1866,2.1885,2.2028,2.194,2.1792,2.1926,2.1899,2.1886,2.1839,2.1836,2.1802,2.1824,2.1857,2.1861,2.1832,2.1833,2.2034,2.2163,2.2185,2.225,2.2304,2.2322,2.2418,2.261,2.2839,2.2837,2.3009,2.2996,2.3003,2.2939,2.2528,2.2255,2.2014,2.1868,2.1748,2.1693,2.1606,2.1785,2.1696,2.1715,2.1671,2.1643,2.1679,2.17,2.1675,2.162,2.1583,2.1602,2.1672,2.1429,2.0534,2.0113,2.025,2.2094,2.511,2.918,3.3464,3.6852,3.7173,3.525,3.0357,2.7926,2.5003,2.3438,2.2902,2.2236,2.2458,2.1843,2.2017,2.1732,2.1834,2.152,2.1765,2.1463,2.1733,2.1527,2.1779,2.1673,2.1752,2.1549,2.1985,2.1674,2.1783,2.1715,2.1814,2.1696,2.1915,2.1787,2.2054,2.1802,2.1962,2.2033,2.2085,2.2097,2.222,2.2192,2.2211,2.2359,2.253,2.2594,2.2737,2.2747,2.2808,2.2924,2.3212,2.3241,2.3205,2.3536,2.3558,2.3795,2.3945,2.4043,2.394,2.4133,2.4331,2.45,2.4417,2.4578,2.464,2.4463,2.4374,2.4396,2.4102,2.4048,2.3736,2.3401,2.3184,2.3142,2.292,2.2727,2.2642,2.2532,2.2436,2.2404,2.2385,2.24,2.2242,2.2363,2.2236,2.2265,2.2195,2.2198,2.2214,2.2295,2.234,2.2291,2.2238,2.2276,2.2323,2.2242,2.232,2.2286,2.2311,2.2161,2.2224,2.2287,2.2304,2.2238,2.2262,2.2233,2.2207,2.2216,2.2162,2.2362,2.2156,2.2276,2.2279,2.2269,2.2058,2.2283,2.2193,2.2202,2.2203,2.2249,2.218,2.2202,2.2176,2.2161,2.22,2.21,2.2183,2.2201,2.2179,2.2188,2.237,2.2649,2.2496,2.2485,2.2381,2.2613,2.2672,2.3094,2.3269,2.3308,2.3197,2.322,2.2993,2.2666,2.2348,2.2064,2.1953,2.1695,2.1753,2.1615,2.1762,2.1706,2.1605,2.1581,2.1455,2.1492,2.154,2.1427,2.149,2.1541,2.1417,2.1518,2.1216,2.0239,1.9941,2.0465,2.2521,2.5782,2.9859,3.2176,3.5631,3.6987,3.5789,3.2127,2.711,2.4396,2.3387,2.2591,2.2054,2.2084,2.1722,2.1719,2.1566,2.18,2.1597,2.179,2.1647,2.1804,2.1745,2.1863,2.1718,2.1884,2.1957,2.201,2.1605,2.1807,2.2,2.1878,2.186,2.1913,2.1904,2.2143,2.2047,2.219,2.2176,2.2088,2.2304,2.2242,2.2344,2.2317,2.2355,2.2525,2.2665,2.2648,2.2895,2.2781,2.3023,2.3066,2.3223,2.3383,2.3586,2.3618,2.3756,2.4021,2.3972,2.4259,2.4348,2.4376,2.4492,2.4477,2.4533,2.4598,2.4497,2.4575,2.4271,2.4087,2.3836,2.3684,2.3451,2.339,2.3014,2.2883,2.272,2.251,2.26,2.232,2.244,2.227,2.2317,2.2268,2.2228,2.2202,2.2263,2.2204,2.2319,2.2206,2.2188,2.2246,2.2243,2.2215,2.2288,2.2301,2.2151,2.216,2.2257,2.2155,2.2293,2.2197,2.2245,2.2253,2.2296,2.2229,2.2314,2.2086,2.2135,2.2142,2.2235,2.2024,2.2117,2.2108,2.206,2.211,2.2164,2.2079,2.2231,2.2144,2.2058,2.1926,2.205,2.2053,2.1974,2.2048,2.2102,2.2211,2.2403,2.2339,2.2425,2.2312,2.25,2.2737,2.3136,2.3089,2.3408,2.3222,2.3324,2.3329,2.2893,2.2787,2.2332,2.2019,2.1952,2.1864,2.1647,2.1466,2.1617,2.2029,2.1935,2.1744,2.166,2.2014,2.202,2.2065,2.1925,2.1915,2.1846,2.1638,2.0595,2.0335,2.0665,2.2737,2.4311,2.7978,3.2432,3.5861,3.7381,3.5925,3.1895,2.7311,2.4625,2.3441,2.2917,2.2478,2.2355,2.1941,2.1971,2.189,2.1955,2.1808,2.1801,2.1619,2.1708,2.1753,2.1796,2.1817,2.1763,2.1888,2.1894,2.1831,2.2025,2.1793,2.1963,2.1994,2.2163,2.2087,2.2039,2.2081,2.2169,2.225,2.2297,2.2424,2.245,2.2316,2.245,2.2493,2.2517,2.2596,2.2769,2.2846,2.292,2.3166,2.313,2.3232,2.3473,2.3542,2.3701,2.3867,2.3927,2.4002,2.4078,2.4305,2.4335,2.4359,2.433,2.4421,2.425,2.4399,2.4407,2.4139,2.4017,2.3825,2.35,2.3474,2.3115,2.2978,2.2862,2.2717,2.2374,2.2338,2.2324,2.2359,2.2119,2.214,2.2224,2.2149,2.2155,2.2239,2.2121,2.2085,2.207,2.2237,2.2258,2.2229,2.2151,2.2257,2.2161,2.2253,2.2168,2.2193,2.2266,2.2286,2.2166,2.2194,2.2216,2.2287,2.2326,2.2282,2.2357,2.2323,2.215,2.2338,2.2257,2.2285,2.2212,2.2332,2.2311,2.22,2.2297,2.2319,2.2424,2.2462,2.2587,2.2701,2.269,2.2726,2.285,2.31,2.3244,2.3367,2.3437,2.3458,2.3505,2.3543,2.3253,2.2907,2.268,2.2352,2.2364,2.2194,2.2224,2.2123,2.2111,2.2102,2.1959,2.2029,2.2057,2.2048,2.2117,2.2065,2.2015,2.2016,2.2197,2.1925,2.1031,2.0703,2.1014,2.2872,2.5993,3.0271,3.4069,3.6786,3.703,3.446,3.2196,2.7408,2.4748,2.3775,2.3108,2.2652,2.242,2.2237,2.2116,2.1954,2.1819,2.1866,2.179,2.1792,2.1722,2.1836,2.1679,2.1653,2.1787,2.1905,2.1874,2.1967,2.1919,2.2025,2.2049,2.1951,2.2029,2.1997,2.2045,2.2034,2.1937,2.2223,2.2179,2.2152,2.2368,2.2313,2.2374,2.2574,2.2511,2.2625,2.2644,2.2703,2.2877,2.3084,2.325,2.3097,2.3412,2.3471,2.359,2.367,2.3793,2.3848,2.3947,2.4233,2.4279,2.4273,2.4266,2.4293,2.4139,2.4138,2.4155,2.4041,2.3755,2.3513,2.3352,2.317,2.2948,2.276,2.2515,2.2414,2.228,2.2167,2.2178,2.2143,2.2027,2.1951,2.1967,2.1849,2.1966,2.2045,2.2056,2.202,2.2007,2.2015,2.201,2.1985,2.203,2.2196,2.2018,2.2049,2.1985,2.2126,2.2144,2.2184,2.2197,2.2161,2.2118,2.2147,2.2206,2.2321,2.2399,2.2394,2.2547,2.2471,2.263,2.2624,2.2971,2.3131,2.3134,2.3123,2.3278,2.3268,2.3115,2.3018,2.2938,2.2723,2.2246,2.2116,2.198,2.1924,2.1903,2.1951,2.1932,2.2017,2.1808,2.1817,2.1839,2.1768,2.184,2.1702,2.1791,2.1779,2.1711,2.121,2.0469,2.0308,2.0864,2.312,2.6762,3.0659,3.4657,3.6216,3.7018,3.5644,3.1126,2.6552,2.42,2.3233,2.2631,2.2272,2.2114,2.2058,2.1981,2.1864,2.1812,2.1773,2.1711,2.1617,2.1636,2.1815,2.1767,2.179,2.1808,2.188,2.1726,2.1888,2.1752,2.1965,2.1978,2.1924,2.1947,2.2048,2.1999,2.207,2.2035,2.2089,2.2204,2.2214,2.2354,2.2433,2.2365,2.2369,2.243,2.2534,2.2748,2.2797,2.2878,2.2976,2.3061,2.3271,2.3278,2.347,2.3483,2.3758,2.3854,2.3817,2.3895,2.4041,2.4203,2.4285,2.4224,2.4097,2.4113,2.4075,2.4045,2.3712,2.3534,2.3329,2.3054,2.2945,2.2758,2.2551,2.2429,2.2316,2.2335,2.2208,2.221,2.2169,2.2168,2.2104,2.2044,2.2152,2.2178,2.2184,2.2233,2.2135,2.2214,2.2138,2.2249,2.2046,2.2132,2.2201,2.2109,2.2343,2.2206,2.2035,2.2194,2.2389,2.2391,2.2513,2.2608,2.2626,2.2606,2.2805,2.3003,2.3057,2.3126,2.3073,2.3216,2.3324,2.3249,2.3287,2.2929,2.2637,2.2436,2.2203,2.1966,2.2008,2.1982,2.1995,2.1926,2.1936,2.189,2.1905,2.1899,2.1807,2.176,2.1869,2.1864,2.1745,2.1783,2.118,2.0087,2.0089,2.1034,2.3801,2.7822,3.2076,3.5856,3.7477,3.6693,3.2805,2.9981,2.5983,2.3908,2.3232,2.2467,2.252,2.2103,2.2136,2.1859,2.1934,2.188,2.1812,2.1741,2.181,2.1656,2.1846,2.1742,2.1879,2.1739,2.1843,2.1795,2.1867,2.1778,2.1993,2.1888,2.1978,2.1924,2.2033,2.2018,2.2131,2.2102,2.2173,2.216,2.2202,2.2255,2.2397,2.2434,2.247,2.2464,2.2547,2.2659,2.2811,2.2903,2.295,2.3195,2.3193,2.3293,2.3461,2.3563,2.3622,2.3762,2.3802,2.3813,2.3991,2.4117,2.4012,2.4075,2.4052,2.3932,2.3712,2.3636,2.3516,2.3284,2.3034,2.307,2.2715,2.2634,2.242,2.232,2.2407,2.2366,2.217,2.2137,2.2083,2.2138,2.2064,2.2135,2.2163,2.2219,2.2131,2.2125,2.2003,2.2086,2.21,2.2176,2.212,2.2145,2.2244,2.2125,2.214,2.2164,2.2264,2.239,2.243,2.2521,2.2558,2.269,2.2636,2.277,2.2845,2.319,2.314,2.3165,2.3316,2.3308,2.3237,2.3096,2.2942,2.2738,2.2274,2.215,2.2104,2.1926,2.1942,2.1836,2.181,2.1883,2.1804,2.1712,2.182,2.1794,2.1728,2.173,2.1711,2.1791,2.1632,2.1013,2.0059,1.9878,2.0775,2.3554,2.762,3.1791,3.5575,3.7283,3.6621,3.2556,2.7617,2.4695,2.3598,2.2775,2.2343,2.2272,2.21,2.2034,2.1963,2.1821,2.1752,2.1678,2.1614,2.168,2.158,2.168,2.1695,2.1647,2.1798,2.1854,2.1728,2.1773,2.1844,2.1749,2.1757,2.1754,2.1752,2.191,2.2021,2.2115,2.2136,2.2107,2.2159,2.2211,2.2271,2.2267,2.2386,2.2499,2.2481,2.2649,2.2743,2.276,2.2896,2.308,2.3144,2.316,2.3283,2.3335,2.3578,2.3712,2.3718,2.3768,2.3833,2.3849,2.3982,2.3927,2.3965,2.3951,2.3832,2.3742,2.3549,2.3367,2.3135,2.3055,2.2838,2.263,2.2502,2.2483,2.2374,2.2238,2.234,2.2262,2.2163,2.2183,2.2078,2.2066,2.2194,2.2096,2.2237,2.2177,2.2141,2.208,2.2134,2.223,2.2163,2.2114,2.2103,2.2195,2.2202,2.2154,2.214,2.213,2.2181,2.2156,2.2365,2.2513,2.255,2.2629,2.2542,2.2534,2.2702,2.2881,2.3087,2.3144,2.3216,2.3288,2.3257,2.3075,2.3181,2.298,2.2572,2.234,2.2149,2.1975,2.1904,2.1899,2.1931,2.1837,2.1619,2.1801,2.1834,2.1815,2.1797,2.1642,2.1812,2.1697,2.1661,2.1642,2.1302,2.0206,1.9968,2.0438,2.2797,2.6466,3.0642,3.4473,3.7011,3.6774,3.5427,2.8765,2.4879,2.392,2.2841,2.265,2.2146,2.2289,2.1969,2.2076,2.158,2.1862,2.1557,2.1818,2.1611,2.1722,2.1604,2.1819,2.1647,2.18,2.1613,2.172,2.1739,2.1901,2.1816,2.1889,2.1837,2.1944,2.191,2.1959,2.191,2.2013,2.1938,2.2079,2.2104,2.2236,2.2238,2.2397,2.2358,2.2561,2.2489,2.2618,2.2701,2.2863,2.2941,2.3033,2.3145,2.3325,2.3504,2.3549,2.358,2.3731,2.3811,2.3809,2.3814,2.3898,2.4029,2.3942,2.3957,2.3905,2.379,2.363,2.3403,2.3263,2.3019,2.2857,2.2691,2.2493,2.2496,2.233,2.2278,2.2201,2.2178,2.2108,2.2078,2.2055,2.2055,2.1977,2.1998,2.1986,2.2101,2.2054,2.2118,2.2062,2.2008,2.2084,2.2097,2.2056,2.2143,2.2058,2.2131,2.1962,2.2141,2.2083,2.2107,2.206,2.217,2.2241,2.2138,2.2165,2.218,2.2349,2.2543,2.2513,2.2559,2.2588,2.2678,2.2791,2.3034,2.2994,2.3138,2.314,2.3084,2.3009,2.2889,2.2641,2.2358,2.2089,2.1948,2.1858,2.1796,2.1777,2.1688,2.1632,2.1808,2.1676,2.1698,2.1708,2.1795,2.1731,2.1621,2.1589,2.1661,2.1638,2.0934,2.0131,2.0132,2.1075,2.3791,2.7592,3.1729,3.5382,3.7134,3.6035,3.205,2.7397,2.4509,2.3548,2.2774,2.2583,2.2373,2.2114,2.1851,2.1749,2.1726,2.159,2.1734,2.1653,2.1549,2.1665,2.1652,2.1593,2.1622,2.166,2.1739,2.1616,2.176,2.1694,2.1649,2.1763,2.1774,2.1755,2.1861,2.1772,2.1925,2.2002,2.2008,2.1954,2.2082,2.2266,2.235,2.2233,2.2365,2.2466,2.2563,2.2655,2.2687,2.2851,2.2902,2.3118,2.3169,2.3253,2.3399,2.3507,2.3578,2.3722,2.3697,2.3841,2.3902,2.3967,2.4066,2.405,2.4064,2.3973,2.3747,2.3607,2.3372,2.3298,2.2986,2.2836,2.2706,2.2567,2.2416,2.2312,2.225,2.225,2.1962,2.1975,2.2041,2.2035,2.2036,2.2081,2.1944,2.199,2.1977,2.1972,2.1935,2.2054,2.1961,2.2033,2.1981,2.2006,2.2053,2.1915,2.2025,2.2109,2.2056,2.1966,2.2052,2.2089,2.2002,2.2077,2.1979,2.1964,2.1999,2.1979,2.1996,2.202,2.1954,2.1954,2.1971,2.1961,2.1948,2.2,2.1865,2.1938,2.1869,2.1938,2.1946,2.2038,2.2135,2.2197,2.2229,2.2195,2.2389,2.2469,2.2797,2.3028,2.2956,2.3029,2.3083,2.3068,2.3028,2.2714,2.2396,2.2164,2.1947,2.1863,2.1847,2.1761,2.1712,2.1684,2.1627,2.1713,2.1625,2.1611,2.1617,2.1578,2.1617,2.1596,2.1585,2.1581,2.143,2.0429,1.9952,2.0204,2.1781,2.4813,2.8882,3.3105,3.6492,3.7184,3.5378,3.0612,2.6352,2.4081,2.3257,2.2654,2.2268,2.2182,2.1836,2.187,2.1701,2.1651,2.1633,2.1652,2.1628,2.1685,2.1511,2.1626,2.1602,2.1589,2.1655,2.1683,2.1695,2.1669,2.1708,2.1712,2.1747,2.1848,2.191,2.1919,2.1877,2.2026,2.1931,2.1935,2.2119,2.2119,2.2177,2.2217,2.2273,2.2295,2.2484,2.2611,2.2564,2.2732,2.2895,2.2978,2.316,2.3245,2.3353,2.3531,2.3648,2.3692,2.3825,2.3931,2.4096,2.4155,2.4198,2.4405,2.4243,2.421,2.4112,2.3943,2.3801,2.37,2.3392,2.3225,2.3045,2.2907,2.262,2.2519,2.2459,2.2211,2.211,2.2125,2.2118,2.2087,2.2042,2.1991,2.2041,2.1947,2.1957,2.1958,2.2069,2.2006,2.2009,2.1985,2.1928,2.2005,2.2065,2.2015,2.1969,2.2027,2.1996,2.1963,2.198,2.2031,2.1949,2.1921,2.2005,2.2008,2.208,2.1927,2.1976,2.2007,2.2027,2.1945,2.1914,2.2043,2.1875,2.1928,2.1977,2.2008,2.194,2.1922,2.1857,2.1882,2.187,2.2016,2.2121,2.2138,2.2212,2.2247,2.236,2.2473,2.2575,2.2753,2.2883,2.3093,2.3115,2.3092,2.312,2.293,2.2715,2.2388,2.208,2.1917,2.1858,2.167,2.1766,2.169,2.1791,2.1606,2.1662,2.1628,2.156,2.1629,2.1655,2.1563,2.1595,2.1478,2.1458,2.1011,2.0172,1.992,2.0556,2.2826,2.6433,3.0546,3.4397,3.6855,3.653,3.3489,2.8559,2.5059,2.3745,2.2894,2.2434,2.2126,2.2049,2.1769,2.1792,2.1604,2.1702,2.1639,2.152,2.152,2.1614,2.1622,2.1565,2.1637,2.1715,2.172,2.1647,2.1698,2.1745,2.1715,2.1712,2.1815,2.1799,2.1829,2.1965,2.1976,2.1938,2.1866,2.194,2.2008,2.2234,2.2162,2.2229,2.2376,2.2429,2.2504,2.267,2.2737,2.2863,2.3003,2.3014,2.32,2.3373,2.3564,2.3663,2.3687,2.3787,2.3931,2.3993,2.4145,2.4241,2.4385,2.4306,2.4295,2.4176,2.4056,2.3995,2.3905,2.364,2.3396,2.3187,2.2904,2.2652,2.2588,2.2349,2.2347,2.2269,2.2258,2.2198,2.2208,2.2091,2.2041,2.1971,2.1995,2.193,2.2012,2.2025,2.1982,2.1977,2.1956,2.1927,2.19,2.1957,2.1993,2.1977,2.197,2.1999,2.2086,2.2013,2.2008,2.206,2.2015,2.1978,2.2084,2.1994,2.21,2.2086,2.2125,2.2035,2.2101,2.2108,2.2112,2.2094,2.2131,2.2068,2.2064,2.2,2.2094,2.2128,2.2148,2.2229,2.2465,2.2388,2.2628,2.2585,2.2799,2.2927,2.3043,2.3067,2.3073,2.3036,2.297,2.2854,2.2689,2.2315,2.2085,2.1948,2.1867,2.1975,2.1857,2.188,2.1691,2.1676,2.1688,2.1732,2.1697,2.1746,2.1738,2.1661,2.164,2.173,2.1529,2.0776,2.01,2.0224,2.12,2.2529,2.5657,2.9947,3.3764,3.6751,3.6878,3.4546,2.9543,2.5617,2.395,2.3249,2.2561,2.2325,2.2119,2.1974,2.1859,2.1838,2.1755,2.1692,2.171,2.1766,2.1768,2.1735,2.1718,2.1741,2.1733,2.1717,2.1788,2.1835,2.1884,2.1878,2.1972,2.1947,2.1859,2.1974,2.2042,2.2162,2.2106,2.2147,2.2217,2.2312,2.2307,2.2393,2.2292,2.2505,2.2576,2.266,2.2816,2.2718,2.3007,2.3142,2.3306,2.3333,2.3537,2.3717,2.3744,2.3907,2.4174,2.4338,2.4313,2.4452,2.4526,2.4466,2.4542,2.4595,2.4525,2.4332,2.4237,2.4062,2.3757,2.3558,2.3254,2.3099,2.284,2.2689,2.2508,2.2446,2.2323,2.2297,2.2231,2.2283,2.222,2.2106,2.2172,2.2089,2.213,2.2218,2.2059,2.2047,2.2166,2.2103,2.204,2.202,2.204,2.21,2.22,2.2108,2.2065,2.2173,2.2088,2.2126,2.2144,2.2259,2.2133,2.215,2.2178,2.2282,2.218,2.2151,2.2193,2.2253,2.2227,2.2157,2.2184,2.2089,2.2173,2.2102,2.2219,2.2059,2.2018,2.2121,2.2164,2.2083,2.2069,2.2123,2.2056,2.2042,2.2132,2.2068,2.1954,2.196,2.2076,2.2264,2.241,2.2368,2.2364,2.2327,2.2569,2.2699,2.3081,2.2908,2.2878,2.3075,2.3108,2.3192,2.297,2.2817,2.2654,2.2307,2.2135,2.1994,2.187,2.1822,2.1828,2.1902,2.1872,2.1775,2.1696,2.1764,2.1755,2.1732,2.1756,2.1694,2.1654,2.1626,2.1316,2.027,2.0202,2.0707,2.306,2.6525,3.0426,3.478,3.7621,3.7418,3.4616,2.9688,2.5761,2.3919,2.3089,2.2626,2.2226,2.2233,2.2063,2.192,2.1813,2.188,2.1664,2.1706,2.1639,2.1724,2.1708,2.1689,2.1682,2.1818,2.1739,2.1847,2.1827,2.1833,2.1772,2.1895,2.1951,2.1906,2.1922,2.1981,2.2009,2.2062,2.2017,2.2185,2.2181,2.2115,2.2264,2.2284,2.2407,2.2504,2.2582,2.2727,2.2769,2.2876,2.2981,2.3178,2.3281,2.3469,2.3612,2.3701,2.3862,2.3953,2.4158,2.4205,2.4279,2.4515,2.4568,2.4667,2.4672,2.4654,2.4508,2.4261,2.4226,2.4018,2.3724,2.3495,2.3249,2.3106,2.2946,2.2715,2.2662,2.246,2.2459,2.2351,2.2229,2.2224,2.2259,2.2245,2.2215,2.2078,2.22,2.2163,2.2221,2.2186,2.2223,2.2082,2.217,2.2126,2.2082,2.2131,2.223,2.2084,2.2158,2.222,2.2089,2.208,2.2088,2.2163,2.2181,2.2197,2.2263,2.2204,2.2205,2.2227,2.2157,2.212,2.2213,2.2223,2.2214,2.215,2.2083,2.2199,2.2207,2.2239,2.2159,2.2061,2.2206,2.2057,2.2105,2.2087,2.2113,2.2135,2.2122,2.2151,2.2062,2.215,2.217,2.2057,2.194,2.2139,2.2163,2.2121,2.2156,2.2118,2.2134,2.2167,2.2075,2.2177,2.2165,2.2315,2.2468,2.2501,2.2555,2.2592,2.2619,2.2768,2.2901,2.3064,2.3055,2.3218,2.3292,2.3224,2.3194,2.3068,2.285,2.2612,2.2222,2.2143,2.2083,2.2145,2.1952,2.198,2.1901,2.1964,2.1928,2.1932,2.1846,2.1903,2.1956,2.1821,2.1776,2.1829,2.1533,2.0691,2.0303,2.0507,2.2507,2.576,2.9732,3.4119,3.7369,3.7788,3.5774,3.1054,2.6572,2.441,2.3343,2.283,2.2567,2.2464,2.229,2.2123,2.1976,2.2035,2.1915,2.1997,2.1847,2.1915,2.1883,2.2023,2.1989,2.1886,2.1931,2.2036,2.1893,2.2145,2.2039,2.205,2.2079,2.2185,2.2146,2.2094,2.2193,2.2177,2.231,2.2291,2.2302,2.233,2.2382,2.2563,2.2612,2.2565,2.2664,2.2883,2.2906,2.3077,2.3188,2.3255,2.3377,2.345,2.361,2.3742,2.3971,2.4182,2.418,2.4285,2.4498,2.4596,2.4763,2.4721,2.487,2.4904,2.4874,2.465,2.4529,2.444,2.4081,2.3896,2.366,2.3425,2.3255,2.2987,2.2872,2.2847,2.2609,2.2519,2.2571,2.2403,2.239,2.2488,2.239,2.2176,2.2366,2.2342,2.2323,2.2358,2.2279,2.224,2.2393,2.2207,2.2294,2.2187,2.2205,2.217,2.2337,2.212,2.2167,2.2408,2.2319,2.2326,2.2325,2.2154,2.2304,2.225,2.2367,2.2237,2.2267,2.2283,2.2353,2.2378,2.2348,2.2267,2.22,2.2285,2.2291,2.2253,2.238,2.2307,2.2239,2.2185,2.2351,2.2232,2.2128,2.235,2.2266,2.221,2.2252,2.2373,2.2297,2.2248,2.2196,2.2107,2.2098,2.2246,2.2196,2.2211,2.2363,2.2376,2.2236,2.2232,2.2407,2.2587,2.271,2.2735,2.2647,2.2715,2.2834,2.2889,2.3179,2.3266,2.3214,2.3391,2.3223,2.3048,2.2909,2.2615,2.2288,2.2211,2.2061,2.2171,2.2175,2.2108,2.1994,2.1923,2.1945,2.1932,2.1969,2.2034,2.1975,2.196,2.1953,2.1875,2.1758,2.1048,2.0408,2.0517,2.1813,2.467,2.8668,3.2743,3.5971,3.7078,3.5885,3.1722,2.7038,2.4594,2.3673,2.3029,2.2623,2.2619,2.2419,2.2271,2.2144,2.2119,2.1982,2.2006,2.193,2.19,2.1945,2.2037,2.1917,2.2107,2.1985,2.2038,2.2104,2.2178,2.2096,2.2116,2.2168,2.225,2.218,2.2335,2.2372,2.2299,2.2308,2.2509,2.237,2.2547,2.2703,2.2634,2.2657,2.2802,2.2944,2.2891,2.2996,2.3125,2.3154,2.332,2.3593,2.3659,2.3855,2.3917,2.4057,2.4241,2.4518,2.4637,2.4742,2.4967,2.511,2.5089,2.5077,2.5092,2.5107,2.4954,2.4795,2.4614,2.43,2.4071,2.3753,2.3659,2.3419,2.3329,2.3155,2.2927,2.2779,2.2702,2.2641,2.2534,2.2589,2.2584,2.2437,2.2384,2.2412,2.2488,2.2409,2.2372,2.255,2.2272,2.2275,2.2414,2.2357,2.2199,2.2425,2.2478,2.233,2.2407,2.2643,2.2593,2.2371,2.253,2.2542,2.2605,2.2587,2.2554,2.2472,2.262,2.2603,2.2676,2.2698,2.2609,2.2559,2.2553,2.2475,2.2474,2.2601,2.2535,2.2646,2.2451,2.2465,2.2405,2.2411,2.2574,2.2416,2.2425,2.2418,2.238,2.2481,2.2475,2.2575,2.2487,2.2714,2.2778,2.283,2.2988,2.286,2.2983,2.3231,2.3353,2.3459,2.3429,2.3675,2.3515,2.3381,2.3074,2.2938,2.259,2.235,2.2402,2.2263,2.2293,2.2227,2.2168,2.2293,2.2251,2.2225,2.2082,2.2149,2.2084,2.207,2.2059,2.2048,2.1996,2.1534,2.0571,2.0602,2.143,2.3635,2.716,3.1226,3.5099,3.7365,3.7169,3.5998,3.1447,2.6956,2.4669,2.3633,2.3107,2.2626,2.2639,2.2276,2.2293,2.2118,2.2089,2.2084,2.222,2.2159,2.2144,2.1956,2.2125,2.2176,2.222,2.2097,2.2131,2.205,2.2315,2.2169,2.2408,2.2223,2.2243,2.2224,2.2231,2.2385,2.2507,2.261,2.2574,2.2392,2.2649,2.2727,2.2775,2.293,2.2924,2.2857,2.29,2.306,2.3193,2.3272,2.3462,2.3547,2.3817,2.3786,2.4036,2.4189,2.4423,2.454,2.4756,2.4781,2.4833,2.5001,2.5041,2.5138,2.4931,2.4859,2.4791,2.4742,2.4419,2.4277,2.388,2.3702,2.3335,2.3146,2.3006,2.2875,2.2664,2.2639,2.2481,2.2518,2.2587,2.2358,2.2327,2.2372,2.238,2.2308,2.2279,2.229,2.2287,2.2263,2.2357,2.2342,2.2277,2.2259,2.2189,2.2343,2.2261,2.2458,2.2442,2.2342,2.2298,2.2211,2.2332,2.2356,2.2416,2.2453,2.2431,2.2406,2.2426,2.2431,2.2544,2.2458,2.2377,2.2522,2.2426,2.2366,2.2386,2.2322,2.2373,2.2524,2.241,2.2356,2.2574,2.2728,2.2708,2.2743,2.2699,2.2715,2.2882,2.3264,2.3332,2.3309,2.3495,2.3402,2.3511,2.3369,2.3133,2.2925,2.2613,2.2382,2.2256,2.2232,2.2142,2.1917,2.2122,2.2207,2.2143,2.2118,2.2018,2.1987,2.2104,2.2122,2.2062,2.209,2.2004,2.1637,2.0656,2.055,2.1267,2.3584,2.7111,3.1216,3.5191,3.7758,3.7593,3.4737,3.2145,2.7464,2.4583,2.3677,2.2917,2.2742,2.2487,2.2359,2.2116,2.2183,2.1974,2.2013,2.1912,2.2126,2.1995,2.204,2.1954,2.2112,2.1912,2.2019,2.2001,2.2125,2.2069,2.2175,2.2165,2.2106,2.2079,2.2202,2.2328,2.2315,2.2351,2.236,2.2491,2.2463,2.2566,2.2643,2.253,2.264,2.2735,2.284,2.2926,2.3082,2.3124,2.3169,2.3341,2.3557,2.3713,2.3782,2.4107,2.4293,2.4395,2.4458,2.4603,2.4709,2.4874,2.4843,2.499,2.5007,2.4988,2.4791,2.463,2.46,2.4338,2.3995,2.3808,2.3681,2.3428,2.3026,2.3076,2.2804,2.2757,2.2672,2.2547,2.2536,2.2543,2.2506,2.2518,2.2426,2.2503,2.2571,2.2371,2.2296,2.2423,2.2446,2.2361,2.2355,2.2401,2.2375,2.2431,2.2365,2.2451,2.2318,2.2267,2.2393,2.2349,2.2337,2.2243,2.2367,2.2452,2.2404,2.2413,2.2378,2.2377,2.2524,2.2577,2.2619,2.2884,2.2784,2.2679,2.2982,2.3092,2.3236,2.3332,2.3312,2.3477,2.3434,2.322,2.326,2.3161,2.3039,2.2709,2.2571,2.2278,2.2179,2.2204,2.2125,2.1979,2.2126,2.2172,2.1909,2.2041,2.1978,2.2023,2.2091,2.2101,2.2089,2.192,2.168,2.0818,2.0445,2.0879,2.1445,2.4131,2.8053,3.2266,3.6047,3.7886,3.6941,3.3136,2.8173,2.5032,2.3775,2.306,2.2668,2.2402,2.2257,2.2267,2.2012,2.1961,2.2004,2.1958,2.1985,2.1908,2.1921,2.1913,2.1972,2.1899,2.1871,2.1998,2.1833,2.1932,2.2051,2.2136,2.213,2.2077,2.2102,2.2146,2.2281,2.2233,2.2102,2.218,2.2324,2.2295,2.2451,2.2579,2.2647,2.2566,2.2673,2.2751,2.2952,2.2989,2.2949,2.3268,2.3405,2.3423,2.357,2.3835,2.4062,2.4118,2.4253,2.4434,2.4526,2.4553,2.4765,2.4693,2.4668,2.4701,2.453,2.4412,2.4216,2.4026,2.3834,2.3567,2.3341,2.3181,2.2822,2.2794,2.2642,2.2581,2.2517,2.2429,2.2452,2.2408,2.2352,2.2241,2.239,2.2306,2.2332,2.223,2.2278,2.2337,2.22,2.2236,2.2338,2.2235,2.2273,2.2193,2.2275,2.2244,2.2284,2.2386,2.2234,2.2272,2.2182,2.231,2.2288,2.236,2.2383,2.2182,2.2288,2.2378,2.2236,2.2234,2.2245,2.2352,2.237,2.2181,2.2321,2.2371,2.2379,2.2053,2.2119,2.2191,2.2184,2.2304,2.2193,2.2235,2.2063,2.2186,2.217,2.2108,2.214,2.2102,2.218,2.2102,2.2224,2.2128,2.2174,2.2086,2.2172,2.2009,2.212,2.2216,2.2111,2.2192,2.2093,2.209,2.2107,2.2278,2.2392,2.2401,2.2543,2.2572,2.2622,2.2769,2.2895,2.2929,2.3113,2.3159,2.3183,2.3177,2.3142,2.3055,2.2884,2.275,2.2398,2.2205,2.2222,2.1986,2.1993,2.1811,2.197,2.1939,2.193,2.1849,2.1723,2.1963,2.1931,2.1885,2.1713,2.1835,2.1714,2.0885,2.032,2.0285,2.0949,2.3432,2.6878,3.0918,3.5048,3.7863,3.7515,3.4908,2.9867,2.5877,2.3929,2.3213,2.2751,2.2529,2.23,2.2126,2.2065,2.1999,2.1894,2.1966,2.2007,2.1932,2.1821,2.1793,2.2017,2.1917,2.1899,2.1859,2.1896,2.1918,2.2049,2.207,2.1989,2.2108,2.2089,2.2053,2.2082,2.2219,2.23,2.233,2.2302,2.2355,2.2395,2.2488,2.2533,2.2554,2.2694,2.2635,2.2835,2.2941,2.3101,2.3137,2.319,2.3374,2.3512,2.3679,2.3827,2.4064,2.4295,2.435,2.4511,2.4518,2.4666,2.4778,2.488,2.5001,2.5125,2.4967,2.4967,2.4708,2.4522,2.4387,2.4,2.3751,2.3491,2.3278,2.3124,2.2877,2.2714,2.2616,2.2704,2.2613,2.2498,2.2507,2.2505,2.2265,2.2372,2.2416,2.2314,2.2364,2.2311,2.2359,2.246,2.2418,2.236,2.2405,2.2304,2.2284,2.2319,2.2415,2.2424,2.2348,2.2339,2.2348,2.234,2.2323,2.2324,2.241,2.2319,2.2309,2.2467,2.2341,2.2342,2.2331,2.2297,2.2312,2.2379,2.2263,2.228,2.224,2.2197,2.2297,2.2341,2.2218,2.2178,2.2271,2.2234,2.2181,2.2166,2.2197,2.2177,2.2191,2.213,2.215,2.2125,2.2289,2.2044,2.2398,2.2217,2.2182,2.2193,2.2173,2.2099,2.2129,2.2155,2.2187,2.2166,2.2093,2.226,2.2178,2.2204,2.218,2.2215,2.21,2.2234,2.2126,2.2149,2.1985,2.2175,2.2058,2.2121,2.2188,2.2212,2.2198,2.2143,2.2155,2.2172,2.2122,2.2093,2.2176,2.2293,2.2436,2.2521,2.2666,2.2455,2.2624,2.2797,2.2926,2.3082,2.3041,2.3071,2.315,2.3154,2.315,2.3068,2.2765,2.2483,2.2397,2.2177,2.208,2.1936,2.2039,2.1958,2.1927,2.1969,2.2008,2.1913,2.1851,2.1998,2.1919,2.1915,2.1966,2.1867,2.1573,2.0711,2.0355,2.0724,2.2709,2.5873,2.9696,3.3895,3.7168,3.7678,3.5845,3.1075,2.6653,2.4434,2.3431,2.2868,2.2501,2.2578,2.2375,2.2189,2.1882,2.2058,2.1954,2.1959,2.202,2.2019,2.1842,2.1816,2.1958,2.2078,2.1974,2.2055,2.1968,2.2146,2.2083,2.2073,2.2086,2.217,2.2153,2.2263,2.2254,2.2284,2.2063,2.2369,2.2377,2.2493,2.2557,2.2528,2.2443,2.2687,2.2822,2.2842,2.2836,2.297,2.3133,2.3289,2.3399,2.3498,2.3617,2.3806,2.4045,2.4074,2.4324,2.4487,2.4527,2.4626,2.4734,2.4953,2.5044,2.5098,2.5029,2.507,2.5028,2.4585,2.4501,2.4366,2.408,2.3656,2.3483,2.3471,2.3407,2.3014,2.2871,2.2621,2.2637,2.2449,2.2453,2.2452,2.2365,2.2181,2.2358,2.2379,2.2418,2.2469,2.2241,2.2315,2.2164,2.2252,2.2383,2.2217,2.2275,2.2368,2.2446,2.2302,2.2217,2.206,2.2376,2.2253,2.2339,2.2367,2.2284,2.2159,2.2311
