-13.974,-13.969,-13.966,-13.968,-13.974,-13.966,-13.969,-13.968,-13.972,-13.98,-13.975,-13.981,-13.987,-13.992,-13.992,-13.988,-13.982,-13.993,-13.989,-13.999,-14,-13.995,-13.992,-13.995,-14.001,-14.005,-14.002,-14.002,-13.988,-14.003,-14.001,-13.995,-13.993,-14,-14,-14.006,-13.995,-13.997,-14,-14.001,-14.004,-14.004,-14.004,-14.004,-14.005,-14.006,-14.011,-14.013,-14.015,-14.015,-14.014,-14.015,-14.016,-14.014,-14.016,-14.015,-14.015,-14.015,-14.018,-14.021,-14.02,-14.014,-14.022,-14.024,-14.031,-14.035,-14.031,-14.027,-14.036,-14.04,-14.038,-14.031,-14.035,-14.026,-14.023,-14.008,-13.999,-14,-14.002,-13.978,-13.978,-13.95,-13.935,-13.953,-13.956,-13.97,-13.976,-13.986,-14.004,-14.003,-14.013,-14.031,-14.046,-14.062,-14.076,-14.075,-14.075,-14.08,-14.078,-14.077,-14.08,-14.079,-14.088,-14.085,-14.082,-14.094,-14.091,-14.109,-14.117,-14.133,-14.133,-14.051,-13.873,-13.66,-13.448,-13.286,-13.458,-13.621,-13.708,-13.879,-14.12,-14.177,-14.206,-14.191,-14.111,-14.086,-14.044,-14.055,-14.034,-14.049,-14.041,-14.044,-14.044,-14.044,-14.041,-14.048,-14.038,-14.027,-14.015,-14.009,-14.007,-14.009,-14,-13.999,-13.985,-13.982,-13.967,-13.971,-13.957,-13.955,-13.949,-13.931,-13.916,-13.912,-13.886,-13.879,-13.864,-13.852,-13.842,-13.821,-13.809,-13.784,-13.76,-13.74,-13.727,-13.719,-13.704,-13.693,-13.663,-13.646,-13.653,-13.649,-13.624,-13.622,-13.627,-13.636,-13.657,-13.673,-13.711,-13.731,-13.772,-13.791,-13.82,-13.879,-13.914,-13.946,-13.975,-13.991,-14.01,-14.025,-14.041,-14.047,-14.063,-14.074,-14.081,-14.084,-14.09,-14.093,-14.093,-14.102,-14.108,-14.108,-14.117,-14.111,-14.114,-14.105,-14.106,-14.111,-14.105,-14.099,-14.096,-14.099,-14.105,-14.102,-14.098,-14.093,-14.09,-14.09,-14.091,-14.083,-14.084,-14.095,-14.089,-14.071,-14.081,-14.086,-14.087,-14.084,-14.08,-14.08,-14.084,-14.082,-14.078,-14.079,-14.08,-14.074,-14.085,-14.088,-14.078,-14.078,-14.081,-14.087,-14.089,-14.095,-14.094,-14.098,-14.101,-14.107,-14.099,-14.101,-14.109,-14.099,-14.107,-14.105,-14.107,-14.107,-14.114,-14.122,-14.117,-14.118,-14.119,-14.11,-14.113,-14.123,-14.118,-14.114,-14.119,-14.118,-14.117,-14.117,-14.116,-14.116,-14.128,-14.125,-14.12,-14.123,-14.111,-14.113,-14.11,-14.122,-14.13,-14.124,-14.126,-14.123,-14.11,-14.108,-14.107,-14.099,-14.103,-14.123,-14.105,-14.099,-14.083,-14.072,-14.088,-14.1,-14.069,-14.072,-14.091,-14.064,-14.09,-14.054,-14.054,-14.097,-14.077,-14.069,-14.077,-14.067,-14.07,-14.085,-14.069,-14.1,-14.051,-14.057,-14.072,-14.066,-14.072,-14.067,-14.055,-14.049,-14.081,-14.07,-14.081,-14.071,-14.068,-14.079,-14.072,-14.063,-14.04,-14.041,-14.05,-14.065,-14.027,-14.003,-14.003,-13.984,-14.004,-14.011,-14.03,-14.048,-14.065,-14.082,-14.089,-14.081,-14.1,-14.142,-14.145,-14.161,-14.161,-14.17,-14.176,-14.156,-14.166,-14.174,-14.197,-14.179,-14.169,-14.172,-14.18,-14.183,-14.205,-14.209,-14.235,-14.21,-14.094,-13.882,-13.704,-13.498,-13.389,-13.665,-13.786,-13.853,-14.078,-14.256,-14.298,-14.316,-14.28,-14.228,-14.191,-14.163,-14.165,-14.156,-14.17,-14.174,-14.156,-14.163,-14.155,-14.153,-14.159,-14.133,-14.137,-14.121,-14.126,-14.113,-14.108,-14.119,-14.109,-14.097,-14.091,-14.084,-14.071,-14.054,-14.046,-14.044,-14.023,-13.999,-13.983,-13.956,-13.947,-13.921,-13.914,-13.885,-13.881,-13.838,-13.822,-13.821,-13.787,-13.768,-13.743,-13.721,-13.7,-13.694,-13.68,-13.673,-13.677,-13.668,-13.666,-13.652,-13.685,-13.688,-13.716,-13.747,-13.786,-13.821,-13.861,-13.91,-13.933,-13.979,-14.004,-14.043,-14.06,-14.074,-14.097,-14.123,-14.117,-14.143,-14.153,-14.161,-14.166,-14.173,-14.167,-14.185,-14.186,-14.18,-14.185,-14.178,-14.186,-14.196,-14.196,-14.18,-14.174,-14.183,-14.175,-14.199,-14.177,-14.185,-14.172,-14.177,-14.189,-14.186,-14.182,-14.187,-14.178,-14.177,-14.179,-14.177,-14.18,-14.198,-14.186,-14.184,-14.185,-14.188,-14.184,-14.176,-14.183,-14.191,-14.183,-14.183,-14.192,-14.182,-14.171,-14.17,-14.183,-14.184,-14.183,-14.184,-14.186,-14.18,-14.192,-14.204,-14.191,-14.201,-14.2,-14.201,-14.199,-14.207,-14.202,-14.18,-14.183,-14.176,-14.177,-14.174,-14.168,-14.182,-14.163,-14.15,-14.141,-14.129,-14.109,-14.097,-14.095,-14.088,-14.082,-14.086,-14.073,-14.062,-14.062,-14.029,-14.024,-14.017,-14.014,-14.006,-14.005,-14.016,-14.029,-14.016,-14.008,-14.017,-14.025,-14.022,-14.037,-14.034,-14.04,-14.035,-14.038,-14.04,-14.047,-14.053,-14.044,-14.056,-14.056,-14.06,-14.064,-14.062,-14.078,-14.078,-14.076,-14.075,-14.085,-14.081,-14.093,-14.108,-14.104,-14.087,-14.085,-14.082,-14.08,-14.07,-14.073,-14.065,-14.068,-14.042,-14.015,-14.003,-14.029,-14.048,-14.059,-14.069,-14.075,-14.074,-14.086,-14.09,-14.113,-14.148,-14.156,-14.163,-14.165,-14.168,-14.166,-14.174,-14.179,-14.17,-14.172,-14.17,-14.177,-14.178,-14.191,-14.193,-14.192,-14.215,-14.221,-14.202,-14.09,-13.873,-13.678,-13.483,-13.396,-13.681,-13.811,-13.909,-14.128,-14.284,-14.318,-14.325,-14.279,-14.212,-14.179,-14.126,-14.124,-14.103,-14.12,-14.12,-14.118,-14.104,-14.105,-14.094,-14.09,-14.078,-14.064,-14.051,-14.042,-14.019,-14.027,-14.017,-14.012,-13.987,-13.975,-13.962,-13.975,-13.966,-13.96,-13.946,-13.93,-13.905,-13.892,-13.876,-13.873,-13.85,-13.834,-13.818,-13.795,-13.775,-13.757,-13.748,-13.732,-13.713,-13.692,-13.687,-13.666,-13.647,-13.64,-13.634,-13.635,-13.636,-13.637,-13.637,-13.647,-13.671,-13.686,-13.724,-13.762,-13.803,-13.838,-13.883,-13.914,-13.954,-13.982,-14.006,-14.02,-14.045,-14.06,-14.072,-14.077,-14.095,-14.108,-14.122,-14.116,-14.131,-14.135,-14.141,-14.132,-14.139,-14.137,-14.136,-14.133,-14.134,-14.129,-14.136,-14.136,-14.135,-14.126,-14.134,-14.137,-14.125,-14.111,-14.118,-14.121,-14.125,-14.121,-14.128,-14.113,-14.108,-14.11,-14.108,-14.11,-14.103,-14.097,-14.105,-14.113,-14.107,-14.09,-14.082,-14.089,-14.096,-14.087,-14.092,-14.088,-14.091,-14.084,-14.091,-14.088,-14.09,-14.083,-14.088,-14.088,-14.084,-14.076,-14.076,-14.08,-14.076,-14.077,-14.079,-14.068,-14.062,-14.069,-14.072,-14.066,-14.062,-14.064,-14.061,-14.062,-14.058,-14.063,-14.059,-14.051,-14.054,-14.047,-14.054,-14.049,-14.038,-14.047,-14.036,-14.032,-14.031,-14.032,-14.029,-14.034,-14.02,-14.024,-14.021,-14.017,-14.01,-14.003,-14.001,-13.996,-13.998,-13.995,-13.983,-13.985,-13.981,-13.982,-13.977,-13.976,-13.966,-13.969,-13.974,-13.967,-13.964,-13.964,-13.951,-13.943,-13.934,-13.915,-13.896,-13.898,-13.9,-13.896,-13.867,-13.848,-13.829,-13.835,-13.842,-13.838,-13.836,-13.845,-13.865,-13.874,-13.884,-13.909,-13.925,-13.936,-13.934,-13.936,-13.934,-13.93,-13.926,-13.927,-13.926,-13.922,-13.924,-13.927,-13.931,-13.924,-13.932,-13.945,-13.969,-13.983,-13.949,-13.811,-13.58,-13.366,-13.153,-13.133,-13.281,-13.469,-13.623,-13.77,-13.908,-13.9,-13.96,-14.015,-13.969,-13.923,-13.882,-13.867,-13.859,-13.845,-13.844,-13.83,-13.828,-13.831,-13.829,-13.821,-13.815,-13.813,-13.801,-13.794,-13.794,-13.785,-13.78,-13.777,-13.772,-13.766,-13.753,-13.735,-13.727,-13.729,-13.715,-13.704,-13.681,-13.666,-13.654,-13.637,-13.623,-13.612,-13.589,-13.575,-13.546,-13.521,-13.504,-13.491,-13.474,-13.459,-13.431,-13.417,-13.399,-13.392,-13.386,-13.378,-13.366,-13.375,-13.383,-13.386,-13.405,-13.429,-13.454,-13.492,-13.532,-13.554,-13.591,-13.615,-13.648,-13.684,-13.713,-13.73,-13.746,-13.76,-13.776,-13.786,-13.793,-13.79,-13.8,-13.806,-13.799,-13.807,-13.806,-13.807,-13.802,-13.812,-13.796,-13.791,-13.793,-13.789,-13.79,-13.774,-13.765,-13.773,-13.775,-13.763,-13.765,-13.766,-13.767,-13.753,-13.759,-13.753,-13.741,-13.732,-13.739,-13.73,-13.715,-13.711,-13.707,-13.691,-13.671,-13.667,-13.657,-13.659,-13.66,-13.657,-13.654,-13.65,-13.647,-13.648,-13.647,-13.645,-13.637,-13.635,-13.635,-13.631,-13.634,-13.633,-13.628,-13.627,-13.623,-13.62,-13.621,-13.614,-13.616,-13.617,-13.615,-13.603,-13.605,-13.597,-13.6,-13.593,-13.585,-13.583,-13.582,-13.571,-13.549,-13.539,-13.524,-13.502,-13.505,-13.493,-13.478,-13.461,-13.458,-13.426,-13.408,-13.41,-13.423,-13.412,-13.409,-13.425,-13.437,-13.448,-13.462,-13.478,-13.489,-13.503,-13.499,-13.494,-13.484,-13.477,-13.472,-13.475,-13.471,-13.475,-13.471,-13.47,-13.472,-13.472,-13.471,-13.488,-13.521,-13.538,-13.492,-13.345,-13.123,-12.892,-12.694,-12.674,-12.9,-13.06,-13.191,-13.399,-13.43,-13.458,-13.51,-13.588,-13.55,-13.487,-13.449,-13.431,-13.434,-13.426,-13.442,-13.432,-13.437,-13.446,-13.446,-13.434,-13.442,-13.431,-13.434,-13.417,-13.416,-13.413,-13.417,-13.407,-13.407,-13.397,-13.388,-13.379,-13.366,-13.343,-13.332,-13.321,-13.309,-13.296,-13.285,-13.27,-13.261,-13.248,-13.228,-13.213,-13.191,-13.162,-13.155,-13.145,-13.128,-13.11,-13.097,-13.079,-13.065,-13.059,-13.054,-13.046,-13.044,-13.05,-13.068,-13.091,-13.115,-13.149,-13.187,-13.219,-13.253,-13.271,-13.299,-13.326,-13.35,-13.382,-13.392,-13.418,-13.43,-13.445,-13.45,-13.464,-13.458,-13.465,-13.459,-13.456,-13.446,-13.436,-13.432,-13.431,-13.43,-13.431,-13.425,-13.427,-13.427,-13.426,-13.415,-13.411,-13.406,-13.411,-13.395,-13.403,-13.398,-13.398,-13.391,-13.394,-13.388,-13.386,-13.386,-13.378,-13.374,-13.371,-13.376,-13.39,-13.38,-13.367,-13.375,-13.368,-13.376,-13.377,-13.375,-13.372,-13.375,-13.379,-13.388,-13.392,-13.4,-13.397,-13.399,-13.403,-13.403,-13.401,-13.412,-13.421,-13.421,-13.422,-13.425,-13.432,-13.423,-13.43,-13.43,-13.427,-13.428,-13.43,-13.425,-13.437,-13.431,-13.434,-13.436,-13.441,-13.438,-13.429,-13.419,-13.408,-13.396,-13.388,-13.393,-13.392,-13.381,-13.376,-13.366,-13.344,-13.343,-13.345,-13.355,-13.36,-13.362,-13.372,-13.38,-13.382,-13.401,-13.426,-13.44,-13.445,-13.446,-13.451,-13.447,-13.456,-13.451,-13.452,-13.449,-13.445,-13.435,-13.446,-13.449,-13.439,-13.443,-13.463,-13.491,-13.489,-13.446,-13.282,-13.053,-12.828,-12.639,-12.657,-12.874,-12.967,-13.089,-13.371,-13.458,-13.499,-13.535,-13.44,-13.393,-13.355,-13.349,-13.331,-13.333,-13.328,-13.329,-13.329,-13.33,-13.334,-13.318,-13.308,-13.305,-13.292,-13.283,-13.27,-13.274,-13.276,-13.258,-13.24,-13.244,-13.241,-13.231,-13.193,-13.19,-13.182,-13.155,-13.14,-13.118,-13.102,-13.09,-13.069,-13.032,-13.012,-12.989,-12.962,-12.938,-12.912,-12.886,-12.857,-12.842,-12.822,-12.812,-12.787,-12.781,-12.766,-12.758,-12.755,-12.748,-12.752,-12.758,-12.769,-12.802,-12.822,-12.85,-12.897,-12.925,-12.96,-12.984,-12.998,-13.028,-13.058,-13.066,-13.069,-13.078,-13.089,-13.091,-13.096,-13.101,-13.102,-13.105,-13.1,-13.102,-13.114,-13.109,-13.104,-13.089,-13.095,-13.097,-13.099,-13.095,-13.089,-13.081,-13.085,-13.083,-13.078,-13.08,-13.079,-13.068,-13.075,-13.069,-13.061,-13.065,-13.061,-13.062,-13.054,-13.05,-13.047,-13.054,-13.039,-13.038,-13.052,-13.042,-13.037,-13.032,-13.03,-13.02,-13.024,-13.017,-13.016,-13.017,-13.021,-13.016,-13.016,-13.021,-13.017,-13.022,-13.026,-13.021,-13.019,-13.011,-13.034,-13.021,-13.01,-13.014,-13.023,-13.019,-13.01,-13.016,-13.027,-13.028,-13.024,-13.016,-13.024,-13.029,-13.033,-13.029,-13.024,-13.024,-13.036,-13.035,-13.033,-13.045,-13.029,-13.029,-13.038,-13.045,-13.043,-13.032,-13.036,-13.022,-13.019,-13.011,-13.001,-12.999,-13.02,-13.008,-13.011,-13.006,-12.932,-12.941,-12.958,-12.983,-12.939,-12.968,-13.019,-12.972,-12.973,-12.99,-13,-13.056,-13.041,-13.023,-13.042,-13.054,-13.054,-13.06,-13.074,-13.074,-13.068,-13.115,-13.106,-13.101,-13.075,-13.1,-13.132,-13.127,-13.157,-13.142,-13.022,-12.795,-12.613,-12.384,-12.276,-12.552,-12.658,-12.755,-13.001,-13.17,-13.213,-13.223,-13.243,-13.158,-13.14,-13.091,-13.073,-13.055,-13.068,-13.075,-13.081,-13.05,-13.096,-13.054,-13.065,-13.069,-13.068,-13.046,-13.049,-13.05,-13.039,-13.034,-13.041,-13.035,-13.028,-13.047,-13.014,-12.999,-13.023,-12.991,-12.972,-12.977,-12.963,-12.969,-12.926,-12.923,-12.911,-12.891,-12.866,-12.854,-12.83,-12.821,-12.8,-12.789,-12.78,-12.747,-12.734,-12.724,-12.715,-12.719,-12.699,-12.707,-12.713,-12.725,-12.737,-12.775,-12.797,-12.834,-12.869,-12.923,-12.956,-12.977,-13.017,-13.046,-13.079,-13.109,-13.143,-13.167,-13.175,-13.197,-13.197,-13.229,-13.221,-13.218,-13.23,-13.237,-13.241,-13.253,-13.249,-13.245,-13.249,-13.261,-13.269,-13.254,-13.267,-13.239,-13.254,-13.265,-13.264,-13.251,-13.256,-13.256,-13.254,-13.251,-13.265,-13.259,-13.26,-13.274,-13.29,-13.264,-13.234,-13.26,-13.256,-13.26,-13.256,-13.277,-13.249,-13.26,-13.257,-13.265,-13.267,-13.273,-13.286,-13.279,-13.291,-13.293,-13.292,-13.284,-13.288,-13.301,-13.3,-13.291,-13.291,-13.306,-13.317,-13.31,-13.313,-13.33,-13.32,-13.338,-13.339,-13.347,-13.343,-13.363,-13.361,-13.353,-13.35,-13.361,-13.361,-13.373,-13.373,-13.376,-13.382,-13.371,-13.38,-13.381,-13.374,-13.377,-13.386,-13.383,-13.389,-13.393,-13.388,-13.388,-13.402,-13.397,-13.405,-13.404,-13.401,-13.414,-13.414,-13.421,-13.403,-13.4,-13.421,-13.412,-13.427,-13.416,-13.411,-13.422,-13.424,-13.422,-13.42,-13.419,-13.421,-13.419,-13.42,-13.43,-13.437,-13.421,-13.427,-13.415,-13.426,-13.402,-13.4,-13.387,-13.387,-13.378,-13.364,-13.338,-13.319,-13.32,-13.348,-13.348,-13.358,-13.37,-13.371,-13.37,-13.376,-13.389,-13.422,-13.438,-13.44,-13.452,-13.454,-13.449,-13.447,-13.45,-13.454,-13.455,-13.453,-13.448,-13.445,-13.447,-13.45,-13.447,-13.459,-13.467,-13.475,-13.486,-13.413,-13.237,-13.009,-12.815,-12.643,-12.771,-12.982,-13.074,-13.217,-13.479,-13.555,-13.577,-13.555,-13.469,-13.44,-13.389,-13.395,-13.382,-13.387,-13.376,-13.38,-13.377,-13.382,-13.379,-13.381,-13.368,-13.366,-13.363,-13.353,-13.337,-13.348,-13.338,-13.34,-13.324,-13.327,-13.313,-13.317,-13.316,-13.312,-13.299,-13.3,-13.295,-13.282,-13.261,-13.261,-13.256,-13.242,-13.228,-13.212,-13.21,-13.187,-13.177,-13.163,-13.148,-13.135,-13.123,-13.118,-13.103,-13.091,-13.09,-13.085,-13.092,-13.09,-13.098,-13.108,-13.132,-13.168,-13.205,-13.24,-13.289,-13.331,-13.372,-13.411,-13.44,-13.47,-13.488,-13.522,-13.55,-13.562,-13.586,-13.608,-13.618,-13.621,-13.635,-13.636,-13.645,-13.641,-13.652,-13.65,-13.654,-13.649,-13.656,-13.656,-13.652,-13.649,-13.654,-13.65,-13.652,-13.65,-13.652,-13.649,-13.659,-13.654,-13.656,-13.656,-13.656,-13.657,-13.658,-13.662,-13.662,-13.655,-13.656,-13.659,-13.663,-13.659,-13.661,-13.661,-13.665,-13.657,-13.662,-13.652,-13.659,-13.656,-13.65,-13.654,-13.655,-13.647,-13.644,-13.646,-13.638,-13.641,-13.64,-13.641,-13.639,-13.642,-13.644,-13.637,-13.641,-13.641,-13.644,-13.639,-13.643,-13.645,-13.642,-13.644,-13.643,-13.637,-13.645,-13.641,-13.636,-13.634,-13.63,-13.634,-13.632,-13.634,-13.627,-13.626,-13.623,-13.622,-13.613,-13.614,-13.607,-13.604,-13.607,-13.597,-13.594,-13.589,-13.589,-13.586,-13.587,-13.592,-13.58,-13.57,-13.572,-13.58,-13.581,-13.572,-13.568,-13.573,-13.575,-13.564,-13.556,-13.555,-13.551,-13.541,-13.539,-13.544,-13.55,-13.54,-13.553,-13.535,-13.532,-13.538,-13.539,-13.539,-13.537,-13.53,-13.528,-13.53,-13.515,-13.517,-13.513,-13.505,-13.499,-13.49,-13.482,-13.475,-13.461,-13.452,-13.42,-13.405,-13.418,-13.424,-13.421,-13.433,-13.44,-13.449,-13.448,-13.455,-13.473,-13.502,-13.5,-13.511,-13.495,-13.499,-13.498,-13.495,-13.497,-13.494,-13.494,-13.485,-13.489,-13.485,-13.488,-13.484,-13.482,-13.489,-13.514,-13.529,-13.489,-13.346,-13.111,-12.896,-12.676,-12.657,-12.929,-13.061,-13.178,-13.397,-13.475,-13.498,-13.558,-13.566,-13.496,-13.453,-13.409,-13.393,-13.373,-13.379,-13.368,-13.37,-13.36,-13.354,-13.355,-13.341,-13.339,-13.325,-13.307,-13.299,-13.293,-13.281,-13.283,-13.271,-13.259,-13.253,-13.239,-13.233,-13.224,-13.21,-13.198,-13.187,-13.175,-13.154,-13.133,-13.12,-13.102,-13.089,-13.064,-13.044,-13.017,-12.99,-12.98,-12.96,-12.94,-12.92,-12.897,-12.881,-12.872,-12.861,-12.848,-12.836,-12.832,-12.839,-12.845,-12.853,-12.872,-12.899,-12.931,-12.959,-12.992,-13.039,-13.053,-13.082,-13.106,-13.139,-13.168,-13.183,-13.198,-13.207,-13.224,-13.231,-13.244,-13.247,-13.255,-13.255,-13.263,-13.268,-13.266,-13.274,-13.284,-13.273,-13.269,-13.275,-13.281,-13.277,-13.27,-13.27,-13.271,-13.27,-13.269,-13.268,-13.267,-13.262,-13.263,-13.261,-13.256,-13.259,-13.247,-13.25,-13.251,-13.247,-13.245,-13.236,-13.231,-13.228,-13.232,-13.229,-13.234,-13.239,-13.237,-13.237,-13.242,-13.234,-13.237,-13.232,-13.237,-13.236,-13.244,-13.235,-13.235,-13.231,-13.248,-13.247,-13.244,-13.247,-13.25,-13.249,-13.253,-13.254,-13.251,-13.258,-13.254,-13.257,-13.259,-13.261,-13.261,-13.265,-13.272,-13.263,-13.263,-13.269,-13.268,-13.271,-13.265,-13.27,-13.267,-13.27,-13.277,-13.276,-13.267,-13.267,-13.275,-13.276,-13.278,-13.275,-13.28,-13.272,-13.267,-13.261,-13.255,-13.249,-13.235,-13.236,-13.237,-13.222,-13.219,-13.194,-13.177,-13.191,-13.199,-13.203,-13.212,-13.227,-13.233,-13.24,-13.252,-13.285,-13.298,-13.299,-13.305,-13.304,-13.309,-13.308,-13.309,-13.312,-13.317,-13.314,-13.309,-13.32,-13.314,-13.32,-13.321,-13.325,-13.349,-13.376,-13.375,-13.262,-13.034,-12.919,-12.702,-12.512,-12.582,-12.791,-12.966,-13.108,-13.301,-13.311,-13.352,-13.453,-13.428,-13.366,-13.338,-13.306,-13.297,-13.293,-13.295,-13.29,-13.287,-13.289,-13.285,-13.285,-13.283,-13.275,-13.27,-13.277,-13.278,-13.276,-13.27,-13.27,-13.265,-13.261,-13.267,-13.255,-13.247,-13.248,-13.243,-13.224,-13.219,-13.217,-13.206,-13.192,-13.179,-13.167,-13.155,-13.131,-13.11,-13.094,-13.079,-13.063,-13.052,-13.03,-13.012,-12.997,-12.99,-12.989,-12.982,-12.976,-12.974,-12.979,-12.989,-13.009,-13.028,-13.056,-13.096,-13.134,-13.173,-13.211,-13.245,-13.279,-13.315,-13.347,-13.372,-13.394,-13.412,-13.432,-13.432,-13.439,-13.454,-13.467,-13.471,-13.474,-13.48,-13.491,-13.492,-13.49,-13.494,-13.504,-13.498,-13.509,-13.517,-13.507,-13.508,-13.508,-13.512,-13.517,-13.512,-13.521,-13.525,-13.526,-13.523,-13.526,-13.518,-13.529,-13.532,-13.532,-13.528,-13.531,-13.525,-13.53,-13.528,-13.528,-13.537,-13.533,-13.533,-13.532,-13.532,-13.539,-13.546,-13.54,-13.549,-13.556,-13.558,-13.56,-13.566,-13.57,-13.571,-13.575,-13.582,-13.585,-13.585,-13.593,-13.59,-13.592,-13.593,-13.594,-13.6,-13.604,-13.597,-13.597,-13.6,-13.609,-13.613,-13.607,-13.614,-13.618,-13.623,-13.618,-13.62,-13.624,-13.627,-13.637,-13.632,-13.641,-13.646,-13.646,-13.654,-13.644,-13.649,-13.653,-13.662,-13.664,-13.667,-13.667,-13.666,-13.661,-13.675,-13.68,-13.681,-13.679,-13.681,-13.687,-13.69,-13.692,-13.701,-13.701,-13.699,-13.694,-13.695,-13.69,-13.683,-13.668,-13.68,-13.691,-13.675,-13.674,-13.648,-13.635,-13.647,-13.661,-13.672,-13.678,-13.695,-13.699,-13.705,-13.709,-13.727,-13.76,-13.772,-13.782,-13.784,-13.779,-13.791,-13.801,-13.799,-13.804,-13.797,-13.811,-13.807,-13.812,-13.813,-13.82,-13.837,-13.86,-13.87,-13.86,-13.758,-13.557,-13.36,-13.125,-12.99,-13.208,-13.343,-13.446,-13.681,-13.889,-13.939,-13.985,-13.961,-13.869,-13.841,-13.805,-13.813,-13.799,-13.81,-13.797,-13.81,-13.8,-13.799,-13.791,-13.801,-13.79,-13.793,-13.781,-13.783,-13.771,-13.775,-13.764,-13.765,-13.754,-13.757,-13.748,-13.741,-13.734,-13.731,-13.718,-13.713,-13.707,-13.696,-13.682,-13.667,-13.653,-13.644,-13.629,-13.612,-13.594,-13.577,-13.561,-13.541,-13.52,-13.504,-13.489,-13.467,-13.46,-13.455,-13.448,-13.45,-13.451,-13.442,-13.451,-13.47,-13.49,-13.521,-13.56,-13.599,-13.641,-13.675,-13.707,-13.742,-13.774,-13.794,-13.822,-13.841,-13.856,-13.861,-13.883,-13.888,-13.905,-13.905,-13.917,-13.911,-13.924,-13.933,-13.932,-13.933,-13.937,-13.94,-13.94,-13.941,-13.945,-13.941,-13.939,-13.939,-13.945,-13.952,-13.95,-13.944,-13.946,-13.935,-13.938,-13.941,-13.942,-13.947,-13.946,-13.933,-13.935,-13.941,-13.925,-13.923,-13.922,-13.923,-13.925,-13.92,-13.924,-13.928,-13.925,-13.926,-13.932,-13.932,-13.927,-13.929,-13.935,-13.937,-13.942,-13.937,-13.942,-13.941,-13.947,-13.949,-13.95,-13.947,-13.942,-13.938,-13.944,-13.948,-13.947,-13.944,-13.944,-13.946,-13.951,-13.958,-13.948,-13.949,-13.955,-13.956,-13.955,-13.951,-13.956,-13.958,-13.959,-13.958,-13.962,-13.964,-13.961,-13.959,-13.963,-13.963,-13.961,-13.962,-13.961,-13.958,-13.964,-13.96,-13.967,-13.963,-13.961,-13.966,-13.962,-13.96,-13.965,-13.965,-13.962,-13.966,-13.961,-13.961,-13.963,-13.968,-13.965,-13.964,-13.962,-13.966,-13.967,-13.972,-13.964,-13.973,-13.969,-13.979,-13.977,-13.971,-13.969,-13.971,-13.968,-13.975,-13.953,-13.945,-13.93,-13.941,-13.943,-13.927,-13.909,-13.883,-13.879,-13.902,-13.905,-13.908,-13.927,-13.94,-13.94,-13.945,-13.958,-13.974,-13.997,-14.007,-14.004,-14.012,-14.013,-14.018,-14.018,-14.014,-14.012,-14.012,-14.015,-14.017,-14.017,-14.018,-14.022,-14.034,-14.063,-14.066,-14.049,-13.935,-13.731,-13.533,-13.309,-13.193,-13.432,-13.55,-13.654,-13.894,-14.077,-14.124,-14.153,-14.118,-14.039,-14.005,-13.972,-13.971,-13.961,-13.967,-13.96,-13.967,-13.954,-13.961,-13.952,-13.952,-13.951,-13.944,-13.934,-13.928,-13.919,-13.921,-13.914,-13.914,-13.897,-13.895,-13.884,-13.88,-13.87,-13.861,-13.852,-13.848,-13.825,-13.824,-13.8,-13.788,-13.772,-13.757,-13.736,-13.715,-13.7,-13.675,-13.659,-13.641,-13.621,-13.605,-13.587,-13.58,-13.565,-13.553,-13.554,-13.538,-13.545,-13.546,-13.549,-13.564,-13.586,-13.611,-13.642,-13.679,-13.717,-13.748,-13.786,-13.815,-13.853,-13.876,-13.898,-13.921,-13.944,-13.949,-13.958,-13.967,-13.978,-13.981,-13.983,-13.996,-13.99,-13.996,-14,-13.998,-14,-14.002,-14,-13.997,-13.996,-13.995,-13.998,-13.989,-13.995,-13.986,-13.984,-13.982,-13.982,-13.987,-13.987,-13.982,-13.977,-13.978,-13.975,-13.968,-13.97,-13.961,-13.971,-13.966,-13.967,-13.965,-13.958,-13.953,-13.953,-13.954,-13.955,-13.948,-13.954,-13.953,-13.955,-13.957,-13.958,-13.955,-13.958,-13.953,-13.961,-13.969,-13.967,-13.96,-13.963,-13.963,-13.963,-13.965,-13.969,-13.96,-13.967,-13.966,-13.97,-13.968,-13.972,-13.974,-13.968,-13.974,-13.971,-13.966,-13.973,-13.974,-13.967,-13.97,-13.965,-13.967,-13.969,-13.967,-13.968,-13.963,-13.963,-13.961,-13.959,-13.959,-13.958,-13.948,-13.953,-13.951,-13.951,-13.945,-13.946,-13.947,-13.941,-13.95,-13.942,-13.94,-13.937,-13.932,-13.938,-13.933,-13.925,-13.932,-13.932,-13.926,-13.921,-13.913,-13.918,-13.924,-13.916,-13.916,-13.917,-13.916,-13.906,-13.907,-13.903,-13.896,-13.897,-13.896,-13.893,-13.888,-13.892,-13.893,-13.891,-13.892,-13.884,-13.883,-13.883,-13.885,-13.882,-13.886,-13.88,-13.872,-13.87,-13.856,-13.838,-13.838,-13.84,-13.83,-13.811,-13.791,-13.761,-13.775,-13.785,-13.79,-13.798,-13.801,-13.804,-13.814,-13.817,-13.843,-13.856,-13.863,-13.869,-13.871,-13.874,-13.875,-13.877,-13.879,-13.872,-13.869,-13.866,-13.862,-13.864,-13.863,-13.866,-13.869,-13.89,-13.908,-13.899,-13.801,-13.575,-13.37,-13.139,-13.015,-13.246,-13.341,-13.43,-13.563,-13.799,-13.881,-13.901,-13.966,-13.895,-13.859,-13.786,-13.788,-13.773,-13.769,-13.757,-13.758,-13.736,-13.749,-13.736,-13.747,-13.73,-13.732,-13.708,-13.712,-13.701,-13.692,-13.681,-13.685,-13.673,-13.672,-13.654,-13.643,-13.641,-13.634,-13.615,-13.603,-13.591,-13.579,-13.556,-13.546,-13.536,-13.518,-13.498,-13.482,-13.457,-13.425,-13.406,-13.393,-13.371,-13.35,-13.336,-13.308,-13.297,-13.27,-13.259,-13.256,-13.252,-13.258,-13.258,-13.273,-13.276,-13.287,-13.315,-13.341,-13.382,-13.416,-13.442,-13.477,-13.502,-13.527,-13.555,-13.578,-13.596,-13.607,-13.628,-13.634,-13.639,-13.639,-13.653,-13.651,-13.647,-13.651,-13.66,-13.66,-13.662,-13.644,-13.654,-13.65,-13.645,-13.638,-13.641,-13.617,-13.619,-13.621,-13.617,-13.614,-13.612,-13.613,-13.606,-13.603,-13.601,-13.595,-13.6,-13.584,-13.584,-13.584,-13.58,-13.579,-13.576,-13.562,-13.567,-13.559,-13.56,-13.556,-13.558,-13.545,-13.541,-13.542,-13.552,-13.548,-13.546,-13.547,-13.539,-13.53,-13.53,-13.533,-13.543,-13.535,-13.529,-13.529,-13.531,-13.532,-13.529,-13.53,-13.529,-13.52,-13.518,-13.516,-13.513,-13.514,-13.513,-13.507,-13.519,-13.508,-13.508,-13.506,-13.5,-13.503,-13.512,-13.501,-13.502,-13.506,-13.505,-13.5,-13.495,-13.495,-13.497,-13.499,-13.496,-13.501,-13.492,-13.493,-13.494,-13.492,-13.486,-13.494,-13.495,-13.495,-13.487,-13.481,-13.486,-13.492,-13.481,-13.484,-13.476,-13.475,-13.462,-13.456,-13.445,-13.448,-13.444,-13.428,-13.412,-13.393,-13.387,-13.404,-13.411,-13.414,-13.424,-13.439,-13.437,-13.45,-13.466,-13.502,-13.505,-13.511,-13.515,-13.518,-13.511,-13.515,-13.516,-13.513,-13.515,-13.515,-13.514,-13.518,-13.522,-13.53,-13.525,-13.533,-13.565,-13.592,-13.55,-13.387,-13.161,-12.93,-12.737,-12.695,-12.887,-13.034,-13.203,-13.396,-13.512,-13.518,-13.594,-13.645,-13.587,-13.555,-13.508,-13.5,-13.49,-13.493,-13.49,-13.489,-13.48,-13.486,-13.482,-13.475,-13.474,-13.469,-13.463,-13.463,-13.466,-13.452,-13.446,-13.442,-13.443,-13.443,-13.431,-13.425,-13.414,-13.416,-13.404,-13.394,-13.377,-13.371,-13.36,-13.356,-13.333,-13.323,-13.299,-13.277,-13.267,-13.251,-13.236,-13.212,-13.194,-13.18,-13.158,-13.154,-13.135,-13.128,-13.122,-13.118,-13.117,-13.118,-13.124,-13.136,-13.16,-13.193,-13.224,-13.26,-13.297,-13.331,-13.369,-13.399,-13.431,-13.448,-13.474,-13.508,-13.533,-13.541,-13.554,-13.559,-13.571,-13.581,-13.583,-13.591,-13.6,-13.602,-13.619,-13.616,-13.615,-13.624,-13.629,-13.634,-13.632,-13.632,-13.637,-13.641,-13.638,-13.647,-13.649,-13.655,-13.65,-13.654,-13.657,-13.657,-13.662,-13.657,-13.659,-13.655,-13.663,-13.659,-13.668,-13.659,-13.664,-13.659,-13.666,-13.673,-13.673,-13.664,-13.675,-13.68,-13.68,-13.685,-13.684,-13.695,-13.686,-13.695,-13.703,-13.71,-13.705,-13.706,-13.709,-13.71,-13.715,-13.721,-13.72,-13.726,-13.731,-13.729,-13.734,-13.74,-13.743,-13.736,-13.746,-13.746,-13.748,-13.747,-13.755,-13.757,-13.752,-13.761,-13.771,-13.764,-13.764,-13.771,-13.773,-13.778,-13.776,-13.779,-13.779,-13.779,-13.778,-13.789,-13.789,-13.783,-13.785,-13.791,-13.786,-13.791,-13.792,-13.794,-13.798,-13.8,-13.802,-13.804,-13.811,-13.802,-13.814,-13.812,-13.805,-13.801,-13.812,-13.814,-13.807,-13.792,-13.786,-13.781,-13.775,-13.772,-13.783,-13.772,-13.771,-13.753,-13.725,-13.716,-13.731,-13.744,-13.752,-13.755,-13.769,-13.771,-13.776,-13.785,-13.8,-13.838,-13.849,-13.852,-13.853,-13.856,-13.854,-13.854,-13.866,-13.859,-13.855,-13.861,-13.86,-13.866,-13.862,-13.875,-13.874,-13.906,-13.927,-13.904,-13.78,-13.568,-13.357,-13.137,-13.057,-13.292,-13.39,-13.484,-13.773,-13.932,-13.973,-14.004,-13.966,-13.895,-13.858,-13.833,-13.835,-13.827,-13.837,-13.833,-13.829,-13.824,-13.813,-13.815,-13.812,-13.812,-13.805,-13.798,-13.794,-13.788,-13.792,-13.777,-13.771,-13.768,-13.764,-13.754,-13.754,-13.747,-13.745,-13.728,-13.709,-13.706,-13.698,-13.681,-13.669,-13.648,-13.631,-13.62,-13.6,-13.584,-13.563,-13.552,-13.527,-13.505,-13.494,-13.49,-13.474,-13.457,-13.452,-13.444,-13.437,-13.438,-13.444,-13.457,-13.464,-13.488,-13.516,-13.544,-13.587,-13.623,-13.66,-13.694,-13.732,-13.758,-13.791,-13.804,-13.823,-13.841,-13.859,-13.867,-13.874,-13.887,-13.896,-13.904,-13.905,-13.913,-13.913,-13.917,-13.918,-13.926,-13.927,-13.925,-13.926,-13.934,-13.929,-13.932,-13.934,-13.928,-13.925,-13.924,-13.919,-13.928,-13.924,-13.927,-13.93,-13.926,-13.937,-13.93,-13.917,-13.916,-13.917,-13.916,-13.916,-13.92,-13.916,-13.916,-13.908,-13.908,-13.905,-13.908,-13.912,-13.914,-13.916,-13.907,-13.913,-13.921,-13.92,-13.92,-13.919,-13.925,-13.929,-13.927,-13.929,-13.935,-13.937,-13.938,-13.944,-13.951,-13.946,-13.947,-13.951,-13.959,-13.953,-13.952,-13.959,-13.961,-13.959,-13.964,-13.964,-13.965,-13.964,-13.966,-13.971,-13.972,-13.978,-13.972,-13.976,-13.977,-13.972,-13.969,-13.971,-13.973,-13.971,-13.972,-13.982,-13.973,-13.975,-13.978,-13.979,-13.984,-13.977,-13.976,-13.981,-13.985,-13.983,-13.982,-13.984,-13.988,-13.994,-13.992,-13.988,-13.985,-13.985,-13.995,-13.998,-13.991,-13.991,-13.992,-13.994,-13.995,-13.995,-13.993,-13.997,-13.995,-14.005,-14.004,-13.991,-13.984,-13.983,-13.969,-13.959,-13.966,-13.966,-13.945,-13.94,-13.906,-13.903,-13.931,-13.941,-13.941,-13.944,-13.965,-13.965,-13.964,-13.981,-14.006,-14.032,-14.035,-14.047,-14.046,-14.047,-14.053,-14.053,-14.053,-14.056,-14.057,-14.053,-14.053,-14.061,-14.057,-14.066,-14.073,-14.091,-14.113,-14.085,-13.96,-13.737,-13.542,-13.33,-13.268,-13.523,-13.618,-13.699,-13.992,-14.143,-14.182,-14.207,-14.154,-14.099,-14.054,-14.028,-14.035,-14.027,-14.037,-14.033,-14.036,-14.031,-14.04,-14.031,-14.035,-14.025,-14.022,-14.008,-14,-13.998,-14.002,-13.992,-13.987,-13.982,-13.984,-13.978,-13.967,-13.961,-13.948,-13.939,-13.928,-13.925,-13.918,-13.898,-13.89,-13.872,-13.853,-13.834,-13.811,-13.79,-13.78,-13.762,-13.746,-13.725,-13.708,-13.704,-13.688,-13.676,-13.663,-13.658,-13.652,-13.644,-13.657,-13.667,-13.674,-13.695,-13.719,-13.757,-13.795,-13.838,-13.866,-13.909,-13.941,-13.968,-13.989,-14.014,-14.032,-14.053,-14.066,-14.085,-14.093,-14.101,-14.111,-14.117,-14.12,-14.131,-14.131,-14.137,-14.138,-14.137,-14.144,-14.148,-14.142,-14.148,-14.146,-14.143,-14.145,-14.143,-14.147,-14.149,-14.14,-14.142,-14.141,-14.147,-14.151,-14.14,-14.138,-14.135,-14.133,-14.133,-14.132,-14.128,-14.134,-14.133,-14.132,-14.13,-14.133,-14.131,-14.127,-14.126,-14.124,-14.128,-14.128,-14.131,-14.13,-14.13,-14.127,-14.139,-14.136,-14.147,-14.142,-14.144,-14.146,-14.142,-14.15,-14.143,-14.155,-14.146,-14.149,-14.148,-14.152,-14.15,-14.158,-14.152,-14.158,-14.155,-14.161,-14.163,-14.158,-14.155,-14.157,-14.155,-14.155,-14.16,-14.159,-14.166,-14.163,-14.159,-14.155,-14.153,-14.148,-14.15,-14.156,-14.154,-14.152,-14.15,-14.159,-14.151,-14.146,-14.149,-14.14,-14.146,-14.152,-14.15,-14.141,-14.137,-14.137,-14.137,-14.131,-14.131,-14.133,-14.127,-14.128,-14.122,-14.122,-14.116,-14.121,-14.121,-14.122,-14.12,-14.118,-14.108,-14.109,-14.112,-14.111,-14.108,-14.103,-14.11,-14.111,-14.113,-14.1,-14.103,-14.096,-14.083,-14.07,-14.064,-14.064,-14.055,-14.045,-14.021,-13.997,-13.992,-14.006,-14.018,-14.022,-14.029,-14.037,-14.034,-14.044,-14.055,-14.083,-14.103,-14.099,-14.105,-14.106,-14.104,-14.103,-14.101,-14.098,-14.105,-14.101,-14.098,-14.107,-14.098,-14.097,-14.098,-14.113,-14.138,-14.149,-14.105,-13.948,-13.72,-13.508,-13.298,-13.326,-13.567,-13.671,-13.779,-14.021,-14.103,-14.13,-14.174,-14.158,-14.098,-14.053,-14.022,-14.006,-14.001,-13.985,-13.983,-13.978,-13.977,-13.981,-13.978,-13.968,-13.958,-13.947,-13.945,-13.942,-13.934,-13.925,-13.922,-13.916,-13.909,-13.904,-13.903,-13.887,-13.876,-13.857,-13.848,-13.84,-13.83,-13.817,-13.812,-13.787,-13.769,-13.755,-13.742,-13.72,-13.699,-13.68,-13.667,-13.647,-13.625,-13.598,-13.576,-13.565,-13.556,-13.544,-13.532,-13.524,-13.525,-13.522,-13.534,-13.536,-13.559,-13.589,-13.622,-13.651,-13.69,-13.702,-13.736,-13.766,-13.794,-13.82,-13.841,-13.865,-13.884,-13.888,-13.9,-13.904,-13.912,-13.921,-13.922,-13.927,-13.923,-13.932,-13.932,-13.927,-13.917,-13.911,-13.921,-13.921,-13.911,-13.908,-13.904,-13.903,-13.898,-13.896,-13.898,-13.894,-13.887,-13.884,-13.879,-13.88,-13.871,-13.867,-13.869,-13.864,-13.858,-13.861,-13.857,-13.848,-13.833,-13.825,-13.822,-13.828,-13.826,-13.822,-13.811,-13.812,-13.811,-13.816,-13.808,-13.815,-13.809,-13.811,-13.805,-13.803,-13.802,-13.808,-13.806,-13.803,-13.809,-13.807,-13.803,-13.8,-13.789,-13.787,-13.789,-13.785,-13.784,-13.796,-13.801,-13.804,-13.796,-13.804,-13.8,-13.799,-13.802,-13.802,-13.801,-13.801,-13.81,-13.811,-13.807,-13.821,-13.809,-13.81,-13.81,-13.806,-13.813,-13.816,-13.823,-13.817,-13.818,-13.822,-13.815,-13.816,-13.824,-13.82,-13.816,-13.816,-13.808,-13.813,-13.796,-13.784,-13.784,-13.783,-13.784,-13.761,-13.762,-13.74,-13.723,-13.744,-13.75,-13.741,-13.744,-13.761,-13.77,-13.788,-13.8,-13.818,-13.844,-13.851,-13.857,-13.854,-13.857,-13.853,-13.862,-13.865,-13.861,-13.868,-13.867,-13.871,-13.873,-13.876,-13.877,-13.882,-13.902,-13.928,-13.944,-13.85,-13.657,-13.438,-13.192,-13.067,-13.21,-13.384,-13.54,-13.706,-13.85,-13.861,-13.924,-13.992,-13.941,-13.905,-13.877,-13.851,-13.837,-13.836,-13.831,-13.834,-13.827,-13.829,-13.832,-13.827,-13.816,-13.811,-13.803,-13.802,-13.799,-13.798,-13.793,-13.789,-13.783,-13.779,-13.776,-13.773,-13.772,-13.761,-13.755,-13.747,-13.732,-13.725,-13.708,-13.696,-13.68,-13.672,-13.654,-13.631,-13.618,-13.603,-13.589,-13.566,-13.54,-13.53,-13.517,-13.506,-13.499,-13.483,-13.471,-13.469,-13.458,-13.468,-13.472,-13.484,-13.5,-13.536,-13.579,-13.614,-13.649,-13.689,-13.72,-13.758,-13.778,-13.792,-13.835,-13.846,-13.874,-13.883,-13.894,-13.905,-13.92,-13.925,-13.93,-13.933,-13.935,-13.944,-13.95,-13.954,-13.952,-13.961,-13.962,-13.957,-13.959,-13.955,-13.959,-13.962,-13.962,-13.958,-13.952,-13.964,-13.965,-13.959,-13.962,-13.961,-13.955,-13.955,-13.956,-13.951,-13.953,-13.954,-13.962,-13.959,-13.957,-13.951,-13.953,-13.954,-13.96,-13.952,-13.948,-13.956,-13.966,-13.961,-13.964,-13.962,-13.962,-13.962,-13.966,-13.967,-13.975,-13.976,-13.986,-13.986,-13.988,-13.99,-13.986,-13.999,-13.997,-14.003,-14.003,-14.002,-14.005,-14.012,-14.017,-14.013,-14.015,-14.014,-14.019,-14.02,-14.02,-14.028,-14.031,-14.033,-14.033,-14.037,-14.045,-14.036,-14.038,-14.045,-14.047,-14.048,-14.041,-14.048,-14.052,-14.054,-14.051,-14.053,-14.049,-14.051,-14.054,-14.062,-14.064,-14.064,-14.065,-14.059,-14.058,-14.067,-14.061,-14.07,-14.07,-14.073,-14.073,-14.071,-14.073,-14.071,-14.064,-14.057,-14.045,-14.033,-14.034,-14.039,-14.037,-14.027,-14.004,-13.99,-14.007,-14.016,-14.011,-14.028,-14.035,-14.057,-14.058,-14.062,-14.089,-14.114,-14.129,-14.132,-14.135,-14.133,-14.139,-14.137,-14.131,-14.134,-14.148,-14.142,-14.145,-14.147,-14.142,-14.143,-14.146,-14.182,-14.207,-14.195,-14.092,-13.886,-13.683,-13.451,-13.315,-13.548,-13.655,-13.696,-13.823,-14.109,-14.217,-14.248,-14.285,-14.197,-14.173,-14.114,-14.111,-14.098,-14.112,-14.097,-14.103,-14.092,-14.092,-14.087,-14.096,-14.08,-14.084,-14.071,-14.075,-14.063,-14.062,-14.056,-14.053,-14.049,-14.041,-14.031,-14.028,-14.012,-14.013,-13.995,-13.99,-13.972,-13.973,-13.958,-13.935,-13.922,-13.912,-13.895,-13.881,-13.86,-13.844,-13.825,-13.801,-13.791,-13.765,-13.75,-13.734,-13.727,-13.71,-13.699,-13.689,-13.695,-13.69,-13.7,-13.712,-13.741,-13.753,-13.771,-13.812,-13.84,-13.877,-13.914,-13.947,-13.984,-14.014,-14.038,-14.054,-14.079,-14.091,-14.099,-14.111,-14.122,-14.127,-14.136,-14.135,-14.136,-14.142,-14.147,-14.14,-14.143,-14.152,-14.15,-14.148,-14.152,-14.15,-14.151,-14.149,-14.158,-14.148,-14.147,-14.154,-14.152,-14.146,-14.147,-14.145,-14.142,-14.136,-14.142,-14.141,-14.14,-14.137,-14.126,-14.136,-14.133,-14.125,-14.126,-14.126,-14.114,-14.12,-14.122,-14.118,-14.124,-14.121,-14.119,-14.121,-14.125,-14.121,-14.124,-14.121,-14.123,-14.128,-14.13,-14.126,-14.129,-14.129,-14.131,-14.133,-14.134,-14.133,-14.142,-14.136,-14.135,-14.141,-14.141,-14.139,-14.142,-14.148,-14.147,-14.145,-14.146,-14.149,-14.149,-14.15,-14.147,-14.147,-14.151,-14.149,-14.149,-14.153,-14.145,-14.148,-14.149,-14.147,-14.154,-14.149,-14.152,-14.148,-14.149,-14.145,-14.155,-14.149,-14.153,-14.15,-14.149,-14.15,-14.154,-14.152,-14.15,-14.156,-14.145,-14.153,-14.148,-14.152,-14.151,-14.152,-14.155,-14.16,-14.154,-14.155,-14.159,-14.157,-14.15,-14.152,-14.153,-14.162,-14.154,-14.162,-14.164,-14.159,-14.154,-14.151,-14.145,-14.136,-14.133,-14.124,-14.128,-14.119,-14.103,-14.082,-14.062,-14.069,-14.078,-14.078,-14.087,-14.097,-14.11,-14.111,-14.118,-14.14,-14.171,-14.181,-14.187,-14.189,-14.183,-14.182,-14.19,-14.191,-14.18,-14.188,-14.185,-14.193,-14.191,-14.192,-14.193,-14.2,-14.206,-14.24,-14.249,-14.174,-14.004,-13.793,-13.58,-13.467,-13.374,-13.621,-13.729,-13.815,-14.07,-14.236,-14.28,-14.31,-14.284,-14.208,-14.171,-14.137,-14.142,-14.137,-14.146,-14.127,-14.142,-14.124,-14.138,-14.12,-14.124,-14.113,-14.111,-14.103,-14.107,-14.09,-14.099,-14.089,-14.086,-14.075,-14.072,-14.062,-14.055,-14.052,-14.049,-14.028,-14.023,-13.999,-13.993,-13.977,-13.973,-13.947,-13.942,-13.924,-13.902,-13.876,-13.86,-13.84,-13.825,-13.802,-13.787,-13.77,-13.758,-13.743,-13.74,-13.722,-13.724,-13.726,-13.72,-13.739,-13.744,-13.763,-13.79,-13.823,-13.854,-13.892,-13.932,-13.972,-13.998,-14.021,-14.049,-14.074,-14.095,-14.12,-14.132,-14.149,-14.153,-14.168,-14.171,-14.176,-14.184,-14.185,-14.19,-14.192,-14.192,-14.197,-14.197,-14.204,-14.196,-14.197,-14.196,-14.197,-14.201,-14.202,-14.2,-14.199,-14.194,-14.203,-14.202,-14.196,-14.185,-14.191,-14.188,-14.195,-14.188,-14.184,-14.185,-14.191,-14.182,-14.18,-14.179,-14.179,-14.176,-14.179,-14.171,-14.17,-14.175,-14.178,-14.177,-14.185,-14.18,-14.181,-14.188,-14.191,-14.192,-14.194,-14.196,-14.204,-14.197,-14.209,-14.215,-14.213,-14.215,-14.215,-14.218,-14.222,-14.223,-14.227,-14.226,-14.23,-14.232,-14.235,-14.228,-14.241,-14.237,-14.24,-14.244,-14.232,-14.238,-14.24,-14.243,-14.247,-14.251,-14.249,-14.24,-14.245,-14.247,-14.241,-14.255,-14.244,-14.252,-14.249,-14.248,-14.258,-14.253,-14.254,-14.255,-14.255,-14.257,-14.26,-14.257,-14.257,-14.257,-14.262,-14.262,-14.258,-14.265,-14.265,-14.262,-14.268,-14.274,-14.264,-14.268,-14.267,-14.271,-14.273,-14.264,-14.269,-14.278,-14.28,-14.276,-14.275,-14.276,-14.271,-14.282,-14.276,-14.277,-14.28,-14.278,-14.28,-14.279,-14.274,-14.286,-14.284,-14.289,-14.282,-14.277,-14.274,-14.271,-14.256,-14.249,-14.247,-14.244,-14.232,-14.222,-14.204,-14.176,-14.196,-14.204,-14.207,-14.224,-14.227,-14.234,-14.237,-14.249,-14.272,-14.291,-14.293,-14.298,-14.305,-14.304,-14.303,-14.301,-14.3,-14.305,-14.296,-14.296,-14.288,-14.285,-14.29,-14.281,-14.278,-14.289,-14.306,-14.306,-14.219,-14.025,-13.799,-13.582,-13.416,-13.579,-13.745,-13.827,-13.986,-14.141,-14.268,-14.305,-14.344,-14.275,-14.223,-14.186,-14.16,-14.162,-14.156,-14.159,-14.161,-14.165,-14.155,-14.156,-14.153,-14.156,-14.147,-14.145,-14.143,-14.134,-14.133,-14.134,-14.126,-14.127,-14.127,-14.119,-14.106,-14.102,-14.095,-14.093,-14.081,-14.075,-14.069,-14.056,-14.034,-14.016,-14.003,-13.982,-13.973,-13.961,-13.945,-13.923,-13.904,-13.881,-13.869,-13.851,-13.833,-13.815,-13.805,-13.79,-13.794,-13.791,-13.784,-13.787,-13.791,-13.805,-13.832,-13.858,-13.876,-13.905,-13.948,-13.976,-14.004,-14.037,-14.072,-14.094,-14.114,-14.134,-14.154,-14.157,-14.16,-14.175,-14.185,-14.177,-14.191,-14.188,-14.188,-14.187,-14.184,-14.183,-14.178,-14.185,-14.195,-14.188,-14.178,-14.176,-14.171,-14.173,-14.174,-14.173,-14.175,-14.176,-14.175,-14.172,-14.175,-14.173,-14.17,-14.172,-14.171,-14.168,-14.175,-14.174,-14.179,-14.173,-14.168,-14.175,-14.17,-14.17,-14.173,-14.168,-14.178,-14.167,-14.168,-14.173,-14.152,-14.154,-14.151,-14.159,-14.161,-14.162,-14.158,-14.153,-14.155,-14.153,-14.159,-14.157,-14.161,-14.16,-14.16,-14.167,-14.168,-14.179,-14.18,-14.173,-14.18,-14.178,-14.197,-14.197,-14.195,-14.198,-14.2,-14.203,-14.211,-14.21,-14.205,-14.209,-14.206,-14.21,-14.211,-14.21,-14.207,-14.219,-14.212,-14.225,-14.219,-14.222,-14.225,-14.22,-14.215,-14.22,-14.212,-14.214,-14.217,-14.209,-14.216,-14.217,-14.211,-14.196,-14.186,-14.181,-14.177,-14.169,-14.169,-14.171,-14.171,-14.17,-14.168,-14.173,-14.174,-14.173,-14.181,-14.181,-14.175,-14.188,-14.181,-14.176,-14.17,-14.158,-14.155,-14.155,-14.155,-14.14,-14.13,-14.107,-14.095,-14.105,-14.133,-14.14,-14.139,-14.149,-14.157,-14.162,-14.185,-14.217,-14.229,-14.25,-14.251,-14.259,-14.256,-14.259,-14.252,-14.257,-14.253,-14.258,-14.251,-14.253,-14.248,-14.248,-14.246,-14.247,-14.262,-14.296,-14.293,-14.182,-13.972,-13.747,-13.485,-13.364,-13.565,-13.711,-13.868,-14.044,-14.137,-14.113,-14.137,-14.243,-14.254,-14.205,-14.153,-14.12,-14.111,-14.112,-14.093,-14.095,-14.092,-14.089,-14.089,-14.076,-14.062,-14.055,-14.049,-14.039,-14.04,-14.041,-14.039,-14.039,-14.031,-14.026,-14.031,-14.017,-14.019,-14.02,-14.007,-13.997,-13.988,-13.974,-13.966,-13.961,-13.944,-13.931,-13.925,-13.906,-13.884,-13.879,-13.858,-13.848,-13.831,-13.81,-13.801,-13.784,-13.768,-13.762,-13.759,-13.757,-13.754,-13.758,-13.767,-13.779,-13.806,-13.827,-13.861,-13.9,-13.94,-13.955,-13.983,-14.028,-14.059,-14.096,-14.122,-14.144,-14.163,-14.189,-14.194,-14.207,-14.219,-14.234,-14.238,-14.243,-14.251,-14.255,-14.262,-14.267,-14.27,-14.274,-14.268,-14.273,-14.281,-14.273,-14.275,-14.272,-14.275,-14.28,-14.284,-14.285,-14.283,-14.286,-14.298,-14.286,-14.287,-14.287,-14.285,-14.28,-14.283,-14.28,-14.281,-14.28,-14.283,-14.288,-14.281,-14.28,-14.283,-14.273,-14.274,-14.273,-14.28,-14.273,-14.284,-14.283,-14.287,-14.28,-14.285,-14.281,-14.289,-14.293,-14.287,-14.286,-14.294,-14.299,-14.293,-14.302,-14.3,-14.307,-14.297,-14.308
