-20.344,-20.321,-20.306,-20.315,-20.337,-20.351,-20.373,-20.379,-20.378,-20.38,-20.394,-20.42,-20.442,-20.442,-20.44,-20.443,-20.457,-20.46,-20.446,-20.447,-20.447,-20.458,-20.46,-20.457,-20.443,-20.449,-20.459,-20.457,-20.456,-20.442,-20.45,-20.459,-20.471,-20.461,-20.444,-20.445,-20.473,-20.517,-20.542,-20.461,-20.303,-20.081,-19.953,-19.688,-19.292,-19.107,-19.219,-19.659,-20.091,-20.419,-20.523,-20.499,-20.43,-20.365,-20.34,-20.345,-20.369,-20.37,-20.377,-20.357,-20.367,-20.358,-20.367,-20.365,-20.358,-20.343,-20.351,-20.358,-20.362,-20.341,-20.338,-20.333,-20.338,-20.334,-20.32,-20.316,-20.319,-20.316,-20.314,-20.303,-20.294,-20.289,-20.288,-20.289,-20.285,-20.266,-20.26,-20.262,-20.251,-20.236,-20.21,-20.204,-20.205,-20.191,-20.176,-20.15,-20.137,-20.129,-20.11,-20.085,-20.056,-20.047,-20.039,-20.029,-20.011,-19.982,-19.966,-19.956,-19.948,-19.933,-19.91,-19.902,-19.907,-19.919,-19.921,-19.926,-19.942,-19.975,-20.014,-20.047,-20.076,-20.11,-20.132,-20.181,-20.212,-20.238,-20.259,-20.278,-20.308,-20.317,-20.324,-20.333,-20.346,-20.362,-20.368,-20.365,-20.365,-20.369,-20.382,-20.379,-20.373,-20.369,-20.368,-20.366,-20.365,-20.359,-20.35,-20.352,-20.361,-20.359,-20.349,-20.339,-20.339,-20.349,-20.354,-20.349,-20.338,-20.34,-20.35,-20.353,-20.345,-20.335,-20.34,-20.344,-20.348,-20.349,-20.347,-20.355,-20.354,-20.365,-20.361,-20.351,-20.352,-20.365,-20.379,-20.369,-20.355,-20.364,-20.371,-20.383,-20.376,-20.366,-20.365,-20.377,-20.39,-20.395,-20.385,-20.381,-20.381,-20.391,-20.392,-20.384,-20.378,-20.385,-20.398,-20.4,-20.387,-20.386,-20.393,-20.4,-20.391,-20.389,-20.383,-20.39,-20.396,-20.401,-20.394,-20.383,-20.385,-20.395,-20.403,-20.397,-20.386,-20.391,-20.398,-20.403,-20.402,-20.396,-20.404,-20.408,-20.409,-20.399,-20.395,-20.394,-20.398,-20.409,-20.409,-20.399,-20.4,-20.406,-20.419,-20.42,-20.406,-20.406,-20.404,-20.411,-20.414,-20.406,-20.408,-20.411,-20.415,-20.389,-20.38,-20.372,-20.372,-20.371,-20.37,-20.346,-20.31,-20.292,-20.305,-20.342,-20.354,-20.359,-20.366,-20.385,-20.388,-20.388,-20.404,-20.433,-20.451,-20.458,-20.456,-20.443,-20.442,-20.45,-20.46,-20.466,-20.444,-20.448,-20.459,-20.465,-20.463,-20.452,-20.454,-20.457,-20.458,-20.463,-20.453,-20.451,-20.465,-20.468,-20.474,-20.484,-20.523,-20.533,-20.458,-20.271,-20.024,-19.757,-19.41,-19.192,-19.212,-19.573,-20.017,-20.399,-20.582,-20.562,-20.485,-20.412,-20.382,-20.383,-20.401,-20.39,-20.391,-20.389,-20.41,-20.402,-20.404,-20.385,-20.396,-20.396,-20.393,-20.379,-20.372,-20.368,-20.386,-20.373,-20.374,-20.357,-20.356,-20.355,-20.361,-20.352,-20.343,-20.334,-20.342,-20.339,-20.328,-20.309,-20.308,-20.302,-20.307,-20.293,-20.275,-20.265,-20.264,-20.258,-20.243,-20.22,-20.205,-20.195,-20.189,-20.183,-20.167,-20.149,-20.13,-20.122,-20.099,-20.072,-20.058,-20.043,-20.034,-20.013,-19.993,-19.976,-19.978,-19.983,-19.972,-19.957,-19.956,-19.968,-19.987,-19.993,-20.01,-20.037,-20.072,-20.122,-20.156,-20.191,-20.215,-20.257,-20.294,-20.33,-20.342,-20.355,-20.372,-20.398,-20.411,-20.413,-20.405,-20.407,-20.41,-20.411,-20.414,-20.413,-20.415,-20.417,-20.42,-20.416,-20.401,-20.405,-20.415,-20.418,-20.406,-20.401,-20.398,-20.405,-20.417,-20.415,-20.397,-20.397,-20.399,-20.411,-20.408,-20.396,-20.393,-20.404,-20.413,-20.419,-20.405,-20.399,-20.403,-20.416,-20.418,-20.411,-20.406,-20.41,-20.426,-20.43,-20.412,-20.417,-20.42,-20.426,-20.433,-20.425,-20.413,-20.415,-20.428,-20.433,-20.431,-20.424,-20.43,-20.442,-20.437,-20.435,-20.427,-20.433,-20.442,-20.444,-20.425,-20.425,-20.436,-20.44,-20.449,-20.446,-20.433,-20.434,-20.438,-20.445,-20.441,-20.431,-20.441,-20.449,-20.454,-20.451,-20.44,-20.441,-20.444,-20.445,-20.437,-20.409,-20.41,-20.415,-20.417,-20.409,-20.403,-20.393,-20.365,-20.347,-20.334,-20.343,-20.361,-20.376,-20.395,-20.402,-20.405,-20.418,-20.436,-20.47,-20.48,-20.471,-20.469,-20.473,-20.484,-20.483,-20.479,-20.477,-20.48,-20.492,-20.492,-20.486,-20.477,-20.487,-20.496,-20.495,-20.488,-20.473,-20.48,-20.492,-20.493,-20.489,-20.483,-20.488,-20.538,-20.583,-20.525,-20.365,-20.139,-19.871,-19.566,-19.226,-19.148,-19.409,-19.869,-20.282,-20.568,-20.57,-20.526,-20.476,-20.421,-20.407,-20.392,-20.402,-20.399,-20.425,-20.42,-20.415,-20.406,-20.409,-20.414,-20.411,-20.401,-20.402,-20.395,-20.405,-20.393,-20.38,-20.377,-20.381,-20.387,-20.378,-20.355,-20.351,-20.353,-20.362,-20.359,-20.351,-20.336,-20.33,-20.328,-20.326,-20.312,-20.295,-20.291,-20.294,-20.28,-20.268,-20.251,-20.238,-20.237,-20.226,-20.204,-20.189,-20.171,-20.158,-20.153,-20.128,-20.099,-20.088,-20.071,-20.064,-20.041,-20.007,-19.998,-19.994,-19.997,-19.981,-19.962,-19.961,-19.971,-19.987,-20.001,-20.005,-20.024,-20.059,-20.102,-20.14,-20.166,-20.202,-20.243,-20.278,-20.312,-20.32,-20.345,-20.359,-20.388,-20.403,-20.402,-20.398,-20.407,-20.422,-20.426,-20.421,-20.412,-20.413,-20.418,-20.42,-20.42,-20.407,-20.406,-20.415,-20.421,-20.415,-20.401,-20.398,-20.409,-20.408,-20.402,-20.395,-20.402,-20.41,-20.407,-20.407,-20.393,-20.392,-20.403,-20.407,-20.407,-20.392,-20.4,-20.406,-20.415,-20.414,-20.404,-20.408,-20.416,-20.423,-20.422,-20.413,-20.412,-20.418,-20.426,-20.429,-20.42,-20.413,-20.421,-20.433,-20.43,-20.426,-20.422,-20.427,-20.437,-20.438,-20.431,-20.43,-20.438,-20.446,-20.436,-20.428,-20.43,-20.43,-20.446,-20.445,-20.444,-20.433,-20.43,-20.442,-20.445,-20.444,-20.428,-20.431,-20.436,-20.441,-20.438,-20.429,-20.434,-20.443,-20.442,-20.437,-20.427,-20.434,-20.444,-20.448,-20.438,-20.429,-20.43,-20.436,-20.445,-20.439,-20.427,-20.427,-20.43,-20.42,-20.398,-20.388,-20.378,-20.373,-20.385,-20.369,-20.326,-20.302,-20.312,-20.332,-20.352,-20.368,-20.366,-20.374,-20.388,-20.39,-20.396,-20.42,-20.44,-20.463,-20.459,-20.459,-20.454,-20.46,-20.471,-20.468,-20.459,-20.458,-20.457,-20.465,-20.469,-20.466,-20.457,-20.46,-20.467,-20.473,-20.47,-20.461,-20.463,-20.481,-20.522,-20.558,-20.502,-20.359,-20.151,-19.907,-19.632,-19.246,-19.147,-19.21,-19.583,-20.033,-20.367,-20.554,-20.533,-20.483,-20.406,-20.373,-20.366,-20.389,-20.396,-20.407,-20.384,-20.397,-20.391,-20.407,-20.387,-20.385,-20.379,-20.39,-20.388,-20.391,-20.365,-20.364,-20.358,-20.372,-20.357,-20.347,-20.336,-20.339,-20.341,-20.343,-20.325,-20.315,-20.312,-20.321,-20.314,-20.296,-20.289,-20.28,-20.277,-20.278,-20.262,-20.239,-20.235,-20.225,-20.221,-20.201,-20.177,-20.168,-20.159,-20.147,-20.125,-20.086,-20.078,-20.066,-20.053,-20.03,-19.999,-19.994,-19.987,-19.985,-19.974,-19.945,-19.941,-19.936,-19.947,-19.945,-19.944,-19.958,-19.994,-20.026,-20.058,-20.077,-20.12,-20.158,-20.205,-20.238,-20.259,-20.271,-20.303,-20.333,-20.353,-20.361,-20.373,-20.376,-20.395,-20.398,-20.399,-20.392,-20.402,-20.41,-20.409,-20.399,-20.392,-20.395,-20.41,-20.403,-20.397,-20.385,-20.387,-20.393,-20.398,-20.393,-20.379,-20.379,-20.392,-20.389,-20.388,-20.378,-20.38,-20.381,-20.388,-20.386,-20.38,-20.383,-20.393,-20.395,-20.395,-20.388,-20.384,-20.392,-20.406,-20.401,-20.394,-20.395,-20.4,-20.41,-20.408,-20.398,-20.396,-20.406,-20.415,-20.415,-20.401,-20.4,-20.412,-20.42,-20.418,-20.414,-20.404,-20.405,-20.419,-20.419,-20.417,-20.41,-20.41,-20.42,-20.416,-20.413,-20.41,-20.41,-20.422,-20.42,-20.412,-20.409,-20.409,-20.421,-20.417,-20.416,-20.405,-20.409,-20.418,-20.422,-20.418,-20.409,-20.411,-20.416,-20.422,-20.417,-20.405,-20.406,-20.412,-20.423,-20.418,-20.405,-20.404,-20.414,-20.419,-20.417,-20.41,-20.411,-20.417,-20.424,-20.42,-20.411,-20.409,-20.411,-20.418,-20.419,-20.409,-20.405,-20.405,-20.414,-20.397,-20.369,-20.364,-20.362,-20.363,-20.354,-20.343,-20.317,-20.293,-20.278,-20.287,-20.309,-20.323,-20.339,-20.347,-20.357,-20.352,-20.367,-20.392,-20.423,-20.432,-20.425,-20.418,-20.424,-20.434,-20.436,-20.43,-20.421,-20.421,-20.428,-20.435,-20.431,-20.415,-20.42,-20.424,-20.436,-20.428,-20.415,-20.417,-20.425,-20.445,-20.49,-20.502,-20.43,-20.261,-20.151,-19.921,-19.652,-19.28,-19.117,-19.291,-19.714,-20.13,-20.433,-20.524,-20.476,-20.415,-20.329,-20.328,-20.336,-20.369,-20.362,-20.366,-20.356,-20.363,-20.356,-20.366,-20.346,-20.34,-20.336,-20.357,-20.35,-20.35,-20.321,-20.332,-20.332,-20.335,-20.32,-20.308,-20.302,-20.313,-20.314,-20.314,-20.288,-20.292,-20.295,-20.296,-20.286,-20.269,-20.257,-20.261,-20.259,-20.251,-20.228,-20.217,-20.212,-20.209,-20.195,-20.171,-20.155,-20.148,-20.138,-20.117,-20.087,-20.073,-20.066,-20.061,-20.04,-20.014,-19.989,-19.977,-19.981,-19.964,-19.945,-19.928,-19.922,-19.924,-19.921,-19.914,-19.921,-19.938,-19.977,-20.002,-20.031,-20.059,-20.08,-20.122,-20.169,-20.201,-20.223,-20.259,-20.297,-20.32,-20.336,-20.336,-20.347,-20.369,-20.383,-20.383,-20.382,-20.383,-20.395,-20.389,-20.386,-20.381,-20.385,-20.391,-20.401,-20.383,-20.374,-20.369,-20.379,-20.384,-20.387,-20.379,-20.372,-20.371,-20.381,-20.375,-20.37,-20.365,-20.376,-20.381,-20.379,-20.369,-20.37,-20.369,-20.383,-20.386,-20.376,-20.371,-20.373,-20.391,-20.393,-20.385,-20.381,-20.385,-20.396,-20.395,-20.387,-20.39,-20.393,-20.405,-20.404,-20.398,-20.391,-20.393,-20.4,-20.406,-20.399,-20.394,-20.4,-20.411,-20.42,-20.411,-20.397,-20.397,-20.406,-20.417,-20.412,-20.404,-20.404,-20.413,-20.419,-20.41,-20.403,-20.405,-20.411,-20.423,-20.427,-20.408,-20.41,-20.416,-20.426,-20.42,-20.402,-20.405,-20.413,-20.428,-20.421,-20.409,-20.409,-20.409,-20.417,-20.412,-20.394,-20.392,-20.385,-20.391,-20.392,-20.375,-20.362,-20.355,-20.337,-20.311,-20.302,-20.314,-20.339,-20.362,-20.37,-20.366,-20.363,-20.382,-20.413,-20.439,-20.438,-20.431,-20.433,-20.442,-20.45,-20.449,-20.439,-20.442,-20.449,-20.452,-20.45,-20.437,-20.445,-20.448,-20.456,-20.449,-20.438,-20.444,-20.447,-20.448,-20.445,-20.446,-20.478,-20.534,-20.53,-20.416,-20.196,-19.937,-19.656,-19.304,-19.165,-19.266,-19.685,-20.114,-20.489,-20.572,-20.52,-20.461,-20.396,-20.39,-20.366,-20.384,-20.367,-20.394,-20.388,-20.399,-20.373,-20.38,-20.362,-20.389,-20.37,-20.378,-20.358,-20.372,-20.37,-20.373,-20.351,-20.351,-20.343,-20.362,-20.344,-20.342,-20.312,-20.315,-20.317,-20.327,-20.318,-20.301,-20.298,-20.3,-20.295,-20.285,-20.27,-20.267,-20.261,-20.253,-20.237,-20.213,-20.203,-20.205,-20.194,-20.183,-20.161,-20.138,-20.128,-20.118,-20.09,-20.062,-20.049,-20.037,-20.037,-20.017,-20.003,-19.979,-19.972,-19.969,-19.961,-19.94,-19.943,-19.945,-19.978,-19.979,-20.001,-20.013,-20.048,-20.085,-20.123,-20.153,-20.186,-20.223,-20.268,-20.294,-20.312,-20.325,-20.351,-20.369,-20.375,-20.372,-20.377,-20.379,-20.397,-20.391,-20.39,-20.379,-20.383,-20.39,-20.403,-20.393,-20.379,-20.379,-20.385,-20.391,-20.384,-20.372,-20.377,-20.376,-20.388,-20.382,-20.374,-20.377,-20.386,-20.391,-20.382,-20.369,-20.367,-20.372,-20.39,-20.391,-20.385,-20.381,-20.387,-20.393,-20.396,-20.381,-20.389,-20.396,-20.412,-20.409,-20.394,-20.397,-20.405,-20.413,-20.416,-20.407,-20.398,-20.404,-20.416,-20.42,-20.413,-20.407,-20.409,-20.418,-20.422,-20.418,-20.408,-20.414,-20.422,-20.426,-20.415,-20.405,-20.411,-20.411,-20.421,-20.427,-20.413,-20.414,-20.412,-20.404,-20.388,-20.373,-20.378,-20.372,-20.378,-20.36,-20.315,-20.298,-20.318,-20.349,-20.357,-20.356,-20.359,-20.369,-20.383,-20.4,-20.405,-20.427,-20.447,-20.46,-20.459,-20.457,-20.454,-20.463,-20.467,-20.471,-20.462,-20.46,-20.462,-20.475,-20.472,-20.467,-20.46,-20.465,-20.471,-20.472,-20.467,-20.458,-20.459,-20.476,-20.504,-20.557,-20.524,-20.404,-20.205,-19.953,-19.678,-19.295,-19.144,-19.274,-19.697,-20.131,-20.473,-20.565,-20.547,-20.519,-20.437,-20.401,-20.376,-20.406,-20.405,-20.413,-20.384,-20.4,-20.395,-20.411,-20.394,-20.39,-20.378,-20.395,-20.384,-20.387,-20.367,-20.372,-20.368,-20.385,-20.37,-20.363,-20.345,-20.351,-20.358,-20.352,-20.335,-20.326,-20.323,-20.333,-20.324,-20.312,-20.303,-20.3,-20.303,-20.293,-20.272,-20.26,-20.249,-20.245,-20.238,-20.22,-20.197,-20.178,-20.173,-20.161,-20.142,-20.114,-20.099,-20.091,-20.078,-20.057,-20.035,-20.013,-20.014,-19.999,-19.988,-19.978,-19.97,-19.965,-19.977,-19.972,-19.976,-19.987,-20.021,-20.061,-20.092,-20.112,-20.157,-20.199,-20.245,-20.273,-20.291,-20.315,-20.342,-20.366,-20.374,-20.374,-20.387,-20.394,-20.41,-20.422,-20.415,-20.408,-20.418,-20.427,-20.431,-20.417,-20.415,-20.417,-20.429,-20.428,-20.418,-20.407,-20.409,-20.416,-20.419,-20.41,-20.401,-20.403,-20.408,-20.411,-20.408,-20.388,-20.398,-20.401,-20.411,-20.4,-20.39,-20.394,-20.403,-20.407,-20.407,-20.391,-20.402,-20.405,-20.417,-20.419,-20.407,-20.401,-20.414,-20.428,-20.428,-20.413,-20.418,-20.42,-20.432,-20.431,-20.424,-20.423,-20.43,-20.434,-20.433,-20.42,-20.423,-20.425,-20.435,-20.437,-20.432,-20.426,-20.429,-20.439,-20.444,-20.436,-20.426,-20.434,-20.443,-20.445,-20.435,-20.432,-20.438,-20.449,-20.442,-20.441,-20.431,-20.44,-20.443,-20.446,-20.443,-20.432,-20.435,-20.442,-20.448,-20.447,-20.434,-20.438,-20.441,-20.45,-20.447,-20.436,-20.436,-20.445,-20.448,-20.447,-20.433,-20.434,-20.441,-20.445,-20.431,-20.403,-20.393,-20.407,-20.407,-20.399,-20.38,-20.355,-20.328,-20.327,-20.342,-20.357,-20.375,-20.385,-20.393,-20.403,-20.397,-20.414,-20.438,-20.457,-20.468,-20.469,-20.462,-20.465,-20.481,-20.488,-20.48,-20.474,-20.473,-20.488,-20.481,-20.481,-20.467,-20.474,-20.484,-20.483,-20.482,-20.473,-20.475,-20.479,-20.488,-20.504,-20.545,-20.55,-20.457,-20.272,-20.032,-19.776,-19.427,-19.163,-19.227,-19.619,-20.062,-20.405,-20.562,-20.549,-20.464,-20.395,-20.376,-20.382,-20.413,-20.413,-20.413,-20.408,-20.413,-20.418,-20.418,-20.403,-20.397,-20.393,-20.403,-20.399,-20.386,-20.38,-20.378,-20.389,-20.379,-20.365,-20.359,-20.356,-20.362,-20.362,-20.353,-20.331,-20.332,-20.339,-20.334,-20.324,-20.304,-20.299,-20.307,-20.296,-20.283,-20.266,-20.26,-20.258,-20.245,-20.225,-20.207,-20.203,-20.191,-20.182,-20.163,-20.135,-20.117,-20.103,-20.099,-20.078,-20.05,-20.037,-20.022,-20.018,-20,-19.972,-19.965,-19.961,-19.963,-19.955,-19.944,-19.949,-19.963,-20,-20.024,-20.039,-20.071,-20.112,-20.167,-20.206,-20.221,-20.258,-20.293,-20.329,-20.355,-20.36,-20.372,-20.382,-20.403,-20.406,-20.402,-20.396,-20.405,-20.412,-20.418,-20.417,-20.401,-20.408,-20.417,-20.412,-20.41,-20.393,-20.399,-20.406,-20.409,-20.404,-20.387,-20.393,-20.4,-20.403,-20.392,-20.382,-20.389,-20.393,-20.401,-20.398,-20.391,-20.39,-20.393,-20.401,-20.404,-20.388,-20.393,-20.399,-20.407,-20.408,-20.394,-20.396,-20.397,-20.412,-20.415,-20.412,-20.403,-20.408,-20.423,-20.424,-20.414,-20.41,-20.413,-20.43,-20.427,-20.417,-20.414,-20.415,-20.43,-20.428,-20.421,-20.416,-20.416,-20.43,-20.431,-20.427,-20.415,-20.417,-20.426,-20.431,-20.431,-20.418,-20.422,-20.429,-20.433,-20.427,-20.415,-20.418,-20.424,-20.427,-20.428,-20.42,-20.42,-20.425,-20.428,-20.429,-20.424,-20.421,-20.429,-20.438,-20.434,-20.421,-20.414,-20.423,-20.434,-20.428,-20.418,-20.41,-20.418,-20.434,-20.428,-20.417,-20.415,-20.421,-20.43,-20.427,-20.423,-20.413,-20.415,-20.425,-20.425,-20.417,-20.41,-20.408,-20.413,-20.391,-20.376,-20.374,-20.371,-20.375,-20.372,-20.343,-20.304,-20.292,-20.318,-20.336,-20.346,-20.351,-20.359,-20.372,-20.388,-20.398,-20.402,-20.425,-20.439,-20.451,-20.446,-20.445,-20.449,-20.459,-20.467,-20.465,-20.452,-20.453,-20.463,-20.473,-20.471,-20.462,-20.454,-20.451,-20.466,-20.467,-20.452,-20.45,-20.455,-20.468,-20.486,-20.51,-20.539,-20.476,-20.328,-20.093,-19.824,-19.516,-19.197,-19.159,-19.283,-19.697,-20.125,-20.461,-20.568,-20.527,-20.458,-20.377,-20.376,-20.376,-20.405,-20.391,-20.395,-20.387,-20.406,-20.397,-20.398,-20.377,-20.386,-20.38,-20.392,-20.383,-20.374,-20.365,-20.372,-20.372,-20.368,-20.349,-20.348,-20.345,-20.361,-20.353,-20.334,-20.324,-20.33,-20.33,-20.322,-20.297,-20.298,-20.299,-20.304,-20.295,-20.279,-20.264,-20.254,-20.252,-20.241,-20.22,-20.202,-20.195,-20.191,-20.174,-20.147,-20.129,-20.117,-20.11,-20.088,-20.057,-20.034,-20.027,-20.019,-20.012,-19.996,-19.967,-19.957,-19.959,-19.955,-19.952,-19.943,-19.954,-19.971,-19.998,-20.021,-20.046,-20.083,-20.136,-20.172,-20.205,-20.225,-20.264,-20.284,-20.321,-20.334,-20.343,-20.356,-20.379,-20.397,-20.407,-20.403,-20.399,-20.399,-20.408,-20.402,-20.393,-20.395,-20.409,-20.42,-20.409,-20.39,-20.392,-20.392,-20.401,-20.402,-20.396,-20.387,-20.389,-20.399,-20.396,-20.389,-20.385,-20.389,-20.399,-20.4,-20.394,-20.385,-20.387,-20.402,-20.396,-20.394,-20.386,-20.39,-20.402,-20.403,-20.405,-20.395,-20.395,-20.405,-20.414,-20.412,-20.395,-20.397,-20.411,-20.424,-20.422,-20.41,-20.418,-20.427,-20.428,-20.422,-20.415,-20.422,-20.423,-20.436,-20.432,-20.422,-20.42,-20.426,-20.432,-20.43,-20.424,-20.426,-20.43,-20.439,-20.438,-20.428,-20.423,-20.424,-20.439,-20.437,-20.431,-20.428,-20.432,-20.443,-20.443,-20.431,-20.425,-20.429,-20.44,-20.447,-20.439,-20.431,-20.434,-20.442,-20.441,-20.431,-20.425,-20.428,-20.436,-20.426,-20.412,-20.402,-20.395,-20.389,-20.394,-20.395,-20.366,-20.344,-20.321,-20.323,-20.338,-20.346,-20.359,-20.372,-20.39,-20.394,-20.398,-20.414,-20.443,-20.455,-20.456,-20.452,-20.455,-20.458,-20.471,-20.471,-20.458,-20.456,-20.459,-20.472,-20.475,-20.462,-20.46,-20.467,-20.475,-20.476,-20.465,-20.462,-20.46,-20.471,-20.482,-20.49,-20.524,-20.561,-20.49,-20.316,-20.067,-19.767,-19.429,-19.201,-19.173,-19.511,-19.947,-20.367,-20.586,-20.561,-20.502,-20.427,-20.392,-20.384,-20.399,-20.397,-20.393,-20.389,-20.4,-20.403,-20.406,-20.387,-20.385,-20.382,-20.395,-20.382,-20.366,-20.364,-20.364,-20.367,-20.367,-20.346,-20.344,-20.346,-20.352,-20.35,-20.338,-20.33,-20.326,-20.332,-20.326,-20.309,-20.301,-20.296,-20.302,-20.29,-20.274,-20.262,-20.251,-20.247,-20.239,-20.223,-20.205,-20.199,-20.198,-20.188,-20.17,-20.14,-20.119,-20.115,-20.096,-20.077,-20.057,-20.043,-20.038,-20.022,-20.004,-19.981,-19.971,-19.977,-19.972,-19.966,-19.954,-19.964,-19.992,-20.005,-20.024,-20.042,-20.068,-20.115,-20.164,-20.2,-20.224,-20.25,-20.287,-20.324,-20.338,-20.343,-20.35,-20.37,-20.389,-20.393,-20.387,-20.389,-20.397,-20.406,-20.41,-20.404,-20.393,-20.392,-20.4,-20.399,-20.386,-20.381,-20.388,-20.4,-20.4,-20.394,-20.38,-20.379,-20.387,-20.388,-20.383,-20.379,-20.378,-20.388,-20.395,-20.388,-20.376,-20.381,-20.384,-20.395,-20.392,-20.387,-20.385,-20.394,-20.401,-20.403,-20.392,-20.401,-20.407,-20.413,-20.404,-20.401,-20.402,-20.408,-20.426,-20.42,-20.413,-20.416,-20.418,-20.428,-20.421,-20.418,-20.42,-20.422,-20.437,-20.437,-20.426,-20.424,-20.431,-20.439,-20.442,-20.427,-20.427,-20.427,-20.433,-20.436,-20.431,-20.427,-20.436,-20.445,-20.445,-20.438,-20.436,-20.437,-20.449,-20.451,-20.44,-20.427,-20.419,-20.422,-20.415,-20.4,-20.385,-20.393,-20.387,-20.369,-20.337,-20.32,-20.346,-20.366,-20.396,-20.399,-20.389,-20.398,-20.409,-20.433,-20.448,-20.448,-20.461,-20.469,-20.477,-20.472,-20.46,-20.461,-20.474,-20.484,-20.482,-20.468,-20.471,-20.478,-20.488,-20.483,-20.474,-20.468,-20.476,-20.486,-20.49,-20.476,-20.478,-20.516,-20.572,-20.519,-20.357,-20.24,-20.014,-19.751,-19.404,-19.168,-19.209,-19.594,-20.052,-20.415,-20.574,-20.538,-20.48,-20.41,-20.397,-20.381,-20.395,-20.39,-20.414,-20.398,-20.404,-20.387,-20.397,-20.396,-20.407,-20.398,-20.387,-20.373,-20.382,-20.381,-20.386,-20.359,-20.362,-20.36,-20.371,-20.353,-20.336,-20.334,-20.343,-20.34,-20.332,-20.324,-20.309,-20.309,-20.321,-20.308,-20.299,-20.279,-20.27,-20.269,-20.256,-20.241,-20.227,-20.222,-20.22,-20.196,-20.169,-20.151,-20.138,-20.135,-20.112,-20.097,-20.066,-20.045,-20.039,-20.026,-20.009,-19.989,-19.976,-19.977,-19.972,-19.956,-19.935,-19.935,-19.95,-19.971,-19.982,-20.001,-20.027,-20.073,-20.106,-20.125,-20.154,-20.193,-20.225,-20.273,-20.297,-20.314,-20.331,-20.351,-20.374,-20.38,-20.373,-20.376,-20.383,-20.403,-20.4,-20.394,-20.391,-20.401,-20.414,-20.416,-20.4,-20.387,-20.381,-20.389,-20.39,-20.384,-20.371,-20.377,-20.388,-20.389,-20.372,-20.373,-20.368,-20.378,-20.383,-20.382,-20.371,-20.372,-20.377,-20.379,-20.368,-20.362,-20.363,-20.371,-20.378,-20.38,-20.362,-20.37,-20.376,-20.396,-20.392,-20.383,-20.386,-20.393,-20.398,-20.393,-20.383,-20.393,-20.394,-20.407,-20.402,-20.391,-20.386,-20.393,-20.405,-20.409,-20.396,-20.398,-20.397,-20.409,-20.407,-20.393,-20.395,-20.395,-20.41,-20.408,-20.397,-20.401,-20.404,-20.405,-20.412,-20.41,-20.397,-20.401,-20.412,-20.416,-20.406,-20.397,-20.401,-20.407,-20.409,-20.402,-20.395,-20.406,-20.416,-20.414,-20.411,-20.398,-20.404,-20.406,-20.417,-20.407,-20.4,-20.403,-20.405,-20.415,-20.417,-20.401,-20.404,-20.401,-20.418,-20.408,-20.39,-20.387,-20.392,-20.38,-20.376,-20.35,-20.351,-20.349,-20.357,-20.34,-20.301,-20.264,-20.271,-20.308,-20.332,-20.336,-20.331,-20.347,-20.361,-20.37,-20.379,-20.393,-20.415,-20.427,-20.429,-20.427,-20.422,-20.425,-20.431,-20.435,-20.431,-20.421,-20.427,-20.434,-20.439,-20.439,-20.424,-20.427,-20.437,-20.438,-20.437,-20.425,-20.431,-20.46,-20.5,-20.513,-20.413,-20.332,-20.128,-19.893,-19.634,-19.233,-19.106,-19.311,-19.771,-20.173,-20.451,-20.516,-20.461,-20.409,-20.346,-20.331,-20.34,-20.361,-20.373,-20.372,-20.353,-20.351,-20.35,-20.362,-20.356,-20.348,-20.335,-20.335,-20.345,-20.344,-20.329,-20.318,-20.316,-20.328,-20.323,-20.307,-20.297,-20.3,-20.304,-20.303,-20.293,-20.285,-20.281,-20.275,-20.282,-20.266,-20.244,-20.241,-20.237,-20.234,-20.21,-20.199,-20.185,-20.182,-20.176,-20.16,-20.133,-20.119,-20.112,-20.1,-20.075,-20.06,-20.04,-20.026,-20.017,-19.998,-19.971,-19.952,-19.937,-19.938,-19.919,-19.896,-19.894,-19.889,-19.905,-19.909,-19.91,-19.924,-19.95,-19.991,-20.022,-20.033,-20.064,-20.104,-20.156,-20.193,-20.218,-20.241,-20.264,-20.294,-20.317,-20.324,-20.328,-20.342,-20.357,-20.363,-20.36,-20.357,-20.363,-20.376,-20.373,-20.37,-20.359,-20.36,-20.357,-20.363,-20.362,-20.349,-20.348,-20.348,-20.356,-20.347,-20.333,-20.337,-20.345,-20.35,-20.35,-20.336,-20.343,-20.345,-20.352,-20.351,-20.342,-20.342,-20.351,-20.361,-20.361,-20.346,-20.345,-20.346,-20.357,-20.364,-20.363,-20.362,-20.367,-20.373,-20.375,-20.369,-20.357,-20.367,-20.381,-20.379,-20.376,-20.368,-20.376,-20.389,-20.391,-20.392,-20.38,-20.377,-20.379,-20.383,-20.385,-20.378,-20.384,-20.393,-20.391,-20.388,-20.38,-20.39,-20.393,-20.399,-20.4,-20.39,-20.386,-20.395,-20.403,-20.404,-20.394,-20.392,-20.397,-20.406,-20.397,-20.388,-20.388,-20.393,-20.402,-20.403,-20.396,-20.398,-20.402,-20.405,-20.404,-20.403,-20.394,-20.401,-20.414,-20.414,-20.41,-20.397,-20.394,-20.405,-20.403,-20.397,-20.394,-20.398,-20.407,-20.409,-20.407,-20.403,-20.403,-20.403,-20.405,-20.386,-20.359,-20.361,-20.369,-20.364,-20.359,-20.341,-20.314,-20.292,-20.292,-20.313,-20.317,-20.336,-20.349,-20.358,-20.369,-20.366,-20.382,-20.397,-20.435,-20.437,-20.429,-20.429,-20.431,-20.443,-20.439,-20.436,-20.428,-20.432,-20.449,-20.447,-20.435,-20.434,-20.437,-20.449,-20.445,-20.436,-20.433,-20.438,-20.447,-20.454,-20.473,-20.507,-20.517,-20.429,-20.246,-19.995,-19.718,-19.364,-19.155,-19.194,-19.567,-20.004,-20.382,-20.551,-20.532,-20.461,-20.385,-20.359,-20.348,-20.374,-20.371,-20.371,-20.364,-20.382,-20.378,-20.377,-20.356,-20.36,-20.359,-20.37,-20.352,-20.351,-20.343,-20.348,-20.346,-20.338,-20.326,-20.33,-20.326,-20.333,-20.326,-20.317,-20.306,-20.304,-20.307,-20.307,-20.289,-20.281,-20.273,-20.278,-20.274,-20.25,-20.24,-20.231,-20.226,-20.221,-20.2,-20.188,-20.18,-20.169,-20.159,-20.131,-20.105,-20.097,-20.092,-20.069,-20.046,-20.026,-20.017,-20.002,-19.994,-19.976,-19.947,-19.938,-19.939,-19.941,-19.929,-19.916,-19.927,-19.941,-19.971,-19.986,-20.004,-20.037,-20.074,-20.119,-20.162,-20.185,-20.22,-20.25,-20.289,-20.309,-20.322,-20.334,-20.357,-20.37,-20.381,-20.366,-20.366,-20.372,-20.387,-20.388,-20.375,-20.367,-20.376,-20.385,-20.39,-20.377,-20.366,-20.367,-20.375,-20.376,-20.364,-20.356,-20.357,-20.365,-20.363,-20.357,-20.352,-20.36,-20.365,-20.369,-20.365,-20.348,-20.351,-20.361,-20.372,-20.372,-20.362,-20.363,-20.364,-20.372,-20.376,-20.364,-20.362,-20.371,-20.374,-20.378,-20.379,-20.373,-20.38,-20.387,-20.386,-20.379,-20.375,-20.383,-20.398,-20.391,-20.38,-20.376,-20.387,-20.403,-20.4,-20.389,-20.382,-20.39,-20.4,-20.397,-20.398,-20.39,-20.397,-20.408,-20.403,-20.397,-20.388,-20.39,-20.403,-20.411,-20.408,-20.398,-20.392,-20.399,-20.399,-20.397,-20.387,-20.378,-20.37,-20.368,-20.361,-20.345,-20.334,-20.347,-20.337,-20.298,-20.261,-20.265,-20.294,-20.317,-20.328,-20.327,-20.336,-20.35,-20.367,-20.383,-20.396,-20.409,-20.421,-20.427,-20.421,-20.411,-20.405,-20.409,-20.425,-20.43,-20.422,-20.421,-20.418,-20.426,-20.421,-20.415,-20.413,-20.419,-20.432,-20.431,-20.418,-20.422,-20.424,-20.479,-20.508,-20.52,-20.42,-20.231,-19.989,-19.699,-19.332,-19.108,-19.134,-19.517,-19.959,-20.358,-20.525,-20.495,-20.461,-20.404,-20.366,-20.333,-20.356,-20.353,-20.378,-20.366,-20.373,-20.355,-20.367,-20.361,-20.366,-20.342,-20.35,-20.341,-20.359,-20.339,-20.325,-20.314,-20.32,-20.323,-20.325,-20.302,-20.306,-20.304,-20.31,-20.307,-20.293,-20.28,-20.274,-20.27,-20.273,-20.255,-20.238,-20.234,-20.235,-20.229,-20.215,-20.193,-20.186,-20.186,-20.174,-20.152,-20.128,-20.12,-20.116,-20.107,-20.088,-20.057,-20.041,-20.029,-20.013,-19.997,-19.968,-19.959,-19.955,-19.951,-19.937,-19.914,-19.91,-19.916,-19.926,-19.937,-19.94,-19.97,-19.982,-20.028,-20.057,-20.086,-20.121,-20.164,-20.202,-20.238,-20.259,-20.278,-20.296,-20.32,-20.334,-20.338,-20.338,-20.353,-20.367,-20.37,-20.355,-20.354,-20.355,-20.368,-20.369,-20.364,-20.345,-20.356,-20.366,-20.359,-20.362,-20.34,-20.344,-20.359,-20.351,-20.348,-20.335,-20.34,-20.348,-20.352,-20.344,-20.337,-20.336,-20.342,-20.35,-20.353,-20.338,-20.328,-20.34,-20.353,-20.355,-20.342,-20.348,-20.362,-20.366,-20.359,-20.346,-20.353,-20.365,-20.379,-20.373,-20.363,-20.369,-20.367,-20.38,-20.376,-20.372,-20.363,-20.365,-20.381,-20.378,-20.377,-20.366,-20.375,-20.389,-20.385,-20.374,-20.371,-20.375,-20.39,-20.388,-20.381,-20.373,-20.377,-20.387,-20.391,-20.384,-20.372,-20.378,-20.381,-20.39,-20.384,-20.367,-20.368,-20.374,-20.369,-20.349,-20.341,-20.333,-20.334,-20.336,-20.313,-20.297,-20.267,-20.266,-20.301,-20.316,-20.318,-20.321,-20.33,-20.349,-20.354,-20.368,-20.39,-20.405,-20.416,-20.416,-20.412,-20.412,-20.412,-20.427,-20.429,-20.425,-20.419,-20.424,-20.43,-20.434,-20.424,-20.414,-20.422,-20.437,-20.44,-20.436,-20.424,-20.426,-20.448,-20.499,-20.512,-20.42,-20.246,-20.021,-19.757,-19.599,-19.222,-19.085,-19.281,-19.719,-20.145,-20.442,-20.511,-20.464,-20.434,-20.358,-20.345,-20.343,-20.376,-20.375,-20.387,-20.352,-20.359,-20.348,-20.373,-20.359,-20.367,-20.345,-20.358,-20.349,-20.359,-20.33,-20.332,-20.317,-20.337,-20.327,-20.322,-20.305,-20.311,-20.314,-20.315,-20.289,-20.288,-20.277,-20.285,-20.28,-20.28,-20.258,-20.253,-20.254,-20.241,-20.232,-20.211,-20.203,-20.197,-20.185,-20.168,-20.144,-20.13,-20.123,-20.106,-20.091,-20.063,-20.055,-20.038,-20.035,-20.009,-19.991,-19.97,-19.956,-19.953,-19.943,-19.916,-19.912,-19.911,-19.922,-19.928,-19.933,-19.951,-19.992,-20.022,-20.059,-20.08,-20.116,-20.158,-20.19,-20.219,-20.249,-20.259,-20.286,-20.312,-20.33,-20.334,-20.337,-20.342,-20.365,-20.368,-20.368,-20.357,-20.363,-20.369,-20.372,-20.363,-20.362,-20.36,-20.368,-20.368,-20.367,-20.341,-20.353,-20.354,-20.365,-20.354,-20.345,-20.344,-20.352,-20.353,-20.353,-20.337,-20.337,-20.346,-20.355,-20.348,-20.341,-20.343,-20.35,-20.359,-20.362,-20.351,-20.349,-20.353,-20.363,-20.366,-20.358,-20.357,-20.362,-20.372,-20.369,-20.364,-20.367,-20.368,-20.381,-20.379,-20.369,-20.365,-20.365,-20.373,-20.376,-20.364,-20.363,-20.371,-20.381,-20.383,-20.387,-20.37,-20.366,-20.379,-20.379,-20.376,-20.361,-20.368,-20.377,-20.381,-20.371,-20.364,-20.362,-20.367,-20.37,-20.379,-20.368,-20.374,-20.368,-20.379,-20.379,-20.367,-20.367,-20.373,-20.381,-20.369,-20.359,-20.367,-20.37,-20.374,-20.373,-20.364,-20.369,-20.368,-20.364,-20.375,-20.365,-20.36,-20.356,-20.38,-20.353,-20.332,-20.335,-20.312,-20.317,-20.343,-20.304,-20.271,-20.254,-20.242,-20.262,-20.269,-20.267,-20.278,-20.306,-20.362,-20.332,-20.322,-20.361,-20.37,-20.401,-20.383,-20.367,-20.402,-20.405,-20.433,-20.413,-20.401,-20.391,-20.419,-20.435,-20.403,-20.394,-20.393,-20.413,-20.401,-20.412,-20.438,-20.421,-20.42,-20.431,-20.467,-20.507,-20.438,-20.305,-20.085,-19.828,-19.543,-19.191,-19.082,-19.351,-19.803,-20.02,-20.347,-20.506,-20.505,-20.421,-20.349,-20.339,-20.355,-20.372,-20.362,-20.386,-20.334,-20.364,-20.336,-20.37,-20.361,-20.353,-20.335,-20.358,-20.343,-20.328,-20.303,-20.328,-20.322,-20.34,-20.324,-20.296,-20.274,-20.305,-20.328,-20.275,-20.277,-20.291,-20.27,-20.275,-20.271,-20.251,-20.244,-20.254,-20.215,-20.218,-20.197,-20.192,-20.217,-20.199,-20.168,-20.175,-20.158,-20.137,-20.124,-20.092,-20.09,-20.07,-20.048,-20.027,-20.015,-20.012,-19.969,-19.943,-19.953,-19.935,-19.921,-19.929,-19.911,-19.904,-19.91,-19.896,-19.897,-19.915,-19.963,-19.977,-20.028,-20.04,-20.068,-20.127,-20.166,-20.202,-20.211,-20.237,-20.293,-20.316,-20.297,-20.32,-20.327,-20.329,-20.361,-20.347,-20.359,-20.343,-20.358,-20.363,-20.36,-20.361,-20.338,-20.356,-20.366,-20.358,-20.346,-20.345,-20.357,-20.36,-20.347,-20.337,-20.344,-20.33,-20.342,-20.334,-20.323,-20.322,-20.33,-20.337,-20.34,-20.338,-20.326,-20.327,-20.34,-20.349,-20.339,-20.34,-20.332,-20.333,-20.347,-20.336,-20.337,-20.334,-20.345,-20.355,-20.348,-20.335,-20.343,-20.353,-20.357,-20.356,-20.348,-20.349,-20.35,-20.359,-20.36,-20.351,-20.35,-20.351,-20.361,-20.358,-20.353,-20.351,-20.349,-20.36,-20.356,-20.344,-20.347,-20.344,-20.352,-20.357,-20.353,-20.341,-20.337,-20.352,-20.353,-20.346,-20.335,-20.331,-20.353,-20.361,-20.351,-20.346,-20.356,-20.361,-20.367,-20.354,-20.339,-20.352,-20.357,-20.374,-20.369,-20.342,-20.33,-20.319,-20.329,-20.324,-20.308,-20.308,-20.304,-20.299,-20.252,-20.224,-20.243,-20.276,-20.301,-20.314,-20.307,-20.32,-20.33,-20.353,-20.372,-20.386,-20.383,-20.391,-20.418,-20.426,-20.416,-20.413,-20.411,-20.417,-20.416,-20.413,-20.419,-20.418,-20.426,-20.424,-20.415,-20.415,-20.425,-20.43,-20.429,-20.422,-20.43,-20.472,-20.51,-20.444,-20.283,-20.04,-19.91,-19.657,-19.276,-19.111,-19.192,-19.626,-20.06,-20.437,-20.54,-20.506,-20.433,-20.369,-20.351,-20.337,-20.343,-20.345,-20.371,-20.36,-20.36,-20.343,-20.352,-20.349,-20.365,-20.356,-20.348,-20.334,-20.347,-20.347,-20.342,-20.337,-20.336,-20.331,-20.341,-20.327,-20.313,-20.309,-20.305,-20.303,-20.305,-20.298,-20.294,-20.281,-20.281,-20.275,-20.276,-20.255,-20.247,-20.245,-20.231,-20.224,-20.209,-20.198,-20.197,-20.19,-20.169,-20.137,-20.124,-20.121,-20.096,-20.078,-20.065,-20.047,-20.029,-20.028,-20.008,-19.99,-19.97,-19.962,-19.955,-19.943,-19.928,-19.935,-19.938,-19.96,-19.97,-19.985,-20.012,-20.048,-20.082,-20.127,-20.143,-20.168,-20.199,-20.242,-20.272,-20.293,-20.307,-20.326,-20.354,-20.36,-20.356,-20.352,-20.359,-20.382,-20.386,-20.373,-20.363,-20.369,-20.385,-20.39,-20.381,-20.367,-20.364,-20.363,-20.37,-20.376,-20.365,-20.365,-20.364,-20.372,-20.366,-20.36,-20.361,-20.366,-20.373,-20.37,-20.352,-20.361,-20.371,-20.365,-20.363,-20.362,-20.358,-20.366,-20.38,-20.381,-20.369,-20.373,-20.37,-20.385,-20.384,-20.374,-20.378,-20.385,-20.408,-20.4,-20.386,-20.385,-20.388,-20.394,-20.394,-20.383,-20.376,-20.386,-20.403,-20.404,-20.392,-20.386,-20.397,-20.403,-20.405,-20.4,-20.392,-20.397,-20.401,-20.407,-20.406,-20.398,-20.404,-20.41,-20.414,-20.409,-20.392,-20.387,-20.377,-20.386,-20.379,-20.363,-20.367,-20.363,-20.352,-20.306,-20.286,-20.303,-20.336,-20.358,-20.372,-20.354,-20.366,-20.374,-20.39,-20.412,-20.439,-20.436,-20.446,-20.451,-20.45,-20.446,-20.445,-20.453,-20.465,-20.461,-20.452,-20.448,-20.457,-20.461,-20.461,-20.45,-20.45,-20.455,-20.457,-20.463,-20.46,-20.44,-20.445,-20.47,-20.526,-20.563,-20.478,-20.305,-20.071,-19.778,-19.446,-19.165,-19.116,-19.452,-19.909,-20.327,-20.554,-20.54,-20.536,-20.477,-20.43,-20.378,-20.369,-20.383,-20.397,-20.398,-20.385,-20.378,-20.381,-20.39,-20.383,-20.375,-20.367,-20.374,-20.373,-20.367,-20.359,-20.354,-20.354,-20.363,-20.355,-20.349,-20.334,-20.329,-20.334,-20.33,-20.321,-20.308,-20.307,-20.313,-20.302,-20.29,-20.274,-20.269,-20.277,-20.267,-20.249,-20.23,-20.227,-20.224,-20.214,-20.197,-20.172,-20.158,-20.144,-20.142,-20.122,-20.096,-20.08,-20.068,-20.054,-20.033,-20.013,-20.002,-19.997,-19.994,-19.976,-19.957,-19.952,-19.957,-19.967,-19.97,-19.978,-19.998,-20.021,-20.07,-20.097,-20.128,-20.162,-20.2,-20.244,-20.274,-20.286,-20.306,-20.327,-20.36,-20.367,-20.371,-20.37,-20.376,-20.393,-20.397,-20.391,-20.378,-20.388,-20.401,-20.402,-20.394,-20.384,-20.384,-20.397,-20.401,-20.393,-20.378,-20.379,-20.382,-20.388,-20.384,-20.378,-20.377,-20.375,-20.383,-20.377,-20.365,-20.37,-20.374,-20.387,-20.384,-20.368,-20.372,-20.374,-20.384,-20.383,-20.376,-20.375,-20.375,-20.385,-20.389,-20.382,-20.38,-20.385,-20.397,-20.396,-20.391,-20.382,-20.393,-20.401,-20.401,-20.394,-20.39,-20.395,-20.408,-20.412,-20.405,-20.401,-20.404,-20.415,-20.42,-20.414,-20.399,-20.4,-20.406,-20.412,-20.411,-20.402,-20.409,-20.409,-20.415,-20.404,-20.384,-20.367,-20.367,-20.376,-20.37,-20.352,-20.358,-20.343,-20.309,-20.291,-20.282,-20.301,-20.333,-20.354,-20.366,-20.381,-20.347,-20.374,-20.386,-20.417,-20.445,-20.404,-20.419,-20.454,-20.441,-20.425,-20.446,-20.441,-20.42,-20.406,-20.449,-20.434,-20.421,-20.422,-20.434,-20.438,-20.415,-20.432,-20.438,-20.432,-20.426,-20.425,-20.47,-20.528,-20.488,-20.347,-20.133,-19.896,-19.628,-19.448,-19.174,-19.094,-19.461,-19.934,-20.337,-20.551,-20.546,-20.478,-20.427,-20.381,-20.372,-20.375,-20.371,-20.382,-20.396,-20.385,-20.385,-20.382,-20.384,-20.385,-20.383,-20.368,-20.356,-20.355,-20.368,-20.362,-20.354,-20.346,-20.341,-20.35,-20.344,-20.338,-20.32,-20.322,-20.329,-20.329,-20.314,-20.296,-20.293,-20.294,-20.289,-20.268,-20.254,-20.247,-20.246,-20.246,-20.237,-20.213,-20.196,-20.182,-20.176,-20.155,-20.128,-20.119,-20.111,-20.095,-20.07,-20.044,-20.032,-20.025,-20.022,-20.009,-19.987,-19.968,-19.962,-19.964,-19.951,-19.935,-19.928,-19.938,-19.964,-19.989,-20.003,-20.033,-20.065,-20.118,-20.156,-20.189,-20.227,-20.243,-20.281,-20.321,-20.335,-20.353,-20.379,-20.398,-20.413,-20.418,-20.418,-20.428,-20.442,-20.457,-20.455,-20.445,-20.455,-20.468,-20.479,-20.475,-20.472,-20.474,-20.48,-20.49,-20.49,-20.47,-20.465,-20.465,-20.469,-20.468,-20.455,-20.445,-20.445,-20.458,-20.451,-20.432,-20.423,-20.416,-20.417,-20.407,-20.397,-20.398,-20.394,-20.394,-20.397,-20.39,-20.374,-20.374,-20.385,-20.391,-20.381,-20.368,-20.37,-20.38,-20.381,-20.376,-20.36,-20.361,-20.378,-20.379,-20.37,-20.363,-20.368,-20.38,-20.383,-20.385,-20.368,-20.381,-20.387,-20.393,-20.391,-20.383,-20.388,-20.393,-20.403,-20.397,-20.386,-20.396,-20.398,-20.401,-20.396,-20.388,-20.388,-20.393,-20.405,-20.401,-20.389,-20.385,-20.39,-20.393,-20.394,-20.387,-20.385,-20.392,-20.4,-20.391,-20.383,-20.371,-20.366,-20.355,-20.359,-20.351,-20.333,-20.322,-20.34,-20.325,-20.29,-20.243,-20.256,-20.293,-20.314,-20.33,-20.324,-20.331,-20.347,-20.362,-20.376,-20.387,-20.396,-20.413,-20.418,-20.419,-20.403,-20.409,-20.415,-20.424,-20.413,-20.408,-20.407,-20.418,-20.426,-20.419,-20.414,-20.406,-20.424,-20.425,-20.415,-20.403,-20.405,-20.429,-20.483,-20.498,-20.466,-20.341,-20.14,-19.901,-19.635,-19.251,-19.072,-19.213,-19.64,-20.076,-20.412,-20.515,-20.474,-20.422,-20.343,-20.331,-20.31,-20.337,-20.343,-20.359,-20.341,-20.341,-20.328,-20.332,-20.328,-20.345,-20.333,-20.326,-20.331,-20.334,-20.323,-20.322,-20.312,-20.319,-20.317,-20.313,-20.296,-20.3,-20.287,-20.299,-20.279,-20.275,-20.267,-20.272,-20.275,-20.271,-20.245,-20.241,-20.234,-20.24,-20.226,-20.211,-20.2,-20.192,-20.181,-20.161,-20.144,-20.127,-20.118,-20.116,-20.104,-20.086,-20.063,-20.046,-20.042,-20.025,-19.998,-19.97,-19.959,-19.952,-19.954,-19.935,-19.924,-19.917,-19.931,-19.946,-19.951,-19.956,-19.999,-20.019,-20.061,-20.097,-20.124,-20.161,-20.207,-20.255,-20.297,-20.313,-20.345,-20.366,-20.404,-20.419,-20.42,-20.43,-20.443,-20.455,-20.455,-20.444,-20.446,-20.451,-20.468,-20.467,-20.465,-20.471,-20.476,-20.477,-20.476,-20.472,-20.472,-20.47,-20.475,-20.462,-20.46,-20.439,-20.451,-20.45,-20.44,-20.434,-20.423,-20.424,-20.422,-20.435,-20.44,-20.425,-20.424,-20.42,-20.422,-20.418,-20.406,-20.409,-20.417,-20.425,-20.422,-20.406,-20.412,-20.414,-20.42,-20.417,-20.404,-20.407,-20.406,-20.413,-20.408,-20.404,-20.394,-20.401,-20.411,-20.407,-20.392,-20.389,-20.38,-20.386,-20.381,-20.362,-20.368,-20.363,-20.369,-20.373,-20.357,-20.352,-20.353,-20.358,-20.368,-20.358,-20.348,-20.344,-20.348,-20.35,-20.353,-20.343,-20.344,-20.357,-20.355,-20.355,-20.341,-20.344,-20.331,-20.322,-20.315,-20.307,-20.29,-20.293,-20.3,-20.276,-20.237,-20.222,-20.252,-20.283,-20.298,-20.295,-20.295,-20.309,-20.321,-20.329,-20.338,-20.357,-20.361,-20.371,-20.366,-20.367,-20.364,-20.37,-20.38,-20.377,-20.378,-20.369,-20.374,-20.384,-20.383,-20.374,-20.37,-20.369,-20.382,-20.384,-20.381,-20.372,-20.385,-20.437,-20.473,-20.41,-20.335,-20.15,-19.912,-19.661,-19.282,-19.066,-19.142,-19.568,-20.009,-20.354,-20.477,-20.461,-20.395,-20.331,-20.3,-20.301,-20.32,-20.331,-20.344,-20.342,-20.342,-20.323,-20.329,-20.33,-20.329,-20.317,-20.321,-20.309,-20.322,-20.32,-20.304,-20.293,-20.299,-20.307,-20.299,-20.288,-20.286,-20.269,-20.283,-20.283,-20.273,-20.259,-20.25,-20.249,-20.239,-20.216,-20.212,-20.202,-20.206,-20.197,-20.187,-20.162,-20.153,-20.157,-20.152,-20.126,-20.099,-20.098,-20.084,-20.074,-20.062,-20.039,-20.014,-20.002,-20.008,-19.991,-19.961,-19.952,-19.941,-19.94,-19.931,-19.914,-19.903,-19.916,-19.93,-19.946,-19.954,-19.985,-20.021,-20.068,-20.083,-20.112,-20.147,-20.185,-20.222,-20.255,-20.276,-20.288,-20.308,-20.338,-20.344,-20.34,-20.342,-20.35,-20.372,-20.373,-20.362,-20.354,-20.353,-20.363,-20.365,-20.358,-20.344,-20.342,-20.345,-20.351,-20.345,-20.335,-20.331,-20.332,-20.338,-20.338,-20.323,-20.325,-20.323,-20.329,-20.329,-20.319,-20.316,-20.315,-20.325,-20.317,-20.321,-20.313,-20.318,-20.333,-20.335,-20.323,-20.318,-20.319,-20.329,-20.335,-20.326,-20.323,-20.326,-20.337,-20.348,-20.338,-20.336,-20.342,-20.344,-20.351,-20.35,-20.342,-20.35,-20.355,-20.358,-20.36,-20.348,-20.355,-20.362,-20.364,-20.369,-20.361,-20.363,-20.372,-20.373,-20.375,-20.367,-20.363,-20.369,-20.378,-20.378,-20.365,-20.363,-20.372,-20.366,-20.359,-20.343,-20.34,-20.329,-20.345,-20.337,-20.293,-20.266,-20.271,-20.302,-20.314,-20.318,-20.327,-20.337,-20.352,-20.368,-20.376,-20.394,-20.415,-20.43,-20.426,-20.44,-20.434,-20.432,-20.447,-20.447,-20.438,-20.438,-20.445,-20.45,-20.451,-20.451,-20.445,-20.447,-20.454,-20.467,-20.467,-20.458,-20.452,-20.46,-20.476,-20.521,-20.579,-20.542,-20.399,-20.19,-19.909,-19.588,-19.25,-19.154,-19.364,-19.801,-20.215,-20.419,-20.57,-20.572,-20.518,-20.459,-20.399,-20.385,-20.4,-20.404,-20.397,-20.405,-20.391,-20.402,-20.39,-20.385,-20.385,-20.382,-20.388,-20.376,-20.365,-20.354,-20.355,-20.364,-20.372,-20.358,-20.352,-20.33,-20.331,-20.337,-20.321,-20.317,-20.317,-20.321,-20.313,-20.295,-20.282,-20.282,-20.278,-20.286,-20.273,-20.263,-20.244,-20.236,-20.248,-20.232,-20.2,-20.195,-20.182,-20.176,-20.172,-20.145,-20.116,-20.092,-20.091,-20.088,-20.068,-20.04,-20.034,-20.03,-20.013,-20.007,-19.993,-19.981,-19.981,-19.977,-19.979,-20.009,-20.037,-20.066,-20.083,-20.097,-20.127,-20.176,-20.222,-20.26,-20.294,-20.306,-20.342,-20.345,-20.345,-20.362,-20.385,-20.391,-20.406,-20.434,-20.421,-20.419,-20.431,-20.422,-20.419,-20.43,-20.429,-20.426,-20.425,-20.408,-20.442,-20.432,-20.435,-20.437,-20.434,-20.436,-20.442,-20.432,-20.437,-20.467,-20.471,-20.464,-20.445,-20.459,-20.457,-20.475,-20.474,-20.472,-20.479,-20.486,-20.487,-20.48,-20.491,-20.491,-20.496,-20.502,-20.506,-20.502,-20.488,-20.5,-20.52,-20.505,-20.493,-20.493,-20.508,-20.506,-20.502,-20.488,-20.484,-20.509,-20.495,-20.471,-20.458,-20.451,-20.456,-20.461,-20.455,-20.438,-20.395,-20.378,-20.39,-20.398,-20.392,-20.409,-20.425,-20.451,-20.44,-20.442,-20.457,-20.488,-20.5,-20.499,-20.49,-20.493,-20.501,-20.496,-20.495,-20.503,-20.493,-20.488,-20.492,-20.504,-20.506,-20.492,-20.492,-20.481,-20.499,-20.504,-20.495,-20.493,-20.495,-20.511,-20.572,-20.586,-20.5,-20.413,-20.223,-19.943,-19.625,-19.297,-19.206,-19.419,-19.873,-20.265,-20.588,-20.612,-20.596
