2.8352,2.8367,2.8322,2.8241,2.8234,2.8297,2.8401,2.8465,2.8464,2.8413,2.8467,2.8494,2.854,2.8494,2.8466,2.8548,2.8663,2.8709,2.8743,2.8756,2.8697,2.8742,2.855,2.8481,2.8309,2.8215,2.8236,2.8103,2.7881,2.7862,2.7826,2.792,2.7898,2.7824,2.7808,2.7875,2.7974,2.7931,2.794,2.7952,2.7825,2.777,2.7972,2.8646,2.9713,3.1544,3.4132,3.6425,3.7125,3.7059,3.5691,3.3195,3.0952,2.942,2.9111,2.8678,2.8526,2.8386,2.8326,2.8167,2.8076,2.8068,2.8118,2.8051,2.8018,2.7982,2.8095,2.8154,2.8061,2.8059,2.8054,2.8078,2.8114,2.8153,2.8121,2.8177,2.8218,2.8249,2.823,2.8202,2.8212,2.8214,2.8276,2.8362,2.8373,2.8345,2.8373,2.8485,2.8503,2.8491,2.8473,2.8571,2.8674,2.8755,2.8689,2.8705,2.8712,2.8793,2.877,2.8787,2.875,2.8693,2.8715,2.875,2.8719,2.8674,2.8656,2.8713,2.8813,2.887,2.8916,2.8923,2.8947,2.8919,2.8903,2.877,2.864,2.855,2.8563,2.855,2.8432,2.8231,2.8204,2.8228,2.8216,2.8126,2.8104,2.8069,2.8154,2.8127,2.8147,2.81,2.8146,2.8167,2.8151,2.8128,2.8049,2.8036,2.8053,2.812,2.8159,2.8079,2.8053,2.8095,2.816,2.8159,2.812,2.8047,2.8072,2.8103,2.8071,2.8029,2.8012,2.8099,2.8135,2.8139,2.8082,2.8031,2.7986,2.8075,2.8173,2.8173,2.8157,2.8225,2.8261,2.8412,2.8514,2.8553,2.8525,2.8588,2.8584,2.8587,2.8509,2.8583,2.8673,2.8721,2.8774,2.8828,2.888,2.8865,2.8866,2.8835,2.8687,2.8493,2.8448,2.8398,2.825,2.8111,2.8075,2.8098,2.8122,2.8068,2.8094,2.8014,2.8009,2.8136,2.8092,2.8131,2.8103,2.8057,2.7974,2.824,2.8947,3.0032,3.1887,3.4289,3.6444,3.7086,3.6914,3.5386,3.3025,3.0844,2.947,2.9314,2.9079,2.8827,2.8755,2.8624,2.8505,2.8469,2.8384,2.8365,2.8313,2.8305,2.8271,2.8326,2.8401,2.8424,2.8464,2.8465,2.8503,2.8543,2.8532,2.8512,2.8499,2.8532,2.8665,2.8702,2.8683,2.8675,2.8788,2.8945,2.8949,2.8991,2.8986,2.9126,2.9252,2.9263,2.9346,2.9368,2.9445,2.9486,2.9564,2.9529,2.951,2.948,2.9576,2.9635,2.964,2.9637,2.9649,2.9701,2.9722,2.9684,2.9656,2.9662,2.9809,2.9919,2.9953,2.9984,2.9996,3.0056,3.016,3.0201,3.0054,3.0004,2.9987,3.0004,2.9939,2.9831,2.976,2.9772,2.9774,2.9781,2.9745,2.9691,2.9727,2.9892,2.9851,2.9824,2.9814,2.9941,2.9946,3.0007,3.0016,3.0026,3.0043,3.0131,3.0205,3.0193,3.0178,3.0074,3.0207,3.0215,3.0172,3.0093,3.0092,3.0148,3.0172,3.0226,3.0131,3.0155,3.0256,3.0228,3.0257,3.0188,3.0231,3.0254,3.0405,3.0412,3.0396,3.0477,3.0477,3.0515,3.0545,3.0548,3.0498,3.0524,3.065,3.077,3.0835,3.0886,3.0965,3.0988,3.1012,3.0841,3.0617,3.0553,3.0593,3.0581,3.0484,3.0394,3.0381,3.04,3.0484,3.0576,3.0513,3.0504,3.0484,3.0514,3.0609,3.0632,3.0542,3.0396,3.0657,3.1311,3.2158,3.377,3.6149,3.8173,3.9038,3.8992,3.7641,3.5682,3.343,3.2367,3.1267,3.1095,3.1212,3.1068,3.1039,3.0891,3.0882,3.0741,3.0884,3.0843,3.0825,3.0754,3.0942,3.108,3.1141,3.0987,3.1078,3.1006,3.1056,3.1028,3.1031,3.0985,3.1071,3.1093,3.1169,3.1185,3.1216,3.1185,3.1312,3.1584,3.1865,3.1787,3.1747,3.1753,3.1824,3.1832,3.1853,3.1808,3.185,3.1959,3.2004,3.2009,3.2013,3.2036,3.214,3.2083,3.2077,3.2074,3.2077,3.2195,3.2208,3.2243,3.2213,3.2253,3.24,3.2452,3.2439,3.2446,3.2463,3.2463,3.2483,3.2452,3.2398,3.2242,3.2216,3.219,3.2121,3.201,3.1929,3.1892,3.1921,3.19,3.1797,3.1801,3.1807,3.1877,3.1863,3.1815,3.1771,3.1846,3.1849,3.188,3.1809,3.1831,3.1825,3.1942,3.1929,3.1922,3.1846,3.1895,3.1917,3.1882,3.1847,3.1753,3.175,3.185,3.187,3.1778,3.1688,3.172,3.1735,3.1719,3.17,3.1656,3.1605,3.1696,3.1799,3.1849,3.1757,3.1741,3.1753,3.1769,3.1711,3.1725,3.1658,3.1701,3.1787,3.1913,3.1937,3.1871,3.1823,3.1801,3.1652,3.1476,3.131,3.1274,3.1183,3.1048,3.0945,3.0852,3.0824,3.083,3.0795,3.0809,3.0751,3.0721,3.0718,3.0824,3.0834,3.0688,3.0507,3.086,3.1514,3.26,3.4421,3.6845,3.894,3.9652,3.9575,3.805,3.5747,3.4497,3.2484,3.1654,3.1545,3.1208,3.1153,3.1069,3.0977,3.0842,3.0878,3.0795,3.0912,3.0925,3.0962,3.0913,3.1046,3.115,3.1189,3.1154,3.1201,3.1119,3.1186,3.1218,3.1265,3.1186,3.1202,3.1219,3.1302,3.1314,3.1368,3.1333,3.1458,3.1523,3.1555,3.1504,3.1503,3.164,3.1767,3.1729,3.1751,3.1753,3.1837,3.1929,3.1984,3.1911,3.1886,3.1881,3.1943,3.1983,3.1964,3.1872,3.1882,3.1938,3.1962,3.1947,3.1918,3.2027,3.2101,3.2096,3.2142,3.2134,3.2145,3.2084,3.2095,3.193,3.1871,3.18,3.1739,3.1695,3.1605,3.1523,3.1502,3.1597,3.1601,3.1538,3.151,3.1524,3.1505,3.1577,3.1532,3.1531,3.1544,3.1589,3.1626,3.1582,3.152,3.1505,3.1541,3.1618,3.1593,3.1516,3.1519,3.1538,3.1517,3.1562,3.1524,3.1464,3.1412,3.1444,3.1447,3.1386,3.1392,3.1402,3.1455,3.1447,3.1422,3.1408,3.1348,3.1385,3.1395,3.1471,3.1522,3.1518,3.1565,3.154,3.1581,3.1544,3.1538,3.1579,3.157,3.166,3.1716,3.1814,3.1946,3.1953,3.1884,3.171,3.1509,3.1348,3.1321,3.1324,3.1212,3.1101,3.105,3.1079,3.1041,3.1022,3.101,3.1027,3.105,3.1072,3.1051,3.1038,3.1068,3.1048,3.0895,3.1253,3.1978,3.3167,3.5155,3.7664,3.9514,3.9833,3.9936,3.9259,3.695,3.4587,3.2799,3.2181,3.1918,3.1728,3.1607,3.1498,3.1355,3.1332,3.1419,3.1355,3.1284,3.1265,3.1203,3.1194,3.1248,3.1215,3.1163,3.1152,3.1309,3.1322,3.1311,3.1228,3.1232,3.1326,3.1294,3.1372,3.1289,3.1271,3.1319,3.1295,3.1295,3.1225,3.1227,3.13,3.1338,3.1319,3.1391,3.1368,3.1416,3.1398,3.1432,3.1419,3.1454,3.1409,3.1425,3.1413,3.1415,3.1444,3.1502,3.1565,3.1557,3.1551,3.1543,3.1671,3.1746,3.178,3.1791,3.1753,3.1843,3.196,3.1991,3.1935,3.1825,3.1816,3.1795,3.1728,3.1561,3.1422,3.1406,3.1422,3.1396,3.1347,3.1236,3.1258,3.1292,3.1362,3.1324,3.1213,3.1237,3.1288,3.1366,3.1337,3.1315,3.1262,3.1331,3.1372,3.1393,3.1335,3.1269,3.1309,3.1354,3.141,3.1333,3.1256,3.127,3.1307,3.1309,3.1216,3.1177,3.1164,3.1211,3.1208,3.1149,3.1028,3.1025,3.1061,3.1043,3.118,3.1225,3.1199,3.1248,3.1264,3.1198,3.1232,3.1192,3.1222,3.1297,3.141,3.1427,3.1488,3.1665,3.167,3.1565,3.1512,3.1357,3.1339,3.1244,3.1123,3.1096,3.0916,3.0926,3.0977,3.0971,3.0954,3.0961,3.0973,3.1014,3.0971,3.0888,3.0945,3.0939,3.0868,3.0829,3.1168,3.1984,3.3156,3.5268,3.6542,3.8805,3.9754,3.9663,3.8729,3.6213,3.3969,3.2223,3.1924,3.1634,3.156,3.1359,3.1279,3.1136,3.1199,3.1177,3.1186,3.1069,3.1084,3.1066,3.1229,3.1241,3.1226,3.1213,3.1287,3.1279,3.129,3.1346,3.138,3.1481,3.1622,3.1596,3.1644,3.1626,3.169,3.1764,3.1829,3.1821,3.1842,3.1933,3.2003,3.2106,3.2099,3.2081,3.2042,3.2174,3.2296,3.2302,3.2316,3.2337,3.2436,3.245,3.2447,3.2466,3.2488,3.2552,3.2549,3.2613,3.2514,3.2568,3.262,3.2695,3.2673,3.2743,3.2805,3.291,3.2956,3.2988,3.2927,3.2929,3.2931,3.2845,3.2707,3.2631,3.2563,3.2506,3.2499,3.2514,3.243,3.2408,3.2351,3.2378,3.2384,3.2407,3.2433,3.2431,3.2479,3.256,3.2541,3.2479,3.2561,3.2603,3.261,3.2611,3.2564,3.2618,3.2655,3.2766,3.266,3.2613,3.2636,3.2592,3.2672,3.2603,3.263,3.2545,3.2542,3.262,3.2589,3.2475,3.2445,3.2531,3.2649,3.2687,3.266,3.2688,3.2731,3.278,3.2851,3.2796,3.2705,3.2782,3.2894,3.3013,3.3124,3.3117,3.3054,3.3019,3.2956,3.2843,3.2727,3.2684,3.2665,3.2623,3.2535,3.2557,3.2431,3.2488,3.2528,3.2561,3.25,3.2583,3.2568,3.2639,3.2614,3.266,3.2579,3.2787,3.343,3.4219,3.5799,3.8007,3.9136,4.0799,4.1545,4.1195,3.9351,3.7176,3.5141,3.352,3.3504,3.3307,3.3384,3.3307,3.3469,3.3376,3.3223,3.3053,3.3178,3.3113,3.3126,3.3112,3.3443,3.3426,3.3474,3.3389,3.337,3.3235,3.333,3.3304,3.327,3.3182,3.319,3.3264,3.3341,3.3566,3.3577,3.3564,3.3638,3.3624,3.3601,3.3532,3.3581,3.3659,3.3855,3.3828,3.3756,3.3674,3.3742,3.3745,3.3778,3.3758,3.3668,3.3702,3.377,3.3841,3.3763,3.3698,3.3727,3.3779,3.3809,3.3841,3.3845,3.3939,3.4041,3.4053,3.4026,3.4047,3.4051,3.409,3.4107,3.4064,3.3901,3.3798,3.3769,3.3743,3.363,3.3557,3.3514,3.3522,3.3537,3.3599,3.3512,3.3481,3.349,3.3623,3.3609,3.3601,3.3591,3.3596,3.3695,3.374,3.3712,3.3717,3.3691,3.3764,3.3797,3.3808,3.378,3.3733,3.3833,3.384,3.3873,3.383,3.3846,3.3907,3.397,3.3972,3.3916,3.3905,3.3926,3.3995,3.4025,3.4035,3.4025,3.4108,3.4147,3.4179,3.4149,3.4169,3.4193,3.421,3.4273,3.4289,3.4301,3.4501,3.453,3.4565,3.4503,3.43,3.4144,3.4136,3.4006,3.394,3.3808,3.3774,3.3796,3.3735,3.3709,3.3608,3.36,3.3673,3.3685,3.3661,3.3662,3.3685,3.3758,3.3597,3.3519,3.3963,3.4835,3.6213,3.8588,4.093,4.1804,4.246,4.2471,4.1036,3.8806,3.6331,3.4692,3.4478,3.4299,3.4174,3.4095,3.3912,3.3818,3.3815,3.381,3.3748,3.3813,3.3802,3.3864,3.381,3.3862,3.3842,3.386,3.3918,3.3917,3.3855,3.3857,3.3847,3.3911,3.3923,3.3954,3.3955,3.3959,3.4005,3.4067,3.4075,3.4072,3.4065,3.4115,3.4231,3.4302,3.4268,3.4276,3.4368,3.4414,3.4433,3.4456,3.4423,3.4446,3.448,3.4463,3.4424,3.4419,3.4406,3.4444,3.4439,3.4427,3.4399,3.4424,3.4503,3.4521,3.4452,3.4453,3.449,3.4576,3.4584,3.4528,3.4461,3.4417,3.4458,3.4367,3.4248,3.4149,3.4082,3.4096,3.4101,3.4093,3.4059,3.4003,3.4026,3.4057,3.4041,3.4039,3.3993,3.4081,3.4136,3.4122,3.4085,3.4112,3.4182,3.4247,3.4302,3.4304,3.4286,3.4313,3.4333,3.4322,3.4284,3.4222,3.4233,3.4185,3.421,3.4209,3.4125,3.416,3.4184,3.4174,3.4138,3.4122,3.4146,3.4148,3.4179,3.4171,3.4241,3.4276,3.4294,3.4366,3.4338,3.4287,3.4353,3.4373,3.4347,3.4423,3.4434,3.4558,3.4676,3.4717,3.4681,3.4577,3.4514,3.4404,3.4292,3.4133,3.4129,3.3994,3.3939,3.3896,3.3855,3.3776,3.3732,3.374,3.381,3.3788,3.3745,3.3783,3.3783,3.3849,3.363,3.3634,3.4237,3.5258,3.6771,3.7917,4.0372,4.237,4.2798,4.2784,4.1176,3.8678,3.637,3.5019,3.4759,3.4452,3.421,3.4113,3.3954,3.3913,3.3878,3.3915,3.3812,3.3827,3.3837,3.3947,3.3979,3.3978,3.3937,3.4052,3.4163,3.4173,3.4126,3.4156,3.416,3.4247,3.4286,3.4283,3.4257,3.4316,3.4409,3.443,3.4434,3.446,3.4412,3.453,3.4563,3.4604,3.4608,3.4642,3.4742,3.4805,3.4829,3.4865,3.4872,3.4949,3.4973,3.5015,3.4965,3.502,3.5081,3.5161,3.5182,3.5134,3.5147,3.5183,3.5279,3.5311,3.5338,3.5373,3.5427,3.5404,3.5391,3.5377,3.529,3.522,3.5146,3.5072,3.4921,3.4787,3.4771,3.4801,3.4751,3.465,3.4635,3.4628,3.4661,3.4665,3.4608,3.4599,3.4628,3.4663,3.4728,3.4682,3.4671,3.4598,3.4689,3.4636,3.4673,3.4609,3.4612,3.4647,3.4732,3.468,3.4619,3.4594,3.4607,3.4641,3.4655,3.4618,3.4588,3.4603,3.4581,3.4519,3.4463,3.4402,3.4471,3.4525,3.4561,3.4523,3.4448,3.4434,3.4518,3.4612,3.4575,3.4524,3.4515,3.4604,3.4652,3.461,3.4511,3.4536,3.4699,3.4755,3.4865,3.4862,3.479,3.4871,3.4881,3.4784,3.4551,3.4383,3.4373,3.4309,3.421,3.4037,3.4016,3.4053,3.4036,3.4016,3.3945,3.3884,3.3894,3.3954,3.3952,3.3975,3.3833,3.3737,3.3917,3.4558,3.5395,3.6788,3.9162,4.1653,4.2563,4.2572,4.1674,3.9288,3.6984,3.5285,3.4781,3.4465,3.4259,3.422,3.4058,3.4001,3.3953,3.3903,3.3897,3.3915,3.3955,3.3943,3.3906,3.4019,3.4028,3.4082,3.4015,3.3999,3.4026,3.4042,3.4041,3.4034,3.408,3.4141,3.4243,3.4262,3.4205,3.4221,3.4249,3.4331,3.4306,3.4435,3.4444,3.4537,3.4599,3.4663,3.4681,3.4625,3.4738,3.4871,3.4914,3.4895,3.4898,3.4966,3.4999,3.5021,3.502,3.5029,3.5018,3.5052,3.5146,3.5188,3.5205,3.5207,3.5294,3.5327,3.534,3.5387,3.5496,3.5551,3.5536,3.5514,3.542,3.5366,3.5355,3.5325,3.539,3.5217,3.518,3.5165,3.5178,3.5165,3.5077,3.5069,3.5103,3.5161,3.5194,3.5162,3.5166,3.5184,3.5214,3.5258,3.5235,3.5234,3.5206,3.531,3.5321,3.5289,3.5257,3.5334,3.5399,3.5391,3.5344,3.5362,3.5348,3.541,3.5361,3.5304,3.5291,3.527,3.5316,3.5341,3.5371,3.534,3.5352,3.5477,3.5615,3.5569,3.5562,3.5596,3.5601,3.5754,3.5778,3.5662,3.5659,3.5729,3.5892,3.6037,3.6099,3.6029,3.6086,3.6129,3.6084,3.5899,3.5752,3.568,3.5713,3.5635,3.547,3.551,3.5405,3.5502,3.5498,3.5438,3.5458,3.5423,3.5513,3.5629,3.5568,3.5515,3.5302,3.5444,3.6094,3.6969,3.8571,4.1016,4.3167,4.4204,4.4218,4.2918,4.0752,3.8591,3.6821,3.6356,3.6253,3.6067,3.601,3.5992,3.5962,3.5815,3.5777,3.5706,3.5753,3.5743,3.5807,3.5778,3.5727,3.5802,3.5828,3.5831,3.5771,3.5745,3.5829,3.5823,3.5965,3.5981,3.5985,3.6028,3.6134,3.6199,3.6258,3.6243,3.6398,3.639,3.6472,3.6398,3.6533,3.6593,3.6681,3.671,3.6617,3.6535,3.6579,3.6611,3.6635,3.6595,3.6527,3.6492,3.6522,3.6657,3.6552,3.6592,3.6681,3.6658,3.6584,3.6575,3.6527,3.6552,3.6623,3.6681,3.6654,3.6668,3.6645,3.6715,3.6688,3.6629,3.6469,3.6349,3.628,3.6229,3.6176,3.6118,3.596,3.6016,3.6014,3.5976,3.5908,3.5865,3.5855,3.5893,3.59,3.5924,3.5816,3.5942,3.5961,3.5937,3.597,3.5937,3.5905,3.5964,3.5938,3.5897,3.5817,3.5865,3.5854,3.586,3.5854,3.5848,3.585,3.5841,3.5846,3.5731,3.5705,3.565,3.5643,3.562,3.5624,3.5559,3.5548,3.562,3.5631,3.5651,3.5584,3.5496,3.5619,3.5541,3.551,3.545,3.5428,3.5515,3.5668,3.5612,3.5574,3.5522,3.544,3.5339,3.5121,3.4927,3.4848,3.4752,3.4578,3.4503,3.4419,3.4287,3.429,3.4254,3.4281,3.4158,3.413,3.4191,3.4211,3.4205,3.4114,3.3908,3.423,3.4855,3.5925,3.7872,4.0092,4.1927,4.2552,4.2432,4.0835,3.8603,3.6239,3.4653,3.4569,3.429,3.4121,3.3919,3.3893,3.3809,3.367,3.3638,3.3503,3.3539,3.3573,3.3647,3.3561,3.3508,3.3502,3.353,3.357,3.351,3.3445,3.3416,3.3452,3.3416,3.3352,3.3292,3.3263,3.3265,3.3358,3.3309,3.3329,3.3289,3.3356,3.3432,3.3425,3.3417,3.345,3.3585,3.3543,3.3555,3.352,3.3537,3.3676,3.3698,3.363,3.3589,3.3596,3.3573,3.36,3.3601,3.3509,3.3439,3.3514,3.3542,3.3508,3.3465,3.3463,3.3502,3.3533,3.3544,3.3502,3.3415,3.34,3.3407,3.3329,3.3207,3.3029,3.2967,3.2913,3.2865,3.2796,3.2716,3.2644,3.2594,3.2606,3.2576,3.2469,3.2485,3.2531,3.2537,3.2557,3.2489,3.2455,3.2519,3.2527,3.2519,3.2484,3.2482,3.2475,3.2527,3.2482,3.2378,3.2354,3.2373,3.2335,3.2334,3.2193,3.22,3.2195,3.2233,3.2154,3.2083,3.2034,3.1988,3.2043,3.2036,3.1956,3.1892,3.1895,3.1908,3.1893,3.1882,3.1876,3.1877,3.1916,3.1867,3.1794,3.1838,3.1808,3.1846,3.1822,3.1844,3.1888,3.1867,3.202,3.2028,3.2012,3.1931,3.1735,3.1591,3.1537,3.137,3.1275,3.111,3.1026,3.1011,3.0964,3.092,3.0813,3.0817,3.0866,3.0843,3.0753,3.07,3.0743,3.0766,3.0509,3.0498,3.1161,3.2222,3.3667,3.6125,3.8582,3.937,3.9657,3.9097,3.666,3.4155,3.3114,3.1872,3.1599,3.128,3.1031,3.0967,3.0705,3.0689,3.0559,3.0618,3.0478,3.0516,3.0413,3.0444,3.0379,3.0406,3.029,3.0417,3.04,3.0423,3.0387,3.038,3.0358,3.0374,3.041,3.0435,3.035,3.0412,3.0422,3.0443,3.0428,3.037,3.0367,3.0456,3.0495,3.0529,3.0534,3.0669,3.0669,3.0765,3.0726,3.0742,3.0788,3.0754,3.0822,3.0837,3.0808,3.0768,3.0875,3.0833,3.0831,3.077,3.0826,3.0868,3.0924,3.096,3.0989,3.0941,3.0999,3.1102,3.1105,3.1038,3.1013,3.0937,3.0955,3.0931,3.084,3.0725,3.0655,3.065,3.0595,3.0456,3.0414,3.0441,3.0463,3.0462,3.0484,3.0426,3.0376,3.0387,3.0478,3.0471,3.04,3.0396,3.0452,3.0482,3.0512,3.0424,3.0428,3.0402,3.0438,3.0343,3.0277,3.0267,3.03,3.0314,3.0395,3.0307,3.0252,3.025,3.0353,3.0241,3.0181,3.0149,3.0106,3.0159,3.0166,3.0162,3.0053,3.0094,3.013,3.004,2.9998,2.9923,2.9959,3.0072,3.0142,3.0073,3.0045,3.0052,3.0041,3.0118,3.002,2.9958,3.0005,3.0094,3.0233,3.0357,3.0346,3.0296,3.0292,3.0378,3.0213,3.0069,2.9933,2.9944,2.9887,2.9763,2.9693,2.9599,2.9543,2.9586,2.9595,2.9533,2.945,2.9468,2.9556,2.9555,2.9574,2.9348,2.945,3.0008,3.0377,3.132,3.3106,3.5519,3.7618,3.8148,3.7924,3.6319,3.3949,3.1808,3.0434,3.0235,2.991,2.9722,2.9678,2.9578,2.9529,2.9434,2.9395,2.9403,2.94,2.9324,2.9328,2.9276,2.935,2.9391,2.9358,2.9364,2.9286,2.9319,2.9464,2.9481,2.9418,2.9401,2.9425,2.9545,2.9557,2.9584,2.9555,2.9565,2.9621,2.9699,2.9731,2.9715,2.9752,2.9856,2.9899,2.994,2.9882,2.9912,2.998,3.0065,3.0088,3.0073,3.0088,3.0138,3.0163,3.0193,3.0215,3.0171,3.0184,3.0194,3.0164,3.0227,3.0252,3.0321,3.04,3.0444,3.0438,3.0445,3.0454,3.0467,3.0427,3.0348,3.0279,3.0278,3.0294,3.0244,3.0154,3.0113,3.0097,3.0108,3.0148,3.0032,2.9974,3.0032,3.0116,3.0179,3.019,3.0136,3.0113,3.0211,3.0225,3.0233,3.0215,3.0173,3.0223,3.0302,3.0288,3.0307,3.0348,3.0299,3.0329,3.0379,3.0344,3.0255,3.0315,3.0363,3.037,3.0307,3.0269,3.0307,3.0287,3.0328,3.0333,3.0284,3.0273,3.0295,3.0284,3.0291,3.0262,3.037,3.0454,3.048,3.0517,3.0452,3.0464,3.0561,3.0574,3.0607,3.0685,3.0626,3.0751,3.0888,3.0963,3.0956,3.0921,3.087,3.076,3.0606,3.0499,3.0502,3.0434,3.0399,3.0312,3.0246,3.0244,3.0307,3.0342,3.0365,3.028,3.0309,3.0345,3.0422,3.0417,3.0228,3.0238,3.0845,3.1769,3.3174,3.5378,3.7471,3.8638,3.8902,3.8144,3.6063,3.3763,3.1861,3.1057,3.1105,3.0994,3.092,3.0859,3.0775,3.0723,3.0661,3.0643,3.0552,3.0618,3.0694,3.0684,3.0654,3.0651,3.0738,3.0784,3.0829,3.0815,3.0777,3.0868,3.0889,3.0867,3.083,3.0837,3.0872,3.0961,3.0967,3.0974,3.0958,3.095,3.0999,3.1079,3.1022,3.1068,3.1115,3.1168,3.1208,3.1105,3.1107,3.1188,3.1235,3.1227,3.1238,3.1204,3.1218,3.1241,3.129,3.1235,3.1184,3.1209,3.1203,3.1239,3.1313,3.1302,3.1338,3.1459,3.1479,3.1543,3.1453,3.1421,3.1436,3.1487,3.1433,3.1314,3.117,3.1123,3.1086,3.104,3.0931,3.0854,3.0866,3.091,3.0946,3.0895,3.0874,3.0834,3.0926,3.0876,3.0864,3.0876,3.0923,3.0917,3.0947,3.0919,3.091,3.0893,3.0962,3.0915,3.084,3.0812,3.0756,3.086,3.0805,3.0793,3.0764,3.0773,3.0796,3.0832,3.0771,3.0675,3.0654,3.0623,3.0673,3.0629,3.0547,3.0564,3.0601,3.0637,3.0626,3.0565,3.0582,3.0675,3.0833,3.0868,3.0792,3.077,3.0757,3.0845,3.0889,3.0801,3.0716,3.0756,3.083,3.0937,3.1045,3.1017,3.0995,3.1046,3.0992,3.0743,3.0604,3.0488,3.0475,3.0341,3.0297,3.0253,3.0173,3.0235,3.0294,3.0311,3.0223,3.0205,3.0249,3.0265,3.0222,3.0211,2.9957,2.9995,3.0659,3.1524,3.2909,3.5347,3.7961,3.9192,3.9394,3.9286,3.7618,3.5125,3.284,3.1391,3.1088,3.064,3.0476,3.0421,3.0271,3.0142,3.0077,3.0017,3.0007,3.0025,2.9948,2.9899,2.9888,2.9919,2.9956,2.9918,2.9826,2.9814,2.9859,2.9856,2.9861,2.9792,2.969,2.9737,2.9823,2.9771,2.9733,2.9765,2.9799,2.9807,2.9823,2.9825,2.9782,2.9849,2.985,2.9886,2.9862,2.9847,2.9873,2.994,2.9989,2.9998,2.9915,2.994,3.0021,3.0024,3.0016,2.9986,2.9982,3.0016,2.9996,3.0036,2.9957,2.9937,3.0066,3.0201,3.0214,3.0182,3.0182,3.0197,3.0242,3.0233,3.0167,3.0072,3.0038,3.0016,2.9939,2.9822,2.976,2.9732,2.9723,2.9715,2.9681,2.9668,2.9611,2.9688,2.9718,2.9713,2.972,2.9701,2.9791,2.9814,2.974,2.9731,2.975,2.9805,2.9864,2.9851,2.9842,2.9816,2.9838,2.9845,2.9831,2.9785,2.974,2.9767,2.9793,2.9745,2.9713,2.968,2.9727,2.9686,2.9674,2.9697,2.9716,2.9779,2.9772,2.9727,2.9745,2.9608,2.9641,2.9665,2.966,2.9644,2.9705,2.9843,2.987,2.984,2.9801,2.9755,2.9792,2.9767,2.9759,2.9774,2.9796,2.9957,3.012,3.0121,3.0062,2.9972,2.9962,2.9906,2.9721,2.961,2.9562,2.9397,2.9324,2.932,2.9297,2.9234,2.9184,2.9238,2.9215,2.9182,2.9164,2.919,2.9196,2.9252,2.9088,2.8975,2.9458,3.0348,3.1618,3.3822,3.6241,3.7598,3.7938,3.7522,3.5363,3.2934,3.0984,3.0098,2.9971,2.9679,2.9568,2.9496,2.9447,2.9361,2.9351,2.929,2.9225,2.9189,2.9242,2.9269,2.924,2.9253,2.9258,2.93,2.9373,2.9295,2.9337,2.9359,2.9427,2.9411,2.9417,2.935,2.9336,2.9469,2.9507,2.9506,2.9525,2.95,2.9586,2.9668,2.9658,2.9634,2.9746,2.9838,2.9899,2.9942,2.9934,2.9942,3.0037,3.0066,3.0027,3.0009,2.995,2.9963,3.0022,3.0024,3.002,3.0017,3.0044,3.01,3.0158,3.0164,3.0223,3.0303,3.0435,3.0495,3.0511,3.0465,3.0435,3.0455,3.0442,3.0349,3.0276,3.0238,3.0205,3.0209,3.0052,2.9993,2.9954,3.006,3.0025,3.0056,3.0037,3.0073,3.0142,3.0157,3.0181,3.0202,3.0154,3.0148,3.0267,3.031,3.0195,3.0158,3.0177,3.0247,3.0325,3.0275,3.0263,3.0325,3.0361,3.041,3.0431,3.0439,3.0329,3.0402,3.0377,3.0398,3.0385,3.0354,3.0366,3.0442,3.0409,3.0359,3.0353,3.0405,3.038,3.039,3.0379,3.0373,3.0508,3.0642,3.0609,3.0548,3.0523,3.0553,3.0626,3.0635,3.0598,3.057,3.0749,3.0854,3.0983,3.107,3.0964,3.0944,3.1012,3.091,3.0754,3.0585,3.0569,3.0522,3.0445,3.0408,3.0383,3.0402,3.0435,3.0469,3.044,3.0395,3.046,3.0463,3.0557,3.0598,3.0502,3.0374,3.0833,3.1684,3.275,3.4769,3.6999,3.8657,3.9253,3.9153,3.7944,3.5816,3.3643,3.1916,3.1357,3.1373,3.1266,3.1223,3.1135,3.1109,3.1103,3.1015,3.1039,3.1034,3.1099,3.101,3.1111,3.1196,3.1244,3.1256,3.1219,3.1164,3.1193,3.1244,3.1241,3.1255,3.1286,3.1367,3.1568,3.1614,3.1664,3.1672,3.1654,3.1784,3.1907,3.1953,3.1826,3.1811,3.181,3.1837,3.1897,3.1862,3.1871,3.19,3.1991,3.1992,3.1922,3.1928,3.1977,3.2,3.2036,3.1979,3.1907,3.1886,3.2,3.1954,3.1968,3.1949,3.1916,3.2067,3.2138,3.2149,3.2163,3.2216,3.2232,3.2209,3.2202,3.204,3.1975,3.19,3.1827,3.1735,3.1626,3.1596,3.1658,3.1654,3.1639,3.1541,3.1551,3.1554,3.1609,3.1574,3.1535,3.1501,3.1532,3.1635,3.1609,3.1627,3.1627,3.1694,3.1724,3.171,3.1706,3.1605,3.162,3.177,3.1699,3.167,3.1647,3.1574,3.1637,3.1676,3.1544,3.1493,3.1471,3.1503,3.1517,3.142,3.1299,3.1322,3.1308,3.132,3.1341,3.1335,3.1386,3.1444,3.1488,3.1492,3.1478,3.1499,3.1543,3.1584,3.1553,3.1563,3.1626,3.176,3.1896,3.1827,3.1725,3.1628,3.1528,3.1472,3.1423,3.1343,3.1159,3.1102,3.1058,3.1036,3.0959,3.0904,3.0897,3.0939,3.0893,3.0846,3.0864,3.0873,3.0859,3.0665,3.0687,3.1255,3.2168,3.2838,3.486,3.7451,3.9106,3.9638,3.9436,3.7777,3.5302,3.3002,3.1605,3.1568,3.1208,3.1125,3.0827,3.0788,3.078,3.0836,3.0744,3.0738,3.072,3.0782,3.0817,3.0895,3.0861,3.0894,3.0896,3.1002,3.0988,3.0956,3.0959,3.0998,3.108,3.1097,3.105,3.1029,3.1027,3.1121,3.117,3.1152,3.1116,3.1096,3.119,3.1287,3.124,3.1128,3.1165,3.1265,3.129,3.1306,3.1374,3.1354,3.146,3.1477,3.1541,3.1508,3.1499,3.1496,3.152,3.1548,3.1578,3.1506,3.1506,3.1652,3.1722,3.1671,3.1714,3.1728,3.1776,3.174,3.1786,3.1761,3.1658,3.1558,3.154,3.1566,3.1534,3.1547,3.1499,3.1471,3.1325,3.1261,3.1191,3.1261,3.1377,3.1312,3.1261,3.1317,3.1341,3.1302,3.1338,3.1259,3.1269,3.1305,3.1326,3.1344,3.1344,3.1238,3.1258,3.1318,3.1269,3.1244,3.1295,3.1215,3.1394,3.1398,3.14,3.1314,3.1405,3.1534,3.1492,3.1465,3.1499,3.16,3.1624,3.1592,3.1631,3.1667,3.1619,3.1705,3.1732,3.1768,3.1796,3.1783,3.1852,3.1853,3.1825,3.1768,3.1702,3.1623,3.1534,3.1558,3.1606,3.1669,3.1735,3.1722,3.1632,3.158,3.146,3.1288,3.1238,3.1158,3.1023,3.0697,3.0611,3.0567,3.0502,3.0419,3.0411,3.0357,3.0396,3.0413,3.0332,3.0291,3.0326,3.0368,3.0154,3.0093,3.0644,3.1495,3.2793,3.496,3.7407,3.8721,3.9162,3.8641,3.6407,3.3974,3.2051,3.1229,3.109,3.0692,3.0662,3.0464,3.0285,3.0272,3.0315,3.0238,3.0168,3.0107,3.0125,3.0197,3.0103,3.0091,3.0038,3.0121,3.0113,3.0142,3.0145,3.0112,3.0231,3.0238,3.0247,3.0219,3.0211,3.024,3.0359,3.0348,3.0309,3.0306,3.0326,3.0427,3.0378,3.0431,3.0389,3.04,3.0411,3.0528,3.0422,3.0494,3.0519,3.0498,3.0472,3.0567,3.0499,3.0458,3.0542,3.0574,3.0576,3.0575,3.0616,3.0639,3.0727,3.0802,3.0823,3.0927,3.1026,3.1156,3.1176,3.1147,3.1085,3.1094,3.1088,3.1033,3.0992,3.0903,3.0828,3.0799,3.0727,3.0686,3.0623,3.0627,3.062,3.0675,3.0624,3.0633,3.0617,3.0656,3.0709,3.07,3.0747,3.0719,3.093,3.0991,3.0936,3.0972,3.0985,3.1037,3.1069,3.1052,3.1013,3.1046,3.1068,3.1059,3.1001,3.0933,3.091,3.0943,3.094,3.0924,3.0881,3.0828,3.084,3.0923,3.1003,3.1026,3.108,3.1101,3.119,3.1119,3.1114,3.1139,3.1072,3.1183,3.1268,3.1336,3.1397,3.1595,3.1643,3.1535,3.1506,3.1382,3.1195,3.1123,3.1087,3.0943,3.0814,3.0619,3.0569,3.0552,3.0528,3.0503,3.0426,3.0517,3.0513,3.0533,3.0507,3.0464,3.0481,3.0409,3.0421,3.0895,3.1724,3.3117,3.547,3.8019,3.929,3.9524,3.8835,3.6636,3.4397,3.2596,3.1944,3.1818,3.1732,3.1685,3.1727,3.1691,3.1586,3.1595,3.1553,3.157,3.1586,3.1669,3.1649,3.1688,3.1742,3.174,3.1804,3.1844,3.1828,3.1864,3.1893,3.1862,3.2012,3.2164,3.2138,3.2185,3.2149,3.2221,3.2341,3.2383,3.244,3.2423,3.2596,3.2616,3.264,3.2599,3.2595,3.263,3.2678,3.2639,3.264,3.2561,3.253,3.261,3.2628,3.2528,3.2433,3.2553,3.2651,3.2677,3.2545,3.2526,3.2522,3.2642,3.2727,3.2882,3.2883,3.2858,3.3046,3.3054,3.3146,3.309,3.291,3.2822,3.2851,3.2881,3.2664,3.262,3.263,3.2704,3.2512,3.2379,3.2273,3.2368,3.2458,3.2337,3.2261,3.2263,3.227,3.2354,3.2491,3.2344,3.2351,3.2379,3.2409,3.2566,3.2474,3.2401,3.253,3.2691,3.2722,3.2742,3.2797,3.2736,3.2793,3.2839,3.2741,3.2707,3.2758,3.2795,3.2834,3.2896,3.2915,3.2855,3.2974,3.2951,3.295,3.297,3.3012,3.3098,3.3147,3.3145,3.3235,3.3258,3.3393,3.3372,3.3487,3.3345,3.3359,3.3217,3.3144,3.3064,3.3015,3.3022,3.2905,3.2984,3.2951,3.2882,3.2817,3.3008,3.3048,3.3116,3.3058,3.3158,3.318,3.3188,3.2981,3.3048,3.3602,3.4339,3.5806,3.8115,4.0086,4.1311,4.154,4.0928,3.8982,3.6744,3.4702,3.3734,3.388,3.3844,3.3837,3.3651,3.3676,3.3656,3.3769,3.3736,3.3724,3.3707,3.3888,3.397,3.394,3.3848,3.3777,3.3745,3.3758,3.375,3.3747,3.3758,3.3815,3.3887,3.393,3.3858,3.3885,3.3876,3.3998,3.4011,3.4041,3.3993,3.3945,3.4058,3.4097,3.4124,3.405,3.4117,3.4184,3.4382,3.4335,3.4245,3.4328,3.4534,3.4605,3.4597,3.4551,3.467,3.4783,3.4863,3.4827,3.4843,3.485,3.4915,3.4976,3.4978,3.4983,3.491,3.5009,3.512,3.507,3.502,3.4955,3.4923,3.4966,3.4888,3.4834,3.4665,3.4586,3.4643,3.4619,3.4623,3.4601,3.4525,3.452,3.4576,3.4511,3.4491,3.4509,3.4586,3.4615,3.4646,3.4561,3.4515,3.4592,3.4663,3.4724,3.4642,3.466,3.476,3.4783,3.4789,3.4731,3.4752,3.4712,3.468,3.4604,3.4552,3.4501,3.4478,3.4528,3.459,3.4636,3.4531,3.4528,3.4611,3.4623,3.4711,3.4572,3.454,3.4641,3.4685,3.4624,3.4731,3.4729,3.4775,3.4703,3.4561,3.4323,3.4177,3.4139,3.4075,3.41,3.3908,3.3777,3.3755,3.3826,3.3824,3.3807,3.3733,3.3772,3.3793,3.3906,3.3819,3.3814,3.3633,3.3627,3.4143,3.5083,3.5775,3.7957,4.0508,4.2321,4.2885,4.264,4.0911,3.8475,3.6242,3.479,3.4648,3.4267,3.4218,3.4048,3.3976,3.3746,3.3758,3.3705,3.3761,3.374,3.3619,3.3613,3.3782,3.3859,3.3922,3.386,3.3912,3.3953,3.4076,3.4007,3.4031,3.3947,3.403,3.4113,3.4161,3.418,3.4129,3.4224,3.4317,3.4344,3.4382,3.4296,3.4317,3.4405,3.4476,3.4443,3.436,3.4374,3.4466,3.4469,3.448,3.4478,3.449,3.4571,3.4591,3.4591,3.4615,3.4644,3.4638,3.4607,3.462,3.4557,3.454,3.4707,3.4779,3.4869,3.4775,3.4771,3.4838,3.4892,3.48,3.4669,3.4581,3.4607,3.4526,3.4355,3.4288,3.4217,3.4179,3.4163,3.4042,3.4038,3.4005,3.4076,3.4122,3.4127,3.408,3.4081,3.4131,3.4218,3.4248,3.4293,3.4272,3.4325,3.4393,3.4448,3.4456,3.4436,3.4396,3.4418,3.4422,3.4454,3.4361,3.4307,3.4346,3.4375,3.4272,3.4208,3.4185,3.4208,3.4294,3.4265,3.4162,3.4252,3.4205,3.4207,3.4236,3.4138,3.4026,3.4104,3.4187,3.4315,3.4424,3.4426,3.4377,3.4463,3.4283,3.4045,3.3847,3.3789,3.3712,3.3545,3.3396,3.3375,3.3308,3.3294,3.3214,3.3206,3.3185,3.3052,3.3217,3.3311,3.3374,3.3272,3.3063,3.3038,3.3608,3.4444,3.5666,3.7903,4.0466,4.1897,4.2105,4.2056,4.0741,3.8282,3.5937,3.4368,3.4037,3.3668,3.3521,3.3411,3.3205,3.3088,3.3017,3.3032,3.3036,3.2996,3.3008,3.2996,3.307,3.3104,3.3162,3.3139,3.3152,3.3158,3.3201,3.325,3.3298,3.322,3.3271,3.3286,3.3358,3.3381,3.3321,3.3388,3.3413,3.3466,3.3451,3.3421,3.3439,3.3465,3.3568,3.3541,3.355,3.3573,3.3644,3.3705,3.3627,3.3607,3.3588,3.3733,3.3721,3.3708,3.3771,3.3763,3.3794,3.3856,3.3872,3.3888,3.3844,3.391,3.3935,3.4002,3.4011,3.4001,3.4068,3.4144,3.4013,3.3997,3.3875,3.3784,3.3785,3.3681,3.3575,3.3425,3.3411,3.3412,3.3382,3.3321,3.3305,3.3212,3.3227,3.3283,3.3348,3.3384,3.3348,3.3446,3.3455,3.3442,3.3436,3.3451,3.3499,3.3512,3.3608,3.3567,3.3545,3.3573,3.3612,3.3632,3.362,3.3569,3.3563,3.363,3.3658,3.3588,3.3519,3.3541,3.3608,3.375,3.3651,3.3586,3.3633,3.3705,3.3764,3.3648,3.3662,3.372,3.3832,3.3856,3.3917,3.4009,3.409,3.4103,3.415,3.4,3.38,3.3639,3.3707,3.374,3.3501,3.3384,3.3414,3.3406,3.3479,3.3473,3.3436,3.3346,3.3474,3.3497,3.3543,3.3482,3.3499,3.3346,3.3348,3.3803,3.4602,3.5917,3.821,4.0758,4.2173,4.2499,4.1899,3.9733,3.8554,3.6292,3.4705,3.4553,3.4131,3.4089,3.3938,3.388,3.3585,3.365,3.3621,3.3708,3.3579,3.3664,3.3612,3.3649,3.368,3.3778,3.3595,3.3616,3.3642,3.3789,3.3769,3.3799,3.3755,3.3795,3.3817,3.3875,3.3785,3.3774,3.3762,3.3866,3.3876,3.3875,3.3802,3.3903,3.3911,3.3923,3.3902,3.3889,3.3929,3.4001,3.4047,3.401,3.3954,3.3992,3.4031,3.4047,3.4155,3.4094,3.411,3.4179,3.425,3.4203,3.4256,3.42,3.4276,3.4331,3.4397,3.4492,3.4503,3.4516,3.4586,3.4555,3.4419,3.4276,3.4218,3.4188,3.4033,3.3876,3.3755,3.3768,3.3672,3.361,3.3592,3.3476,3.3439,3.3589,3.3616,3.3584,3.3574,3.3608,3.3653,3.3715,3.3635,3.3566,3.3715,3.3745,3.3731,3.3754,3.3665,3.3546,3.3549,3.3593,3.3525,3.3486,3.3439,3.3455,3.3445,3.3409,3.3309,3.3286,3.3278,3.3281,3.3323,3.3219,3.3159,3.3236,3.3334,3.3328,3.3377,3.3314,3.339,3.3427,3.3443,3.3377,3.3367,3.3334,3.3363,3.3415,3.3514,3.3509,3.3559,3.3625,3.3538,3.3393,3.3191,3.3039,3.3001,3.2969,3.2808,3.2609,3.2584,3.2641,3.2657,3.2623,3.2654,3.2624,3.2709,3.279,3.2771,3.2731,3.2798,3.2797,3.2747,3.3163,3.3831,3.4957,3.6959,3.9357,4.0987,4.1471,4.1352,4.0228,3.812,3.5837,3.3881,3.3404,3.3393,3.3339,3.3282,3.3124,3.2963,3.29,3.2982,3.2987,3.302,3.2955,3.3034,3.3058,3.3057,3.2972,3.2917,3.2894,3.2966,3.2966,3.297,3.2999,3.3081,3.3119,3.3184,3.314,3.3042,3.3049,3.3128,3.3176,3.3082,3.2997,3.2956,3.3009,3.314,3.3098,3.304,3.3035,3.3089,3.3081,3.3121,3.3097,3.3084,3.3105,3.3146,3.3128,3.3136,3.3056,3.3046,3.3167,3.3107,3.3013,3.2923,3.297,3.3005,3.3053,3.3078,3.3029,3.302,3.3149,3.3256,3.3107,3.298,3.2887,3.2839,3.2782,3.2669,3.258,3.2453,3.2519,3.243,3.2276,3.222,3.2238,3.2233,3.2367,3.2345,3.2233,3.2245,3.2264,3.2315,3.2395,3.2365,3.2378,3.242,3.239,3.243,3.2419,3.2402,3.2425,3.2516,3.2537,3.245,3.2374,3.2341,3.2292,3.2347,3.2307,3.2247,3.2211,3.2179,3.2194,3.2084,3.1988,3.197,3.2056,3.2005,3.2103,3.2082,3.2142,3.2116,3.2146,3.2213,3.2134,3.211,3.2177,3.2163,3.2157,3.2112,3.2113,3.2212,3.2234,3.2217,3.2114,3.199,3.1817,3.1786,3.1649,3.1488,3.1456,3.1338,3.129,3.1277,3.1246,3.1142,3.119,3.1182,3.1143,3.1148,3.116,3.1101,3.1145,3.1011,3.0901,3.1353,3.2087,3.3491,3.5619,3.6801,3.8548,3.9403,3.9347,3.83,3.6077,3.3757,3.1889,3.1703,3.1574,3.1436,3.1251,3.1177,3.1119,3.1151,3.1063,3.1028,3.1025,3.12,3.1163,3.1209,3.1193,3.1255,3.1245,3.1329,3.1278,3.1252,3.1298,3.1294,3.1355,3.1382,3.1288,3.1282,3.1206,3.1331,3.1288,3.1286,3.122,3.126,3.1357,3.1375,3.1366,3.129,3.1318,3.1384,3.1518,3.1513,3.1469,3.1422,3.1466,3.1583,3.1581,3.1577,3.1448,3.1528,3.1573,3.1514,3.149,3.1424,3.146,3.1491,3.1549,3.1544,3.1519,3.1532,3.1642,3.1602,3.1523,3.1396,3.1389,3.1334,3.1245,3.1143,3.1027,3.094,3.0942,3.0947,3.0812,3.0757,3.0687,3.0722,3.0801,3.0714,3.0762,3.0754,3.0803,3.084,3.0838,3.0811,3.0837,3.0837,3.0918,3.0847,3.0824,3.0782,3.0781,3.0806,3.0779,3.0744,3.0686,3.0677,3.0753,3.0704,3.0592,3.0447,3.0462,3.0489,3.0478,3.0502,3.038,3.0355,3.0365,3.0333,3.0246,3.0222,3.0221,3.0283,3.0316,3.0217,3.0203,3.0179,3.0234,3.0257,3.0209,3.0277,3.0359,3.0369,3.0386,3.0388,3.0376,3.0285,3.0314,3.0345,3.0322,3.0283,3.0249,3.0395,3.0418,3.036,3.0309,3.0131,3.0033,3.0003,2.9927,2.9821,2.9638,2.9589,2.9597,2.9594,2.9556,2.9449,2.9466,2.9454,2.9483,2.9431,2.9339,2.9351,2.9373,2.9102,2.9194,2.9712,3.072,3.2209,3.4592,3.6939,3.7714,3.7889,3.7247,3.4954,3.2546,3.0761,3.0195,3.0105,2.978,2.9584,2.9438,2.9308,2.9156,2.9172,2.9048,2.8982,2.8997,2.9068,2.9091,2.9151,2.9056,2.9037,2.9111,2.9131,2.9154,2.91,2.9038,2.9082,2.9133,2.9172,2.9118,2.9075,2.9077,2.9111,2.916,2.916,2.9067,2.9066,2.914,2.9156,2.9142,2.9094,2.9152,2.9225,2.925,2.9328,2.9286,2.9234,2.9354,2.9388,2.9429,2.9441,2.9389,2.9386,2.943,2.9438,2.9325,2.9309,2.9325,2.9434,2.9415,2.946,2.9483,2.955,2.9575,2.9646,2.9567,2.9491,2.9435,2.9411,2.9338,2.9229,2.9122,2.9035,2.8976,2.8909,2.8801,2.8711,2.8708,2.8822,2.8797,2.8704,2.8701,2.8708,2.8768,2.8812,2.8783,2.8745,2.8664,2.8696,2.8719,2.8707,2.8633,2.8543,2.8532,2.8596,2.8586,2.8588,2.8499,2.8562,2.8604,2.8554,2.8499,2.8407,2.8448,2.849,2.8487,2.8382,2.8376,2.8374,2.8378,2.8287,2.8203,2.8095,2.8127,2.8182,2.8158,2.809,2.8034,2.7992,2.8056,2.8025,2.7983,2.7929,2.7875,2.7913,2.7952,2.7967,2.7927,2.7881,2.7988,2.8139,2.8177,2.8092,2.8099,2.8153,2.8214,2.8128,2.806,2.8032,2.8097,2.8218,2.8317,2.8355,2.8357,2.8364,2.8339,2.8298,2.8159,2.7977,2.7895,2.7916,2.7787,2.7687,2.7554,2.759,2.763,2.7594,2.7498,2.7451,2.7427,2.7409,2.7473,2.7441,2.7352,2.7094,2.7317,2.794,2.889,3.0398,3.2718,3.4959,3.574,3.5765,3.4804,3.2554,3.0303,2.8702,2.8351,2.8182,2.7886,2.7758,2.7644,2.7538,2.7394,2.7315,2.7345,2.7352,2.7329,2.7345,2.7314,2.7304,2.7369,2.7305,2.7278,2.7206,2.7201,2.7215,2.7074,2.7105,2.6989,2.7,2.7078,2.7124,2.7062,2.7022,2.7078,2.7148,2.7192,2.716,2.7073,2.7121,2.7232,2.7272,2.7314,2.7246,2.723,2.7329,2.7398,2.7422,2.7388,2.7383,2.7459,2.7506,2.7486,2.7372,2.7288,2.7389,2.742,2.7501,2.7441,2.7531,2.76,2.7718,2.778,2.7783,2.783,2.7857,2.7955,2.7928,2.7857,2.7782,2.776,2.7753,2.7697,2.7624,2.753,2.7431,2.7508,2.7451,2.7431,2.7313,2.7358,2.7411,2.7477,2.7411,2.7377,2.7398,2.743,2.7534,2.7535,2.7488,2.7457,2.75,2.7539,2.752,2.7409,2.7416,2.7411,2.7419,2.7446,2.7354,2.7343,2.7378,2.7396,2.7415,2.735,2.7261,2.7275,2.7304,2.727,2.7215,2.7143,2.711,2.7163,2.719,2.7125,2.7053,2.7053,2.7149,2.7119,2.7116,2.7093,2.7073,2.7101,2.7137,2.7215,2.7128,2.7035,2.7103,2.714,2.7148,2.7195,2.7265,2.7295,2.7416,2.7339,2.7342,2.7282,2.7328,2.7418,2.7484,2.7469,2.7535,2.7623,2.7705,2.7754,2.766,2.76,2.7374,2.7315,2.7235,2.7148,2.6938,2.6884,2.6914,2.69,2.6868,2.6851,2.6931,2.6944,2.7046,2.7027,2.7006,2.6926,2.7024,2.6873,2.6843,2.7304,2.8041,2.947,3.1826,3.3958,3.4954,3.5134,3.4291,3.2335,3.0199,2.8189,2.7562,2.7567,2.7492,2.7354,2.7172,2.7108,2.7073,2.7104,2.712,2.7077,2.6971,2.7085,2.7146,2.7233,2.7128,2.7196,2.7136,2.7203,2.7187,2.7172,2.7117,2.7182,2.7275,2.7375,2.7374,2.7424,2.7387,2.75,2.7529,2.756,2.7551,2.7588,2.7641,2.771,2.7609,2.7665,2.7688,2.7757,2.7838,2.7837,2.7831,2.7813,2.7884,2.8026,2.8063,2.7998,2.7984,2.8034,2.8155,2.8115,2.8104,2.8022,2.8111,2.819,2.8295,2.8257,2.8262,2.8238,2.8369,2.8399,2.8387,2.8319,2.8316,2.8364,2.8411,2.8209,2.8076,2.7996,2.8006,2.8042,2.7934,2.7852,2.786,2.7918,2.7903,2.7878,2.7881,2.7823,2.7924,2.7952,2.7965,2.7965,2.7831,2.789,2.7937,2.7948,2.7931,2.7842,2.7878,2.7916,2.7874,2.789,2.7883,2.79,2.7942,2.7911,2.7873,2.7776,2.7735,2.7834,2.7786,2.7768,2.7741,2.7744,2.7815,2.7767,2.7751,2.7685,2.7597,2.7768,2.7723,2.7716,2.7623,2.7608,2.7658,2.7707,2.772,2.7616,2.7535,2.7674,2.7748,2.7747,2.7879,2.786,2.787,2.7898,2.7904,2.7881,2.7829,2.7808,2.7929,2.7964,2.793,2.7973,2.7999,2.809,2.8034,2.7944,2.7733,2.7596,2.7573,2.7552,2.7382,2.7209,2.7182,2.7246,2.7284,2.7268,2.7134,2.712,2.7175,2.7185,2.7207,2.7149,2.7119,2.7031,2.6959,2.7298,2.8015,2.9139,3.1267,3.3512,3.5008,3.5404,3.5187,3.3571,3.1421,2.9207,2.7965,2.7881,2.7717,2.7681,2.7541,2.7411,2.7277,2.7273,2.73,2.7268,2.7234,2.7177,2.7244,2.7376,2.7354,2.7373,2.7316,2.7343,2.7372,2.7417,2.7447,2.7353,2.7377,2.7422,2.7455,2.7484,2.7435,2.7391,2.7445,2.7577,2.7513,2.7512,2.7565,2.7629,2.7674,2.7681,2.7697,2.7712,2.7821,2.7869,2.7899,2.7865,2.7856,2.7912,2.8009,2.8046,2.8083,2.8011,2.8014,2.8041,2.8038,2.8016,2.7952,2.7957,2.8091,2.8101,2.8084,2.8065,2.8104,2.8234,2.8252,2.8189,2.8089,2.8017,2.8047,2.7944,2.7838,2.7758,2.7654,2.7685,2.7641,2.7548,2.752,2.752,2.7577,2.7544,2.7492,2.7481,2.7462,2.7473,2.7548,2.7566,2.7567,2.7501,2.7519,2.7607,2.7608,2.7598,2.7509,2.7592,2.7598,2.7618,2.7446,2.7391,2.7448,2.7509,2.7431,2.7375,2.732,2.731,2.736,2.7338,2.7326,2.7201,2.7195,2.7223,2.7254,2.7216,2.7193,2.7223,2.7259,2.73,2.7246,2.7179,2.7201,2.7303,2.7261,2.7261,2.7259,2.7167,2.7154,2.7213,2.7172,2.7132,2.7118,2.7216,2.7336,2.7499,2.7433,2.7381,2.7374,2.7484,2.7501,2.7439,2.7401,2.7488,2.7596,2.7641,2.7789,2.7759,2.773,2.7741,2.7704,2.7591,2.7426,2.7285,2.729,2.7225,2.7149,2.7022,2.7014,2.709,2.7097,2.7033,2.6985,2.6971,2.7067,2.7112,2.7095,2.7054,2.7055,2.6742,2.7182,2.8018,2.9112,3.1283,3.3704,3.5184,3.5486,3.519,3.3281,3.0995,2.902,2.795,2.791,2.7567,2.7358,2.7259,2.7229,2.7069,2.6942,2.6929,2.6898,2.6943,2.6841,2.678,2.6822,2.6937,2.6937,2.6893,2.6896,2.6878,2.6928,2.6946,2.6926,2.6873,2.6936,2.7015,2.7063,2.7086,2.7015,2.7013,2.7125,2.7162,2.7186,2.7141,2.7132,2.7135,2.7201,2.7193,2.714,2.7119,2.7167,2.7259,2.7288,2.7289,2.7293,2.7298,2.7381,2.7422,2.7429,2.7396,2.7395,2.7497,2.7487,2.7439,2.7443,2.7458,2.7522,2.7533,2.7559,2.7565,2.7543,2.7569,2.7635,2.7671,2.7503,2.7449,2.7462,2.7388,2.7253,2.7098,2.6997,2.7041,2.6971,2.7016,2.6943,2.6944
