7.0907,7.0854,7.0858,7.088,7.0888,7.0907,7.0931,7.0918,7.0904,7.0978,7.1086,7.1038,7.1014,7.1173,7.121,7.1113,7.1184,7.1524,7.1949,7.1969,7.1825,7.1628,7.1484,7.1424,7.1443,7.1416,7.1364,7.1169,7.1015,7.0951,7.0938,7.0959,7.0982,7.0977,7.0965,7.0971,7.0972,7.0915,7.0912,7.0955,7.094,7.0926,7.0691,7.0311,6.9508,6.9348,6.9539,7.0749,7.3516,7.7691,8.0413,7.9193,7.4646,7.0105,6.977,7.0001,6.9764,7.0122,6.9831,7.0249,7.093,7.1429,7.1456,7.1315,7.1323,7.1265,7.139,7.1323,7.1448,7.1401,7.148,7.1523,7.1549,7.1585,7.1635,7.1674,7.1737,7.1727,7.1803,7.1804,7.1911,7.191,7.1974,7.2038,7.2158,7.2195,7.2297,7.2368,7.2504,7.2547,7.2661,7.2773,7.2825,7.2937,7.3087,7.3217,7.335,7.3448,7.3598,7.3752,7.3833,7.3998,7.4092,7.43,7.4384,7.4499,7.4682,7.4771,7.4855,7.494,7.4952,7.4929,7.4849,7.4698,7.4452,7.4143,7.3866,7.3543,7.3235,7.2925,7.279,7.256,7.2327,7.2165,7.1937,7.1803,7.1695,7.1605,7.1459,7.1417,7.1349,7.1334,7.1275,7.1261,7.1189,7.1182,7.1163,7.1147,7.1163,7.1162,7.1107,7.1082,7.1057,7.1073,7.1061,7.1052,7.1036,7.1045,7.1051,7.1062,7.1129,7.1103,7.1103,7.1145,7.1115,7.1129,7.1163,7.1168,7.1175,7.1187,7.1167,7.1198,7.1168,7.121,7.1173,7.1203,7.12,7.1215,7.1188,7.1234,7.1171,7.1177,7.1193,7.1156,7.1203,7.1153,7.116,7.1203,7.118,7.1109,7.1136,7.1143,7.1133,7.1147,7.1106,7.1117,7.1081,7.1074,7.1105,7.1076,7.1076,7.1074,7.106,7.1048,7.1051,7.1044,7.1081,7.1064,7.1013,7.1015,7.1012,7.1008,7.1019,7.1007,7.1039,7.1002,7.097,7.0944,7.0944,7.0928,7.0923,7.0847,7.0906,7.0906,7.0875,7.0864,7.0818,7.0825,7.0771,7.0791,7.0766,7.0749,7.0708,7.0669,7.067,7.0635,7.0654,7.0588,7.0582,7.0599,7.058,7.0598,7.0525,7.0495,7.045,7.0485,7.0469,7.045,7.043,7.0472,7.0446,7.0441,7.0493,7.062,7.0499,7.046,7.0705,7.1139,7.1326,7.1091,7.0868,7.066,7.0548,7.0546,7.0489,7.0422,7.0245,7.0073,6.9954,6.9988,6.9931,6.9931,6.9871,6.981,6.985,6.9803,6.9788,6.9735,6.978,6.9765,6.9737,6.945,6.8633,6.8141,6.8103,6.8231,6.9454,7.2261,7.6639,7.9027,7.7253,7.2293,6.7659,6.7421,6.7896,6.7931,6.8235,6.7979,6.8334,6.891,6.9707,6.9771,6.9694,6.9681,6.9658,6.9624,6.9646,6.9661,6.9682,6.9779,6.9826,6.9792,6.9795,6.9849,6.9898,6.9907,6.9932,6.9954,6.9915,6.9957,6.9996,7.0074,7.0077,7.0217,7.0257,7.0234,7.0343,7.0482,7.0563,7.0643,7.0655,7.0829,7.0943,7.1096,7.1157,7.1227,7.1375,7.1517,7.1742,7.1839,7.2028,7.2165,7.226,7.2355,7.2484,7.2545,7.2768,7.2865,7.2917,7.2877,7.2872,7.276,7.258,7.2345,7.2045,7.1717,7.1364,7.1094,7.0837,7.0534,7.0255,7.0119,6.9901,6.9698,6.9523,6.9331,6.9275,6.9184,6.9157,6.9049,6.8993,6.8933,6.893,6.8949,6.8942,6.8907,6.8852,6.8848,6.8774,6.8764,6.8761,6.8735,6.8787,6.8787,6.8842,6.8802,6.8757,6.8813,6.8852,6.8873,6.8883,6.889,6.8869,6.8907,6.8938,6.8979,6.8969,6.9008,6.8974,6.9002,6.9029,6.9056,6.9056,6.9065,6.9029,6.8989,6.9018,6.9074,6.9101,6.9125,6.9098,6.9072,6.9018,6.9088,6.9126,6.9124,6.9117,6.9163,6.9129,6.9143,6.9158,6.9173,6.9258,6.9281,6.9273,6.9254,6.9295,6.9366,6.9343,6.944,6.9449,6.9434,6.9474,6.9519,6.9493,6.9499,6.9488,6.9552,6.9505,6.9565,6.9567,6.9539,6.957,6.9606,6.9621,6.9677,6.9741,6.9696,6.9662,6.9712,6.9935,6.9895,6.9864,7.0064,7.0412,7.0695,7.0568,7.0471,7.0328,7.011,7.0056,7.0049,7.0056,6.9843,6.9674,6.9663,6.9646,6.9619,6.9596,6.9647,6.9671,6.9663,6.9715,6.9677,6.9673,6.9632,6.963,6.9664,6.9634,6.9469,6.8868,6.8425,6.8523,6.8962,7.0837,7.4601,7.8631,7.9239,7.4746,6.9124,6.6324,6.6959,6.7263,6.7643,6.8139,6.8023,6.8262,6.8893,6.9867,7.0147,7.0178,7.0115,7.0206,7.0152,7.0239,7.0234,7.0389,7.0396,7.0444,7.042,7.0539,7.0518,7.0637,7.0656,7.0715,7.0704,7.0788,7.0877,7.0919,7.0967,7.107,7.1111,7.118,7.127,7.1373,7.1473,7.1603,7.1702,7.1773,7.1923,7.2031,7.2189,7.2271,7.2429,7.2523,7.2637,7.2873,7.2982,7.3158,7.3309,7.3409,7.3575,7.3753,7.3852,7.3959,7.403,7.4108,7.4087,7.3969,7.3781,7.349,7.3187,7.2822,7.2679,7.2381,7.207,7.174,7.1521,7.1278,7.1128,7.0952,7.0773,7.0656,7.0575,7.0491,7.0437,7.0405,7.0372,7.0395,7.0376,7.0306,7.0314,7.0295,7.0296,7.0301,7.0287,7.0227,7.0259,7.0275,7.03,7.0287,7.0309,7.0328,7.0373,7.039,7.0407,7.0436,7.0471,7.0485,7.051,7.0491,7.0539,7.0535,7.0533,7.0529,7.0579,7.0571,7.0623,7.0588,7.0609,7.0594,7.0592,7.0627,7.0632,7.0628,7.0657,7.0625,7.064,7.0662,7.0666,7.0628,7.062,7.0594,7.0599,7.0616,7.0663,7.0653,7.0625,7.0604,7.063,7.0586,7.0618,7.0663,7.0674,7.0697,7.0679,7.0703,7.0715,7.0739,7.0697,7.0726,7.0747,7.0756,7.0776,7.0777,7.0781,7.076,7.0766,7.0841,7.081,7.0781,7.0753,7.0789,7.0831,7.0823,7.079,7.0819,7.0814,7.0804,7.084,7.0853,7.0814,7.0856,7.0958,7.0968,7.092,7.0973,7.11,7.1056,7.1014,7.1257,7.173,7.1993,7.1773,7.1549,7.1359,7.1273,7.1305,7.1287,7.119,7.1087,7.0896,7.076,7.0735,7.0782,7.0765,7.0795,7.0742,7.0754,7.0772,7.0795,7.0753,7.0744,7.079,7.0817,7.0593,6.9886,6.9252,6.9204,6.9312,7.0251,7.2438,7.6466,7.9752,7.9455,7.5461,7.0401,6.9317,6.9627,6.941,6.9732,6.9526,6.996,7.0559,7.1111,7.1133,7.1032,7.1083,7.1027,7.1093,7.1093,7.1157,7.1114,7.1158,7.1183,7.1204,7.1243,7.1312,7.1307,7.1353,7.1388,7.1429,7.1459,7.1521,7.1524,7.1621,7.1635,7.1679,7.1756,7.1864,7.194,7.2029,7.2084,7.2212,7.2312,7.2367,7.2551,7.2591,7.2699,7.2868,7.2931,7.3109,7.3296,7.344,7.3577,7.3761,7.3854,7.3976,7.4086,7.4301,7.4351,7.4414,7.4535,7.4566,7.4551,7.4415,7.4265,7.41,7.3721,7.331,7.2941,7.256,7.2292,7.2079,7.1823,7.1731,7.1459,7.1171,7.1067,7.0814,7.0757,7.0677,7.0579,7.0429,7.0304,7.0229,7.0158,7.0034,7.0002,7.0016,6.9963,6.9851,6.9837,6.9855,6.9789,6.9677,6.9645,6.9732,6.9671,6.9626,6.9617,6.9612,6.9617,6.955,6.9563,6.9511,6.95,6.9477,6.942,6.94,6.9383,6.9411,6.9357,6.9348,6.9352,6.9361,6.9343,6.9331,6.9285,6.9261,6.9277,6.9236,6.9258,6.9241,6.9194,6.9157,6.9192,6.9177,6.9136,6.9117,6.9103,6.907,6.9162,6.9195,6.9121,6.9079,6.9068,6.9083,6.9122,6.91,6.9103,6.9117,6.9097,6.913,6.916,6.914,6.9171,6.9198,6.9223,6.9334,6.9386,6.9314,6.935,6.9392,6.9542,6.964,6.9596,6.9729,7.0119,7.0436,7.036,7.0179,7.006,6.9986,6.9991,6.9952,6.9821,6.968,6.9531,6.957,6.9569,6.9568,6.9578,6.9616,6.9569,6.9607,6.9647,6.9643,6.9658,6.9685,6.9705,6.9673,6.9617,6.9329,6.8523,6.8315,6.841,6.9313,7.1883,7.6238,7.9177,7.9317,7.5836,7.0489,6.7024,6.725,6.767,6.7779,6.8394,6.8252,6.8801,6.9556,7.0391,7.0344,7.04,7.0366,7.044,7.0417,7.054,7.0566,7.0668,7.0687,7.0812,7.0815,7.0951,7.0965,7.1064,7.1068,7.1142,7.1216,7.1273,7.1304,7.1414,7.1483,7.1577,7.1674,7.179,7.188,7.2023,7.2085,7.2229,7.2316,7.2426,7.2577,7.2759,7.294,7.3083,7.3217,7.3374,7.358,7.3767,7.3929,7.4068,7.4289,7.4431,7.4609,7.4757,7.486,7.4952,7.4996,7.5037,7.5053,7.4887,7.4721,7.4447,7.4134,7.3786,7.3498,7.3137,7.2856,7.256,7.2335,7.213,7.1942,7.1767,7.1693,7.1599,7.1498,7.1454,7.1434,7.1383,7.1365,7.1308,7.129,7.1231,7.1224,7.1195,7.1227,7.1126,7.1126,7.1131,7.1086,7.1045,7.1093,7.1074,7.1105,7.1086,7.1122,7.1095,7.1151,7.1159,7.12,7.1191,7.1215,7.1254,7.1254,7.1278,7.1303,7.1304,7.1323,7.1336,7.1406,7.1413,7.1441,7.1439,7.1416,7.1433,7.144,7.1443,7.1461,7.1448,7.1469,7.1439,7.1474,7.1432,7.1446,7.1445,7.1441,7.1422,7.1439,7.1444,7.1426,7.1429,7.1426,7.1412,7.1437,7.144,7.1447,7.1432,7.1443,7.1433,7.1408,7.1465,7.1435,7.1435,7.1452,7.1457,7.144,7.1437,7.1411,7.1414,7.1393,7.1406,7.1369,7.1369,7.1354,7.1371,7.1441,7.1526,7.1458,7.1373,7.1448,7.1587,7.1488,7.1436,7.1732,7.2235,7.2352,7.2092,7.1883,7.1733,7.1581,7.1683,7.1608,7.1594,7.142,7.1181,7.1087,7.1082,7.1071,7.1052,7.1015,7.1023,7.1047,7.1048,7.1018,7.0999,7.0997,7.0961,7.0944,7.0809,7.0168,6.9485,6.9353,6.9425,7.0231,7.2183,7.6111,7.9515,7.947,7.5667,7.0666,6.9253,6.964,6.9538,6.9844,6.9783,7.0091,7.0794,7.1316,7.131,7.1174,7.1203,7.1185,7.1198,7.1185,7.1256,7.128,7.1326,7.133,7.1411,7.1417,7.1509,7.1509,7.1581,7.1569,7.164,7.1678,7.177,7.1832,7.1909,7.1927,7.1975,7.2044,7.2125,7.2144,7.2222,7.2331,7.2436,7.2613,7.2742,7.2832,7.2963,7.3073,7.3277,7.3477,7.357,7.3745,7.3958,7.4084,7.4255,7.432,7.4484,7.4588,7.4708,7.4777,7.4983,7.5057,7.5024,7.5009,7.4896,7.4652,7.4351,7.4044,7.3755,7.3369,7.3044,7.272,7.2396,7.2128,7.1989,7.1854,7.1619,7.1468,7.1341,7.1267,7.1065,7.0989,7.0984,7.0946,7.0953,7.0878,7.0786,7.0742,7.0625,7.0675,7.0652,7.0591,7.0547,7.0505,7.0483,7.0496,7.0391,7.0389,7.0385,7.038,7.039,7.0413,7.0307,7.0264,7.0313,7.0326,7.0178,7.0204,7.0141,7.0224,7.0149,7.0132,7.0063,7.0069,7.0113,7.0129,7.0035,7.0023,7.0036,7.0025,7.0089,6.9946,6.9916,6.9898,6.9864,6.9873,6.9816,6.9795,6.9728,6.983,6.9748,6.9724,6.9784,6.9759,6.9701,6.9715,6.9741,6.9757,6.9611,6.962,6.9626,6.9646,6.9647,6.9596,6.9598,6.9551,6.9607,6.955,6.9466,6.9482,6.9475,6.9403,6.9466,6.9405,6.9481,6.9549,6.9435,6.9428,6.9393,6.9463,6.9528,6.9449,6.956,6.9883,7.0181,7.0302,7.003,6.9782,6.9615,6.9491,6.9546,6.9476,6.9342,6.9205,6.8975,6.9014,6.904,6.9064,6.8987,6.8961,6.9027,6.8954,6.9043,6.9014,6.9028,6.8953,6.8985,6.8908,6.8753,6.8065,6.7753,6.7603,6.7819,6.8851,7.1479,7.5944,7.855,7.6887,7.1479,6.6353,6.5587,6.643,6.6697,6.7145,6.7264,6.7577,6.8176,6.8975,6.93,6.9284,6.9143,6.9295,6.9319,6.9272,6.9272,6.9337,6.9421,6.9358,6.9475,6.9499,6.963,6.9527,6.9557,6.9604,6.9624,6.97,6.9743,6.981,6.9804,6.9894,6.9956,7.0037,7.0155,7.0238,7.0299,7.0403,7.0463,7.055,7.0717,7.0823,7.1025,7.1115,7.1301,7.1436,7.1579,7.1672,7.1878,7.2035,7.2179,7.2304,7.2503,7.2635,7.2842,7.2886,7.2989,7.3032,7.3022,7.2913,7.2802,7.2555,7.2293,7.1916,7.1514,7.1244,7.0948,7.057,7.0347,7.0232,7.001,6.9839,6.968,6.9532,6.9407,6.9355,6.9282,6.9193,6.9189,6.9183,6.9151,6.9138,6.9141,6.9086,6.9097,6.9056,6.9067,6.9055,6.9052,6.9075,6.9096,6.9105,6.9122,6.9106,6.9151,6.9184,6.9225,6.9225,6.9275,6.9254,6.9309,6.9373,6.9366,6.936,6.9413,6.9435,6.9431,6.9492,6.9493,6.9533,6.9536,6.9609,6.9556,6.9619,6.9611,6.9586,6.9651,6.9643,6.9634,6.9655,6.9593,6.9654,6.9651,6.9686,6.9666,6.9665,6.9659,6.9697,6.9685,6.9753,6.9744,6.9718,6.977,6.9807,6.9774,6.9952,6.9933,6.9874,6.9979,7.0092,7.0092,7.0065,7.0251,7.0711,7.0984,7.0819,7.07,7.0588,7.0448,7.0408,7.0387,7.0333,7.0126,6.999,6.9922,6.993,6.9895,6.9934,6.992,6.9955,6.9942,6.9937,6.9961,6.9975,6.9948,6.9971,6.9943,6.9984,6.9814,6.935,6.8496,6.845,6.86,6.9784,7.2642,7.7058,7.9568,7.7868,7.2869,6.826,6.804,6.8411,6.8379,6.8772,6.8814,6.8819,6.9401,7.0234,7.0619,7.0551,7.0551,7.0536,7.0583,7.0638,7.0707,7.0763,7.0827,7.0865,7.0936,7.0975,7.1069,7.1116,7.1185,7.1242,7.1211,7.128,7.1314,7.1352,7.1429,7.1468,7.1563,7.1617,7.172,7.183,7.1975,7.2052,7.217,7.2278,7.2409,7.2579,7.2738,7.2835,7.2964,7.3037,7.3291,7.3385,7.3542,7.373,7.3906,7.4065,7.4225,7.4399,7.4517,7.4636,7.4692,7.4749,7.4641,7.4548,7.4337,7.4077,7.3718,7.3379,7.3223,7.2848,7.2522,7.2248,7.1988,7.1755,7.1535,7.1375,7.1253,7.1166,7.1046,7.0985,7.0969,7.0905,7.0855,7.0863,7.0848,7.0795,7.0775,7.079,7.0783,7.0751,7.0714,7.0713,7.073,7.0699,7.0706,7.0741,7.0714,7.072,7.0706,7.0727,7.075,7.0758,7.0743,7.0749,7.0775,7.0794,7.0819,7.0798,7.0811,7.08,7.0834,7.0872,7.0864,7.0853,7.0881,7.0869,7.088,7.0897,7.0945,7.0933,7.0912,7.0907,7.0906,7.0898,7.09,7.0863,7.0847,7.086,7.085,7.0821,7.0863,7.083,7.084,7.0833,7.0855,7.0787,7.078,7.0807,7.078,7.0777,7.0747,7.0804,7.0813,7.0773,7.0778,7.078,7.0782,7.0762,7.0782,7.0754,7.0756,7.0734,7.0758,7.0774,7.0799,7.0757,7.0746,7.0766,7.0746,7.0731,7.0767,7.0733,7.0706,7.0729,7.0699,7.0727,7.0703,7.0744,7.0664,7.0709,7.0734,7.076,7.0795,7.0783,7.0815,7.0962,7.086,7.0817,7.1056,7.1541,7.176,7.1517,7.1309,7.1157,7.1064,7.1049,7.1046,7.0993,7.0869,7.0647,7.0509,7.0544,7.0475,7.0484,7.0494,7.0453,7.0494,7.0475,7.044,7.0505,7.042,7.0495,7.0453,7.0469,7.0254,6.9471,6.8847,6.8769,6.928,7.0804,7.4329,7.8488,7.9886,7.7289,7.2083,6.9112,6.9386,6.9484,6.9353,6.9566,6.9366,6.9925,7.0242,7.0779,7.0791,7.0647,7.071,7.0648,7.0681,7.0741,7.0853,7.0801,7.0893,7.0864,7.1006,7.0989,7.1042,7.1026,7.1123,7.1079,7.1155,7.1198,7.1257,7.1243,7.1365,7.1368,7.147,7.1509,7.1606,7.1694,7.1807,7.1877,7.2014,7.2113,7.2221,7.2325,7.2475,7.26,7.275,7.2859,7.3056,7.307,7.3264,7.3416,7.3556,7.3772,7.3941,7.4036,7.4202,7.4318,7.4389,7.4442,7.4474,7.4409,7.4282,7.4079,7.3769,7.3438,7.308,7.2787,7.264,7.2346,7.2041,7.1788,7.1489,7.1385,7.1172,7.106,7.0903,7.0837,7.073,7.0697,7.0649,7.058,7.0528,7.052,7.0515,7.0486,7.0425,7.0451,7.044,7.042,7.0369,7.0371,7.0343,7.0316,7.0288,7.0317,7.0295,7.0272,7.028,7.0276,7.0318,7.0301,7.0265,7.0281,7.0258,7.0317,7.0315,7.034,7.0289,7.0326,7.0261,7.0327,7.0342,7.0304,7.0314,7.0348,7.0346,7.0358,7.035,7.037,7.0399,7.0329,7.0349,7.0327,7.0333,7.0328,7.0349,7.0313,7.0329,7.035,7.0334,7.0319,7.0331,7.0288,7.0339,7.0377,7.0316,7.0292,7.031,7.0312,7.0264,7.0365,7.0302,7.0313,7.0305,7.0258,7.0335,7.0258,7.0292,7.0272,7.0314,7.0296,7.0256,7.0289,7.025,7.0326,7.0317,7.0255,7.0289,7.019,7.0228,7.0226,7.0251,7.0198,7.0228,7.0211,7.0197,7.0221,7.0163,7.0176,7.0156,7.0194,7.0129,7.0156,7.0149,7.014,7.0171,7.0122,7.0144,7.0152,7.0161,7.0216,7.0211,7.0217,7.0284,7.0303,7.0192,7.0262,7.0715,7.1045,7.1029,7.0779,7.0571,7.0385,7.043,7.038,7.026,7.0135,6.9944,6.9809,6.9797,6.9836,6.9819,6.9804,6.977,6.9774,6.9737,6.9687,6.9692,6.9657,6.9611,6.963,6.9623,6.9445,6.8653,6.8016,6.7907,6.8263,6.9578,7.2825,7.7127,7.8895,7.8239,7.4072,6.8983,6.7807,6.8202,6.8114,6.8319,6.8166,6.8269,6.8866,6.9535,6.9648,6.9486,6.9514,6.9456,6.9526,6.9493,6.9499,6.9478,6.9548,6.9534,6.9595,6.9542,6.9671,6.9573,6.9712,6.9725,6.9752,6.9752,6.9785,6.9775,6.991,6.9933,7.0035,7.0098,7.0124,7.0176,7.0198,7.0286,7.0398,7.044,7.0534,7.0646,7.0753,7.0875,7.0983,7.1115,7.1305,7.1332,7.1526,7.1661,7.1868,7.2011,7.2139,7.2325,7.2391,7.247,7.2555,7.257,7.2676,7.2639,7.2545,7.2397,7.2062,7.179,7.148,7.1166,7.0847,7.0505,7.0255,7.0006,6.9706,6.9506,6.9234,6.9171,6.8961,6.8917,6.8823,6.8732,6.8626,6.8565,6.8474,6.8591,6.8512,6.8504,6.8376,6.8439,6.842,6.843,6.8391,6.834,6.8277,6.8264,6.8233,6.8278,6.8239,6.8296,6.8274,6.8265,6.824,6.8279,6.8288,6.8276,6.8211,6.8216,6.8232,6.8146,6.8252,6.8239,6.822,6.8262,6.8228,6.8227,6.8274,6.8216,6.8261,6.8212,6.8323,6.8287,6.8273,6.8275,6.8247,6.8257,6.8318,6.8315,6.8296,6.8278,6.8289,6.8333,6.8285,6.8236,6.8306,6.8343,6.842,6.8342,6.8386,6.8337,6.8358,6.8334,6.839,6.8388,6.8412,6.8433,6.846,6.8457,6.8379,6.8334,6.8382,6.8418,6.8415,6.8368,6.8371,6.8441,6.843,6.8419,6.839,6.8433,6.8432,6.8453,6.8445,6.8486,6.8496,6.8551,6.862,6.8566,6.8528,6.8709,6.8753,6.8691,6.8731,6.9034,6.9316,6.9522,6.9443,6.9244,6.9156,6.8998,6.8982,6.897,6.8803,6.8692,6.8504,6.855,6.8552,6.8542,6.8578,6.8571,6.8518,6.8523,6.8659,6.8591,6.867,6.8604,6.8586,6.8638,6.8619,6.8436,6.7739,6.733,6.7394,6.8045,7.014,7.3783,7.7636,7.7918,7.314,6.7454,6.4871,6.5825,6.6241,6.6785,6.7052,6.703,6.7228,6.7857,6.8724,6.9043,6.9102,6.9048,6.9129,6.9109,6.9244,6.9221,6.935,6.9365,6.943,6.9469,6.9601,6.9591,6.9657,6.9699,6.977,6.9761,6.9889,6.9873,7.0086,7.0041,7.0155,7.0229,7.0293,7.0404,7.0508,7.0503,7.0623,7.0689,7.0885,7.1025,7.1139,7.1254,7.1407,7.1654,7.1722,7.1873,7.2025,7.2133,7.2316,7.2465,7.2672,7.2779,7.2957,7.3061,7.3129,7.3224,7.3236,7.3311,7.3212,7.3002,7.2769,7.2392,7.2109,7.1923,7.1616,7.1291,7.0992,7.0711,7.0512,7.0395,7.0204,7.004,6.986,6.9794,6.971,6.9645,6.9565,6.9564,6.9545,6.9495,6.9505,6.9408,6.9429,6.9415,6.9432,6.9464,6.9478,6.9407,6.9425,6.9486,6.9531,6.9519,6.9584,6.9595,6.9635,6.9609,6.9664,6.9704,6.9746,6.9772,6.9763,6.9794,6.9758,6.9833,6.9788,6.9834,6.9886,6.989,6.9898,6.9903,6.9901,6.9926,6.9907,6.9985,6.9927,6.998,6.9964,6.9968,6.998,6.9988,6.9949,6.9961,6.9951,6.997,6.9953,6.9987,7.002,6.9998,6.9952,6.9988,6.9994,7.0035,7.0021,6.9976,7.0038,7.0067,7.0012,7.0073,7.0143,7.013,7.0119,7.0104,7.0126,7.0119,7.0133,7.0146,7.0159,7.0181,7.0127,7.0164,7.0194,7.0225,7.031,7.0342,7.0285,7.0274,7.0431,7.0427,7.0385,7.0391,7.0581,7.0969,7.1243,7.1099,7.088,7.0743,7.0631,7.0696,7.0645,7.0519,7.0332,7.0197,7.0188,7.0221,7.0178,7.0187,7.0163,7.0185,7.0155,7.0177,7.0156,7.0183,7.0208,7.0221,7.024,7.0152,6.9885,6.903,6.8661,6.8781,6.9539,7.1732,7.5847,7.9455,7.9577,7.5446,7.0033,6.8423,6.8778,6.8923,6.8915,6.9265,6.904,6.948,7.02,7.0761,7.08,7.0684,7.0751,7.068,7.0837,7.0827,7.0822,7.0923,7.1031,7.103,7.1101,7.1081,7.1183,7.1193,7.1267,7.1251,7.1334,7.1344,7.1431,7.148,7.1568,7.1635,7.1727,7.1788,7.1897,7.1954,7.2077,7.2169,7.2288,7.2394,7.2484,7.2558,7.2676,7.2811,7.2974,7.3086,7.3252,7.3424,7.3597,7.3715,7.3872,7.4053,7.4193,7.428,7.4442,7.4541,7.4625,7.466,7.4636,7.4547,7.4431,7.4141,7.3881,7.3572,7.325,7.2917,7.2608,7.2326,7.2144,7.1929,7.1658,7.1504,7.1439,7.1339,7.1255,7.1171,7.1105,7.1077,7.1036,7.1014,7.0974,7.0946,7.0924,7.0902,7.0901,7.0855,7.0849,7.0863,7.0855,7.0827,7.0853,7.0795,7.0811,7.0818,7.0818,7.0819,7.0813,7.0874,7.0884,7.0928,7.0893,7.0894,7.0915,7.0935,7.1002,7.0962,7.1002,7.1007,7.1031,7.1018,7.0972,7.104,7.1013,7.1027,7.1043,7.1082,7.1055,7.103,7.1016,7.0999,7.0998,7.0985,7.0967,7.0973,7.0988,7.0986,7.0969,7.096,7.0912,7.0951,7.0921,7.0927,7.0931,7.0932,7.0914,7.0941,7.0918,7.0878,7.0868,7.0835,7.0822,7.0813,7.0889,7.0777,7.085,7.0828,7.0774,7.0776,7.0761,7.0809,7.077,7.0785,7.0767,7.073,7.0709,7.074,7.0713,7.0733,7.0727,7.0757,7.0727,7.0735,7.0673,7.0706,7.0674,7.068,7.0671,7.0657,7.0644,7.0698,7.0654,7.0658,7.0665,7.0638,7.068,7.0749,7.0767,7.0724,7.0679,7.0809,7.0899,7.08,7.0785,7.1041,7.1486,7.1749,7.1505,7.1281,7.1137,7.1027,7.1073,7.1011,7.0946,7.079,7.0628,7.0514,7.0553,7.053,7.0524,7.0516,7.0532,7.0465,7.0462,7.0471,7.047,7.0479,7.0423,7.0499,7.0316,6.962,6.8911,6.8792,6.914,6.9698,7.1721,7.5727,7.9343,7.9448,7.5675,7.0628,6.9166,6.955,6.9333,6.9567,6.9385,6.9641,7.0134,7.0833,7.0847,7.0732,7.0705,7.0722,7.0769,7.0761,7.0768,7.0768,7.0843,7.0851,7.089,7.0951,7.0963,7.1028,7.1092,7.106,7.1125,7.1151,7.1214,7.1236,7.1298,7.1349,7.143,7.1482,7.1483,7.1619,7.1696,7.175,7.1861,7.1967,7.2083,7.2145,7.2267,7.2354,7.2499,7.2635,7.2775,7.2877,7.3074,7.3249,7.3363,7.3492,7.3685,7.3747,7.3954,7.4048,7.4128,7.4239,7.4219,7.4271,7.4226,7.4093,7.3844,7.3554,7.3252,7.2925,7.2603,7.2344,7.2102,7.1854,7.1612,7.1388,7.1331,7.118,7.1093,7.1003,7.0861,7.0818,7.0762,7.0697,7.0691,7.0668,7.0655,7.0635,7.0615,7.0602,7.0569,7.0532,7.0525,7.0526,7.0512,7.046,7.0442,7.045,7.0446,7.0446,7.0476,7.0473,7.0483,7.0443,7.0512,7.0504,7.0491,7.0522,7.0501,7.0572,7.0569,7.0585,7.0585,7.0613,7.0606,7.0642,7.0636,7.0604,7.0625,7.0647,7.0641,7.0658,7.0683,7.0627,7.0652,7.0677,7.0648,7.068,7.0724,7.0687,7.0667,7.0689,7.0701,7.0681,7.0707,7.0708,7.0686,7.0698,7.0674,7.0705,7.0765,7.0757,7.0738,7.0769,7.081,7.0796,7.0869,7.0773,7.0887,7.0957,7.0942,7.0953,7.0921,7.0904,7.0931,7.0976,7.099,7.0964,7.0968,7.0975,7.0982,7.0974,7.0967,7.0975,7.0971,7.1017,7.0957,7.0995,7.0996,7.0963,7.098,7.0963,7.0843,7.0864,7.0887,7.0948,7.0959,7.093,7.0859,7.0836,7.0811,7.085,7.0794,7.0758,7.0813,7.0789,7.0739,7.0772,7.0716,7.0712,7.0791,7.0737,7.0748,7.075,7.083,7.0819,7.0789,7.0879,7.0988,7.0943,7.0885,7.112,7.1572,7.1845,7.159,7.1367,7.118,7.1098,7.1132,7.1049,7.0943,7.0885,7.0614,7.053,7.0505,7.055,7.0568,7.0561,7.0547,7.0534,7.0471,7.0568,7.0562,7.0563,7.0566,7.0519,7.0438,6.9799,6.8977,6.8843,6.9073,6.9591,7.1463,7.5372,7.9093,7.937,7.5802,7.0598,6.8868,6.9301,6.9247,6.934,6.9187,6.9337,6.9882,7.0646,7.074,7.0576,7.0559,7.0531,7.052,7.0527,7.0546,7.0528,7.0616,7.0588,7.0632,7.0674,7.0719,7.0702,7.072,7.074,7.0758,7.0819,7.0843,7.0804,7.0865,7.0893,7.0908,7.0904,7.0995,7.1095,7.117,7.1197,7.1245,7.1293,7.1349,7.145,7.1513,7.1598,7.1772,7.1877,7.1964,7.2074,7.2244,7.2364,7.2437,7.2544,7.2627,7.2793,7.2934,7.2986,7.3122,7.3138,7.3176,7.3142,7.3113,7.308,7.286,7.2583,7.2299,7.1964,7.1598,7.1332,7.104,7.0743,7.0557,7.0244,7.0189,7.0013,6.9846,6.9703,6.9618,6.9639,6.943,6.9359,6.9267,6.925,6.9198,6.9184,6.9197,6.9123,6.9142,6.9032,6.9014,6.9015,6.8971,6.9008,6.9017,6.9011,6.9016,6.8905,6.8916,6.8993,6.9003,6.9032,6.8976,6.901,6.9006,6.9001,6.9016,6.9047,6.8998,6.8955,6.9041,6.905,6.8989,6.9015,6.9055,6.9053,6.9031,6.8978,6.8959,6.8937,6.8948,6.8967,6.8993,6.8978,6.9014,6.8999,6.894,6.8973,6.8951,6.8985,6.8997,6.9052,6.9006,6.9079,6.9021,6.8937,6.8985,6.8981,6.8982,6.9056,6.9051,6.9023,6.8982,6.9035,6.9016,6.9003,6.9012,6.9,6.9023,6.9059,6.9078,6.9042,6.9045,6.9028,6.8937,6.8965,6.9006,6.9018,6.9057,6.8942,6.9014,6.9005,6.9006,6.8955,6.8945,6.8919,6.8981,6.9045,6.9045,6.9005,6.8986,6.9014,6.9104,6.9104,6.9027,6.905,6.9266,6.9259,6.9198,6.9344,6.9603,6.9922,6.9957,6.9764,6.9541,6.9435,6.94,6.9371,6.9194,6.9194,6.8993,6.8927,6.8898,6.8881,6.8884,6.8901,6.889,6.8963,6.8888,6.8952,6.8898,6.8943,6.8882,6.8923,6.8878,6.8554,6.7792,6.7621,6.7657,6.8062,6.9741,7.3234,7.7523,7.8364,7.4116,6.862,6.5443,6.6122,6.6682,6.7074,6.7507,6.7352,6.7786,6.8555,6.9453,6.947,6.9494,6.9413,6.9504,6.9462,6.9558,6.9496,6.9666,6.965,6.9758,6.9754,6.9846,6.9821,6.9937,6.9979,7.0035,7.0014,7.0121,7.0177,7.0338,7.0326,7.0375,7.0466,7.0493,7.0608,7.0704,7.0731,7.0894,7.0991,7.1135,7.1231,7.1384,7.1469,7.1602,7.1711,7.1838,7.2026,7.2218,7.2377,7.2571,7.2673,7.2738,7.2737,7.3061,7.3191,7.3241,7.3392,7.3405,7.3452,7.3454,7.3353,7.3126,7.2864,7.2498,7.223,7.192,7.1633,7.1398,7.1129,7.0842,7.0731,7.0586,7.0454,7.0318,7.0211,7.0125,7.0074,7.0059,7.0001,6.9946,6.9917,6.9894,6.9927,6.9904,6.9899,6.9912,6.9905,6.9874,6.9854,6.9896,6.9927,6.9917,6.9926,6.9967,7.002,7.0011,7.0114,7.005,7.0126,7.0116,7.0187,7.0185,7.0223,7.0214,7.0267,7.0292,7.0302,7.0271,7.031,7.0303,7.0347,7.0357,7.0386,7.0309,7.039,7.0392,7.0371,7.0376,7.0375,7.0373,7.0364,7.0417,7.0369,7.0385,7.0374,7.043,7.0395,7.0402,7.0403,7.0444,7.0428,7.0443,7.0478,7.0477,7.049,7.0495,7.0522,7.0534,7.0572,7.0571,7.0547,7.0604,7.063,7.0635,7.0646,7.0677,7.0685,7.0676,7.0699,7.0691,7.0681,7.0732,7.0739,7.0703,7.0707,7.0718,7.0774,7.0734,7.0765,7.0771,7.077,7.0776,7.0791,7.0837,7.0912,7.0912,7.0907,7.0943,7.1075,7.1127,7.0979,7.1088,7.1471,7.1885,7.1934,7.1698,7.1484,7.1354,7.1313,7.1349,7.1234,7.1137,7.091,7.0863,7.0814,7.0852,7.0858,7.0895,7.0896,7.0895,7.091,7.088,7.0821,7.0874,7.0955,7.0919,7.0895,7.055,6.9706,6.9304,6.9444,7.0214,7.227,7.6332,7.9889,8.0399,7.8173,7.3132,6.9392,6.9555,6.9816,6.9616,7.0021,6.9783,7.0345,7.1061,7.1437,7.1432,7.1349,7.1343,7.1397,7.1425,7.1464,7.1452,7.1469,7.1586,7.1602,7.1673,7.1753,7.179,7.18,7.1837,7.189,7.1945,7.1942,7.1995,7.208,7.2142,7.2253,7.2301,7.2338,7.2449,7.2508,7.2644,7.2681,7.2765,7.2815,7.2973,7.3066,7.3174,7.3299,7.3417,7.3542,7.3696,7.3822,7.3953,7.4057,7.4243,7.437,7.4515,7.4635,7.4733,7.4862,7.4891,7.4938,7.4958,7.4921,7.4809,7.4666,7.4385,7.4099,7.3813,7.3484,7.3212,7.295,7.2686,7.2438,7.2251,7.2086,7.1964,7.1788,7.1722,7.1668,7.1569,7.1541,7.1465,7.1382,7.1357,7.1326,7.1279,7.1256,7.127,7.1273,7.1235,7.122,7.1225,7.1169,7.115,7.1177,7.1181,7.1155,7.1163,7.1163,7.1193,7.1213,7.1198,7.1228,7.1225,7.1226,7.1216,7.1248,7.1277,7.1275,7.1308,7.1286,7.1336,7.1367,7.1306,7.1312,7.1312,7.1347,7.1337,7.1308,7.1333,7.1357,7.1277,7.1316,7.1261,7.1305,7.1308,7.1285,7.1272,7.1243,7.1212,7.1219,7.1239,7.1201,7.123,7.1177,7.1194,7.1211,7.1224,7.118,7.1133,7.1155,7.1169,7.1172,7.1142,7.1167,7.1143,7.1069,7.1139,7.1134,7.1122,7.1112,7.1102,7.1105,7.1099,7.1113,7.1085,7.113,7.1111,7.1091,7.1108,7.1097,7.1114,7.1096,7.1055,7.1106,7.1064,7.111,7.11,7.1053,7.103,7.107,7.1071,7.1043,7.1063,7.1014,7.1039,7.1019,7.1134,7.1156,7.1112,7.1069,7.1181,7.1268,7.1173,7.1161,7.1494,7.1914,7.2066,7.1829,7.161,7.1483,7.1398,7.1401,7.1319,7.1276,7.1108,7.0859,7.08,7.0857,7.0869,7.0817,7.0814,7.0791,7.0801,7.0798,7.0728,7.08,7.0785,7.0724,7.0733,7.0372,6.945,6.9055,6.9158,6.9396,7.0647,7.371,7.8017,7.991,7.7699,7.2742,6.9092,6.9293,6.954,6.9343,6.9737,6.9512,6.9994,7.07,7.1105,7.1021,7.092,7.0947,7.0928,7.0976,7.1011,7.1031,7.1079,7.1132,7.1137,7.1214,7.121,7.1285,7.1322,7.1369,7.1408,7.1446,7.1463,7.1575,7.159,7.1665,7.1692,7.1737,7.1778,7.1893,7.1958,7.2059,7.2125,7.2252,7.2306,7.2442,7.2546,7.2667,7.2774,7.2889,7.3019,7.3125,7.3259,7.3424,7.3565,7.3759,7.3793,7.3909,7.4052,7.4146,7.424,7.4345,7.4426,7.4417,7.4398,7.4318,7.4183,7.3913,7.3632,7.3317,7.3014,7.2692,7.2414,7.214,7.1916,7.1788,7.1625,7.1384,7.1272,7.1184,7.1088,7.0979,7.0951,7.088,7.0808,7.0782,7.072,7.0734,7.0711,7.0725,7.0703,7.066,7.0678,7.0645,7.0625,7.0667,7.0672,7.0603,7.0594,7.0613,7.0658,7.0644,7.0629,7.0657,7.0664,7.0654,7.0691,7.0678,7.0723,7.072,7.0744,7.0748,7.0769,7.0767,7.0757,7.0766,7.0793,7.0785,7.0793,7.0761,7.0729,7.0749,7.0765,7.0758,7.0744,7.0739,7.077,7.0706,7.0741,7.0698,7.0712,7.0682,7.0672,7.0682,7.0717,7.0697,7.0664,7.0668,7.0647,7.0654,7.0636,7.0632,7.0607,7.0667,7.0683,7.0659,7.0675,7.0676,7.0609,7.0634,7.0629,7.0622,7.0574,7.0643,7.0642,7.0625,7.0616,7.0578,7.0568,7.0594,7.0544,7.0537,7.0546,7.052,7.0556,7.0499,7.0536,7.0562,7.0453,7.0425,7.0452,7.0415,7.0479,7.0472,7.0543,7.0568,7.0488,7.0492,7.0593,7.0618,7.0544,7.0463,7.0801,7.1241,7.1313,7.1131,7.0868,7.0774,7.0633,7.0696,7.0556,7.052,7.0437,7.0195,7.0089,7.0132,7.0043,7.0081,7.005,7.0078,7.0044,7.0026,7.0008,7.0006,6.9985,6.9945,6.9976,6.9652,6.8826,6.8377,6.8368,6.8516,6.9698,7.2557,7.697,7.9099,7.6818,7.186,6.7842,6.7981,6.8387,6.8302,6.8784,6.8481,6.8979,6.9582,7.0134,7.0081,6.9991,7.004,7.0009,6.999,6.9969,7.0047,7.0048,7.0072,7.0117,7.0203,7.0247,7.0288,7.0267,7.0298,7.031,7.0337,7.0359,7.0428,7.0484,7.0545,7.0534,7.0579,7.0674,7.079,7.0815,7.0921,7.097,7.1097,7.1159,7.13,7.1439,7.1523,7.1552,7.1675,7.1727,7.1816,7.2019,7.2164,7.2287,7.2367,7.2393,7.2578,7.2727,7.2837,7.2933,7.3058,7.3114,7.3133,7.3152,7.3018,7.2796,7.2607,7.2308,7.192,7.1613,7.1293,7.1048,7.0677,7.0525,7.0341,7.0156,6.994,6.9849,6.9663,6.9535,6.9403,6.9394,6.9247,6.9272,6.9244,6.9161,6.9097,6.9075,6.9054,6.9027,6.8988,6.8942,6.8956,6.8969,6.8876,6.8945,6.8884,6.8972,6.8976,6.896,6.8966,6.9,6.8933,6.9012,6.9042,6.9047,6.903,6.8961,6.909,6.9026,6.8969,6.8954,6.9012,6.9,6.9041,6.8991,6.8951,6.8982,6.9048,6.9022,6.8978,6.897,6.8993,6.8972,6.9023,6.8935,6.8971,6.8982,6.8959,6.89,6.8967,6.8953,6.8973,6.89,6.8912,6.8887,6.8876,6.8902,6.8919,6.8909,6.8918,6.8902,6.8868,6.8894,6.8922,6.891,6.894,6.8929,6.8963,6.8927,6.8976,6.8976,6.8952,6.8995,6.898,6.8993,6.8932,6.8963,6.8956,6.9012,6.896,6.9025,6.9097,6.9129,6.9115,6.9065,6.9144,6.9303,6.9269,6.9389,6.9471,6.9749,7.0052,7.0049,6.9799,6.9669,6.9605,6.9564,6.9477,6.9315,6.9173,6.901,6.9025,6.9083,6.9072,6.9098,6.9067,6.9018,6.9099,6.9085,6.914,6.91,6.9115,6.9113,6.9133,6.9037,6.8548,6.7861,6.7854,6.7979,6.9223,7.224,7.6672,7.856,7.5694,7.0305,6.584,6.589,6.6785,6.6751,6.7326,6.7572,6.762,6.8058,6.8905,6.9629,6.9627,6.9585,6.96,6.9664,6.9712,6.978,6.9787,6.9841,6.9901,6.9967,7.0036,7.0081,7.0097,7.0164,7.0217,7.0241,7.0285,7.0391,7.0481,7.055,7.0673,7.0713,7.0754,7.0901,7.0972,7.1098,7.1195,7.128,7.137,7.1471,7.1627,7.1694,7.182,7.1928,7.2051,7.2206,7.2344,7.2468,7.2612,7.28,7.291,7.307,7.32,7.3248,7.3452,7.3535,7.3642,7.3631,7.363,7.3535,7.342,7.3223,7.2903,7.2617,7.2311,7.2032,7.1716,7.1401,7.1169,7.0928,7.0764,7.0629,7.0487,7.0444,7.0326,7.029,7.0193,7.0173,7.0124,7.0082,7.0081,7.0141,7.0035,7.006,7.0013,6.9996,7.0056,7.0059,7.0059,7.005,7.0125,7.0125,7.0151,7.0161,7.0199,7.0204,7.027,7.0287,7.0258,7.0278,7.0325,7.0279,7.0395,7.0371,7.0366,7.0386,7.0386,7.0412,7.0426,7.0445,7.0429,7.0438,7.0447,7.0428,7.0427,7.0482,7.0487,7.0439,7.0419,7.0441,7.0449,7.0468,7.0478,7.0466,7.0402,7.0412,7.0414,7.0379,7.048,7.0467,7.0482,7.0475,7.0474,7.0445,7.0448,7.0488,7.0499,7.0563,7.0548,7.0538,7.0555,7.0528,7.0547,7.0595,7.0544,7.0556,7.0549,7.0543,7.0576,7.056,7.0584,7.0562,7.0594,7.0605,7.0591,7.0573,7.0556,7.0565,7.0588,7.0569,7.0571,7.0607,7.0576,7.0614,7.063,7.0641,7.0753,7.077,7.076,7.0745,7.0894,7.0882,7.0869,7.0945,7.1396,7.1739,7.1762,7.1588,7.1367,7.1213,7.1095,7.1195,7.1106,7.1016,7.078,7.0678,7.0662,7.0654,7.0639,7.0674,7.0616,7.0637,7.0695,7.0673,7.0668,7.066,7.0638,7.0658,7.0669,7.0364,6.9519,6.9076,6.9108,6.9797,7.158,7.5422,7.9272,7.9884,7.633,7.1085,6.9028,6.9453,6.9449,6.9527,6.9727,6.96,7.0094,7.071,7.1208,7.117,7.1114,7.1137,7.1063,7.1136,7.1165,7.1185,7.1261,7.1294,7.1372,7.1346,7.1407,7.1467,7.148,7.1538,7.1586,7.1606,7.1661,7.171,7.1756,7.1855,7.1872,7.1965,7.2017,7.2138,7.2196,7.2267,7.2369,7.2405,7.2552,7.2644,7.2793,7.2847,7.2965,7.3044,7.3143,7.3309,7.3403,7.3591,7.3713,7.3822,7.3971,7.4138,7.4202,7.4319,7.4407,7.4519,7.4554,7.4516,7.4451,7.4389,7.4181,7.3904,7.3742,7.3466,7.3136,7.2881,7.2606,7.2346,7.2118,7.1902,7.1725,7.1551,7.1445,7.1344,7.1238,7.1209,7.1108,7.1096,7.1039,7.1042,7.0993,7.0989,7.0944,7.0937,7.0933,7.0936,7.0896,7.0917,7.0912,7.0868,7.0883,7.0859,7.0867,7.0895,7.0916,7.0923,7.0945,7.0931,7.096,7.0957,7.0956,7.0968,7.1003,7.0988,7.1002,7.1045,7.1038,7.1069,7.1001,7.1092,7.1078,7.1045,7.1079,7.1094,7.1074,7.1048,7.1069,7.1072,7.1024,7.1028,7.1022,7.1009,7.1045,7.1004,7.1013,7.098,7.0989,7.1019,7.1018,7.0972,7.0942,7.1007,7.0993,7.0995,7.0949,7.0949,7.1001,7.1011,7.1001,7.0976,7.1005,7.1012,7.0993,7.1021,7.1025,7.1003,7.0974,7.096,7.1022,7.0987,7.098,7.1008,7.1025,7.102,7.0989,7.094,7.0962,7.0998,7.1006,7.0972,7.0967,7.0957,7.0978,7.0983,7.0971,7.0953,7.0973,7.095,7.0943,7.0921,7.0981,7.0963,7.1015,7.0951,7.0992,7.1049,7.1048,7.1002,7.0982,7.111,7.1175,7.1096,7.1158,7.1505,7.1924,7.1963,7.1724,7.1583,7.1391,7.1369,7.1373,7.1227,7.1134,7.0906,7.0846,7.0824,7.0819,7.0827,7.0844,7.0826,7.0815,7.0821,7.078,7.082,7.0783,7.0771,7.0785,7.0729,7.0402,6.9482,6.9134,6.9187,6.9962,7.2023,7.6067,7.9607,8.003,7.7748,7.2749,6.9158,6.9392,6.9621,6.9507,6.9941,6.9639,7.0119,7.0822,7.1133,7.1109,7.1049,7.1033,7.1085,7.1037,7.1164,7.1167,7.1218,7.1246,7.1262,7.1294,7.1326,7.1389,7.1435,7.1498,7.1493,7.1574,7.1599,7.1663,7.174,7.1736,7.1855,7.1905,7.195,7.2064,7.2148,7.2245,7.2298,7.2412,7.2478,7.256,7.2675,7.2825,7.2941,7.302,7.3142,7.3307,7.3438,7.3548,7.3683,7.383,7.3964,7.4118,7.4153,7.435,7.4416,7.4447,7.4506,7.4565,7.4499,7.4403,7.4259,7.4,7.3731,7.3404,7.313,7.2795,7.2526,7.2281,7.2065,7.1828,7.1602,7.1491,7.1351,7.1233,7.1194,7.1082,7.1036,7.0964,7.0924,7.0887,7.0865,7.0831,7.0779,7.0773,7.0861,7.0802,7.076,7.0743,7.0758,7.0721,7.0731,7.0724,7.0722,7.0757,7.0756,7.0779,7.0783,7.0776,7.0769,7.0777,7.0788,7.0797,7.0792,7.0842,7.086,7.0827,7.0879,7.09,7.0882,7.0863,7.0835,7.086,7.0856,7.0912,7.0887,7.0897,7.0902,7.0898,7.0897,7.089,7.0854,7.0844,7.0865,7.0821,7.0807,7.0826,7.0811,7.0826,7.0784,7.0836,7.0766,7.081,7.0816,7.0804,7.0808,7.0819,7.0791,7.0779,7.0806,7.0771,7.0763,7.0781,7.0776,7.0756,7.0769,7.0743,7.0714,7.0717,7.0693,7.0775,7.0765,7.0728,7.0728,7.0742,7.0689,7.0662,7.0726,7.0699,7.0704,7.0729,7.0735,7.0657,7.0679,7.063,7.0665,7.067,7.0655,7.0627,7.0675,7.0613,7.062,7.0633,7.0642,7.0602,7.0603,7.0584,7.0574,7.0595,7.0611,7.0713,7.0694,7.0668,7.0631,7.0705,7.0827,7.0709,7.063,7.0946,7.1372,7.1602,7.151,7.1271,7.1085,7.0972,7.0945,7.0929,7.0802,7.0624,7.0409,7.0368,7.0366,7.0337,7.0352,7.0342,7.0312,7.0294,7.0229,7.0237,7.0207,7.0236,7.0258,7.0233,7.0192,6.963,6.8801,6.8575,6.8645,6.9718,7.2227,7.651,7.9223,7.7923,7.3351,6.879,6.8484,6.8862,6.8752,6.9129,6.9044,6.8946,6.9483,7.0287,7.0394,7.0371,7.0335,7.0353,7.0379,7.0326,7.0327,7.0364,7.0447,7.0425,7.0445,7.044,7.0601,7.061,7.0617,7.0635,7.061,7.0693,7.0717,7.0737,7.0805,7.0862,7.0913,7.0928,7.1054,7.1027,7.1152,7.123,7.1317,7.1414,7.1383,7.1544,7.1687,7.1752,7.1902,7.193,7.2058,7.2156,7.2338,7.242,7.2542,7.2701,7.2805,7.2921,7.3068,7.3165,7.3264,7.3265,7.3311,7.3324,7.3238,7.3148,7.2938,7.2699,7.2516,7.2208,7.1895,7.1618,7.1265,7.1081,7.0778,7.0535,7.0332,7.0215,7.0012,6.9989,6.9862,6.9797,6.9729,6.9632,6.9598,6.955,6.9497,6.9575,6.9546,6.9449,6.946,6.9413,6.9385,6.9393,6.9424,6.9406,6.9405,6.9352,6.9345,6.9427,6.9449,6.9456,6.9441,6.9449,6.9389,6.948,6.9432,6.9449,6.9447,6.9457,6.9431,6.9458,6.946,6.9434,6.9453,6.9484,6.9492,6.9466,6.9457,6.9454,6.9498,6.9541,6.9476,6.9436,6.9412,6.9394,6.9403,6.9406,6.9426,6.9432,6.9451,6.9396,6.9365,6.9336,6.9362,6.9369,6.9308,6.9377,6.9322,6.9357,6.9354,6.9347,6.9325,6.932,6.939,6.9357,6.9305,6.9266,6.9321,6.9335,6.9362,6.9369,6.9339,6.9261,6.9291,6.9312,6.933,6.9279,6.9261,6.9252,6.9249,6.9282,6.9264,6.9201,6.9242,6.9217,6.9225,6.927,6.9358,6.938,6.93,6.9234,6.9302,6.9534,6.95,6.9435,6.9553,6.9815,7.0173,7.0027,6.9838,6.9685,6.9585,6.959,6.9567,6.9437,6.919,6.9115,6.9078,6.9048,6.9066,6.9083,6.9019,6.9051,6.9032,6.9037,6.9016,6.8996,6.901,6.9035,6.8996,6.8822,6.8208,6.7813,6.7654,6.7688,6.8644,7.1185,7.5603,7.8396,7.6941,7.1505,6.6384,6.5592,6.6615,6.673,6.7247,6.7415,6.7473,6.8087,6.8923,6.9417,6.9431,6.9372,6.9366,6.9385,6.9425,6.9522,6.9501,6.9575,6.963,6.9723,6.9773,6.9807,6.9851,6.9874,6.9959,6.9976,7.0028,7.0172,7.0232,7.0274,7.03,7.0427,7.0492,7.0529,7.059,7.0701,7.0821,7.0919,7.1011,7.118,7.1276,7.1388,7.1519,7.1609,7.1794,7.1881,7.2048,7.22,7.238,7.2463,7.2567,7.2705,7.2805,7.2979,7.305,7.3153,7.3248,7.3268,7.3283,7.3212,7.3051,7.2843,7.2492,7.2162,7.1795,7.1557,7.1306,7.1044,7.0933,7.0656,7.042,7.0337,7.0138,7.0027,6.9894,6.9877,6.9769,6.9743,6.9688,6.9635,6.9663,6.9688,6.965,6.9547,6.9598,6.9654,6.9646,6.9693,6.9677,6.9625,6.9678,6.9697,6.9712,6.9709,6.9796,6.9838,6.9872,6.9844,6.9878,6.9943,6.9945,6.9978,6.9974,6.9985,6.9992,7.0055,7.001,7.0015,7.0044,7.0096,7.0062,7.0081,7.0054,7.0059,7.0038,7.0082,7.008,7.0101,7.0086,7.008,7.0008,7.0056,7.0092,7.0099,7.0101,7.0032,7.0045,7.0072,7.0072,7.008,7.0117,7.0095,7.0153,7.0137,7.0134,7.0116,7.0164,7.0187,7.0162,7.0196,7.0198,7.0221,7.0228,7.0203,7.0229,7.0195,7.0281,7.0264,7.0267,7.0306,7.026,7.0301,7.0329,7.0307,7.0333,7.0337,7.0311,7.0319,7.0346,7.034,7.027,7.0348,7.0421,7.0509,7.0524,7.0432,7.0483,7.0568,7.0671,7.0614,7.065,7.0953,7.1355,7.1415,7.1251,7.1025,7.0923,7.0897,7.0894,7.0794,7.0608,7.0487,7.0422,7.0401,7.0404,7.0414,7.0429,7.0425,7.0391,7.0371,7.0404,7.0389,7.0378,7.0451,7.046,7.0394,6.9986,6.9087,6.8869,6.9011,6.9932,7.2377,7.6621,7.8696,7.9954,7.7017,7.1574,6.8511,6.878,6.9127,6.894,6.9544,6.9184,6.9883,7.0472,7.1076,7.0872,7.0929,7.0841,7.1015,7.0929,7.1048,7.0974,7.1103,7.1054,7.1255,7.1219,7.1314,7.1282,7.1462,7.1478,7.1519,7.1487,7.1655,7.1647,7.1681,7.1764,7.1878,7.1925,7.2038,7.2098,7.218,7.2232,7.2318,7.2479,7.2543,7.2609,7.2739,7.2882,7.3006,7.3127,7.3306,7.3445,7.3564,7.3742,7.3862,7.4038,7.4176,7.4223,7.437,7.4554,7.4565,7.4684,7.4712,7.474,7.4645,7.4581,7.4332,7.4096,7.3789,7.3457,7.3217,7.2934,7.26,7.242,7.217,7.1995,7.1834,7.1689,7.1573,7.159,7.143,7.1399,7.1321,7.1256,7.1206,7.1219,7.1166,7.1173,7.1092,7.1137,7.1077,7.1091,7.1043,7.1072,7.099,7.1037,7.1021,7.1081,7.1038,7.1036,7.1098,7.1113,7.1058,7.1137,7.1097,7.1164,7.1126,7.1185,7.1165,7.1233,7.1222,7.121,7.1249,7.1256,7.1239,7.1296,7.1278,7.127,7.1249,7.1234,7.1275,7.1265,7.1283,7.1242,7.1181,7.1298,7.1288,7.1233,7.1241,7.1224,7.1159,7.1172,7.1172,7.1187,7.1182,7.1172,7.1165,7.1183,7.1216,7.1118,7.1187,7.1189,7.116,7.113,7.1146,7.1151,7.1174,7.1153,7.1151,7.1136,7.1151,7.1115,7.1109,7.111,7.1141,7.1104,7.1115,7.1098,7.1096,7.1058,7.11,7.1116,7.1127,7.1106
