2.0349,2.0566,2.0764,2.0943,2.1169,2.1428,2.1624,2.1823,2.2032,2.2216,2.2446,2.2664,2.2717,2.2815,2.2911,2.2953,2.2895,2.2662,2.2313,2.19,2.1455,2.0994,2.047,1.9979,1.9527,1.9204,1.8882,1.8567,1.8329,1.8132,1.7994,1.7881,1.7856,1.777,1.7688,1.7669,1.761,1.7627,1.7586,1.7519,1.7512,1.7527,1.752,1.7501,1.7486,1.7489,1.7466,1.7482,1.7464,1.7452,1.7442,1.7473,1.7475,1.7513,1.743,1.7446,1.7486,1.748,1.7458,1.7472,1.7465,1.7516,1.7513,1.7554,1.752,1.7545,1.7534,1.7578,1.7556,1.7562,1.7563,1.7581,1.7612,1.759,1.7536,1.7528,1.7513,1.7518,1.7462,1.744,1.7389,1.739,1.7409,1.7409,1.7355,1.7388,1.7366,1.7366,1.7323,1.7323,1.7296,1.7305,1.7311,1.7328,1.7353,1.7443,1.7508,1.7544,1.7549,1.742,1.7404,1.7711,1.8216,1.8319,1.8125,1.7925,1.7807,1.7726,1.764,1.7593,1.7419,1.7286,1.7239,1.7224,1.7198,1.7152,1.711,1.7077,1.7096,1.7078,1.7055,1.7027,1.7032,1.7061,1.7051,1.7029,1.7023,1.703,1.7037,1.7034,1.7024,1.6974,1.6716,1.5946,1.5633,1.6785,1.9633,2.255,2.4567,2.7222,2.4522,1.8621,1.5638,1.4431,1.4449,1.4811,1.6083,1.6921,1.722,1.7495,1.7513,1.748,1.747,1.7494,1.757,1.7566,1.7611,1.7638,1.7699,1.7745,1.7798,1.784,1.7883,1.7935,1.799,1.8012,1.8089,1.8092,1.8213,1.8315,1.8401,1.8449,1.8549,1.8645,1.8771,1.8829,1.8953,1.9097,1.9235,1.937,1.9521,1.9663,1.9834,1.9999,2.0209,2.0436,2.0537,2.0758,2.0946,2.1204,2.1445,2.1628,2.1827,2.2046,2.2286,2.2465,2.2581,2.2701,2.2773,2.2759,2.2599,2.2291,2.1941,2.1453,2.0989,2.0751,2.0245,1.9725,1.9292,1.8896,1.8587,1.8294,1.8054,1.7817,1.7679,1.7565,1.7474,1.7384,1.7295,1.728,1.7258,1.7192,1.7203,1.717,1.7179,1.7153,1.7145,1.709,1.7082,1.7113,1.7135,1.7083,1.7061,1.705,1.7049,1.7045,1.7045,1.6984,1.7011,1.6992,1.7018,1.6983,1.6946,1.6969,1.6948,1.7001,1.6993,1.6966,1.6929,1.693,1.694,1.6976,1.6917,1.6914,1.69,1.6904,1.6961,1.694,1.6862,1.684,1.6924,1.6899,1.6862,1.6876,1.6861,1.6862,1.6892,1.6843,1.6875,1.6805,1.681,1.6866,1.6799,1.6846,1.6818,1.6814,1.682,1.6838,1.6828,1.6849,1.6888,1.6877,1.6917,1.6977,1.7039,1.711,1.712,1.715,1.6986,1.7118,1.7517,1.7912,1.7844,1.7634,1.7455,1.73,1.7255,1.7196,1.7062,1.6895,1.688,1.6856,1.6835,1.6745,1.6716,1.6682,1.6645,1.6736,1.6646,1.6589,1.6588,1.6557,1.6553,1.6633,1.6702,1.6691,1.6672,1.665,1.6614,1.6532,1.6205,1.5802,1.5276,1.5811,1.8331,2.1509,2.3596,2.6252,2.547,1.9676,1.5429,1.3528,1.3115,1.3965,1.5029,1.622,1.6985,1.7275,1.7408,1.7346,1.7364,1.7366,1.7426,1.7392,1.7526,1.7463,1.7563,1.7557,1.7635,1.7745,1.7775,1.7803,1.7869,1.7922,1.7968,1.8022,1.8145,1.8192,1.8325,1.8404,1.8468,1.8495,1.8552,1.8714,1.8853,1.8924,1.8973,1.9128,1.9345,1.9551,1.9722,1.9896,2.0048,2.0258,2.0469,2.0661,2.0892,2.1111,2.1338,2.1434,2.1647,2.1848,2.2126,2.2283,2.2455,2.2599,2.2618,2.2681,2.2672,2.2444,2.2083,2.1663,2.1196,2.076,2.0244,1.978,1.9316,1.8951,1.8595,1.8471,1.8213,1.7985,1.779,1.775,1.7616,1.749,1.7416,1.7338,1.7361,1.7326,1.7275,1.7174,1.7229,1.729,1.7329,1.7332,1.7305,1.7306,1.7318,1.7359,1.7375,1.7321,1.7282,1.734,1.7364,1.7394,1.7399,1.7365,1.7389,1.7402,1.7398,1.7406,1.7384,1.7437,1.746,1.7473,1.7421,1.7432,1.7454,1.7456,1.7496,1.7466,1.7406,1.7447,1.7421,1.7498,1.7459,1.7448,1.7398,1.7385,1.7395,1.7384,1.7401,1.7419,1.7467,1.7466,1.7426,1.742,1.7393,1.7394,1.7484,1.7495,1.7464,1.7468,1.7482,1.7509,1.7571,1.7703,1.7691,1.7717,1.7726,1.7667,1.7858,1.8263,1.8545,1.8478,1.8374,1.8244,1.8064,1.7975,1.7865,1.7764,1.7616,1.7593,1.7564,1.7538,1.7482,1.7433,1.7454,1.7464,1.7475,1.7444,1.7388,1.7377,1.7362,1.738,1.7411,1.7445,1.738,1.7365,1.7383,1.7416,1.739,1.7215,1.646,1.5944,1.6688,1.9274,2.2582,2.4704,2.7422,2.5854,1.9756,1.5882,1.4923,1.3773,1.4194,1.539,1.641,1.735,1.7819,1.8136,1.8075,1.8109,1.8086,1.8101,1.8107,1.8271,1.8236,1.8357,1.8305,1.8455,1.8437,1.8501,1.8489,1.862,1.868,1.8746,1.8726,1.8844,1.8923,1.9022,1.9111,1.9176,1.9178,1.9321,1.945,1.9592,1.9696,1.9814,1.9945,2.008,2.0268,2.0344,2.05,2.0677,2.0859,2.1107,2.1347,2.1532,2.1731,2.1952,2.2178,2.2381,2.2543,2.271,2.2924,2.3081,2.3203,2.3202,2.3182,2.3103,2.3034,2.2769,2.2321,2.1788,2.1349,2.0866,2.0393,1.9982,1.9584,1.9281,1.8966,1.8718,1.8458,1.8311,1.8218,1.8175,1.8133,1.8012,1.802,1.7926,1.7954,1.7921,1.7884,1.7833,1.7871,1.7834,1.7896,1.7888,1.7867,1.7821,1.785,1.7856,1.7858,1.779,1.7844,1.7839,1.7911,1.7871,1.7837,1.7838,1.7863,1.7891,1.7897,1.7873,1.7892,1.7871,1.7909,1.7889,1.7883,1.7834,1.7814,1.7816,1.7815,1.7788,1.7795,1.7775,1.7785,1.7779,1.7729,1.7683,1.766,1.7666,1.7706,1.7676,1.7651,1.7639,1.7625,1.7645,1.7613,1.7608,1.7618,1.762,1.7602,1.7544,1.7533,1.7573,1.7572,1.7637,1.7612,1.7584,1.7581,1.76,1.7648,1.77,1.7742,1.786,1.7893,1.7942,1.78,1.7802,1.8016,1.8453,1.8708,1.8561,1.8315,1.8183,1.807,1.8044,1.7954,1.7865,1.7635,1.7646,1.7586,1.7567,1.7502,1.7436,1.7424,1.7399,1.74,1.7357,1.7318,1.7299,1.7355,1.7358,1.7301,1.7309,1.732,1.7354,1.7377,1.7343,1.7273,1.7207,1.6579,1.5901,1.6315,1.8592,2.177,2.3909,2.6825,2.6899,2.1541,1.7263,1.5346,1.4747,1.5298,1.6044,1.674,1.7456,1.7915,1.7996,1.7971,1.7955,1.7979,1.8,1.7993,1.7976,1.8058,1.8131,1.8162,1.8169,1.8213,1.829,1.8384,1.843,1.8465,1.8468,1.8517,1.8585,1.8675,1.8765,1.8837,1.8902,1.8997,1.9122,1.9258,1.9353,1.9432,1.9589,1.9726,1.9834,1.9985,2.0145,2.0359,2.0551,2.0655,2.0851,2.1081,2.129,2.152,2.1746,2.1972,2.215,2.2376,2.2608,2.2824,2.2947,2.3109,2.3183,2.322,2.3169,2.2936,2.2639,2.227,2.2039,2.1564,2.1069,2.0614,2.0111,1.9756,1.9389,1.9099,1.8794,1.8569,1.8359,1.8262,1.8121,1.8027,1.7955,1.7948,1.7924,1.7906,1.7852,1.781,1.7795,1.7787,1.7803,1.7788,1.7773,1.7769,1.7781,1.7818,1.779,1.7797,1.777,1.781,1.7802,1.7793,1.7738,1.7733,1.7784,1.7855,1.7827,1.7796,1.7795,1.7721,1.7754,1.7749,1.7703,1.7787,1.7786,1.7743,1.7738,1.7709,1.7686,1.7702,1.778,1.7768,1.7743,1.7777,1.7765,1.7755,1.7677,1.7705,1.7655,1.765,1.7738,1.771,1.7696,1.7686,1.7682,1.7729,1.7754,1.7748,1.7787,1.7717,1.7707,1.7648,1.7691,1.7702,1.7756,1.778,1.7803,1.774,1.7696,1.7651,1.7647,1.7682,1.7723,1.7701,1.7851,1.7945,1.8006,1.8024,1.7963,1.7883,1.8138,1.8671,1.8889,1.8723,1.8519,1.8479,1.8409,1.8349,1.8252,1.8097,1.7953,1.7828,1.7673,1.7637,1.7666,1.7675,1.7668,1.7651,1.7584,1.7444,1.7471,1.7482,1.744,1.7417,1.738,1.7508,1.7478,1.7559,1.7519,1.7457,1.7563,1.7519,1.6905,1.6307,1.6849,1.9338,2.2525,2.4428,2.7256,2.6049,2.0072,1.6194,1.4356,1.4109,1.4581,1.5351,1.6757,1.7668,1.8105,1.8176,1.8098,1.8127,1.8228,1.8237,1.8299,1.8272,1.8346,1.8491,1.8475,1.8449,1.8515,1.856,1.8675,1.8755,1.8756,1.8749,1.8854,1.898,1.9113,1.9115,1.9129,1.9186,1.9368,1.9572,1.9693,1.9771,1.9699,1.9918,2.015,2.031,2.0436,2.0497,2.0584,2.085,2.0964,2.1157,2.137,2.1634,2.1873,2.2075,2.2259,2.25,2.2721,2.2952,2.3106,2.3244,2.3367,2.3467,2.3444,2.3468,2.32,2.2826,2.2541,2.2158,2.1669,2.1263,2.081,2.0404,2.0006,1.9603,1.9262,1.895,1.8737,1.8582,1.8435,1.8301,1.8267,1.826,1.8205,1.8175,1.8017,1.7992,1.7989,1.802,1.806,1.8051,1.8059,1.7977,1.8003,1.8041,1.8046,1.8015,1.801,1.8038,1.8072,1.8062,1.8094,1.8084,1.8102,1.8146,1.8156,1.8175,1.8123,1.814,1.8142,1.8119,1.8085,1.8096,1.81,1.8114,1.8137,1.8136,1.8139,1.8112,1.8121,1.8042,1.8194,1.8104,1.8106,1.8189,1.8165,1.815,1.8087,1.7992,1.8052,1.8177,1.8192,1.8263,1.8302,1.831,1.8265,1.821,1.8303,1.8631,1.8995,1.8995,1.8736,1.8588,1.845,1.84,1.8387,1.8299,1.8136,1.8079,1.7968,1.7956,1.7924,1.7921,1.7906,1.7928,1.7919,1.7933,1.7886,1.7838,1.781,1.7729,1.7802,1.7739,1.7772,1.7806,1.7811,1.7843,1.781,1.7809,1.7639,1.6923,1.6467,1.837,2.1602,2.41,2.678,2.8014,2.3359,1.7809,1.5789,1.4726,1.5095,1.5548,1.657,1.7609,1.8164,1.8556,1.8511,1.8484,1.8537,1.8559,1.8576,1.8654,1.8696,1.8684,1.873,1.8799,1.8851,1.8879,1.8954,1.9058,1.9177,1.9211,1.9169,1.9276,1.9414,1.9522,1.9542,1.9559,1.9637,1.9714,1.9801,1.9912,2.0005,2.0081,2.019,2.0311,2.0457,2.0556,2.0747,2.0956,2.107,2.1266,2.1436,2.1627,2.186,2.2067,2.2258,2.2483,2.2704,2.2832,2.3017,2.3199,2.3285,2.3276,2.3264,2.3187,2.2981,2.2567,2.2063,2.184,2.1431,2.0995,2.0571,2.0085,1.9721,1.9358,1.9131,1.8895,1.8661,1.8537,1.8486,1.8389,1.8327,1.8252,1.8207,1.8208,1.816,1.8124,1.8085,1.8078,1.803,1.8056,1.8032,1.8004,1.7958,1.7951,1.7985,1.7962,1.7931,1.7965,1.7962,1.7992,1.7994,1.797,1.7959,1.7969,1.8014,1.8036,1.8012,1.8039,1.803,1.8035,1.8073,1.8055,1.8025,1.8021,1.7995,1.8035,1.7992,1.7971,1.7951,1.7954,1.7983,1.797,1.7927,1.792,1.7899,1.7916,1.7909,1.7927,1.7938,1.8065,1.8188,1.8178,1.8145,1.8109,1.8131,1.8413,1.8799,1.8864,1.8697,1.8553,1.8448,1.8293,1.8155,1.8063,1.7879,1.7868,1.7822,1.7753,1.7697,1.763,1.7632,1.7628,1.7609,1.7597,1.7577,1.7557,1.7573,1.7548,1.756,1.7537,1.7559,1.755,1.7544,1.7532,1.7545,1.7545,1.7137,1.624,1.6065,1.7608,2.0719,2.3621,2.6027,2.832,2.472,1.9077,1.6472,1.5391,1.5583,1.5877,1.7271,1.7955,1.834,1.8408,1.8368,1.8397,1.8406,1.8421,1.8402,1.8416,1.8441,1.8536,1.8536,1.8571,1.8614,1.8681,1.8703,1.8746,1.8773,1.8844,1.8907,1.9002,1.9029,1.9046,1.9152,1.9226,1.9353,1.9471,1.9533,1.964,1.9764,1.99,2.0051,2.0196,2.0301,2.0484,2.0696,2.0873,2.1062,2.1281,2.1493,2.1774,2.1877,2.2095,2.2295,2.2534,2.2765,2.3004,2.3167,2.3303,2.3435,2.3531,2.3529,2.3407,2.3158,2.2785,2.2346,2.1862,2.1386,2.0869,2.0409,2.0164,1.9805,1.9458,1.9147,1.886,1.8659,1.8514,1.8419,1.827,1.8188,1.8154,1.8151,1.8103,1.8033,1.8031,1.8023,1.8053,1.8009,1.7984,1.7984,1.7957,1.7999,1.8013,1.8009,1.7944,1.7945,1.7956,1.7939,1.7937,1.7931,1.7913,1.7955,1.7932,1.7928,1.7913,1.7908,1.7919,1.7949,1.7929,1.7931,1.7899,1.7928,1.7939,1.7902,1.7897,1.7904,1.7838,1.7874,1.783,1.7804,1.7805,1.7753,1.7798,1.7785,1.7748,1.7717,1.7719,1.7747,1.778,1.7747,1.7829,1.7924,1.7944,1.7958,1.7959,1.7854,1.8019,1.8376,1.8746,1.8643,1.8388,1.8323,1.8155,1.8051,1.7924,1.7759,1.7645,1.7642,1.7564,1.7546,1.7508,1.7441,1.7441,1.7435,1.743,1.7359,1.7309,1.7305,1.7342,1.7312,1.7301,1.7299,1.727,1.7325,1.7281,1.725,1.7205,1.7128,1.6532,1.5827,1.6158,1.8458,2.1707,2.396,2.6639,2.6666,2.1377,1.6979,1.504,1.4357,1.4933,1.5695,1.6887,1.7565,1.7822,1.783,1.7806,1.7819,1.7803,1.7858,1.7842,1.7853,1.7932,1.8012,1.8052,1.8138,1.8153,1.8219,1.828,1.8391,1.8437,1.8504,1.858,1.8722,1.8806,1.8819,1.8938,1.9004,1.9116,1.9268,1.9381,1.9519,1.9609,1.9766,1.992,2.0072,2.0169,2.0326,2.0548,2.0792,2.0935,2.1131,2.1336,2.1587,2.1809,2.1904,2.2085,2.2292,2.2534,2.2736,2.293,2.31,2.3154,2.3226,2.3193,2.3079,2.2785,2.2338,2.1878,2.1418,2.0894,2.039,1.9922,1.952,1.9315,1.8985,1.8665,1.8421,1.8221,1.8092,1.7969,1.7874,1.7801,1.7783,1.7768,1.7776,1.7752,1.7739,1.7689,1.771,1.7726,1.7679,1.7656,1.7667,1.7655,1.7663,1.7642,1.764,1.7632,1.7588,1.7637,1.7673,1.7622,1.7574,1.7622,1.7608,1.7636,1.7556,1.7577,1.7569,1.7602,1.7558,1.7574,1.7538,1.7541,1.7549,1.7566,1.7551,1.7532,1.7514,1.7493,1.7522,1.7475,1.7416,1.7435,1.7431,1.7431,1.7419,1.7378,1.736,1.7395,1.7417,1.7418,1.741,1.7357,1.7386,1.7413,1.744,1.7436,1.7377,1.7353,1.7388,1.7382,1.7354,1.7362,1.7373,1.7415,1.7331,1.7333,1.7345,1.7361,1.7387,1.7405,1.7508,1.7617,1.7631,1.7646,1.7553,1.7506,1.779,1.8282,1.8463,1.8306,1.8108,1.7988,1.7876,1.7766,1.7707,1.7519,1.7397,1.7346,1.7356,1.7337,1.7281,1.7267,1.724,1.7214,1.7198,1.721,1.7176,1.7151,1.7181,1.7179,1.7164,1.7117,1.7151,1.7166,1.7187,1.7159,1.7082,1.6922,1.6137,1.5685,1.6589,1.9321,2.2349,2.4343,2.7211,2.5217,1.9197,1.5892,1.4522,1.4493,1.5,1.614,1.7105,1.7636,1.7853,1.7803,1.7805,1.7782,1.781,1.7856,1.7955,1.7948,1.8014,1.8046,1.8113,1.8193,1.8214,1.8238,1.8294,1.8357,1.8415,1.8451,1.8542,1.8635,1.8729,1.8801,1.8817,1.889,1.8979,1.9096,1.9211,1.9317,1.9476,1.9536,1.9734,1.9863,2.0035,2.0244,2.042,2.0593,2.0812,2.0988,2.1155,2.1377,2.1567,2.1697,2.1912,2.2153,2.2348,2.2571,2.2793,2.2948,2.3097,2.3119,2.3042,2.2989,2.2819,2.2504,2.2099,2.1554,2.1081,2.0583,2.0075,1.9606,1.9375,1.9052,1.8717,1.8472,1.8233,1.8095,1.7958,1.7852,1.7675,1.7583,1.756,1.7541,1.7499,1.7464,1.7435,1.7417,1.7442,1.7409,1.7365,1.735,1.7314,1.7355,1.7357,1.7413,1.7381,1.7332,1.7316,1.7356,1.7364,1.7348,1.734,1.733,1.7367,1.7357,1.7267,1.7236,1.7295,1.7356,1.7311,1.7264,1.7249,1.7282,1.7203,1.7238,1.7215,1.7244,1.7214,1.7238,1.7247,1.7217,1.7147,1.7168,1.7173,1.7171,1.7205,1.7194,1.7178,1.718,1.7155,1.7191,1.7188,1.7158,1.713,1.7168,1.7168,1.7144,1.7187,1.7194,1.7211,1.7209,1.7162,1.708,1.7143,1.7143,1.7138,1.7165,1.7212,1.7205,1.7196,1.728,1.7355,1.735,1.7393,1.735,1.7309,1.7396,1.7758,1.8227,1.8214,1.8051,1.7922,1.7722,1.7606,1.7495,1.7355,1.717,1.7126,1.7095,1.7144,1.713,1.712,1.7121,1.7021,1.6946,1.7014,1.6991,1.694,1.6939,1.7017,1.7013,1.7009,1.6953,1.697,1.6901,1.7018,1.6953,1.69,1.6448,1.5621,1.5647,1.735,2.0526,2.3097,2.5507,2.6856,2.2258,1.6362,1.396,1.29,1.3572,1.474,1.5893,1.6816,1.7428,1.7632,1.7644,1.7605,1.7542,1.7556,1.7673,1.7717,1.7775,1.7801,1.7821,1.785,1.7929,1.7944,1.7968,1.8059,1.822,1.8237,1.8304,1.8375,1.8387,1.8506,1.8546,1.8638,1.8728,1.8884,1.8959,1.9032,1.9121,1.9236,1.9346,1.9552,1.9732,1.9932,2.0067,2.0247,2.0407,2.0652,2.0847,2.1057,2.1269,2.1428,2.1613,2.1836,2.1992,2.2168,2.2325,2.255,2.2761,2.2836,2.2813,2.2791,2.2644,2.2399,2.2038,2.1605,2.1129,2.0608,2.0151,1.9736,1.9517,1.9091,1.8742,1.8526,1.8274,1.8018,1.7854,1.7762,1.772,1.7645,1.7483,1.7409,1.7348,1.7431,1.7384,1.7351,1.7339,1.7329,1.7346,1.7318,1.726,1.7269,1.7314,1.7395,1.7411,1.7406,1.7414,1.7376,1.746,1.7438,1.7363,1.7426,1.7406,1.7476,1.7531,1.7465,1.7383,1.7353,1.7368,1.7378,1.7408,1.7409,1.7436,1.7417,1.7395,1.738,1.7312,1.7284,1.7351,1.7322,1.7337,1.7344,1.7395,1.7349,1.7382,1.7395,1.7408,1.7393,1.7405,1.7443,1.7574,1.7624,1.7615,1.7621,1.7605,1.7697,1.7951,1.8345,1.8467,1.8255,1.8137,1.7947,1.7863,1.7763,1.7684,1.7517,1.7424,1.739,1.7362,1.7366,1.7309,1.7315,1.7291,1.7313,1.729,1.7277,1.7192,1.7203,1.7225,1.7255,1.7267,1.723,1.7149,1.7204,1.7248,1.7208,1.7141,1.6886,1.6128,1.5891,1.7182,2.0164,2.3067,2.5258,2.7487,2.3918,1.7673,1.4819,1.339,1.3681,1.4831,1.5859,1.6922,1.7447,1.768,1.7793,1.7822,1.7827,1.7828,1.7808,1.7849,1.7897,1.7899,1.7958,1.7996,1.8117,1.8187,1.8203,1.8265,1.8359,1.8426,1.8463,1.8442,1.8538,1.8738,1.883,1.884,1.8932,1.8976,1.9011,1.9156,1.9299,1.9387,1.9551,1.9667,1.9798,1.9979,2.0141,2.0345,2.0488,2.0731,2.1009,2.1177,2.1372,2.1514,2.1674,2.1973,2.2028,2.2199,2.2366,2.262,2.2785,2.2819,2.2825,2.2712,2.2579,2.2247,2.1833,2.1257,2.0855,2.0391,1.9959,1.9519,1.9167,1.8995,1.868,1.8428,1.8308,1.8061,1.7958,1.7902,1.7767,1.7738,1.7738,1.7619,1.7587,1.7595,1.7537,1.7557,1.7473,1.7514,1.7521,1.7527,1.7566,1.7431,1.7478,1.7521,1.7639,1.7599,1.7474,1.7347,1.7418,1.7523,1.764,1.7577,1.7484,1.7475,1.7573,1.7556,1.7552,1.7527,1.7563,1.7589,1.7594,1.7571,1.7589,1.7581,1.7568,1.7563,1.7543,1.7541,1.7508,1.7541,1.7494,1.7489,1.7482,1.7514,1.7584,1.7663,1.7729,1.7727,1.7767,1.7782,1.7792,1.7914,1.8062,1.848,1.8589,1.8374,1.8224,1.8077,1.7969,1.7849,1.7776,1.7659,1.7589,1.7533,1.7509,1.7545,1.7491,1.746,1.7432,1.7469,1.7455,1.7432,1.742,1.743,1.739,1.7454,1.747,1.7534,1.7598,1.7712,1.7875,1.7999,1.81,1.773,1.7338,1.8033,2.0514,2.2239,2.5078,2.7572,2.9781,2.647,2.0227,1.7601,1.6249,1.6635,1.7393,1.8574,1.9365,1.9974,2.0128,2.0208,2.0033,2.0083,2.0005,2.0096,2.0069,2.0197,1.9992,2.0073,2.0007,2.0105,1.9997,2.0043,1.9921,2.0028,2.0007,2.0026,1.9979,2.0076,2.0028,2.0063,2.0091,2.0106,2.0182,2.0245,2.0303,2.0323,2.0371,2.0469,2.059,2.0735,2.0898,2.1,2.1181,2.1417,2.173,2.1978,2.2251,2.2503,2.2816,2.3125,2.3308,2.3549,2.3772,2.3842,2.4023,2.4218,2.436,2.4345,2.423,2.4002,2.3714,2.3259,2.2797,2.2311,2.1917,2.1462,2.1088,2.0669,2.036,2.0072,1.9862,1.9587,1.9367,1.9283,1.921,1.905,1.8995,1.8845,1.8836,1.8765,1.874,1.8663,1.8592,1.8572,1.8577,1.854,1.8538,1.8502,1.8468,1.8453,1.8479,1.8403,1.8406,1.8325,1.8375,1.8312,1.8359,1.8288,1.8297,1.8253,1.8339,1.8292,1.8252,1.8214,1.8203,1.8207,1.8242,1.8199,1.8191,1.8148,1.8229,1.8178,1.8176,1.8136,1.8103,1.8081,1.8123,1.8097,1.8031,1.8053,1.8013,1.8018,1.8016,1.8031,1.8148,1.8269,1.8305,1.8275,1.8183,1.8117,1.8387,1.8614,1.8966,1.9047,1.879,1.8707,1.8576,1.8525,1.8349,1.8251,1.8063,1.8067,1.8007,1.7964,1.7877,1.7833,1.7848,1.7781,1.7729,1.7744,1.7726,1.7774,1.7687,1.7682,1.7684,1.7655,1.7671,1.7689,1.7634,1.7687,1.7652,1.7296,1.6457,1.5961,1.6901,1.956,2.2855,2.5418,2.8658,2.8503,2.3561,1.8897,1.6687,1.6181,1.618,1.6596,1.7542,1.8149,1.8279,1.8263,1.817,1.8237,1.8181,1.8252,1.8243,1.8231,1.8263,1.834,1.8261,1.8297,1.8353,1.8453,1.8524,1.8627,1.8629,1.8662,1.8669,1.881,1.8846,1.8885,1.8924,1.9033,1.9123,1.9234,1.9291,1.9381,1.9437,1.9676,1.9721,1.9883,2.0082,2.0177,2.0375,2.063,2.086,2.1047,2.1259,2.1497,2.1719,2.1904,2.2169,2.2394,2.257,2.2795,2.2955,2.3058,2.3144,2.3158,2.3174,2.3027,2.2722,2.2355,2.1909,2.143,2.0917,2.0429,1.9963,1.9572,1.9241,1.8929,1.861,1.8421,1.8212,1.8103,1.7993,1.7865,1.7818,1.7759,1.7776,1.772,1.7668,1.7609,1.7608,1.7621,1.7625,1.7614,1.7598,1.7586,1.7604,1.759,1.7569,1.7568,1.7593,1.7585,1.7624,1.766,1.7671,1.7687,1.7685,1.7743,1.7779,1.7771,1.7806,1.7818,1.7876,1.7866,1.7875,1.7858,1.7894,1.7878,1.7885,1.7824,1.7827,1.7841,1.7874,1.7865,1.7844,1.7766,1.7807,1.7831,1.7837,1.7829,1.7819,1.7849,1.7953,1.8057,1.8023,1.8053,1.7992,1.7985,1.8231,1.8596,1.8784,1.8597,1.8498,1.8448,1.8257,1.8092,1.7995,1.7791,1.77,1.7611,1.7553,1.7511,1.7492,1.7455,1.7442,1.7405,1.7381,1.7419,1.7394,1.7345,1.7336,1.7331,1.7331,1.7338,1.7352,1.7336,1.7311,1.7271,1.7315,1.7023,1.6167,1.5864,1.7062,2.0044,2.3078,2.5253,2.783,2.4802,1.8809,1.5811,1.4709,1.4597,1.5094,1.5191,1.5098,1.737,1.7917,1.7919,1.7941,1.7927,1.7973,1.7913,1.8018,1.8065,1.8138,1.8113,1.8185,1.8239,1.8317,1.8401,1.8423,1.8458,1.8534,1.8576,1.8701,1.8724,1.8808,1.8827,1.899,1.9062,1.9202,1.9237,1.938,1.9491,1.9681,1.9769,1.9916,2.0074,2.0283,2.0475,2.0556,2.072,2.093,2.1169,2.1426,2.1654,2.1848,2.2059,2.2305,2.2526,2.2753,2.295,2.3101,2.3279,2.3376,2.3358,2.3281,2.2999,2.2651,2.2462,2.2008,2.1491,2.0939,2.0461,1.9994,1.9591,1.9248,1.8878,1.8593,1.8401,1.8257,1.8119,1.7985,1.7935,1.7878,1.7827,1.7796,1.774,1.7761,1.772,1.7728,1.7697,1.7707,1.769,1.7676,1.7712,1.77,1.7644,1.763,1.7655,1.7676,1.7664,1.7633,1.7603,1.7635,1.769,1.7652,1.7653,1.7615,1.7612,1.765,1.7658,1.7621,1.7602,1.7602,1.7596,1.7616,1.76,1.7564,1.7574,1.7575,1.757,1.7546,1.7482,1.7499,1.7501,1.7482,1.7486,1.7474,1.7474,1.7473,1.75,1.7489,1.7499,1.7476,1.7494,1.7526,1.7528,1.7534,1.756,1.7569,1.7611,1.7646,1.7733,1.784,1.7873,1.7886,1.7914,1.7741,1.7839,1.8172,1.8664,1.8649,1.8398,1.8302,1.8131,1.8051,1.7931,1.7793,1.7584,1.7565,1.7529,1.7515,1.7446,1.7411,1.7435,1.744,1.7459,1.7421,1.7412,1.74,1.7436,1.744,1.7435,1.7425,1.743,1.7472,1.7478,1.7468,1.7475,1.7263,1.6516,1.6101,1.6973,1.9723,2.1464,2.376,2.6275,2.7345,2.2629,1.7081,1.498,1.4151,1.4942,1.554,1.699,1.7651,1.8089,1.8108,1.8093,1.8079,1.8143,1.8151,1.8233,1.8167,1.822,1.8269,1.8345,1.839,1.8458,1.8471,1.8582,1.8619,1.8727,1.8711,1.8788,1.8872,1.9003,1.9062,1.9138,1.923,1.9311,1.9427,1.9473,1.9507,1.9636,1.9766,1.9945,2.0109,2.0292,2.042,2.0609,2.0857,2.1018,2.1254,2.1468,2.1687,2.1912,2.2166,2.2361,2.2536,2.272,2.2945,2.3039,2.3236,2.3372,2.3482,2.3533,2.343,2.3185,2.2883,2.2481,2.2006,2.1518,2.0998,2.0496,2.0056,1.9665,1.9315,1.8982,1.8715,1.8513,1.84,1.8304,1.821,1.8078,1.8002,1.7932,1.7906,1.7919,1.786,1.7798,1.7755,1.774,1.7786,1.7753,1.774,1.7712,1.7728,1.7668,1.7663,1.7667,1.7705,1.7672,1.7752,1.771,1.7732,1.7676,1.77,1.7739,1.772,1.7664,1.7635,1.7599,1.7642,1.7637,1.7637,1.7589,1.7598,1.7588,1.7592,1.7579,1.7544,1.7491,1.7544,1.7553,1.7564,1.752,1.7526,1.7548,1.7513,1.7456,1.7455,1.7486,1.7445,1.745,1.7441,1.7407,1.737,1.7412,1.7433,1.7461,1.7355,1.7371,1.7417,1.7412,1.7494,1.7607,1.7638,1.7671,1.7705,1.761,1.7824,1.8273,1.8528,1.8415,1.8201,1.8068,1.79,1.7874,1.7759,1.7636,1.7477,1.7447,1.7387,1.7396,1.732,1.7306,1.7258,1.7233,1.723,1.7231,1.7247,1.7201,1.7263,1.7233,1.7215,1.7199,1.7182,1.7197,1.7179,1.7214,1.7215,1.6985,1.6262,1.5754,1.6538,1.9247,2.2442,2.4603,2.7197,2.5224,1.9068,1.5242,1.3614,1.3477,1.4525,1.5607,1.6239,1.7167,1.7701,1.7895,1.7838,1.782,1.7836,1.7836,1.7941,1.8006,1.8062,1.8076,1.8122,1.8185,1.8227,1.824,1.8405,1.8436,1.8551,1.8524,1.8555,1.8605,1.8662,1.8773,1.8881,1.8988,1.9018,1.9154,1.9264,1.9436,1.9564,1.9686,1.9777,1.9988,2.0111,2.0227,2.0374,2.0634,2.0829,2.0885,2.1162,2.1364,2.1527,2.1777,2.1982,2.2272,2.2468,2.2686,2.28,2.2952,2.307,2.3088,2.3101,2.3029,2.2856,2.2431,2.1922,2.1423,2.1183,2.072,2.0262,1.9736,1.9348,1.8991,1.869,1.8509,1.8294,1.81,1.7921,1.7835,1.7815,1.7723,1.7668,1.761,1.7536,1.7459,1.7417,1.7441,1.7437,1.7541,1.754,1.7492,1.7432,1.7404,1.7433,1.7463,1.7448,1.7491,1.7492,1.7493,1.75,1.7512,1.7449,1.7481,1.7494,1.7529,1.7491,1.751,1.7506,1.7508,1.7537,1.7521,1.746,1.746,1.745,1.7468,1.7487,1.7458,1.7485,1.742,1.7416,1.7442,1.7415,1.7431,1.7379,1.7374,1.7392,1.7386,1.7393,1.74,1.74,1.7438,1.7388,1.7493,1.7608,1.7602,1.7693,1.7607,1.7588,1.7841,1.8182,1.8482,1.8345,1.8111,1.806,1.7957,1.7874,1.7738,1.7592,1.7447,1.745,1.7347,1.7327,1.7297,1.7235,1.7262,1.7273,1.7235,1.718,1.7175,1.7144,1.7143,1.7138,1.7133,1.7106,1.7124,1.714,1.7115,1.7124,1.7096,1.6963,1.6361,1.576,1.6293,1.8564,2.1852,2.4114,2.6836,2.6077,2.0402,1.5973,1.4119,1.3544,1.4306,1.4882,1.5904,1.6989,1.7546,1.784,1.7783,1.7786,1.7781,1.787,1.7831,1.7903,1.7866,1.7966,1.7998,1.8079,1.8095,1.8182,1.8177,1.8291,1.8275,1.8351,1.8386,1.8506,1.8523,1.8678,1.8789,1.8856,1.8944,1.9061,1.9125,1.9266,1.9407,1.9568,1.9676,1.982,1.9914,2.0139,2.0301,2.0438,2.0658,2.0838,2.1062,2.1312,2.1566,2.18,2.1967,2.2219,2.2454,2.2652,2.2819,2.2971,2.3089,2.3166,2.3108,2.3005,2.2714,2.2341,2.1851,2.1615,2.1166,2.0592,2.0145,1.9727,1.9402,1.9064,1.8764,1.8518,1.836,1.8267,1.8176,1.8051,1.7964,1.7875,1.7841,1.7815,1.7788,1.77,1.7715,1.7688,1.7734,1.7674,1.7653,1.763,1.7649,1.767,1.7669,1.7656,1.7651,1.7638,1.7712,1.771,1.7703,1.7697,1.7762,1.772,1.7772,1.7769,1.7742,1.7718,1.7721,1.7757,1.7749,1.7685,1.7705,1.7748,1.7745,1.7682,1.7663,1.7607,1.7564,1.7591,1.7586,1.756,1.754,1.7536,1.7539,1.7522,1.7489,1.7505,1.7501,1.7479,1.7502,1.7477,1.7521,1.7541,1.7616,1.7632,1.7671,1.7765,1.7871,1.793,1.7921,1.777,1.776,1.8033,1.831,1.8599,1.8439,1.8272,1.8157,1.8027,1.7916,1.7791,1.762,1.7516,1.7493,1.7438,1.7406,1.732,1.7297,1.7255,1.7248,1.7202,1.7185,1.7141,1.7161,1.7135,1.7143,1.7116,1.7109,1.712,1.7153,1.7151,1.7154,1.7104,1.6764,1.5926,1.5622,1.6881,1.9888,2.2806,2.5118,2.7858,2.4807,2.1515,1.8843,1.4874,1.4269,1.4814,1.5666,1.6761,1.7493,1.7708,1.7777,1.7694,1.7761,1.7728,1.7826,1.777,1.7872,1.7855,1.7932,1.7945,1.8037,1.7993,1.8082,1.8166,1.8254,1.8218,1.8323,1.8345,1.8489,1.856,1.8627,1.8697,1.8777,1.8841,1.9012,1.9101,1.9215,1.9324,1.9491,1.9556,1.9724,1.9854,2.0036,2.0211,2.0452,2.0668,2.0824,2.1102,2.1318,2.1543,2.1783,2.1972,2.2198,2.241,2.2601,2.2801,2.2892,2.3035,2.3033,2.3033,2.2908,2.272,2.2286,2.1857,2.1388,2.0919,2.0379,1.9931,1.9492,1.9193,1.8848,1.8554,1.828,1.8161,1.8046,1.7932,1.7787,1.7736,1.7699,1.7697,1.766,1.7617,1.7563,1.759,1.7537,1.7554,1.7499,1.75,1.7481,1.7516,1.7524,1.7514,1.7457,1.748,1.7494,1.7569,1.751,1.7505,1.75,1.748,1.7482,1.7523,1.747,1.7463,1.7443,1.7502,1.7464,1.7487,1.744,1.7415,1.7453,1.7468,1.7442,1.7397,1.7425,1.7441,1.7417,1.7388,1.7352,1.734,1.7375,1.7377,1.7353,1.7335,1.7326,1.7317,1.7309,1.7318,1.729,1.7326,1.7318,1.7364,1.7326,1.7266,1.7286,1.7261,1.7258,1.735,1.7427,1.7479,1.7559,1.7633,1.7607,1.7464,1.7449,1.7629,1.8075,1.8431,1.8219,1.8078,1.7948,1.7813,1.7745,1.7611,1.7472,1.7352,1.7345,1.7303,1.7232,1.7147,1.7145,1.7129,1.7125,1.7045,1.7066,1.704,1.7058,1.7043,1.7008,1.6968,1.6998,1.7023,1.7039,1.7011,1.7024,1.6981,1.6937,1.6291,1.555,1.5843,1.813,2.1323,2.361,2.6434,2.6861,2.1622,1.6838,1.4738,1.412,1.4741,1.5492,1.6733,1.74,1.7638,1.7721,1.7637,1.7716,1.7689,1.7706,1.767,1.7731,1.7776,1.7872,1.7863,1.7957,1.7962,1.8042,1.8126,1.82,1.8213,1.831,1.8351,1.8477,1.8524,1.8584,1.8664,1.8768,1.884,1.9008,1.9094,1.9199,1.9313,1.9475,1.9631,1.977,1.993,2.0099,2.0302,2.0516,2.0715,2.0934,2.1174,2.1267,2.1523,2.1751,2.1945,2.2165,2.2379,2.2603,2.2753,2.2876,2.3068,2.3166,2.3173,2.3093,2.2878,2.254,2.2113,2.1678,2.1182,2.0655,2.1145,2.0021,1.9489,1.9276,1.8826,1.8661,1.8338,1.8272,1.8068,1.7999,1.7834,1.7869,1.7743,1.7769,1.7687,1.7663,1.7612,1.7683,1.7624,1.7643,1.7604,1.7626,1.7582,1.7641,1.7594,1.7606,1.7552,1.7597,1.761,1.7621,1.762,1.763,1.7609,1.77,1.7653,1.7675,1.7667,1.764,1.7644,1.7639,1.7629,1.7643,1.767,1.7666,1.7647,1.7591,1.7567,1.758,1.7598,1.7607,1.7598,1.7608,1.7621,1.7649,1.7655,1.7613,1.7529,1.7528,1.7525,1.7502,1.7508,1.7489,1.7497,1.7498,1.748,1.7467,1.7451,1.7447,1.7454,1.7446,1.7446,1.7399,1.7426,1.7462,1.7516,1.7474,1.7457,1.7517,1.7602,1.7719,1.7769,1.775,1.7752,1.775,1.8071,1.85,1.8623,1.84,1.8252,1.8077,1.7997,1.7831,1.7768,1.758,1.7609,1.7538,1.7462,1.7418,1.7375,1.7356,1.7363,1.7278,1.7223,1.7213,1.7263,1.7319,1.7325,1.7245,1.7238,1.7248,1.7211,1.7197,1.7257,1.7239,1.7178,1.6536,1.6127,1.6,1.7384,2.0541,2.3255,2.5421,2.7629,2.4033,1.7679,1.4755,1.344,1.3934,1.4826,1.605,1.7058,1.7633,1.784,1.7838,1.7939,1.7944,1.7949,1.7926,1.7952,1.8039,1.8077,1.8079,1.8117,1.8221,1.8276,1.8348,1.835,1.8433,1.8495,1.8566,1.8676,1.8723,1.8772,1.8841,1.8994,1.9053,1.9201,1.9314,1.9372,1.9454,1.9584,1.9723,1.9869,2.0059,2.0189,2.0349,2.055,2.0736,2.0996,2.1227,2.1432,2.1662,2.1871,2.2102,2.2232,2.2439,2.2702,2.2919,2.3018,2.3133,2.3264,2.3328,2.3361,2.3182,2.292,2.2565,2.2185,2.168,2.1108,2.0566,2.013,1.9808,1.9547,1.9211,1.9027,1.8819,1.8576,1.8451,1.8313,1.8248,1.8104,1.8083,1.81,1.8025,1.796,1.8021,1.7981,1.8047,1.7991,1.7976,1.7926,1.7944,1.793,1.7965,1.7921,1.7904,1.7938,1.8002,1.7965,1.7994,1.8052,1.7976,1.8011,1.797,1.7968,1.8037,1.8068,1.8141,1.8053,1.8024,1.8008,1.7997,1.8039,1.8111,1.8106,1.8023,1.7966,1.7933,1.7964,1.796,1.7962,1.7968,1.8028,1.7991,1.793,1.7979,1.8,1.8013,1.8054,1.8012,1.7948,1.7939,1.7971,1.807,1.8086,1.805,1.8062,1.8181,1.8134,1.8206,1.8135,1.8126,1.8414,1.8724,1.8976,1.8975,1.8826,1.8608,1.8486,1.8364,1.8268,1.8233,1.8128,1.82,1.804,1.7936,1.7837,1.7957,1.7982,1.7869,1.7855,1.7815,1.781,1.7821,1.7854,1.7849,1.7847,1.7882,1.7949,1.788,1.7871,1.7728,1.7828,1.7658,1.6957,1.6523,1.7315,2.0071,2.3176,2.5351,2.7929,2.5503,1.9213,1.5547,1.3928,1.3852,1.4828,1.6164,1.7347,1.7875,1.8381,1.8557,1.8478,1.8496,1.8539,1.8681,1.8813,1.8814,1.8783,1.8835,1.8869,1.8934,1.9022,1.9081,1.9184,1.924,1.9242,1.924,1.9282,1.9409,1.947,1.9575,1.9629,1.9798,1.9833,1.9984,2.0024,2.0183,2.0309,2.0445,2.0581,2.0652,2.0846,2.1007,2.1214,2.1426,2.1646,2.1818,2.1939,2.22,2.2419,2.2647,2.2816,2.3009,2.3198,2.3401,2.355,2.3749,2.3831,2.3895,2.3799,2.3634,2.3315,2.2948,2.2553,2.203,2.1544,2.1286,2.0814,2.0434,2.0064,1.9817,1.9486,1.9203,1.9098,1.8958,1.8885,1.8809,1.8665,1.8637,1.8617,1.8525,1.8544,1.8445,1.846,1.8453,1.8534,1.8462,1.8395,1.8385,1.8506,1.8449,1.8457,1.8388,1.8438,1.844,1.8427,1.8431,1.8446,1.8473,1.8528,1.8504,1.8494,1.8429,1.8451,1.8486,1.8495,1.847,1.8524,1.8482,1.8523,1.8496,1.8454,1.8453,1.8432,1.8421,1.8429,1.8384,1.8369,1.8319,1.8335,1.8351,1.8423,1.8571,1.867,1.8715,1.8677,1.8685,1.8753,1.863,1.8817,1.9157,1.9377,1.9249,1.9077,1.8912,1.8778,1.8677,1.8549,1.837,1.8327,1.8364,1.8331,1.8281,1.8213,1.8172,1.8089,1.8079,1.8041,1.8053,1.8056,1.8053,1.8095,1.8025,1.7971,1.804,1.8057,1.8073,1.8081,1.8049,1.8013,1.751,1.6596,1.653,1.7108,1.962,2.282,2.5273,2.8681,2.7405,2.1503,1.7665,1.6068,1.5597,1.6152,1.6967,1.7876,1.8477,1.8639,1.8606,1.8612,1.8577,1.8536,1.8567,1.8537,1.863,1.8659,1.8712,1.8792,1.885,1.878,1.8893,1.8885,1.8955,1.8956,1.9056,1.9127,1.9209,1.9242,1.93,1.9355,1.9489,1.9535,1.9647,1.9735,1.9851,1.9926,2.0074,2.0287,2.0395,2.0549,2.0711,2.0856,2.1111,2.1297,2.1481,2.1695,2.1917,2.2147,2.2373,2.2551,2.273,2.2852,2.3077,2.3231,2.3291,2.338,2.341,2.3346,2.3098,2.2783,2.2383,2.1907,2.1405,2.1007,2.0519,2.0114,1.9697,1.9417,1.9162,1.8887,1.884,1.8684,1.8574,1.8511,1.8358,1.8275,1.8282,1.8207,1.8248,1.825,1.8227,1.8238,1.8137,1.8103,1.8071,1.8114,1.8134,1.8087,1.8104,1.8054,1.8118,1.8064,1.812,1.8111,1.8123,1.8108,1.8191,1.8209,1.8143,1.823,1.8129,1.8148,1.8186,1.8214,1.8156,1.8124,1.814,1.8127,1.8164,1.819,1.8131,1.8113,1.8098,1.8067,1.8089,1.8053,1.8098,1.8101,1.8214,1.8314,1.8335,1.8347,1.8325,1.8272,1.8417,1.8785,1.9051,1.9076,1.8978,1.8835,1.8635,1.8492,1.8355,1.8292,1.815,1.8101,1.8002,1.8023,1.7944,1.7898,1.7877,1.7792,1.7719,1.7901,1.7836,1.7751,1.776,1.7771,1.7782,1.7779,1.78,1.773,1.767,1.7782,1.781,1.7769,1.6995,1.6029,1.6335,1.8432,2.1801,2.4731,2.8485,2.8901,2.3544,1.8425,1.6074,1.5505,1.5473,1.5823,1.7049,1.7833,1.8226,1.8317,1.8251,1.8372,1.8316,1.8294,1.832,1.8432,1.843,1.8501,1.847,1.8522,1.858,1.8694,1.8672,1.8754,1.8671,1.8549,1.8611,1.871,1.871,1.8772,1.884,1.8961,1.9026,1.9062,1.9203,1.9286,1.9411,1.9511,1.9607,1.9741,1.9873,1.9962,2.0138,2.0357,2.0506,2.0745,2.0947,2.1158,2.134,2.1534,2.1765,2.1989,2.225,2.2478,2.2678,2.2834,2.299,2.3017,2.295,2.2695,2.2436,2.2254,2.1816,2.1321,2.0844,2.0338,1.9889,1.9499,1.9179,1.8842,1.8512,1.8337,1.8186,1.8,1.7922,1.7865,1.7809,1.777,1.7738,1.7717,1.7722,1.7685,1.7701,1.7718,1.7645,1.7606,1.7628,1.7653,1.7686,1.7715,1.7662,1.7609,1.7652,1.763,1.7659,1.7605,1.7616,1.7687,1.7718,1.7643,1.7651,1.7605,1.7655,1.7673,1.7669,1.7627,1.7619,1.7647,1.7664,1.7636,1.7666,1.7609,1.763,1.7616,1.7593,1.7603,1.7597,1.7584,1.7608,1.759,1.7591,1.7561,1.7596,1.7619,1.7664,1.773,1.7799,1.7832,1.7897,1.7873,1.7711,1.7969,1.8374,1.8667,1.8547,1.835,1.8199,1.8058,1.8014,1.7916,1.777,1.7536,1.7495,1.7508,1.7444,1.7415,1.7365,1.735,1.736,1.7345,1.7297,1.7315,1.7292,1.7272,1.7258,1.7265,1.7242,1.728,1.7295,1.7306,1.7287,1.725,1.7047,1.6283,1.5801,1.6666,1.9357,2.2598,2.4835,2.7856,2.6313,2.0369,1.6477,1.4682,1.4466,1.5011,1.541,1.6725,1.7532,1.7829,1.796,1.784,1.7899,1.7825,1.791,1.7913,1.7991,1.7959,1.8084,1.809,1.8196,1.8178,1.8261,1.8265,1.8365,1.8401,1.8473,1.8442,1.8536,1.8592,1.87,1.8776,1.8855,1.8918,1.906,1.9205,1.9301,1.9384,1.9543,1.9684,1.9859,2.0007,2.0167,2.0373,2.0601,2.0711,2.0937,2.1144,2.1339,2.1621,2.1866,2.2083,2.2286,2.2486,2.2695,2.29,2.3016,2.3104,2.3091,2.3068,2.2873,2.2548,2.2103,2.1639,2.136,2.0864,2.0369,1.9871,1.9408,1.9073,1.8778,1.8526,1.8228,1.8052,1.792,1.7845,1.7743,1.7684,1.7588,1.7584,1.7593,1.7603,1.7549,1.75,1.7524,1.748,1.7445,1.7491,1.7404,1.7407,1.7397,1.7444,1.7398,1.7409,1.7367,1.7412,1.739,1.743,1.7358,1.7354,1.7372,1.7401,1.7398,1.7388,1.7345,1.7339,1.7355,1.7372,1.7344,1.7297,1.7325,1.7361,1.7324,1.7311,1.7291,1.7278,1.7274,1.7277,1.7246,1.725,1.7239,1.7249,1.7264,1.7243,1.7241,1.7224,1.7202,1.7254,1.7243,1.7211,1.7181,1.7181,1.7185,1.7135,1.7093,1.7118,1.7148,1.7196,1.7184,1.7195,1.7315,1.7425,1.7412,1.7456,1.7381,1.7275,1.7518,1.7989,1.8268,1.8073,1.7907,1.7778,1.7624,1.7551,1.7438,1.7269,1.7128,1.7104,1.7062,1.699,1.6905,1.6904,1.6908,1.6875,1.6846,1.6797,1.6779,1.6772,1.6809,1.6757,1.6749,1.6734,1.6723,1.6742,1.6745,1.6724,1.6681,1.6194,1.5462,1.5518,1.6217,1.8868,2.2031,2.4081,2.7062,2.5334,1.9407,1.5691,1.4187,1.397,1.4537,1.5683,1.6644,1.7172,1.7343,1.7311,1.7322,1.7324,1.736,1.7371,1.7418,1.7439,1.752,1.7543,1.7615,1.7636,1.768,1.7739,1.7835,1.788,1.7909,1.792,1.8025,1.8084,1.8169,1.8208,1.8311,1.8405,1.8485,1.8541,1.8675,1.8793,1.8892,1.9033,1.9182,1.9323,1.9498,1.9657,1.9874,2.0075,2.0272,2.0484,2.0671,2.0933,2.1169,2.1381,2.1551,2.1782,2.1909,2.2101,2.2324,2.2473,2.2578,2.2657,2.2662,2.2508,2.2282,2.19,2.1489,2.1,2.0468,1.9973,1.9493,1.9106,1.873,1.8382,1.8061,1.7939,1.7719,1.7588,1.7531,1.7388,1.7269,1.7185,1.7177,1.7167,1.7104,1.7092,1.7071,1.7061,1.7104,1.7059,1.7019,1.7025,1.7034,1.7021,1.7008,1.6992,1.6964,1.6988,1.7018,1.7,1.7009,1.702,1.7041,1.7049,1.7029,1.6996,1.6978,1.7,1.7006,1.6987,1.6985,1.7034,1.7047,1.706,1.7028,1.6964,1.696,1.6981,1.7023,1.7015,1.7003,1.6956,1.6968,1.6963,1.6953,1.6952,1.6936,1.6909,1.6911,1.6939,1.6894,1.6888,1.6883,1.6923,1.6924,1.6901,1.6949,1.6884,1.6837,1.6921,1.6918,1.6984,1.704,1.714,1.7171,1.7222,1.7097,1.7197,1.7549,1.8024,1.7919,1.7707,1.7558,1.7484,1.7347,1.7262,1.719,1.7024,1.6985,1.6871,1.685,1.6754,1.6737,1.672,1.6719,1.672,1.6721,1.6617,1.6612,1.6619,1.6606,1.6618,1.6573,1.6517,1.6587,1.6608,1.6616,1.6611,1.655,1.6127,1.5401,1.5428,1.7068,2.0208,2.2779,2.5096,2.6699,2.2464,1.6466,1.3914,1.2899,1.3034,1.394,1.5037,1.6214,1.6936,1.7207,1.7192,1.7179,1.7228,1.726,1.7285,1.7276,1.7258,1.7282,1.7354,1.7413,1.7421,1.7487,1.7533,1.7629,1.7681,1.7683,1.7725,1.7797,1.7927,1.8027,1.8149,1.8179,1.824,1.8343,1.853,1.8651,1.8756,1.8804,1.8902,1.9033,1.9244,1.9463,1.9648,1.9747,1.9909,2.0143,2.0263,2.0448,2.0662,2.0934,2.1189,2.1401,2.1589,2.1789,2.2004,2.2183,2.2314,2.2415,2.2473,2.2406,2.2201,2.1959,2.1771,2.133,2.0802,2.0282,1.9762,1.94,1.8909,1.8536,1.8172,1.7864,1.769,1.7516,1.7381,1.7289,1.7183,1.7105,1.7083,1.7047,1.7058,1.6967,1.6908,1.6911,1.6938,1.6984,1.6979,1.6888,1.6841,1.6909,1.6914,1.6894,1.6901,1.6896,1.6951,1.7011,1.6958,1.698,1.694,1.6899,1.6909,1.6922,1.6963,1.6814,1.6841,1.6897,1.6944,1.6942,1.6887,1.6851,1.6888,1.6977,1.694,1.692,1.6867,1.6908,1.6901,1.6867,1.6848,1.6897,1.695,1.693,1.6847,1.6881,1.6838,1.6902,1.6971,1.7003,1.7015,1.6938,1.7039,1.7145,1.7189,1.7255,1.7212,1.7243,1.7321,1.7531,1.7864,1.7979,1.7906,1.7775,1.774,1.7608,1.7458,1.7368,1.7158,1.6954,1.6876,1.6852,1.6857,1.6826,1.6832,1.6777,1.67,1.6588,1.6649,1.6726,1.6708,1.6751,1.6738,1.6815,1.6921,1.6971,1.7016,1.6981,1.697,1.7082,1.6704,1.5943,1.6051,1.7751,2.1075,2.3743,2.5931,2.7205,2.2751,1.6753,1.5217,1.3727,1.3244,1.4281,1.5549,1.6744,1.747,1.7907,1.8068,1.8135,1.8044,1.811,1.8037,1.8065,1.803,1.8138,1.8148,1.8197,1.816,1.8172,1.8168,1.8243,1.8207,1.8262,1.8313,1.8396,1.8294,1.8362,1.8472,1.8655,1.8717,1.8769,1.8833,1.8895,1.9056,1.9213,1.9279,1.9412,1.9528,1.9663,1.9811,1.998,2.0159,2.0392,2.0661,2.0907,2.0997,2.1201,2.144,2.1661,2.1878,2.2053,2.2182,2.2339,2.2446,2.2565,2.2581,2.2435,2.2441,2.2044,2.1678,2.1216,2.0693,2.026,1.9768,1.9289,1.8902,1.8522,1.8271,1.8076,1.7939,1.7756,1.7555,1.7406,1.7362,1.7356,1.7337,1.732,1.7229,1.7215,1.7212,1.718,1.7181,1.7178,1.7181,1.7199,1.7171,1.7143,1.7137,1.7203,1.7258,1.7253,1.7163,1.715,1.7174,1.7246,1.7289,1.7327,1.7273,1.7193,1.7193,1.7229,1.7256,1.7253,1.7246,1.7243,1.7256,1.7274,1.7229,1.72,1.7222,1.7243,1.7208,1.7179,1.7165,1.7262,1.7311,1.7385,1.7433,1.7426,1.7446,1.7398,1.7638,1.7956,1.8197,1.81,1.7908,1.7768,1.7627,1.7488,1.7419,1.7203,1.7152,1.7037,1.7024,1.7029,1.7021,1.7025,1.697,1.6903,1.684,1.6869,1.687,1.6862,1.6819,1.6789,1.6785,1.6844,1.6814,1.6797,1.6794,1.6779,1.6804,1.6428,1.5662,1.5434,1.5986,1.8323,2.151,2.3682,2.6399,2.6073,2.0629,1.6044,1.4024,1.3264,1.3995,1.4971,1.6187,1.6873,1.7227,1.737,1.7335,1.7367,1.7347,1.7355,1.7331,1.7373,1.7417,1.7473,1.7473,1.757,1.764,1.7658,1.7693,1.7754,1.7816,1.7956,1.7989,1.807,1.8086,1.8189,1.8257,1.8314,1.8377,1.8425,1.8535,1.8688,1.8852
