2.4423,2.4517,2.448,2.4557,2.4535,2.4656,2.4637,2.4662,2.4723,2.484,2.4858,2.5017,2.5056,2.5165,2.5127,2.5278,2.5306,2.5434,2.5491,2.5584,2.5672,2.5832,2.5922,2.6071,2.6159,2.6361,2.6496,2.6703,2.6823,2.6991,2.7128,2.7327,2.7528,2.7776,2.7844,2.8051,2.8275,2.8478,2.8669,2.892,2.9112,2.9325,2.949,2.9664,2.9724,2.9793,2.9823,2.9753,2.9516,2.9184,2.875,2.8317,2.7825,2.7627,2.7163,2.677,2.6393,2.6075,2.5773,2.5558,2.5366,2.5208,2.5146,2.5062,2.5031,2.4962,2.4936,2.4928,2.4871,2.4815,2.4805,2.4866,2.4876,2.4879,2.4885,2.4917,2.4951,2.4909,2.493,2.4932,2.4975,2.498,2.4986,2.5013,2.4964,2.5,2.5028,2.505,2.5089,2.5087,2.5097,2.5099,2.5089,2.5127,2.5153,2.5156,2.5243,2.532,2.5446,2.5399,2.5304,2.5369,2.5575,2.5901,2.6196,2.6205,2.6004,2.5872,2.5746,2.5575,2.5457,2.5438,2.5234,2.5154,2.5146,2.5035,2.5012,2.4945,2.4924,2.4912,2.4931,2.4911,2.487,2.4864,2.4892,2.4879,2.4882,2.488,2.4904,2.4904,2.4905,2.4892,2.4904,2.4866,2.4244,2.3467,2.3627,2.5624,2.87,3.1018,3.3524,3.4227,2.951,2.4793,2.311,2.2646,2.3303,2.3856,2.5003,2.5316,2.564,2.5719,2.5615,2.5695,2.5705,2.5795,2.5773,2.5844,2.5831,2.5915,2.5975,2.6034,2.6068,2.6183,2.6249,2.6333,2.6389,2.6427,2.6449,2.6566,2.6673,2.6745,2.6855,2.6945,2.7044,2.7175,2.7289,2.742,2.7544,2.7706,2.7835,2.8004,2.8167,2.8318,2.8507,2.8736,2.8983,2.9185,2.9301,2.9475,2.9683,2.9923,3.0178,3.0368,3.0537,3.0762,3.0934,3.104,3.1143,3.1101,3.1001,3.0794,3.0395,2.9935,2.9496,2.9044,2.8574,2.8342,2.7961,2.7537,2.7251,2.6975,2.6757,2.6533,2.6395,2.629,2.6271,2.6188,2.6203,2.6118,2.6112,2.6091,2.6087,2.6048,2.6032,2.6024,2.6028,2.6005,2.6028,2.5985,2.6002,2.6034,2.6054,2.6012,2.6025,2.6081,2.6065,2.6074,2.6092,2.605,2.6062,2.6101,2.607,2.6088,2.6063,2.6076,2.6055,2.607,2.6073,2.6058,2.6032,2.6045,2.6052,2.6047,2.6056,2.6081,2.6088,2.6158,2.6256,2.6232,2.6261,2.6292,2.622,2.6328,2.664,2.6804,2.7113,2.7089,2.6881,2.6745,2.658,2.6496,2.6416,2.6258,2.6177,2.611,2.6034,2.608,2.6012,2.5956,2.5927,2.5937,2.5923,2.5946,2.5918,2.5872,2.5901,2.5902,2.5897,2.5913,2.5911,2.5891,2.5862,2.5933,2.5858,2.5567,2.4767,2.4502,2.5834,2.8655,3.1272,3.3171,3.5472,3.4435,2.9158,2.5064,2.3626,2.3364,2.4101,2.4862,2.5938,2.6452,2.6589,2.6674,2.6606,2.6627,2.6576,2.6666,2.6624,2.6724,2.671,2.6812,2.6792,2.6903,2.6961,2.7054,2.708,2.7125,2.7205,2.731,2.7345,2.742,2.7478,2.7611,2.7681,2.7768,2.785,2.7976,2.8047,2.8235,2.8331,2.8473,2.8549,2.8725,2.8893,2.91,2.9276,2.9488,2.9721,2.9937,3.01,3.0336,3.0528,3.0737,3.0937,3.1144,3.1334,3.1538,3.1695,3.1853,3.1897,3.1886,3.1772,3.1562,3.1279,3.0889,3.0403,2.9886,2.9428,2.8993,2.856,2.816,2.7854,2.7555,2.7372,2.7171,2.7061,2.6919,2.6851,2.6773,2.678,2.6711,2.6673,2.6626,2.6626,2.6603,2.6619,2.6618,2.6582,2.6578,2.6582,2.653,2.656,2.6528,2.6585,2.6594,2.6619,2.6596,2.6568,2.6515,2.6578,2.6542,2.6557,2.652,2.6524,2.6511,2.6541,2.6523,2.6517,2.6492,2.6545,2.6527,2.6504,2.6462,2.6459,2.647,2.6496,2.646,2.6407,2.6422,2.6434,2.6478,2.6454,2.6448,2.6454,2.6453,2.6428,2.6424,2.641,2.64,2.6384,2.644,2.6462,2.6452,2.6516,2.6615,2.6672,2.6673,2.6638,2.654,2.6545,2.6867,2.7306,2.7456,2.7291,2.7149,2.705,2.694,2.6849,2.6734,2.6599,2.6477,2.6414,2.6379,2.6346,2.6303,2.6301,2.6279,2.6273,2.6268,2.6232,2.6217,2.6229,2.6207,2.622,2.6207,2.6246,2.6278,2.6253,2.6213,2.6238,2.6228,2.5913,2.5112,2.4833,2.6081,2.7447,3.0275,3.2225,3.4695,3.4761,2.9376,2.5386,2.3927,2.3779,2.4436,2.524,2.6268,2.6914,2.6959,2.6981,2.6913,2.6961,2.6941,2.7047,2.7015,2.7102,2.7076,2.7158,2.7149,2.7216,2.7218,2.7306,2.7387,2.7446,2.75,2.7611,2.7651,2.7786,2.7813,2.7918,2.7978,2.81,2.8225,2.8367,2.8378,2.8462,2.8571,2.8742,2.8868,2.9022,2.9205,2.9389,2.9601,2.976,2.9914,3.0088,3.0267,3.0469,3.0758,3.097,3.1198,3.1346,3.1563,3.1633,3.1819,3.1967,3.2112,3.2201,3.2194,3.2042,3.1814,3.1467,3.1072,3.0615,3.0149,2.9652,2.92,2.8817,2.8484,2.8137,2.786,2.7621,2.745,2.7373,2.7282,2.7158,2.7065,2.6991,2.6957,2.6895,2.6889,2.6829,2.6847,2.682,2.6859,2.6858,2.689,2.6876,2.6901,2.6872,2.6879,2.6835,2.6827,2.6825,2.6853,2.6818,2.6868,2.6844,2.6863,2.6847,2.6859,2.6896,2.6903,2.6857,2.6855,2.6868,2.6817,2.6767,2.6774,2.6798,2.68,2.6761,2.6804,2.6777,2.6807,2.6812,2.6772,2.6724,2.6663,2.6667,2.6677,2.668,2.6646,2.6606,2.6621,2.6617,2.6577,2.6579,2.6563,2.6532,2.6535,2.6537,2.6524,2.6498,2.6521,2.6505,2.6539,2.6612,2.6734,2.6767,2.6791,2.6721,2.6626,2.6738,2.7138,2.7599,2.7562,2.7344,2.7203,2.7103,2.6986,2.6922,2.68,2.6584,2.6501,2.645,2.6464,2.6412,2.6434,2.6395,2.6404,2.6379,2.64,2.6326,2.6262,2.6248,2.624,2.6278,2.6277,2.6267,2.6251,2.6331,2.6367,2.6364,2.6255,2.587,2.5005,2.4794,2.6,2.8894,3.1567,3.3577,3.5817,3.2315,2.6199,2.3893,2.2971,2.3554,2.4117,2.4985,2.6123,2.6736,2.6997,2.7,2.6987,2.701,2.7033,2.7069,2.7045,2.7107,2.7102,2.716,2.7215,2.7234,2.7312,2.7369,2.7426,2.7483,2.7587,2.767,2.7717,2.7741,2.7774,2.7921,2.8003,2.8064,2.8166,2.8303,2.8394,2.8538,2.8654,2.8687,2.8914,2.8998,2.9124,2.93,2.9377,2.9615,2.9849,2.9995,3.0129,3.0349,3.0493,3.0696,3.0868,3.1059,3.1242,3.148,3.1614,3.17,3.1835,3.1894,3.1791,3.1643,3.1398,3.1059,3.0874,3.0412,2.9973,2.948,2.899,2.8571,2.8227,2.8007,2.7718,2.7467,2.7283,2.7155,2.7089,2.6965,2.6886,2.6791,2.6731,2.674,2.6734,2.6721,2.6749,2.6717,2.6616,2.6625,2.6666,2.6662,2.6653,2.6685,2.6671,2.6703,2.6714,2.6666,2.6701,2.6747,2.6708,2.6736,2.6743,2.6757,2.6766,2.6751,2.6706,2.6747,2.6752,2.6723,2.6633,2.662,2.6623,2.6703,2.6738,2.6629,2.6655,2.6638,2.6588,2.6627,2.6616,2.6553,2.6596,2.6581,2.6572,2.6556,2.6574,2.6604,2.6639,2.6589,2.66,2.661,2.6703,2.68,2.6807,2.6833,2.6822,2.6706,2.6793,2.7157,2.7545,2.7566,2.7409,2.7339,2.7179,2.7011,2.6921,2.686,2.6713,2.6584,2.6512,2.6472,2.6455,2.6426,2.6459,2.6392,2.6379,2.6394,2.6305,2.6277,2.6342,2.6306,2.6303,2.6317,2.6345,2.6355,2.6361,2.6355,2.6365,2.6276,2.5941,2.5058,2.463,2.5741,2.8703,3.159,3.385,3.6124,3.2751,2.6648,2.414,2.3398,2.2973,2.3944,2.5046,2.6136,2.6824,2.6981,2.7085,2.6981,2.7055,2.6984,2.7072,2.7027,2.708,2.7096,2.7221,2.7268,2.7328,2.7273,2.7338,2.7408,2.7504,2.7553,2.7638,2.762,2.7749,2.784,2.7896,2.7954,2.81,2.8244,2.8316,2.8398,2.8553,2.8609,2.8747,2.8885,2.9007,2.9121,2.924,2.9398,2.968,2.9825,2.999,3.0197,3.0383,3.0551,3.0759,3.096,3.1134,3.1346,3.1499,3.1583,3.1688,3.175,3.1769,3.1637,3.1443,3.1254,3.0871,3.0444,2.9975,2.9555,2.9149,2.8745,2.8353,2.8012,2.7712,2.7447,2.73,2.7161,2.7179,2.7141,2.7049,2.6925,2.6824,2.6736,2.6682,2.66,2.6483,2.6478,2.6512,2.6599,2.658,2.6609,2.6599,2.6567,2.6533,2.656,2.6542,2.6506,2.6585,2.6629,2.6555,2.6529,2.6525,2.6562,2.6525,2.6597,2.6559,2.658,2.6517,2.6563,2.6574,2.6613,2.6554,2.6557,2.652,2.653,2.6494,2.6507,2.6491,2.6512,2.6485,2.6429,2.6373,2.6376,2.6357,2.6382,2.6335,2.6347,2.6283,2.6296,2.6287,2.6377,2.633,2.6377,2.6418,2.6496,2.6515,2.6496,2.6416,2.6433,2.676,2.7137,2.7307,2.7175,2.7014,2.6921,2.6812,2.6679,2.6584,2.6458,2.6345,2.6289,2.6241,2.6133,2.6157,2.6143,2.6094,2.6078,2.6042,2.6016,2.6024,2.6011,2.6023,2.6017,2.599,2.5982,2.6013,2.5995,2.599,2.5912,2.5915,2.571,2.49,2.4333,2.5072,2.7572,3.0471,3.2283,3.5249,3.4038,3.1463,2.6837,2.4524,2.4316,2.4277,2.4896,2.5794,2.6534,2.6444,2.6657,2.6385,2.6661,2.6413,2.6625,2.6467,2.673,2.6568,2.6798,2.6647,2.6861,2.6698,2.6928,2.6881,2.7111,2.7056,2.7193,2.7127,2.7263,2.7267,2.7419,2.74,2.7568,2.7516,2.7688,2.7779,2.7911,2.7987,2.8155,2.8239,2.8333,2.8423,2.8665,2.8823,2.9045,2.9157,2.9399,2.9587,2.9785,2.9986,3.0178,3.0434,3.0642,3.0796,3.0891,3.1077,3.1133,3.1291,3.1319,3.131,3.1179,3.0934,3.053,3.0118,2.9648,2.9207,2.8661,2.8359,2.7894,2.7568,2.7236,2.7008,2.6736,2.6671,2.6493,2.6418,2.6297,2.631,2.6251,2.6237,2.6188,2.6183,2.6151,2.6144,2.6109,2.615,2.6102,2.6062,2.5986,2.6089,2.5991,2.6013,2.6028,2.6061,2.5966,2.6048,2.6046,2.6035,2.5936,2.5995,2.5999,2.6018,2.592,2.5928,2.5958,2.6017,2.5901,2.5939,2.5879,2.5898,2.5858,2.5912,2.5863,2.5858,2.5875,2.5893,2.5831,2.5859,2.5816,2.5819,2.5811,2.5835,2.5778,2.5774,2.5776,2.5808,2.5791,2.5761,2.5704,2.5792,2.5792,2.5814,2.5743,2.5712,2.5687,2.5724,2.5706,2.573,2.5721,2.5696,2.5729,2.5746,2.5757,2.5772,2.5832,2.5921,2.6008,2.604,2.5943,2.5784,2.5993,2.6413,2.6706,2.6608,2.651,2.6427,2.6404,2.6233,2.6131,2.5989,2.5861,2.5826,2.5745,2.5689,2.5643,2.5619,2.5643,2.5548,2.5531,2.5522,2.5519,2.5472,2.5476,2.545,2.5466,2.5452,2.544,2.5456,2.5489,2.5513,2.55,2.5422,2.507,2.4186,2.4118,2.5882,2.8692,3.079,3.3054,3.4867,3.0838,2.5936,2.4061,2.3703,2.3972,2.4004,2.5015,2.5743,2.6199,2.6214,2.6162,2.6115,2.6165,2.6136,2.6192,2.6167,2.6249,2.6344,2.6365,2.6376,2.6376,2.6406,2.6534,2.6512,2.6633,2.6618,2.6745,2.6897,2.6971,2.7006,2.7104,2.7133,2.7241,2.7349,2.7449,2.7552,2.7707,2.7765,2.7925,2.8039,2.8226,2.8335,2.8447,2.8602,2.882,2.8989,2.9219,2.9396,2.9551,2.9735,2.9991,3.0161,3.0375,3.0578,3.0775,3.0865,3.091,3.1073,3.117,3.1038,3.0868,3.0565,3.0378,2.9968,2.9502,2.9005,2.8575,2.8127,2.7699,2.7352,2.7031,2.6784,2.6591,2.6393,2.6267,2.6146,2.6023,2.5917,2.5862,2.5858,2.5781,2.5779,2.58,2.5834,2.5804,2.5816,2.5792,2.5793,2.577,2.5754,2.5671,2.5716,2.5777,2.5829,2.5828,2.5739,2.5691,2.5699,2.5676,2.5642,2.5584,2.5634,2.5696,2.5654,2.5638,2.5625,2.5588,2.5605,2.5539,2.5653,2.563,2.5632,2.5596,2.5653,2.5658,2.5648,2.5619,2.5636,2.5545,2.5599,2.5478,2.5454,2.5424,2.5472,2.5531,2.5591,2.5558,2.5456,2.5385,2.5523,2.5675,2.5678,2.5517,2.5484,2.5519,2.5536,2.5479,2.5476,2.5367,2.5332,2.53,2.5305,2.5295,2.5373,2.549,2.5517,2.5498,2.54,2.5395,2.5364,2.5485,2.5536,2.5512,2.5429,2.5472,2.5915,2.6367,2.6343,2.626,2.6016,2.5845,2.577,2.5665,2.5572,2.5365,2.5269,2.5212,2.521,2.5273,2.5249,2.5109,2.4936,2.4898,2.4968,2.5039,2.5024,2.5053,2.5088,2.496,2.4953,2.4875,2.4933,2.4884,2.4946,2.4875,2.4809,2.4335,2.3383,2.3111,2.431,2.7171,2.9766,3.2268,3.4379,3.0419,2.4246,2.2977,2.1709,2.1527,2.268,2.3549,2.4818,2.5253,2.5488,2.5522,2.5472,2.543,2.5531,2.5514,2.5509,2.5574,2.5652,2.5621,2.5512,2.5394,2.5577,2.5653,2.5829,2.589,2.5849,2.5821,2.5888,2.5981,2.6109,2.6223,2.6344,2.6419,2.6476,2.6532,2.6562,2.6762,2.7026,2.7187,2.7257,2.7261,2.7307,2.7492,2.7645,2.7884,2.8062,2.8279,2.8562,2.8769,2.8967,2.9181,2.9304,2.9504,2.9762,2.9942,3.0023,3.0174,3.0236,3.0318,3.0275,3.0246,3.0044,2.973,2.9318,2.8873,2.8377,2.7961,2.7572,2.7173,2.6731,2.64,2.6078,2.5867,2.5658,2.5441,2.5302,2.5127,2.509,2.5105,2.5083,2.5058,2.4954,2.4964,2.4987,2.4977,2.4919,2.4932,2.4911,2.4935,2.4946,2.5079,2.5081,2.4979,2.485,2.4904,2.4993,2.5116,2.5029,2.4989,2.5004,2.5044,2.4981,2.4857,2.4931,2.4909,2.4919,2.501,2.4888,2.4736,2.4822,2.4961,2.4984,2.4904,2.4738,2.4647,2.4704,2.4744,2.4778,2.4779,2.482,2.4704,2.4766,2.4705,2.4734,2.4697,2.4722,2.483,2.491,2.4939,2.4828,2.4864,2.4873,2.4903,2.5163,2.5474,2.5738,2.5571,2.5418,2.5264,2.5148,2.5057,2.4968,2.4861,2.4785,2.4751,2.4664,2.4614,2.4615,2.4612,2.4534,2.4548,2.4483,2.446,2.4385,2.4416,2.4417,2.437,2.4393,2.4414,2.4475,2.4451,2.4433,2.4443,2.4387,2.4237,2.3421,2.2766,2.3386,2.5966,2.9118,3.1246,3.3939,3.2022,2.5816,2.2121,2.0662,2.0491,2.1339,2.2718,2.3696,2.4575,2.497,2.5124,2.5118,2.5093,2.5142,2.509,2.5138,2.5188,2.5186,2.5171,2.531,2.5367,2.5494,2.5518,2.5561,2.5551,2.5603,2.5713,2.5813,2.587,2.5918,2.6009,2.6142,2.6244,2.6295,2.6361,2.6466,2.6546,2.6801,2.6928,2.6994,2.7103,2.7293,2.7409,2.7575,2.7721,2.7887,2.8146,2.8353,2.8548,2.8754,2.891,2.9128,2.9338,2.9438,2.955,2.9686,2.9871,2.9988,2.9947,2.9753,2.9557,2.9395,2.9033,2.8598,2.8156,2.765,2.7227,2.6774,2.6404,2.6156,2.5891,2.5693,2.5468,2.5316,2.5222,2.508,2.5067,2.4994,2.4951,2.4887,2.4849,2.4842,2.4906,2.4873,2.4781,2.4738,2.4713,2.4706,2.475,2.4789,2.4791,2.4772,2.476,2.4836,2.4807,2.4792,2.479,2.4817,2.4816,2.4823,2.4813,2.4888,2.4878,2.4865,2.4866,2.4839,2.486,2.4869,2.486,2.4873,2.4843,2.4825,2.4813,2.48,2.4807,2.4777,2.4742,2.4768,2.4794,2.4794,2.4817,2.4868,2.502,2.5018,2.4982,2.4957,2.4873,2.5016,2.5324,2.5604,2.5772,2.5561,2.5416,2.5281,2.5172,2.5058,2.4883,2.4766,2.4814,2.4745,2.4555,2.4549,2.4584,2.458,2.4592,2.4554,2.4539,2.4528,2.4489,2.4472,2.4464,2.4444,2.4447,2.4434,2.4464,2.4415,2.4449,2.4428,2.4425,2.3969,2.3084,2.2882,2.4444,2.7333,2.9948,3.233,3.4476,3.077,2.5346,2.3252,2.2622,2.2993,2.3389,2.4512,2.4993,2.5212,2.5237,2.5195,2.5215,2.5289,2.5238,2.5226,2.5237,2.5254,2.5279,2.5347,2.5365,2.5441,2.5476,2.5561,2.5676,2.5697,2.5693,2.5785,2.584,2.5885,2.5919,2.6013,2.6157,2.6272,2.6449,2.6516,2.6548,2.6645,2.6758,2.6915,2.712,2.7249,2.7486,2.7639,2.7789,2.7985,2.822,2.8435,2.8648,2.8759,2.895,2.9145,2.9371,2.954,2.973,2.9912,3.0016,3.0155,3.0104,3.0012,2.9825,2.9541,2.9088,2.8576,2.8091,2.7669,2.7155,2.6765,2.637,2.6219,2.5943,2.5703,2.5474,2.5243,2.5173,2.5155,2.5114,2.501,2.4958,2.4921,2.4875,2.4914,2.4892,2.4831,2.4831,2.4778,2.4805,2.4739,2.4745,2.4732,2.4794,2.4801,2.4824,2.4767,2.4712,2.4721,2.4793,2.4798,2.4791,2.4826,2.4832,2.4818,2.4761,2.4737,2.474,2.4803,2.4786,2.4754,2.4729,2.4685,2.4804,2.4867,2.4842,2.4808,2.4784,2.4754,2.4733,2.4726,2.4754,2.474,2.4784,2.4767,2.4818,2.4787,2.4756,2.472,2.4716,2.4719,2.4795,2.4769,2.4783,2.4909,2.4973,2.4948,2.4978,2.4984,2.4928,2.5053,2.5438,2.5755,2.5725,2.5535,2.5472,2.5285,2.5149,2.5099,2.5061,2.4946,2.4859,2.4792,2.4712,2.4706,2.4671,2.4608,2.4543,2.4542,2.4589,2.4577,2.4484,2.4518,2.4461,2.4485,2.4536,2.4562,2.4558,2.4568,2.4604,2.4551,2.4483,2.4073,2.3224,2.3072,2.4539,2.7426,2.9939,3.2133,3.4293,3.0722,2.5428,2.327,2.2609,2.3034,2.3289,2.455,2.4894,2.5259,2.535,2.5236,2.5276,2.5323,2.5181,2.522,2.5332,2.5328,2.5373,2.5429,2.5474,2.5436,2.5527,2.5602,2.5716,2.577,2.5836,2.5847,2.5963,2.6024,2.6134,2.6145,2.6223,2.634,2.6465,2.6607,2.6697,2.6817,2.6951,2.705,2.7183,2.733,2.7565,2.7788,2.7976,2.8147,2.8405,2.8532,2.8742,2.8991,2.9121,2.9324,2.9577,2.9754,2.9981,3.0164,3.0279,3.0391,3.0449,3.0395,3.0262,2.9998,2.9603,2.9156,2.8598,2.8155,2.7649,2.7422,2.7075,2.6705,2.6376,2.6119,2.5895,2.5726,2.5618,2.5351,2.5284,2.5214,2.5269,2.5191,2.5163,2.5172,2.5123,2.5116,2.5183,2.5158,2.5152,2.5068,2.5075,2.5102,2.5122,2.5043,2.5079,2.5073,2.5142,2.5023,2.4984,2.5027,2.5037,2.5058,2.5043,2.5022,2.5034,2.5122,2.5143,2.5052,2.4973,2.4992,2.4927,2.5006,2.5013,2.5021,2.4989,2.4961,2.4971,2.4981,2.4998,2.4987,2.502,2.5033,2.5042,2.5024,2.496,2.4954,2.4978,2.4934,2.4915,2.4923,2.4955,2.494,2.4967,2.4979,2.4927,2.4938,2.4981,2.4987,2.5018,2.4938,2.499,2.5024,2.4962,2.4937,2.4933,2.4919,2.4876,2.4912,2.4981,2.4939,2.4919,2.491,2.4908,2.5001,2.5003,2.4959,2.5007,2.5079,2.5152,2.515,2.5056,2.5027,2.5166,2.5582,2.5812,2.6053,2.5864,2.5728,2.5556,2.5447,2.5341,2.5357,2.5209,2.5034,2.4983,2.4908,2.4975,2.4972,2.4979,2.4952,2.4861,2.4846,2.4891,2.4855,2.4801,2.4798,2.4822,2.4874,2.4902,2.4853,2.4897,2.478,2.479,2.475,2.4596,2.3806,2.3281,2.4173,2.6824,2.9617,3.1445,3.4389,3.2357,2.9465,2.5108,2.3008,2.292,2.317,2.4085,2.4909,2.5628,2.545,2.57,2.5419,2.5689,2.5432,2.5671,2.5507,2.5815,2.5627,2.5792,2.5601,2.5835,2.5748,2.6032,2.5978,2.6135,2.6062,2.6226,2.6148,2.629,2.6265,2.6522,2.652,2.672,2.6715,2.6883,2.691,2.7078,2.7129,2.732,2.7375,2.7599,2.7642,2.7796,2.7983,2.8202,2.843,2.8642,2.883,2.906,2.9246,2.9507,2.9813,2.9955,3.0155,3.0379,3.0528,3.0674,3.0784,3.0799,3.0888,3.0754,3.056,3.0252,2.9973,2.9505,2.8954,2.8384,2.7966,2.7516,2.7274,2.69,2.6667,2.6364,2.6137,2.5942,2.584,2.5694,2.5767,2.569,2.5727,2.5561,2.5443,2.5258,2.5349,2.5347,2.5459,2.5447,2.5476,2.5402,2.5438,2.5403,2.5524,2.5396,2.5396,2.5345,2.5425,2.5337,2.5346,2.5321,2.5398,2.5404,2.5446,2.5408,2.5395,2.5346,2.5367,2.5297,2.5386,2.5375,2.5426,2.541,2.5475,2.5309,2.5299,2.5323,2.5424,2.5349,2.5406,2.5382,2.5321,2.5291,2.5223,2.5284,2.5271,2.5289,2.5338,2.5282,2.5305,2.5295,2.5334,2.534,2.5268,2.519,2.5183,2.5229,2.5167,2.5177,2.5299,2.5298,2.527,2.5262,2.5263,2.5242,2.5162,2.5108,2.5275,2.5368,2.5422,2.5482,2.5473,2.5445,2.5427,2.5514,2.5881,2.6289,2.6297,2.6171,2.595,2.5834,2.5695,2.5701,2.5634,2.5488,2.5387,2.5311,2.5135,2.5209,2.5222,2.5264,2.5284,2.5245,2.518,2.5027,2.5099,2.5182,2.5187,2.512,2.5029,2.5022,2.5041,2.5092,2.5073,2.5183,2.5141,2.4822,2.4078,2.3503,2.4201,2.669,2.9648,3.181,3.4672,3.2894,2.9914,2.4584,2.2169,2.1769,2.2325,2.3739,2.4449,2.5588,2.5528,2.6003,2.5617,2.587,2.5561,2.5926,2.5714,2.5986,2.5767,2.6067,2.5985,2.6215,2.6001,2.6225,2.6022,2.6303,2.6219,2.6445,2.6335,2.6557,2.6567,2.6742,2.6667,2.6852,2.6804,2.7002,2.7083,2.7259,2.7326,2.7525,2.7611,2.7727,2.791,2.8168,2.8273,2.8424,2.8525,2.8792,2.9024,2.9309,2.9469,2.9733,2.9971,3.0106,3.0275,3.0515,3.0727,3.0928,3.0993,3.0928,3.0932,3.0813,3.0717,3.0371,2.9894,2.9309,2.8923,2.846,2.7983,2.7487,2.711,2.6832,2.6582,2.635,2.6238,2.5905,2.5861,2.5853,2.5887,2.579,2.5794,2.557,2.5634,2.5673,2.5651,2.549,2.5499,2.5395,2.5591,2.5718,2.5695,2.5384,2.543,2.5409,2.5631,2.5593,2.5478,2.5339,2.5381,2.5365,2.5522,2.5459,2.5621,2.5574,2.5575,2.5414,2.5467,2.547,2.5537,2.5434,2.5467,2.5462,2.5508,2.5439,2.552,2.543,2.5521,2.5463,2.5408,2.5448,2.5442,2.5375,2.5411,2.5401,2.5473,2.5432,2.5494,2.5421,2.5439,2.5375,2.5346,2.5324,2.5321,2.5372,2.5435,2.5436,2.5409,2.5381,2.5313,2.5236,2.5323,2.544,2.5602,2.5678,2.5564,2.5496,2.548,2.5755,2.6379,2.6289,2.6083,2.596,2.5866,2.5831,2.5774,2.5589,2.5433,2.5337,2.5261,2.5218,2.5224,2.5285,2.5173,2.5227,2.5232,2.5292,2.524,2.5168,2.5116,2.5204,2.5134,2.5217,2.5174,2.5247,2.5286,2.5259,2.52,2.5108,2.4799,2.4011,2.3493,2.4588,2.7342,3.0194,3.2276,3.505,3.2586,2.6582,2.3699,2.2432,2.2712,2.3597,2.4656,2.5489,2.5877,2.5941,2.5951,2.5957,2.5923,2.5895,2.5917,2.5926,2.5879,2.5997,2.5997,2.6161,2.6178,2.6203,2.6208,2.6338,2.6387,2.6421,2.6498,2.6552,2.6572,2.6687,2.6709,2.6859,2.687,2.6935,2.6982,2.7208,2.7316,2.7414,2.7488,2.771,2.7803,2.8031,2.821,2.8352,2.8489,2.8666,2.888,2.9008,2.9229,2.9447,2.9651,2.9891,3.0075,3.0281,3.0416,3.0517,3.072,3.0817,3.0794,3.0657,3.0401,3.018,2.9737,2.929,2.8769,2.8309,2.7819,2.7639,2.7308,2.6924,2.6649,2.6362,2.6144,2.6019,2.5858,2.5858,2.5719,2.5666,2.5653,2.5525,2.5512,2.553,2.5508,2.5477,2.5464,2.5429,2.5408,2.5379,2.5379,2.5413,2.5411,2.5403,2.5414,2.533,2.5367,2.537,2.5404,2.5406,2.5362,2.5396,2.538,2.5418,2.5398,2.5343,2.5433,2.5429,2.5406,2.5386,2.5367,2.5393,2.5391,2.5427,2.5393,2.537,2.5303,2.5272,2.5305,2.5244,2.5265,2.5223,2.5156,2.5147,2.5194,2.5269,2.5272,2.5221,2.5273,2.5176,2.5098,2.5064,2.5101,2.507,2.5181,2.5132,2.5143,2.5166,2.5164,2.5218,2.5322,2.5425,2.5402,2.5269,2.5199,2.5373,2.5547,2.6023,2.6143,2.5931,2.5803,2.5653,2.5573,2.5447,2.5369,2.5217,2.5216,2.5147,2.5053,2.5001,2.4973,2.5014,2.5006,2.491,2.4979,2.4945,2.4956,2.4901,2.4944,2.4883,2.493,2.4909,2.5002,2.4942,2.4978,2.4963,2.4928,2.4466,2.3587,2.3388,2.5079,2.7967,3.0376,3.2619,3.4247,3.3189,2.8051,2.4572,2.354,2.3265,2.371,2.4504,2.53,2.5546,2.568,2.5579,2.5692,2.5651,2.5707,2.5597,2.5679,2.5693,2.5763,2.5747,2.5809,2.5885,2.6011,2.5977,2.6083,2.6089,2.6171,2.6241,2.6321,2.6367,2.6468,2.654,2.6666,2.6712,2.6758,2.6761,2.6947,2.7123,2.7262,2.7328,2.7397,2.7542,2.7784,2.803,2.8129,2.8251,2.8393,2.8619,2.8972,2.9337,2.9518,2.9698,2.9848,3.0037,3.0188,3.0363,3.0487,3.0605,3.0615,3.065,3.0526,3.0359,3.0054,2.9703,2.9219,2.8723,2.8254,2.7787,2.7347,2.6981,2.6605,2.631,2.6083,2.5923,2.5718,2.5599,2.5478,2.5436,2.5363,2.5461,2.5407,2.5354,2.5293,2.5295,2.5297,2.529,2.5177,2.5132,2.5204,2.521,2.5241,2.5217,2.5184,2.5216,2.5215,2.5221,2.5205,2.5237,2.5164,2.5147,2.5085,2.5158,2.5131,2.5121,2.5098,2.5161,2.5099,2.5062,2.5078,2.5065,2.5082,2.5097,2.5048,2.5039,2.5095,2.5104,2.5073,2.5031,2.4981,2.4982,2.5074,2.5052,2.4999,2.4984,2.4984,2.4963,2.4983,2.4982,2.5015,2.503,2.5031,2.4948,2.494,2.4932,2.4949,2.4945,2.4938,2.4895,2.4971,2.5004,2.4982,2.5036,2.4972,2.4908,2.4894,2.4925,2.5017,2.521,2.519,2.5176,2.5074,2.499,2.517,2.5556,2.5835,2.6012,2.5941,2.5736,2.5587,2.5436,2.5337,2.5277,2.5118,2.5021,2.4974,2.4973,2.4995,2.4938,2.4873,2.4796,2.4808,2.4743,2.4693,2.4681,2.4685,2.4727,2.4791,2.4731,2.4766,2.4749,2.4797,2.4746,2.4752,2.4641,2.4125,2.3327,2.338,2.5391,2.8293,3.0234,3.2575,3.387,2.9302,2.6182,2.3502,2.2308,2.2664,2.2961,2.4249,2.4858,2.5367,2.5292,2.542,2.5275,2.5416,2.5358,2.5496,2.5368,2.5502,2.5475,2.568,2.5598,2.5719,2.57,2.5862,2.5738,2.5772,2.5817,2.6005,2.6003,2.6145,2.6205,2.6326,2.6396,2.6476,2.6459,2.6658,2.6748,2.6944,2.7059,2.7155,2.7215,2.7276,2.749,2.7718,2.7881,2.8094,2.8281,2.8431,2.866,2.8885,2.9067,2.9312,2.9559,2.9748,2.9958,3.0118,3.0305,3.0416,3.0506,3.0512,3.0465,3.031,3.0081,2.9641,2.9637,2.8961,2.8127,2.7727,2.7312,2.6849,2.6473,2.6099,2.5877,2.5697,2.5513,2.5358,2.5283,2.5271,2.5253,2.5211,2.5159,2.5171,2.5153,2.5119,2.5075,2.5056,2.5062,2.4977,2.4996,2.5015,2.4969,2.4947,2.4946,2.4937,2.4968,2.4909,2.4942,2.495,2.4948,2.4949,2.4924,2.4871,2.4982,2.4982,2.4996,2.4921,2.4933,2.4876,2.4895,2.4841,2.4864,2.483,2.4857,2.478,2.4858,2.4832,2.4831,2.4814,2.4782,2.4781,2.477,2.4769,2.4795,2.4725,2.4634,2.4663,2.4743,2.4717,2.4719,2.4719,2.469,2.4634,2.4648,2.4677,2.4653,2.4602,2.4579,2.4621,2.4647,2.4685,2.4678,2.4583,2.4636,2.4647,2.4602,2.4675,2.4581,2.4547,2.4544,2.4598,2.4627,2.4572,2.453,2.4525,2.4583,2.4635,2.4631,2.4578,2.4545,2.4582,2.4511,2.4538,2.4564,2.4548,2.4661,2.4687,2.4613,2.4511,2.4507,2.458,2.4556,2.456,2.4539,2.4587,2.463,2.4733,2.4797,2.4811,2.4765,2.4768,2.4742,2.4895,2.5222,2.5641,2.5638,2.5434,2.5304,2.513,2.5042,2.5008,2.4864,2.462,2.4634,2.4586,2.4573,2.4529,2.4567,2.4533,2.449,2.453,2.4523,2.4499,2.4475,2.4481,2.4426,2.4483,2.4489,2.4455,2.4457,2.4468,2.4459,2.4485,2.4238,2.3882,2.3162,2.3289,2.5236,2.8082,2.9907,3.2215,3.3497,2.8776,2.3971,2.2141,2.1805,2.2577,2.3278,2.4423,2.4965,2.5037,2.5076,2.5057,2.508,2.511,2.5087,2.5113,2.5233,2.5213,2.529,2.5296,2.5413,2.5445,2.5506,2.5518,2.5562,2.5665,2.573,2.5839,2.5932,2.5985,2.6024,2.6097,2.6152,2.6195,2.638,2.6482,2.6628,2.6723,2.673,2.6814,2.6951,2.7163,2.7367,2.7572,2.7724,2.7903,2.8094,2.829,2.8462,2.8658,2.8875,2.903,2.927,2.9516,2.9627,2.9753,2.9853,3.0076,3.0218,3.0359,3.0252,3.0143,2.9896,2.9724,2.9295,2.8876,2.8245,2.7845,2.7428,2.7057,2.6838,2.6507,2.6193,2.5981,2.5757,2.5492,2.5367,2.5295,2.5207,2.5135,2.5094,2.5024,2.4979,2.4914,2.4927,2.4895,2.4944,2.4961,2.4923,2.4954,2.4932,2.4842,2.4835,2.491,2.4859,2.4911,2.4955,2.4875,2.4908,2.4877,2.4826,2.4864,2.4822,2.4816,2.4805,2.4832,2.4814,2.4759,2.4797,2.4796,2.4778,2.4749,2.4794,2.4726,2.4753,2.4792,2.4736,2.4614,2.4645,2.4643,2.467,2.4601,2.4578,2.4594,2.4637,2.4656,2.4655,2.4606,2.4628,2.4562,2.4574,2.4595,2.457,2.4656,2.4647,2.4578,2.455,2.4504,2.4546,2.4562,2.459,2.4578,2.4548,2.4512,2.4563,2.4579,2.4527,2.4516,2.45,2.4526,2.4542,2.453,2.4531,2.4435,2.444,2.4452,2.4547,2.4661,2.4717,2.4746,2.4646,2.4598,2.4666,2.4946,2.5396,2.5471,2.5242,2.5172,2.5084,2.4871,2.4761,2.4743,2.4568,2.442,2.4278,2.434,2.4376,2.4358,2.4269,2.422,2.4193,2.4284,2.4265,2.4228,2.421,2.4135,2.4102,2.4147,2.4103,2.4101,2.4118,2.4132,2.4145,2.4114,2.3654,2.2883,2.2782,2.4284,2.7196,2.9419,3.1408,3.3363,2.924,2.344,2.1284,2.075,2.0843,2.1832,2.2966,2.3905,2.4462,2.4545,2.4578,2.4507,2.4631,2.4644,2.4714,2.4669,2.4744,2.4683,2.4765,2.4793,2.5012,2.5029,2.5135,2.4977,2.503,2.5014,2.5209,2.5224,2.5299,2.5374,2.5526,2.5478,2.5665,2.5653,2.5793,2.5884,2.6074,2.6173,2.6268,2.6386,2.6582,2.6735,2.6846,2.7025,2.7234,2.7381,2.7631,2.7834,2.7992,2.8273,2.8476,2.867,2.8776,2.8977,2.9125,2.932,2.9476,2.9595,2.9584,2.9552,2.9396,2.9327,2.8966,2.865,2.8134,2.7712,2.723,2.6777,2.6374,2.5995,2.5611,2.5293,2.4956,2.4795,2.4685,2.4639,2.4572,2.45,2.4321,2.4309,2.4312,2.4323,2.4329,2.4259,2.4212,2.4252,2.4178,2.4213,2.4236,2.4231,2.4181,2.4235,2.4195,2.4218,2.4233,2.4245,2.4258,2.4196,2.4195,2.4196,2.4209,2.4156,2.4235,2.4271,2.4203,2.4236,2.4234,2.419,2.4212,2.4205,2.4181,2.4216,2.4188,2.419,2.4124,2.414,2.4193,2.4235,2.4221,2.4192,2.4124,2.4109,2.4137,2.414,2.4177,2.4136,2.4121,2.4098,2.4118,2.4056,2.4093,2.4103,2.4107,2.4114,2.4058,2.4063,2.4107,2.4108,2.4084,2.4024,2.4014,2.4097,2.4146,2.4227,2.4298,2.44,2.4445,2.4378,2.4176,2.421,2.4554,2.5035,2.512,2.4915,2.4852,2.4793,2.4695,2.465,2.4537,2.4271,2.4215,2.4247,2.4148,2.4077,2.4064,2.4024,2.4084,2.4062,2.3996,2.4049,2.4011,2.3961,2.4045,2.4067,2.4103,2.4092,2.4037,2.3991,2.4056,2.4145,2.4118,2.3717,2.2774,2.2563,2.3945,2.6904,2.9478,3.1335,3.3617,3,2.3803,2.1257,1.9933,2.0472,2.1837,2.302,2.3701,2.4451,2.4865,2.4884,2.4838,2.4736,2.4835,2.4793,2.4892,2.492,2.5026,2.5068,2.512,2.5166,2.5231,2.5267,2.5378,2.544,2.5399,2.5415,2.5464,2.5669,2.5867,2.5909,2.5947,2.6001,2.6146,2.6238,2.6368,2.6444,2.661,2.6734,2.6909,2.7078,2.7265,2.7409,2.7599,2.7753,2.7898,2.8111,2.8357,2.8537,2.8769,2.8997,2.9192,2.941,2.9625,2.9777,2.9907,3.0036,3.0182,3.0145,3.0106,2.9895,2.9634,2.9268,2.8794,2.8586,2.8097,2.7666,2.727,2.6809,2.639,2.6027,2.5884,2.5589,2.5429,2.5236,2.5101,2.5122,2.5108,2.5021,2.4951,2.4991,2.4971,2.489,2.4842,2.4846,2.4858,2.4917,2.4908,2.4867,2.4842,2.475,2.4799,2.4793,2.4776,2.4833,2.4818,2.4935,2.4912,2.4945,2.492,2.4968,2.4944,2.4905,2.4887,2.4914,2.4861,2.4893,2.485,2.4908,2.4921,2.4908,2.4859,2.4878,2.4894,2.4866,2.491,2.4858,2.4923,2.4944,2.4834,2.4781,2.4763,2.4776,2.4879,2.482,2.4756,2.4719,2.4746,2.4865,2.4807,2.4757,2.4743,2.4711,2.4795,2.4928,2.5021,2.5098,2.5068,2.4902,2.489,2.5213,2.5439,2.5734,2.5727,2.5579,2.5443,2.5265,2.5173,2.5093,2.4983,2.486,2.4818,2.4716,2.4711,2.4651,2.4659,2.4623,2.4601,2.4578,2.4529,2.4543,2.4574,2.4633,2.4552,2.4545,2.4598,2.4671,2.4619,2.4583,2.4591,2.4447,2.4052,2.3271,2.303,2.4538,2.7441,2.9849,3.1606,3.4,3.0726,2.7495,2.3829,2.1919,2.2014,2.2515,2.3663,2.4449,2.5252,2.5152,2.5335,2.5059,2.5309,2.5034,2.5327,2.5196,2.5455,2.5338,2.554,2.535,2.5486,2.5365,2.5575,2.5426,2.5634,2.5605,2.5905,2.5874,2.598,2.5907,2.6159,2.6204,2.6356,2.6334,2.6465,2.6467,2.6679,2.6816,2.7021,2.7087,2.721,2.7347,2.7516,2.762,2.7821,2.796,2.8217,2.853,2.8764,2.9016,2.9158,2.9364,2.9483,2.9737,2.9971,3.0205,3.0241,3.0323,3.0266,3.018,3.0081,2.9881,2.9431,2.8982,2.849,2.806,2.7532,2.7158,2.6742,2.6396,2.6047,2.5852,2.5643,2.554,2.5307,2.5248,2.5139,2.5119,2.5053,2.5055,2.5052,2.5062,2.497,2.5005,2.4927,2.4948,2.4878,2.4883,2.483,2.4885,2.4808,2.4807,2.4806,2.4879,2.4801,2.4861,2.4819,2.4854,2.4875,2.4871,2.4866,2.4821,2.4793,2.4817,2.4793,2.4909,2.485,2.4762,2.4747,2.4773,2.4774,2.4805,2.4756,2.4955,2.4899,2.4893,2.4904,2.4876,2.4808,2.4829,2.4751,2.4797,2.4759,2.4783,2.4791,2.4809,2.484,2.4874,2.4957,2.4941,2.488,2.4851,2.495,2.5344,2.5733,2.5851,2.5734,2.5539,2.5343,2.5316,2.5164,2.506,2.4814,2.4701,2.4712,2.4679,2.4564,2.4521,2.452,2.4579,2.459,2.446,2.4461,2.4449,2.4472,2.4499,2.4457,2.4452,2.4461,2.4448,2.4429,2.4414,2.4453,2.4412,2.4016,2.3245,2.309,2.4668,2.7601,2.9966,3.1768,3.3915,3.0112,2.4331,2.2989,2.1505,2.1384,2.2361,2.3244,2.4366,2.4948,2.5056,2.5081,2.5099,2.5112,2.5121,2.5186,2.5138,2.5256,2.5262,2.5377,2.5372,2.5366,2.5434,2.5517,2.5624,2.5631,2.5693,2.5797,2.587,2.6049,2.6035,2.6113,2.6132,2.6201,2.6374,2.6528,2.6515,2.6679,2.683,2.7069,2.7169,2.7248,2.7349,2.7519,2.7694,2.7995,2.8176,2.8316,2.8622,2.8845,2.9103,2.9346,2.9378,2.9571,2.9791,3.004,3.0108,3.0266,3.0275,3.0319,3.0172,3.011,2.978,2.935,2.885,2.8396,2.7869,2.741,2.7008,2.6532,2.6188,2.5936,2.5752,2.5552,2.5374,2.5261,2.5239,2.5122,2.5064,2.4962,2.4952,2.4926,2.4957,2.4943,2.4935,2.4902,2.4955,2.4927,2.4915,2.4809,2.4869,2.4882,2.4918,2.4974,2.4866,2.4948,2.4993,2.5006,2.4858,2.4857,2.4922,2.4875,2.4889,2.4872,2.493,2.4929,2.4985,2.4916,2.4891,2.4888,2.4904,2.4907,2.4828,2.4788,2.488,2.4885,2.4892,2.4869,2.487,2.4862,2.4845,2.4855,2.4849,2.4904,2.4888,2.4867,2.4803,2.4773,2.4799,2.4772,2.4829,2.489,2.5048,2.5114,2.5078,2.5065,2.5008,2.5113,2.5359,2.5748,2.5986,2.5828,2.5678,2.5523,2.538,2.5368,2.5331,2.5078,2.4853,2.4867,2.4812,2.4782,2.4771,2.474,2.4811,2.4709,2.4664,2.4629,2.4666,2.4672,2.4678,2.4598,2.4601,2.4693,2.4666,2.4608,2.4585,2.4612,2.4626,2.4164,2.3383,2.3301,2.5066,2.7971,3.0112,3.2014,3.3566,3.2271,2.66,2.2995,2.1869,2.1617,2.2539,2.3568,2.4725,2.5107,2.5283,2.5226,2.5294,2.5279,2.535,2.5291,2.5451,2.5412,2.5526,2.5539,2.5592,2.5514,2.557,2.5678,2.5807,2.5777,2.5872,2.5933,2.6102,2.6133,2.6219,2.6234,2.6331,2.6494,2.6669,2.6732,2.6811,2.6952,2.7076,2.7157,2.7301,2.7447,2.7579,2.7762,2.7934,2.8132,2.8354,2.8591,2.8776,2.9025,2.9242,2.9494,2.9653,2.9924,3.0122,3.0267,3.0337,3.0517,3.0592,3.0651,3.0477,3.032,3.0006,2.9537,2.9066,2.8636,2.811,2.7679,2.7322,2.6959,2.6549,2.6142,2.5852,2.572,2.5637,2.5543,2.5407,2.5327,2.5271,2.5247,2.5259,2.5256,2.5171,2.5131,2.507,2.5126,2.5082,2.5151,2.5156,2.5102,2.5131,2.5113,2.5075,2.5113,2.5122,2.5129,2.5124,2.513,2.5066,2.5152,2.5187,2.5139,2.5154,2.5156,2.5129,2.5127,2.5146,2.5089,2.5151,2.5183,2.5184,2.5209,2.5162,2.5195,2.5182,2.5167,2.5174,2.5108,2.5089,2.5074,2.5081,2.5053,2.5008,2.5049,2.5044,2.51,2.5102,2.5125,2.5077,2.5075,2.5092,2.5077,2.5114,2.526,2.5279,2.5254,2.5259,2.5222,2.5167,2.5531,2.5923,2.6135,2.6035,2.5786,2.5724,2.5578,2.5489,2.5366,2.5172,2.5032,2.5034,2.4955,2.4939,2.4907,2.488,2.4877,2.4879,2.4843,2.483,2.4828,2.4877,2.4837,2.4832,2.482,2.4741,2.4717,2.4787,2.4826,2.4783,2.4757,2.4414,2.3662,2.3428,2.3807,2.6172,2.9199,3.0981,3.3555,3.2903,2.7176,2.3052,2.1358,2.1171,2.2377,2.3318,2.4584,2.5252,2.5505,2.5556,2.5522,2.5524,2.544,2.5506,2.5461,2.5518,2.5585,2.5611,2.5643,2.5764,2.5811,2.5894,2.5854,2.5919,2.6035,2.6076,2.6151,2.623,2.6337,2.6456,2.6565,2.6694,2.6777,2.68,2.6851,2.7047,2.7158,2.7255,2.7446,2.7672,2.7893,2.8127,2.8149,2.8144,2.8345,2.8623,2.8895,2.9222,2.9425,2.9717,2.992,3.0081,3.0175,3.0303,3.0472,3.0638,3.0691,3.0766,3.0682,3.0367,3.0214,2.9842,2.9376,2.887,2.8392,2.7907,2.7385,2.7067,2.6652,2.6444,2.6275,2.6156,2.5978,2.5793,2.57,2.5536,2.5506,2.5533,2.5446,2.5395,2.5416,2.5428,2.5447,2.5417,2.5424,2.5493,2.5508,2.5562,2.5618,2.5609,2.5532,2.5447,2.5453,2.5555,2.5627,2.5551,2.5548,2.5594,2.564,2.5607,2.5613,2.5639,2.5693,2.5623,2.5469,2.5483,2.5513,2.5555,2.5574,2.5557,2.5589,2.5576,2.5543,2.5454,2.545,2.5439,2.5508,2.5406,2.5523,2.5534,2.5647,2.5643,2.5594,2.5567,2.5624,2.5699,2.5774,2.5781,2.5806,2.5857,2.6018,2.5952,2.5869,2.58,2.5559,2.5696,2.5959,2.6401,2.6507,2.6357,2.6283,2.6096,2.5889,2.5726,2.5556,2.5551,2.5577,2.5435,2.5383,2.5327,2.5272,2.5258,2.5228,2.5361,2.5304,2.5263,2.5304,2.5392,2.5515,2.5422,2.5336,2.5374,2.551,2.5503,2.5441,2.5339,2.5122,2.449,2.402,2.3907,2.5255,2.8447,3.1174,3.2115,3.4746,3.0809,2.4252,2.1692,2.0284,2.1006,2.2653,2.3913,2.4937,2.5718,2.5883,2.6111,2.5961,2.6206,2.6063,2.6193,2.6039,2.6211,2.6062,2.6221,2.6158,2.6341,2.6425,2.6616,2.6524,2.6655,2.6549,2.6663,2.6741,2.7025,2.7053,2.7169,2.7141,2.7216,2.7274,2.7444,2.7482,2.7581,2.7706,2.7928,2.8065,2.8228,2.849,2.8647,2.8747,2.888,2.9128,2.9319,2.9559,2.9837,3.0192,3.0337,3.0478,3.0624,3.072,3.0863,3.0996,3.115,3.1302,3.1276,3.1245,3.0997,3.0584,3.0183,2.9769,2.9203,2.8721,2.8268,2.7935,2.7562,2.7247,2.705,2.6775,2.6605,2.6453,2.6283,2.6292,2.6213,2.62,2.6081,2.6159,2.6053,2.6111,2.5959,2.5917,2.5893,2.5987,2.5971,2.6022,2.5961,2.5964,2.5902,2.5918,2.5959,2.5957,2.6002,2.6105,2.6055,2.6119,2.6095,2.607,2.6067,2.6102,2.6127,2.6137,2.6164,2.6301,2.6262,2.6172,2.6111,2.6143,2.6087,2.6162,2.6153,2.6194,2.6185,2.625,2.6196,2.6235,2.619,2.6283,2.6347,2.645,2.6357,2.6279,2.6199,2.6416,2.6722,2.6931,2.7204,2.7091,2.6916,2.6745,2.661,2.6552,2.645,2.6313,2.622,2.6105,2.5956,2.5974,2.6029,2.6015,2.5949,2.5952,2.5899,2.5918,2.5955,2.5915,2.5876,2.5872,2.5816,2.5877,2.5932,2.5936,2.5919,2.5892,2.5907,2.5756,2.4955,2.4341,2.4969,2.7524,3.0703,3.2543,3.5292,3.422,3.1561,2.6337,2.3784,2.3279,2.3541,2.4444,2.5432,2.6331,2.6389,2.6707,2.641,2.6586,2.6428,2.6686,2.6437,2.6753,2.6631,2.6787,2.6602,2.6756,2.666,2.6939,2.695,2.7138,2.6995,2.7172,2.7079,2.7283,2.7226,2.7351,2.7387,2.7647,2.7726,2.7831,2.7883,2.8029,2.813,2.828,2.8393,2.8526,2.8657,2.8874,2.9018,2.9217,2.9388,2.9613,2.9856,3.0052,3.0362,3.0576,3.0803,3.1001,3.1167,3.1317,3.1526,3.1636,3.1742,3.1675,3.1658,3.1399,3.1051,3.0565,3.0157,2.9687,2.936,2.8835,2.8395,2.8024,2.7713,2.737,2.7087,2.6838,2.6803,2.6664,2.665,2.6584,2.6595,2.654,2.6631,2.653,2.6461,2.635,2.6404,2.6365,2.6417,2.6371,2.64,2.6294,2.6378,2.6372,2.6463,2.6385,2.6389,2.634,2.6408,2.6361,2.6436,2.6479,2.6492,2.6445,2.6469,2.6386,2.6426,2.6379,2.6482,2.6411,2.6385,2.6376,2.6471,2.6494,2.6469,2.6405,2.6404,2.6435,2.6547,2.6469,2.6417,2.639,2.6464,2.6459,2.6495,2.6488,2.6451,2.6509,2.6668,2.6652,2.6614,2.6605,2.6503,2.675,2.7059,2.7375,2.7423,2.7142,2.7077,2.6985,2.6924,2.6817,2.6722,2.655,2.6459,2.6426,2.6413,2.6368,2.6354,2.6216,2.6116,2.6145,2.6176,2.6286,2.6198,2.6151,2.6206,2.614,2.6089,2.6127,2.6156,2.6144,2.6178,2.6229,2.6146,2.5764,2.494,2.4787,2.6365,2.9335,3.1906,3.3776,3.589,3.2215,2.6674,2.4354,2.3521,2.3698,2.4315,2.5309,2.6244,2.6831,2.6873,2.6899,2.6849,2.7065,2.6935,2.7021,2.695,2.7077,2.7011,2.7041,2.7063,2.7213,2.713,2.7328,2.7241,2.7375,2.736,2.7611,2.7541,2.7642,2.7629,2.7755,2.784,2.7964,2.7927,2.8079,2.8207,2.8331,2.8424,2.8648,2.8783,2.8942,2.9088,2.9289,2.9376,2.9675,2.9895,3.0061,3.0233,3.0393,3.0592,3.094,3.1161,3.1428,3.1531,3.1754,3.2003,3.2009,3.2027,3.1999,3.1778,3.1561,3.112,3.0875,3.0464,2.9929,2.9457,2.8936,2.8585,2.8229,2.785,2.7611,2.7276,2.7017,2.6964,2.6869,2.6799,2.6705,2.6709,2.6616,2.6607,2.6562,2.6569,2.6507,2.6568,2.6459,2.6472,2.6445,2.6485,2.6522,2.6592,2.6494,2.6456,2.6415,2.639,2.6329,2.6387,2.6463,2.6408,2.6382,2.6435,2.6417,2.6432,2.6363,2.6299,2.6362,2.6315,2.6325,2.6358,2.64,2.6451,2.6348,2.6363,2.6316,2.638,2.64,2.6329,2.6358,2.6376,2.6358,2.6342,2.6305,2.6312,2.6277,2.6219,2.6268,2.6363,2.6306,2.6354,2.6333,2.6354,2.6313,2.6319,2.6251,2.6301,2.6317,2.6338,2.6341,2.6341,2.6276,2.6291,2.6375,2.6333,2.6391,2.65,2.6677,2.6746,2.6587,2.645,2.6383,2.6794,2.7303,2.7389,2.7142,2.7036,2.6941,2.6825,2.6778,2.665,2.6581,2.6474,2.6412,2.6386,2.6235,2.6218,2.6226,2.6269,2.6183,2.61,2.6123,2.6135,2.6085,2.6114,2.6127,2.6085,2.601,2.6114,2.6101,2.6145,2.6128,2.6195,2.5994,2.5378,2.4714,2.5202,2.7392,3.031,3.2005,3.465,3.465,2.9445,2.5634,2.4215,2.4154,2.4604,2.5266,2.6289,2.6737,2.6865,2.6742,2.6676,2.6643,2.6699,2.6714,2.6712,2.682,2.6846,2.6971,2.6975,2.6953,2.71,2.7169,2.7168,2.7164,2.724,2.7282,2.7395,2.7508,2.7507,2.7604,2.7703,2.7796,2.7809,2.8083,2.8157,2.8243,2.8309,2.8526,2.8662,2.882,2.897,2.9141,2.9235,2.9483,2.9715,2.9948,3.0058,3.0267,3.0558,3.0793,3.1023,3.1206,3.1448,3.1697,3.185,3.2017,3.2076,3.217,3.2167,3.2084,3.1855,3.1493,3.1015,3.0519,3.0038,2.9803,2.9365,2.8908,2.8437,2.8045,2.7757,2.7533,2.7404,2.7303,2.7147,2.7045,2.6948,2.6817,2.6852,2.6865,2.6809,2.6759,2.6741,2.6725,2.6674,2.6626,2.671,2.67,2.6686,2.6707,2.6626,2.6661,2.6604,2.67,2.6715,2.6642,2.6598,2.6593,2.6605,2.6574,2.664,2.6624,2.6657,2.6631,2.6662,2.6581,2.6627,2.6593,2.6516,2.6575,2.6537,2.6479,2.6476,2.6372,2.6553,2.6605,2.6499,2.6452,2.643,2.6494,2.6511,2.6486,2.6411
