8.7162,8.7226,8.7533,8.7719,8.7907,8.8093,8.8127,8.8216,8.8592,8.8691,8.8831,8.901,8.9168,8.9312,8.9379,8.96,8.9746,8.9828,8.9883,8.9973,9.0035,8.9882,8.9657,8.956,8.9341,8.8961,8.854,8.8039,8.7641,8.7293,8.7011,8.6995,8.6748,8.6582,8.639,8.6236,8.6142,8.6122,8.6099,8.5996,8.6017,8.5947,8.5918,8.5827,8.5788,8.57,8.5785,8.5744,8.5707,8.5715,8.5726,8.5778,8.5919,8.5913,8.5994,8.5978,8.593,8.5879,8.5907,8.5918,8.5856,8.588,8.5828,8.5863,8.5877,8.5875,8.5899,8.5772,8.586,8.5909,8.5885,8.583,8.5835,8.5793,8.5762,8.5824,8.5859,8.5859,8.5808,8.5799,8.5721,8.5677,8.5698,8.5701,8.5635,8.5585,8.5486,8.5356,8.5458,8.5475,8.5441,8.5511,8.5512,8.547,8.547,8.5415,8.5356,8.5403,8.5347,8.5405,8.5432,8.5402,8.5307,8.5205,8.5355,8.5335,8.5309,8.5252,8.5178,8.5222,8.5129,8.5031,8.5002,8.5037,8.4944,8.4999,8.4917,8.5036,8.496,8.4965,8.489,8.4883,8.5117,8.4983,8.4829,8.5072,8.5699,8.5991,8.5788,8.554,8.5427,8.5294,8.5319,8.5328,8.5188,8.509,8.4941,8.4783,8.4793,8.4655,8.4739,8.4623,8.468,8.4703,8.4738,8.4741,8.4827,8.4952,8.4803,8.4785,8.464,8.3996,8.2932,8.2637,8.2853,8.3743,8.5975,9.0104,9.3306,9.2412,8.8092,8.3618,8.2891,8.327,8.3256,8.3273,8.3602,8.3632,8.406,8.4613,8.4786,8.4742,8.4558,8.4767,8.4608,8.47,8.4823,8.4915,8.4935,8.4955,8.4841,8.4876,8.4932,8.5128,8.5086,8.5067,8.5071,8.5137,8.5157,8.5181,8.526,8.5447,8.5377,8.5486,8.5541,8.5686,8.5774,8.5836,8.5764,8.5807,8.6054,8.6242,8.6344,8.6437,8.6599,8.6724,8.6892,8.6939,8.6958,8.7082,8.7156,8.7446,8.7467,8.7719,8.7715,8.7864,8.7905,8.7878,8.7829,8.7684,8.7576,8.7241,8.6904,8.6585,8.6249,8.5925,8.5731,8.5564,8.5297,8.4971,8.4766,8.4501,8.4442,8.4276,8.4276,8.4125,8.4091,8.3959,8.3925,8.3885,8.3785,8.3768,8.3804,8.3882,8.3813,8.3783,8.3822,8.378,8.3793,8.3832,8.3787,8.3795,8.3831,8.3829,8.3837,8.3844,8.3879,8.3874,8.3943,8.3988,8.3987,8.3972,8.398,8.401,8.4044,8.4085,8.4134,8.4124,8.4257,8.4097,8.4176,8.4286,8.4368,8.4365,8.4348,8.4387,8.4371,8.4404,8.4447,8.4459,8.4492,8.4499,8.4523,8.456,8.4609,8.4645,8.4709,8.4757,8.4736,8.4736,8.4676,8.4693,8.482,8.489,8.4976,8.4983,8.4982,8.5175,8.5228,8.5125,8.5235,8.5586,8.5928,8.6026,8.5897,8.5692,8.5538,8.549,8.5476,8.5425,8.5258,8.5028,8.4969,8.4991,8.4999,8.5059,8.505,8.5054,8.5019,8.5121,8.5159,8.517,8.5131,8.512,8.5159,8.5173,8.5051,8.4342,8.3664,8.3706,8.4137,8.5538,8.9029,9.3524,9.4984,9.1368,8.6226,8.281,8.3066,8.3415,8.3633,8.4087,8.3989,8.4224,8.4759,8.5715,8.6077,8.6034,8.5967,8.6079,8.6031,8.6049,8.6109,8.6183,8.6176,8.6312,8.6328,8.6419,8.6485,8.6552,8.6619,8.6656,8.6752,8.6764,8.6771,8.69,8.6946,8.7108,8.7206,8.7279,8.732,8.7401,8.7432,8.7521,8.7643,8.7727,8.7823,8.7934,8.8046,8.8228,8.8353,8.8474,8.8554,8.8683,8.8834,8.9051,8.9142,8.9248,8.9319,8.9426,8.9509,8.9566,8.955,8.9467,8.9317,8.9078,8.8784,8.8449,8.807,8.7747,8.7442,8.7294,8.7048,8.676,8.6536,8.6371,8.6278,8.6099,8.6018,8.593,8.5911,8.5918,8.5854,8.5792,8.571,8.5708,8.5752,8.5722,8.5724,8.5695,8.5682,8.5706,8.5769,8.5759,8.5848,8.5887,8.5918,8.5956,8.6024,8.6068,8.6068,8.6143,8.62,8.6167,8.6281,8.62,8.6176,8.6163,8.6117,8.6082,8.6038,8.6014,8.5998,8.6014,8.5991,8.601,8.598,8.5957,8.5884,8.5925,8.5873,8.5905,8.5914,8.5876,8.5835,8.5754,8.5825,8.5649,8.569,8.5614,8.5622,8.5499,8.5611,8.556,8.5572,8.5468,8.5342,8.5265,8.5229,8.5182,8.5124,8.5115,8.508,8.5096,8.5029,8.4961,8.4886,8.4849,8.4847,8.4879,8.4932,8.4859,8.4761,8.4835,8.4873,8.481,8.4784,8.5139,8.5494,8.5634,8.5269,8.508,8.4913,8.4948,8.5037,8.493,8.4705,8.4391,8.4237,8.4209,8.4238,8.4261,8.4321,8.4267,8.4276,8.4235,8.4226,8.4222,8.4244,8.4265,8.4248,8.4187,8.3624,8.2822,8.2657,8.2804,8.3827,8.6403,8.8564,9.27,9.3746,8.946,8.4217,8.146,8.221,8.241,8.2673,8.2943,8.279,8.3174,8.3822,8.4451,8.4461,8.4366,8.4374,8.4362,8.4426,8.4404,8.4497,8.4507,8.4573,8.4575,8.4637,8.4715,8.4748,8.4783,8.4862,8.4914,8.4966,8.4991,8.5086,8.5135,8.5204,8.5297,8.5349,8.5424,8.543,8.5514,8.5658,8.5793,8.5863,8.6004,8.6145,8.6254,8.6416,8.6558,8.6684,8.6859,8.6987,8.718,8.7333,8.7499,8.7638,8.7788,8.7921,8.7946,8.803,8.8065,8.8126,8.8069,8.7948,8.7751,8.7494,8.7147,8.6815,8.6526,8.6177,8.5864,8.5658,8.5424,8.5208,8.5049,8.4887,8.4738,8.4607,8.4545,8.4477,8.4426,8.4391,8.4375,8.4324,8.4281,8.4268,8.4288,8.4273,8.4224,8.4227,8.4205,8.4191,8.4157,8.4162,8.4137,8.4085,8.4047,8.407,8.4084,8.4168,8.4103,8.409,8.4128,8.4117,8.4103,8.4159,8.4194,8.4158,8.4216,8.4214,8.4107,8.4174,8.4164,8.4176,8.4216,8.42,8.4204,8.417,8.4204,8.4194,8.4163,8.4112,8.4088,8.4125,8.4132,8.4152,8.4126,8.407,8.4047,8.4012,8.4046,8.3987,8.3979,8.4019,8.3994,8.3975,8.3966,8.3956,8.3949,8.3896,8.3947,8.3888,8.3884,8.3949,8.397,8.4007,8.404,8.4206,8.4148,8.4163,8.4211,8.4422,8.4313,8.4289,8.4584,8.5007,8.5056,8.4784,8.4713,8.4487,8.4428,8.4433,8.4455,8.4331,8.4207,8.3956,8.3853,8.3715,8.374,8.3623,8.3641,8.363,8.3555,8.3651,8.3635,8.3639,8.3623,8.3726,8.3671,8.359,8.2958,8.2005,8.2069,8.2276,8.3164,8.6008,9.0046,9.2585,9.1664,8.7474,8.3811,8.3348,8.3225,8.2646,8.2818,8.2704,8.2836,8.3378,8.3815,8.3885,8.3753,8.39,8.408,8.4191,8.4206,8.422,8.4302,8.4491,8.4578,8.4671,8.4784,8.4959,8.511,8.5137,8.5193,8.534,8.5505,8.5583,8.5703,8.5925,8.6145,8.622,8.6264,8.6389,8.6497,8.6615,8.6771,8.6841,8.6618,8.6768,8.6885,8.7038,8.71,8.7181,8.7216,8.7292,8.7484,8.7564,8.7668,8.7797,8.7828,8.784,8.7938,8.8099,8.8033,8.7901,8.7814,8.7395,8.6911,8.6853,8.6385,8.5803,8.5554,8.5122,8.4611,8.4223,8.3996,8.3905,8.3689,8.3802,8.3587,8.3455,8.3408,8.3519,8.355,8.3672,8.3417,8.3332,8.3483,8.3322,8.3261,8.3115,8.3197,8.3199,8.3366,8.3335,8.3414,8.3287,8.3443,8.3523,8.3414,8.3555,8.3514,8.3572,8.356,8.3623,8.3636,8.3605,8.3778,8.3785,8.384,8.3803,8.3935,8.3992,8.4082,8.413,8.4213,8.4242,8.4236,8.4328,8.4328,8.4365,8.4355,8.4365,8.4388,8.4428,8.4467,8.446,8.4577,8.4527,8.4532,8.4509,8.4587,8.4551,8.4578,8.464,8.4701,8.4712,8.4725,8.4738,8.4655,8.4484,8.4375,8.421,8.4028,8.3937,8.3794,8.3764,8.3654,8.3537,8.3496,8.3352,8.3339,8.3263,8.3191,8.3124,8.3105,8.314,8.3229,8.3224,8.3236,8.3413,8.3595,8.3628,8.3596,8.3813,8.425,8.4318,8.4067,8.398,8.3752,8.3581,8.3585,8.3534,8.339,8.3103,8.2721,8.2706,8.2926,8.3084,8.2994,8.2627,8.2523,8.2837,8.3073,8.3244,8.3249,8.3193,8.3121,8.308,8.2923,8.2353,8.1459,8.12,8.1258,8.2122,8.4284,8.8394,9.1621,9.0778,8.6751,8.2731,8.2415,8.2479,8.2126,8.2501,8.231,8.2715,8.3008,8.3653,8.3782,8.3629,8.369,8.3616,8.3726,8.3719,8.3749,8.3751,8.3879,8.3839,8.3933,8.3947,8.3977,8.3956,8.4046,8.4069,8.4146,8.4153,8.4185,8.4235,8.4287,8.4342,8.4439,8.4468,8.4539,8.4622,8.4716,8.4766,8.4915,8.4986,8.5114,8.525,8.5295,8.5451,8.561,8.5724,8.5885,8.5958,8.6086,8.6267,8.6414,8.6603,8.6764,8.693,8.7068,8.7215,8.7306,8.7291,8.7224,8.714,8.6953,8.6622,8.6308,8.6011,8.5648,8.5336,8.5162,8.4888,8.4536,8.4352,8.408,8.3867,8.3724,8.3664,8.3515,8.3482,8.3421,8.3395,8.3375,8.34,8.3413,8.3429,8.3434,8.3447,8.3451,8.3477,8.348,8.3515,8.3492,8.3457,8.3414,8.3378,8.3333,8.3251,8.3171,8.3131,8.31,8.3047,8.3024,8.2969,8.2919,8.295,8.2912,8.2866,8.2885,8.2931,8.2986,8.3051,8.3067,8.3136,8.3166,8.322,8.3206,8.3264,8.3301,8.3335,8.3369,8.3348,8.333,8.3321,8.3335,8.3346,8.3364,8.3332,8.3317,8.3343,8.3346,8.3367,8.3342,8.3362,8.3344,8.333,8.3335,8.3318,8.3328,8.3297,8.3304,8.3313,8.3289,8.3294,8.3246,8.3257,8.3217,8.3176,8.3189,8.319,8.3208,8.3212,8.3201,8.3219,8.3206,8.3222,8.3217,8.3204,8.3224,8.3203,8.324,8.3347,8.332,8.3261,8.3283,8.3411,8.3361,8.3289,8.3365,8.3725,8.4181,8.4163,8.3941,8.3737,8.3602,8.3581,8.3596,8.3495,8.3324,8.3091,8.304,8.3011,8.3062,8.3003,8.3016,8.2844,8.2751,8.2807,8.2993,8.3007,8.299,8.2909,8.2794,8.2783,8.2542,8.1765,8.141,8.1381,8.2032,8.3885,8.7836,9.1297,9.1018,8.7035,8.2434,8.158,8.1877,8.1998,8.1946,8.2303,8.1997,8.2341,8.3082,8.3335,8.3355,8.3212,8.3325,8.3249,8.3372,8.3335,8.3433,8.3433,8.3536,8.3504,8.3586,8.3575,8.3628,8.3651,8.3773,8.3714,8.3804,8.3836,8.3899,8.3898,8.3972,8.3996,8.4074,8.4126,8.4196,8.4243,8.4348,8.4435,8.4575,8.4689,8.478,8.4806,8.4829,8.499,8.5153,8.5323,8.5507,8.561,8.5713,8.5824,8.5954,8.6075,8.6177,8.6278,8.6333,8.6379,8.6438,8.6396,8.6284,8.6145,8.5966,8.5667,8.5404,8.5115,8.481,8.4589,8.4297,8.4111,8.3873,8.365,8.3414,8.3297,8.3169,8.308,8.2959,8.2868,8.2808,8.2735,8.2675,8.2719,8.2642,8.2645,8.2647,8.2668,8.2652,8.2717,8.2657,8.2629,8.2581,8.2628,8.2538,8.2539,8.2562,8.2595,8.2582,8.2581,8.2629,8.263,8.2654,8.2696,8.2692,8.2701,8.2736,8.2719,8.2748,8.2712,8.2668,8.2724,8.2672,8.27,8.2699,8.2683,8.2674,8.2706,8.2629,8.268,8.2626,8.264,8.2609,8.2626,8.2614,8.2568,8.2589,8.2584,8.2562,8.2595,8.2546,8.2576,8.2546,8.2561,8.2586,8.2554,8.2538,8.2549,8.2524,8.2541,8.2541,8.2533,8.2562,8.2531,8.254,8.2535,8.256,8.2554,8.2579,8.2555,8.2594,8.2581,8.2573,8.256,8.263,8.2616,8.2629,8.262,8.2627,8.2602,8.2631,8.2634,8.2622,8.2717,8.2785,8.2785,8.2784,8.2871,8.2997,8.2942,8.2991,8.3309,8.3802,8.3934,8.3788,8.3558,8.3462,8.3444,8.3442,8.3343,8.3242,8.3083,8.2867,8.2825,8.2835,8.2816,8.2829,8.2778,8.2732,8.2774,8.279,8.2668,8.2725,8.2608,8.2619,8.2562,8.2236,8.1321,8.0776,8.0793,8.0904,8.1975,8.4736,8.9141,9.1245,8.8926,8.4353,8.0979,8.1324,8.1636,8.1413,8.1964,8.1581,8.1891,8.2516,8.2907,8.2865,8.2795,8.2846,8.2818,8.2912,8.2929,8.2933,8.2971,8.3022,8.2991,8.3083,8.304,8.3165,8.3139,8.3253,8.3266,8.3259,8.3356,8.34,8.3394,8.3468,8.357,8.3574,8.3597,8.366,8.3729,8.379,8.3873,8.3889,8.4009,8.416,8.4277,8.4372,8.4439,8.452,8.47,8.4877,8.4929,8.5061,8.5031,8.5062,8.5376,8.5514,8.5644,8.5692,8.5737,8.5845,8.5901,8.5869,8.5765,8.5526,8.5326,8.4965,8.469,8.4403,8.4081,8.3834,8.3596,8.3365,8.3135,8.2919,8.2808,8.2764,8.2695,8.2579,8.2518,8.2455,8.2328,8.2256,8.2259,8.2281,8.2272,8.2313,8.2165,8.2062,8.2151,8.2216,8.223,8.2241,8.2189,8.2193,8.2195,8.22,8.2228,8.2206,8.2209,8.226,8.2273,8.2301,8.2285,8.2293,8.2338,8.2301,8.2304,8.2326,8.2298,8.2326,8.2374,8.238,8.2371,8.2357,8.2351,8.232,8.2276,8.2267,8.2307,8.231,8.2346,8.2258,8.2328,8.2317,8.233,8.2354,8.2307,8.2215,8.2238,8.2261,8.236,8.2392,8.2374,8.2325,8.2327,8.2366,8.231,8.2295,8.2329,8.2387,8.2335,8.2245,8.228,8.2346,8.2397,8.2419,8.2349,8.235,8.2299,8.2348,8.2365,8.2414,8.2418,8.2324,8.2381,8.2397,8.239,8.2229,8.2334,8.241,8.2396,8.2372,8.2355,8.2486,8.2466,8.241,8.2468,8.2829,8.316,8.3291,8.3064,8.2926,8.2766,8.2732,8.2741,8.2619,8.2395,8.2136,8.2079,8.2082,8.2042,8.2087,8.2127,8.201,8.2018,8.2023,8.1901,8.2009,8.2117,8.2066,8.2103,8.2027,8.1903,8.1186,8.0629,8.0743,8.0962,8.2345,8.585,9.0306,9.1171,8.6829,8.174,7.913,7.9787,8.0086,8.0444,8.0893,8.0716,8.098,8.1298,8.2215,8.2541,8.2447,8.2311,8.2515,8.255,8.2626,8.2619,8.2723,8.2614,8.2786,8.2833,8.2872,8.2905,8.292,8.3046,8.3161,8.329,8.3274,8.3277,8.3314,8.3379,8.3467,8.3603,8.3665,8.3718,8.3777,8.3885,8.399,8.4101,8.4184,8.4311,8.442,8.4537,8.4618,8.4838,8.4999,8.5039,8.5144,8.5325,8.544,8.5607,8.5753,8.5888,8.6044,8.6123,8.6239,8.631,8.6368,8.63,8.6246,8.6071,8.5782,8.5555,8.5273,8.5004,8.4655,8.4565,8.4384,8.4174,8.4014,8.3914,8.3787,8.3692,8.3619,8.3527,8.3517,8.3515,8.3472,8.3405,8.3349,8.3365,8.3338,8.3325,8.3378,8.3374,8.3392,8.3382,8.3412,8.3405,8.3391,8.3421,8.3374,8.3497,8.348,8.3409,8.3461,8.3522,8.3553,8.3544,8.3642,8.3762,8.3704,8.3674,8.369,8.3755,8.3757,8.3751,8.3741,8.3794,8.3787,8.3818,8.3823,8.3877,8.3845,8.3834,8.379,8.3728,8.3789,8.3784,8.3818,8.3777,8.3784,8.377,8.3741,8.3733,8.372,8.3775,8.3767,8.3777,8.3712,8.3705,8.3758,8.3778,8.3795,8.375,8.3763,8.3735,8.3757,8.3798,8.3754,8.3709,8.3709,8.375,8.376,8.3751,8.3729,8.371,8.3716,8.3668,8.3634,8.364,8.3655,8.3665,8.3685,8.3679,8.3748,8.379,8.3781,8.3718,8.3839,8.3918,8.3817,8.3773,8.3932,8.4376,8.4747,8.4599,8.4415,8.4182,8.4079,8.4074,8.4077,8.3945,8.3776,8.3588,8.3501,8.3531,8.3542,8.3504,8.3499,8.3485,8.3488,8.3477,8.348,8.3489,8.3495,8.3475,8.3523,8.3334,8.2597,8.1933,8.1848,8.212,8.3433,8.6593,9.094,9.2517,8.9558,8.482,8.1917,8.2335,8.2529,8.23,8.2633,8.2574,8.2752,8.3244,8.397,8.4011,8.3916,8.3928,8.39,8.3989,8.4075,8.4113,8.4115,8.4153,8.4273,8.4284,8.4285,8.4376,8.4387,8.4438,8.4432,8.4517,8.4564,8.4639,8.4638,8.4715,8.4801,8.4821,8.4843,8.5007,8.5021,8.5094,8.514,8.5363,8.5555,8.5608,8.5803,8.5888,8.5881,8.5931,8.6103,8.6352,8.6485,8.647,8.6566,8.6868,8.6937,8.698,8.7083,8.7126,8.7202,8.7254,8.7286,8.7261,8.7132,8.6867,8.6668,8.6585,8.6291,8.5967,8.5683,8.5353,8.517,8.4888,8.4709,8.4468,8.4265,8.4124,8.3957,8.3893,8.383,8.3709,8.3588,8.3559,8.3495,8.3472,8.3437,8.3432,8.3391,8.331,8.3318,8.3299,8.3316,8.329,8.3249,8.3195,8.3185,8.3189,8.3172,8.3177,8.3128,8.3222,8.3174,8.3212,8.3172,8.3152,8.3115,8.3132,8.3136,8.3193,8.3165,8.3207,8.315,8.319,8.3217,8.32,8.3223,8.3155,8.3151,8.3125,8.3126,8.3097,8.3069,8.3051,8.3079,8.3027,8.3048,8.2974,8.302,8.3007,8.3014,8.3026,8.3042,8.3073,8.307,8.3004,8.2987,8.3027,8.2949,8.2948,8.2918,8.2903,8.2935,8.2884,8.2892,8.2909,8.2902,8.2914,8.29,8.2882,8.2868,8.2851,8.2855,8.2901,8.2801,8.2789,8.2831,8.2833,8.2834,8.2811,8.2877,8.2828,8.284,8.2804,8.2789,8.2866,8.2834,8.2867,8.2943,8.291,8.2848,8.3002,8.3084,8.2915,8.2949,8.3293,8.3737,8.3824,8.3603,8.3423,8.3277,8.3307,8.3299,8.3249,8.3075,8.2891,8.2757,8.2695,8.2701,8.2767,8.271,8.2708,8.2703,8.2681,8.2669,8.2698,8.2744,8.268,8.2696,8.2609,8.213,8.132,8.1172,8.1183,8.1696,8.3201,8.6696,9.0669,9.1353,8.7855,8.2991,8.1115,8.1627,8.1698,8.1831,8.2132,8.208,8.2542,8.3321,8.343,8.3349,8.3338,8.3307,8.3348,8.3385,8.3372,8.3373,8.3489,8.3577,8.3587,8.3589,8.3623,8.3755,8.3737,8.3768,8.3846,8.3859,8.3912,8.3987,8.4066,8.4124,8.4118,8.4138,8.416,8.4266,8.4418,8.4627,8.4737,8.4758,8.4733,8.486,8.5041,8.5145,8.5219,8.5343,8.5434,8.5607,8.5905,8.6126,8.6201,8.6156,8.6302,8.6359,8.6307,8.6394,8.6503,8.6435,8.6592,8.6482,8.6249,8.6066,8.5834,8.5604,8.5317,8.5034,8.4801,8.4509,8.425,8.4016,8.3839,8.3722,8.357,8.3376,8.3394,8.3281,8.3246,8.3249,8.3309,8.3159,8.3084,8.3024,8.3002,8.2955,8.2935,8.2935,8.2941,8.2929,8.2905,8.29,8.2874,8.2891,8.2839,8.2859,8.2813,8.2822,8.2803,8.2811,8.2809,8.2878,8.2817,8.2901,8.2919,8.2887,8.2907,8.2886,8.2831,8.286,8.2857,8.2889,8.2931,8.2963,8.2953,8.2945,8.2943,8.2952,8.2984,8.2975,8.2956,8.2955,8.2968,8.2987,8.3039,8.2941,8.2957,8.2939,8.293,8.295,8.2908,8.2873,8.287,8.2864,8.2867,8.2853,8.2862,8.2852,8.2837,8.2819,8.2802,8.2763,8.274,8.2741,8.2735,8.2716,8.2702,8.2767,8.2733,8.2728,8.27,8.2728,8.273,8.274,8.2768,8.2891,8.2872,8.2899,8.2865,8.3047,8.2974,8.289,8.3077,8.3553,8.3898,8.3682,8.3454,8.3371,8.3253,8.3205,8.3187,8.3066,8.2952,8.2708,8.2618,8.2571,8.2612,8.2576,8.2605,8.2569,8.2575,8.2584,8.2583,8.2597,8.2589,8.2565,8.2549,8.2271,8.1481,8.1126,8.101,8.1058,8.2095,8.4677,8.8957,9.1133,8.918,8.4481,8.0801,8.1025,8.1331,8.1204,8.1807,8.1568,8.1952,8.2638,8.3095,8.3066,8.2971,8.298,8.2962,8.3051,8.3023,8.3082,8.3083,8.3148,8.3177,8.3209,8.326,8.3303,8.3371,8.3452,8.348,8.3548,8.3597,8.3659,8.3707,8.381,8.3815,8.3874,8.3919,8.4001,8.4107,8.4204,8.4279,8.4406,8.4467,8.4583,8.4673,8.4789,8.4884,8.502,8.5123,8.5252,8.5357,8.5472,8.5559,8.5626,8.572,8.5864,8.5905,8.6023,8.6079,8.6133,8.6148,8.6069,8.6002,8.5819,8.5602,8.5322,8.5005,8.4741,8.4452,8.417,8.3962,8.3725,8.3647,8.3482,8.3299,8.3204,8.312,8.3026,8.2958,8.2908,8.2843,8.2762,8.2774,8.2749,8.2749,8.2743,8.2729,8.269,8.2702,8.2667,8.2701,8.2692,8.2678,8.2708,8.2712,8.2703,8.2704,8.2729,8.2706,8.2768,8.2769,8.2768,8.2776,8.2797,8.2843,8.281,8.2805,8.2809,8.2818,8.283,8.2823,8.2823,8.2868,8.2828,8.2795,8.2803,8.278,8.2796,8.2823,8.2808,8.2807,8.282,8.2782,8.2795,8.2791,8.2798,8.2843,8.2827,8.2836,8.2844,8.2847,8.2804,8.2796,8.2811,8.2856,8.2862,8.2862,8.2847,8.2917,8.2899,8.287,8.2897,8.2867,8.2912,8.2895,8.2895,8.2927,8.2933,8.291,8.3064,8.3084,8.3041,8.2974,8.3042,8.3233,8.3137,8.3094,8.3401,8.3928,8.4063,8.3827,8.3649,8.3468,8.3414,8.3403,8.3324,8.3107,8.2868,8.2787,8.278,8.2821,8.2809,8.2833,8.2796,8.2779,8.2806,8.2802,8.2776,8.279,8.2746,8.2761,8.2688,8.2109,8.1333,8.121,8.1307,8.2315,8.4998,8.9227,9.0812,9.0733,8.6756,8.1753,8.0623,8.0989,8.1181,8.1496,8.1911,8.1851,8.2558,8.3169,8.3432,8.3196,8.3232,8.3128,8.3282,8.3263,8.3423,8.336,8.3412,8.3451,8.3579,8.3504,8.3633,8.3648,8.3737,8.3744,8.3822,8.3815,8.3919,8.3913,8.4045,8.4033,8.4181,8.4196,8.4341,8.4462,8.4495,8.4562,8.461,8.4706,8.4875,8.4877,8.5048,8.5138,8.5204,8.5328,8.5444,8.5549,8.5697,8.5887,8.5968,8.61,8.613,8.6241,8.6336,8.6427,8.6379,8.6403,8.6382,8.6275,8.6191,8.5922,8.559,8.5292,8.4911,8.4662,8.4342,8.4156,8.3933,8.3687,8.3522,8.3369,8.321,8.3111,8.2969,8.2925,8.2876,8.2791,8.2704,8.2701,8.2652,8.2695,8.2584,8.2642,8.2603,8.2602,8.2583,8.2601,8.2501,8.248,8.2461,8.2522,8.2501,8.2522,8.2562,8.2515,8.2509,8.2589,8.2501,8.245,8.2514,8.2517,8.2526,8.2565,8.2586,8.2607,8.2514,8.2458,8.2407,8.239,8.2481,8.2557,8.2445,8.2468,8.2375,8.2428,8.2463,8.2433,8.2413,8.238,8.2409,8.2377,8.2361,8.24,8.2433,8.2505,8.2407,8.2403,8.231,8.2363,8.241,8.2573,8.2559,8.2555,8.2487,8.2684,8.2694,8.2691,8.2775,8.2998,8.3248,8.3483,8.343,8.317,8.3134,8.2982,8.2977,8.2795,8.2612,8.2463,8.2565,8.2601,8.2662,8.2704,8.2641,8.2744,8.2816,8.2846,8.2839,8.2836,8.2667,8.2703,8.281,8.2717,8.2302,8.1672,8.1663,8.1664,8.2909,8.5873,9.0367,9.1995,9.1079,8.5914,8.0565,7.9036,7.9798,8.0117,8.0595,8.1051,8.1065,8.1624,8.2345,8.3315,8.3364,8.3458,8.3288,8.3488,8.3408,8.361,8.3544,8.364,8.3621,8.3769,8.377,8.3875,8.3907,8.4016,8.4042,8.4199,8.4142,8.4286,8.4357,8.4462,8.4503,8.4637,8.4697,8.4801,8.4977,8.4998,8.5021,8.5115,8.531,8.5524,8.5583,8.5671,8.5767,8.5916,8.6072,8.6207,8.6331,8.6384,8.6483,8.6623,8.6788,8.6877,8.6964,8.7111,8.7141,8.7185,8.7224,8.7148,8.7032,8.6804,8.659,8.6304,8.5991,8.5634,8.5397,8.5161,8.4927,8.4652,8.45,8.4337,8.4231,8.4104,8.4041,8.3936,8.39,8.3834,8.3848,8.3785,8.3788,8.3744,8.3801,8.3776,8.3788,8.3745,8.3814,8.3745,8.377,8.3764,8.3765,8.3739,8.377,8.377,8.3788,8.3742,8.3756,8.3746,8.3774,8.374,8.3778,8.3756,8.3789,8.3786,8.3789,8.3791,8.3813,8.3795,8.3791,8.3798,8.3865,8.3837,8.3784,8.3681,8.37,8.3693,8.3718,8.3779,8.3714,8.3758,8.3731,8.372,8.3748,8.3777,8.3774,8.3751,8.377,8.3776,8.3802,8.3807,8.382,8.3809,8.3877,8.387,8.3978,8.4028,8.4036,8.4,8.4081,8.4217,8.4144,8.413,8.4506,8.502,8.4991,8.4802,8.4685,8.4529,8.4562,8.452,8.4391,8.4187,8.4029,8.3985,8.4005,8.4004,8.4021,8.392,8.3986,8.3988,8.3946,8.3918,8.3908,8.3949,8.3929,8.3962,8.375,8.2994,8.2376,8.228,8.2568,8.3776,8.6849,9.1251,9.2632,9.2088,8.7993,8.3523,8.2983,8.3061,8.2838,8.3175,8.3125,8.3477,8.412,8.4533,8.4541,8.441,8.4435,8.4408,8.448,8.4433,8.4557,8.4552,8.4618,8.4627,8.4716,8.4762,8.479,8.4817,8.4914,8.4893,8.4983,8.4993,8.5069,8.5094,8.5157,8.517,8.521,8.5289,8.5366,8.5411,8.5506,8.5538,8.5667,8.5743,8.5852,8.5948,8.6102,8.6214,8.631,8.6387,8.6534,8.6625,8.6729,8.6861,8.6943,8.7059,8.7149,8.7279,8.732,8.7383,8.7351,8.734,8.7241,8.7166,8.6949,8.671,8.6447,8.6139,8.5786,8.5554,8.5228,8.5041,8.4803,8.4653,8.4469,8.4354,8.4186,8.4106,8.4021,8.3974,8.3936,8.3886,8.3866,8.3864,8.3791,8.3833,8.3772,8.3735,8.3735,8.3717,8.3714,8.374,8.3681,8.3734,8.3684,8.3664,8.3665,8.366,8.3669,8.3662,8.3635,8.3628,8.3619,8.3655,8.3636,8.3646,8.3639,8.3618,8.3677,8.3648,8.3654,8.3598,8.3626,8.3625,8.3631,8.3591,8.3592,8.3556,8.3549,8.3549,8.3513,8.3524,8.3451,8.3454,8.3451,8.3448,8.3415,8.3376,8.3373,8.3404,8.3381,8.3341,8.3354,8.3353,8.3368,8.3337,8.3318,8.335,8.3411,8.3469,8.3431,8.3409,8.3515,8.3559,8.351,8.3529,8.3937,8.4344,8.4345,8.4136,8.3944,8.3806,8.3795,8.3788,8.3623,8.342,8.3214,8.316,8.3166,8.3199,8.32,8.3171,8.3169,8.3151,8.3147,8.3121,8.3108,8.3083,8.3069,8.3071,8.3052,8.256,8.1685,8.1343,8.1381,8.218,8.4443,8.639,9.0521,9.184,8.8348,8.3543,8.1019,8.1526,8.151,8.167,8.2124,8.2026,8.2462,8.3355,8.3467,8.3457,8.3383,8.3412,8.3349,8.3452,8.345,8.3514,8.3485,8.3558,8.3616,8.3664,8.3699,8.3749,8.3796,8.3855,8.3886,8.395,8.4002,8.4077,8.4069,8.4143,8.4194,8.4245,8.4341,8.4251,8.4429,8.4527,8.4611,8.4734,8.4784,8.4926,8.5005,8.5127,8.5197,8.5354,8.5463,8.559,8.5672,8.5809,8.5922,8.6016,8.6098,8.6192,8.6271,8.6327,8.6358,8.6358,8.6279,8.6183,8.6016,8.5795,8.5523,8.5237,8.4913,8.4649,8.4376,8.4141,8.3926,8.3687,8.3569,8.34,8.3281,8.3144,8.3126,8.2999,8.3024,8.2916,8.2889,8.2862,8.2797,8.2795,8.281,8.2762,8.2825,8.2761,8.2722,8.2765,8.2741,8.271,8.2758,8.2758,8.2763,8.2765,8.2762,8.276,8.2769,8.2716,8.2743,8.2741,8.2752,8.2782,8.276,8.2833,8.2851,8.2837,8.2819,8.2796,8.2778,8.2787,8.2783,8.2763,8.2756,8.2768,8.2773,8.2734,8.2785,8.2711,8.2698,8.2681,8.2665,8.2702,8.2694,8.2636,8.2651,8.2645,8.2647,8.2641,8.2683,8.269,8.2666,8.2655,8.2647,8.2593,8.2583,8.26,8.2628,8.262,8.2635,8.2588,8.2569,8.2596,8.2569,8.2584,8.2583,8.2559,8.263,8.2638,8.2634,8.2706,8.264,8.2616,8.2656,8.2824,8.282,8.2708,8.2839,8.3436,8.3569,8.3413,8.3193,8.3116,8.304,8.2937,8.2961,8.2773,8.2583,8.2446,8.2385,8.2309,8.2514,8.2453,8.2418,8.2504,8.2355,8.2358,8.2236,8.2368,8.2358,8.2243,8.2303,8.2154,8.1574,8.0959,8.0818,8.0976,8.2189,8.519,8.9693,9.1472,9.0544,8.5887,8.1155,8.0362,8.094,8.0859,8.1137,8.1476,8.139,8.2002,8.263,8.3116,8.2893,8.2989,8.2823,8.2879,8.2809,8.2913,8.277,8.2934,8.2879,8.2979,8.2979,8.3051,8.2982,8.3065,8.3035,8.3136,8.311,8.3175,8.3159,8.3264,8.3328,8.3419,8.3415,8.3512,8.3618,8.372,8.3792,8.384,8.3934,8.4037,8.4152,8.4312,8.4461,8.4522,8.463,8.478,8.4885,8.5021,8.5095,8.5243,8.5312,8.5516,8.5611,8.5696,8.5862,8.5808,8.5874,8.5863,8.5857,8.5698,8.5486,8.518,8.4962,8.4664,8.4447,8.4225,8.4015,8.379,8.357,8.3386,8.3253,8.3094,8.3048,8.2885,8.2893,8.28,8.2821,8.2802,8.2813,8.2788,8.278,8.2759,8.2759,8.2706,8.2757,8.2736,8.278,8.2797,8.2813,8.2783,8.2827,8.2807,8.2823,8.2817,8.2865,8.2861,8.2883,8.2889,8.2862,8.2845,8.2903,8.2895,8.2969,8.2896,8.2879,8.2878,8.2894,8.2881,8.2876,8.2841,8.2872,8.2844,8.2846,8.284,8.2871,8.2823,8.2802,8.2794,8.2759,8.2748,8.2772,8.2776,8.2789,8.2698,8.2728,8.2706,8.2716,8.2724,8.2766,8.2752,8.285,8.2863,8.2805,8.2832,8.2895,8.2998,8.29,8.2938,8.3256,8.3695,8.3742,8.3548,8.3347,8.3195,8.3166,8.3132,8.2962,8.2821,8.263,8.2588,8.2569,8.2573,8.2602,8.2612,8.2601,8.2564,8.2569,8.2549,8.2574,8.2531,8.2537,8.2546,8.2557,8.2284,8.1442,8.0904,8.0847,8.1221,8.2901,8.6613,9.0782,9.137,8.6978,8.4458,8.0625,8.042,8.1118,8.0705,8.1374,8.1105,8.1523,8.1944,8.297,8.2893,8.299,8.2832,8.3003,8.2923,8.3045,8.2935,8.3113,8.3104,8.3265,8.3188,8.3366,8.3266,8.3406,8.3351,8.3471,8.3472,8.361,8.3596,8.3705,8.373,8.3862,8.3914,8.4019,8.4067,8.4166,8.4214,8.4375,8.4413,8.4494,8.4571,8.4669,8.481,8.4901,8.502,8.5143,8.5256,8.536,8.5479,8.5576,8.5694,8.5784,8.5927,8.5996,8.6026,8.6034,8.6025,8.5999,8.5963,8.5729,8.5541,8.5256,8.4973,8.4654,8.4384,8.4114,8.3869,8.362,8.3502,8.3305,8.3182,8.3059,8.2992,8.287,8.2891,8.2806,8.2835,8.2774,8.2791,8.2711,8.2721,8.2684,8.2698,8.2604,8.2689,8.2642,8.2674,8.2614,8.2663,8.263,8.2663,8.2662,8.2668,8.2642,8.271,8.2648,8.2731,8.2697,8.2737,8.2734,8.278,8.2773,8.2761,8.2743,8.2759,8.2706,8.2797,8.2765,8.2788,8.2704,8.2735,8.2738,8.2742,8.2732,8.2789,8.2709,8.2747,8.2698,8.274,8.2674,8.2679,8.2668,8.2674,8.2663,8.2658,8.265,8.27,8.2644,8.2652,8.2689,8.2701,8.2679,8.2666,8.2736,8.2677,8.2688,8.2683,8.2695,8.2723,8.2693,8.2694,8.2669,8.2655,8.265,8.27,8.2774,8.2738,8.2726,8.2734,8.2896,8.2865,8.2785,8.299,8.3569,8.3765,8.3632,8.3416,8.3244,8.3079,8.3066,8.3077,8.2957,8.2783,8.2535,8.2498,8.2489,8.2478,8.2494,8.2471,8.2476,8.2449,8.2433,8.2415,8.2412,8.241,8.2406,8.2372,8.2312,8.1787,8.0955,8.0682,8.0736,8.1618,8.4101,8.8394,9.1243,8.9943,8.5414,8.1191,8.1094,8.1413,8.1287,8.167,8.1452,8.1447,8.1972,8.268,8.2938,8.2793,8.2772,8.2733,8.2813,8.2772,8.2889,8.2894,8.3009,8.2985,8.3091,8.3076,8.3193,8.3178,8.328,8.3307,8.3359,8.3373,8.3474,8.346,8.3562,8.3581,8.361,8.3716,8.3799,8.3877,8.3969,8.4042,8.4179,8.425,8.4377,8.4473,8.4599,8.4689,8.4838,8.4877,8.5006,8.5115,8.525,8.5376,8.5472,8.5586,8.5691,8.5802,8.5881,8.598,8.6014,8.5994,8.5947,8.5835,8.565,8.5436,8.5125,8.4809,8.453,8.4378,8.4123,8.3859,8.3665,8.3433,8.3236,8.3105,8.2991,8.287,8.2784,8.2739,8.2659,8.2579,8.2565,8.2533,8.252,8.2469,8.2492,8.2489,8.2476,8.2508,8.2464,8.2518,8.2532,8.2549,8.2513,8.2521,8.2546,8.2516,8.2534,8.2536,8.2566,8.2563,8.2557,8.2605,8.2585,8.2614,8.2629,8.2664,8.2671,8.2644,8.2638,8.2673,8.2635,8.2664,8.2635,8.2674,8.2611,8.2611,8.2611,8.2623,8.2591,8.259,8.2557,8.2527,8.2505,8.2539,8.2485,8.2499,8.247,8.2503,8.248,8.2466,8.2466,8.2481,8.2468,8.2515,8.2471,8.251,8.251,8.2505,8.2524,8.2507,8.2496,8.2474,8.2503,8.2517,8.2499,8.2533,8.2507,8.2522,8.2546,8.2544,8.2493,8.2492,8.2505,8.2501,8.2486,8.2509,8.2486,8.246,8.2466,8.2443,8.2444,8.2513,8.2562,8.2485,8.2469,8.2436,8.258,8.2565,8.2482,8.2616,8.3046,8.3455,8.3362,8.3097,8.2915,8.2826,8.2769,8.27,8.2558,8.2366,8.2171,8.2183,8.213,8.2148,8.2189,8.2156,8.2128,8.2099,8.2136,8.2142,8.2046,8.2067,8.2042,8.2063,8.1935,8.1249,8.0479,8.0339,8.0558,8.1652,8.4435,8.869,9.0205,9.0099,8.6204,8.1285,8.0198,8.0646,8.0842,8.0995,8.1163,8.1034,8.1624,8.2251,8.2347,8.2138,8.2311,8.216,8.2326,8.2269,8.2487,8.2462,8.2567,8.2657,8.2742,8.2709,8.2889,8.2903,8.3048,8.3052,8.32,8.3208,8.3366,8.3349,8.3478,8.3471,8.3583,8.3643,8.3715,8.3828,8.3985,8.4036,8.4063,8.4225,8.4307,8.4455,8.4524,8.4659,8.4798,8.4884,8.4967,8.5153,8.5243,8.5278,8.5441,8.5535,8.5655,8.5741,8.5865,8.5914,8.5922,8.603,8.6011,8.5834,8.5801,8.5579,8.5373,8.5138,8.4814,8.4548,8.4321,8.4099,8.3863,8.3671,8.3469,8.3348,8.3173,8.3145,8.3086,8.3009,8.2995,8.2984,8.2951,8.288,8.284,8.2845,8.2842,8.2903,8.2866,8.2856,8.2883,8.2909,8.2901,8.2866,8.2879,8.2911,8.2912,8.2977,8.2974,8.2975,8.3036,8.2997,8.3046,8.3115,8.3042,8.3082,8.3052,8.3113,8.3096,8.3153,8.3093,8.3127,8.3117,8.3127,8.3119,8.3188,8.3135,8.3172,8.3146,8.3215,8.3066,8.3093,8.3133,8.31,8.3075,8.312,8.3021,8.3083,8.3091,8.3103,8.3006,8.3083,8.3005,8.3041,8.3059,8.3045,8.3008,8.3092,8.3066,8.3076,8.313,8.3033,8.3084,8.3084,8.304,8.2994,8.3093,8.3045,8.306,8.3101,8.3081,8.3103,8.3131,8.3121,8.3096,8.3087,8.3048,8.3035,8.305,8.3069,8.3085,8.3038,8.3108,8.3067,8.3145,8.3219,8.3169,8.3144,8.3289,8.3331,8.3226,8.3279,8.3721,8.4191,8.416,8.3885,8.3708,8.3578,8.3507,8.3536,8.3479,8.3297,8.3119,8.2947,8.2904,8.2877,8.289,8.2913,8.2928,8.2842,8.2834,8.2844,8.289,8.2841,8.2868,8.2859,8.284,8.2541,8.1691,8.1282,8.1366,8.1981,8.365,8.7135,9.0609,9.0556,8.6832,8.2103,8.108,8.1563,8.1631,8.2118,8.2043,8.2384,8.3025,8.3396,8.3468,8.3329,8.3315,8.3346,8.3429,8.341,8.3435,8.354,8.3548,8.3622,8.368,8.3714,8.3778,8.3785,8.3841,8.3905,8.3989,8.4004,8.4075,8.408,8.4138,8.4228,8.4285,8.4338,8.4428,8.4476,8.4578,8.4645,8.4812,8.4873,8.4988,8.5102,8.5253,8.5346,8.5408,8.5561,8.5719,8.5829,8.5922,8.6071,8.6186,8.6328,8.6471,8.655,8.6628,8.6707,8.6791,8.6784,8.6798,8.669,8.6545,8.6295,8.606,8.5728,8.5423,8.5139,8.4814,8.4581,8.4459,8.4246,8.4029,8.39,8.3768,8.3604,8.3496,8.3469,8.3359,8.332,8.332,8.3272,8.3203,8.3228,8.3179,8.3217,8.3211,8.3222,8.3174,8.3217,8.3165,8.3164,8.3137,8.3145,8.3108,8.316,8.3136,8.3144,8.3147,8.3125,8.3144,8.3162,8.3121,8.3089,8.309,8.3142,8.3144,8.3165,8.3182,8.3181,8.3195,8.3198,8.3205,8.326,8.3208,8.3234,8.3188,8.3243,8.3259,8.3259,8.326,8.3235,8.3236,8.3237,8.3247,8.3232,8.3165,8.3239,8.3191,8.3168,8.3183,8.3151,8.3185,8.3184,8.3195,8.3231,8.323,8.3254,8.3222,8.3204,8.3216,8.3203,8.32,8.3208,8.3182,8.3236,8.3174,8.3177,8.3179,8.3185,8.3151,8.3089,8.3191,8.3151,8.3142,8.3123,8.317,8.315,8.3115,8.3161,8.3193,8.3176,8.3207,8.3242,8.3274,8.3247,8.3207,8.3241,8.3412,8.3352,8.3301,8.3512,8.3962,8.4292,8.4137,8.3889,8.3709,8.361,8.3615,8.356,8.34,8.3152,8.2989,8.2993,8.2988,8.2997,8.2997,8.2997,8.2976,8.296,8.2946,8.2975,8.2956,8.2924,8.2907,8.2913,8.2724,8.1896,8.1358,8.1317,8.1711,8.3288,8.682,9.0681,9.1194,8.7104,8.687,8.2323,8.0475,8.1511,8.114,8.2138,8.1603,8.2224,8.2612,8.3515,8.3243,8.3413,8.3198,8.3413,8.3293,8.3522,8.3376,8.3577,8.3466,8.3631,8.3521,8.3747,8.3676,8.3853,8.3811,8.3973,8.3953,8.4075,8.4002,8.411,8.4177,8.4277,8.4266,8.4397,8.4425,8.4579,8.4601,8.4742,8.4785,8.4892,8.5011,8.5068,8.5227,8.536,8.5493,8.564,8.5701,8.5864,8.5973,8.6072,8.6283,8.634,8.6424,8.6554,8.6667,8.6642,8.676,8.6737,8.669,8.6562,8.6444,8.6194,8.594,8.5563,8.5373,8.4977,8.4808,8.4506,8.4366,8.4107,8.4009,8.3775,8.3687,8.3569,8.3585,8.3451,8.3417,8.3384,8.3386,8.3307,8.3341,8.3249,8.3353,8.3332,8.3369,8.3308,8.3365,8.334,8.3364,8.331,8.3396,8.335,8.3389,8.3375,8.3429,8.3423,8.3473,8.3428,8.3429,8.3491,8.3448,8.3496,8.3536,8.3477,8.3529,8.3483,8.3535,8.3488,8.3513,8.354,8.3567,8.3532,8.3559,8.3558,8.3542,8.3526,8.3591,8.3499,8.3532,8.3495,8.3507,8.3445,8.3499,8.3542,8.3561,8.3522,8.3554,8.3549,8.3547,8.3549,8.3572,8.3615,8.3537,8.3586,8.3597,8.3565,8.3569,8.3589,8.363,8.3615,8.3612,8.3655,8.366,8.3607,8.3606,8.3615,8.3604,8.3668,8.3619,8.3612,8.3668,8.3632,8.3672,8.3652,8.3622,8.3635,8.3693,8.3684,8.3649,8.3667,8.3663,8.3697,8.3716,8.3712,8.3765,8.3818,8.3709,8.3727,8.3866,8.382,8.3809,8.4004,8.4373,8.4733,8.4698,8.4492,8.4303,8.4246,8.4115,8.4146,8.3978,8.3826,8.3588,8.3595,8.3579,8.3621,8.3613,8.3638,8.3562,8.3549,8.3552,8.3591,8.3549,8.3595,8.3538,8.354,8.349,8.2924,8.2096,8.1888,8.194,8.2993,8.5761,9.0371,9.2593,9.0208,8.5121,8.1149,8.1316,8.1931,8.1883,8.2397,8.2386,8.2299,8.2691,8.3488,8.3956,8.3844,8.3764,8.3741,8.3802,8.3855,8.3771,8.3908,8.3953,8.4025,8.4097,8.4122,8.4132,8.4222,8.4245,8.4286,8.4308,8.4331,8.4426,8.4525,8.4639,8.4675,8.4694,8.4741,8.481,8.4932,8.4992,8.5058,8.5143,8.5195,8.5263,8.5399,8.554,8.5699,8.5793,8.5886,8.5985,8.6038,8.6194,8.6324,8.643,8.6517,8.6639,8.6748,8.6826,8.6888,8.6896,8.6928,8.6843,8.6784,8.6554,8.634,8.6086,8.5737,8.5608,8.532,8.5072,8.4842,8.4601,8.4421,8.4205,8.4027,8.3926,8.3773,8.3637,8.3666,8.3566,8.3468,8.3457,8.3435,8.3438,8.3367,8.3397,8.3398,8.3394,8.3383,8.3349,8.3349,8.3359,8.3331,8.3358,8.3344,8.3428,8.3481,8.3433,8.3512,8.3478,8.3528,8.3508,8.3408,8.3547,8.3487,8.3534,8.3529,8.3559,8.3548,8.3525,8.3584,8.3571,8.3543,8.3555,8.3603,8.3632,8.3552,8.3586,8.3565,8.3564,8.3521,8.3537,8.3498,8.3517,8.3506,8.3506,8.3473,8.344,8.3492,8.3426,8.3503,8.3475,8.3493,8.3461,8.3521,8.3476,8.3518,8.352,8.3463,8.3539,8.3509,8.3534,8.3535,8.3527,8.3584,8.3541,8.3538,8.3579,8.3529,8.3553,8.3614,8.3651,8.3575,8.3674,8.3817,8.3798,8.3742,8.3914,8.4275,8.4618,8.4455,8.431,8.4152,8.4062,8.405,8.4032,8.3788,8.3726,8.3506,8.3473,8.3458,8.342,8.3411,8.3376,8.3403,8.3443,8.3421,8.3374,8.3357,8.3349,8.3429,8.3413,8.3199,8.2526,8.211,8.1918,8.1889,8.2789,8.5407,8.9991,9.2624,9.0889,8.5675,8.1168,8.0786,8.1574,8.1443,8.1844,8.2031,8.2074,8.2631,8.3363,8.3784,8.3795,8.3742,8.3674,8.3784,8.3695,8.3827,8.3873,8.3906,8.3833,8.4,8.409,8.4126,8.4071,8.4247,8.422,8.4315,8.4349,8.4403,8.4418,8.452,8.4564,8.4634,8.4699,8.4747,8.4784,8.495,8.5045,8.5153,8.5222,8.532,8.5418,8.5602,8.5659,8.5797,8.5882,8.5998,8.6142,8.6246,8.6402,8.6389,8.6451,8.6654,8.6731,8.675,8.6835,8.6847,8.6886,8.6735,8.6611,8.6343,8.6118,8.5739,8.5423,8.5104,8.4829,8.4533,8.436,8.4028,8.3963,8.3817,8.3671,8.3547,8.3441,8.3327,8.327,8.3196,8.3113,8.3083,8.3046,8.305,8.3027,8.3017,8.2958,8.3032,8.2986,8.2971,8.2946,8.2976,8.2939,8.2916,8.2957,8.2864,8.2973,8.29,8.2973,8.296,8.2933,8.3044,8.291,8.2884,8.3018,8.3022,8.3034,8.2988,8.2988,8.3055,8.3009,8.3036,8.3095,8.3019,8.3114,8.3029,8.3028,8.3022,8.3103,8.3064,8.3015,8.3067,8.2974,8.3033,8.2941,8.3022,8.2951,8.2992,8.2881,8.3012,8.3032,8.2999,8.2979,8.3018,8.3003,8.304,8.3034,8.3065,8.3093,8.3084,8.3201,8.3128,8.3066,8.3197,8.3269,8.3378,8.3353,8.3454,8.3483,8.3521,8.3426,8.3256,8.346,8.3537,8.3474,8.3541,8.3625,8.3633,8.3477,8.3731,8.4305,8.447,8.4252,8.3984,8.3894,8.3862,8.3758,8.3778,8.3711,8.3636,8.3383,8.3377,8.3402,8.3357,8.3331,8.3446,8.339,8.3429,8.3545,8.3381,8.34,8.3422,8.3359,8.3542,8.3177,8.2158,8.1895,8.199,8.2254,8.3491,8.647,9.0754,9.2527,8.9911,8.5154,8.1739,8.2196,8.2155,8.2043,8.2581,8.2341,8.2932,8.3784,8.4098,8.4061,8.4091,8.4179,8.4,8.4006,8.3859,8.4047,8.4131,8.4197,8.4116,8.4114,8.3964,8.3926,8.3996,8.3971,8.3982,8.3969,8.3868,8.4006,8.4205,8.4336,8.4323,8.4373,8.4362,8.4303,8.4419,8.4562,8.4587,8.4641,8.4934,8.5146,8.5128,8.5174,8.527,8.5381,8.5563,8.5727,8.5633,8.5527,8.5731,8.5697,8.5883,8.5957,8.6019,8.6005,8.6164,8.6061,8.596,8.5869,8.554,8.5159,8.4831,8.4689,8.4364,8.3965,8.3764,8.3387,8.3224,8.3018,8.2576,8.24,8.2422,8.2268,8.2307,8.2256,8.2045,8.1878,8.1854,8.1691,8.1774,8.1623,8.1678,8.1759,8.1745,8.1552,8.1529,8.1386,8.1457,8.143,8.1327,8.1399,8.1338,8.1459,8.1374,8.1347,8.1363,8.1439,8.1423,8.1624,8.1582,8.1639,8.1557,8.1493,8.1641,8.1831,8.1738,8.1798,8.1799,8.1933,8.1806,8.159,8.1614,8.1646,8.1698,8.176,8.1674,8.1761,8.1683,8.1619,8.1677,8.1598,8.1877,8.2004,8.1918,8.1798,8.1739,8.1917,8.1955,8.2119,8.2166,8.2136,8.2041,8.205,8.2061,8.2158,8.2275,8.2183,8.2276,8.2295,8.2289,8.2378,8.2255,8.233,8.247,8.2436,8.2632,8.2566,8.2636,8.2893,8.2931,8.2897,8.3025,8.3376,8.3744,8.3861,8.3637,8.3382,8.3324,8.3226,8.3308,8.3159,8.299,8.28,8.2762,8.2761,8.285,8.2805,8.2749,8.2785,8.2768,8.2755,8.279,8.2639,8.2608,8.2649,8.271,8.2678,8.2058,8.1358,8.1386,8.1578,8.2795,8.5589,8.9708,9.1604,8.8774,8.3855,7.9917,7.971,8.0533,8.0553,8.0986,8.1343,8.1404,8.2008,8.281,8.3093,8.307,8.3048,8.3078,8.3237,8.3235,8.3249,8.3222,8.3294,8.334,8.3473,8.3524,8.3574,8.3391,8.3626,8.3747,8.3788,8.3794,8.3905,8.3944,8.383,8.3966,8.4086,8.4196,8.4236,8.4338,8.4361,8.4491,8.454,8.4649,8.4678,8.4731,8.4756,8.4852,8.5038,8.5135,8.5168,8.541,8.559,8.576,8.5795,8.6006,8.613,8.6201,8.6314,8.6418,8.6379,8.6288,8.6198,8.5993,8.5876,8.5663,8.5236,8.4995,8.4718,8.441,8.4315,8.3882,8.3691,8.3549,8.3171,8.3188,8.3033,8.3012,8.2781,8.2702,8.2645,8.2648,8.2656,8.2675,8.2698,8.2641,8.2478,8.2308,8.2425,8.2332,8.2263,8.2226,8.226,8.2256,8.2259,8.2347,8.2319,8.2376,8.226,8.2308,8.2263,8.232,8.234,8.236,8.2381,8.2434,8.2446,8.2296,8.2497,8.249,8.2433,8.2315,8.2303,8.2359,8.2459,8.2356,8.2367,8.2489,8.2418,8.2313,8.234,8.2274,8.2324,8.2389,8.2285,8.2185,8.2148,8.2123,8.219,8.2155,8.2136,8.2155,8.2193,8.2228,8.2097,8.2187,8.215,8.2005,8.2133,8.2095,8.1978,8.1923,8.1983,8.2017,8.2294,8.2158,8.2219,8.2105,8.1761,8.196,8.188,8.1867,8.2037,8.1954,8.1908,8.1784,8.1869,8.2091,8.2207,8.2249,8.1916,8.2006,8.2434,8.2823,8.301,8.276,8.2714,8.2433,8.2336,8.2391,8.2468,8.2133,8.181,8.1863,8.1454,8.1857,8.2136,8.1975,8.1705,8.1777,8.205,8.1829,8.1911,8.1895,8.2179,8.1667,8.1782,8.1476,8.0687,8.0596,8.0991,8.2373,8.4573,8.8799,9.1209,8.9095,8.3603,7.9574,8.0016,8.0449,8.0178,8.0691,8.1185,8.0981,8.1319,8.1554,8.2016,8.2531,8.2358,8.2542,8.1991,8.1817,8.1809,8.2406,8.27,8.2549,8.2343,8.2667,8.2894,8.2168,8.1744,8.2566,8.3636,8.3992,8.4082,8.41,8.3843,8.4167,8.4386,8.4364,8.4544,8.4683,8.4759,8.5026,8.5189,8.546,8.5453,8.5639,8.5994,8.5909,8.6028,8.5988,8.5816,8.638,8.6565,8.5517,8.5248,8.5849,8.6133,8.6484,8.6729,8.6788,8.7079,8.6959,8.685,8.67,8.6432,8.6031,8.5839,8.556,8.5037,8.4524,8.4105,8.369,8.3593
