7.0534,7.0445,7.0706,7.0796,7.0746,7.0734,7.0644,7.0761,7.1279,7.1455,7.1296,7.1185,7.1141,7.0987,7.0858,7.0708,7.0546,7.0594,7.0647,7.0514,7.0531,7.0418,7.0282,7.0304,7.0222,7.0338,7.0197,7.0097,6.8639,6.7171,6.6777,6.7854,7.1542,7.5539,8.1159,8.4888,8.691,8.4888,7.9644,7.4005,7.2901,7.2219,7.1456,7.0971,7.069,7.0936,7.0777,7.0943,7.0747,7.1003,7.0941,7.1155,7.0674,7.0646,7.0643,7.0987,7.0727,7.0953,7.0943,7.1213,7.1071,7.0939,7.1077,7.1469,7.1131,7.1298,7.086,7.0953,7.1105,7.1404,7.1584,7.1875,7.1755,7.1648,7.1526,7.1655,7.1866,7.202,7.2215,7.2405,7.2522,7.2783,7.2746,7.3082,7.3376,7.3637,7.3851,7.3929,7.4358,7.4391,7.4743,7.5017,7.5333,7.5423,7.5704,7.6016,7.6118,7.6165,7.6173,7.6131,7.5867,7.5731,7.5228,7.4737,7.4171,7.3752,7.3384,7.2844,7.2525,7.2133,7.1945,7.1623,7.1186,7.0913,7.0966,7.0927,7.0919,7.0769,7.0513,7.0399,7.0624,7.0691,7.0475,7.0271,7.0352,7.0373,7.0499,7.0582,7.0582,7.0424,7.0346,7.0387,7.0459,7.0302,7.0404,7.0494,7.048,7.0359,7.0291,7.0175,7.0422,7.0435,7.0512,7.0382,7.0373,7.035,7.0438,7.0534,7.0618,7.0471,7.0539,7.0408,7.0485,7.037,7.0328,7.0502,7.0735,7.0861,7.072,7.0597,7.0462,7.0186,7.0258,7.0268,7.0272,7.02,7.0434,7.0571,7.0511,7.0447,7.0402,7.0291,7.0359,7.0533,7.0419,7.0411,7.0423,7.0359,7.0261,7.0201,7.0202,7.04,7.0431,7.0449,7.0379,7.0388,7.0378,7.0459,7.0708,7.063,7.047,7.0264,7.0241,7.0314,7.0334,7.0329,7.0407,7.0553,7.0486,7.0364,7.0375,7.068,7.0733,7.0458,7.0293,7.0132,7.0099,7.0288,7.0466,7.0416,7.0573,7.0733,7.0617,7.0589,7.044,7.0267,7.0355,7.0361,7.0345,7.0667,7.064,7.0841,7.085,7.0716,7.0683,7.0921,7.1015,7.1086,7.0991,7.0955,7.0896,7.0677,7.0435,7.0514,7.0677,7.0413,7.0423,7.0431,7.026,7.0311,7.0208,7.0228,7.0402,7.0367,7.0055,6.8765,6.6832,6.6408,6.7551,7.0931,7.516,8.0285,8.4394,8.6888,8.5189,7.999,7.408,7.2216,7.194,7.1385,7.1078,7.0769,7.1099,7.1036,7.1049,7.092,7.0878,7.0663,7.0816,7.1014,7.087,7.0453,7.0624,7.0699,7.0928,7.0932,7.1081,7.0866,7.1116,7.1119,7.1167,7.1267,7.1288,7.0946,7.1065,7.1317,7.1527,7.132,7.148,7.1462,7.1635,7.1701,7.1773,7.19,7.2011,7.2285,7.2594,7.2769,7.2891,7.3071,7.296,7.3194,7.3606,7.3567,7.3844,7.4188,7.4529,7.4975,7.5223,7.5339,7.5448,7.578,7.5796,7.5947,7.5978,7.6083,7.6034,7.5945,7.5832,7.5346,7.5035,7.4594,7.4043,7.3489,7.2742,7.231,7.1965,7.1763,7.1421,7.1157,7.0898,7.0841,7.0689,7.066,7.0827,7.0914,7.0757,7.0646,7.0547,7.0446,7.0202,7.0351,7.0555,7.065,7.0466,7.0366,7.038,7.0575,7.0937,7.0967,7.084,7.0576,7.0219,7.0168,7.0274,7.023,7.0445,7.0515,7.0535,7.0583,7.0693,7.0653,7.0672,7.0662,7.0573,7.0506,7.0661,7.0851,7.0888,7.0759,7.0492,7.0652,7.0736,7.0713,7.0533,7.0345,7.055,7.0565,7.0462,7.0643,7.0567,7.044,7.0405,7.035,7.0477,7.0485,7.0286,7.0574,7.0652,7.0424,7.0282,7.0381,7.0517,7.0572,7.0424,7.0445,7.0502,7.0471,7.0388,7.0528,7.0238,7.0325,7.0487,7.0423,7.0388,7.0292,7.0338,7.0414,7.0358,7.0245,7.0166,7.0102,7.0457,7.051,7.0585,7.0416,7.0414,7.0388,7.0266,7.021,7.0074,7.0113,7.0456,7.0433,7.0355,7.021,7.0027,6.9902,6.9819,7.0007,7.0179,7.0373,7.0551,7.07,7.0676,7.0434,7.0357,7.0445,7.0567,7.0833,7.0788,7.0486,7.0627,7.0686,7.0606,7.0337,7.0056,6.9843,6.9794,6.9971,7.0209,7.0047,6.9974,6.9811,6.9757,6.9946,6.997,6.9672,6.7944,6.6583,6.6428,6.7661,7.0993,7.4931,8.0082,8.3628,8.5422,8.2932,7.7652,7.2615,7.1347,7.0925,7.0466,7.0265,7.0203,7.0605,7.0535,7.059,7.0446,7.0706,7.0627,7.1036,7.05,7.0631,7.0398,7.041,7.0081,7.0034,7.006,7.0258,7.0166,7.0245,7.03,7.048,7.046,7.0912,7.0972,7.1015,7.108,7.109,7.1183,7.1533,7.1654,7.1289,7.1288,7.1445,7.146,7.1561,7.1605,7.182,7.1993,7.2239,7.2692,7.308,7.3323,7.346,7.3472,7.3787,7.3991,7.429,7.458,7.5015,7.5525,7.5361,7.5575,7.5689,7.5906,7.6095,7.6092,7.6127,7.6269,7.6355,7.6265,7.5639,7.5081,7.4353,7.4101,7.3776,7.3231,7.2673,7.2113,7.1683,7.1749,7.161,7.1063,7.0935,7.0957,7.0878,7.0734,7.0825,7.0711,7.0517,7.0566,7.0453,7.0354,7.0266,7.0372,7.0403,7.0469,7.0566,7.0846,7.0596,7.0508,7.0182,7.0206,7.016,7.0247,7.0233,7.0362,7.0423,7.048,7.0333,7.045,7.0519,7.0364,7.0442,7.0511,7.0407,7.0417,7.0333,7.0417,7.052,7.0739,7.0751,7.0736,7.0532,7.039,7.0251,7.0291,7.064,7.0576,7.0587,7.039,7.0491,7.032,7.0473,7.0437,7.0332,7.036,7.0353,7.0165,7.0218,7.0548,7.0596,7.0424,7.0442,7.0359,7.0313,7.0397,7.0461,7.0395,7.0565,7.0616,7.0548,7.0518,7.0479,7.0331,7.0376,7.0399,7.0358,7.0238,7.0328,7.0316,7.0445,7.0666,7.0502,7.0197,7.0187,7.0308,7.0488,7.0476,7.0585,7.0404,7.0411,7.0566,7.069,7.0666,7.0654,7.0769,7.1023,7.1373,7.1443,7.1292,7.1403,7.1432,7.1318,7.0977,7.0658,7.0179,7.0241,7.0357,7.0377,7.0384,7.0185,7.0259,7.0278,7.0369,7.0284,7.0218,6.9288,6.7519,6.6848,6.7749,7.045,7.4195,7.8745,8.2814,8.4827,8.3518,7.8921,7.3642,7.1983,7.134,7.1071,7.0899,7.05,7.0684,7.059,7.0799,7.0556,7.0758,7.0778,7.1075,7.0673,7.0816,7.077,7.0923,7.0901,7.1086,7.1173,7.133,7.13,7.1275,7.1159,7.1251,7.1109,7.1191,7.1226,7.1393,7.1525,7.1771,7.1902,7.1713,7.1541,7.1695,7.1832,7.2023,7.2239,7.2276,7.2447,7.2858,7.3021,7.3058,7.3073,7.3194,7.3438,7.3799,7.4149,7.4309,7.4468,7.4785,7.5318,7.5614,7.5806,7.5869,7.5975,7.6226,7.6434,7.636,7.6259,7.6056,7.6032,7.5729,7.5029,7.4676,7.4297,7.3951,7.3608,7.2972,7.2588,7.2254,7.1731,7.1428,7.1331,7.1138,7.1082,7.1009,7.1042,7.0784,7.0627,7.0522,7.0502,7.0538,7.0628,7.0555,7.0757,7.0564,7.0487,7.0795,7.0534,7.0196,7.0267,7.0405,7.0642,7.0509,7.0564,7.0533,7.0639,7.0601,7.0551,7.0574,7.0493,7.0395,7.0701,7.0716,7.0632,7.0615,7.0566,7.0593,7.0738,7.078,7.0979,7.1015,7.082,7.0617,7.0605,7.0495,7.0427,7.0638,7.0799,7.0557,7.0396,7.0385,7.0383,7.052,7.0743,7.062,7.0458,7.036,7.0369,7.0494,7.0459,7.0673,7.067,7.069,7.0302,7.0082,7.0274,7.0219,7.0453,7.0517,7.052,7.0598,7.0784,7.062,7.0393,7.0308,7.0219,7.0387,7.0487,7.0484,7.0553,7.0825,7.0956,7.1189,7.1436,7.1493,7.1376,7.1377,7.1233,7.0986,7.0633,7.0276,7.0227,7.0431,7.0663,7.0573,7.0584,7.0268,7.0137,7.0122,7.0149,7.0273,7.0273,6.9585,6.7995,6.7107,6.7508,6.9812,7.3393,7.7548,8.2107,8.469,8.5509,8.3269,7.8317,7.3335,7.1967,7.147,7.0833,7.0441,7.0391,7.0704,7.0633,7.073,7.0797,7.0936,7.0777,7.0915,7.0844,7.0923,7.0763,7.0838,7.0847,7.0793,7.075,7.0984,7.0896,7.1059,7.1127,7.1152,7.1277,7.1457,7.1101,7.1013,7.118,7.1392,7.1439,7.1554,7.1573,7.1835,7.1828,7.1989,7.1951,7.2161,7.2212,7.2589,7.2831,7.3057,7.301,7.3323,7.3578,7.3877,7.4367,7.473,7.4661,7.4913,7.5102,7.5288,7.5619,7.5961,7.6292,7.6342,7.6281,7.6071,7.6072,7.5759,7.5256,7.492,7.4491,7.3933,7.3543,7.3293,7.2683,7.2241,7.1805,7.1418,7.1309,7.1166,7.1033,7.1012,7.0855,7.1111,7.1153,7.0686,7.0325,7.0043,7.0335,7.0199,7.0287,7.0334,7.03,7.045,7.0368,7.0339,7.0212,7.0241,7.0321,7.0245,7.0437,7.0469,7.0664,7.0492,7.0735,7.0422,7.0296,7.033,7.0322,7.05,7.0497,7.0378,7.0436,7.0641,7.0722,7.0321,7.0304,7.0216,7.0247,7.0369,7.049,7.066,7.0573,7.052,7.0379,7.0556,7.0666,7.0447,7.0345,7.03,7.0268,7.0235,7.017,7.0293,7.0458,7.0537,7.0524,7.0283,7.0132,7.0178,7.0148,7.0276,7.043,7.0343,7.0462,7.0476,7.0406,7.0176,7.0322,7.0336,7.0392,7.0224,7.018,7.0255,7.0208,7.0299,7.027,7.0292,7.0138,7.0095,7.0333,7.0408,7.0382,7.0344,7.0259,7.0319,7.0448,7.0376,7.0569,7.0615,7.0483,7.0901,7.1159,7.1315,7.1341,7.1175,7.1022,7.0653,7.0338,7.0124,7.0232,7.0281,7.0248,7.025,7.0232,7.0239,7.0372,7.032,7.0398,7.0228,7.0115,6.95,6.782,6.6808,6.697,6.8954,7.2758,7.7147,8.2202,8.5003,8.5897,8.24,7.9422,7.3986,7.1913,7.1861,7.0994,7.0835,7.037,7.0962,7.0639,7.0869,7.0575,7.0823,7.0744,7.0824,7.0547,7.0849,7.0438,7.0648,7.0476,7.0699,7.0573,7.0896,7.0673,7.1019,7.0929,7.1113,7.0922,7.1255,7.1125,7.096,7.1007,7.1163,7.1325,7.1521,7.1522,7.164,7.1701,7.1706,7.17,7.2147,7.2122,7.2191,7.2205,7.2499,7.2805,7.3256,7.3416,7.3644,7.3872,7.4274,7.4485,7.4827,7.5193,7.5121,7.5048,7.5417,7.6007,7.6084,7.6084,7.6039,7.5983,7.5784,7.5629,7.5082,7.4817,7.4084,7.3794,7.3164,7.2481,7.2138,7.1767,7.1691,7.158,7.1313,7.0858,7.0726,7.0572,7.065,7.0603,7.0621,7.0569,7.0449,7.0433,7.044,7.0358,7.0336,7.0306,7.0303,7.0406,7.0312,7.0184,7.0263,7.0363,7.0151,7.027,7.0172,7.0222,7.0299,7.0453,7.0663,7.0622,7.0262,7.0363,7.0423,7.0488,7.0226,7.0397,7.0272,7.0581,7.0552,7.0416,7.0334,7.0348,7.0437,7.0268,7.0236,7.031,7.0334,7.0448,7.0394,7.0412,7.0497,7.0668,7.065,7.0452,7.0236,7.0151,7.0256,7.0386,7.0059,7.0074,7.0059,7.0283,7.0402,7.0426,7.0144,7.0191,7.0005,7.0243,7.0331,7.0284,7.0188,7.029,7.0419,7.0297,7.0335,7.041,7.0146,7.0065,7.0006,7.0116,6.9917,7.0103,7.0201,7.0087,7.0245,7.0112,6.9941,7.0204,7.0364,7.0266,7.0244,7.0287,7.0108,7.0116,7.029,7.036,7.0568,7.0506,7.0118,6.9865,6.9926,6.9996,7.0111,7.0312,7.0328,7.0225,7.0335,7.0284,7.0314,7.0299,7.0289,7.0401,7.0677,7.0698,7.0694,7.0618,7.0904,7.0944,7.1391,7.1247,7.1122,7.1015,7.0652,7.0533,7.0273,7.0128,7.011,7.0125,7.0102,7.0198,7.0076,6.993,6.9914,7.0088,7.039,7.0118,6.9063,6.7008,6.6311,6.6851,6.9478,7.342,7.8394,8.3517,8.6336,8.6127,8.1868,7.5664,7.362,7.2183,7.1585,7.0902,7.0258,7.0402,7.0511,7.0795,7.0654,7.0718,7.0502,7.0448,7.0383,7.0473,7.0447,7.039,7.0343,7.0637,7.0548,7.0594,7.0543,7.064,7.0432,7.0665,7.062,7.1053,7.1022,7.1041,7.1058,7.1162,7.1123,7.1351,7.146,7.1266,7.115,7.1362,7.1504,7.1835,7.1945,7.202,7.222,7.2262,7.23,7.2521,7.2758,7.3099,7.3471,7.3817,7.4006,7.4373,7.4673,7.4914,7.4975,7.5105,7.5466,7.5483,7.5707,7.5736,7.5841,7.5794,7.5814,7.5426,7.5083,7.4898,7.4338,7.3697,7.3147,7.2666,7.224,7.1905,7.1649,7.1442,7.125,7.1105,7.1088,7.0687,7.0521,7.0325,7.0177,7.0044,7.0464,7.0412,7.0305,7.0226,7.0256,7.0075,7.0086,7.0218,7.0406,7.0419,7.044,7.0358,7.0023,6.9956,7.012,7.0086,7.0013,7.0033,7.014,7.0187,7.0491,7.0379,7.014,7.0188,7.0351,7.0082,7.0057,7.005,7.0135,7.042,7.0357,7.037,7.0239,7.0013,7.0302,7.031,7.029,7.0022,6.9946,6.9899,6.9876,7.0019,7.004,6.9983,7.0117,7.0249,7.0197,7.0091,7.0101,7.0188,7.0286,7.0195,7.0101,7.014,6.9967,6.9999,6.9999,7.0046,6.9881,6.9866,6.9965,6.9888,6.969,6.991,6.9867,6.9946,6.995,6.9742,6.9694,6.971,6.998,7.0116,7.0052,6.993,7.0057,7.019,7.0085,6.9857,6.9778,6.9743,6.9805,6.9851,6.9765,6.9756,6.9754,6.9869,6.9743,6.9776,6.9638,6.9791,6.9878,7.0028,6.9955,6.9978,6.9895,6.9995,7.0103,6.9825,6.9742,7.01,6.9894,6.9805,6.9646,6.9556,6.9598,6.9651,6.984,6.9874,6.9857,6.9831,6.9955,6.9764,6.9727,6.9805,6.9902,6.9996,7.0232,7.0286,7.022,7.0461,7.0604,7.0587,7.0299,7.0264,7.0472,7.0297,7.0182,7.0047,6.971,6.9578,6.962,6.9629,6.9631,6.9555,6.9627,6.957,6.9564,6.9618,6.9582,6.9151,6.7538,6.6486,6.6544,6.8049,7.1824,7.6012,8.1385,8.4797,8.5785,8.287,7.6737,7.2497,7.1061,7.0639,7.028,7.0244,7.005,7.0307,7.0203,7.0243,6.9897,6.9822,6.9822,7.0057,7.0033,7.0226,7.019,7.0247,7.0139,7.0104,7.0072,7.0021,7.0022,7.0246,7.0185,7.034,7.0469,7.075,7.0803,7.0713,7.0816,7.0758,7.0666,7.0589,7.0681,7.0673,7.0823,7.0935,7.1183,7.1395,7.1514,7.1833,7.1841,7.1966,7.2149,7.2543,7.2704,7.2834,7.3122,7.3401,7.3817,7.4107,7.415,7.4481,7.4619,7.4946,7.515,7.5256,7.5404,7.547,7.5419,7.5136,7.4886,7.4352,7.4062,7.3594,7.2933,7.2721,7.2313,7.1978,7.1595,7.1093,7.091,7.0557,7.041,7.0294,7.0005,6.9867,6.9779,6.9668,6.9752,7.0108,6.9938,6.9461,6.9499,6.9476,6.9435,6.928,6.9497,6.9505,6.9496,6.952,6.9547,6.9321,6.935,6.9416,6.9696,6.9591,6.9546,6.9533,6.9629,6.956,6.9542,6.9487,6.9556,6.961,6.9856,6.9736,6.9923,6.9535,6.9356,6.9465,6.942,6.9408,6.9468,6.9579,6.9619,6.9545,6.9667,6.9678,6.9447,6.9633,6.9367,6.9316,6.9632,6.9837,6.9771,6.9584,6.9569,6.9468,6.9324,6.9419,6.9611,6.9548,6.9618,6.944,6.941,6.9354,6.9501,6.9429,6.9398,6.9465,6.9647,6.9431,6.9502,6.9529,6.9619,6.9632,6.949,6.9488,6.9451,6.9801,6.9654,6.9506,6.9194,6.9372,6.9514,6.9383,6.9515,6.9449,6.9329,6.9622,6.9498,6.9511,6.949,6.9434,6.9575,6.9854,6.9592,6.9525,6.963,6.9527,6.9798,6.9635,6.9346,6.926,6.9568,6.9546,6.9713,6.9721,6.9531,6.941,6.9431,6.9603,6.972,6.9782,6.9797,7.0013,7.0059,7.0082,6.9982,7.0149,7.029,7.039,7.0314,7.0334,7.0274,7.0066,7.0177,6.9767,6.9398,6.944,6.949,6.9524,6.9514,6.9416,6.9426,6.9781,6.9755,6.9797,6.9567,6.8358,6.6767,6.6271,6.7174,6.986,7.3625,7.8262,8.2289,8.4784,8.3381,7.8739,7.3219,7.1335,7.0698,7.0164,7.0165,6.9705,7.0088,7.0022,7.0164,7.0181,7.0301,7.0147,7.0114,7.004,7.0064,6.9949,7.0141,7.0144,7.0295,7.0158,7.0247,7.0265,7.049,7.046,7.0423,7.0473,7.0711,7.0459,7.0383,7.0539,7.0688,7.083,7.0997,7.1077,7.1153,7.1202,7.1137,7.1265,7.1296,7.1458,7.1658,7.2014,7.2268,7.2476,7.2452,7.2752,7.278,7.3151,7.3756,7.388,7.3804,7.4052,7.4173,7.4581,7.504,7.5343,7.5499,7.5515,7.547,7.5463,7.5456,7.523,7.4781,7.4749,7.4349,7.3914,7.3068,7.259,7.2241,7.1881,7.1497,7.1032,7.0648,7.043,7.0364,7.0136,7.0075,7.0159,6.9904,7.0066,6.9995,6.9939,6.9838,6.9872,6.9688,6.9569,6.9524,6.9573,6.9758,6.9875,6.9814,6.972,6.9621,6.9591,6.9702,6.956,6.96,6.9597,6.98,6.9767,6.9753,6.9769,6.9802,6.9819,6.9751,6.9807,6.9666,6.9732,6.98,6.985,6.994,6.9812,6.9813,6.9722,6.9993,6.999,6.9814,6.9614,6.9626,6.9716,6.9728,6.9596,6.9605,6.959,6.9569,6.9763,6.9541,6.9709,6.9701,6.9549,6.9632,6.9542,6.9441,6.9445,6.957,6.9763,6.9629,6.943,6.9549,6.9658,6.9712,6.9623,6.9468,6.9524,6.9494,6.9393,6.9497,6.9384,6.94,6.9533,6.9702,6.9641,6.955,6.9347,6.9416,6.9588,6.9741,6.9561,6.9372,6.9249,6.9687,6.971,6.9812,6.9741,6.9645,6.9456,6.925,6.9417,6.9355,6.934,6.9516,6.9464,6.9334,6.9138,6.9315,6.9425,6.9562,6.9605,6.9358,6.9547,6.9469,6.9556,6.9475,6.9354,6.9539,6.9465,6.9519,6.9715,6.9784,6.9688,6.9511,6.9485,6.968,6.9773,6.9965,6.9943,6.9972,7.0069,6.9978,6.9932,6.9942,6.9761,6.9743,6.9515,6.9172,6.909,6.9156,6.9304,6.9521,6.9429,6.9214,6.9139,6.8868,6.7179,6.5809,6.5809,6.7389,7.1286,7.5392,8.0597,8.3686,8.5276,8.4248,7.9962,7.3828,7.15,7.0774,7.0335,7.0219,6.9623,6.9698,6.9692,6.9835,6.9422,6.9642,6.9504,6.9645,6.95,6.9597,6.9488,6.964,6.9601,6.9741,6.9933,6.9862,6.9642,6.9827,6.9804,7.0108,7.0267,7.0303,7.042,7.0255,7.0206,7.015,7.0128,7.0231,7.0412,7.0678,7.0818,7.0932,7.0767,7.0745,7.0906,7.1248,7.1242,7.142,7.1616,7.1926,7.2076,7.2672,7.2949,7.3154,7.3255,7.343,7.3766,7.3894,7.4028,7.4215,7.4534,7.4642,7.4805,7.4893,7.514,7.5088,7.4946,7.459,7.4253,7.3787,7.3194,7.2873,7.2314,7.1804,7.141,7.104,7.0652,7.0309,7.0249,7.0085,7.0037,6.9945,6.9949,6.979,6.9627,6.9663,6.9936,7.0087,6.9747,6.9582,6.9549,6.9491,6.9418,6.9399,6.9355,6.9415,6.9512,6.9465,6.9473,6.9588,6.9823,6.9623,6.9738,6.9701,6.9774,6.9883,6.9857,6.954,6.9645,6.9704,6.9724,6.9832,6.9975,6.9937,6.9951,6.9911,6.9843,6.983,6.9753,6.9595,6.9714,6.9757,6.9924,6.9946,6.9758,6.9654,6.9732,6.997,6.991,7.0015,7.0057,6.9687,7.0039,6.9969,6.9688,6.9688,6.9545,6.9528,6.966,6.9571,6.9544,6.97,6.9767,6.9762,6.9797,6.9724,6.9773,6.9764,6.9697,6.9758,6.9724,6.9544,6.9698,6.9769,6.983,6.9803,6.9675,6.9663,6.9698,6.9705,6.9567,6.9434,6.9458,6.9654,6.9685,6.9687,6.9734,6.9797,6.9847,6.9673,6.9707,6.9729,6.9853,6.9703,6.9579,6.9403,6.953,6.9627,6.9679,6.9701,6.9698,6.9792,6.9751,6.984,6.982,6.9724,6.9615,6.9769,6.9838,6.9737,6.9685,6.9587,6.9703,6.9999,7.0137,7.0229,7.0112,6.9958,7.017,7.0319,7.0492,7.0451,7.0292,7.0529,7.0421,7.009,6.9902,6.9778,6.9744,6.9729,6.9586,6.9648,6.966,6.967,6.956,6.9791,6.9765,6.9668,6.891,6.7046,6.5989,6.595,6.6767,7.0428,7.4657,8.0099,8.4079,8.6362,8.4338,7.9403,7.3866,7.1731,7.122,7.0533,7.0335,7.0241,7.0513,7.0367,7.0551,7.0221,7.0218,7.0131,7.0353,7.0232,7.0297,7.0135,7.0374,7.0372,7.0585,7.0334,7.0403,7.0218,7.0443,7.0462,7.0584,7.0729,7.0718,7.0621,7.0721,7.0739,7.0977,7.0992,7.1037,7.1237,7.1384,7.1351,7.138,7.1455,7.1693,7.211,7.2188,7.2166,7.2217,7.2217,7.2389,7.2714,7.3186,7.3426,7.3497,7.3707,7.4146,7.4538,7.4822,7.503,7.517,7.534,7.531,7.5636,7.5502,7.562,7.5411,7.5397,7.5158,7.475,7.4234,7.3903,7.3393,7.2895,7.2307,7.1956,7.1723,7.1536,7.1139,7.0906,7.0752,7.0676,7.059,7.0558,7.0351,7.0065,7.0019,7.0163,7.0123,7.0072,6.9963,6.9882,6.9842,6.9921,6.9845,6.984,6.9895,7.024,7.0164,6.9965,7.0007,7.0136,7.0099,7.0056,7.0134,7.0059,7.0051,7.03,7.0149,7.0139,7.0121,7.004,6.9958,7.0119,7.019,7.0095,7.0097,7.0247,7.0305,7.0141,7.0162,7.0217,7.0409,7.028,7.0258,7.0273,7.0184,7.004,7.0116,7.002,6.9939,6.9917,7.0011,6.9995,7.0189,7.0187,7.0014,6.9916,7.0009,7.0212,7.0415,7.0068,7.0001,6.9911,6.9973,7.0017,7.0225,6.9822,6.991,6.9945,7.0069,7.0118,7.0036,6.9905,6.9951,6.989,6.9794,6.9867,6.9947,7.0089,7.0154,7.0194,7.0023,7.0105,7.0021,7.0136,6.9929,6.9792,7.0022,6.9998,6.9933,6.9921,7.0008,7.006,7.0029,7.0042,6.9997,6.9932,6.9986,7.0094,7.0209,7.0229,6.9978,6.9821,6.9854,7.0025,7.0227,7.0127,7.0008,7.0214,7.0578,7.0699,7.0463,7.019,7.02,7.0625,7.0801,7.0739,7.04,7.0552,7.0552,7.0533,7.0453,7.0204,7.0141,7.017,7.0194,7.0089,6.992,6.9718,6.9698,6.9781,6.9847,6.9846,6.9424,6.8645,6.6989,6.6269,6.701,6.9755,7.3793,7.8999,8.3451,8.6082,8.518,8.058,7.4594,7.2063,7.157,7.0816,7.0527,7.034,7.0778,7.0522,7.0523,7.0235,7.0283,7.0177,7.0509,7.0252,7.0275,7.0151,7.042,7.0445,7.0668,7.0481,7.0755,7.0555,7.0422,7.033,7.0543,7.0723,7.0781,7.0759,7.0955,7.0825,7.089,7.0997,7.1106,7.1172,7.1343,7.135,7.146,7.1513,7.1478,7.153,7.1872,7.2155,7.2444,7.2566,7.2587,7.3005,7.3241,7.364,7.399,7.4103,7.4152,7.4205,7.4509,7.4884,7.4981,7.5257,7.5787,7.5935,7.5802,7.5636,7.5379,7.5338,7.5198,7.4827,7.4234,7.3905,7.336,7.3056,7.2594,7.2475,7.1884,7.1552,7.1097,7.0925,7.0717,7.0484,7.0403,7.0287,7.0205,7.0212,6.9987,7.0079,7.029,7.03,7.0058,6.9984,6.9826,6.9846,6.9899,6.9909,6.9777,6.9901,7.0043,7.0191,7.0086,7.0081,6.988,6.995,7.0073,6.9982,6.9892,7.0206,7.0081,7.0027,7.0052,7.005,6.9918,6.9945,6.9903,7.0029,6.9996,7.0001,7.005,7.0191,7.0316,7.034,7.0038,6.9985,6.9951,6.9872,6.9761,6.9774,6.9912,7.0138,7.0234,7.0467,7.005,6.9984,6.999,6.9819,6.9776,6.9738,6.9834,6.9839,6.9959,6.9911,6.9998,6.9924,6.9912,6.9984,6.9942,6.9821,6.9697,6.9728,6.9837,7.0005,7.021,7.0017,7.005,7.007,7.0087,6.9797,6.9774,6.9803,6.9999,7.0048,7.0032,6.9988,6.99,7.0034,6.9948,6.9838,6.9853,6.9979,7.0158,7.0062,6.9972,6.9897,6.9939,7.0071,7.0001,6.997,7.0095,7.0076,7.035,7.0265,7.0481,7.0304,7.0238,7.0245,7.019,7.012,7.0249,7.0585,7.0728,7.0731,7.0664,7.0811,7.0733,7.041,7.0221,7.0015,6.9869,7.0085,7.0046,6.9998,7.0118,7.0059,7.0139,7.0158,7.0007,6.9839,6.9154,6.7514,6.6515,6.6942,6.9127,7.2652,7.4608,7.9289,8.3144,8.5194,8.3341,7.7987,7.2913,7.1369,7.1051,7.0682,7.0551,6.9991,7.0373,7.0314,7.0582,7.0374,7.0574,7.0447,7.0809,7.0497,7.0744,7.0541,7.077,7.0561,7.0881,7.0775,7.0796,7.0591,7.0855,7.0781,7.11,7.0789,7.091,7.1029,7.1225,7.0995,7.1314,7.1294,7.1357,7.1388,7.1593,7.1423,7.1545,7.1689,7.1958,7.2027,7.2213,7.2557,7.2623,7.2851,7.2933,7.3075,7.3371,7.3688,7.4032,7.4221,7.4367,7.4587,7.4806,7.503,7.5498,7.5878,7.5931,7.5959,7.5677,7.5738,7.5617,7.5463,7.4997,7.4621,7.4212,7.3842,7.3267,7.2839,7.2425,7.2207,7.1543,7.1253,7.0976,7.0985,7.0561,7.0475,7.0242,7.0267,7.0229,7.0282,7.0526,7.0453,7.0143,7.0179,7.0054,7.0084,7.0156,7.0167,6.9925,6.9972,6.9982,6.9975,6.995,7.0009,7.0086,7.0269,6.9985,6.9891,6.9861,7.0077,7.01,7.015,6.9983,7.018,7.0114,7.0323,7.0042,7.0052,7.0192,7.0066,7.0181,7.005,6.9861,6.9878,6.9988,7.01,7.0147,7.0201,7.0075,7.0089,6.9751,6.9982,6.992,6.9778,6.975,6.9887,6.993,7.0062,7.0055,6.9868,6.9796,6.9842,6.9721,6.9732,6.9924,6.9939,6.9889,6.9905,7.0018,6.9919,6.9806,6.9904,6.9904,6.9808,7.0036,6.993,6.9851,6.9693,6.9817,6.984,6.9773,7.0017,6.9911,6.9777,6.9768,6.9747,6.9834,7.0043,6.9895,6.9718,6.9829,6.9866,7.0129,6.9911,6.98,6.9703,6.9641,6.9765,6.9837,6.9965,6.9986,7.0024,7.0079,6.9896,6.9788,7.0053,7.0244,7.0427,7.0282,7.0196,7.0088,7.0518,7.093,7.0823,7.0517,7.0464,7.0604,7.0627,7.046,7.0154,7.0069,7.0011,7.0153,6.9954,7.0028,6.972,6.9874,6.9761,6.996,6.9956,7.0048,6.9267,6.77,6.6745,6.679,6.8622,7.2695,7.7254,8.257,8.5618,8.6312,8.2751,7.9629,7.4012,7.1765,7.1363,7.0735,7.0725,7.0352,7.0737,7.0512,7.0668,7.0455,7.0666,7.0385,7.0517,7.0352,7.0583,7.0392,7.0629,7.0437,7.0835,7.0578,7.0781,7.0436,7.0574,7.055,7.0885,7.0762,7.0946,7.0873,7.1265,7.1064,7.0972,7.1004,7.1325,7.1383,7.136,7.1414,7.1648,7.1871,7.1962,7.1899,7.1995,7.2281,7.2606,7.2572,7.2726,7.3086,7.3414,7.3653,7.3665,7.3992,7.4319,7.4572,7.4972,7.5186,7.5224,7.5642,7.5802,7.5788,7.5766,7.5618,7.56,7.5573,7.5251,7.4819,7.4412,7.4195,7.3819,7.3287,7.2471,7.2038,7.1663,7.1332,7.1146,7.1036,7.0762,7.0737,7.0721,7.0587,7.0517,7.063,7.053,7.0451,7.0517,7.0394,7.0076,6.9966,7.0078,7.0484,7.0653,7.0436,7.0298,7.0268,7.0348,7.0181,7.0076,7.027,7.0339,7.0383,7.028,7.0351,7.0157,7.0351,7.0261,7.0502,7.0358,7.0409,7.0406,7.0488,7.0534,7.0462,7.0285,7.0279,7.0448,7.0631,7.0473,7.0365,7.0471,7.0576,7.0654,7.0507,7.0167,7.0242,7.0217,7.0379,7.0445,7.0429,7.0461,7.033,7.0339,7.0394,7.0379,7.0493,7.0266,7.0294,7.0455,7.0243,7.0131,7.0285,7.0279,7.0495,7.0364,7.0408,7.043,7.0635,7.0554,7.0344,7.0226,7.0114,7.0315,7.0453,7.0308,7.0233,7.0347,7.0347,7.0728,7.0533,7.0267,7.025,7.0255,7.0309,7.0461,7.0335,7.0315,7.0331,7.0392,7.0356,7.0164,7.0212,7.0426,7.0638,7.0611,7.0652,7.0654,7.0803,7.0987,7.0735,7.0581,7.0554,7.0806,7.085,7.1143,7.117,7.0915,7.0745,7.0653,7.0381,7.0428,7.0209,7.0239,7.0106,7.0212,7.027,7.0493,7.0204,7.0219,6.9998,6.8568,6.7473,6.6604,6.69,6.9176,7.3177,7.7813,8.3021,8.6085,8.6605,8.3125,7.6359,7.2966,7.1941,7.1641,7.1182,7.0795,7.105,7.104,7.0845,7.0784,7.0661,7.0556,7.0479,7.0674,7.0839,7.0604,7.0469,7.0772,7.0836,7.0912,7.091,7.0734,7.0749,7.0909,7.1039,7.1181,7.1294,7.1269,7.0994,7.1068,7.1106,7.1258,7.1584,7.175,7.1801,7.1552,7.181,7.1509,7.1781,7.2064,7.223,7.2484,7.2419,7.2775,7.3019,7.3308,7.3383,7.3584,7.3948,7.4419,7.454,7.4691,7.5103,7.5311,7.5357,7.5558,7.5643,7.5935,7.6079,7.6247,7.6171,7.5784,7.5389,7.4836,7.4521,7.4275,7.3651,7.3115,7.2567,7.2291,7.2032,7.1753,7.1456,7.1221,7.0943,7.0872,7.0819,7.0701,7.0601,7.0321,7.036,7.0538,7.0327,7.0384,7.0404,7.0459,7.0534,7.0348,7.0344,7.0344,7.0367,7.017,7.0214,7.0128,7.0152,7.0368,7.0385,7.0421,7.0331,7.0411,7.0539,7.0486,7.0499,7.024,7.0399,7.0485,7.0437,7.0397,7.0411,7.036,7.0377,7.0349,7.035,7.0245,7.0179,7.0221,7.0401,7.046,7.0443,7.0426,7.0353,7.0261,7.0317,7.0271,7.0193,7.0232,7.0441,7.0505,7.0379,7.0247,7.0344,7.0412,7.0386,7.0369,7.0314,7.0303,7.0325,7.0118,7.0242,7.0108,7.0329,7.0392,7.0366,7.0325,7.0133,7.0031,7.0031,7.0041,7.0084,7.0102,7.0057,7.0151,7.0453,7.0681,7.0737,7.0379,7.0037,7.0029,7.0027,7.0122,7.0021,6.9983,7.0039,7.0216,7.0098,7.0177,7.0268,7.0211,7.0211,7.0149,7.0144,7.005,7.016,7.0333,7.0557,7.0392,7.0531,7.0734,7.0614,7.0835,7.0722,7.0473,7.0571,7.0919,7.0859,7.0533,7.0266,7.0237,7.0225,7.0119,7.0023,6.9852,6.9836,6.9852,6.9934,6.9934,6.9833,6.9859,6.9888,6.9213,6.7382,6.6281,6.6795,6.9298,7.3197,7.7865,8.2612,8.5694,8.6488,8.3813,7.8362,7.3006,7.1412,7.1012,7.0613,7.0162,7.0164,7.0445,7.0208,7.0331,7.0233,7.0253,7.0389,7.0374,7.0574,7.059,7.0357,7.0598,7.0524,7.0561,7.0209,7.0214,7.0166,7.0362,7.0623,7.0775,7.0665,7.0653,7.0648,7.073,7.084,7.0962,7.0879,7.1207,7.1302,7.1442,7.1564,7.1422,7.1531,7.1765,7.2096,7.2214,7.2141,7.2063,7.2348,7.2519,7.2932,7.322,7.3235,7.3441,7.3764,7.4121,7.4357,7.4777,7.4907,7.533,7.5506,7.554,7.5457,7.5551,7.5641,7.5662,7.4945,7.4535,7.4233,7.3653,7.3191,7.2671,7.2278,7.1785,7.1327,7.1065,7.0845,7.0628,7.0474,7.0192,7.0148,6.9957,6.9947,6.9772,6.9921,6.995,7.0053,6.966,6.9511,6.9555,6.9711,6.9753,6.9613,6.9712,6.9717,6.9876,6.9939,6.9646,6.9862,6.9766,6.9637,6.9568,6.9472,6.9647,6.9659,6.9687,6.9863,6.9776,6.9814,6.9646,6.964,6.9661,6.9845,6.9822,6.9801,6.9904,6.9736,6.9912,7.0036,7.0075,6.9953,6.9779,6.9622,6.9538,6.9566,6.9616,6.9709,6.9876,6.9621,6.974,6.9649,6.9627,6.9535,6.962,6.9547,6.9546,6.9655,6.9568,6.958,6.9633,6.974,6.9606,6.9472,6.9359,6.9299,6.9149,6.9363,6.9677,6.9556,6.9557,6.9822,6.965,6.9567,6.9429,6.9397,6.9312,6.9452,6.9611,6.9634,6.959,6.9449,6.9507,6.9706,6.9593,6.9572,6.9339,6.937,6.9609,6.9731,6.9902,6.9844,6.9666,6.9569,6.9449,6.9452,6.9584,6.9606,6.9731,7.0046,6.9983,6.9798,6.9908,6.9781,6.98,7.013,7.0251,7.0506,7.042,7.0227,7.0126,6.9761,6.977,6.9741,6.9544,6.9513,6.9618,6.9386,6.9447,6.9602,6.9585,6.9369,6.9323,6.9259,6.9188,6.7972,6.6719,6.6081,6.7058,7.0259,7.3906,7.8554,8.206,8.425,8.2557,7.7575,7.2442,7.1011,7.0351,7.0007,6.9772,6.9496,6.9855,6.986,7.0125,6.9752,6.9824,6.98,6.9803,6.9692,6.9964,6.9886,6.9911,6.9694,7.005,7.0143,7.0244,7.0088,7.0175,7.0157,7.0318,7.0223,7.0357,7.0248,7.0452,7.0453,7.0896,7.0822,7.0837,7.0665,7.0721,7.0854,7.1101,7.1224,7.133,7.1373,7.1537,7.1692,7.1875,7.226,7.2535,7.2603,7.2705,7.3048,7.3532,7.3767,7.3988,7.4096,7.42,7.4583,7.5006,7.5222,7.5245,7.5296,7.5439,7.5418,7.5065,7.5085,7.4652,7.425,7.358,7.3532,7.2995,7.2455,7.171,7.1401,7.1238,7.1006,7.0797,7.0533,7.028,7.0361,7.0002,6.9745,6.9761,6.9912,6.9894,6.9773,6.9629,6.9623,6.9684,6.9707,6.9654,6.9607,6.945,6.9582,6.9472,6.9516,6.9502,6.9556,6.9665,6.9861,6.9593,6.9738,6.9747,6.9631,6.9672,6.9506,6.9756,6.9925,6.9814,6.9774,6.9682,6.957,6.9444,6.9452,6.9631,6.9832,6.9693,6.9886,6.9822,6.9711,6.9748,6.9703,6.9501,6.9456,6.9313,6.951,6.9442,6.9421,6.9416,6.9458,6.94,6.9583,6.941,6.9439,6.9364,6.9333,6.955,6.9556,6.9563,6.9403,6.9443,6.9463,6.941,6.9285,6.9322,6.934,6.9575,6.9588,6.9567,6.9571,6.9227,6.9281,6.9397,6.92,6.9274,6.9405,6.9389,6.927,6.9305,6.9108,6.9178,6.9336,6.9521,6.9245,6.9548,6.9456,6.9351,6.9432,6.9422,6.9138,6.9171,6.9206,6.9434,6.9323,6.9307,6.932,6.947,6.9557,6.9338,6.9376,6.9604,6.9795,6.9793,6.9917,6.9992,6.986,6.984,6.9912,7.003,6.9973,6.9882,6.9731,6.9522,6.9249,6.9121,6.9107,6.908,6.9269,6.9198,6.9025,6.9188,6.9324,6.9292,6.868,6.6851,6.5739,6.5827,6.7569,6.9541,7.3366,7.8461,8.2317,8.4824,8.3292,7.8844,7.2851,7.1242,7.0181,6.9769,6.974,6.9354,6.9296,6.9445,6.9788,6.9714,6.9766,6.9523,6.9666,6.9768,6.962,6.9649,6.9583,6.9573,6.986,6.9725,6.9571,6.9556,6.9605,6.9799,6.9944,6.9948,6.9978,6.9829,7.0014,7.0012,6.9875,7.0201,7.0373,7.0393,7.0772,7.0664,7.0557,7.0576,7.0854,7.0878,7.1149,7.121,7.144,7.1692,7.2076,7.2096,7.2436,7.2662,7.3089,7.3441,7.3342,7.3604,7.3789,7.4079,7.4334,7.4638,7.4814,7.4869,7.4986,7.4826,7.4875,7.448,7.4178,7.3835,7.3338,7.2895,7.2416,7.1872,7.1698,7.128,7.082,7.0277,7.0114,6.9923,6.9752,6.9708,6.9782,6.9682,6.9376,6.941,6.9407,6.9706,6.951,6.9309,6.9465,6.9345,6.9328,6.9443,6.9305,6.9461,6.9281,6.9076,6.912,6.9256,6.9394,6.9193,6.9246,6.9338,6.9265,6.925,6.9472,6.9665,6.9466,6.9466,6.943,6.9444,6.9413,6.9652,6.9667,6.9612,6.956,6.9508,6.95,6.9483,6.941,6.9721,6.9672,6.9655,6.9725,6.9533,6.9677,6.9644,6.9708,6.9618,6.9492,6.9209,6.9336,6.9484,6.9623,6.9445,6.9585,6.975,6.9604,6.9439,6.9455,6.9458,6.951,6.963,6.9673,6.9721,6.9707,6.9447,6.9456,6.9516,6.9616,6.9663,6.9447,6.9636,6.97,6.9559,6.9447,6.9344,6.9408,6.9491,6.9525,6.9589,6.9549,6.9522,6.9674,6.9734,6.9769,6.9769,6.9558,6.944,6.9525,6.9355,6.9442,6.9553,6.9651,6.9507,6.9413,6.9471,6.9473,6.9519,6.9599,6.9417,6.9538,6.9766,6.9861,7.0061,6.9851,6.9938,6.9874,7.0023,7.03,7.0534,7.0328,6.9947,7.0163,7.0232,7.0083,7.0033,6.9819,6.9685,6.9468,6.9585,6.9579,6.942,6.9524,6.9546,6.9324,6.9448,6.9568,6.946,6.8478,6.6633,6.6015,6.6693,6.9903,7.415,7.9078,8.1782,8.4608,8.6386,8.2777,7.6735,7.2542,7.1496,7.1128,7.0748,7.0395,7.0253,6.9854,7.0018,6.9968,7.0147,7.0057,7.0256,7.0239,7.0321,7.0069,7.0053,6.9909,7.004,7.0239,7.0264,7.0167,7.0421,7.0403,7.0708,7.0819,7.072,7.0405,7.0532,7.0504,7.0586,7.0539,7.0621,7.0985,7.1175,7.133,7.1453,7.1321,7.1271,7.1392,7.161,7.1836,7.2075,7.2074,7.2527,7.2604,7.2677,7.2895,7.3303,7.3671,7.4081,7.4558,7.4495,7.467,7.4987,7.5114,7.5204,7.5492,7.5529,7.5647,7.5619,7.5286,7.4875,7.4569,7.425,7.3806,7.3326,7.2768,7.2216,7.188,7.1577,7.134,7.0819,7.0806,7.0608,7.0635,7.0489,7.047,6.9955,6.985,6.9895,6.9997,7.0154,7.032,7.0104,7.0074,6.9872,6.9787,6.9803,6.9834,6.9864,6.9837,6.985,6.9809,6.987,6.985,6.9705,6.995,6.9867,6.9927,6.9853,7.011,7.0265,7.0266,7.0168,6.9994,6.9831,7.004,7.0326,7.0134,7.0129,7.0054,7.0093,6.9938,6.9789,6.9921,6.9899,6.9882,6.9935,6.9959,6.9914,6.9945,7.0149,7.017,7.0276,7.0055,6.9874,6.9966,6.9934,6.996,6.9884,7.0047,6.9902,6.9974,6.98,6.9681,6.965,6.9884,6.997,6.9805,6.98,6.974,6.9804,6.9956,6.9799,6.9787,6.9884,6.9843,6.9956,6.9918,6.9684,6.9682,6.9674,6.9814,6.9935,7.0077,6.9993,6.9869,6.9919,6.9942,6.9887,6.9804,6.9674,6.9868,6.9895,6.9773,6.9815,6.9879,6.9842,6.9867,6.9894,6.9824,6.9924,6.9946,7.0124,7.0014,6.9871,6.9839,6.9922,6.995,7.0069,7.0079,7.011,7.0221,7.0108,7.0152,7.0335,7.0505,7.0521,7.0406,7.0457,7.0518,7.0466,7.0313,7.0213,6.9869,6.9861,6.9651,6.9833,6.9751,6.9837,6.9981,6.9761,6.9618,6.9737,6.9368,6.9041,6.749,6.6122,6.6356,6.7666,7.1341,7.5693,8.1087,8.3253,8.6056,8.5702,8.1171,7.5044,7.2055,7.1719,7.0828,7.0437,7.0149,7.0769,7.0514,7.0524,6.9892,7.0124,6.999,7.014,6.9921,7.0034,6.9824,7.0037,7.0047,7.0377,7.0199,7.0466,7.0423,7.0609,7.0403,7.0397,7.0262,7.0494,7.0462,7.0614,7.0548,7.0654,7.0712,7.0967,7.0991,7.1037,7.1144,7.1132,7.1148,7.1452,7.146,7.1581,7.1563,7.1917,7.2186,7.2415,7.2592,7.2853,7.3419,7.3443,7.3618,7.3778,7.3987,7.4315,7.4568,7.4869,7.5071,7.5127,7.5527,7.5638,7.5613,7.531,7.508,7.4866,7.4418,7.3932,7.3461,7.2984,7.244,7.1997,7.1706,7.1206,7.0911,7.0739,7.0428,7.0135,7.0179,7.002,7.0094,6.9946,6.9779,6.9644,6.9782,6.9514,6.9594,6.9555,6.9555,6.9592,6.9594,6.9577,6.9773,6.9737,7.004,6.9616,6.9508,6.954,6.9673,6.9682,6.9595,6.9458,6.9593,6.9648,6.9752,6.9801,6.9822,6.965,6.966,6.9567,6.9699,6.9596,6.9709,6.9684,6.9634,6.9614,6.9729,6.9696,6.9845,6.9794,6.9765,6.9482,6.9568,6.9732,6.9663,6.9423,6.9571,6.9642,6.9671,6.9491,6.9272,6.9119,6.9264,6.9305,6.9286,6.9243,6.9266,6.9311,6.9334,6.9398,6.9298,6.9366,6.9507,6.9459,6.9173,6.9231,6.9325,6.92,6.913,6.9188,6.9312,6.916,6.9158,6.9028,6.8973,6.9044,6.8954,6.9152,6.9107,6.9173,6.9008,6.8975,6.9065,6.9119,6.9148,6.9196,6.9118,6.9202,6.9122,6.91,6.8861,6.8858,6.9007,6.9129,6.9235,6.9202,6.9024,6.9066,6.8734,6.8973,6.8965,6.8711,6.8753,6.8957,6.9098,6.9335,6.9264,6.9135,6.9083,6.906,6.9474,6.9675,6.9496,6.9367,6.9518,6.9463,6.9233,6.9177,6.9163,6.8999,6.8689,6.865,6.8687,6.8681,6.8789,6.8874,6.8649,6.8692,6.8629,6.8577,6.7089,6.5651,6.5346,6.6546,6.9915,7.3803,7.8785,8.0945,8.3231,8.351,7.9357,7.3545,7.0631,6.9961,6.9421,6.9312,6.886,6.9296,6.9016,6.9059,6.8973,6.9118,6.924,6.9517,6.9413,6.9577,6.9091,6.9071,6.8925,6.9021,6.9062,6.9228,6.9291,6.9321,6.9452,6.9652,6.9763,6.9809,6.9739,6.9644,6.9767,6.9807,6.9761,7.0139,7.0234,7.05,7.0502,7.0466,7.0283,7.0114,7.0323,7.0764,7.0917,7.1049,7.1328,7.1582,7.1829,7.1936,7.2273,7.2501,7.2738,7.3204,7.3519,7.3958,7.4013,7.4158,7.4407,7.4632,7.4661,7.4674,7.4722,7.4731,7.4514,7.418,7.3823,7.3442,7.2779,7.2282,7.1897,7.1414,7.1154,7.1073,7.0772,7.0152,6.9733,6.9548,6.9592,6.9675,6.9569,6.9433,6.9558,6.92,6.9157,6.9133,6.9189,6.914,6.926,6.9268,6.9244,6.8909,6.8837,6.8945,6.9005,6.8964,6.9112,6.9056,6.9197,6.9257,6.9316,6.9393,6.9216,6.898,6.9011,6.8983,6.9145,6.9005,6.9101,6.917,6.9412,6.9362,6.943,6.9212,6.9278,6.9309,6.9232,6.9142,6.9217,6.911,6.8996,6.9026,6.9045,6.8991,6.9153,6.9176,6.9195,6.8954,6.8876,6.8953,6.8991,6.9001,6.9141,6.925,6.9278,6.8963,6.8876,6.9021,6.8995,6.8981,6.917,6.9098,6.9056,6.8777,6.8674,6.8834,6.8721,6.8877,6.9015,6.9227,6.9041,6.9075,6.8954,6.8874,6.8708,6.8848,6.8831,6.8969,6.9073,6.9225,6.9349,6.8995,6.8757,6.8584,6.8535,6.8989,6.9203,6.9055,6.9039,6.8918,6.8931,6.875,6.8706,6.8725,6.8713,6.8847,6.8901,6.9026,6.9046,6.8866,6.8804,6.8959,6.9065,6.9114,6.9494,6.9421,6.9094,6.9269,6.9676,6.9485,6.9336,6.9353,6.9369,6.9231,6.8974,6.8921,6.8752,6.8813,6.8988,6.9252,6.9108,6.8794,6.8511,6.8545,6.8464,6.8543,6.858,6.8162,6.6174,6.5274,6.5776,6.7791,7.1627,7.617,8.0741,8.3275,8.3358,8.1772,7.6866,7.1645,7.0361,6.9628,6.9335,6.902,6.9043,6.913,6.9111,6.9265,6.9247,6.9255,6.9118,6.907,6.8944,6.9152,6.9099,6.932,6.9196,6.9252,6.9362,6.9471,6.9422,6.9333,6.9449,6.9678,6.9659,6.9584,6.9655,6.9702,6.9675,6.9989,6.9963,6.986,6.9915,6.9904,7.0032,7.0317,7.0337,7.0463,7.0573,7.0806,7.0654,7.0867,7.1062,7.1345,7.1743,7.2089,7.2312,7.2582,7.2925,7.3241,7.3629,7.4115,7.3893,7.3834,7.3796,7.3819,7.405,7.4142,7.43,7.4222,7.4094,7.3617,7.3132,7.267,7.2416,7.2106,7.1469,7.1032,7.0592,7.0261,7.0163,6.9786,6.9237,6.8953,6.9049,6.8909,6.8877,6.8798,6.8711,6.8681,6.9044,6.8831,6.8789,6.8595,6.8722,6.8831,6.8889,6.8718,6.8767,6.8802,6.8927,6.8884,6.8896,6.869,6.8621,6.8538,6.8594,6.8575,6.8569,6.8511,6.8622,6.878,6.8745,6.8622,6.8593,6.8705,6.889,6.8981,6.8767,6.8656,6.896,6.8753,6.869,6.8699,6.8723,6.899,6.8883,6.8671,6.8208,6.8248,6.8363,6.8499,6.869,6.8541,6.859,6.8374,6.8438,6.8489,6.8513,6.8541,6.871,6.8595,6.833,6.8263,6.8209,6.8119,6.8228,6.8378,6.8213,6.8554,6.8399,6.8362,6.8487,6.8397,6.8185,6.8222,6.8321,6.8391,6.8418,6.8498,6.8503,6.8457,6.8584,6.8454,6.8371,6.8338,6.8232,6.8295,6.8443,6.8352,6.8205,6.8251,6.8295,6.8464,6.8582,6.8581,6.8537,6.8421,6.8213,6.8565,6.8371,6.8496,6.8365,6.8444,6.8362,6.8322,6.8383,6.8693,6.893,6.8693,6.8663,6.8498,6.8642,6.8998,6.9111,6.9125,6.9054,6.9105,6.909,6.8801,6.871,6.859,6.8699,6.8498,6.8371,6.8307,6.8216,6.8369,6.8509,6.857,6.8378,6.8426,6.8185,6.7263,6.5629,6.4948,6.5522,6.8037,7.1786,7.6543,8.1304,8.3881,8.3451,7.9353,7.3129,7.1224,7.0288,6.9442,6.9334,6.8707,6.8969,6.8864,6.8976,6.9043,6.9191,6.8882,6.8936,6.8867,6.8956,6.8717,6.8827,6.8947,6.8929,6.8876,6.9057,6.8964,6.8974,6.9061,6.9169,6.9255,6.959,6.9358,6.9422,6.9486,6.9573,6.9802,6.988,6.9636,6.948,6.97,6.9794,6.9888,7.0067,7.0387,7.0486,7.0527,7.0839,7.0645,7.0997,7.1308,7.1676,7.1669,7.1994,7.2428,7.2652,7.3056,7.3094,7.3205,7.3467,7.3717,7.3884,7.4122,7.4201,7.4385,7.4548,7.4254,7.4187,7.391,7.3252,7.2646,7.226,7.1831,7.1354,7.0901,7.0535,7.024,6.9966,6.9591,6.9297,6.9135,6.9104,6.9333,6.9001,6.8975,6.8954,6.9009,6.8856,6.8907,6.8936,6.8973,6.8895,6.8862,6.8997,6.8824,6.8779,6.8728,6.8706,6.8756,6.8743,6.8809,6.8834,6.8918,6.8857,6.8971,6.8998,6.9107,6.9105,6.9041,6.882,6.8655,6.8744,6.89,6.8978,6.9068,6.9199,6.9244,6.9147,6.9174,6.9126,6.9209,6.8839,6.8843,6.8903,6.8826,6.887,6.9074,6.9115,6.9346,6.9066,6.876,6.8879,6.9094,6.9066,6.8949,6.8975,6.8716,6.8815,6.9186,6.9111,6.9222,6.8992,6.8937,6.8971,6.9103,6.9124,6.8849,6.8874,6.8762,6.8896,6.9002,6.8976,6.898,6.9205,6.9078,6.8985,6.8717,6.8845,6.8999,6.9001,6.899,6.9033,6.909,6.8943,6.896,6.8913,6.8827,6.8909,6.8872,6.8944,6.8851,6.8951,6.8897,6.8891,6.9135,6.9095,6.8997,6.8888,6.8933,6.9001,6.8904,6.8847,6.8794,6.8822,6.9132,6.9023,6.8862,6.8954,6.8749,6.9043,6.941,6.9279,6.9096,6.9068,6.899,6.9375,6.9596,6.9658,6.9632,6.9711,6.9899,6.9555,6.9137,6.8986,6.8926,6.8851,6.8974,6.8975,6.8862,6.9101,6.923,6.8959,6.8628,6.8481,6.8543,6.8274,6.6545,6.5244,6.5391,6.7149,7.1144,7.5712,8.1249,8.4336,8.5741,8.4334,7.9713,7.3645,7.1032,7.0358,6.9968,6.9801,6.9732,6.9745,6.9255,6.9404,6.9266,6.938,6.9079,6.9267,6.925,6.9473,6.9512,6.9603,6.9484,6.9453,6.9514,6.9772,6.9812,6.9981,6.9927,6.9924,6.9532,6.9561,6.9481,7.0129,7.0216,7.0246,7.0081,6.999,7.0096,7.0268,7.0614,7.0622,7.0684,7.0854
