11.273,11.265,11.274,11.272,11.269,11.271,11.269,11.267,11.276,11.277,11.277,11.273,11.277,11.269,11.275,11.275,11.269,11.267,11.267,11.273,11.276,11.272,11.264,11.258,11.263,11.26,11.262,11.251,11.247,11.253,11.251,11.248,11.246,11.242,11.246,11.249,11.257,11.265,11.273,11.271,11.279,11.287,11.291,11.288,11.3,11.322,11.319,11.312,11.301,11.288,11.279,11.244,11.216,11.199,11.208,11.208,11.202,11.204,11.201,11.194,11.2,11.2,11.199,11.194,11.192,11.197,11.17,11.182,11.209,11.342,11.625,12,12.311,12.37,12.344,12.229,11.67,11.188,11.115,11.174,11.237,11.277,11.285,11.284,11.277,11.26,11.265,11.259,11.257,11.256,11.263,11.261,11.268,11.263,11.266,11.274,11.28,11.284,11.291,11.289,11.299,11.302,11.312,11.309,11.323,11.329,11.328,11.333,11.345,11.343,11.355,11.358,11.37,11.383,11.389,11.394,11.397,11.415,11.43,11.444,11.452,11.47,11.483,11.499,11.511,11.515,11.536,11.555,11.574,11.59,11.599,11.613,11.619,11.619,11.608,11.579,11.554,11.525,11.485,11.452,11.408,11.374,11.347,11.324,11.308,11.292,11.273,11.261,11.245,11.246,11.234,11.232,11.229,11.227,11.224,11.22,11.221,11.221,11.218,11.222,11.216,11.224,11.22,11.221,11.218,11.223,11.223,11.222,11.225,11.229,11.227,11.228,11.216,11.219,11.233,11.238,11.23,11.234,11.227,11.23,11.222,11.223,11.215,11.219,11.223,11.22,11.22,11.219,11.209,11.218,11.208,11.214,11.206,11.202,11.203,11.198,11.203,11.217,11.222,11.23,11.232,11.24,11.247,11.249,11.256,11.248,11.26,11.279,11.288,11.273,11.257,11.244,11.227,11.185,11.169,11.168,11.163,11.159,11.152,11.154,11.154,11.152,11.145,11.149,11.153,11.15,11.154,11.138,11.12,11.116,11.193,11.392,11.707,12.088,12.29,12.321,12.293,12.031,11.431,11.061,11.08,11.128,11.214,11.244,11.256,11.242,11.223,11.21,11.22,11.211,11.219,11.213,11.219,11.215,11.222,11.228,11.232,11.234,11.245,11.243,11.244,11.245,11.253,11.264,11.265,11.265,11.269,11.283,11.291,11.286,11.296,11.303,11.321,11.316,11.334,11.334,11.351,11.361,11.366,11.373,11.388,11.396,11.413,11.441,11.452,11.467,11.487,11.5,11.516,11.535,11.556,11.573,11.581,11.598,11.596,11.586,11.566,11.555,11.533,11.493,11.45,11.417,11.383,11.343,11.316,11.282,11.259,11.245,11.227,11.221,11.21,11.202,11.197,11.194,11.192,11.191,11.183,11.195,11.19,11.19,11.186,11.183,11.18,11.183,11.182,11.184,11.18,11.183,11.184,11.192,11.182,11.187,11.186,11.193,11.191,11.189,11.187,11.197,11.197,11.193,11.193,11.193,11.191,11.198,11.187,11.187,11.188,11.184,11.181,11.184,11.18,11.175,11.175,11.167,11.171,11.167,11.163,11.161,11.165,11.16,11.158,11.161,11.168,11.182,11.188,11.186,11.186,11.197,11.197,11.209,11.2,11.227,11.241,11.238,11.238,11.206,11.195,11.176,11.144,11.126,11.119,11.117,11.119,11.111,11.106,11.11,11.107,11.103,11.102,11.107,11.113,11.105,11.098,11.085,11.069,11.129,11.297,11.585,11.987,12.204,12.267,12.252,12.053,11.48,11.075,11.06,11.122,11.198,11.212,11.21,11.193,11.185,11.177,11.172,11.168,11.166,11.161,11.166,11.165,11.17,11.169,11.172,11.175,11.177,11.19,11.195,11.19,11.201,11.205,11.211,11.215,11.217,11.227,11.227,11.23,11.244,11.242,11.26,11.265,11.272,11.277,11.287,11.302,11.316,11.324,11.344,11.356,11.371,11.386,11.403,11.409,11.428,11.446,11.463,11.48,11.5,11.525,11.537,11.554,11.551,11.542,11.532,11.505,11.469,11.425,11.397,11.355,11.321,11.287,11.263,11.243,11.21,11.195,11.175,11.16,11.15,11.151,11.14,11.147,11.131,11.134,11.127,11.129,11.125,11.13,11.128,11.131,11.123,11.127,11.124,11.126,11.128,11.129,11.13,11.133,11.127,11.124,11.126,11.125,11.127,11.129,11.137,11.134,11.134,11.131,11.136,11.13,11.131,11.135,11.133,11.127,11.13,11.13,11.131,11.128,11.126,11.129,11.122,11.123,11.116,11.114,11.115,11.109,11.111,11.109,11.101,11.099,11.1,11.105,11.108,11.1,11.094,11.096,11.097,11.107,11.115,11.127,11.125,11.125,11.136,11.139,11.138,11.145,11.15,11.182,11.192,11.187,11.173,11.152,11.14,11.119,11.084,11.066,11.073,11.068,11.067,11.069,11.067,11.065,11.061,11.062,11.063,11.064,11.062,11.064,11.061,11.033,11.051,11.162,11.391,11.761,12.091,12.194,12.221,12.132,11.714,11.219,11.011,11.049,11.143,11.185,11.182,11.165,11.143,11.137,11.143,11.134,11.135,11.128,11.132,11.132,11.145,11.144,11.144,11.15,11.151,11.161,11.16,11.168,11.178,11.18,11.183,11.188,11.188,11.187,11.204,11.203,11.22,11.222,11.224,11.237,11.244,11.259,11.263,11.275,11.291,11.304,11.314,11.324,11.335,11.355,11.378,11.379,11.395,11.414,11.441,11.462,11.469,11.486,11.504,11.525,11.529,11.537,11.527,11.511,11.472,11.444,11.407,11.369,11.334,11.294,11.27,11.239,11.206,11.179,11.168,11.151,11.139,11.126,11.122,11.124,11.117,11.119,11.111,11.108,11.106,11.105,11.116,11.102,11.103,11.103,11.099,11.103,11.1,11.103,11.097,11.107,11.108,11.101,11.102,11.098,11.098,11.101,11.1,11.1,11.1,11.106,11.101,11.111,11.098,11.092,11.097,11.094,11.102,11.096,11.092,11.084,11.094,11.085,11.095,11.088,11.076,11.077,11.079,11.078,11.071,11.069,11.067,11.073,11.071,11.069,11.063,11.057,11.053,11.067,11.058,11.059,11.054,11.058,11.066,11.076,11.083,11.08,11.083,11.091,11.099,11.102,11.107,11.108,11.134,11.15,11.147,11.133,11.116,11.099,11.086,11.051,11.027,11.025,11.032,11.035,11.023,11.022,11.02,11.019,11.017,11.01,11.01,11.013,11.031,11.018,10.994,10.999,11.087,11.305,11.661,12.028,12.165,12.179,12.126,11.76,11.201,10.916,10.982,11.033,11.097,11.114,11.098,11.096,11.089,11.078,11.066,11.065,11.066,11.072,11.082,11.085,11.081,11.078,11.08,11.098,11.092,11.095,11.095,11.101,11.106,11.118,11.119,11.125,11.121,11.132,11.143,11.149,11.149,11.166,11.17,11.172,11.184,11.198,11.201,11.21,11.216,11.237,11.245,11.254,11.273,11.282,11.297,11.32,11.328,11.346,11.363,11.383,11.396,11.413,11.428,11.444,11.447,11.433,11.416,11.392,11.359,11.329,11.288,11.264,11.235,11.196,11.171,11.138,11.118,11.092,11.079,11.064,11.051,11.05,11.043,11.046,11.041,11.034,11.034,11.033,11.031,11.03,11.026,11.019,11.027,11.023,11.029,11.026,11.027,11.029,11.033,11.03,11.03,11.035,11.04,11.043,11.047,11.044,11.041,11.043,11.037,11.043,11.05,11.055,11.045,11.052,11.052,11.049,11.045,11.04,11.044,11.042,11.042,11.045,11.037,11.034,11.025,11.034,11.035,11.031,11.031,11.023,11.024,11.023,11.017,11.013,11.017,11.017,11.014,11.029,11.025,11.046,11.048,11.048,11.055,11.052,11.07,11.066,11.073,11.09,11.108,11.103,11.085,11.075,11.065,11.033,11.004,10.993,10.998,10.994,10.997,10.989,10.991,10.987,10.99,10.98,10.987,10.991,10.99,10.997,10.982,10.963,10.986,11.08,11.303,11.649,12.008,12.147,12.166,12.104,11.704,11.161,10.913,10.969,11.029,11.082,11.093,11.088,11.089,11.077,11.068,11.058,11.064,11.056,11.065,11.066,11.069,11.066,11.074,11.082,11.084,11.086,11.096,11.095,11.104,11.105,11.107,11.111,11.123,11.124,11.138,11.142,11.154,11.158,11.164,11.169,11.178,11.192,11.198,11.212,11.218,11.235,11.24,11.263,11.267,11.28,11.307,11.321,11.335,11.357,11.381,11.393,11.406,11.42,11.448,11.465,11.473,11.469,11.456,11.437,11.403,11.372,11.325,11.293,11.251,11.237,11.211,11.173,11.14,11.124,11.109,11.093,11.079,11.072,11.063,11.062,11.055,11.062,11.052,11.055,11.05,11.053,11.052,11.046,11.043,11.049,11.054,11.042,11.046,11.042,11.047,11.047,11.049,11.05,11.051,11.049,11.052,11.057,11.051,11.056,11.062,11.063,11.06,11.056,11.061,11.057,11.066,11.059,11.061,11.058,11.056,11.059,11.056,11.05,11.048,11.046,11.043,11.043,11.033,11.042,11.037,11.037,11.037,11.029,11.025,11.027,11.025,11.025,11.027,11.024,11.025,11.023,11.022,11.023,11.02,11.02,11.013,11.019,11.014,11.011,11.008,11.013,11.029,11.042,11.042,11.044,11.051,11.057,11.062,11.064,11.065,11.073,11.1,11.104,11.092,11.08,11.07,11.059,11.025,11.001,10.994,10.987,10.99,10.992,10.988,10.988,10.984,10.987,10.987,10.984,10.985,10.982,10.985,10.956,10.964,11.061,11.275,11.611,11.97,12.067,12.133,12.161,12.014,11.469,11.025,10.953,10.988,11.076,11.091,11.102,11.075,11.071,11.053,11.062,11.057,11.06,11.049,11.058,11.058,11.067,11.062,11.071,11.069,11.073,11.081,11.091,11.086,11.101,11.103,11.107,11.113,11.118,11.117,11.132,11.137,11.144,11.145,11.156,11.158,11.178,11.182,11.194,11.203,11.216,11.231,11.246,11.262,11.271,11.294,11.313,11.33,11.348,11.366,11.387,11.416,11.429,11.445,11.45,11.471,11.48,11.481,11.469,11.448,11.418,11.379,11.342,11.31,11.259,11.229,11.192,11.165,11.134,11.111,11.096,11.083,11.075,11.075,11.061,11.056,11.05,11.053,11.044,11.04,11.047,11.043,11.039,11.051,11.044,11.039,11.038,11.042,11.041,11.04,11.035,11.038,11.036,11.041,11.035,11.04,11.044,11.046,11.048,11.048,11.047,11.051,11.045,11.047,11.047,11.047,11.047,11.051,11.038,11.048,11.038,11.042,11.045,11.039,11.044,11.036,11.03,11.034,11.032,11.035,11.025,11.03,11.025,11.024,11.024,11.016,11.021,11.012,11.019,11.011,11.015,11.011,11.013,11.008,11.012,11.005,11.005,10.994,11.006,11.004,11.001,11,10.989,11,10.995,10.994,10.989,10.995,11,10.995,11,11.017,11.024,11.023,11.034,11.044,11.035,11.045,11.041,11.05,11.078,11.091,11.081,11.057,11.05,11.035,11.002,10.983,10.985,10.974,10.978,10.968,10.96,10.964,10.969,10.961,10.963,10.961,10.968,10.967,10.954,10.923,10.967,11.094,11.354,11.725,12.046,12.115,12.151,12.142,11.865,11.279,10.902,10.922,10.975,11.043,11.059,11.06,11.035,11.037,11.026,11.036,11.027,11.026,11.026,11.022,11.028,11.03,11.047,11.033,11.04,11.047,11.041,11.054,11.057,11.061,11.072,11.074,11.084,11.09,11.078,11.087,11.11,11.109,11.113,11.127,11.124,11.131,11.148,11.155,11.161,11.164,11.179,11.204,11.213,11.229,11.247,11.26,11.274,11.3,11.316,11.331,11.344,11.371,11.377,11.383,11.405,11.419,11.422,11.416,11.397,11.358,11.328,11.293,11.249,11.209,11.182,11.147,11.119,11.082,11.063,11.055,11.031,11.031,11.022,11.014,11.01,10.997,11.006,10.994,10.995,10.992,10.991,11,10.993,10.982,10.986,10.99,10.996,10.988,10.987,10.988,10.992,10.989,10.989,10.993,10.999,10.99,11.001,11.005,10.999,11.005,11.001,11.012,11.015,11.002,11.008,11.005,11.016,11.01,11.005,11.004,10.998,11.005,11,11.003,10.995,11.002,11,10.999,10.99,10.989,10.992,10.99,10.995,10.991,10.984,10.985,10.984,10.984,10.983,10.981,10.986,10.984,10.989,10.983,10.977,10.989,11,11.017,11.022,11.017,11.015,11.033,11.044,11.043,11.04,11.049,11.078,11.083,11.078,11.066,11.053,11.042,11.02,10.997,10.972,10.974,10.969,10.972,10.977,10.966,10.965,10.972,10.964,10.968,10.962,10.968,10.959,10.95,10.944,11,11.17,11.449,11.84,12.092,12.149,12.142,11.974,11.4,10.958,10.928,10.978,11.047,11.071,11.07,11.058,11.048,11.043,11.035,11.035,11.038,11.037,11.035,11.042,11.046,11.049,11.053,11.055,11.065,11.062,11.068,11.069,11.078,11.083,11.079,11.098,11.104,11.106,11.108,11.116,11.126,11.135,11.14,11.14,11.15,11.156,11.181,11.183,11.197,11.197,11.219,11.245,11.243,11.265,11.282,11.304,11.31,11.33,11.36,11.359,11.379,11.408,11.414,11.436,11.443,11.438,11.431,11.408,11.357,11.33,11.291,11.252,11.211,11.178,11.142,11.127,11.103,11.086,11.067,11.058,11.044,11.033,11.035,11.026,11.018,11.015,11.022,11.02,11.014,11.008,11.009,11.007,11.013,11.012,11.007,11.011,11.005,11.007,11.009,11.009,11.011,11.01,11.022,11.026,11.019,11.018,11.02,11.022,11.026,11.022,11.02,11.027,11.025,11.027,11.029,11.017,11.029,11.023,11.032,11.024,11.023,11.022,11.022,11.019,11.016,11.015,11.014,11.015,11.025,11.018,11.013,11.016,11.014,11.024,11.009,11.01,11.007,11.008,11.011,11.01,11.008,11.01,11.002,11.007,11.008,11.013,11.028,11.036,11.043,11.042,11.042,11.045,11.057,11.067,11.066,11.08,11.08,11.092,11.087,11.077,11.067,11.032,11.019,10.993,10.986,10.989,10.99,10.984,10.983,10.981,10.977,10.98,10.98,10.978,10.978,10.981,10.965,10.949,10.994,11.143,11.409,11.79,12.064,12.162,12.182,12.045,11.53,11.052,10.93,10.987,11.034,11.081,11.093,11.077,11.067,11.053,11.051,11.037,11.044,11.034,11.045,11.045,11.054,11.052,11.064,11.048,11.061,11.068,11.062,11.062,11.081,11.075,11.085,11.089,11.099,11.108,11.111,11.114,11.124,11.134,11.138,11.143,11.16,11.164,11.174,11.186,11.197,11.211,11.22,11.23,11.252,11.264,11.279,11.296,11.315,11.336,11.357,11.376,11.394,11.419,11.427,11.448,11.453,11.458,11.443,11.428,11.393,11.382,11.341,11.307,11.256,11.213,11.191,11.151,11.123,11.103,11.088,11.073,11.06,11.054,11.043,11.038,11.039,11.036,11.031,11.029,11.033,11.024,11.024,11.025,11.025,11.026,11.024,11.027,11.018,11.027,11.027,11.025,11.023,11.025,11.027,11.034,11.018,11.023,11.02,11.026,11.026,11.03,11.031,11.026,11.026,11.029,11.039,11.039,11.029,11.025,11.027,11.023,11.025,11.019,11.021,11.02,11.023,11.009,11.01,11.015,11.014,11.014,11.013,11.01,11.005,11.001,11.003,11.001,11.001,11.004,10.998,11,10.999,10.995,11.001,11.022,11.032,11.037,11.036,11.036,11.042,11.05,11.053,11.051,11.07,11.085,11.087,11.081,11.069,11.046,11.021,11,10.979,10.982,10.982,10.976,10.975,10.976,10.979,10.972,10.973,10.967,10.97,10.974,10.971,10.952,10.947,11.018,11.205,11.495,11.878,12.084,12.161,12.168,11.95,11.383,11.137,10.944,10.96,11.075,11.076,11.105,11.064,11.068,11.036,11.046,11.028,11.052,11.032,11.049,11.033,11.051,11.033,11.053,11.051,11.063,11.047,11.063,11.06,11.073,11.071,11.085,11.084,11.095,11.094,11.11,11.107,11.119,11.124,11.129,11.139,11.153,11.149,11.173,11.174,11.182,11.192,11.208,11.22,11.237,11.252,11.264,11.276,11.293,11.326,11.34,11.362,11.379,11.406,11.419,11.436,11.442,11.428,11.423,11.413,11.383,11.348,11.308,11.272,11.222,11.194,11.147,11.118,11.094,11.074,11.053,11.041,11.026,11.023,11.018,11.019,11.005,11.004,10.997,11,11.003,11.003,10.992,10.997,10.991,10.996,10.992,10.997,10.992,10.999,10.994,10.994,10.988,10.991,10.988,10.995,10.991,10.996,11.001,11,10.985,10.998,10.992,10.993,10.994,10.995,10.997,10.992,10.988,10.986,10.995,10.988,10.982,10.979,10.977,10.98,10.977,10.976,10.969,10.971,10.96,10.968,10.97,10.961,10.963,10.964,10.964,10.962,10.96,10.971,10.986,11,10.993,10.998,11.012,11.004,11.002,11.007,11.01,11.032,11.044,11.04,11.019,11.004,10.99,10.96,10.934,10.928,10.929,10.92,10.922,10.918,10.92,10.923,10.926,10.909,10.92,10.92,10.916,10.915,10.888,10.895,10.978,11.182,11.51,11.884,12.045,12.096,12.065,11.756,11.202,10.874,10.896,10.934,11.015,11.039,11.029,11.01,11.004,10.988,10.989,10.973,10.98,10.979,10.979,10.978,10.983,10.989,10.996,10.997,11.003,11.001,11.005,11.011,11.018,11.024,11.031,11.038,11.045,11.053,11.057,11.061,11.07,11.066,11.079,11.087,11.098,11.101,11.113,11.13,11.137,11.143,11.158,11.174,11.187,11.201,11.211,11.242,11.255,11.278,11.283,11.311,11.323,11.336,11.363,11.375,11.38,11.367,11.355,11.33,11.315,11.278,11.244,11.207,11.17,11.126,11.087,11.056,11.042,11.016,11.01,10.992,10.982,10.97,10.962,10.972,10.949,10.947,10.951,10.956,10.943,10.952,10.954,10.947,10.943,10.949,10.949,10.944,10.93,10.941,10.954,10.945,10.937,10.945,10.951,10.943,10.947,10.934,10.937,10.95,10.948,10.943,10.943,10.938,10.933,10.933,10.928,10.929,10.922,10.922,10.922,10.935,10.919,10.927,10.919,10.913,10.924,10.921,10.906,10.9,10.907,10.896,10.903,10.907,10.915,10.927,10.937,10.929,10.93,10.946,10.946,10.951,10.944,10.958,10.972,10.973,10.963,10.948,10.94,10.916,10.89,10.859,10.855,10.85,10.855,10.853,10.852,10.842,10.848,10.837,10.839,10.838,10.841,10.844,10.819,10.817,10.822,10.907,11.127,11.465,11.838,11.993,12.003,11.963,11.593,11.031,10.735,10.801,10.86,10.91,10.927,10.92,10.912,10.9,10.897,10.885,10.9,10.89,10.902,10.887,10.899,10.897,10.904,10.913,10.913,10.918,10.92,10.923,10.93,10.934,10.942,10.942,10.955,10.963,10.961,10.969,10.979,10.986,10.994,10.997,11.013,11.023,11.016,11.035,11.047,11.058,11.072,11.077,11.099,11.118,11.126,11.142,11.153,11.172,11.199,11.21,11.225,11.242,11.264,11.276,11.28,11.285,11.277,11.27,11.233,11.204,11.16,11.131,11.098,11.065,11.025,10.985,10.972,10.954,10.953,10.932,10.916,10.912,10.907,10.91,10.893,10.885,10.886,10.886,10.893,10.884,10.89,10.889,10.885,10.885,10.879,10.887,10.882,10.886,10.883,10.889,10.888,10.895,10.893,10.9,10.908,10.891,10.888,10.897,10.895,10.902,10.902,10.903,10.901,10.909,10.905,10.909,10.902,10.899,10.905,10.904,10.901,10.894,10.9,10.898,10.908,10.915,10.921,10.932,10.931,10.934,10.948,10.948,10.954,10.948,10.96,10.988,10.981,10.969,10.958,10.96,10.929,10.903,10.872,10.87,10.876,10.877,10.88,10.877,10.875,10.875,10.868,10.87,10.874,10.873,10.875,10.877,10.849,10.859,10.956,11.171,11.507,11.872,12.017,12.02,11.96,11.612,11.069,10.777,10.856,10.903,10.969,10.982,10.982,10.967,10.963,10.953,10.95,10.948,10.946,10.946,10.949,10.952,10.962,10.954,10.954,10.965,10.972,10.974,10.971,10.977,10.984,10.992,10.994,11.006,10.999,11.015,11.017,11.022,11.035,11.041,11.049,11.058,11.069,11.071,11.082,11.09,11.104,11.117,11.137,11.15,11.159,11.177,11.191,11.207,11.224,11.238,11.253,11.279,11.294,11.31,11.323,11.333,11.335,11.321,11.292,11.263,11.233,11.199,11.159,11.136,11.1,11.067,11.041,11.015,10.996,10.976,10.965,10.949,10.949,10.939,10.934,10.936,10.93,10.929,10.929,10.929,10.926,10.927,10.928,10.922,10.921,10.925,10.925,10.924,10.932,10.929,10.923,10.934,10.931,10.925,10.946,10.932,10.934,10.942,10.938,10.937,10.93,10.933,10.931,10.944,10.932,10.922,10.93,10.933,10.926,10.926,10.92,10.921,10.921,10.914,10.918,10.902,10.906,10.9,10.918,10.93,10.922,10.935,10.938,10.946,10.944,10.952,10.962,10.95,10.959,10.988,10.989,10.98,10.962,10.938,10.913,10.875,10.868,10.859,10.862,10.881,10.874,10.86,10.847,10.854,10.85,10.862,10.866,10.855,10.837,10.813,10.768,10.788,10.934,11.202,11.561,11.909,12.02,12.065,11.983,11.848,11.269,10.803,10.785,10.866,10.967,10.979,10.977,10.935,10.949,10.951,10.948,10.933,10.95,10.936,10.919,10.884,10.94,10.966,10.96,10.926,10.927,10.967,10.956,10.95,10.946,10.98,11.013,10.989,10.996,10.984,10.995,11.027,11.044,11.063,11.063,11.042,11.065,11.08,11.06,11.037,11.084,11.126,11.137,11.134,11.187,11.207,11.197,11.225,11.261,11.263,11.261,11.313,11.297,11.253,11.299,11.321,11.334,11.364,11.389,11.391,11.357,11.316,11.243,11.169,11.141,11.089,11.038,11.045,11.024,11.021,11.021,10.97,10.923,10.957,10.995,11.015,11.008,10.974,11.001,11.024,11.004,11.006,11.003,11.003,10.968,10.965,10.941,10.954,10.993,11,10.954,10.933,10.952,10.981,11.006,11.029,11.024,10.967,10.972,10.972,10.994,11.003,10.983,10.948,10.924,10.909,10.974,11.016,10.962,10.925,10.918,10.94,10.961,10.983,10.961,10.958,10.982,10.985,10.984,10.961,10.94,10.936,10.927,10.973,10.974,10.974,11.002,10.97,11.026,11.074,11.065,11.034,11.024,11.026,11.006,10.959,10.933,10.925,10.923,10.922,10.912,10.899,10.903,10.928,10.918,10.927,10.926,10.905,10.901,10.898,10.876,10.915,10.989,11.22,11.538,11.893,12.051,12.032,11.976,11.704,11.186,10.869,10.913,10.946,10.97,11.004,11.047,11.035,11.035,10.989,10.983,10.986,11,10.962,10.911,10.915,11.017,11.07,11.045,11.035,11.032,11.007,10.966,10.992,11.052,11.077,11.069,11.054,11.018,11.017,11.039,11.089,11.074,11.059,11.052,11.047,11.112,11.14,11.072,11.072,11.154,11.186,11.169,11.157,11.178,11.226,11.235,11.241,11.245,11.267,11.315,11.347,11.357,11.372,11.383,11.386,11.363,11.352,11.333,11.313,11.284,11.259,11.202,11.152,11.126,11.097,11.068,11.055,11.042,11.05,11.033,11.02,11.012,11.015,10.997,10.964,10.985,11.007,11.002,10.967,10.963,10.955,10.972,10.973,10.986,10.992,10.981,10.981,10.984,10.979,10.997,11.033,10.992,11.001,11.006,10.978,10.952,10.98,11.014,10.99,10.989,10.96,10.976,11.013,10.989,11.004,11.018,11.02,11.007,11.011,10.977,10.92,10.923,11.007,11.046,11.02,11.006,10.959,10.892,10.899,10.978,11.069,11.103,11.064,11.043,11.031,11.004,10.987,11.029,11.101,11.121,11.036,10.984,10.989,11.019,10.967,10.931,10.936,10.957,10.998,10.998,10.962,10.929,10.876,10.9,10.937,10.979,10.976,10.928,10.867,10.841,10.92,11.037,11.241,11.601,11.962,12.004,11.966,11.886,11.535,11.086,10.9,10.962,11.028,11.045,11.028,10.98,10.955,10.964,10.988,11.034,11.061,11.04,11.019,11.007,10.983,10.969,10.957,10.951,10.989,11.061,11.054,11.048,11.05,11.043,11,10.932,10.961,11.091,11.127,11.092,11.083,11.085,11.106,11.148,11.133,11.109,11.125,11.142,11.156,11.123,11.064,11.065,11.152,11.272,11.317,11.304,11.299,11.289,11.27,11.253,11.304,11.373,11.408,11.416,11.415,11.346,11.291,11.3,11.342,11.345,11.336,11.296,11.23,11.177,11.147,11.106,11.081,11.052,11.043,11.028,11.015,10.996,10.991,11.004,10.994,10.988,10.975,10.974,10.977,10.987,10.98,10.986,10.978,10.981,10.976,10.977,10.961,10.951,10.953,10.965,10.974,10.958,10.915,10.965,11.027,11.007,10.981,10.969,10.977,10.968,10.983,10.973,10.957,10.948,10.953,10.975,10.976,10.932,10.917,10.952,10.966,10.946,10.926,10.951,10.96,10.962,10.955,10.946,10.934,10.929,10.947,10.975,10.981,10.979,10.978,10.99,10.988,10.971,10.952,10.964,11.036,11.022,11,11.008,10.986,10.953,10.938,10.925,10.935,10.94,10.913,10.891,10.9,10.918,10.924,10.921,10.917,10.872,10.9,10.919,10.901,10.847,10.878,10.979,11.182,11.537,11.71,11.968,12.045,12.042,11.94,11.397,10.887,10.774,10.867,10.935,10.995,11.005,11.017,10.99,10.975,10.967,10.948,10.951,10.983,10.978,10.983,10.973,10.963,10.959,10.977,10.972,10.984,10.988,10.982,10.982,10.953,10.962,10.981,10.992,10.989,11.007,11.034,11.033,11.037,11.031,11.047,11.038,11.037,11.046,11.052,11.066,11.078,11.091,11.094,11.098,11.114,11.134,11.147,11.156,11.175,11.205,11.194,11.192,11.223,11.24,11.252,11.277,11.27,11.248,11.236,11.217,11.177,11.154,11.111,11.068,11.007,10.969,10.965,10.961,10.944,10.92,10.906,10.874,10.852,10.87,10.883,10.867,10.853,10.864,10.893,10.885,10.867,10.874,10.863,10.873,10.866,10.872,10.857,10.873,10.884,10.888,10.885,10.88,10.879,10.883,10.88,10.877,10.888,10.889,10.877,10.87,10.884,10.892,10.887,10.881,10.876,10.87,10.859,10.862,10.869,10.87,10.876,10.873,10.874,10.868,10.868,10.871,10.875,10.883,10.884,10.888,10.887,10.894,10.903,10.908,10.92,10.917,10.948,10.947,10.937,10.916,10.897,10.892,10.866,10.824,10.806,10.802,10.821,10.831,10.825,10.803,10.806,10.818,10.823,10.825,10.821,10.823,10.821,10.798,10.801,10.876,11.051,11.376,11.759,11.952,11.974,11.919,11.654,11.079,10.718,10.783,10.829,10.891,10.919,10.91,10.901,10.887,10.878,10.886,10.875,10.875,10.878,10.875,10.88,10.882,10.887,10.886,10.881,10.89,10.892,10.901,10.905,10.906,10.914,10.919,10.926,10.927,10.919,10.937,10.949,10.956,10.961,10.964,10.977,10.981,10.988,10.997,11.011,11.027,11.025,11.041,11.065,11.085,11.101,11.093,11.106,11.13,11.161,11.164,11.193,11.204,11.222,11.233,11.238,11.225,11.232,11.212,11.183,11.153,11.11,11.071,11.046,11.001,10.967,10.953,10.926,10.909,10.89,10.873,10.866,10.855,10.851,10.846,10.843,10.837,10.831,10.842,10.851,10.84,10.83,10.836,10.845,10.84,10.838,10.838,10.828,10.835,10.837,10.848,10.841,10.842,10.84,10.844,10.848,10.851,10.85,10.851,10.854,10.848,10.847,10.849,10.849,10.848,10.848,10.837,10.838,10.849,10.842,10.836,10.839,10.835,10.831,10.828,10.822,10.831,10.823,10.822,10.817,10.822,10.843,10.86,10.866,10.854,10.86,10.867,10.863,10.875,10.87,10.891,10.915,10.906,10.886,10.869,10.865,10.848,10.817,10.796,10.795,10.798,10.796,10.797,10.79,10.788,10.785,10.788,10.783,10.796,10.788,10.777,10.769,10.75,10.785,10.898,11.145,11.488,11.812,11.906,11.919,11.834,11.392,11.101,10.747,10.724,10.812,10.792,10.894,10.867,10.875,10.855,10.861,10.843,10.844,10.844,10.849,10.849,10.853,10.848,10.865,10.861,10.875,10.856,10.872,10.871,10.887,10.886,10.894,10.886,10.896,10.906,10.915,10.922,10.927,10.922,10.931,10.94,10.954,10.974,10.983,10.982,10.984,11,11.02,11.038,11.041,11.055,11.074,11.098,11.108,11.121,11.142,11.161,11.181,11.201,11.216,11.224,11.232,11.233,11.227,11.205,11.187,11.153,11.113,11.076,11.03,10.995,10.97,10.947,10.921,10.895,10.876,10.866,10.854,10.853,10.839,10.834,10.833,10.832,10.834,10.828,10.828,10.829,10.823,10.832,10.829,10.826,10.827,10.829,10.828,10.832,10.825,10.825,10.833,10.84,10.827,10.838,10.834,10.836,10.832,10.841,10.834,10.839,10.845,10.841,10.835,10.833,10.844,10.842,10.833,10.84,10.825,10.83,10.831,10.823,10.827,10.826,10.823,10.817,10.818,10.811,10.816,10.813,10.81,10.809,10.811,10.808,10.8,10.807,10.803,10.811,10.825,10.836,10.821,10.834,10.844,10.852,10.861,10.858,10.863,10.879,10.901,10.891,10.872,10.858,10.844,10.825,10.796,10.78,10.781,10.78,10.784,10.778,10.776,10.762,10.774,10.779,10.773,10.771,10.768,10.765,10.749,10.75,10.811,10.97,11.247,11.619,11.85,11.911,11.896,11.71,11.156,10.753,10.729,10.75,10.834,10.879,10.885,10.869,10.85,10.841,10.844,10.843,10.842,10.835,10.842,10.831,10.832,10.835,10.852,10.858,10.86,10.852,10.851,10.868,10.877,10.88,10.873,10.887,10.901,10.904,10.911,10.901,10.912,10.911,10.929,10.946,10.953,10.951,10.964,10.973,10.99,11.001,11.005,11.012,11.027,11.054,11.061,11.074,11.106,11.123,11.14,11.154,11.164,11.184,11.192,11.212,11.226,11.231,11.214,11.193,11.184,11.145,11.118,11.088,11.043,11.003,10.98,10.951,10.925,10.896,10.865,10.855,10.856,10.862,10.85,10.846,10.829,10.837,10.836,10.835,10.826,10.826,10.831,10.825,10.832,10.823,10.821,10.837,10.826,10.833,10.831,10.829,10.833,10.835,10.803,10.828,10.83,10.829,10.827,10.819,10.824,10.812,10.827,10.826,10.825,10.808,10.814,10.813,10.817,10.814,10.814,10.811,10.82,10.81,10.805,10.802,10.799,10.798,10.798,10.789,10.776,10.786,10.794,10.793,10.804,10.786,10.788,10.787,10.786,10.809,10.809,10.805,10.816,10.829,10.84,10.842,10.841,10.845,10.855,10.884,10.868,10.846,10.838,10.835,10.808,10.769,10.772,10.762,10.758,10.768,10.766,10.759,10.748,10.763,10.749,10.747,10.756,10.759,10.751,10.744,10.743,10.793,10.944,11.221,11.585,11.856,11.902,11.88,11.753,11.197,10.742,10.707,10.758,10.812,10.857,10.859,10.865,10.861,10.848,10.852,10.843,10.834,10.833,10.849,10.851,10.858,10.853,10.856,10.856,10.861,10.866,10.884,10.877,10.889,10.889,10.889,10.899,10.908,10.909,10.91,10.916,10.93,10.939,10.946,10.952,10.959,10.956,10.968,10.984,11.005,11.022,11.022,11.028,11.033,11.052,11.076,11.095,11.094,11.119,11.139,11.153,11.17,11.185,11.205,11.217,11.224,11.224,11.218,11.191,11.164,11.13,11.103,11.085,11.05,11.013,10.973,10.945,10.93,10.897,10.88,10.877,10.865,10.854,10.844,10.838,10.85,10.84,10.836,10.844,10.837,10.841,10.846,10.842,10.835,10.83,10.831,10.848,10.842,10.838,10.839,10.854,10.848,10.857,10.86,10.853,10.847,10.858,10.852,10.86,10.85,10.848,10.859,10.851,10.851,10.855,10.837,10.85,10.86,10.858,10.853,10.849,10.839,10.834,10.816,10.827,10.836,10.844,10.854,10.843,10.834,10.844,10.833,10.824,10.821,10.828,10.827,10.836,10.853,10.854,10.862,10.846,10.876,10.888,10.883,10.871,10.88,10.91,10.914,10.897,10.895,10.884,10.877,10.837,10.806,10.796,10.8,10.791,10.798,10.79,10.797,10.792,10.781,10.775,10.787,10.79,10.792,10.78,10.751,10.771,10.876,11.094,11.397,11.745,11.895,11.966,11.909,11.599,11.063,10.771,10.776,10.861,10.913,10.898,10.878,10.863,10.871,10.849,10.857,10.847,10.857,10.853,10.861,10.855,10.866,10.854,10.858,10.871,10.865,10.87,10.885,10.88,10.895,10.891,10.893,10.912,10.915,10.919,10.924,10.928,10.943,10.948,10.96,10.957,10.965,10.975,10.99,10.999,11.009,11.024,11.044,11.045,11.069,11.09,11.093,11.113,11.126,11.147,11.165,11.188,11.196,11.214,11.235,11.241,11.245,11.239,11.225,11.196,11.171,11.137,11.09,11.059,11.023,10.982,10.955,10.939,10.92,10.894,10.865,10.85,10.856,10.848,10.845,10.84,10.821,10.828,10.843,10.832,10.833,10.83,10.823,10.824,10.825,10.825,10.823,10.826,10.832,10.83,10.834,10.837,10.834,10.834,10.837,10.84,10.825,10.833,10.836,10.843,10.838,10.833,10.837,10.841,10.831,10.832,10.835,10.819,10.811,10.83,10.824,10.806,10.797,10.751,10.765,10.802,10.819,10.815,10.801,10.787,10.763,10.765,10.777,10.747,10.741,10.824,10.881,10.871,10.832,10.859,10.875,10.866,10.842,10.88,10.893,10.878,10.853,10.827,10.804,10.778,10.781,10.791,10.776,10.762,10.735,10.752,10.771,10.773,10.762,10.778,10.765,10.775,10.768,10.763,10.753,10.745,10.811,10.979,11.289,11.68,11.873,11.929,11.921,11.81,11.369,10.882,10.703,10.747,10.82,10.834,10.872,10.865,10.865,10.824,10.818,10.826,10.841,10.834,10.834,10.807,10.824,10.843,10.848,10.84,10.842,10.822,10.831,10.827,10.851,10.864,10.878,10.854,10.844,10.853,10.89,10.873,10.904,10.939,10.971,10.946,10.945,10.948,10.933,10.975,10.98,10.995,10.999,11.009,11.028,11.033,11.037,11.06,11.101,11.121,11.125,11.131,11.153,11.188,11.196,11.175,11.18,11.207,11.225,11.178,11.15,11.111,11.073,11.036,11.008,10.983,10.933,10.885,10.879,10.876,10.863,10.848,10.824,10.826,10.808,10.821,10.795,10.788,10.792,10.818,10.832,10.815,10.803,10.818,10.805,10.811,10.795,10.796,10.796,10.812,10.816,10.829,10.825,10.83,10.828,10.832,10.817,10.83,10.811,10.817,10.808,10.82,10.817,10.811,10.81,10.811,10.814,10.799,10.798,10.811,10.814,10.825,10.812,10.819,10.821,10.793,10.78,10.794,10.821,10.812,10.793,10.76,10.786,10.768,10.797,10.833,10.861,10.836,10.832,10.829,10.832,10.83,10.838,10.867,10.91,10.956,10.93,10.907,10.887,10.865,10.814,10.792,10.781,10.749,10.734,10.757,10.766,10.786,10.775,10.725,10.716,10.694,10.701,10.78,10.802,10.748,10.753,10.775,10.818,11.079,11.568,11.851,11.921,11.939,11.781,11.204,10.78,10.723,10.838,10.957,10.963,10.965,10.906,10.878,10.871,10.867,10.849,10.845,10.861,10.853,10.842,10.843,10.848,10.848,10.859,10.879,10.877,10.882,10.886,10.896,10.87,10.871,10.868,10.907,10.934,10.954,10.937,10.939,10.917,10.916,10.916,10.942,10.956,10.945,10.954,11.01,11.034,11.019,11.021,11.017,11.079,11.094,11.089,11.101,11.126,11.15,11.141,11.177,11.19,11.193,11.233,11.252,11.255,11.258,11.239,11.211,11.166,11.119,11.102,11.016,10.987,10.989,10.98,10.938,10.904,10.864,10.864,10.872,10.865,10.837,10.828,10.844,10.842,10.824,10.831,10.844,10.846,10.832,10.818,10.801,10.793,10.825,10.852,10.831,10.8,10.774,10.824,10.878,10.856,10.842,10.816,10.822,10.848,10.874,10.852,10.843,10.84,10.82,10.809,10.837,10.837,10.823,10.835,10.804,10.787,10.824,10.807,10.782,10.818,10.813,10.812,10.783,10.778,10.765,10.774,10.777,10.778,10.832,10.848,10.818,10.832,10.854,10.847,10.859,10.835,10.827,10.836,10.87,10.899,10.904,10.86,10.838,10.821,10.773,10.764,10.751,10.736,10.721,10.744,10.736,10.733,10.754,10.742,10.752,10.751,10.755,10.747,10.7,10.682,10.764,10.921,11.131,11.509,11.822,11.873,11.902,11.849,11.553,11.019,10.667,10.717,10.815,10.877,10.87,10.85,10.833,10.835,10.818,10.777,10.766,10.805,10.82,10.817,10.803,10.817,10.831,10.844,10.852,10.836,10.8,10.806,10.849,10.869,10.886,10.875,10.858,10.842,10.844,10.865,10.878,10.905,10.944,10.969,10.975,10.969,10.969,10.964,10.986,11,11.022,11.036,11.036,11.042,11.068,11.07,11.032,11.024,11.075,11.174,11.228,11.23,11.236,11.25,11.245,11.254,11.257,11.237,11.214,11.178,11.161,11.117,11.046,10.985,10.978,10.986,10.986,10.953,10.942,10.905,10.867,10.865,10.867,10.873,10.877,10.888,10.871,10.855,10.862,10.874,10.859,10.844,10.872,10.921,10.943,10.923,10.886,10.86,10.837,10.886,10.91,10.936,10.91,10.897,10.898,10.915,10.947,10.935,10.946,10.927,10.944,10.948,10.941,10.925,10.939,10.932,10.934,10.936,10.943,10.927,10.937,10.911,10.903,10.933,10.967,10.961,10.967,10.967,10.97,10.939,10.952,10.998,10.999,10.986,11.016,11.046,11.068,11.103,11.112,11.095,11.081,11.052,11.052,11.041,11.003,10.982,10.985,10.993,11.01,10.969,10.966,10.97,10.997,11.026,11.013,11.026,11.031,11.03,11.005,11.049,11.114,11.283,11.626,12.034,12.276,12.264,12.188,11.912,11.359,10.995,11.053,11.13,11.173,11.207,11.213,11.23,11.198,11.211,11.21,11.221,11.223,11.223,11.237,11.235,11.223,11.242,11.272,11.267,11.276,11.303,11.317,11.329,11.331,11.352,11.359,11.378,11.381,11.397,11.404,11.414,11.412,11.436,11.434,11.464,11.467,11.495,11.505,11.516,11.519,11.524,11.55,11.59,11.604,11.592,11.611,11.636,11.678,11.689,11.694,11.734,11.748,11.763,11.782,11.821,11.809,11.813,11.811,11.815,11.795,11.768,11.735,11.709,11.681,11.658,11.635,11.617,11.607,11.589,11.563,11.565,11.561,11.558,11.558,11.557,11.552,11.562,11.565,11.562,11.546,11.57,11.567,11.582,11.608,11.607,11.624,11.619,11.616,11.627,11.641,11.652,11.658,11.66,11.659,11.667,11.672,11.649,11.638,11.663,11.674,11.661,11.697,11.695,11.703,11.703,11.702,11.705,11.72,11.737,11.746,11.738,11.748,11.75,11.771,11.76,11.77,11.767,11.781,11.808,11.831,11.829,11.834,11.829,11.844,11.824,11.844,11.842,11.825,11.798,11.774,11.772,11.794,11.788,11.792,11.794,11.799,11.799,11.806,11.802,11.81,11.813,11.807,11.787,11.847,11.977,12.213,12.591,12.943,13.059,12.996,12.88,12.415,11.889,11.765,11.851,11.877,11.929,11.956,11.951,11.95,11.951,11.958,11.967,11.941,11.946,11.963,11.958,11.964,11.972,11.983,11.981,11.971,11.972,12.009,12.023,12.023,12.002,12.015,12.062,12.075,12.075,12.078,12.076,12.086,12.098,12.103,12.108,12.126,12.148,12.141,12.16,12.172,12.195,12.214,12.228,12.246,12.259,12.291,12.311,12.301,12.328,12.362,12.402,12.436,12.45,12.471,12.478,12.492,12.496,12.507,12.506,12.48,12.458,12.431,12.408,12.369,12.335,12.306,12.303,12.288,12.275,12.257,12.258,12.249,12.251,12.231,12.238,12.228,12.235,12.244,12.257,12.267,12.245,12.257,12.271,12.288,12.29,12.286,12.273,12.293,12.305,12.304,12.311,12.316,12.323,12.317,12.319,12.321,12.332,12.344,12.339,12.335,12.333,12.338,12.338,12.337,12.334,12.335,12.353,12.357,12.344,12.345,12.363,12.371,12.38,12.394,12.388,12.396,12.407,12.408,12.417,12.425,12.456,12.453,12.429,12.423,12.415,12.398,12.372,12.353,12.352,12.336,12.339,12.348,12.358,12.357,12.362,12.363,12.359,12.359,12.361,12.348,12.336,12.362,12.395,12.541,12.815,13.193,13.501,13.567,13.546,13.417,12.832,12.355,12.308,12.379,12.42,12.471,12.488,12.477,12.467,12.462,12.461,12.446,12.456,12.453,12.463,12.462,12.476,12.462,12.472,12.471,12.489,12.489,12.498,12.498,12.52,12.506,12.52,12.516,12.525,12.543,12.544,12.548,12.559,12.567,12.567,12.573,12.58,12.61,12.611,12.625,12.631,12.64,12.639,12.656,12.673,12.692,12.708,12.716,12.729,12.758,12.753,12.761,12.779,12.798,12.804,12.816,12.821,12.831,12.81,12.781,12.758,12.726,12.689,12.653,12.615,12.603,12.576,12.547,12.523,12.51,12.498,12.492,12.496,12.488,12.5,12.494,12.489,12.49,12.489,12.477,12.482,12.494,12.507,12.516,12.506,12.497,12.508,12.519,12.526,12.53,12.531,12.521,12.523,12.542,12.542,12.552,12.558,12.557,12.559,12.56,12.553,12.561,12.565,12.553,12.553,12.556,12.573,12.578,12.575,12.583,12.604,12.589,12.605,12.616,12.624,12.643,12.641,12.663,12.679,12.704,12.687,12.677,12.658,12.648,12.63,12.591,12.585,12.585,12.578,12.582,12.578,12.574,12.571,12.572,12.559,12.569,12.567,12.566,12.563,12.559,12.553,12.584,12.724,12.992,13.377,13.568,13.756,13.806,13.744,13.435,12.872,12.542,12.567,12.641,12.696,12.715,12.7,12.703,12.682,12.698,12.683,12.687,12.691,12.695,12.686,12.696,12.695,12.721,12.718,12.728,12.726,12.73,12.73,12.746,12.753,12.768,12.772,12.784,12.776,12.784,12.793,12.811,12.811,12.814,12.82,12.823,12.832,12.851,12.862,12.88,12.888,12.876,12.904,12.932,12.945,12.958,12.973,12.983,12.994,13.023,13.044,13.044,13.066,13.081,13.092,13.108,13.097,13.079,13.051,13.026,12.998,12.957,12.914,12.894,12.847,12.829,12.797,12.762,12.759,12.764,12.742,12.727,12.728,12.728,12.72,12.711,12.722,12.721,12.717,12.699,12.705,12.707,12.726,12.718,12.703,12.708,12.718,12.716,12.721,12.721,12.72,12.708,12.727,12.724,12.729,12.717,12.72,12.719,12.717,12.718,12.733,12.72,12.725,12.728,12.736,12.71,12.715,12.721,12.725,12.721
