-3.5798,-3.5807,-3.5789,-3.5879,-3.5877,-3.5779,-3.5798,-3.5751,-3.563,-3.5493,-3.5289,-3.5301,-3.5547,-3.5534,-3.5697,-3.5627,-3.5447,-3.5345,-3.5303,-3.5257,-3.5171,-3.5215,-3.5176,-3.5231,-3.5305,-3.5364,-3.5291,-3.5493,-3.6678,-3.915,-4.154,-4.4673,-4.8157,-4.9379,-4.5493,-3.3764,-1.9976,-1.3334,-1.1479,-1.3368,-1.8083,-2.2256,-2.6927,-3.0521,-3.3105,-3.4575,-3.497,-3.5334,-3.5574,-3.5828,-3.6025,-3.6224,-3.646,-3.6489,-3.6539,-3.6654,-3.6618,-3.6718,-3.6795,-3.6988,-3.719,-3.7167,-3.7127,-3.7174,-3.7392,-3.7612,-3.7596,-3.7683,-3.7792,-3.7896,-3.8072,-3.8161,-3.8329,-3.8313,-3.8462,-3.8574,-3.8709,-3.8653,-3.859,-3.8722,-3.8767,-3.8925,-3.8946,-3.8861,-3.8694,-3.8717,-3.8729,-3.8767,-3.853,-3.8475,-3.8492,-3.8732,-3.8717,-3.8579,-3.8491,-3.8633,-3.8557,-3.8316,-3.8,-3.7842,-3.7249,-3.6896,-3.6815,-3.6617,-3.6485,-3.6124,-3.6048,-3.6063,-3.5833,-3.562,-3.5546,-3.569,-3.566,-3.5468,-3.5361,-3.5408,-3.5409,-3.5404,-3.5338,-3.5356,-3.544,-3.5426,-3.549,-3.5444,-3.5418,-3.5564,-3.5523,-3.5527,-3.5552,-3.5547,-3.5373,-3.5356,-3.5416,-3.5489,-3.5557,-3.5438,-3.5264,-3.5263,-3.5331,-3.5238,-3.5295,-3.5326,-3.5251,-3.5193,-3.5135,-3.5124,-3.5243,-3.5281,-3.5136,-3.4911,-3.482,-3.4822,-3.5017,-3.4923,-3.4973,-3.4935,-3.4797,-3.4935,-3.4954,-3.4936,-3.4878,-3.4948,-3.505,-3.5179,-3.5244,-3.5202,-3.5177,-3.5314,-3.5382,-3.4992,-3.4837,-3.4597,-3.4761,-3.4948,-3.4848,-3.4847,-3.4983,-3.5213,-3.5112,-3.4781,-3.4676,-3.466,-3.4753,-3.4775,-3.467,-3.4602,-3.4502,-3.442,-3.462,-3.5479,-3.7905,-4.0573,-4.3211,-4.6908,-4.868,-4.6857,-3.6282,-2.2963,-1.5097,-1.1863,-1.2634,-1.4227,-1.8949,-2.3549,-2.8036,-3.1023,-3.3045,-3.4431,-3.4898,-3.5148,-3.5366,-3.5665,-3.5724,-3.601,-3.595,-3.6132,-3.619,-3.6309,-3.6516,-3.6761,-3.6689,-3.6529,-3.6509,-3.6819,-3.7004,-3.7191,-3.7194,-3.7263,-3.7376,-3.7536,-3.7762,-3.7927,-3.7939,-3.8033,-3.8099,-3.8286,-3.8152,-3.8257,-3.8397,-3.8456,-3.8432,-3.8568,-3.8659,-3.8496,-3.8351,-3.8357,-3.8225,-3.83,-3.8384,-3.8217,-3.8097,-3.8028,-3.8057,-3.8228,-3.8375,-3.8418,-3.842,-3.8388,-3.8071,-3.7978,-3.7866,-3.7562,-3.7212,-3.7095,-3.6886,-3.6714,-3.6388,-3.6182,-3.6101,-3.5893,-3.5776,-3.5717,-3.5628,-3.5608,-3.5619,-3.5586,-3.5556,-3.5503,-3.5549,-3.5585,-3.5615,-3.5681,-3.5717,-3.578,-3.5714,-3.5801,-3.5812,-3.5599,-3.5502,-3.5627,-3.5532,-3.55,-3.5517,-3.5491,-3.5548,-3.5688,-3.5734,-3.5591,-3.557,-3.541,-3.5361,-3.555,-3.5673,-3.5448,-3.5356,-3.5444,-3.5352,-3.5177,-3.525,-3.5137,-3.5287,-3.5215,-3.5191,-3.5147,-3.5119,-3.5272,-3.5498,-3.5542,-3.5578,-3.5519,-3.5396,-3.5431,-3.5518,-3.5401,-3.5189,-3.5112,-3.5155,-3.5238,-3.5165,-3.5199,-3.5366,-3.5353,-3.5247,-3.5144,-3.5056,-3.508,-3.5263,-3.523,-3.5161,-3.5168,-3.4995,-3.4957,-3.4922,-3.4924,-3.5838,-3.8118,-4.0497,-4.2736,-4.6073,-4.7601,-4.6436,-3.8489,-2.8265,-2.2048,-1.7605,-1.5762,-1.6186,-1.9245,-2.3846,-2.79,-3.0488,-3.2463,-3.3986,-3.5042,-3.5374,-3.5694,-3.5603,-3.5776,-3.6002,-3.6177,-3.631,-3.64,-3.6609,-3.6744,-3.658,-3.6595,-3.6627,-3.6681,-3.6977,-3.712,-3.7323,-3.733,-3.7352,-3.7481,-3.7658,-3.761,-3.7603,-3.777,-3.801,-3.8038,-3.8201,-3.8258,-3.8221,-3.8227,-3.8132,-3.8088,-3.8148,-3.8157,-3.8231,-3.838,-3.8293,-3.79,-3.7841,-3.7779,-3.772,-3.7597,-3.7592,-3.7562,-3.783,-3.796,-3.7734,-3.773,-3.7696,-3.7615,-3.7641,-3.7481,-3.7215,-3.7066,-3.6976,-3.6624,-3.615,-3.5997,-3.5899,-3.5822,-3.5763,-3.5707,-3.5617,-3.5569,-3.5591,-3.5596,-3.5531,-3.5641,-3.5474,-3.5315,-3.5347,-3.5518,-3.5457,-3.5448,-3.5371,-3.5419,-3.5474,-3.5468,-3.552,-3.5483,-3.5418,-3.5377,-3.5422,-3.5352,-3.523,-3.5166,-3.5311,-3.5441,-3.5384,-3.539,-3.5166,-3.5126,-3.5019,-3.4906,-3.4893,-3.5068,-3.5295,-3.522,-3.498,-3.4913,-3.4908,-3.4978,-3.5087,-3.525,-3.5287,-3.52,-3.5077,-3.5212,-3.525,-3.5177,-3.494,-3.4659,-3.4597,-3.4635,-3.4789,-3.4668,-3.4841,-3.4919,-3.5039,-3.4819,-3.4752,-3.491,-3.4813,-3.4701,-3.4488,-3.4622,-3.468,-3.4508,-3.4439,-3.4385,-3.5172,-3.7338,-3.9884,-4.1871,-4.5154,-4.7109,-4.6002,-3.8979,-2.7945,-2.1097,-1.6498,-1.5357,-1.7006,-2.0615,-2.47,-2.8461,-3.0985,-3.1872,-3.3534,-3.4462,-3.4954,-3.5042,-3.5273,-3.5574,-3.5743,-3.5706,-3.5766,-3.5843,-3.6119,-3.6112,-3.6222,-3.6325,-3.6529,-3.6574,-3.6701,-3.681,-3.6807,-3.6851,-3.6961,-3.6954,-3.702,-3.7235,-3.7471,-3.7489,-3.7585,-3.7654,-3.7751,-3.7892,-3.8129,-3.815,-3.8157,-3.8101,-3.8074,-3.8203,-3.8193,-3.8237,-3.8253,-3.8049,-3.7839,-3.7739,-3.7808,-3.7821,-3.7634,-3.7782,-3.7847,-3.7863,-3.7926,-3.7781,-3.7604,-3.7361,-3.7207,-3.7012,-3.6803,-3.6729,-3.6435,-3.6258,-3.5848,-3.5596,-3.564,-3.5605,-3.5307,-3.5273,-3.5324,-3.5367,-3.5264,-3.5192,-3.5251,-3.5198,-3.5158,-3.5079,-3.5032,-3.5135,-3.511,-3.5384,-3.5255,-3.52,-3.5032,-3.5022,-3.5129,-3.5125,-3.5136,-3.5199,-3.5284,-3.5255,-3.5291,-3.5174,-3.5026,-3.5093,-3.521,-3.5313,-3.5072,-3.4991,-3.493,-3.5035,-3.5034,-3.4976,-3.4924,-3.4699,-3.4703,-3.4813,-3.5142,-3.4958,-3.4943,-3.4951,-3.5082,-3.5222,-3.525,-3.54,-3.5259,-3.4831,-3.461,-3.4587,-3.4719,-3.4965,-3.4903,-3.4686,-3.4964,-3.5097,-3.492,-3.4679,-3.4554,-3.4667,-3.471,-3.4559,-3.4584,-3.4627,-3.4643,-3.4652,-3.4851,-3.6327,-3.9052,-4.1671,-4.489,-4.6643,-4.7805,-4.6627,-3.7255,-2.5094,-1.6839,-1.3049,-1.3502,-1.6623,-2.0912,-2.539,-2.9068,-3.1781,-3.3614,-3.4842,-3.536,-3.5708,-3.5855,-3.611,-3.5988,-3.607,-3.6318,-3.6518,-3.6558,-3.6683,-3.662,-3.6809,-3.7025,-3.715,-3.7229,-3.7438,-3.7631,-3.7727,-3.7833,-3.8079,-3.8305,-3.8497,-3.8525,-3.8666,-3.873,-3.8926,-3.9109,-3.9473,-3.9569,-3.9695,-3.9744,-3.9727,-3.9915,-4.0082,-4.0206,-4.0081,-4.0203,-4.0255,-4.0265,-4.0372,-4.0417,-4.0383,-4.0345,-4.035,-4.0542,-4.0717,-4.0647,-4.0726,-4.0804,-4.0525,-4.0414,-4.0204,-4.005,-3.9838,-3.9702,-3.9402,-3.9256,-3.9079,-3.9125,-3.9213,-3.926,-3.9028,-3.8981,-3.8907,-3.8967,-3.8976,-3.9129,-3.9324,-3.9526,-3.9598,-3.9594,-3.9472,-3.9629,-3.9737,-3.9923,-4.0057,-4.0222,-4.0248,-4.0307,-4.0381,-4.0418,-4.0538,-4.0613,-4.078,-4.0923,-4.1039,-4.1014,-4.1039,-4.1123,-4.1289,-4.149,-4.1706,-4.1696,-4.1777,-4.1802,-4.1682,-4.1717,-4.2016,-4.2078,-4.2105,-4.2253,-4.2334,-4.2569,-4.2777,-4.2914,-4.3009,-4.3019,-4.3158,-4.3332,-4.36,-4.3614,-4.3383,-4.3247,-4.3566,-4.4004,-4.4237,-4.412,-4.4277,-4.4232,-4.4256,-4.4551,-4.4555,-4.4581,-4.4658,-4.4742,-4.4799,-4.4941,-4.5055,-4.5251,-4.5379,-4.59,-4.7671,-5.0686,-5.3483,-5.7484,-6.0125,-6.0196,-5.1999,-3.8729,-2.7718,-2.5085,-2.3672,-2.4914,-2.9777,-3.4042,-3.9111,-4.2584,-4.5509,-4.7022,-4.8132,-4.8363,-4.895,-4.8834,-4.9275,-4.9461,-5.005,-5.0292,-5.0578,-5.0489,-5.072,-5.0583,-5.0838,-5.1044,-5.1452,-5.1676,-5.1962,-5.1966,-5.2464,-5.2686,-5.2899,-5.2777,-5.3154,-5.3428,-5.3907,-5.4175,-5.4215,-5.4476,-5.4865,-5.4897,-5.4878,-5.4994,-5.5358,-5.5526,-5.5679,-5.5872,-5.6034,-5.6021,-5.6111,-5.6197,-5.6172,-5.6201,-5.6272,-5.6594,-5.6823,-5.6824,-5.6783,-5.6967,-5.6898,-5.6934,-5.6994,-5.6901,-5.666,-5.6486,-5.626,-5.6143,-5.5982,-5.5955,-5.5688,-5.5588,-5.5474,-5.5644,-5.5749,-5.5765,-5.569,-5.5739,-5.5388,-5.5648,-5.5818,-5.584,-5.5896,-5.5971,-5.6069,-5.615,-5.6225,-5.6355,-5.6543,-5.6746,-5.6882,-5.6713,-5.6603,-5.6612,-5.6717,-5.7188,-5.7164,-5.7067,-5.6937,-5.6911,-5.6904,-5.7023,-5.7202,-5.7398,-5.7347,-5.7328,-5.7251,-5.7362,-5.7418,-5.7597,-5.7596,-5.7591,-5.7675,-5.7826,-5.7907,-5.8334,-5.8362,-5.8032,-5.7978,-5.8063,-5.8133,-5.8319,-5.8186,-5.7878,-5.782,-5.7986,-5.8208,-5.835,-5.8451,-5.8675,-5.8705,-5.8562,-5.8454,-5.8385,-5.8302,-5.8387,-5.8584,-5.8855,-5.874,-5.8645,-5.841,-5.8369,-5.9232,-6.1081,-6.3721,-6.6342,-7.0268,-7.2498,-7.2089,-6.3533,-5.0721,-4.1224,-3.6717,-3.6752,-3.973,-4.4675,-4.9072,-5.3322,-5.4895,-5.7299,-5.8855,-5.9537,-5.9703,-6.0032,-6.0259,-6.0224,-6.0387,-6.0491,-6.0812,-6.0855,-6.0967,-6.1162,-6.1334,-6.1339,-6.1428,-6.1347,-6.1576,-6.1636,-6.1842,-6.2199,-6.2518,-6.2358,-6.2217,-6.2449,-6.2705,-6.2778,-6.2844,-6.285,-6.2954,-6.3153,-6.3375,-6.336,-6.3433,-6.3421,-6.3465,-6.3391,-6.335,-6.3287,-6.3391,-6.3427,-6.3267,-6.3195,-6.3262,-6.3248,-6.3365,-6.3346,-6.3447,-6.3427,-6.3443,-6.3356,-6.3271,-6.3155,-6.3042,-6.2824,-6.2798,-6.2569,-6.2381,-6.1866,-6.1501,-6.1489,-6.1636,-6.1556,-6.1258,-6.1151,-6.0926,-6.1032,-6.102,-6.1032,-6.0989,-6.112,-6.1344,-6.1175,-6.1213,-6.1285,-6.1223,-6.1249,-6.1294,-6.1291,-6.1521,-6.1647,-6.1408,-6.1302,-6.1381,-6.1382,-6.1467,-6.1332,-6.1317,-6.1394,-6.1484,-6.1613,-6.1667,-6.1491,-6.1355,-6.1349,-6.1341,-6.1314,-6.1464,-6.16,-6.1686,-6.1512,-6.154,-6.1534,-6.1494,-6.1602,-6.1769,-6.1803,-6.1392,-6.1194,-6.1159,-6.1338,-6.1518,-6.1552,-6.1625,-6.1571,-6.1566,-6.1705,-6.1735,-6.1496,-6.1364,-6.1245,-6.139,-6.1442,-6.1341,-6.1327,-6.1408,-6.1743,-6.3007,-6.5506,-6.7614,-7.0473,-7.3634,-7.3753,-7.3136,-6.1113,-5.5409,-4.9968,-4.4052,-4.3853,-4.3731,-4.7835,-5.161,-5.5914,-5.8159,-6.0355,-6.1148,-6.2084,-6.2006,-6.2719,-6.2471,-6.296,-6.2802,-6.3413,-6.3091,-6.3295,-6.323,-6.3374,-6.3274,-6.3653,-6.3792,-6.4033,-6.3894,-6.3987,-6.3989,-6.4304,-6.4191,-6.4299,-6.4349,-6.4667,-6.4759,-6.4966,-6.4968,-6.4881,-6.4803,-6.4964,-6.5156,-6.536,-6.5218,-6.5161,-6.5177,-6.5278,-6.5253,-6.4989,-6.5,-6.5074,-6.501,-6.5023,-6.5037,-6.498,-6.473,-6.4665,-6.482,-6.507,-6.5275,-6.5227,-6.5246,-6.5048,-6.4804,-6.4497,-6.4596,-6.4169,-6.4046,-6.379,-6.3664,-6.3507,-6.3407,-6.3376,-6.3483,-6.3315,-6.3102,-6.3046,-6.3246,-6.3201,-6.3366,-6.3203,-6.3107,-6.3036,-6.3171,-6.3058,-6.3379,-6.3255,-6.3188,-6.3179,-6.3266,-6.3098,-6.319,-6.3059,-6.3143,-6.311,-6.3336,-6.3281,-6.3221,-6.3086,-6.3007,-6.2922,-6.3032,-6.3127,-6.3279,-6.294,-6.2928,-6.3123,-6.3489,-6.3427,-6.334,-6.3382,-6.3364,-6.3254,-6.3346,-6.3209,-6.2949,-6.2921,-6.3062,-6.3103,-6.3052,-6.2681,-6.2838,-6.301,-6.3153,-6.3144,-6.3105,-6.3184,-6.3005,-6.2797,-6.2713,-6.274,-6.294,-6.2961,-6.2924,-6.3299,-6.498,-6.6401,-6.8669,-7.1103,-7.4237,-7.5243,-7.3317,-6.4128,-5.4043,-4.8229,-4.4745,-4.4144,-4.6141,-5.0407,-5.4019,-5.7375,-5.9549,-6.1576,-6.2801,-6.3405,-6.3451,-6.3678,-6.358,-6.4033,-6.3871,-6.4124,-6.4188,-6.4445,-6.4347,-6.4605,-6.454,-6.4647,-6.471,-6.5046,-6.4913,-6.5038,-6.5022,-6.5236,-6.5439,-6.5607,-6.5571,-6.5523,-6.5595,-6.5792,-6.5968,-6.6155,-6.6175,-6.6302,-6.6453,-6.654,-6.6639,-6.673,-6.6755,-6.6689,-6.6674,-6.6726,-6.6582,-6.654,-6.6528,-6.6443,-6.6371,-6.6413,-6.6464,-6.6624,-6.6578,-6.6519,-6.6405,-6.623,-6.63,-6.5963,-6.5446,-6.5207,-6.5096,-6.4842,-6.4614,-6.4322,-6.4072,-6.3856,-6.386,-6.3907,-6.386,-6.386,-6.3718,-6.3613,-6.3614,-6.3721,-6.3922,-6.3881,-6.3393,-6.339,-6.3438,-6.3625,-6.3797,-6.3837,-6.3714,-6.3501,-6.3555,-6.3649,-6.3713,-6.3629,-6.3649,-6.3718,-6.3774,-6.3635,-6.3564,-6.3682,-6.3765,-6.3612,-6.364,-6.351,-6.3513,-6.3586,-6.3733,-6.3714,-6.3706,-6.3783,-6.3836,-6.388,-6.3826,-6.3781,-6.391,-6.3579,-6.3118,-6.3233,-6.3147,-6.3275,-6.3296,-6.3321,-6.363,-6.3539,-6.3458,-6.3245,-6.3145,-6.2886,-6.3006,-6.3217,-6.3183,-6.3048,-6.3002,-6.2859,-6.3014,-6.4066,-6.669,-6.9603,-7.2326,-7.5657,-7.6209,-7.2237,-6.0771,-4.8197,-4.1718,-4.0079,-4.1864,-4.6013,-5.0509,-5.469,-5.8164,-5.9322,-6.1532,-6.2911,-6.342,-6.3619,-6.3896,-6.4076,-6.4221,-6.4286,-6.4423,-6.4519,-6.4474,-6.4597,-6.4836,-6.4855,-6.4851,-6.4795,-6.4973,-6.5212,-6.5303,-6.539,-6.5335,-6.5376,-6.559,-6.5782,-6.5964,-6.5846,-6.5944,-6.6162,-6.637,-6.6577,-6.6566,-6.6705,-6.6586,-6.6485,-6.656,-6.6682,-6.6785,-6.6843,-6.6662,-6.6446,-6.6349,-6.6344,-6.6347,-6.6433,-6.6442,-6.6474,-6.6278,-6.6277,-6.6412,-6.6412,-6.6141,-6.5623,-6.5257,-6.4993,-6.4801,-6.4641,-6.441,-6.4265,-6.3785,-6.3629,-6.3567,-6.3418,-6.3265,-6.3045,-6.2885,-6.2895,-6.2976,-6.3028,-6.2962,-6.2942,-6.2806,-6.259,-6.2477,-6.2551,-6.2563,-6.2642,-6.2689,-6.2771,-6.2694,-6.2585,-6.2661,-6.2741,-6.2644,-6.2611,-6.2611,-6.2674,-6.2622,-6.2505,-6.2493,-6.2543,-6.2456,-6.243,-6.2586,-6.2911,-6.2837,-6.2737,-6.2504,-6.234,-6.2456,-6.254,-6.2709,-6.2277,-6.1934,-6.185,-6.1745,-6.1862,-6.1889,-6.2039,-6.2024,-6.2087,-6.2141,-6.2093,-6.1873,-6.1521,-6.1409,-6.1489,-6.1705,-6.1817,-6.1669,-6.1259,-6.1319,-6.2469,-6.4854,-6.7389,-7.0077,-7.3564,-7.4716,-7.2222,-6.1787,-5.0501,-4.3758,-4.0333,-4.0962,-4.4101,-4.6615,-5.0593,-5.5046,-5.767,-5.9711,-6.0664,-6.1457,-6.1715,-6.2153,-6.2036,-6.2229,-6.208,-6.2339,-6.2369,-6.2592,-6.2526,-6.2823,-6.287,-6.286,-6.2753,-6.2893,-6.2907,-6.31,-6.3114,-6.3449,-6.3538,-6.3698,-6.3584,-6.3581,-6.3539,-6.3785,-6.3817,-6.4073,-6.4288,-6.443,-6.4271,-6.4157,-6.432,-6.4307,-6.4262,-6.427,-6.4312,-6.426,-6.4134,-6.4221,-6.4257,-6.4157,-6.4148,-6.3896,-6.4,-6.3817,-6.3845,-6.3834,-6.3866,-6.3944,-6.3836,-6.3343,-6.3096,-6.3037,-6.2842,-6.2388,-6.2099,-6.1894,-6.1646,-6.1594,-6.1487,-6.1404,-6.1415,-6.1185,-6.1135,-6.1055,-6.0971,-6.0849,-6.0792,-6.0871,-6.0886,-6.0906,-6.087,-6.0852,-6.089,-6.0869,-6.0842,-6.0864,-6.0875,-6.0954,-6.1098,-6.1031,-6.0689,-6.0517,-6.0658,-6.0827,-6.0877,-6.0599,-6.0526,-6.0417,-6.0325,-6.0288,-6.0324,-6.0234,-6.0286,-6.0287,-6.0337,-6.0238,-6.0399,-6.0518,-6.0785,-6.0565,-6.0463,-6.0325,-6.0357,-6.0159,-5.992,-5.9901,-5.9771,-5.9706,-5.9804,-5.9944,-6.0041,-6.0083,-5.9983,-5.9838,-5.9765,-5.9661,-5.9596,-5.9476,-5.9427,-5.9202,-5.933,-5.9307,-5.9295,-5.9709,-6.1357,-6.4213,-6.6675,-7.0443,-7.3019,-7.3147,-7.0317,-5.8712,-4.5221,-3.8097,-3.5858,-3.7351,-4.1783,-4.6317,-5.1042,-5.4588,-5.6987,-5.8553,-5.9137,-5.9622,-5.9797,-5.9782,-5.9825,-6.0118,-6.0191,-6.0337,-6.0358,-6.0501,-6.0451,-6.0376,-6.0498,-6.0703,-6.0901,-6.1197,-6.1167,-6.1057,-6.1032,-6.1173,-6.1164,-6.1337,-6.1612,-6.1839,-6.1858,-6.187,-6.1823,-6.1923,-6.2207,-6.2224,-6.2223,-6.2304,-6.2298,-6.2399,-6.2462,-6.2546,-6.2437,-6.2408,-6.2239,-6.2219,-6.2124,-6.2083,-6.2215,-6.2367,-6.2299,-6.2282,-6.2169,-6.2161,-6.2282,-6.2232,-6.215,-6.1723,-6.1329,-6.1116,-6.0755,-6.0388,-6.0124,-5.9916,-5.9722,-5.953,-5.9406,-5.929,-5.9137,-5.9197,-5.9152,-5.914,-5.9071,-5.8964,-5.8908,-5.8859,-5.8933,-5.8993,-5.9061,-5.9183,-5.8952,-5.8801,-5.8659,-5.8754,-5.8821,-5.8913,-5.8774,-5.8787,-5.8741,-5.8934,-5.896,-5.9042,-5.8883,-5.8614,-5.8432,-5.8383,-5.8446,-5.8467,-5.8565,-5.8674,-5.8762,-5.8639,-5.8212,-5.8031,-5.8084,-5.8138,-5.8162,-5.8154,-5.8081,-5.8008,-5.8094,-5.8066,-5.8085,-5.818,-5.8164,-5.8294,-5.8151,-5.8087,-5.8219,-5.8326,-5.8511,-5.8247,-5.791,-5.7638,-5.7681,-5.7801,-5.7884,-5.7865,-5.8034,-5.8039,-5.7966,-5.7779,-5.7771,-5.7951,-5.7898,-5.7706,-5.7424,-5.7319,-5.7454,-5.7467,-5.7479,-5.7839,-5.9168,-6.1309,-6.3688,-6.7032,-7.0608,-7.1415,-7.0632,-6.1333,-4.7862,-3.8307,-3.4626,-3.5129,-3.8273,-4.312,-4.7494,-5.1689,-5.4525,-5.65,-5.7094,-5.7592,-5.7781,-5.7897,-5.8017,-5.8232,-5.8447,-5.8582,-5.8773,-5.877,-5.8581,-5.8716,-5.8764,-5.8893,-5.8953,-5.917,-5.9332,-5.9452,-5.9457,-5.9595,-5.9749,-5.9749,-5.969,-5.993,-6.0125,-6.025,-6.0218,-6.0262,-6.0288,-6.0451,-6.049,-6.0485,-6.0567,-6.0579,-6.0601,-6.0625,-6.0608,-6.068,-6.0552,-6.0406,-6.0283,-6.0386,-6.0548,-6.0504,-6.0469,-6.0297,-6.0277,-6.0571,-6.0627,-6.0383,-6.0252,-6.0074,-5.9829,-5.9608,-5.9305,-5.9133,-5.8905,-5.8546,-5.8375,-5.8137,-5.801,-5.7773,-5.7612,-5.7599,-5.7492,-5.759,-5.7505,-5.7455,-5.751,-5.7459,-5.748,-5.7309,-5.7328,-5.7366,-5.7436,-5.7446,-5.7521,-5.7576,-5.7579,-5.7267,-5.7305,-5.7221,-5.731,-5.737,-5.7364,-5.7303,-5.7063,-5.7079,-5.7211,-5.7279,-5.7261,-5.708,-5.6853,-5.6834,-5.6935,-5.684,-5.6867,-5.7006,-5.7019,-5.6761,-5.6717,-5.6604,-5.6559,-5.6634,-5.6679,-5.6735,-5.6623,-5.6474,-5.6503,-5.6559,-5.6691,-5.6562,-5.656,-5.6427,-5.6503,-5.6744,-5.6762,-5.6733,-5.6747,-5.6826,-5.6827,-5.6688,-5.6438,-5.6353,-5.6273,-5.6456,-5.6525,-5.6504,-5.6469,-5.6726,-5.6778,-5.6639,-5.6468,-5.6306,-5.6134,-5.613,-5.6258,-5.633,-5.6233,-5.6104,-5.6058,-5.6042,-5.6759,-5.7583,-6.0049,-6.2443,-6.5536,-6.8765,-6.917,-6.5797,-5.4755,-4.4253,-3.812,-3.5489,-3.6327,-3.9754,-4.4198,-4.8295,-5.1451,-5.3807,-5.5448,-5.5939,-5.6233,-5.642,-5.6672,-5.6758,-5.7083,-5.7294,-5.7429,-5.7391,-5.7599,-5.751,-5.7509,-5.7376,-5.7584,-5.7786,-5.814,-5.8227,-5.8381,-5.8331,-5.8344,-5.8434,-5.8327,-5.8321,-5.8502,-5.8623,-5.8828,-5.9074,-5.9102,-5.8962,-5.9139,-5.9374,-5.9293,-5.9269,-5.9126,-5.9118,-5.9158,-5.9259,-5.913,-5.8966,-5.8896,-5.8899,-5.9094,-5.8967,-5.864,-5.8671,-5.8699,-5.8847,-5.8885,-5.8988,-5.8972,-5.8846,-5.8844,-5.8682,-5.8346,-5.7915,-5.7589,-5.7535,-5.7393,-5.7174,-5.6922,-5.6829,-5.6676,-5.6573,-5.6433,-5.6493,-5.6582,-5.6542,-5.6349,-5.6152,-5.6261,-5.6532,-5.6613,-5.64,-5.6176,-5.6302,-5.6239,-5.6189,-5.62,-5.6369,-5.6409,-5.6341,-5.6288,-5.6288,-5.6251,-5.6251,-5.6195,-5.6098,-5.6148,-5.6144,-5.6066,-5.5987,-5.5848,-5.5997,-5.5967,-5.5915,-5.5935,-5.5774,-5.5751,-5.5768,-5.5724,-5.5775,-5.5799,-5.583,-5.5737,-5.5629,-5.5622,-5.5742,-5.5859,-5.6015,-5.6024,-5.5963,-5.5817,-5.5764,-5.5444,-5.5377,-5.5323,-5.546,-5.558,-5.5534,-5.5614,-5.5626,-5.5621,-5.5552,-5.5507,-5.5441,-5.5344,-5.537,-5.5264,-5.5284,-5.5371,-5.524,-5.518,-5.5383,-5.6675,-5.9143,-6.1433,-6.421,-6.6005,-6.7779,-6.6733,-5.9657,-4.8999,-4.2027,-3.7447,-3.5921,-3.7593,-4.0965,-4.537,-4.8847,-5.1626,-5.332,-5.4843,-5.5392,-5.5919,-5.5722,-5.5907,-5.5843,-5.6065,-5.6151,-5.6671,-5.6527,-5.6648,-5.6573,-5.6778,-5.6679,-5.6866,-5.6843,-5.7166,-5.7184,-5.7281,-5.7314,-5.7463,-5.7564,-5.7754,-5.7785,-5.7904,-5.7868,-5.7989,-5.8241,-5.8467,-5.8402,-5.821,-5.8141,-5.8286,-5.8435,-5.8524,-5.8467,-5.839,-5.8261,-5.8238,-5.8154,-5.796,-5.7966,-5.8008,-5.7968,-5.7911,-5.7804,-5.7884,-5.8052,-5.7958,-5.7964,-5.7939,-5.7751,-5.747,-5.7102,-5.6878,-5.6733,-5.6553,-5.6422,-5.6157,-5.597,-5.5768,-5.5662,-5.5512,-5.554,-5.5565,-5.5561,-5.5474,-5.5302,-5.5303,-5.5457,-5.547,-5.5339,-5.5223,-5.5269,-5.5418,-5.5478,-5.5411,-5.529,-5.5349,-5.541,-5.5204,-5.5248,-5.5223,-5.5298,-5.5278,-5.5231,-5.5179,-5.5124,-5.5092,-5.5164,-5.5129,-5.5241,-5.5124,-5.5021,-5.4984,-5.5055,-5.497,-5.4923,-5.4905,-5.5053,-5.4968,-5.4892,-5.4729,-5.4817,-5.4768,-5.4846,-5.4689,-5.4691,-5.4689,-5.4868,-5.5117,-5.5115,-5.484,-5.4822,-5.4892,-5.504,-5.4898,-5.4618,-5.4356,-5.4326,-5.4447,-5.4606,-5.4754,-5.5036,-5.4833,-5.4755,-5.4689,-5.4491,-5.4306,-5.4266,-5.4368,-5.4494,-5.4491,-5.4262,-5.4049,-5.4131,-5.4874,-5.6813,-5.9543,-6.1972,-6.5654,-6.7119,-6.7658,-6.3887,-5.2088,-3.9968,-3.3705,-3.1868,-3.3224,-3.733,-4.1657,-4.6515,-4.9802,-5.1071,-5.3419,-5.4222,-5.4586,-5.4971,-5.4956,-5.5198,-5.5272,-5.5458,-5.5456,-5.5731,-5.5628,-5.5861,-5.5732,-5.5836,-5.5784,-5.6,-5.6057,-5.644,-5.6651,-5.6688,-5.6517,-5.6549,-5.6589,-5.6805,-5.6852,-5.7108,-5.7201,-5.7408,-5.7489,-5.7661,-5.7728,-5.7776,-5.7702,-5.7608,-5.777,-5.7909,-5.7935,-5.7843,-5.7661,-5.7655,-5.7704,-5.7592,-5.7663,-5.7332,-5.7354,-5.7405,-5.7437,-5.7431,-5.7545,-5.7577,-5.7484,-5.7187,-5.7004,-5.6885,-5.6682,-5.621,-5.5802,-5.5611,-5.5399,-5.5131,-5.4948,-5.4785,-5.4823,-5.4696,-5.4783,-5.4618,-5.4431,-5.4271,-5.4216,-5.432,-5.4354,-5.4305,-5.4371,-5.4233,-5.4411,-5.441,-5.4545,-5.4735,-5.4611,-5.4373,-5.4241,-5.4209,-5.4314,-5.4279,-5.433,-5.4272,-5.4324,-5.4209,-5.4406,-5.4311,-5.4203,-5.4082,-5.4131,-5.4057,-5.4129,-5.4139,-5.4007,-5.3959,-5.3904,-5.3967,-5.4019,-5.3892,-5.3654,-5.3652,-5.3754,-5.3721,-5.3724,-5.3776,-5.3863,-5.3848,-5.395,-5.3874,-5.3912,-5.3942,-5.398,-5.3777,-5.3616,-5.3451,-5.3452,-5.3664,-5.3758,-5.4044,-5.4081,-5.3874,-5.368,-5.355,-5.3388,-5.3299,-5.3214,-5.3261,-5.3391,-5.3355,-5.3239,-5.3173,-5.3183,-5.3865,-5.5927,-5.8637,-6.129,-6.5158,-6.7347,-6.6486,-6.2637,-5.0455,-3.7284,-3.134,-2.9757,-3.196,-3.659,-4.102,-4.5557,-4.8896,-5.1285,-5.2778,-5.3279,-5.3566,-5.3728,-5.4054,-5.4159,-5.4253,-5.4312,-5.4448,-5.4548,-5.4784,-5.4616,-5.4599,-5.4727,-5.4875,-5.5084,-5.51,-5.5072,-5.5205,-5.5454,-5.569,-5.5535,-5.5598,-5.5811,-5.6051,-5.5992,-5.5961,-5.6085,-5.6214,-5.6547,-5.6723,-5.6652,-5.6565,-5.6554,-5.6618,-5.6678,-5.6736,-5.6634,-5.6695,-5.6584,-5.6495,-5.634,-5.6412,-5.6403,-5.6524,-5.6485,-5.6574,-5.6565,-5.6524,-5.6722,-5.6541,-5.6105,-5.5927,-5.5603,-5.5404,-5.5079,-5.4607,-5.4344,-5.4188,-5.4078,-5.4005,-5.372,-5.3528,-5.3517,-5.351,-5.3484,-5.3408,-5.3346,-5.3459,-5.337,-5.327,-5.319,-5.3183,-5.32,-5.3297,-5.3392,-5.3509,-5.3525,-5.3269,-5.3209,-5.3162,-5.3258,-5.3262,-5.3202,-5.318,-5.3194,-5.3331,-5.3321,-5.3188,-5.3203,-5.319,-5.3033,-5.288,-5.2832,-5.2867,-5.2911,-5.2892,-5.2796,-5.2759,-5.2783,-5.2854,-5.2783,-5.2601,-5.265,-5.264,-5.2508,-5.2473,-5.251,-5.2561,-5.2577,-5.2672,-5.2784,-5.2821,-5.2726,-5.2722,-5.2953,-5.3074,-5.2701,-5.2298,-5.2117,-5.2173,-5.2318,-5.2442,-5.2552,-5.2685,-5.2643,-5.2463,-5.2258,-5.2268,-5.2196,-5.214,-5.212,-5.214,-5.2192,-5.2109,-5.203,-5.2177,-5.3204,-5.5349,-5.7652,-6.0606,-6.437,-6.5936,-6.3673,-5.8588,-4.5965,-3.4282,-2.9638,-2.8915,-3.1797,-3.6632,-4.1489,-4.5647,-4.8534,-5.0367,-5.1661,-5.1978,-5.2482,-5.2596,-5.2945,-5.288,-5.3194,-5.3204,-5.3361,-5.3277,-5.3392,-5.3305,-5.3392,-5.3468,-5.3626,-5.3603,-5.3879,-5.3997,-5.4254,-5.4248,-5.4281,-5.4366,-5.4442,-5.4524,-5.4839,-5.4775,-5.4851,-5.4998,-5.5024,-5.5078,-5.5122,-5.5134,-5.5204,-5.5383,-5.5497,-5.5495,-5.5299,-5.5178,-5.5187,-5.5163,-5.5192,-5.5216,-5.5091,-5.5093,-5.5044,-5.5066,-5.5162,-5.5159,-5.5297,-5.5244,-5.497,-5.4913,-5.4735,-5.4548,-5.4296,-5.3914,-5.3666,-5.3427,-5.3326,-5.3117,-5.2957,-5.2573,-5.235,-5.2528,-5.2491,-5.2371,-5.2194,-5.2042,-5.2195,-5.2369,-5.229,-5.2266,-5.2324,-5.2302,-5.2266,-5.2302,-5.2198,-5.2127,-5.2186,-5.2174,-5.2285,-5.2282,-5.206,-5.2056,-5.2079,-5.2127,-5.2111,-5.2151,-5.2129,-5.2077,-5.1965,-5.1954,-5.1944,-5.1815,-5.186,-5.1748,-5.1826,-5.1971,-5.1739,-5.1619,-5.1573,-5.1558,-5.1499,-5.149,-5.1471,-5.1573,-5.1584,-5.1722,-5.1753,-5.1962,-5.2021,-5.1951,-5.1706,-5.1719,-5.1841,-5.1612,-5.1389,-5.1246,-5.1225,-5.1377,-5.1451,-5.1625,-5.169,-5.1572,-5.1337,-5.1345,-5.1221,-5.1243,-5.1258,-5.1492,-5.1606,-5.1429,-5.1077,-5.0924,-5.1129,-5.2034,-5.4242,-5.6751,-5.8869,-6.2086,-6.3679,-6.2617,-5.4631,-4.4228,-4.07,-3.4823,-3.228,-3.2779,-3.5431,-4.0035,-4.3643,-4.6847,-4.8728,-5.0276,-5.0789,-5.1341,-5.1579,-5.1917,-5.1848,-5.2108,-5.2153,-5.2543,-5.2394,-5.2475,-5.2322,-5.2606,-5.2673,-5.2926,-5.2873,-5.3031,-5.2951,-5.3095,-5.3166,-5.3318,-5.348,-5.3413,-5.3487,-5.3529,-5.3524,-5.3755,-5.382,-5.3957,-5.3996,-5.4148,-5.417,-5.4074,-5.4128,-5.4092,-5.3939,-5.4026,-5.3776,-5.3802,-5.3792,-5.3805,-5.3613,-5.3744,-5.3606,-5.3311,-5.3343,-5.3343,-5.3522,-5.3624,-5.3712,-5.3708,-5.3666,-5.3427,-5.3372,-5.3103,-5.2677,-5.2235,-5.2061,-5.1875,-5.1912,-5.173,-5.155,-5.1368,-5.1357,-5.1313,-5.1326,-5.1186,-5.1101,-5.1091,-5.1245,-5.1288,-5.136,-5.131,-5.1396,-5.1284,-5.1191,-5.1103,-5.1221,-5.1202,-5.1207,-5.1122,-5.1079,-5.0976,-5.1153,-5.104,-5.1023,-5.1023,-5.1029,-5.0958,-5.1073,-5.1022,-5.0977,-5.0905,-5.1102,-5.1123,-5.1046,-5.0667,-5.0678,-5.0584,-5.0762,-5.0838,-5.078,-5.0727,-5.0695,-5.0702,-5.0761,-5.0884,-5.0943,-5.0841,-5.0976,-5.1169,-5.1122,-5.0729,-5.0479,-5.0375,-5.0406,-5.0415,-5.0475,-5.0588,-5.0823,-5.0768,-5.0768,-5.0689,-5.0529,-5.0263,-5.02,-5.0221,-5.0213,-5.0242,-5.0284,-5.0227,-5.0651,-5.2149,-5.4754,-5.6666,-5.9697,-6.2975,-6.2744,-5.8635,-4.7384,-3.7925,-3.2157,-3.0343,-3.131,-3.4428,-3.8896,-4.0923,-4.4554,-4.7112,-4.8927,-4.9999,-5.0688,-5.0851,-5.1027,-5.1056,-5.1117,-5.137,-5.156,-5.1503,-5.1541,-5.171,-5.1979,-5.2076,-5.1986,-5.1995,-5.2019,-5.2137,-5.2232,-5.2368,-5.2484,-5.2694,-5.2776,-5.289,-5.2959,-5.323,-5.3442,-5.3326,-5.314,-5.3246,-5.3347,-5.3454,-5.3567,-5.3866,-5.3834,-5.3868,-5.3752,-5.3652,-5.3428,-5.3437,-5.3446,-5.3593,-5.3318,-5.3123,-5.3092,-5.3162,-5.3212,-5.3357,-5.3388,-5.3347,-5.3156,-5.2919,-5.254,-5.2458,-5.2382,-5.2094,-5.1806,-5.1408,-5.1063,-5.1052,-5.082,-5.0771,-5.0573,-5.058,-5.0535,-5.0466,-5.0467,-5.0396,-5.0158,-5.0299,-5.0329,-5.029,-5.0184,-5.0278,-5.0347,-5.0403,-5.0405,-5.0363,-5.0262,-5.0254,-5.0316,-5.0363,-5.019,-5.0126,-5.0203,-5.0406,-5.0388,-5.0249,-5.0044,-5.0074,-5.011,-5.022,-5.0095,-4.9907,-4.9904,-4.9982,-4.9909,-4.9909,-4.9875,-4.9879,-4.9947,-5.0024,-4.9836,-4.9759,-4.9784,-4.9782,-4.9846,-4.9825,-4.9971,-5.0045,-5.0037,-5.0017,-5.015,-5.011,-5.0123,-4.9923,-4.9681,-4.9481,-4.9393,-4.9537,-4.9698,-4.9753,-4.9841,-4.9829,-4.9769,-4.973,-4.9738,-4.955,-4.9477,-4.9466,-4.9418,-4.9354,-4.9352,-4.9268,-4.9273,-4.9719,-5.131,-5.399,-5.6481,-6.0075,-6.2984,-6.3284,-5.6386,-4.3473,-3.1859,-2.688,-2.6666,-2.9095,-3.4015,-3.8201,-4.2662,-4.5714,-4.7072,-4.8476,-4.9315,-4.9531,-4.9986,-5.0091,-5.0304,-5.0285,-5.0474,-5.0554,-5.0895,-5.092,-5.1072,-5.0997,-5.113,-5.1111,-5.1211,-5.1168,-5.1425,-5.1524,-5.168,-5.1634,-5.175,-5.1722,-5.2035,-5.2256,-5.2353,-5.2348,-5.2437,-5.2505,-5.2671,-5.2816,-5.2998,-5.295,-5.2959,-5.3006,-5.2972,-5.3009,-5.3093,-5.3041,-5.3021,-5.3004,-5.2767,-5.2787,-5.2793,-5.2856,-5.2828,-5.2818,-5.2823,-5.2703,-5.2692,-5.2661,-5.2602,-5.2167,-5.1778,-5.1434,-5.1292,-5.0897,-5.0702,-5.0713,-5.0414,-5.0184,-4.9999,-4.9917,-4.9878,-4.9774,-4.9593,-4.9599,-4.9622,-4.9665,-4.9571,-4.9347,-4.9338,-4.9429,-4.9423,-4.9665,-4.961,-4.9546,-4.9526,-4.96,-4.9562,-4.9537,-4.9518,-4.9533,-4.9451,-4.9481,-4.942,-4.9502,-4.9494,-4.954,-4.9475,-4.9458,-4.925,-4.9251,-4.9252,-4.9316,-4.9323,-4.9306,-4.9163,-4.9107,-4.9043,-4.9042,-4.9047,-4.8956,-4.8865,-4.8837,-4.8846,-4.8996,-4.9076,-4.9173,-4.9274,-4.9472,-4.943,-4.9096,-4.9096,-4.8878,-4.8721,-4.8791,-4.8733,-4.8728,-4.8742,-4.8858,-4.9023,-4.9237,-4.9047,-4.8746,-4.848,-4.85,-4.8467,-4.8533,-4.8522,-4.8535,-4.863,-4.8755,-4.8584,-4.8385,-4.8616,-5.0321,-5.3197,-5.5615,-5.9217,-6.2121,-6.2477,-5.5699,-4.2682,-3.0814,-2.5946,-2.5341,-2.7917,-3.3033,-3.7284,-4.1869,-4.4802,-4.7128,-4.8243,-4.8729,-4.8738,-4.8969,-4.9085,-4.9361,-4.9456,-4.9641,-4.9594,-4.9782,-4.9912,-5.0046,-4.9916,-5.0042,-5.0158,-5.0181,-5.031,-5.0505,-5.0757,-5.0798,-5.0983,-5.0951,-5.0919,-5.0944,-5.11,-5.1331,-5.1366,-5.1449,-5.1484,-5.1556,-5.1756,-5.1919,-5.1902,-5.1877,-5.1871,-5.1864,-5.1908,-5.1888,-5.1997,-5.1968,-5.1902,-5.1729,-5.1618,-5.1505,-5.1625,-5.1702,-5.1824,-5.1715,-5.1741,-5.161,-5.1482,-5.1238,-5.1082,-5.0786,-5.0627,-5.0358,-5.0118,-4.9844,-4.9561,-4.9368,-4.9344,-4.9242,-4.9044,-4.885,-4.8748,-4.8668,-4.8738,-4.863,-4.8573,-4.877,-4.8799,-4.8639,-4.8509,-4.8446,-4.8548,-4.8661,-4.8864,-4.8766,-4.8686,-4.8564,-4.8568,-4.8748,-4.8792,-4.8582,-4.843,-4.8341,-4.8463,-4.8578,-4.855,-4.8554,-4.8454,-4.8326,-4.832,-4.8269,-4.8212,-4.8136,-4.8239,-4.8238,-4.8251,-4.8199,-4.8287,-4.8269,-4.8371,-4.8107,-4.7838,-4.7788,-4.7802,-4.792,-4.806,-4.8085,-4.7858,-4.7972,-4.8122,-4.8136,-4.7983,-4.7862,-4.8054,-4.8136,-4.8135,-4.8088,-4.8209,-4.8002,-4.7777,-4.7856,-4.7901,-4.7901,-4.781,-4.7867,-4.7974,-4.8031,-4.7858,-4.7785,-4.7981,-4.7834,-4.7593,-4.7523,-4.7681,-4.7704,-4.7664,-4.7587,-4.7491,-4.7698,-4.9312,-5.1964,-5.4184,-5.7519,-6.0564,-6.0878,-5.6181,-4.4573,-3.4479,-2.8641,-2.6336,-2.7726,-3.1619,-3.632,-4.0507,-4.2282,-4.4672,-4.6606,-4.7411,-4.7944,-4.7936,-4.8483,-4.8499,-4.8692,-4.8607,-4.8814,-4.8577,-4.8945,-4.8986,-4.9193,-4.9115,-4.9407,-4.9402,-4.9632,-4.9559,-4.9639,-4.9753,-5.0032,-4.999,-5.0085,-5.0031,-5.0122,-5.0244,-5.0409,-5.0394,-5.058,-5.0629,-5.0707,-5.0676,-5.0694,-5.0629,-5.0729,-5.0709,-5.0749,-5.0769,-5.0749,-5.0631,-5.0646,-5.0574,-5.0413,-5.037,-5.0249,-5.0269,-5.0343,-5.0464,-5.0679,-5.059,-5.068,-5.0459,-5.0157,-4.9873,-4.9625,-4.9582,-4.9436,-4.9145,-4.8867,-4.8682,-4.8592,-4.8488,-4.8305,-4.8244,-4.8239,-4.8279,-4.8272,-4.8136,-4.7896,-4.7886,-4.7952,-4.8158,-4.8205,-4.8201,-4.7841,-4.7855,-4.7956,-4.8215,-4.8009,-4.7857,-4.7805,-4.7873,-4.7925,-4.8012,-4.7886,-4.7929,-4.7956,-4.7919,-4.7794,-4.7753,-4.7823,-4.7766,-4.7769,-4.7796,-4.7673,-4.7658,-4.7526,-4.7631,-4.7389,-4.7426,-4.744,-4.7518,-4.7371,-4.73,-4.7249,-4.7422,-4.7426,-4.7334,-4.7304,-4.744,-4.7596,-4.7582,-4.7624,-4.7602,-4.75,-4.7374,-4.7317,-4.7414,-4.7406,-4.7263,-4.694,-4.692,-4.7135,-4.7152,-4.72,-4.7313,-4.7475,-4.7452,-4.7341,-4.7099,-4.698,-4.7075,-4.7093,-4.7127,-4.7052,-4.7005,-4.6955,-4.7078,-4.8119,-5.0235,-5.2476,-5.4898,-5.813,-5.9358,-5.7731,-4.9301,-3.9409,-3.365,-2.9592,-2.8149,-2.9993,-3.4059,-3.805,-4.0073,-4.2706,-4.4722,-4.5822,-4.6842,-4.7257,-4.7683,-4.7722,-4.7918,-4.7829,-4.8088,-4.8143,-4.8339,-4.8442,-4.8584,-4.864,-4.8804,-4.8691,-4.8967,-4.8999,-4.9009,-4.8926,-4.9029,-4.9092,-4.9199,-4.9359,-4.9659,-4.9707,-4.9756,-4.9784,-4.9839,-4.9913,-4.9992,-4.9969,-5.0059,-5.0115,-5.0097,-5.0076,-5.0023,-5.009,-5.0088,-5.0014,-4.9879,-4.983,-4.9548,-4.94,-4.9395,-4.9421,-4.9476,-4.9643,-4.9537,-4.9474,-4.9478,-4.9483,-4.9259,-4.9135,-4.89,-4.8807,-4.8803,-4.85,-4.8161,-4.8032,-4.7792,-4.7655,-4.7298,-4.721,-4.7246,-4.7313,-4.7127,-4.7129,-4.7258,-4.7273,-4.7212,-4.7214,-4.714,-4.7076,-4.7185,-4.7175,-4.717,-4.7179,-4.7205,-4.726,-4.717,-4.7189,-4.7062,-4.7011,-4.706,-4.706,-4.7052,-4.7041,-4.7009,-4.6939,-4.6866,-4.6976,-4.694,-4.6929,-4.6907,-4.6937,-4.6937,-4.6857,-4.678,-4.6778,-4.6624,-4.6638,-4.661,-4.659,-4.6566,-4.665,-4.6647,-4.6658,-4.6826,-4.6826,-4.6713,-4.6823,-4.676,-4.6781,-4.6805,-4.6514,-4.6323,-4.6311,-4.635,-4.6391,-4.6434,-4.671,-4.6927,-4.6796,-4.6532,-4.655,-4.6434,-4.6229,-4.6173,-4.6164,-4.6366,-4.637,-4.6194,-4.6193,-4.6555,-4.7625,-4.9987,-5.2481,-5.5403,-5.8759,-5.9304,-5.6042,-4.5142,-3.4039,-2.7676,-2.5342,-2.6361,-2.9573,-3.3901,-3.8257,-4.1595,-4.3649,-4.5421,-4.5822,-4.6485,-4.6727,-4.709,-4.7224,-4.7383,-4.75,-4.7704,-4.7622,-4.7746,-4.7707,-4.7867,-4.7832,-4.8003,-4.8218,-4.8483,-4.8415,-4.8404,-4.8365,-4.8562,-4.8655,-4.8895,-4.8989,-4.9064,-4.9139,-4.9472,-4.9526,-4.9654,-4.9655,-4.9746,-4.9796,-4.9846,-4.986,-4.978,-4.987,-5.0214,-5.007,-4.9888,-4.9822,-4.9656,-4.9568,-4.9543,-4.9525,-4.9493,-4.9423,-4.9501,-4.9581,-4.9614,-4.9514,-4.9373,-4.9248,-4.8983,-4.8754,-4.8453,-4.8148,-4.7821,-4.751,-4.7166,-4.7065,-4.6817,-4.6848,-4.697,-4.6889,-4.6718,-4.6491,-4.6417,-4.6426,-4.6332,-4.6489,-4.6563,-4.6468,-4.6393,-4.6348,-4.6379,-4.6431,-4.6452,-4.6514,-4.6469,-4.6434,-4.6387,-4.6403,-4.6464,-4.6535,-4.6534,-4.6442,-4.6338,-4.6317,-4.6312,-4.6245,-4.6145,-4.6339,-4.6356,-4.6298,-4.6245,-4.623,-4.6141,-4.6079,-4.6076,-4.6155,-4.6126,-4.6218,-4.6144,-4.5898,-4.5969,-4.5957,-4.5674,-4.5748,-4.5754,-4.5883,-4.5869,-4.602,-4.6148,-4.6217,-4.6165,-4.5991,-4.5963,-4.6075,-4.6103,-4.5888,-4.5728,-4.5566,-4.5701,-4.5917,-4.5838,-4.5959,-4.6025,-4.5791,-4.5623,-4.5625,-4.5495,-4.5475,-4.5566,-4.5634,-4.5532,-4.5493,-4.5442,-4.5412,-4.5445,-4.6465,-4.8934,-5.1616,-5.4432,-5.8095,-5.9613,-5.6717,-4.5309,-3.1474,-2.3961,-2.1839,-2.3606,-2.768,-3.2228,-3.6777,-4.0516,-4.3056,-4.4152,-4.5237,-4.5828,-4.6005,-4.6225,-4.6255,-4.6559,-4.6594,-4.6808,-4.6799,-4.6953,-4.6892,-4.7228,-4.7328,-4.7384,-4.7207,-4.7321,-4.7489,-4.7794,-4.7911,-4.8153,-4.7945,-4.7908,-4.7963,-4.8175,-4.8318,-4.8627,-4.8904,-4.8891,-4.8832,-4.8879,-4.8995,-4.91,-4.9168,-4.9267,-4.9274,-4.92,-4.9145,-4.9258,-4.9256,-4.9234,-4.9177,-4.9179,-4.9197,-4.9052,-4.8836,-4.9189,-4.9174,-4.8955,-4.8811,-4.8758,-4.8611,-4.8288,-4.8181,-4.8045,-4.7797,-4.7243,-4.6883,-4.672,-4.6527,-4.6417,-4.6323,-4.6181,-4.6144,-4.6105,-4.5917,-4.5755,-4.5647,-4.5594,-4.572,-4.5626,-4.5599,-4.5502,-4.5537,-4.5583,-4.5745,-4.5732,-4.5774,-4.5747,-4.569,-4.5747,-4.5718,-4.5702,-4.5581,-4.559,-4.5893,-4.6043,-4.5759,-4.5482,-4.5473,-4.5419,-4.5509,-4.5405,-4.5325,-4.5354,-4.5479,-4.5404,-4.5361,-4.526,-4.5229,-4.5377,-4.5406,-4.5243,-4.5071,-4.5154,-4.5238,-4.5358,-4.5297,-4.5115,-4.4964,-4.495,-4.504,-4.5158,-4.508,-4.4951,-4.492,-4.4908,-4.4955,-4.4996,-4.5045,-4.5083,-4.5306,-4.5363,-4.5346,-4.5173,-4.5275,-4.522,-4.5196,-4.5073,-4.4849,-4.4859,-4.4908,-4.4746,-4.4945,-4.516,-4.5149,-4.5097,-4.4947,-4.4859,-4.4843,-4.4661,-4.4652,-4.4612,-4.4591,-4.4574,-4.456,-4.4792,-4.5781,-4.7853,-5.0656,-5.3226,-5.6957,-5.8686,-5.6762,-4.6089,-3.8961,-2.7033,-2.145,-2.1559,-2.3391,-2.9122,-3.2968,-3.8156,-4.0566,-4.3283,-4.398,-4.5105,-4.4928,-4.5732,-4.5602,-4.6265,-4.5744,-4.5889,-4.5567,-4.6006,-4.5731,-4.6258,-4.6195,-4.6684,-4.652,-4.6798,-4.6512,-4.6811,-4.6672,-4.6966,-4.6842,-4.718,-4.7178,-4.7513,-4.7528,-4.804,-4.8023,-4.8092,-4.7878,-4.7868,-4.7858,-4.8247,-4.8286,-4.8287,-4.8204,-4.8304,-4.8285,-4.8221,-4.8341,-4.8463,-4.8467,-4.8147,-4.8045,-4.7986,-4.8089,-4.8137,-4.8254,-4.838,-4.8437,-4.813,-4.8058,-4.7744,-4.7676,-4.7331,-4.7084,-4.6709,-4.6456,-4.6154,-4.6115,-4.5936,-4.5691,-4.5248,-4.5283,-4.5225,-4.5354,-4.5022,-4.4941,-4.4746,-4.4932,-4.5102,-4.5296,-4.5028,-4.4912,-4.4776,-4.4823,-4.4742,-4.4962,-4.4811,-4.4895,-4.4875,-4.5005,-4.4843,-4.4869,-4.4733,-4.4988,-4.4928,-4.505,-4.4893,-4.4851,-4.4593,-4.4654,-4.471,-4.4915,-4.4669,-4.4738,-4.4649,-4.4627,-4.4318,-4.4359,-4.4377,-4.4477,-4.4325,-4.4412,-4.4326,-4.4351,-4.4366,-4.4394,-4.4197,-4.426,-4.4236,-4.4247,-4.4082,-4.4188,-4.421,-4.4238,-4.4285,-4.4276,-4.4007,-4.3999,-4.4131,-4.4171,-4.4299,-4.4381,-4.437,-4.4426,-4.4404,-4.434,-4.4259,-4.4129,-4.4041,-4.4043,-4.4078,-4.423,-4.4259,-4.4121,-4.4227,-4.4164,-4.4093,-4.4153,-4.4158,-4.3924,-4.3784,-4.3824,-4.3741,-4.3724,-4.3723,-4.3798,-4.3803,-4.4299,-4.6146,-4.8714,-5.1113,-5.4703,-5.7228,-5.6955,-4.9544,-3.7273,-2.8163,-2.3107,-2.2246,-2.4644,-2.9155,-3.3609,-3.7656,-3.9116,-4.1515,-4.3019,-4.3758,-4.4198,-4.4423,-4.4586,-4.4786,-4.4854,-4.4838,-4.5074,-4.5269,-4.5396,-4.5473,-4.5398,-4.5236,-4.5469,-4.5633,-4.5806,-4.5908,-4.587,-4.595,-4.6135,-4.6303,-4.6312,-4.6443,-4.6482,-4.6651,-4.685,-4.6863,-4.6823,-4.6939,-4.7004,-4.7129,-4.7239,-4.7301,-4.7164,-4.698,-4.7156,-4.7265,-4.7153,-4.6993,-4.6759,-4.6786,-4.6847,-4.6809,-4.6679,-4.6677,-4.6692,-4.6762,-4.6833,-4.7085,-4.6798,-4.6626,-4.6431,-4.637,-4.6234,-4.5698,-4.5457,-4.5343,-4.5326,-4.5072,-4.4743,-4.4662,-4.4484,-4.4417,-4.4381,-4.443,-4.4291,-4.4288,-4.4147,-4.4203,-4.4212,-4.4216,-4.4297,-4.4194,-4.4251,-4.4474,-4.4454,-4.4287,-4.4203,-4.426,-4.4087,-4.4231,-4.4224,-4.425,-4.4236,-4.4127,-4.4118,-4.4091,-4.4113,-4.3989,-4.3904,-4.4058,-4.4029,-4.3843,-4.3933,-4.3968,-4.4003,-4.4009,-4.3906,-4.3884,-4.3661,-4.3672,-4.3678,-4.3676,-4.3734,-4.3749,-4.3828,-4.3754,-4.3778,-4.3726,-4.3635,-4.3561,-4.3658,-4.3758,-4.3695,-4.3713,-4.383,-4.382,-4.3805,-4.3914,-4.3975,-4.3893,-4.371,-4.3429,-4.3429,-4.3371,-4.3479,-4.3513,-4.3734,-4.4052,-4.3948,-4.3634,-4.3474,-4.3433,-4.3426,-4.3488,-4.3516,-4.341,-4.3298,-4.3361,-4.3425,-4.3663,-4.4668,-4.6974,-4.9138,-5.1613,-5.4812,-5.5418,-5.3468,-4.4279,-3.485,-2.8917,-2.5541,-2.4885,-2.5283,-2.8683,-3.2804,-3.6673,-3.9246,-4.1308,-4.2636,-4.3548,-4.3824,-4.4135,-4.4201,-4.4294,-4.4385,-4.4637,-4.4665,-4.4796,-4.4707,-4.4729,-4.484,-4.4916,-4.506,-4.5218,-4.534,-4.5508,-4.561,-4.5595,-4.5868,-4.5734,-4.5927,-4.6012,-4.6057,-4.6197,-4.6204,-4.6365,-4.6536,-4.6484,-4.6721,-4.6946,-4.6948,-4.6657,-4.647,-4.6522,-4.6576,-4.6435,-4.643,-4.6415,-4.6385,-4.6313,-4.6203,-4.61,-4.6091,-4.5993,-4.5978,-4.5969,-4.6014,-4.6051,-4.6115,-4.6038,-4.5673,-4.5566,-4.5282,-4.4891,-4.4529,-4.4365,-4.4335,-4.4112,-4.3961,-4.3902,-4.3884,-4.3672,-4.3731,-4.3683,-4.3657,-4.3493,-4.3511,-4.3547,-4.3614,-4.3637,-4.3764,-4.3584,-4.3271,-4.3364,-4.3507,-4.3444,-4.344,-4.3374,-4.3495,-4.3575,-4.3699,-4.3556,-4.3519,-4.3477,-4.3459,-4.3442,-4.341,-4.3298,-4.3264,-4.3427,-4.34,-4.322,-4.3176,-4.3362,-4.3323,-4.3233,-4.3151,-4.3383,-4.3263,-4.3069,-4.2785,-4.2825,-4.3002,-4.2958,-4.2798,-4.2783,-4.28,-4.2781,-4.2804,-4.2907,-4.309,-4.3101,-4.3084,-4.3035,-4.3144,-4.3305,-4.3007,-4.2609,-4.2494,-4.2355,-4.2702,-4.271,-4.275,-4.2837,-4.2926,-4.2787,-4.2682,-4.2555,-4.2478,-4.2321,-4.2291,-4.2391,-4.2475,-4.2371,-4.2267,-4.2501,-4.3384,-4.566,-4.8151,-5.1031,-5.4526,-5.5511,-5.2993,-4.2454,-3.0171,-2.3087,-2.0771,-2.1068,-2.3079,-2.7518,-3.1521,-3.5783,-3.8471,-4.0463,-4.1784,-4.2645,-4.2886,-4.3203,-4.3168,-4.3288,-4.3245,-4.3338,-4.3081,-3.9651,-4.2465,-4.393,-4.3546,-4.3713,-4.3593,-4.4353,-4.3958,-4.4122,-4.399,-4.4771,-4.4463,-4.4467,-4.4246,-4.486,-4.4515,-4.4929,-4.4921,-4.5255,-4.5161,-4.5426,-4.5519,-4.5711,-4.5821,-4.5773,-4.5311,-4.5763,-4.5636,-4.5615,-4.573,-4.5454,-4.5036,-4.5222,-4.5357,-4.5454,-4.5021,-4.4882,-4.4817,-4.4849,-4.4871,-4.4754,-4.4565,-4.4496,-4.4212,-4.3768,-4.3611,-4.337,-4.3114,-4.3194,-4.2936,-4.2328,-4.2115,-4.2244,-4.2269,-4.1946,-4.1813,-4.178,-4.1694,-4.1783,-4.1956,-4.1672,-4.1585,-4.166,-4.1536,-4.1508,-4.1577,-4.1579,-4.1887,-4.1661,-4.1565,-4.1416,-4.1722,-4.1841,-4.1727,-4.174,-4.1556,-4.1889,-4.1655,-4.1231,-4.1435,-4.143,-4.1599,-4.1457,-4.1464,-4.1378,-4.1364,-4.1264,-4.1539,-4.1536,-4.1311,-4.1177,-4.1089,-4.0813,-4.1169,-4.0947,-4.1076,-4.0902,-4.1071,-4.0981,-4.1016,-4.0943,-4.1241,-4.1582,-4.1646,-4.126,-4.1406,-4.1273,-4.0965,-4.0943,-4.1184,-4.0894,-4.0569,-4.0646,-4.1027,-4.0992,-4.0929,-4.0715,-4.1101,-4.0989,-4.1089,-4.1171,-4.1112,-4.0834,-4.0452,-4.0539,-4.0613,-4.0906,-4.0834,-4.0569,-4.0817,-4.2175,-4.4849,-4.7319,-5.064,-5.3772,-5.4741,-5.0081,-3.786,-3.0578,-2.1167,-1.7767,-1.8907,-2.1832,-2.6612,-3.0695,-3.5282,-3.7545,-3.9974,-4.0789,-4.125,-4.0928,-4.1478,-4.1473,-4.2204,-4.1792,-4.1945,-4.1791,-4.2291,-4.2268,-4.2726,-4.2607,-4.2255,-4.2081,-4.2662,-4.304,-4.3252,-4.2854,-4.2877,-4.3175,-4.3694,-4.3477,-4.3479,-4.352,-4.3804,-4.3895,-4.4167,-4.4234,-4.4196,-4.4223,-4.4281,-4.4768,-4.5144,-4.4694,-4.4415,-4.4403,-4.4187,-4.4286,-4.4154,-4.4045,-4.4107,-4.4107,-4.3979,-4.4052,-4.4321,-4.4276,-4.382,-4.3832,-4.3957,-4.4206,-4.3854,-4.3107,-4.2514,-4.2577,-4.2625,-4.2399,-4.1748,-4.1491,-4.1162,-4.1317,-4.1217,-4.1379,-4.1143,-4.1137,-4.1388,-4.1118,-4.0324,-4.0476,-4.0525,-4.0799,-4.066,-4.0857,-4.0752,-4.0658,-4.0659,-4.1147,-4.111,-4.0694,-4.0562,-4.0961,-4.1167,-4.1192,-4.0806,-4.0517,-4.0289,-4.0563,-4.0515,-4.0659,-4.0575,-4.0471,-4.0366,-4.0578,-4.0568,-4.0482,-4.0061,-4.0078,-4.0029,-4.0493,-4.0273,-4.0056,-3.9785,-3.9812,-3.9759,-3.9797,-3.9862,-4.0079,-4.0072,-4.0048,-3.9893,-3.9781,-3.9848,-3.9928,-3.9997,-4.0049,-3.9939,-3.992,-3.9842,-3.9839,-3.9864,-4.0016,-4.0089,-4.01,-4.0068,-4.0171,-4.0299,-4.0344,-4.0647,-4.0248,-3.9774,-3.9555,-3.9867,-4.0135,-4.0183,-3.9975,-4.0043,-4.0104,-4.0042,-3.9837,-3.9651,-3.95,-3.9579,-3.9646,-3.9745,-3.9547,-3.9349,-3.9246,-3.9261,-3.9678,-4.1439,-4.3899,-4.6117,-5.0117,-5.2767,-5.2553,-4.3833,-3.0557,-2.0248,-1.6237,-1.6879,-2.0066,-2.4823,-2.9115,-3.3391,-3.5918,-3.7244,-3.8646,-3.9476,-3.9353,-3.976,-3.9804,-4.0297,-4.037,-4.0474,-4.0291,-4.0431,-4.0183,-4.0247,-3.9772,-3.9917,-4.0048,-4.0532,-4.0665,-4.1005,-4.0981,-4.1338,-4.1398,-4.1782,-4.1904,-4.2251,-4.2331,-4.2588,-4.2737,-4.3142,-4.3182,-4.3202,-4.2797,-4.2789,-4.2927,-4.3115,-4.326,-4.3361,-4.3219,-4.3019,-4.2973,-4.3186,-4.3121,-4.2983,-4.2942,-4.3052,-4.316,-4.3218,-4.3393,-4.327,-4.3022,-4.2862,-4.2799,-4.2767,-4.2469,-4.217,-4.2014,-4.1761,-4.1468,-4.1328,-4.1015,-4.0798,-4.0662,-4.0449,-4.0483,-4.0601,-4.0463,-4.0118,-4.0241,-4.812,-11.623,-175.94,-303.99,-302.04,-305.1,-303.03,-305.54,-303.45,-305.62,-303.63,-305.62,-303.76,-305.59,-303.89,-305.49,-303.94,-305.42,-304.02,-305.36,-304.09,-305.29,-304.15,-305.23,-304.2,-305.15,-304.25,-305.08,-304.32,-305.05,-304.37,-304.98,-304.39,-304.92,-304.45,-304.92,-304.5,-304.82,-304.51,-304.78,-304.57,-304.76,-304.58,-304.7,-304.61,-304.67,-304.63,-304.64,-304.66,-304.62,-304.71,-304.62,-304.72,-304.58,-304.74,-304.57,-304.77,-304.56,-304.77,-304.52,-304.79,-304.53,-304.82,-304.51,-304.82,-304.5,-304.84,-304.5,-304.85,-304.5,-304.85,-304.48,-304.87,-304.5,-304.89,-304.49,-304.88,-304.48,-304.87,-304.46,-304.88,-304.46,-304.86,-304.44,-304.84,-304.44,-304.85,-304.46,-304.84,-304.45,-304.89,-304.59,-305.08,-304.92,-305.49,-305.21,-305.37,-304.56,-304.46,-303.71,-303.85,-303.6,-304.12,-304.02,-304.55,-304.38,-304.75,-304.51,-304.81,-304.51,-304.79,-304.55,-304.81,-304.56,-304.82,-304.59,-304.8,-304.59,-304.81,-304.61,-304.81,-304.63,-304.82,-304.67,-304.77,-304.65,-304.81,-304.7,-304.82,-304.68,-304.8,-304.75,-304.87,-304.76,-304.87,-304.79,-304.88
