-306.68,-306.69,-306.69,-306.69,-306.69,-306.7,-306.72,-306.71,-306.7,-306.7,-306.7,-306.7,-306.7,-306.7,-306.7,-306.69,-306.67,-306.66,-306.66,-306.65,-306.65,-306.65,-306.65,-306.65,-306.65,-306.64,-306.65,-306.67,-306.74,-306.86,-306.98,-307.2,-307.38,-307.45,-307.15,-306.62,-306.12,-305.74,-305.6,-305.6,-305.78,-305.98,-306.25,-306.45,-306.58,-306.65,-306.66,-306.67,-306.68,-306.69,-306.7,-306.7,-306.71,-306.72,-306.72,-306.72,-306.73,-306.74,-306.74,-306.75,-306.75,-306.76,-306.76,-306.77,-306.78,-306.79,-306.79,-306.8,-306.81,-306.82,-306.83,-306.84,-306.85,-306.86,-306.87,-306.88,-306.89,-306.89,-306.9,-306.91,-306.91,-306.92,-306.92,-306.92,-306.93,-306.93,-306.93,-306.93,-306.93,-306.93,-306.93,-306.93,-306.93,-306.92,-306.92,-306.9,-306.89,-306.87,-306.85,-306.82,-306.8,-306.78,-306.76,-306.74,-306.73,-306.72,-306.71,-306.7,-306.69,-306.69,-306.69,-306.68,-306.68,-306.68,-306.68,-306.68,-306.68,-306.68,-306.68,-306.68,-306.68,-306.68,-306.68,-306.68,-306.68,-306.68,-306.68,-306.68,-306.68,-306.68,-306.68,-306.68,-306.68,-306.68,-306.68,-306.68,-306.68,-306.68,-306.68,-306.67,-306.67,-306.67,-306.67,-306.67,-306.67,-306.67,-306.66,-306.66,-306.66,-306.66,-306.67,-306.67,-306.68,-306.68,-306.68,-306.68,-306.69,-306.7,-306.69,-306.68,-306.69,-306.69,-306.7,-306.69,-306.69,-306.69,-306.67,-306.66,-306.65,-306.64,-306.64,-306.64,-306.64,-306.64,-306.63,-306.63,-306.63,-306.63,-306.65,-306.72,-306.82,-306.95,-307.16,-307.35,-307.42,-307.2,-306.71,-306.23,-305.81,-305.61,-305.66,-305.76,-305.95,-306.22,-306.41,-306.54,-306.61,-306.65,-306.65,-306.66,-306.67,-306.68,-306.68,-306.69,-306.69,-306.7,-306.7,-306.71,-306.72,-306.72,-306.72,-306.73,-306.73,-306.75,-306.75,-306.76,-306.76,-306.77,-306.78,-306.79,-306.79,-306.8,-306.81,-306.82,-306.83,-306.84,-306.84,-306.85,-306.86,-306.86,-306.87,-306.87,-306.87,-306.88,-306.88,-306.88,-306.88,-306.88,-306.88,-306.88,-306.88,-306.88,-306.89,-306.89,-306.88,-306.88,-306.86,-306.85,-306.84,-306.82,-306.8,-306.78,-306.76,-306.74,-306.72,-306.71,-306.69,-306.68,-306.67,-306.67,-306.66,-306.66,-306.66,-306.65,-306.65,-306.65,-306.65,-306.65,-306.65,-306.65,-306.65,-306.65,-306.65,-306.66,-306.66,-306.66,-306.66,-306.66,-306.66,-306.65,-306.66,-306.65,-306.65,-306.65,-306.65,-306.65,-306.65,-306.65,-306.65,-306.65,-306.65,-306.65,-306.64,-306.64,-306.64,-306.64,-306.64,-306.64,-306.64,-306.65,-306.66,-306.66,-306.66,-306.66,-306.67,-306.68,-306.68,-306.66,-306.66,-306.66,-306.67,-306.67,-306.66,-306.66,-306.66,-306.65,-306.63,-306.62,-306.62,-306.62,-306.62,-306.62,-306.61,-306.61,-306.61,-306.61,-306.63,-306.68,-306.79,-306.89,-307.05,-307.26,-307.33,-307.29,-306.91,-306.52,-306.11,-305.8,-305.72,-305.82,-306.01,-306.21,-306.4,-306.46,-306.56,-306.61,-306.64,-306.64,-306.66,-306.66,-306.67,-306.67,-306.68,-306.68,-306.69,-306.7,-306.71,-306.71,-306.72,-306.72,-306.73,-306.73,-306.74,-306.74,-306.75,-306.76,-306.77,-306.77,-306.78,-306.78,-306.8,-306.81,-306.82,-306.82,-306.83,-306.84,-306.85,-306.85,-306.86,-306.86,-306.86,-306.87,-306.86,-306.87,-306.86,-306.86,-306.86,-306.86,-306.86,-306.86,-306.86,-306.87,-306.86,-306.86,-306.84,-306.83,-306.81,-306.79,-306.77,-306.75,-306.74,-306.72,-306.71,-306.7,-306.68,-306.67,-306.66,-306.66,-306.65,-306.65,-306.65,-306.65,-306.64,-306.65,-306.64,-306.65,-306.64,-306.65,-306.64,-306.65,-306.64,-306.65,-306.65,-306.65,-306.65,-306.65,-306.65,-306.65,-306.65,-306.65,-306.65,-306.65,-306.65,-306.65,-306.64,-306.64,-306.64,-306.64,-306.64,-306.64,-306.64,-306.64,-306.63,-306.63,-306.63,-306.63,-306.63,-306.64,-306.64,-306.65,-306.65,-306.65,-306.65,-306.66,-306.67,-306.67,-306.66,-306.65,-306.65,-306.66,-306.66,-306.66,-306.65,-306.65,-306.65,-306.63,-306.62,-306.61,-306.61,-306.61,-306.61,-306.61,-306.61,-306.61,-306.61,-306.61,-306.64,-306.71,-306.83,-306.94,-307.16,-307.32,-307.36,-307.11,-306.65,-306.22,-305.81,-305.64,-305.71,-305.88,-306.09,-306.31,-306.47,-306.56,-306.62,-306.63,-306.64,-306.64,-306.65,-306.66,-306.67,-306.67,-306.68,-306.68,-306.69,-306.69,-306.7,-306.7,-306.71,-306.72,-306.73,-306.73,-306.74,-306.74,-306.75,-306.75,-306.76,-306.77,-306.78,-306.79,-306.8,-306.81,-306.82,-306.83,-306.84,-306.84,-306.85,-306.86,-306.86,-306.86,-306.87,-306.87,-306.87,-306.87,-306.87,-306.87,-306.87,-306.87,-306.87,-306.87,-306.87,-306.87,-306.87,-306.86,-306.84,-306.82,-306.8,-306.78,-306.76,-306.74,-306.72,-306.7,-306.69,-306.68,-306.67,-306.66,-306.65,-306.65,-306.64,-306.64,-306.64,-306.63,-306.63,-306.63,-306.63,-306.63,-306.63,-306.63,-306.63,-306.63,-306.63,-306.63,-306.64,-306.63,-306.64,-306.64,-306.64,-306.63,-306.63,-306.63,-306.64,-306.64,-306.64,-306.64,-306.63,-306.63,-306.63,-306.63,-306.63,-306.63,-306.62,-306.62,-306.62,-306.62,-306.62,-306.62,-306.62,-306.62,-306.62,-306.62,-306.63,-306.63,-306.63,-306.63,-306.63,-306.64,-306.65,-306.66,-306.65,-306.63,-306.64,-306.64,-306.64,-306.64,-306.64,-306.64,-306.63,-306.62,-306.61,-306.6,-306.6,-306.59,-306.6,-306.6,-306.59,-306.59,-306.59,-306.59,-306.6,-306.66,-306.77,-306.88,-307.08,-307.29,-307.36,-307.18,-306.73,-306.26,-305.86,-305.62,-305.64,-305.81,-306.01,-306.26,-306.43,-306.53,-306.6,-306.6,-306.62,-306.62,-306.64,-306.64,-306.65,-306.65,-306.66,-306.66,-306.67,-306.67,-306.68,-306.68,-306.69,-306.7,-306.71,-306.71,-306.72,-306.73,-306.73,-306.74,-306.75,-306.75,-306.76,-306.77,-306.78,-306.79,-306.8,-306.8,-306.81,-306.82,-306.83,-306.83,-306.84,-306.84,-306.84,-306.84,-306.85,-306.85,-306.85,-306.85,-306.85,-306.85,-306.85,-306.85,-306.85,-306.85,-306.85,-306.84,-306.83,-306.82,-306.8,-306.77,-306.75,-306.73,-306.71,-306.69,-306.68,-306.67,-306.66,-306.65,-306.64,-306.63,-306.63,-306.62,-306.62,-306.62,-306.62,-306.61,-306.61,-306.62,-306.61,-306.61,-306.62,-306.62,-306.62,-306.62,-306.62,-306.62,-306.62,-306.62,-306.62,-306.62,-306.62,-306.62,-306.62,-306.62,-306.62,-306.62,-306.62,-306.62,-306.61,-306.62,-306.61,-306.61,-306.61,-306.61,-306.61,-306.61,-306.6,-306.6,-306.6,-306.6,-306.6,-306.61,-306.61,-306.61,-306.61,-306.61,-306.62,-306.62,-306.63,-306.64,-306.63,-306.62,-306.62,-306.62,-306.62,-306.62,-306.62,-306.62,-306.61,-306.61,-306.59,-306.59,-306.58,-306.58,-306.58,-306.57,-306.57,-306.58,-306.57,-306.57,-306.59,-306.62,-306.71,-306.82,-306.95,-307.17,-307.28,-307.29,-306.96,-306.56,-306.19,-305.82,-305.67,-305.74,-305.92,-306.12,-306.32,-306.45,-306.54,-306.58,-306.59,-306.6,-306.61,-306.62,-306.63,-306.63,-306.64,-306.64,-306.65,-306.66,-306.66,-306.67,-306.68,-306.68,-306.69,-306.69,-306.7,-306.7,-306.71,-306.72,-306.73,-306.73,-306.74,-306.75,-306.76,-306.76,-306.77,-306.78,-306.79,-306.8,-306.8,-306.81,-306.82,-306.82,-306.82,-306.83,-306.82,-306.83,-306.83,-306.83,-306.82,-306.82,-306.82,-306.82,-306.82,-306.82,-306.82,-306.82,-306.8,-306.79,-306.78,-306.76,-306.74,-306.72,-306.7,-306.68,-306.66,-306.66,-306.64,-306.63,-306.63,-306.62,-306.61,-306.61,-306.61,-306.6,-306.6,-306.6,-306.6,-306.6,-306.6,-306.6,-306.6,-306.6,-306.61,-306.61,-306.61,-306.6,-306.61,-306.61,-306.61,-306.61,-306.61,-306.61,-306.61,-306.61,-306.61,-306.6,-306.6,-306.6,-306.61,-306.6,-306.6,-306.6,-306.6,-306.6,-306.59,-306.59,-306.59,-306.59,-306.59,-306.59,-306.59,-306.59,-306.59,-306.6,-306.6,-306.61,-306.61,-306.61,-306.61,-306.62,-306.63,-306.62,-306.61,-306.61,-306.61,-306.61,-306.61,-306.61,-306.61,-306.61,-306.59,-306.58,-306.57,-306.57,-306.57,-306.57,-306.56,-306.57,-306.56,-306.56,-306.56,-306.57,-306.61,-306.72,-306.83,-306.99,-307.21,-307.3,-307.25,-306.85,-306.39,-305.99,-305.67,-305.6,-305.73,-305.92,-306.16,-306.35,-306.47,-306.55,-306.57,-306.59,-306.59,-306.61,-306.61,-306.62,-306.62,-306.63,-306.63,-306.64,-306.65,-306.66,-306.66,-306.67,-306.67,-306.68,-306.68,-306.69,-306.7,-306.7,-306.71,-306.72,-306.72,-306.73,-306.74,-306.75,-306.76,-306.77,-306.78,-306.79,-306.8,-306.8,-306.81,-306.82,-306.82,-306.83,-306.83,-306.83,-306.83,-306.83,-306.83,-306.83,-306.83,-306.83,-306.83,-306.83,-306.83,-306.82,-306.81,-306.8,-306.78,-306.76,-306.74,-306.72,-306.7,-306.68,-306.66,-306.65,-306.64,-306.62,-306.61,-306.61,-306.6,-306.6,-306.6,-306.59,-306.59,-306.58,-306.58,-306.58,-306.58,-306.58,-306.59,-306.58,-306.59,-306.59,-306.59,-306.59,-306.59,-306.59,-306.59,-306.59,-306.6,-306.59,-306.6,-306.59,-306.6,-306.59,-306.59,-306.59,-306.59,-306.59,-306.59,-306.59,-306.59,-306.58,-306.58,-306.58,-306.58,-306.58,-306.58,-306.57,-306.57,-306.57,-306.57,-306.57,-306.57,-306.56,-306.56,-306.56,-306.56,-306.57,-306.57,-306.58,-306.58,-306.58,-306.58,-306.58,-306.59,-306.6,-306.61,-306.6,-306.59,-306.59,-306.59,-306.6,-306.59,-306.6,-306.59,-306.58,-306.56,-306.56,-306.56,-306.55,-306.55,-306.55,-306.55,-306.55,-306.55,-306.54,-306.55,-306.58,-306.67,-306.79,-306.94,-307.16,-307.32,-307.31,-306.91,-306.33,-305.89,-305.58,-305.51,-305.53,-305.74,-305.95,-306.21,-306.4,-306.51,-306.56,-306.57,-306.58,-306.59,-306.6,-306.6,-306.61,-306.62,-306.63,-306.63,-306.64,-306.64,-306.64,-306.65,-306.66,-306.66,-306.67,-306.67,-306.68,-306.69,-306.7,-306.7,-306.72,-306.72,-306.73,-306.74,-306.75,-306.76,-306.77,-306.78,-306.79,-306.79,-306.81,-306.81,-306.82,-306.82,-306.83,-306.83,-306.84,-306.84,-306.84,-306.84,-306.84,-306.84,-306.84,-306.84,-306.84,-306.84,-306.83,-306.82,-306.81,-306.79,-306.77,-306.75,-306.72,-306.7,-306.68,-306.66,-306.64,-306.63,-306.62,-306.61,-306.6,-306.59,-306.59,-306.58,-306.58,-306.57,-306.57,-306.57,-306.57,-306.57,-306.57,-306.57,-306.58,-306.58,-306.58,-306.58,-306.58,-306.58,-306.58,-306.58,-306.58,-306.58,-306.58,-306.58,-306.58,-306.58,-306.58,-306.58,-306.58,-306.58,-306.58,-306.58,-306.57,-306.58,-306.57,-306.57,-306.57,-306.57,-306.57,-306.56,-306.56,-306.56,-306.56,-306.56,-306.56,-306.56,-306.55,-306.55,-306.55,-306.55,-306.55,-306.55,-306.55,-306.55,-306.55,-306.55,-306.55,-306.55,-306.54,-306.55,-306.55,-306.56,-306.56,-306.57,-306.56,-306.57,-306.57,-306.58,-306.58,-306.59,-306.57,-306.57,-306.57,-306.58,-306.58,-306.58,-306.58,-306.56,-306.55,-306.54,-306.54,-306.53,-306.53,-306.53,-306.53,-306.53,-306.53,-306.53,-306.52,-306.53,-306.58,-306.69,-306.81,-306.98,-307.2,-307.33,-307.2,-306.74,-306.18,-305.78,-305.5,-305.48,-305.57,-305.77,-306.04,-306.26,-306.42,-306.5,-306.54,-306.55,-306.56,-306.57,-306.58,-306.58,-306.59,-306.59,-306.6,-306.6,-306.61,-306.61,-306.62,-306.62,-306.63,-306.64,-306.64,-306.65,-306.66,-306.66,-306.67,-306.68,-306.69,-306.7,-306.71,-306.71,-306.72,-306.73,-306.74,-306.75,-306.76,-306.77,-306.77,-306.78,-306.79,-306.79,-306.79,-306.79,-306.8,-306.79,-306.8,-306.8,-306.8,-306.8,-306.8,-306.8,-306.8,-306.8,-306.8,-306.79,-306.77,-306.77,-306.75,-306.72,-306.7,-306.68,-306.66,-306.64,-306.62,-306.61,-306.59,-306.58,-306.57,-306.57,-306.56,-306.56,-306.55,-306.55,-306.55,-306.55,-306.55,-306.55,-306.55,-306.55,-306.55,-306.55,-306.55,-306.55,-306.55,-306.55,-306.55,-306.55,-306.55,-306.55,-306.55,-306.55,-306.55,-306.55,-306.55,-306.55,-306.55,-306.55,-306.55,-306.55,-306.54,-306.54,-306.54,-306.54,-306.54,-306.54,-306.54,-306.53,-306.53,-306.53,-306.53,-306.53,-306.53,-306.53,-306.53,-306.52,-306.52,-306.52,-306.52,-306.52,-306.52,-306.52,-306.52,-306.52,-306.52,-306.52,-306.53,-306.53,-306.54,-306.54,-306.54,-306.54,-306.56,-306.56,-306.56,-306.55,-306.55,-306.55,-306.55,-306.55,-306.55,-306.55,-306.55,-306.53,-306.52,-306.51,-306.51,-306.51,-306.51,-306.5,-306.5,-306.5,-306.5,-306.5,-306.51,-306.56,-306.66,-306.76,-306.91,-307.13,-307.22,-307.19,-306.83,-306.42,-306.02,-305.68,-305.59,-305.68,-305.88,-306.08,-306.28,-306.34,-306.45,-306.5,-306.53,-306.53,-306.54,-306.55,-306.56,-306.56,-306.57,-306.58,-306.58,-306.59,-306.6,-306.6,-306.61,-306.61,-306.62,-306.62,-306.63,-306.63,-306.64,-306.65,-306.66,-306.67,-306.68,-306.68,-306.69,-306.7,-306.71,-306.71,-306.73,-306.73,-306.74,-306.74,-306.75,-306.75,-306.76,-306.76,-306.76,-306.76,-306.76,-306.76,-306.76,-306.76,-306.76,-306.76,-306.76,-306.76,-306.76,-306.75,-306.74,-306.73,-306.72,-306.7,-306.68,-306.66,-306.65,-306.63,-306.61,-306.59,-306.58,-306.57,-306.56,-306.55,-306.55,-306.54,-306.54,-306.54,-306.53,-306.53,-306.53,-306.53,-306.54,-306.54,-306.53,-306.54,-306.53,-306.54,-306.54,-306.54,-306.54,-306.54,-306.54,-306.54,-306.54,-306.54,-306.54,-306.54,-306.53,-306.54,-306.53,-306.54,-306.53,-306.53,-306.53,-306.53,-306.52,-306.53,-306.52,-306.52,-306.52,-306.52,-306.52,-306.52,-306.51,-306.51,-306.51,-306.51,-306.51,-306.51,-306.51,-306.51,-306.5,-306.51,-306.5,-306.51,-306.51,-306.52,-306.52,-306.53,-306.52,-306.53,-306.53,-306.55,-306.55,-306.54,-306.53,-306.53,-306.54,-306.54,-306.54,-306.54,-306.53,-306.53,-306.51,-306.5,-306.5,-306.49,-306.49,-306.49,-306.49,-306.49,-306.49,-306.49,-306.49,-306.53,-306.62,-306.74,-306.88,-307.1,-307.24,-307.27,-307.07,-306.6,-306.1,-305.71,-305.49,-305.5,-305.7,-305.91,-306.16,-306.33,-306.44,-306.5,-306.51,-306.52,-306.53,-306.54,-306.54,-306.55,-306.56,-306.56,-306.57,-306.57,-306.58,-306.58,-306.59,-306.6,-306.6,-306.61,-306.62,-306.62,-306.63,-306.64,-306.65,-306.65,-306.66,-306.67,-306.68,-306.68,-306.7,-306.7,-306.71,-306.72,-306.73,-306.74,-306.75,-306.75,-306.76,-306.76,-306.77,-306.77,-306.77,-306.77,-306.77,-306.77,-306.77,-306.77,-306.77,-306.77,-306.77,-306.77,-306.76,-306.74,-306.73,-306.71,-306.69,-306.66,-306.64,-306.62,-306.6,-306.59,-306.57,-306.56,-306.55,-306.54,-306.54,-306.53,-306.53,-306.52,-306.52,-306.52,-306.52,-306.52,-306.52,-306.52,-306.52,-306.52,-306.52,-306.52,-306.52,-306.52,-306.52,-306.52,-306.53,-306.53,-306.53,-306.53,-306.53,-306.53,-306.52,-306.52,-306.52,-306.52,-306.52,-306.52,-306.52,-306.52,-306.52,-306.51,-306.51,-306.51,-306.51,-306.51,-306.51,-306.5,-306.5,-306.5,-306.5,-306.5,-306.5,-306.5,-306.5,-306.49,-306.49,-306.49,-306.49,-306.49,-306.49,-306.49,-306.49,-306.49,-306.5,-306.51,-306.51,-306.51,-306.51,-306.51,-306.52,-306.53,-306.53,-306.52,-306.52,-306.52,-306.53,-306.53,-306.52,-306.52,-306.52,-306.5,-306.49,-306.48,-306.48,-306.48,-306.48,-306.48,-306.47,-306.47,-306.47,-306.47,-306.48,-306.53,-306.64,-306.76,-306.94,-307.15,-307.28,-307.15,-306.68,-306.12,-305.72,-305.45,-305.41,-305.52,-305.72,-305.98,-306.2,-306.36,-306.45,-306.49,-306.5,-306.51,-306.51,-306.53,-306.53,-306.54,-306.54,-306.55,-306.55,-306.56,-306.56,-306.57,-306.57,-306.58,-306.58,-306.59,-306.6,-306.6,-306.6,-306.62,-306.63,-306.64,-306.64,-306.65,-306.66,-306.67,-306.68,-306.69,-306.7,-306.71,-306.72,-306.72,-306.73,-306.74,-306.74,-306.75,-306.75,-306.75,-306.75,-306.75,-306.75,-306.75,-306.76,-306.76,-306.76,-306.76,-306.75,-306.74,-306.73,-306.72,-306.71,-306.69,-306.67,-306.64,-306.62,-306.6,-306.58,-306.56,-306.55,-306.54,-306.53,-306.52,-306.51,-306.51,-306.51,-306.5,-306.5,-306.5,-306.5,-306.49,-306.5,-306.5,-306.5,-306.5,-306.5,-306.5,-306.5,-306.5,-306.5,-306.5,-306.5,-306.5,-306.51,-306.5,-306.5,-306.5,-306.5,-306.5,-306.5,-306.5,-306.5,-306.5,-306.5,-306.49,-306.49,-306.49,-306.49,-306.49,-306.49,-306.48,-306.48,-306.48,-306.48,-306.48,-306.47,-306.47,-306.47,-306.47,-306.47,-306.47,-306.47,-306.47,-306.47,-306.48,-306.48,-306.49,-306.49,-306.49,-306.49,-306.5,-306.51,-306.51,-306.5,-306.5,-306.5,-306.5,-306.51,-306.5,-306.5,-306.5,-306.48,-306.47,-306.46,-306.46,-306.45,-306.45,-306.45,-306.45,-306.45,-306.45,-306.45,-306.46,-306.52,-306.63,-306.73,-306.81,-307.03,-307.18,-307.21,-306.92,-306.46,-306.04,-305.63,-305.49,-305.57,-305.75,-305.97,-306.19,-306.32,-306.42,-306.46,-306.47,-306.48,-306.49,-306.49,-306.5,-306.5,-306.51,-306.51,-306.52,-306.53,-306.54,-306.54,-306.55,-306.55,-306.56,-306.56,-306.57,-306.58,-306.58,-306.59,-306.6,-306.61,-306.61,-306.62,-306.63,-306.64,-306.64,-306.65,-306.66,-306.67,-306.67,-306.68,-306.69,-306.69,-306.7,-306.7,-306.7,-306.7,-306.7,-306.7,-306.7,-306.7,-306.7,-306.7,-306.7,-306.7,-306.7,-306.7,-306.69,-306.68,-306.66,-306.65,-306.63,-306.61,-306.59,-306.57,-306.55,-306.53,-306.52,-306.51,-306.5,-306.49,-306.49,-306.49,-306.48,-306.48,-306.47,-306.48,-306.47,-306.47,-306.47,-306.48,-306.47,-306.48,-306.47,-306.48,-306.47,-306.48,-306.48,-306.48,-306.48,-306.48,-306.48,-306.48,-306.48,-306.48,-306.47,-306.48,-306.47,-306.47,-306.47,-306.47,-306.47,-306.47,-306.46,-306.46,-306.46,-306.46,-306.46,-306.46,-306.46,-306.46,-306.45,-306.45,-306.45,-306.45,-306.45,-306.45,-306.45,-306.46,-306.46,-306.47,-306.47,-306.47,-306.47,-306.48,-306.5,-306.5,-306.48,-306.48,-306.48,-306.49,-306.48,-306.48,-306.48,-306.48,-306.47,-306.45,-306.45,-306.44,-306.44,-306.44,-306.44,-306.44,-306.44,-306.43,-306.44,-306.44,-306.47,-306.57,-306.68,-306.81,-307.03,-307.15,-307.17,-306.84,-306.41,-306,-305.63,-305.5,-305.58,-305.76,-305.97,-306.18,-306.31,-306.37,-306.43,-306.46,-306.46,-306.48,-306.48,-306.49,-306.49,-306.5,-306.5,-306.51,-306.52,-306.53,-306.53,-306.54,-306.54,-306.55,-306.55,-306.56,-306.56,-306.57,-306.58,-306.59,-306.59,-306.6,-306.61,-306.62,-306.63,-306.64,-306.65,-306.66,-306.67,-306.67,-306.68,-306.68,-306.69,-306.7,-306.7,-306.7,-306.7,-306.71,-306.71,-306.7,-306.71,-306.71,-306.7,-306.7,-306.7,-306.7,-306.69,-306.68,-306.67,-306.65,-306.63,-306.6,-306.58,-306.56,-306.55,-306.54,-306.52,-306.51,-306.5,-306.49,-306.48,-306.48,-306.47,-306.47,-306.47,-306.47,-306.46,-306.46,-306.46,-306.46,-306.46,-306.46,-306.46,-306.46,-306.46,-306.47,-306.47,-306.47,-306.47,-306.47,-306.47,-306.47,-306.47,-306.47,-306.46,-306.47,-306.46,-306.46,-306.46,-306.46,-306.46,-306.46,-306.46,-306.46,-306.45,-306.45,-306.45,-306.45,-306.45,-306.44,-306.45,-306.44,-306.44,-306.44,-306.44,-306.44,-306.44,-306.44,-306.44,-306.44,-306.44,-306.44,-306.45,-306.45,-306.46,-306.46,-306.46,-306.46,-306.47,-306.48,-306.47,-306.46,-306.46,-306.47,-306.47,-306.47,-306.47,-306.47,-306.45,-306.44,-306.43,-306.43,-306.42,-306.42,-306.42,-306.42,-306.42,-306.42,-306.41,-306.42,-306.44,-306.52,-306.64,-306.77,-306.99,-307.16,-307.21,-306.86,-306.32,-306.04,-305.65,-305.39,-305.38,-305.57,-305.78,-306.05,-306.24,-306.36,-306.43,-306.43,-306.45,-306.46,-306.47,-306.47,-306.48,-306.48,-306.49,-306.49,-306.5,-306.5,-306.51,-306.51,-306.52,-306.52,-306.53,-306.54,-306.55,-306.55,-306.56,-306.57,-306.58,-306.58,-306.6,-306.6,-306.61,-306.62,-306.63,-306.63,-306.65,-306.65,-306.66,-306.67,-306.68,-306.69,-306.69,-306.69,-306.7,-306.7,-306.7,-306.7,-306.7,-306.7,-306.7,-306.71,-306.71,-306.7,-306.7,-306.69,-306.68,-306.66,-306.64,-306.62,-306.6,-306.57,-306.55,-306.53,-306.51,-306.5,-306.49,-306.48,-306.47,-306.46,-306.46,-306.45,-306.45,-306.45,-306.44,-306.44,-306.44,-306.44,-306.44,-306.44,-306.44,-306.45,-306.45,-306.45,-306.45,-306.45,-306.45,-306.45,-306.45,-306.45,-306.45,-306.45,-306.45,-306.45,-306.45,-306.45,-306.44,-306.45,-306.44,-306.44,-306.44,-306.44,-306.44,-306.44,-306.43,-306.43,-306.43,-306.43,-306.43,-306.43,-306.42,-306.42,-306.42,-306.42,-306.42,-306.42,-306.42,-306.43,-306.43,-306.44,-306.44,-306.44,-306.44,-306.45,-306.46,-306.46,-306.44,-306.44,-306.45,-306.45,-306.45,-306.45,-306.45,-306.44,-306.42,-306.41,-306.4,-306.4,-306.4,-306.4,-306.4,-306.39,-306.39,-306.39,-306.39,-306.4,-306.46,-306.57,-306.68,-306.76,-306.98,-307.14,-307.18,-306.83,-306.31,-305.86,-305.47,-305.36,-305.46,-305.67,-305.92,-306.14,-306.28,-306.38,-306.4,-306.42,-306.42,-306.44,-306.43,-306.45,-306.44,-306.46,-306.45,-306.47,-306.47,-306.48,-306.48,-306.49,-306.49,-306.5,-306.51,-306.51,-306.52,-306.53,-306.53,-306.54,-306.55,-306.56,-306.56,-306.57,-306.58,-306.59,-306.6,-306.61,-306.61,-306.62,-306.63,-306.63,-306.64,-306.64,-306.65,-306.65,-306.65,-306.65,-306.65,-306.65,-306.65,-306.65,-306.65,-306.65,-306.66,-306.65,-306.65,-306.64,-306.63,-306.61,-306.59,-306.57,-306.55,-306.52,-306.51,-306.49,-306.48,-306.46,-306.45,-306.44,-306.44,-306.43,-306.43,-306.42,-306.42,-306.41,-306.41,-306.41,-306.41,-306.41,-306.41,-306.41,-306.42,-306.41,-306.42,-306.42,-306.42,-306.41,-306.42,-306.42,-306.42,-306.42,-306.42,-306.42,-306.42,-306.42,-306.42,-306.41,-306.42,-306.41,-306.41,-306.41,-306.41,-306.4,-306.41,-306.4,-306.4,-306.4,-306.4,-306.4,-306.4,-306.39,-306.39,-306.39,-306.39,-306.39,-306.39,-306.39,-306.4,-306.4,-306.41,-306.41,-306.41,-306.41,-306.43,-306.43,-306.43,-306.42,-306.41,-306.42,-306.42,-306.42,-306.42,-306.42,-306.41,-306.4,-306.39,-306.38,-306.37,-306.37,-306.37,-306.37,-306.37,-306.37,-306.37,-306.37,-306.39,-306.46,-306.56,-306.67,-306.86,-307.05,-307.1,-306.96,-306.54,-306.13,-305.72,-305.48,-305.48,-305.61,-305.81,-306.03,-306.2,-306.29,-306.34,-306.37,-306.4,-306.4,-306.42,-306.41,-306.43,-306.43,-306.44,-306.44,-306.45,-306.45,-306.46,-306.46,-306.47,-306.47,-306.49,-306.49,-306.5,-306.5,-306.51,-306.51,-306.53,-306.53,-306.54,-306.55,-306.56,-306.56,-306.58,-306.58,-306.59,-306.6,-306.61,-306.62,-306.62,-306.63,-306.63,-306.63,-306.63,-306.63,-306.63,-306.63,-306.63,-306.63,-306.63,-306.63,-306.63,-306.63,-306.62,-306.61,-306.6,-306.59,-306.56,-306.55,-306.52,-306.5,-306.48,-306.48,-306.46,-306.44,-306.43,-306.43,-306.42,-306.41,-306.41,-306.4,-306.4,-306.4,-306.39,-306.4,-306.39,-306.4,-306.39,-306.4,-306.39,-306.4,-306.39,-306.4,-306.4,-306.4,-306.4,-306.4,-306.4,-306.4,-306.4,-306.4,-306.4,-306.4,-306.4,-306.4,-306.39,-306.4,-306.39,-306.39,-306.39,-306.39,-306.39,-306.39,-306.38,-306.38,-306.38,-306.38,-306.37,-306.38,-306.37,-306.37,-306.37,-306.37,-306.37,-306.37,-306.37,-306.37,-306.36,-306.37,-306.37,-306.37,-306.37,-306.38,-306.38,-306.39,-306.38,-306.39,-306.4,-306.41,-306.4,-306.4,-306.39,-306.4,-306.4,-306.4,-306.4,-306.4,-306.39,-306.38,-306.37,-306.36,-306.36,-306.35,-306.35,-306.35,-306.35,-306.35,-306.35,-306.34,-306.36,-306.43,-306.55,-306.66,-306.88,-307.06,-307.15,-306.89,-306.64,-306.11,-305.66,-305.37,-305.29,-305.47,-305.65,-305.94,-306.12,-306.28,-306.34,-306.37,-306.37,-306.39,-306.39,-306.41,-306.4,-306.42,-306.41,-306.43,-306.42,-306.44,-306.43,-306.45,-306.44,-306.46,-306.46,-306.47,-306.47,-306.48,-306.49,-306.5,-306.5,-306.51,-306.52,-306.53,-306.54,-306.55,-306.55,-306.57,-306.57,-306.58,-306.59,-306.6,-306.61,-306.61,-306.62,-306.62,-306.62,-306.63,-306.63,-306.63,-306.63,-306.63,-306.63,-306.63,-306.64,-306.63,-306.63,-306.62,-306.62,-306.6,-306.58,-306.55,-306.53,-306.51,-306.49,-306.47,-306.45,-306.43,-306.42,-306.41,-306.41,-306.39,-306.39,-306.38,-306.39,-306.38,-306.38,-306.37,-306.38,-306.37,-306.37,-306.37,-306.38,-306.37,-306.38,-306.38,-306.38,-306.38,-306.38,-306.38,-306.38,-306.38,-306.38,-306.38,-306.38,-306.38,-306.38,-306.38,-306.38,-306.38,-306.38,-306.37,-306.37,-306.37,-306.37,-306.37,-306.36,-306.36,-306.36,-306.36,-306.36,-306.36,-306.36,-306.35,-306.35,-306.35,-306.35,-306.35,-306.35,-306.35,-306.35,-306.36,-306.36,-306.36,-306.37,-306.37,-306.37,-306.37,-306.39,-306.39,-306.38,-306.38,-306.37,-306.38,-306.38,-306.38,-306.38,-306.38,-306.37,-306.35,-306.34,-306.34,-306.33,-306.33,-306.33,-306.33,-306.33,-306.33,-306.32,-306.33,-306.34,-306.4,-306.52,-306.63,-306.84,-307.04,-307.14,-306.93,-306.43,-305.9,-305.5,-305.29,-305.32,-305.53,-305.75,-306.01,-306.18,-306.29,-306.33,-306.34,-306.35,-306.37,-306.37,-306.38,-306.38,-306.39,-306.39,-306.41,-306.4,-306.41,-306.42,-306.43,-306.43,-306.44,-306.44,-306.45,-306.45,-306.47,-306.47,-306.48,-306.48,-306.49,-306.5,-306.51,-306.51,-306.53,-306.53,-306.55,-306.55,-306.56,-306.57,-306.58,-306.59,-306.59,-306.59,-306.6,-306.6,-306.6,-306.6,-306.6,-306.6,-306.6,-306.6,-306.61,-306.6,-306.6,-306.6,-306.59,-306.58,-306.56,-306.54,-306.52,-306.5,-306.48,-306.45,-306.44,-306.43,-306.41,-306.4,-306.39,-306.38,-306.37,-306.37,-306.36,-306.36,-306.36,-306.36,-306.36,-306.35,-306.35,-306.35,-306.35,-306.36,-306.35,-306.36,-306.35,-306.35,-306.36,-306.36,-306.36,-306.36,-306.36,-306.36,-306.36,-306.36,-306.35,-306.35,-306.36,-306.35,-306.35,-306.35,-306.35,-306.35,-306.35,-306.34,-306.34,-306.34,-306.34,-306.34,-306.34,-306.33,-306.33,-306.33,-306.33,-306.33,-306.33,-306.33,-306.33,-306.33,-306.33,-306.33,-306.33,-306.34,-306.34,-306.35,-306.34,-306.34,-306.35,-306.37,-306.37,-306.35,-306.35,-306.35,-306.36,-306.36,-306.36,-306.36,-306.35,-306.33,-306.32,-306.32,-306.31,-306.31,-306.31,-306.31,-306.31,-306.31,-306.3,-306.3,-306.31,-306.36,-306.46,-306.56,-306.72,-306.94,-307.04,-307.03,-306.65,-306.2,-305.78,-305.42,-305.36,-305.4,-305.57,-305.78,-306.01,-306.15,-306.25,-306.31,-306.33,-306.34,-306.34,-306.35,-306.36,-306.36,-306.37,-306.37,-306.38,-306.38,-306.39,-306.39,-306.4,-306.41,-306.41,-306.42,-306.43,-306.43,-306.44,-306.44,-306.45,-306.46,-306.47,-306.47,-306.48,-306.49,-306.5,-306.51,-306.52,-306.52,-306.53,-306.53,-306.54,-306.54,-306.54,-306.55,-306.55,-306.55,-306.55,-306.55,-306.55,-306.55,-306.55,-306.55,-306.55,-306.55,-306.55,-306.55,-306.54,-306.53,-306.52,-306.5,-306.49,-306.46,-306.44,-306.42,-306.4,-306.39,-306.38,-306.36,-306.36,-306.35,-306.34,-306.34,-306.33,-306.33,-306.33,-306.33,-306.33,-306.33,-306.33,-306.33,-306.33,-306.33,-306.33,-306.33,-306.33,-306.33,-306.34,-306.33,-306.33,-306.33,-306.34,-306.34,-306.33,-306.33,-306.33,-306.33,-306.33,-306.33,-306.33,-306.33,-306.33,-306.32,-306.32,-306.32,-306.32,-306.32,-306.32,-306.32,-306.31,-306.31,-306.31,-306.31,-306.31,-306.31,-306.32,-306.32,-306.33,-306.33,-306.33,-306.33,-306.33,-306.35,-306.36,-306.35,-306.34,-306.33,-306.34,-306.34,-306.34,-306.34,-306.34,-306.33,-306.31,-306.31,-306.3,-306.3,-306.3,-306.3,-306.29,-306.29,-306.29,-306.29,-306.29,-306.31,-306.38,-306.49,-306.6,-306.8,-306.98,-307.03,-306.84,-306.41,-306.19,-305.8,-305.44,-305.36,-305.45,-305.65,-305.86,-306.06,-306.18,-306.27,-306.3,-306.32,-306.32,-306.34,-306.34,-306.35,-306.35,-306.36,-306.36,-306.37,-306.37,-306.38,-306.38,-306.4,-306.4,-306.41,-306.41,-306.42,-306.42,-306.43,-306.44,-306.45,-306.46,-306.47,-306.48,-306.49,-306.49,-306.5,-306.51,-306.52,-306.53,-306.53,-306.54,-306.55,-306.55,-306.55,-306.56,-306.56,-306.56,-306.56,-306.56,-306.56,-306.56,-306.56,-306.56,-306.56,-306.56,-306.55,-306.55,-306.53,-306.51,-306.49,-306.48,-306.45,-306.43,-306.41,-306.39,-306.38,-306.36,-306.35,-306.34,-306.33,-306.33,-306.32,-306.32,-306.32,-306.32,-306.31,-306.32,-306.31,-306.32,-306.31,-306.32,-306.32,-306.32,-306.32,-306.32,-306.32,-306.32,-306.32,-306.32,-306.32,-306.32,-306.32,-306.32,-306.32,-306.32,-306.32,-306.32,-306.32,-306.32,-306.31,-306.31,-306.31,-306.31,-306.31,-306.31,-306.31,-306.31,-306.3,-306.3,-306.3,-306.3,-306.3,-306.29,-306.29,-306.29,-306.29,-306.29,-306.29,-306.3,-306.3,-306.31,-306.31,-306.31,-306.31,-306.31,-306.33,-306.34,-306.33,-306.32,-306.32,-306.32,-306.33,-306.33,-306.32,-306.32,-306.31,-306.3,-306.29,-306.28,-306.28,-306.27,-306.27,-306.27,-306.27,-306.27,-306.27,-306.27,-306.3,-306.38,-306.5,-306.63,-306.75,-306.96,-307.08,-306.9,-306.42,-305.86,-305.48,-305.23,-305.24,-305.44,-305.66,-305.92,-306.11,-306.22,-306.28,-306.29,-306.31,-306.31,-306.32,-306.32,-306.33,-306.33,-306.34,-306.34,-306.35,-306.35,-306.37,-306.37,-306.38,-306.38,-306.39,-306.39,-306.41,-306.41,-306.42,-306.42,-306.44,-306.44,-306.45,-306.45,-306.47,-306.47,-306.49,-306.49,-306.51,-306.51,-306.52,-306.53,-306.54,-306.54,-306.55,-306.55,-306.55,-306.55,-306.55,-306.55,-306.56,-306.56,-306.56,-306.56,-306.56,-306.56,-306.56,-306.55,-306.53,-306.52,-306.5,-306.47,-306.45,-306.43,-306.4,-306.38,-306.37,-306.35,-306.34,-306.33,-306.33,-306.32,-306.31,-306.31,-306.3,-306.3,-306.3,-306.3,-306.3,-306.3,-306.3,-306.3,-306.3,-306.3,-306.3,-306.3,-306.3,-306.31,-306.31,-306.31,-306.31,-306.31,-306.31,-306.31,-306.31,-306.31,-306.3,-306.31,-306.3,-306.31,-306.3,-306.3,-306.3,-306.3,-306.29,-306.29,-306.29,-306.29,-306.29,-306.29,-306.29,-306.28,-306.28,-306.28,-306.28,-306.28,-306.28,-306.29,-306.29,-306.3,-306.3,-306.3,-306.3,-306.32,-306.32,-306.31,-306.3,-306.3,-306.31,-306.32,-306.31,-306.31,-306.31,-306.3,-306.28,-306.27,-306.26,-306.26,-306.26,-306.26,-306.26,-306.26,-306.25,-306.25,-306.25,-306.28,-306.31,-306.41,-306.53,-306.7,-306.93,-307.04,-306.95,-306.5,-305.96,-305.54,-305.24,-305.22,-305.4,-305.62,-305.88,-306.07,-306.19,-306.26,-306.27,-306.28,-306.28,-306.29,-306.3,-306.31,-306.31,-306.32,-306.32,-306.33,-306.33,-306.34,-306.34,-306.35,-306.36,-306.36,-306.37,-306.38,-306.38,-306.39,-306.4,-306.41,-306.41,-306.42,-306.43,-306.44,-306.45,-306.46,-306.46,-306.47,-306.48,-306.49,-306.49,-306.5,-306.51,-306.51,-306.51,-306.51,-306.51,-306.51,-306.51,-306.51,-306.51,-306.51,-306.51,-306.52,-306.52,-306.52,-306.51,-306.5,-306.48,-306.47,-306.45,-306.42,-306.4,-306.38,-306.36,-306.34,-306.33,-306.32,-306.31,-306.3,-306.29,-306.29,-306.28,-306.28,-306.28,-306.27,-306.27,-306.27,-306.27,-306.27,-306.27,-306.27,-306.27,-306.27,-306.27,-306.28,-306.28,-306.28,-306.28,-306.28,-306.28,-306.28,-306.28,-306.27,-306.27,-306.28,-306.28,-306.27,-306.27,-306.27,-306.27,-306.27,-306.26,-306.26,-306.26,-306.26,-306.26,-306.26,-306.25,-306.25,-306.25,-306.25,-306.25,-306.25,-306.25,-306.25,-306.25,-306.25,-306.26,-306.26,-306.27,-306.27,-306.26,-306.27,-306.27,-306.29,-306.29,-306.27,-306.27,-306.27,-306.28,-306.28,-306.27,-306.27,-306.27,-306.26,-306.24,-306.24,-306.23,-306.23,-306.23,-306.23,-306.23,-306.23,-306.23,-306.22,-306.23,-306.27,-306.37,-306.47,-306.61,-306.83,-306.95,-306.97,-306.63,-306.21,-305.8,-305.42,-305.3,-305.38,-305.57,-305.67,-305.89,-306.05,-306.16,-306.22,-306.24,-306.26,-306.26,-306.27,-306.27,-306.29,-306.29,-306.3,-306.3,-306.31,-306.31,-306.32,-306.32,-306.33,-306.33,-306.34,-306.35,-306.35,-306.36,-306.37,-306.37,-306.38,-306.39,-306.4,-306.41,-306.41,-306.42,-306.43,-306.44,-306.45,-306.45,-306.46,-306.47,-306.47,-306.47,-306.48,-306.48,-306.48,-306.48,-306.48,-306.47,-306.48,-306.47,-306.47,-306.48,-306.48,-306.47,-306.47,-306.46,-306.45,-306.43,-306.41,-306.4,-306.38,-306.36,-306.34,-306.32,-306.31,-306.3,-306.29,-306.28,-306.27,-306.27,-306.26,-306.26,-306.26,-306.26,-306.26,-306.25,-306.26,-306.25,-306.26,-306.26,-306.26,-306.26,-306.26,-306.26,-306.26,-306.26,-306.26,-306.26,-306.26,-306.26,-306.26,-306.26,-306.26,-306.26,-306.26,-306.26,-306.26,-306.25,-306.25,-306.25,-306.25,-306.25,-306.25,-306.24,-306.24,-306.24,-306.24,-306.24,-306.24,-306.23,-306.23,-306.23,-306.23,-306.23,-306.23,-306.23,-306.23,-306.23,-306.22,-306.22,-306.22,-306.22,-306.23,-306.23,-306.24,-306.24,-306.24,-306.24,-306.24,-306.25,-306.26,-306.26,-306.25,-306.25,-306.25,-306.25,-306.26,-306.26,-306.26,-306.25,-306.24,-306.22,-306.22,-306.21,-306.21,-306.21,-306.21,-306.21,-306.2,-306.2,-306.2,-306.21,-306.26,-306.37,-306.43,-306.56,-306.79,-306.95,-306.99,-306.63,-306.1,-305.63,-305.27,-305.16,-305.26,-305.47,-305.73,-305.95,-306.1,-306.2,-306.22,-306.24,-306.24,-306.25,-306.25,-306.26,-306.26,-306.28,-306.28,-306.29,-306.29,-306.3,-306.3,-306.31,-306.31,-306.32,-306.32,-306.33,-306.34,-306.35,-306.35,-306.36,-306.37,-306.38,-306.38,-306.39,-306.4,-306.41,-306.42,-306.43,-306.44,-306.45,-306.46,-306.47,-306.47,-306.47,-306.48,-306.48,-306.48,-306.48,-306.48,-306.49,-306.49,-306.49,-306.49,-306.49,-306.49,-306.49,-306.48,-306.47,-306.46,-306.44,-306.42,-306.39,-306.37,-306.35,-306.33,-306.31,-306.29,-306.28,-306.27,-306.26,-306.26,-306.25,-306.25,-306.24,-306.23,-306.23,-306.23,-306.23,-306.23,-306.22,-306.23,-306.23,-306.23,-306.23,-306.23,-306.23,-306.23,-306.23,-306.23,-306.23,-306.24,-306.23,-306.24,-306.23,-306.23,-306.23,-306.23,-306.23,-306.23,-306.23,-306.23,-306.23,-306.23,-306.23,-306.22,-306.22,-306.22,-306.22,-306.22,-306.21,-306.21,-306.21,-306.21,-306.21,-306.21,-306.21,-306.2,-306.2,-306.2,-306.2,-306.2,-306.2,-306.2,-306.21,-306.21,-306.22,-306.22,-306.22,-306.22,-306.22,-306.24,-306.24,-306.24,-306.23,-306.23,-306.23,-306.24,-306.23,-306.23,-306.23,-306.21,-306.2,-306.19,-306.19,-306.19,-306.19,-306.18,-306.18,-306.18,-306.18,-306.18,-306.18,-306.19,-306.26,-306.38,-306.5,-306.71,-306.91,-307.01,-306.76,-306.24,-305.71,-305.31,-305.18,-305.12,-305.29,-305.49,-305.77,-305.97,-306.11,-306.18,-306.2,-306.21,-306.22,-306.23,-306.23,-306.24,-306.24,-306.25,-306.25,-306.26,-306.26,-306.27,-306.27,-306.28,-306.29,-306.29,-306.3,-306.31,-306.32,-306.32,-306.33,-306.34,-306.35,-306.36,-306.36,-306.37,-306.38,-306.39,-306.4,-306.41,-306.41,-306.42,-306.43,-306.44,-306.44,-306.45,-306.45,-306.45,-306.45,-306.45,-306.45,-306.45,-306.45,-306.46,-306.46,-306.46,-306.46,-306.45,-306.45,-306.44,-306.43,-306.41,-306.39,-306.36,-306.34,-306.32,-306.3,-306.28,-306.27,-306.25,-306.24,-306.23,-306.23,-306.22,-306.22,-306.21,-306.21,-306.21,-306.21,-306.2,-306.21,-306.2,-306.21,-306.21,-306.21,-306.21,-306.21,-306.21,-306.21,-306.21,-306.21,-306.21,-306.21,-306.21,-306.21,-306.21,-306.21,-306.21,-306.21,-306.21,-306.21,-306.21,-306.21,-306.2,-306.2,-306.2,-306.2,-306.2,-306.2,-306.19,-306.19,-306.19,-306.19,-306.19,-306.19,-306.18,-306.18,-306.18,-306.18,-306.18,-306.18,-306.18,-306.18,-306.17,-306.17,-306.17,-306.17,-306.17,-306.17,-306.17,-306.18,-306.18,-306.19,-306.19,-306.19,-306.19,-306.19,-306.2,-306.21,-306.21,-306.2,-306.2,-306.2,-306.21,-306.21,-306.21,-306.2,-306.19,-306.18,-306.17,-306.17,-306.16,-306.16,-306.16,-306.16,-306.16,-306.16,-306.15,-306.15,-306.16,-306.22,-306.32,-306.43,-306.59,-306.81,-306.91,-306.85,-306.44,-305.97,-305.55,-305.23,-305.19,-305.34,-305.44,-305.65,-305.88,-306.02,-306.12,-306.16,-306.18,-306.18,-306.2,-306.2,-306.21,-306.21,-306.22,-306.22,-306.23,-306.23,-306.24,-306.24,-306.26,-306.26,-306.27,-306.27,-306.28,-306.28,-306.29,-306.29,-306.3,-306.31,-306.32,-306.32,-306.33,-306.34,-306.35,-306.36,-306.37,-306.37,-306.38,-306.39,-306.39,-306.39,-306.4,-306.4,-306.4,-306.4,-306.4,-306.4,-306.4,-306.4,-306.4,-306.4,-306.4,-306.4,-306.4,-306.4,-306.39,-306.38,-306.36,-306.35,-306.34,-306.32,-306.3,-306.28,-306.26,-306.25,-306.23,-306.22,-306.21,-306.2,-306.19,-306.19,-306.19,-306.19,-306.18,-306.18,-306.18,-306.18,-306.18,-306.18,-306.18,-306.18,-306.18,-306.18,-306.18,-306.19,-306.18,-306.19,-306.18,-306.19,-306.18,-306.19,-306.18,-306.18,-306.18,-306.18,-306.18,-306.18,-306.18,-306.18,-306.17,-306.18,-306.17,-306.17,-306.17,-306.17,-306.17,-306.17,-306.16,-306.17,-306.16,-306.16,-306.16,-306.16,-306.16,-306.15,-306.15,-306.15,-306.15,-306.16,-306.16,-306.17,-306.17,-306.18,-306.18,-306.18,-306.19,-306.2,-306.19,-306.18,-306.18,-306.18,-306.19,-306.18,-306.18,-306.19,-306.18,-306.17,-306.15,-306.15,-306.14,-306.14,-306.14,-306.14,-306.14,-306.14,-306.13,-306.13,-306.15,-306.21,-306.32,-306.43,-306.61,-306.82,-306.87,-306.89,-306.57,-306.11,-305.69,-305.31,-305.18,-305.26,-305.44,-305.66,-305.88,-306.01,-306.11,-306.14,-306.16,-306.17,-306.18,-306.18,-306.2,-306.2,-306.21,-306.21,-306.22,-306.22,-306.23,-306.23,-306.24,-306.24,-306.25,-306.26,-306.26,-306.27,-306.28,-306.28,-306.29,-306.3,-306.31,-306.32,-306.32,-306.33,-306.34,-306.35,-306.36,-306.37,-306.38,-306.38,-306.39,-306.4,-306.4,-306.4,-306.4,-306.41,-306.41,-306.41,-306.4,-306.41,-306.41,-306.41,-306.41,-306.41,-306.4,-306.4,-306.38,-306.37,-306.35,-306.33,-306.31,-306.29,-306.26,-306.25,-306.23,-306.22,-306.2,-306.19,-306.18,-306.18,-306.17,-306.17,-306.17,-306.17,-306.16,-306.16,-306.16,-306.16,-306.16,-306.16,-306.16,-306.16,-306.16,-306.16,-306.16,-306.17,-306.17,-306.17,-306.17,-306.17,-306.17,-306.17,-306.17,-306.17,-306.16,-306.16,-306.16,-306.16,-306.16,-306.16,-306.16,-306.16,-306.15,-306.15,-306.15,-306.15,-306.15,-306.15,-306.15,-306.15,-306.14,-306.14,-306.14,-306.14,-306.14,-306.14,-306.14,-306.14,-306.14,-306.14,-306.14,-306.14,-306.15,-306.15,-306.15,-306.15,-306.15,-306.16,-306.17,-306.18,-306.17,-306.17,-306.16,-306.16,-306.17,-306.17,-306.17,-306.16,-306.15,-306.13,-306.12,-306.12,-306.12,-306.12,-306.12,-306.11,-306.11,-306.11,-306.11,-306.11,-306.13,-306.2,-306.32,-306.44,-306.66,-306.84,-306.93,-306.63,-306.11,-305.59,-305.22,-305.05,-305.12,-305.34,-305.58,-305.72,-305.9,-306.05,-306.11,-306.14,-306.13,-306.16,-306.15,-306.17,-306.17,-306.18,-306.18,-306.19,-306.19,-306.2,-306.2,-306.21,-306.21,-306.23,-306.22,-306.23,-306.24,-306.25,-306.25,-306.26,-306.27,-306.28,-306.28,-306.3,-306.3,-306.32,-306.32,-306.33,-306.34,-306.35,-306.36,-306.37,-306.37,-306.38,-306.38,-306.38,-306.39,-306.39,-306.39,-306.39,-306.39,-306.39,-306.39,-306.39,-306.4,-306.39,-306.39,-306.38,-306.37,-306.35,-306.33,-306.3,-306.29,-306.27,-306.25,-306.23,-306.21,-306.19,-306.18,-306.17,-306.17,-306.16,-306.15,-306.15,-306.15,-306.14,-306.14,-306.13,-306.14,-306.13,-306.14,-306.14,-306.14,-306.14,-306.14,-306.14,-306.14,-306.14,-306.14,-306.14,-306.15,-306.14,-306.15,-306.14,-306.15,-306.14,-306.14,-306.14,-306.14,-306.14,-306.14,-306.14,-306.14,-306.13,-306.13,-306.13,-306.13,-306.13,-306.12,-306.12,-306.12,-306.12,-306.12,-306.12,-306.11,-306.11,-306.11,-306.11,-306.11,-306.11,-306.11,-306.11,-306.11,-306.12,-306.12,-306.13,-306.13,-306.13,-306.13,-306.14,-306.15,-306.14,-306.14,-306.14,-306.14,-306.14,-306.14,-306.14,-306.14,-306.13,-306.11,-306.1,-306.1,-306.09,-306.09,-306.09,-306.09,-306.09,-306.08,-306.08,-306.08,-306.1,-306.16,-306.28,-306.4,-306.61,-306.81,-306.87,-306.85,-306.44,-305.88,-305.44,-305.1,-305.03,-305.19,-305.4,-305.67,-305.87,-306,-306.08,-306.1,-306.12,-306.12,-306.13,-306.13,-306.14,-306.14,-306.15,-306.15,-306.16,-306.16,-306.17,-306.17,-306.19,-306.19,-306.2,-306.2,-306.21,-306.21,-306.22,-306.23,-306.24,-306.24,-306.25,-306.26,-306.27,-306.27,-306.29,-306.29,-306.3,-306.31,-306.32,-306.33,-306.33,-306.34,-306.35,-306.35,-306.35,-306.35,-306.35,-306.35,-306.35,-306.35,-306.35,-306.35,-306.35,-306.36,-306.35,-306.35,-306.34,-306.32,-306.3,-306.28,-306.26,-306.24,-306.22,-306.2,-306.18,-306.17,-306.15,-306.14,-306.13,-306.13,-306.12,-306.12,-306.11,-306.11,-306.11,-306.11,-306.11,-306.11,-306.1,-306.11,-306.1,-306.11,-306.11,-306.11,-306.11,-306.11,-306.11,-306.11,-306.11,-306.11,-306.11,-306.11,-306.11,-306.11,-306.11,-306.11,-306.11,-306.11,-306.1,-306.1,-306.1,-306.1,-306.1,-306.1,-306.09,-306.09,-306.09,-306.09,-306.09,-306.09,-306.08,-306.08,-306.08,-306.08,-306.08,-306.08,-306.08,-306.08,-306.09,-306.09,-306.09,-306.09,-306.09,-306.1,-306.12,-306.12,-306.1,-306.1,-306.1,-306.11,-306.11,-306.11,-306.11,-306.1,-306.09,-306.07,-306.07,-306.06,-306.06,-306.06,-306.06,-306.06,-306.05,-306.05,-306.05,-306.06,-306.08,-306.15,-306.27,-306.38,-306.61,-306.78,-306.85,-306.59,-306.11,-305.64,-305.22,-305.05,-305.12,-305.31,-305.54,-305.77,-305.92,-306.01,-306.05,-306.06,-306.07,-306.09,-306.09,-306.1,-306.1,-306.11,-306.11,-306.12,-306.13,-306.13,-306.14,-306.14,-306.15,-306.16,-306.16,-306.17,-306.17,-306.18,-306.19,-306.19,-306.2,-306.21,-306.22,-306.23,-306.23,-306.24,-306.25,-306.25,-306.26,-306.27,-306.27,-306.28,-306.29,-306.29,-306.29,-306.29,-306.3,-306.3,-306.3,-306.29,-306.3,-306.29,-306.29,-306.29,-306.3,-306.3,-306.29,-306.29,-306.28,-306.26,-306.25,-306.22,-306.2,-306.18,-306.17,-306.14,-306.14,-306.12,-306.11,-306.1,-306.09,-306.09,-306.08,-306.08,-306.08,-306.07,-306.07,-306.07,-306.07,-306.07,-306.07,-306.07,-306.07,-306.07,-306.07,-306.07,-306.07,-306.07,-306.08,-306.07,-306.07,-306.07,-306.07,-306.07,-306.07,-306.07,-306.07,-306.07,-306.07,-306.07,-306.07,-306.06,-306.06,-306.06,-306.06,-306.06,-306.06,-306.05,-306.05,-306.05,-306.05,-306.05,-306.05,-306.06,-306.07,-306.07,-306.07,-306.07,-306.07,-306.09,-306.09,-306.08,-306.07,-306.07,-306.08,-306.08,-306.08,-306.07,-306.07,-306.06,-306.05,-306.04,-306.03,-306.03,-306.03,-306.03,-306.03,-306.03,-306.02,-306.03,-306.03,-306.07,-306.12,-306.22,-306.33,-306.52,-306.71,-306.75,-306.62,-306.21,-305.83,-305.41,-305.16,-305.15,-305.28,-305.47,-305.69,-305.85,-305.95,-306.02,-306.04,-306.06,-306.06,-306.07,-306.07,-306.09,-306.09,-306.1,-306.1,-306.11,-306.11,-306.12,-306.12,-306.13,-306.13,-306.15,-306.15,-306.16,-306.16,-306.17,-306.17,-306.19,-306.19,-306.2,-306.21,-306.22,-306.23,-306.24,-306.24,-306.25,-306.26,-306.27,-306.28,-306.28,-306.29,-306.29,-306.29,-306.29
