11.269,11.266,11.257,11.254,11.239,11.234,11.235,11.239,11.234,11.231,11.224,11.221,11.224,11.229,11.225,11.226,11.233,11.241,11.243,11.239,11.24,11.249,11.256,11.259,11.257,11.257,11.259,11.264,11.265,11.265,11.262,11.266,11.272,11.271,11.273,11.269,11.274,11.277,11.276,11.273,11.273,11.278,11.278,11.278,11.271,11.27,11.27,11.277,11.281,11.275,11.263,11.264,11.273,11.273,11.28,11.272,11.273,11.272,11.275,11.275,11.272,11.278,11.279,11.278,11.279,11.268,11.271,11.274,11.278,11.28,11.277,11.272,11.272,11.28,11.279,11.273,11.271,11.27,11.278,11.279,11.276,11.274,11.273,11.278,11.283,11.282,11.276,11.27,11.288,11.3,11.289,11.285,11.307,11.347,11.378,11.376,11.345,11.332,11.329,11.33,11.314,11.301,11.275,11.27,11.273,11.266,11.265,11.261,11.262,11.266,11.263,11.257,11.255,11.264,11.265,11.261,11.257,11.242,11.184,11.125,11.122,11.129,11.248,11.529,11.971,12.113,12.081,11.586,11.068,10.945,11.046,11.114,11.154,11.203,11.163,11.2,11.233,11.303,11.298,11.311,11.301,11.318,11.305,11.321,11.318,11.334,11.328,11.338,11.335,11.35,11.354,11.368,11.36,11.375,11.374,11.389,11.391,11.397,11.391,11.404,11.413,11.429,11.432,11.444,11.456,11.469,11.477,11.486,11.492,11.51,11.527,11.543,11.556,11.57,11.591,11.612,11.626,11.632,11.644,11.659,11.679,11.689,11.688,11.688,11.685,11.68,11.671,11.644,11.611,11.577,11.546,11.509,11.477,11.438,11.412,11.391,11.375,11.346,11.328,11.311,11.307,11.292,11.287,11.279,11.276,11.271,11.275,11.265,11.265,11.257,11.26,11.26,11.265,11.254,11.258,11.261,11.268,11.269,11.266,11.267,11.275,11.286,11.29,11.283,11.287,11.287,11.298,11.301,11.302,11.3,11.305,11.311,11.316,11.305,11.308,11.305,11.316,11.315,11.319,11.313,11.315,11.321,11.323,11.319,11.317,11.311,11.312,11.319,11.313,11.308,11.312,11.311,11.316,11.317,11.31,11.312,11.317,11.32,11.315,11.308,11.31,11.311,11.317,11.319,11.32,11.315,11.315,11.318,11.32,11.314,11.308,11.31,11.314,11.318,11.312,11.311,11.311,11.317,11.316,11.314,11.312,11.312,11.318,11.32,11.317,11.32,11.322,11.323,11.324,11.338,11.328,11.325,11.34,11.374,11.407,11.414,11.399,11.383,11.369,11.362,11.362,11.356,11.345,11.329,11.309,11.304,11.304,11.306,11.312,11.311,11.302,11.299,11.303,11.309,11.311,11.303,11.301,11.3,11.265,11.219,11.159,11.146,11.172,11.307,11.604,12.009,12.184,11.937,11.449,11.072,11.097,11.18,11.209,11.268,11.223,11.238,11.284,11.337,11.351,11.346,11.347,11.338,11.345,11.348,11.356,11.355,11.356,11.364,11.38,11.385,11.391,11.388,11.394,11.403,11.412,11.415,11.417,11.422,11.429,11.442,11.451,11.454,11.459,11.473,11.487,11.495,11.5,11.51,11.527,11.543,11.559,11.573,11.58,11.599,11.621,11.637,11.648,11.66,11.668,11.684,11.7,11.707,11.71,11.716,11.722,11.725,11.708,11.686,11.663,11.634,11.606,11.568,11.537,11.509,11.484,11.46,11.432,11.418,11.401,11.392,11.383,11.365,11.353,11.344,11.34,11.344,11.339,11.331,11.325,11.324,11.328,11.327,11.32,11.319,11.323,11.328,11.33,11.326,11.323,11.326,11.333,11.332,11.335,11.331,11.335,11.344,11.348,11.343,11.34,11.345,11.352,11.358,11.353,11.353,11.356,11.365,11.367,11.362,11.359,11.356,11.363,11.366,11.362,11.36,11.358,11.363,11.366,11.363,11.356,11.354,11.36,11.364,11.359,11.355,11.355,11.358,11.36,11.361,11.357,11.355,11.354,11.359,11.361,11.353,11.352,11.353,11.355,11.353,11.356,11.35,11.351,11.358,11.357,11.354,11.346,11.348,11.353,11.352,11.354,11.348,11.349,11.352,11.354,11.357,11.347,11.346,11.356,11.355,11.341,11.331,11.33,11.333,11.334,11.332,11.328,11.328,11.331,11.333,11.335,11.33,11.331,11.333,11.335,11.339,11.342,11.334,11.334,11.344,11.359,11.348,11.343,11.368,11.412,11.43,11.442,11.422,11.401,11.39,11.39,11.391,11.375,11.364,11.349,11.338,11.335,11.331,11.328,11.341,11.343,11.336,11.331,11.334,11.337,11.344,11.341,11.34,11.328,11.289,11.209,11.185,11.184,11.267,11.478,11.873,12.179,12.143,11.761,11.27,11.169,11.253,11.279,11.313,11.33,11.282,11.31,11.355,11.382,11.382,11.381,11.388,11.385,11.387,11.388,11.403,11.405,11.41,11.407,11.414,11.42,11.431,11.43,11.433,11.433,11.442,11.452,11.459,11.455,11.462,11.469,11.485,11.489,11.49,11.493,11.507,11.524,11.535,11.539,11.553,11.565,11.588,11.602,11.607,11.619,11.635,11.661,11.673,11.684,11.692,11.705,11.726,11.737,11.742,11.744,11.745,11.75,11.744,11.724,11.689,11.652,11.619,11.602,11.569,11.531,11.503,11.482,11.459,11.434,11.408,11.387,11.376,11.373,11.358,11.345,11.335,11.333,11.331,11.324,11.318,11.315,11.321,11.328,11.328,11.321,11.314,11.31,11.314,11.316,11.311,11.311,11.314,11.322,11.323,11.32,11.319,11.322,11.332,11.335,11.327,11.326,11.327,11.333,11.34,11.334,11.336,11.335,11.34,11.346,11.342,11.337,11.335,11.342,11.345,11.341,11.336,11.334,11.341,11.345,11.337,11.335,11.333,11.338,11.343,11.343,11.337,11.332,11.33,11.345,11.336,11.33,11.328,11.327,11.335,11.332,11.327,11.323,11.332,11.335,11.334,11.335,11.327,11.325,11.332,11.333,11.333,11.323,11.322,11.335,11.333,11.329,11.329,11.327,11.332,11.335,11.331,11.328,11.325,11.332,11.333,11.329,11.315,11.321,11.331,11.329,11.336,11.331,11.325,11.322,11.336,11.349,11.336,11.334,11.362,11.403,11.429,11.416,11.392,11.384,11.381,11.38,11.368,11.355,11.345,11.321,11.317,11.31,11.307,11.31,11.318,11.316,11.31,11.307,11.309,11.32,11.321,11.315,11.311,11.306,11.272,11.191,11.158,11.158,11.232,11.444,11.839,12.139,12.086,11.641,11.162,11.07,11.154,11.185,11.232,11.247,11.228,11.262,11.306,11.33,11.323,11.33,11.327,11.329,11.324,11.334,11.341,11.345,11.34,11.347,11.35,11.369,11.367,11.37,11.365,11.378,11.387,11.393,11.393,11.396,11.404,11.413,11.423,11.423,11.427,11.436,11.453,11.459,11.468,11.472,11.487,11.506,11.527,11.538,11.551,11.568,11.595,11.609,11.621,11.636,11.651,11.67,11.691,11.696,11.697,11.695,11.696,11.697,11.686,11.657,11.624,11.594,11.561,11.52,11.483,11.448,11.422,11.41,11.384,11.352,11.327,11.311,11.309,11.296,11.285,11.275,11.272,11.27,11.267,11.256,11.249,11.253,11.263,11.254,11.249,11.249,11.248,11.254,11.26,11.256,11.251,11.253,11.256,11.266,11.264,11.265,11.261,11.271,11.28,11.273,11.272,11.272,11.286,11.289,11.289,11.285,11.287,11.288,11.296,11.293,11.285,11.284,11.288,11.298,11.301,11.297,11.29,11.295,11.302,11.303,11.3,11.294,11.298,11.303,11.303,11.296,11.295,11.288,11.295,11.299,11.293,11.289,11.286,11.292,11.291,11.294,11.288,11.28,11.294,11.297,11.286,11.281,11.285,11.291,11.297,11.297,11.3,11.297,11.294,11.296,11.307,11.297,11.293,11.321,11.358,11.383,11.364,11.344,11.341,11.334,11.339,11.324,11.307,11.3,11.291,11.281,11.271,11.268,11.28,11.276,11.281,11.279,11.27,11.263,11.271,11.285,11.272,11.268,11.257,11.229,11.149,11.133,11.134,11.178,11.354,11.712,12.098,12.128,11.643,11.121,10.876,10.981,11.057,11.11,11.172,11.151,11.176,11.215,11.28,11.303,11.301,11.294,11.3,11.295,11.308,11.311,11.324,11.322,11.316,11.309,11.326,11.334,11.336,11.335,11.345,11.359,11.365,11.362,11.381,11.373,11.394,11.405,11.414,11.404,11.417,11.436,11.448,11.457,11.468,11.48,11.501,11.515,11.533,11.536,11.559,11.579,11.6,11.608,11.615,11.637,11.654,11.662,11.667,11.672,11.67,11.671,11.665,11.647,11.615,11.592,11.565,11.54,11.494,11.459,11.416,11.398,11.382,11.361,11.328,11.307,11.298,11.297,11.292,11.283,11.273,11.275,11.268,11.264,11.251,11.251,11.25,11.261,11.252,11.253,11.248,11.25,11.258,11.259,11.253,11.25,11.25,11.259,11.265,11.266,11.26,11.257,11.265,11.274,11.267,11.268,11.264,11.265,11.272,11.277,11.272,11.278,11.279,11.286,11.279,11.277,11.276,11.278,11.283,11.28,11.267,11.272,11.271,11.274,11.274,11.264,11.262,11.266,11.269,11.271,11.266,11.26,11.271,11.272,11.271,11.265,11.263,11.268,11.281,11.276,11.264,11.273,11.292,11.286,11.292,11.31,11.349,11.364,11.358,11.333,11.317,11.306,11.31,11.307,11.303,11.284,11.259,11.253,11.263,11.264,11.266,11.259,11.259,11.269,11.278,11.272,11.274,11.278,11.288,11.286,11.262,11.182,11.134,11.146,11.16,11.262,11.517,11.944,12.207,12.063,11.564,11.08,11.031,11.13,11.151,11.204,11.201,11.198,11.245,11.307,11.343,11.332,11.331,11.329,11.34,11.341,11.345,11.348,11.351,11.363,11.381,11.378,11.38,11.387,11.402,11.407,11.412,11.416,11.418,11.437,11.446,11.457,11.46,11.465,11.483,11.496,11.507,11.51,11.516,11.541,11.561,11.575,11.582,11.598,11.622,11.64,11.654,11.664,11.675,11.693,11.715,11.728,11.728,11.735,11.745,11.754,11.757,11.744,11.725,11.694,11.671,11.637,11.595,11.558,11.525,11.493,11.464,11.434,11.411,11.388,11.392,11.389,11.366,11.347,11.336,11.319,11.318,11.314,11.287,11.264,11.258,11.255,11.23,11.208,11.196,11.193,11.186,11.186,11.179,11.177,11.177,11.186,11.188,11.184,11.177,11.183,11.195,11.201,11.196,11.194,11.193,11.207,11.206,11.204,11.21,11.211,11.233,11.232,11.221,11.228,11.227,11.241,11.247,11.247,11.248,11.251,11.258,11.269,11.267,11.266,11.266,11.278,11.284,11.282,11.282,11.285,11.296,11.302,11.299,11.299,11.297,11.302,11.31,11.32,11.321,11.32,11.319,11.327,11.336,11.326,11.316,11.33,11.371,11.4,11.389,11.365,11.352,11.345,11.336,11.336,11.321,11.315,11.304,11.287,11.279,11.276,11.273,11.279,11.281,11.273,11.265,11.261,11.261,11.259,11.25,11.241,11.232,11.191,11.148,11.101,11.096,11.144,11.293,11.637,12.037,12.163,11.845,11.352,11.066,11.103,11.129,11.138,11.187,11.167,11.2,11.251,11.299,11.309,11.311,11.313,11.311,11.31,11.316,11.328,11.33,11.331,11.334,11.342,11.357,11.36,11.361,11.362,11.372,11.385,11.392,11.39,11.391,11.394,11.402,11.415,11.418,11.418,11.427,11.441,11.458,11.464,11.469,11.481,11.505,11.523,11.537,11.55,11.565,11.588,11.611,11.621,11.627,11.636,11.658,11.658,11.682,11.686,11.686,11.691,11.685,11.669,11.636,11.604,11.573,11.546,11.513,11.475,11.441,11.421,11.4,11.378,11.365,11.346,11.333,11.333,11.326,11.319,11.307,11.307,11.312,11.314,11.31,11.304,11.303,11.308,11.312,11.305,11.302,11.305,11.312,11.316,11.315,11.311,11.306,11.316,11.321,11.319,11.315,11.314,11.321,11.328,11.325,11.322,11.321,11.33,11.334,11.33,11.326,11.326,11.332,11.337,11.336,11.333,11.329,11.331,11.34,11.341,11.337,11.333,11.332,11.342,11.343,11.337,11.332,11.334,11.342,11.344,11.336,11.334,11.34,11.356,11.357,11.349,11.352,11.363,11.366,11.367,11.384,11.426,11.451,11.441,11.426,11.408,11.394,11.395,11.399,11.393,11.37,11.354,11.346,11.347,11.354,11.354,11.351,11.35,11.353,11.358,11.36,11.353,11.352,11.355,11.365,11.358,11.302,11.211,11.195,11.214,11.301,11.379,11.691,12.098,12.245,11.999,11.496,11.2,11.226,11.275,11.272,11.313,11.271,11.323,11.394,11.42,11.409,11.405,11.406,11.419,11.424,11.424,11.423,11.427,11.439,11.45,11.451,11.451,11.454,11.466,11.476,11.479,11.48,11.484,11.497,11.508,11.513,11.516,11.525,11.541,11.55,11.56,11.567,11.574,11.589,11.61,11.623,11.633,11.649,11.669,11.698,11.716,11.731,11.745,11.767,11.792,11.81,11.818,11.831,11.836,11.852,11.859,11.855,11.835,11.814,11.79,11.761,11.72,11.678,11.641,11.615,11.587,11.556,11.524,11.503,11.491,11.482,11.466,11.457,11.446,11.442,11.444,11.441,11.433,11.426,11.431,11.436,11.431,11.426,11.421,11.429,11.434,11.433,11.428,11.425,11.43,11.438,11.435,11.433,11.427,11.427,11.438,11.439,11.437,11.432,11.435,11.441,11.443,11.437,11.435,11.435,11.445,11.445,11.438,11.435,11.435,11.446,11.448,11.443,11.439,11.436,11.443,11.45,11.448,11.444,11.442,11.448,11.454,11.454,11.449,11.446,11.453,11.458,11.456,11.45,11.446,11.45,11.456,11.457,11.448,11.447,11.451,11.457,11.46,11.449,11.444,11.445,11.45,11.453,11.445,11.441,11.443,11.449,11.452,11.445,11.441,11.44,11.447,11.447,11.438,11.428,11.425,11.438,11.442,11.432,11.422,11.435,11.444,11.436,11.441,11.465,11.507,11.523,11.505,11.477,11.465,11.448,11.455,11.457,11.446,11.421,11.383,11.387,11.395,11.394,11.388,11.383,11.386,11.392,11.385,11.379,11.379,11.378,11.384,11.382,11.378,11.338,11.256,11.228,11.233,11.289,11.455,11.817,12.173,12.204,11.833,11.325,11.137,11.224,11.265,11.293,11.307,11.282,11.326,11.349,11.397,11.391,11.382,11.389,11.391,11.402,11.397,11.391,11.405,11.416,11.416,11.417,11.418,11.428,11.433,11.436,11.434,11.437,11.444,11.45,11.456,11.46,11.46,11.476,11.484,11.492,11.492,11.504,11.51,11.528,11.543,11.548,11.56,11.576,11.6,11.62,11.627,11.643,11.654,11.678,11.702,11.704,11.716,11.726,11.745,11.764,11.762,11.767,11.763,11.753,11.735,11.7,11.664,11.624,11.596,11.566,11.538,11.516,11.486,11.462,11.439,11.416,11.392,11.376,11.371,11.367,11.358,11.344,11.338,11.335,11.342,11.337,11.331,11.323,11.324,11.337,11.333,11.33,11.323,11.32,11.329,11.333,11.33,11.328,11.33,11.34,11.344,11.34,11.338,11.339,11.345,11.347,11.344,11.346,11.349,11.36,11.364,11.359,11.362,11.361,11.368,11.373,11.372,11.365,11.364,11.37,11.374,11.373,11.37,11.369,11.375,11.38,11.378,11.374,11.372,11.381,11.384,11.383,11.379,11.376,11.377,11.388,11.389,11.384,11.379,11.382,11.393,11.393,11.394,11.393,11.393,11.396,11.404,11.415,11.407,11.405,11.42,11.459,11.489,11.487,11.469,11.457,11.451,11.44,11.438,11.421,11.416,11.395,11.384,11.377,11.382,11.388,11.392,11.387,11.381,11.378,11.381,11.388,11.39,11.387,11.384,11.387,11.389,11.354,11.266,11.234,11.24,11.317,11.521,11.905,12.231,12.207,11.727,11.222,11.081,11.123,11.202,11.239,11.303,11.277,11.286,11.341,11.416,11.436,11.422,11.42,11.422,11.437,11.443,11.445,11.44,11.454,11.464,11.47,11.469,11.473,11.472,11.484,11.494,11.499,11.494,11.503,11.513,11.529,11.53,11.533,11.536,11.552,11.566,11.573,11.575,11.585,11.603,11.618,11.627,11.639,11.646,11.67,11.691,11.712,11.719,11.731,11.744,11.766,11.779,11.783,11.792,11.801,11.808,11.806,11.786,11.768,11.754,11.732,11.698,11.661,11.62,11.585,11.563,11.539,11.507,11.483,11.466,11.459,11.447,11.435,11.424,11.417,11.419,11.416,11.41,11.405,11.397,11.4,11.406,11.405,11.398,11.393,11.399,11.404,11.401,11.396,11.39,11.394,11.401,11.396,11.395,11.392,11.399,11.405,11.406,11.402,11.4,11.401,11.407,11.411,11.405,11.404,11.407,11.415,11.421,11.412,11.411,11.41,11.421,11.424,11.416,11.41,11.413,11.42,11.423,11.423,11.418,11.414,11.421,11.424,11.422,11.419,11.416,11.424,11.429,11.424,11.42,11.415,11.422,11.423,11.422,11.415,11.414,11.42,11.424,11.425,11.42,11.415,11.417,11.426,11.426,11.421,11.418,11.421,11.432,11.429,11.425,11.42,11.423,11.438,11.442,11.43,11.422,11.426,11.448,11.445,11.437,11.454,11.504,11.531,11.514,11.495,11.473,11.462,11.472,11.471,11.459,11.438,11.413,11.41,11.411,11.405,11.402,11.4,11.403,11.412,11.408,11.402,11.4,11.405,11.412,11.411,11.405,11.375,11.297,11.26,11.263,11.304,11.438,11.775,12.175,12.278,12.184,11.79,11.356,11.304,11.345,11.332,11.369,11.342,11.37,11.425,11.456,11.454,11.443,11.461,11.459,11.465,11.459,11.469,11.476,11.485,11.477,11.478,11.478,11.487,11.494,11.505,11.498,11.507,11.511,11.526,11.525,11.531,11.531,11.548,11.556,11.561,11.562,11.572,11.586,11.596,11.603,11.615,11.622,11.64,11.663,11.68,11.69,11.705,11.724,11.751,11.767,11.777,11.789,11.806,11.825,11.836,11.836,11.837,11.834,11.834,11.822,11.795,11.757,11.725,11.696,11.667,11.629,11.594,11.569,11.55,11.534,11.51,11.491,11.476,11.475,11.469,11.46,11.452,11.447,11.446,11.453,11.448,11.444,11.442,11.445,11.453,11.453,11.446,11.442,11.446,11.453,11.45,11.45,11.447,11.455,11.462,11.462,11.455,11.456,11.451,11.463,11.465,11.462,11.456,11.46,11.467,11.471,11.462,11.462,11.462,11.472,11.477,11.472,11.467,11.47,11.476,11.48,11.476,11.473,11.473,11.481,11.486,11.486,11.479,11.478,11.486,11.492,11.487,11.483,11.481,11.488,11.49,11.487,11.48,11.478,11.486,11.491,11.492,11.485,11.48,11.483,11.488,11.491,11.486,11.482,11.483,11.492,11.49,11.486,11.481,11.484,11.493,11.495,11.488,11.485,11.483,11.491,11.497,11.494,11.488,11.488,11.496,11.498,11.495,11.489,11.487,11.496,11.503,11.497,11.492,11.493,11.499,11.501,11.499,11.495,11.491,11.493,11.499,11.499,11.498,11.493,11.494,11.496,11.511,11.501,11.491,11.51,11.554,11.588,11.584,11.559,11.546,11.539,11.54,11.537,11.524,11.513,11.496,11.48,11.473,11.468,11.468,11.477,11.479,11.471,11.468,11.467,11.473,11.476,11.472,11.467,11.467,11.458,11.432,11.343,11.306,11.312,11.388,11.585,11.948,12.263,12.248,11.891,11.403,11.28,11.359,11.394,11.434,11.417,11.406,11.438,11.496,11.51,11.507,11.508,11.501,11.504,11.508,11.524,11.525,11.526,11.522,11.533,11.543,11.551,11.545,11.546,11.551,11.564,11.568,11.568,11.569,11.573,11.586,11.599,11.6,11.603,11.609,11.626,11.639,11.645,11.651,11.66,11.681,11.699,11.708,11.719,11.733,11.758,11.779,11.791,11.797,11.807,11.828,11.845,11.861,11.865,11.87,11.882,11.892,11.885,11.87,11.848,11.827,11.805,11.77,11.728,11.695,11.665,11.645,11.614,11.599,11.572,11.551,11.543,11.529,11.512,11.498,11.49,11.495,11.49,11.481,11.474,11.472,11.476,11.478,11.469,11.465,11.465,11.472,11.475,11.471,11.464,11.46,11.465,11.474,11.47,11.466,11.467,11.475,11.482,11.478,11.475,11.475,11.482,11.487,11.483,11.479,11.48,11.488,11.489,11.49,11.485,11.48,11.485,11.492,11.491,11.486,11.482,11.484,11.492,11.489,11.485,11.479,11.486,11.492,11.492,11.486,11.486,11.485,11.489,11.493,11.486,11.479,11.477,11.486,11.49,11.486,11.481,11.482,11.488,11.49,11.487,11.477,11.474,11.482,11.485,11.48,11.476,11.473,11.477,11.485,11.483,11.474,11.472,11.474,11.481,11.481,11.471,11.466,11.473,11.477,11.479,11.471,11.467,11.471,11.478,11.474,11.47,11.465,11.467,11.474,11.478,11.476,11.471,11.471,11.473,11.48,11.47,11.472,11.471,11.477,11.479,11.478,11.476,11.465,11.472,11.479,11.488,11.476,11.475,11.502,11.547,11.573,11.552,11.525,11.519,11.516,11.519,11.503,11.489,11.468,11.453,11.451,11.447,11.448,11.455,11.459,11.458,11.447,11.436,11.44,11.446,11.448,11.441,11.439,11.436,11.391,11.308,11.278,11.276,11.365,11.59,11.98,12.256,12.171,11.959,11.493,11.207,11.268,11.326,11.36,11.395,11.354,11.364,11.414,11.445,11.457,11.452,11.456,11.446,11.451,11.456,11.466,11.459,11.462,11.461,11.475,11.481,11.491,11.482,11.487,11.488,11.503,11.505,11.508,11.513,11.525,11.537,11.54,11.534,11.543,11.557,11.573,11.577,11.583,11.587,11.605,11.625,11.642,11.651,11.658,11.67,11.698,11.715,11.724,11.73,11.745,11.77,11.785,11.786,11.796,11.796,11.805,11.804,11.796,11.772,11.743,11.722,11.694,11.659,11.62,11.585,11.565,11.546,11.512,11.483,11.456,11.443,11.435,11.421,11.41,11.398,11.39,11.396,11.391,11.38,11.371,11.373,11.373,11.378,11.37,11.366,11.363,11.373,11.37,11.367,11.365,11.369,11.382,11.387,11.382,11.377,11.377,11.387,11.394,11.389,11.385,11.388,11.395,11.405,11.395,11.395,11.394,11.401,11.402,11.402,11.398,11.398,11.407,11.409,11.402,11.402,11.393,11.4,11.403,11.402,11.397,11.395,11.403,11.406,11.405,11.398,11.397,11.401,11.404,11.4,11.394,11.393,11.396,11.404,11.398,11.394,11.393,11.388,11.396,11.4,11.394,11.393,11.393,11.399,11.4,11.395,11.392,11.393,11.399,11.408,11.398,11.393,11.397,11.404,11.406,11.407,11.407,11.404,11.404,11.408,11.423,11.42,11.416,11.428,11.464,11.491,11.501,11.48,11.468,11.462,11.453,11.449,11.434,11.433,11.426,11.41,11.402,11.399,11.398,11.405,11.402,11.393,11.39,11.395,11.406,11.409,11.402,11.395,11.399,11.391,11.324,11.269,11.263,11.26,11.348,11.577,11.977,12.251,12.14,11.617,11.133,11.061,11.183,11.215,11.282,11.313,11.291,11.333,11.383,11.446,11.444,11.436,11.429,11.432,11.434,11.45,11.449,11.453,11.451,11.465,11.472,11.477,11.474,11.477,11.483,11.497,11.494,11.496,11.499,11.513,11.525,11.535,11.536,11.542,11.548,11.564,11.577,11.582,11.585,11.597,11.617,11.633,11.641,11.651,11.668,11.694,11.713,11.722,11.734,11.747,11.769,11.777,11.785,11.785,11.792,11.801,11.807,11.794,11.77,11.746,11.722,11.693,11.656,11.615,11.584,11.558,11.532,11.501,11.474,11.451,11.444,11.44,11.43,11.415,11.407,11.401,11.406,11.4,11.391,11.383,11.384,11.388,11.389,11.38,11.376,11.38,11.389,11.388,11.385,11.381,11.382,11.385,11.395,11.395,11.393,11.391,11.403,11.41,11.408,11.4,11.403,11.412,11.418,11.418,11.413,11.413,11.421,11.426,11.42,11.418,11.414,11.42,11.427,11.426,11.419,11.41,11.415,11.421,11.422,11.416,11.414,11.413,11.419,11.412,11.407,11.405,11.409,11.417,11.416,11.412,11.406,11.406,11.413,11.415,11.407,11.403,11.404,11.411,11.415,11.406,11.401,11.404,11.409,11.411,11.403,11.397,11.397,11.408,11.411,11.406,11.398,11.397,11.404,11.409,11.407,11.402,11.399,11.405,11.409,11.408,11.404,11.41,11.418,11.415,11.409,11.422,11.415,11.414,11.422,11.444,11.482,11.507,11.494,11.476,11.465,11.448,11.446,11.444,11.442,11.423,11.395,11.387,11.388,11.396,11.395,11.389,11.385,11.385,11.39,11.393,11.389,11.383,11.379,11.387,11.378,11.306,11.237,11.228,11.258,11.38,11.652,12.035,12.229,12.03,11.558,11.166,11.131,11.218,11.28,11.332,11.342,11.313,11.343,11.411,11.437,11.433,11.424,11.425,11.431,11.445,11.446,11.447,11.446,11.458,11.47,11.474,11.472,11.473,11.479,11.494,11.498,11.499,11.499,11.509,11.522,11.532,11.534,11.535,11.544,11.562,11.574,11.577,11.584,11.597,11.615,11.625,11.634,11.645,11.655,11.68,11.703,11.717,11.727,11.738,11.758,11.777,11.785,11.79,11.798,11.813,11.821,11.816,11.802,11.785,11.775,11.754,11.721,11.681,11.642,11.614,11.594,11.564,11.531,11.505,11.484,11.477,11.465,11.447,11.433,11.43,11.431,11.426,11.415,11.408,11.409,11.413,11.414,11.408,11.401,11.399,11.407,11.411,11.405,11.399,11.398,11.403,11.407,11.402,11.401,11.4,11.41,11.418,11.414,11.411,11.41,11.417,11.425,11.424,11.419,11.417,11.423,11.431,11.431,11.424,11.423,11.428,11.432,11.43,11.425,11.422,11.428,11.434,11.43,11.428,11.421,11.422,11.429,11.427,11.422,11.418,11.418,11.422,11.429,11.421,11.417,11.417,11.424,11.425,11.419,11.416,11.416,11.425,11.428,11.423,11.419,11.416,11.421,11.425,11.422,11.416,11.414,11.416,11.422,11.419,11.413,11.409,11.415,11.422,11.419,11.412,11.411,11.412,11.421,11.417,11.412,11.408,11.41,11.418,11.419,11.411,11.409,11.413,11.419,11.419,11.41,11.408,11.41,11.419,11.416,11.416,11.414,11.409,11.411,11.418,11.428,11.415,11.413,11.437,11.481,11.511,11.498,11.475,11.468,11.461,11.459,11.452,11.438,11.429,11.406,11.397,11.393,11.393,11.396,11.401,11.398,11.391,11.385,11.389,11.393,11.392,11.387,11.385,11.378,11.32,11.247,11.232,11.247,11.366,11.645,12.031,12.184,12.199,11.868,11.365,11.198,11.262,11.317,11.342,11.359,11.33,11.363,11.41,11.43,11.423,11.429,11.42,11.425,11.428,11.444,11.441,11.447,11.441,11.449,11.457,11.473,11.469,11.47,11.469,11.483,11.489,11.491,11.488,11.497,11.503,11.518,11.519,11.523,11.526,11.534,11.55,11.562,11.561,11.577,11.587,11.609,11.625,11.631,11.643,11.659,11.682,11.695,11.707,11.72,11.739,11.762,11.773,11.777,11.781,11.782,11.793,11.795,11.783,11.758,11.732,11.707,11.682,11.641,11.603,11.572,11.553,11.53,11.499,11.47,11.453,11.441,11.433,11.414,11.407,11.395,11.395,11.395,11.391,11.381,11.377,11.38,11.386,11.384,11.38,11.373,11.379,11.385,11.385,11.377,11.376,11.381,11.389,11.389,11.387,11.383,11.385,11.394,11.397,11.392,11.392,11.39,11.398,11.403,11.397,11.393,11.396,11.404,11.406,11.399,11.396,11.398,11.405,11.405,11.402,11.395,11.393,11.397,11.403,11.399,11.396,11.392,11.398,11.402,11.398,11.394,11.389,11.394,11.403,11.398,11.392,11.389,11.391,11.397,11.397,11.395,11.389,11.392,11.397,11.398,11.394,11.389,11.393,11.397,11.4,11.393,11.39,11.396,11.4,11.401,11.399,11.392,11.391,11.401,11.4,11.398,11.392,11.39,11.401,11.407,11.402,11.396,11.396,11.4,11.401,11.394,11.389,11.39,11.397,11.405,11.405,11.399,11.388,11.387,11.413,11.408,11.398,11.41,11.451,11.494,11.495,11.465,11.44,11.432,11.436,11.432,11.415,11.401,11.377,11.378,11.374,11.369,11.364,11.362,11.369,11.368,11.365,11.362,11.358,11.363,11.363,11.359,11.349,11.307,11.227,11.204,11.203,11.28,11.496,11.893,12.077,12.188,11.901,11.396,11.119,11.163,11.251,11.254,11.311,11.258,11.297,11.326,11.38,11.366,11.378,11.374,11.378,11.37,11.378,11.375,11.398,11.392,11.394,11.392,11.404,11.409,11.419,11.414,11.416,11.424,11.443,11.445,11.445,11.446,11.459,11.476,11.484,11.48,11.486,11.491,11.503,11.515,11.516,11.53,11.545,11.568,11.582,11.596,11.603,11.617,11.64,11.66,11.665,11.679,11.693,11.707,11.716,11.716,11.718,11.721,11.721,11.722,11.701,11.674,11.643,11.613,11.584,11.551,11.509,11.476,11.448,11.434,11.408,11.386,11.363,11.359,11.353,11.335,11.325,11.318,11.308,11.317,11.312,11.303,11.293,11.294,11.301,11.303,11.297,11.292,11.293,11.306,11.305,11.307,11.299,11.302,11.304,11.306,11.307,11.307,11.306,11.317,11.327,11.321,11.313,11.313,11.319,11.332,11.329,11.323,11.318,11.328,11.336,11.334,11.334,11.327,11.329,11.336,11.335,11.33,11.324,11.333,11.337,11.337,11.326,11.325,11.326,11.331,11.329,11.322,11.321,11.326,11.334,11.331,11.323,11.321,11.319,11.326,11.334,11.33,11.328,11.327,11.333,11.335,11.331,11.324,11.325,11.336,11.344,11.341,11.328,11.324,11.352,11.36,11.345,11.342,11.361,11.4,11.433,11.424,11.396,11.383,11.377,11.377,11.371,11.354,11.324,11.321,11.327,11.325,11.321,11.319,11.323,11.328,11.327,11.32,11.321,11.318,11.332,11.328,11.323,11.309,11.26,11.204,11.202,11.196,11.304,11.577,12.016,12.213,11.945,11.401,10.947,10.968,11.051,11.103,11.168,11.21,11.213,11.232,11.291,11.347,11.363,11.363,11.37,11.368,11.368,11.369,11.381,11.386,11.392,11.39,11.398,11.401,11.418,11.417,11.419,11.415,11.427,11.437,11.447,11.451,11.457,11.465,11.479,11.491,11.494,11.498,11.515,11.53,11.543,11.547,11.561,11.562,11.586,11.609,11.619,11.631,11.649,11.671,11.692,11.701,11.711,11.721,11.741,11.751,11.752,11.743,11.737,11.733,11.714,11.68,11.661,11.624,11.591,11.567,11.528,11.493,11.463,11.439,11.419,11.398,11.373,11.357,11.354,11.353,11.343,11.331,11.322,11.329,11.331,11.327,11.318,11.315,11.314,11.322,11.325,11.315,11.309,11.315,11.323,11.328,11.324,11.328,11.33,11.342,11.342,11.338,11.337,11.34,11.347,11.352,11.353,11.351,11.35,11.36,11.364,11.361,11.357,11.355,11.363,11.369,11.366,11.363,11.36,11.371,11.373,11.371,11.365,11.363,11.366,11.374,11.373,11.366,11.362,11.365,11.371,11.373,11.366,11.363,11.364,11.37,11.373,11.369,11.364,11.368,11.371,11.372,11.366,11.363,11.363,11.379,11.383,11.374,11.368,11.378,11.387,11.381,11.385,11.414,11.455,11.469,11.45,11.427,11.407,11.405,11.414,11.41,11.391,11.379,11.356,11.358,11.361,11.359,11.355,11.348,11.355,11.36,11.357,11.354,11.35,11.354,11.362,11.358,11.325,11.245,11.202,11.21,11.253,11.312,11.534,11.941,12.215,12.121,11.656,11.192,11.129,11.216,11.239,11.293,11.273,11.281,11.328,11.393,11.4,11.387,11.392,11.4,11.404,11.402,11.403,11.404,11.416,11.427,11.429,11.425,11.43,11.44,11.452,11.452,11.453,11.454,11.471,11.477,11.484,11.484,11.492,11.497,11.513,11.519,11.524,11.528,11.542,11.561,11.571,11.577,11.59,11.608,11.633,11.648,11.659,11.671,11.69,11.715,11.729,11.737,11.747,11.754,11.769,11.78,11.776,11.768,11.756,11.744,11.722,11.683,11.644,11.608,11.584,11.555,11.52,11.49,11.467,11.453,11.439,11.418,11.408,11.396,11.394,11.395,11.387,11.377,11.37,11.373,11.377,11.371,11.363,11.358,11.363,11.371,11.367,11.362,11.359,11.365,11.373,11.371,11.366,11.364,11.366,11.375,11.378,11.375,11.373,11.377,11.386,11.386,11.383,11.381,11.383,11.39,11.393,11.39,11.386,11.388,11.396,11.4,11.397,11.393,11.391,11.401,11.406,11.402,11.398,11.399,11.406,11.41,11.406,11.4,11.398,11.405,11.41,11.406,11.4,11.399,11.402,11.406,11.406,11.4,11.393,11.397,11.403,11.404,11.395,11.391,11.398,11.404,11.403,11.397,11.391,11.397,11.403,11.405,11.4,11.395,11.398,11.401,11.413,11.412,11.399,11.392,11.407,11.423,11.409,11.407,11.436,11.491,11.509,11.481,11.458,11.443,11.447,11.454,11.443,11.435,11.42,11.398,11.395,11.39,11.383,11.38,11.386,11.391,11.389,11.379,11.377,11.384,11.391,11.386,11.38,11.358,11.295,11.238,11.235,11.234,11.307,11.499,11.876,12.195,12.181,11.806,11.306,11.177,11.257,11.289,11.326,11.323,11.322,11.361,11.415,11.418,11.409,11.418,11.418,11.417,11.414,11.418,11.426,11.437,11.438,11.439,11.438,11.453,11.462,11.462,11.458,11.462,11.473,11.484,11.482,11.485,11.488,11.496,11.511,11.518,11.519,11.524,11.535,11.553,11.564,11.574,11.581,11.599,11.62,11.638,11.646,11.661,11.681,11.707,11.722,11.732,11.742,11.751,11.771,11.784,11.784,11.783,11.783,11.783,11.773,11.743,11.707,11.671,11.642,11.613,11.573,11.536,11.506,11.489,11.47,11.442,11.431,11.413,11.404,11.398,11.386,11.377,11.366,11.368,11.368,11.369,11.363,11.353,11.357,11.361,11.359,11.351,11.348,11.354,11.359,11.356,11.352,11.348,11.352,11.36,11.361,11.356,11.354,11.358,11.366,11.368,11.363,11.358,11.36,11.368,11.373,11.368,11.363,11.366,11.376,11.376,11.374,11.369,11.368,11.374,11.378,11.377,11.369,11.365,11.372,11.38,11.374,11.37,11.368,11.378,11.382,11.375,11.37,11.367,11.371,11.379,11.379,11.373,11.368,11.368,11.376,11.374,11.366,11.363,11.366,11.372,11.372,11.365,11.363,11.367,11.375,11.369,11.363,11.36,11.361,11.367,11.372,11.364,11.358,11.356,11.366,11.369,11.366,11.359,11.358,11.367,11.368,11.365,11.367,11.364,11.366,11.369,11.378,11.375,11.365,11.376,11.402,11.443,11.467,11.448,11.432,11.423,11.411,11.411,11.402,11.396,11.38,11.355,11.347,11.344,11.345,11.352,11.348,11.343,11.335,11.338,11.347,11.35,11.343,11.338,11.339,11.335,11.273,11.192,11.172,11.19,11.306,11.569,11.953,12.175,12.014,11.571,11.316,11.134,11.188,11.255,11.278,11.317,11.267,11.307,11.348,11.382,11.369,11.375,11.362,11.374,11.375,11.393,11.382,11.392,11.386,11.401,11.405,11.416,11.408,11.414,11.415,11.434,11.433,11.438,11.435,11.449,11.456,11.465,11.46,11.466,11.474,11.493,11.499,11.504,11.509,11.519,11.538,11.559,11.566,11.577,11.589,11.615,11.633,11.644,11.655,11.668,11.689,11.709,11.717,11.72,11.726,11.739,11.744,11.728,11.72,11.695,11.674,11.646,11.607,11.565,11.531,11.5,11.476,11.442,11.412,11.387,11.375,11.366,11.35,11.334,11.321,11.319,11.318,11.311,11.304,11.295,11.297,11.3,11.296,11.285,11.284,11.281,11.297,11.295,11.288,11.276,11.278,11.285,11.29,11.281,11.286,11.287,11.298,11.296,11.295,11.286,11.29,11.298,11.303,11.298,11.293,11.288,11.299,11.303,11.299,11.291,11.295,11.3,11.304,11.297,11.295,11.29,11.3,11.3,11.3,11.292,11.294,11.296,11.304,11.303,11.296,11.289,11.292,11.301,11.3,11.297,11.292,11.292,11.3,11.301,11.291,11.285,11.285,11.293,11.296,11.289,11.284,11.281,11.293,11.296,11.291,11.287,11.285,11.294,11.296,11.288,11.289,11.285,11.294,11.297,11.29,11.291,11.294,11.302,11.305,11.297,11.3,11.307,11.306,11.312,11.335,11.364,11.388,11.381,11.362,11.35,11.336,11.333,11.328,11.324,11.312,11.285,11.275,11.278,11.284,11.288,11.282,11.279,11.273,11.285,11.283,11.279,11.275,11.281,11.286,11.282,11.224,11.147,11.132,11.149,11.185,11.35,11.687,12.074,12.14,11.702,11.182,10.931,11.021,11.104,11.159,11.214,11.172,11.196,11.251,11.318,11.314,11.307,11.303,11.312,11.316,11.33,11.321,11.328,11.334,11.349,11.345,11.352,11.349,11.36,11.37,11.373,11.373,11.382,11.386,11.403,11.408,11.413,11.414,11.419,11.433,11.45,11.455,11.462,11.466,11.486,11.503,11.51,11.518,11.537,11.561,11.578,11.591,11.601,11.612,11.635,11.654,11.659,11.665,11.673,11.689,11.701,11.699,11.687,11.674,11.652,11.632,11.595,11.557,11.512,11.487,11.462,11.427,11.393,11.365,11.349,11.339,11.328,11.314,11.296,11.293,11.289,11.288,11.272,11.268,11.266,11.274,11.273,11.266,11.259,11.263,11.269,11.272,11.268,11.267,11.271,11.284,11.283,11.281,11.278,11.281,11.291,11.3,11.298,11.297,11.295,11.304,11.309,11.31,11.308,11.31,11.316,11.324,11.32,11.314,11.315,11.319,11.326,11.329,11.324,11.323,11.325,11.333,11.331,11.325,11.319,11.323,11.329,11.328,11.321,11.32,11.324,11.334,11.336,11.331,11.326,11.326,11.334,11.34,11.333,11.328,11.328,11.335,11.339,11.335,11.327,11.329,11.34,11.344,11.339,11.336,11.341,11.349,11.348,11.349,11.359,11.356,11.357,11.37,11.396,11.427,11.431,11.42,11.409,11.395,11.387,11.384,11.379,11.37,11.346,11.332,11.327,11.334,11.339,11.341,11.337,11.332,11.331,11.339,11.34,11.335,11.332,11.333,11.342,11.327,11.257,11.19,11.189,11.217,11.343,11.625,12.041,12.225,11.968,11.704,11.216,11.03,11.139,11.17,11.245,11.255,11.244,11.264,11.342,11.375,11.38,11.359,11.37,11.372,11.39,11.381,11.392,11.388,11.4,11.406,11.42,11.412,11.42,11.421,11.443,11.441,11.446,11.441,11.459,11.464,11.475,11.471,11.483,11.491,11.51,11.515,11.521,11.523,11.533,11.551,11.572,11.582,11.594,11.608,11.633,11.655,11.666,11.678,11.694,11.716,11.731,11.741,11.744,11.755,11.768,11.769,11.76,11.753,11.733,11.714,11.689,11.653,11.614,11.575,11.551,11.529,11.497,11.469,11.442,11.43,11.421,11.408,11.39,11.381,11.379,11.384,11.381,11.372,11.365,11.366,11.37,11.372,11.364,11.362,11.36,11.372,11.371,11.368,11.36,11.366,11.37,11.377,11.372,11.371,11.374,11.386,11.387,11.387,11.382,11.385,11.391,11.398,11.394,11.393,11.389,11.4,11.405,11.406,11.401,11.402,11.409,11.416,11.41,11.407,11.404,11.409,11.415,11.417,11.408,11.409,11.41,11.42,11.422,11.417,11.411,11.415,11.423,11.422,11.416,11.411,11.415,11.422,11.421,11.417,11.411,11.412,11.417,11.426,11.417,11.413,11.413,11.421,11.426,11.423,11.418,11.417,11.427,11.432,11.425,11.421,11.421,11.431,11.432,11.428,11.426,11.425,11.434,11.44,11.439,11.432,11.435,11.445,11.45,11.442,11.444,11.455,11.454,11.459,11.479,11.516,11.546,11.532,11.52,11.51,11.489,11.482,11.488,11.491,11.482,11.451,11.429,11.428,11.439,11.44,11.438,11.433,11.434,11.441,11.445,11.438,11.435,11.435,11.445,11.441,11.406,11.318,11.277,11.289,11.306,11.412,11.666,12.047,12.28,11.989,11.478,11.26,11.321,11.374,11.402,11.41,11.377,11.408,11.435,11.487,11.486,11.474,11.475,11.479,11.496,11.497,11.497,11.494,11.504,11.514,11.522,11.519,11.522,11.526,11.543,11.543,11.545,11.543,11.549,11.56,11.572,11.573,11.58,11.585,11.601,11.612,11.62,11.623,11.635,11.656,11.669,11.677,11.689,11.704,11.73,11.749,11.761,11.767,11.781,11.803,11.823,11.836,11.841,11.849,11.865,11.88,11.878,11.868,11.857,11.841,11.822,11.787,11.748,11.711,11.683,11.658,11.64,11.61,11.578,11.557,11.546,11.529,11.51,11.496,11.487,11.49,11.483,11.473,11.465,11.466,11.47,11.471,11.464,11.46,11.462,11.47,11.47,11.467,11.46,11.459,11.464,11.471,11.465,11.461,11.46,11.469,11.474,11.472,11.466,11.467,11.475,11.483,11.48,11.476,11.473,11.48,11.488,11.488,11.482,11.48,11.483,11.491,11.491,11.488,11.485,11.489,11.497,11.495,11.488,11.487,11.488,11.495,11.494,11.491,11.488,11.488,11.494,11.498,11.494,11.487,11.487,11.494,11.495,11.494,11.489,11.49,11.496,11.502,11.493,11.49,11.489,11.496,11.498,11.494,11.49,11.484,11.491,11.499,11.496,11.493,11.487,11.493,11.499,11.493,11.488,11.485,11.491,11.495,11.493,11.488,11.485,11.492,11.497,11.497,11.493,11.487,11.488,11.495,11.498,11.491,11.487,11.487,11.495,11.504,11.499,11.487,11.489,11.512,11.512,11.5,11.504,11.539,11.589,11.605,11.583,11.556,11.538,11.535,11.543,11.535,11.519,11.495,11.483,11.485,11.481,11.475,11.473,11.478,11.484,11.477,11.472,11.469,11.474,11.478,11.478,11.471,11.456,11.391,11.328,11.317,11.329,11.437,11.712,12.108,12.323,12.152,11.697,11.309,11.324,11.4,11.412,11.456,11.431,11.413,11.448,11.499,11.507,11.497,11.502,11.508,11.506,11.505,11.509,11.508,11.527,11.525,11.525,11.529,11.54,11.55,11.548,11.548,11.55,11.559,11.569,11.571,11.57,11.573,11.586,11.598,11.603,11.606,11.611,11.627,11.642,11.653,11.66,11.671,11.69,11.712,11.718,11.731,11.743,11.759,11.783,11.8,11.808,11.817,11.832,11.853,11.865,11.867,11.867,11.868,11.871,11.855,11.827,11.792,11.765,11.738,11.725,11.686,11.65,11.62,11.594,11.578,11.55,11.523,11.504,11.503,11.495,11.481,11.468,11.46,11.467,11.466,11.456,11.452,11.442,11.443,11.453,11.452,11.442,11.437,11.438
