3.446,3.4865,3.6362,3.9278,4.1976,4.2288,4.4394,4.3056,3.5693,3.0754,2.9632,2.9301,2.9966,3.1957,3.3325,3.4375,3.4774,3.4919,3.4956,3.506,3.5032,3.5125,3.5109,3.5215,3.5195,3.5296,3.5324,3.539,3.5411,3.5527,3.5521,3.5645,3.5652,3.5742,3.5775,3.5916,3.5977,3.6053,3.6104,3.6268,3.6357,3.6467,3.6577,3.6659,3.6791,3.6975,3.7077,3.727,3.7431,3.761,3.7815,3.7987,3.8157,3.8332,3.8515,3.8707,3.8884,3.9011,3.9173,3.9295,3.9431,3.9484,3.9472,3.9475,3.9352,3.9178,3.8883,3.8515,3.8122,3.7742,3.7353,3.6957,3.663,3.6267,3.6012,3.5788,3.5655,3.5517,3.5396,3.5295,3.5299,3.5289,3.5298,3.5301,3.524,3.515,3.5139,3.5103,3.5062,3.5019,3.5024,3.5033,3.5021,3.498,3.4959,3.5007,3.5022,3.5022,3.5062,3.5006,3.5053,3.5055,3.5106,3.5065,3.5081,3.5038,3.5097,3.5118,3.5093,3.5095,3.5085,3.5092,3.5117,3.509,3.5062,3.5055,3.5092,3.5068,3.5092,3.5094,3.5047,3.504,3.5077,3.5035,3.5041,3.5021,3.5041,3.5031,3.5057,3.5015,3.5055,3.5083,3.5123,3.5186,3.5291,3.5386,3.536,3.5334,3.5325,3.5316,3.5746,3.6167,3.6068,3.5853,3.5714,3.551,3.5476,3.5374,3.5211,3.5117,3.5069,3.4986,3.4969,3.491,3.4864,3.4841,3.4848,3.4838,3.4828,3.4802,3.4791,3.477,3.4813,3.4808,3.4804,3.4786,3.4797,3.4802,3.4786,3.473,3.4812,3.5499,3.7511,4.0487,4.2163,4.3789,4.4915,4.044,3.3228,3.0295,2.9696,2.9801,3.0866,3.2882,3.4087,3.4795,3.516,3.5192,3.5337,3.5293,3.5343,3.5324,3.5434,3.5463,3.5525,3.5527,3.56,3.5611,3.5727,3.5709,3.5777,3.5804,3.5892,3.5942,3.6057,3.6077,3.6175,3.6235,3.6349,3.6425,3.6538,3.661,3.6743,3.6879,3.6951,3.7059,3.7199,3.7354,3.7521,3.7726,3.7876,3.8047,3.8257,3.8435,3.8614,3.8768,3.891,3.9065,3.9212,3.9379,3.9476,3.9507,3.9531,3.9519,3.9439,3.927,3.8951,3.8639,3.8251,3.7877,3.746,3.709,3.6715,3.6409,3.6131,3.5891,3.5693,3.5551,3.5435,3.5336,3.5245,3.5204,3.5168,3.5139,3.5107,3.5115,3.5087,3.5047,3.5055,3.5088,3.5061,3.5067,3.5041,3.5087,3.512,3.5117,3.5122,3.5136,3.512,3.5157,3.5153,3.5163,3.5146,3.5167,3.5176,3.5181,3.515,3.5156,3.5131,3.5169,3.5151,3.5151,3.5151,3.5157,3.5146,3.5156,3.5117,3.5136,3.5138,3.5137,3.5151,3.5156,3.5112,3.5125,3.5103,3.5113,3.5135,3.5134,3.508,3.5108,3.5132,3.5113,3.5106,3.5114,3.5143,3.5119,3.5132,3.5158,3.5185,3.5293,3.5347,3.5504,3.5493,3.5454,3.5422,3.5407,3.5824,3.6277,3.6252,3.6042,3.5958,3.5756,3.5594,3.5546,3.5435,3.5331,3.5324,3.5195,3.518,3.5151,3.5127,3.514,3.511,3.5088,3.506,3.5047,3.5085,3.5068,3.5043,3.5041,3.5059,3.5071,3.5086,3.5065,3.5072,3.5018,3.5103,3.5613,3.6303,3.8652,4.167,4.2674,4.4808,4.1506,3.4194,3.0788,3.0027,3.0063,3.0891,3.2978,3.4196,3.5091,3.5447,3.5533,3.561,3.5654,3.5677,3.5713,3.5724,3.5771,3.5799,3.589,3.592,3.598,3.6035,3.6103,3.6188,3.6241,3.6302,3.6362,3.6407,3.6495,3.6565,3.6648,3.6736,3.684,3.6908,3.6994,3.7128,3.7244,3.736,3.7502,3.7646,3.7776,3.7983,3.8101,3.8303,3.8475,3.8674,3.8847,3.9037,3.9235,3.9432,3.9585,3.9726,3.978,3.9851,3.9991,4.0037,4.0065,3.999,3.986,3.9642,3.9383,3.9031,3.8656,3.8276,3.7902,3.7546,3.718,3.6862,3.6617,3.6448,3.6284,3.6213,3.6064,3.5988,3.5925,3.5866,3.5783,3.573,3.573,3.5739,3.5777,3.5723,3.5735,3.5731,3.5726,3.5746,3.5765,3.5788,3.5796,3.5821,3.58,3.5805,3.5787,3.5802,3.5821,3.5857,3.5856,3.5844,3.5823,3.5855,3.5863,3.5885,3.5833,3.5852,3.5838,3.5841,3.5809,3.5798,3.5756,3.5767,3.5751,3.5785,3.579,3.5772,3.5806,3.5845,3.5833,3.5776,3.5694,3.5667,3.5689,3.5703,3.5687,3.5682,3.5735,3.5767,3.5752,3.571,3.5734,3.5842,3.594,3.5994,3.6063,3.6007,3.6122,3.6443,3.6766,3.6644,3.6402,3.6337,3.6176,3.6051,3.5858,3.5695,3.5725,3.5636,3.5575,3.5564,3.5525,3.5417,3.5426,3.5434,3.5484,3.5449,3.5418,3.5333,3.5338,3.5389,3.5289,3.5236,3.5205,3.5245,3.5195,3.5251,3.5264,3.5518,3.5776,3.709,3.9963,4.266,4.4071,4.4911,3.9789,3.2167,2.9909,2.9073,2.9717,3.1209,3.2803,3.4198,3.5062,3.559,3.5623,3.5634,3.5631,3.5633,3.5673,3.5774,3.5846,3.5897,3.5974,3.605,3.6057,3.606,3.6085,3.6152,3.6206,3.6336,3.6454,3.6479,3.6523,3.6611,3.6702,3.6771,3.6795,3.6829,3.6972,3.7028,3.7149,3.7231,3.7371,3.7493,3.7693,3.788,3.8004,3.8226,3.8355,3.8532,3.8645,3.8714,3.884,3.9078,3.9282,3.9365,3.942,3.9478,3.953,3.9647,3.9657,3.9598,3.9355,3.911,3.8862,3.8499,3.8104,3.7675,3.7314,3.696,3.6628,3.6388,3.6175,3.5947,3.5881,3.5751,3.5592,3.5466,3.5394,3.529,3.5215,3.519,3.516,3.5228,3.5234,3.5234,3.5198,3.5203,3.5187,3.5224,3.524,3.5239,3.5293,3.5256,3.5243,3.5232,3.5251,3.5246,3.5289,3.5247,3.5295,3.5289,3.5264,3.5302,3.5275,3.5241,3.5171,3.5218,3.5224,3.5245,3.5197,3.5187,3.5186,3.5134,3.5084,3.5119,3.5132,3.5097,3.5144,3.5099,3.5161,3.5237,3.5293,3.5389,3.5452,3.5327,3.5339,3.5394,3.5366,3.5773,3.6044,3.6139,3.61,3.586,3.5646,3.549,3.5471,3.531,3.5118,3.5101,3.5084,3.5074,3.5071,3.5028,3.491,3.4936,3.4889,3.4875,3.483,3.4829,3.484,3.4831,3.4861,3.4874,3.4902,3.4843,3.4838,3.4787,3.481,3.4793,3.507,3.5968,3.8418,4.1658,4.3522,4.5161,4.2177,3.4302,2.9531,2.8934,2.8236,2.889,3.0676,3.2048,3.3584,3.4416,3.5027,3.514,3.5163,3.525,3.5369,3.5376,3.5434,3.5466,3.5519,3.5514,3.5599,3.5668,3.5766,3.5756,3.583,3.589,3.5999,3.6,3.6052,3.6052,3.6137,3.6298,3.6469,3.6534,3.6541,3.666,3.6789,3.6919,3.6972,3.7063,3.7203,3.7302,3.7476,3.7654,3.7858,3.7966,3.815,3.8285,3.8466,3.8579,3.8648,3.8742,3.888,3.9045,3.9062,3.9093,3.9068,3.9041,3.8847,3.8553,3.8401,3.8073,3.7715,3.7388,3.6947,3.6618,3.6297,3.6052,3.5788,3.5672,3.5476,3.5264,3.5116,3.5034,3.4992,3.5002,3.4972,3.494,3.4894,3.4887,3.4844,3.4877,3.4878,3.4888,3.4839,3.4827,3.4881,3.4958,3.4938,3.4955,3.5005,3.502,3.5017,3.5019,3.4988,3.5034,3.5018,3.504,3.5057,3.5066,3.5028,3.5055,3.5055,3.5076,3.5057,3.5015,3.5007,3.5028,3.5023,3.4969,3.4972,3.4917,3.4925,3.5007,3.5079,3.5178,3.5167,3.5212,3.5241,3.5204,3.531,3.5688,3.5964,3.591,3.5661,3.5498,3.5344,3.5271,3.5225,3.504,3.4982,3.4865,3.477,3.4781,3.4714,3.4691,3.471,3.4688,3.4677,3.4609,3.4568,3.4584,3.4612,3.4602,3.4613,3.4628,3.4593,3.46,3.4611,3.4564,3.4569,3.4784,3.5623,3.8036,4.121,4.2378,4.3302,4.4787,3.9476,3.1795,2.9559,2.8803,2.9265,3.0559,3.2444,3.3721,3.4507,3.4895,3.4982,3.5108,3.5109,3.5131,3.5125,3.5201,3.521,3.5324,3.533,3.54,3.5418,3.5522,3.5558,3.5596,3.5616,3.5715,3.5761,3.5876,3.5927,3.6002,3.6056,3.6187,3.6262,3.634,3.6412,3.6507,3.661,3.6777,3.6922,3.7024,3.7163,3.7319,3.748,3.7679,3.7854,3.8035,3.8185,3.8381,3.8526,3.8678,3.8812,3.896,3.9075,3.9126,3.9175,3.9149,3.9093,3.8938,3.87,3.8378,3.7983,3.7631,3.7254,3.6851,3.65,3.6128,3.5867,3.5628,3.5401,3.524,3.5083,3.4984,3.4921,3.4913,3.4899,3.4812,3.4781,3.4761,3.4758,3.4728,3.4742,3.4755,3.4801,3.4805,3.4747,3.4758,3.4759,3.4785,3.4824,3.4827,3.4821,3.4846,3.4861,3.4867,3.4873,3.4835,3.4856,3.4877,3.4933,3.4916,3.4913,3.4854,3.4844,3.4882,3.4861,3.4841,3.4802,3.4771,3.4729,3.4712,3.4696,3.4681,3.4696,3.4734,3.4783,3.4848,3.4926,3.5033,3.5083,3.5102,3.5003,3.5084,3.5446,3.5803,3.5768,3.5507,3.5342,3.5131,3.5105,3.4999,3.4885,3.4759,3.4702,3.4634,3.4575,3.4514,3.4454,3.4418,3.4396,3.4449,3.4404,3.4388,3.4377,3.4396,3.4364,3.4349,3.4355,3.4339,3.434,3.4351,3.43,3.4271,3.4228,3.4414,3.6245,3.9113,4.1716,4.2843,4.4525,3.9257,3.1814,2.9687,2.8883,2.9397,3.0483,3.2555,3.3599,3.4391,3.4541,3.4701,3.4762,3.4817,3.4782,3.484,3.485,3.4923,3.4914,3.497,3.4996,3.5073,3.5135,3.5187,3.5219,3.5284,3.5346,3.5411,3.5496,3.5505,3.5582,3.5678,3.5754,3.5861,3.5915,3.6012,3.6128,3.6252,3.6374,3.6499,3.6634,3.6792,3.7002,3.7205,3.7361,3.7517,3.7719,3.7889,3.7992,3.8117,3.8266,3.844,3.8575,3.8668,3.8775,3.8782,3.8855,3.8791,3.8673,3.8412,3.8079,3.7701,3.7346,3.6958,3.6636,3.6272,3.5907,3.5582,3.5445,3.5178,3.4944,3.4767,3.4663,3.4538,3.4468,3.4408,3.4353,3.4329,3.4336,3.4277,3.4263,3.4241,3.4271,3.4293,3.4289,3.4277,3.4298,3.4309,3.431,3.4305,3.4282,3.4277,3.4314,3.4324,3.4315,3.4293,3.4305,3.4305,3.4332,3.4329,3.4303,3.4284,3.4305,3.4285,3.4265,3.4238,3.4252,3.4253,3.426,3.4239,3.4199,3.4197,3.4208,3.4185,3.419,3.4145,3.4137,3.4157,3.4167,3.428,3.4405,3.4413,3.4398,3.4416,3.4336,3.4452,3.4858,3.5189,3.5121,3.489,3.4718,3.4516,3.4445,3.4352,3.4174,3.4104,3.4046,3.3963,3.3933,3.3864,3.3824,3.377,3.3772,3.3757,3.3779,3.3781,3.374,3.3736,3.3724,3.3736,3.3719,3.3721,3.3678,3.3721,3.3746,3.3632,3.3817,3.4568,3.6799,3.9862,4.1261,4.3249,4.1435,3.8005,3.1367,2.8827,2.8501,2.8533,3.0071,3.1738,3.3242,3.3607,3.4181,3.3923,3.4318,3.4037,3.4321,3.4067,3.4373,3.4195,3.4489,3.4273,3.4496,3.4341,3.4591,3.4461,3.4702,3.458,3.4815,3.4717,3.4897,3.4827,3.5022,3.5001,3.5171,3.5196,3.5362,3.5344,3.5531,3.5591,3.5801,3.5795,3.5993,3.6081,3.6278,3.6456,3.6616,3.6768,3.6947,3.7125,3.7283,3.7446,3.7613,3.7734,3.7867,3.799,3.8103,3.8196,3.8154,3.813,3.8017,3.7864,3.7525,3.7184,3.6739,3.6377,3.594,3.5616,3.5189,3.4908,3.4632,3.4479,3.4232,3.4157,3.398,3.3997,3.3853,3.3835,3.3725,3.3766,3.3681,3.375,3.3684,3.3714,3.3633,3.3712,3.3699,3.3682,3.364,3.3726,3.3699,3.3799,3.3709,3.379,3.3683,3.3768,3.3715,3.3784,3.3705,3.3786,3.3742,3.378,3.371,3.3716,3.3701,3.3752,3.3699,3.3733,3.3676,3.3715,3.3649,3.3703,3.3638,3.3672,3.3627,3.3657,3.3612,3.3654,3.3588,3.3635,3.3585,3.3628,3.3647,3.3759,3.3785,3.3971,3.3977,3.3959,3.3913,3.4015,3.4439,3.4836,3.4747,3.4546,3.4339,3.4145,3.411,3.4027,3.388,3.376,3.37,3.3626,3.3602,3.3567,3.352,3.3524,3.3495,3.3531,3.3498,3.3497,3.3465,3.3459,3.3486,3.3487,3.3487,3.348,3.3458,3.3479,3.3479,3.3384,3.3397,3.3818,3.5224,3.7984,4.0637,4.1602,4.3189,3.8137,3.0941,2.874,2.802,2.8487,2.9642,3.1702,3.2322,3.3223,3.3791,3.3821,3.398,3.3953,3.398,3.3944,3.4059,3.4099,3.4179,3.4198,3.4267,3.4306,3.4445,3.4409,3.4464,3.4493,3.4586,3.4595,3.4691,3.4704,3.4814,3.4898,3.5041,3.5094,3.519,3.5164,3.5369,3.5445,3.563,3.5685,3.5907,3.6013,3.6227,3.6351,3.6519,3.6688,3.6786,3.6925,3.7169,3.7275,3.7436,3.7588,3.7766,3.7902,3.8052,3.8104,3.82,3.8159,3.813,3.7951,3.765,3.7276,3.6899,3.6475,3.609,3.5845,3.5521,3.5161,3.4919,3.4623,3.4411,3.4185,3.4086,3.3947,3.3921,3.388,3.384,3.3798,3.3812,3.3718,3.3717,3.3715,3.3759,3.3742,3.3733,3.3693,3.3735,3.3681,3.3681,3.3746,3.3725,3.3776,3.3741,3.3758,3.3809,3.3806,3.3836,3.3804,3.3829,3.3842,3.3801,3.3759,3.3721,3.3738,3.3733,3.3732,3.3748,3.3729,3.3803,3.3783,3.3794,3.3795,3.3756,3.3752,3.3772,3.375,3.3711,3.3682,3.3843,3.3961,3.4042,3.4006,3.3985,3.4013,3.3936,3.424,3.4622,3.4881,3.4799,3.4614,3.4415,3.428,3.4081,3.3945,3.3869,3.3821,3.3743,3.3693,3.3607,3.3599,3.3587,3.3593,3.3543,3.3534,3.3546,3.353,3.3456,3.3433,3.3422,3.349,3.352,3.3491,3.3473,3.3453,3.3437,3.352,3.374,3.4575,3.6845,4.0075,4.1245,4.2738,4.2645,3.6906,2.9735,2.7827,2.7167,2.7912,2.9607,3.1092,3.2666,3.3313,3.3859,3.3866,3.3962,3.3896,3.3998,3.3926,3.4096,3.4065,3.4224,3.4248,3.4354,3.4357,3.4475,3.4516,3.4619,3.4643,3.4714,3.4721,3.4895,3.5003,3.5091,3.51,3.5182,3.5251,3.5422,3.5601,3.5631,3.5738,3.5813,3.5891,3.6001,3.612,3.6316,3.6474,3.672,3.6897,3.7055,3.7202,3.7275,3.7426,3.7581,3.7762,3.7874,3.7989,3.8108,3.8135,3.8073,3.8061,3.7963,3.7833,3.7605,3.7174,3.682,3.6476,3.6122,3.5696,3.5312,3.5059,3.4818,3.4676,3.4481,3.4272,3.4098,3.4074,3.4061,3.4063,3.3968,3.3902,3.3941,3.3947,3.3927,3.3927,3.39,3.3965,3.396,3.3937,3.3941,3.4005,3.4047,3.4112,3.4066,3.4096,3.4074,3.4091,3.4119,3.4157,3.4164,3.417,3.4194,3.422,3.4208,3.417,3.4193,3.4146,3.4162,3.419,3.4174,3.4217,3.4203,3.4209,3.416,3.4123,3.4094,3.4197,3.4285,3.4493,3.4489,3.4519,3.4539,3.4501,3.4776,3.5127,3.5289,3.5213,3.5094,3.4915,3.479,3.4631,3.4409,3.4395,3.4318,3.4302,3.4261,3.4241,3.4173,3.4185,3.4171,3.4159,3.4161,3.4148,3.4168,3.4184,3.4136,3.409,3.4094,3.4129,3.4246,3.4202,3.4101,3.4106,3.4119,3.4291,3.4945,3.6862,4.0234,4.2491,4.3901,4.3003,3.6439,2.9647,2.821,2.7836,2.8799,3.0434,3.2059,3.3458,3.4186,3.4636,3.4681,3.4794,3.4754,3.4917,3.4888,3.4988,3.4978,3.5079,3.5083,3.5175,3.5138,3.5213,3.5292,3.5405,3.5444,3.5559,3.561,3.5736,3.5809,3.5907,3.5899,3.5995,3.6094,3.6207,3.6343,3.6462,3.6549,3.667,3.6796,3.6955,3.7126,3.7299,3.7475,3.7724,3.7874,3.7984,3.8107,3.8242,3.8419,3.8515,3.8652,3.8735,3.8903,3.8983,3.9076,3.9002,3.8903,3.8739,3.8497,3.8201,3.7852,3.7442,3.7033,3.6697,3.6333,3.6075,3.5853,3.5567,3.5493,3.5292,3.5125,3.5109,3.4946,3.4831,3.4875,3.4811,3.4803,3.477,3.4746,3.4774,3.4792,3.4786,3.4814,3.4807,3.486,3.486,3.4917,3.4879,3.4881,3.4889,3.4948,3.4946,3.4949,3.4935,3.5006,3.4997,3.5011,3.5001,3.5051,3.5055,3.5122,3.5075,3.5036,3.4996,3.5006,3.5018,3.5038,3.5043,3.5054,3.4998,3.5111,3.5218,3.526,3.5312,3.534,3.5351,3.5545,3.5902,3.6079,3.6038,3.5797,3.564,3.5471,3.535,3.5255,3.5162,3.5084,3.4996,3.491,3.4833,3.4808,3.4807,3.4788,3.4771,3.4767,3.4766,3.4833,3.4804,3.4764,3.474,3.4754,3.4739,3.4761,3.4744,3.475,3.4788,3.4747,3.4852,3.5339,3.7032,4.0057,4.2617,4.3844,4.4636,3.8768,3.163,2.9846,2.9164,2.9879,3.1155,3.307,3.4266,3.495,3.5171,3.5221,3.5329,3.535,3.5425,3.5417,3.548,3.5484,3.5578,3.56,3.569,3.5688,3.5794,3.5842,3.5921,3.5953,3.6027,3.6064,3.6158,3.6238,3.6281,3.6349,3.6462,3.6582,3.6688,3.6784,3.6918,3.7002,3.7216,3.7336,3.748,3.7635,3.7825,3.8002,3.8211,3.8332,3.8514,3.8699,3.8896,3.8975,3.9146,3.9279,3.9384,3.9485,3.9601,3.9644,3.964,3.9511,3.9378,3.9125,3.8838,3.8433,3.8064,3.7672,3.7306,3.6898,3.6555,3.6257,3.6124,3.5937,3.5782,3.563,3.5496,3.5436,3.5351,3.5328,3.5303,3.5304,3.5242,3.5235,3.5204,3.5187,3.5161,3.5202,3.5227,3.5255,3.5258,3.5283,3.5269,3.5292,3.5315,3.5315,3.5323,3.5288,3.5335,3.5367,3.5363,3.5347,3.535,3.5382,3.5397,3.5408,3.539,3.5366,3.5366,3.5354,3.5338,3.5356,3.5323,3.5289,3.5289,3.5308,3.5273,3.5282,3.531,3.5403,3.5468,3.5592,3.5574,3.5569,3.5539,3.5594,3.5988,3.6327,3.6289,3.6196,3.6037,3.583,3.5702,3.5603,3.5425,3.5307,3.5267,3.5157,3.5109,3.5111,3.5073,3.5012,3.4994,3.4953,3.4967,3.496,3.4952,3.4945,3.4913,3.4932,3.495,3.4928,3.4925,3.4913,3.4902,3.4894,3.4869,3.5255,3.6443,3.9098,4.2015,4.3103,4.5136,4.0744,3.3174,3.0447,2.9939,2.9577,3.0246,3.2,3.3539,3.4714,3.512,3.5369,3.5343,3.552,3.54,3.5554,3.5463,3.5623,3.558,3.5734,3.5712,3.5831,3.5788,3.5939,3.5906,3.6021,3.6014,3.6116,3.619,3.6291,3.6284,3.6389,3.6451,3.6582,3.6671,3.6806,3.6862,3.7011,3.7109,3.7299,3.7403,3.7585,3.7707,3.7793,3.7996,3.8203,3.8347,3.8505,3.8659,3.8861,3.901,3.9172,3.9303,3.9459,3.9586,3.9662,3.9703,3.9647,3.9552,3.9352,3.9083,3.8687,3.8495,3.8104,3.7716,3.7327,3.6953,3.6588,3.6325,3.6074,3.5866,3.5692,3.5579,3.5432,3.537,3.5303,3.5251,3.5196,3.5159,3.5137,3.5153,3.5142,3.5131,3.5113,3.5159,3.5132,3.5162,3.5146,3.5162,3.5169,3.5205,3.5207,3.523,3.5205,3.5259,3.5275,3.5309,3.5234,3.5295,3.5282,3.5308,3.5307,3.5315,3.5277,3.5294,3.5317,3.5279,3.5243,3.5255,3.5232,3.5244,3.5229,3.5219,3.5194,3.5219,3.5208,3.522,3.5188,3.5233,3.5208,3.5299,3.5382,3.5528,3.5514,3.5521,3.5491,3.5532,3.588,3.6297,3.6284,3.6114,3.5945,3.5756,3.5652,3.5574,3.5422,3.5348,3.5252,3.5243,3.5216,3.5172,3.5121,3.5102,3.5071,3.5094,3.5088,3.51,3.5037,3.502,3.5016,3.504,3.5051,3.5057,3.5026,3.5,3.5017,3.5,3.4986,3.5236,3.619,3.8564,4.16,4.2799,4.4775,4.1745,3.444,3.0768,2.9904,2.9857,3.0697,3.2706,3.401,3.495,3.5337,3.5436,3.5496,3.5532,3.5532,3.5609,3.5603,3.5683,3.5682,3.5796,3.5804,3.586,3.5902,3.5995,3.6042,3.6101,3.6153,3.6218,3.6278,3.6374,3.6423,3.6503,3.6531,3.6624,3.6747,3.6846,3.6958,3.701,3.7167,3.7312,3.7493,3.7607,3.7795,3.7962,3.8161,3.8318,3.8508,3.8696,3.8851,3.9016,3.9199,3.9251,3.9394,3.9517,3.9669,3.9751,3.983,3.9801,3.9765,3.9561,3.934,3.9008,3.8642,3.8208,3.787,3.7443,3.7089,3.674,3.6494,3.6266,3.6195,3.5994,3.584,3.5712,3.5673,3.558,3.5552,3.5477,3.5458,3.5445,3.5479,3.5447,3.5441,3.5418,3.5445,3.55,3.5538,3.5518,3.5486,3.5511,3.5519,3.5537,3.5549,3.5541,3.5586,3.56,3.5596,3.5564,3.5566,3.5516,3.5612,3.5647,3.5694,3.5655,3.5636,3.5633,3.5622,3.5604,3.5605,3.5586,3.5585,3.5592,3.5551,3.5544,3.5524,3.5618,3.5609,3.5566,3.5556,3.5525,3.5565,3.5638,3.5639,3.5677,3.5786,3.5911,3.5898,3.5839,3.5814,3.5773,3.6197,3.6657,3.668,3.6495,3.6321,3.613,3.6023,3.5958,3.5775,3.5638,3.5614,3.557,3.5412,3.5396,3.5338,3.5371,3.5377,3.535,3.5376,3.5304,3.5324,3.5327,3.5349,3.5374,3.5398,3.5377,3.5296,3.5291,3.5249,3.521,3.5312,3.5765,3.7353,4.0262,4.274,4.3228,4.4946,4.22,3.473,3.0701,2.9672,2.9725,3.0821,3.261,3.4068,3.5071,3.5511,3.5723,3.5723,3.5792,3.574,3.5842,3.5733,3.5866,3.5825,3.5979,3.5964,3.6008,3.6042,3.6178,3.6177,3.6292,3.6374,3.6488,3.6467,3.6532,3.6545,3.6614,3.6633,3.6772,3.6877,3.7108,3.7236,3.7321,3.7387,3.7381,3.747,3.7696,3.786,3.8065,3.8212,3.8321,3.8484,3.8712,3.8919,3.9089,3.9237,3.9341,3.9563,3.9741,3.9767,3.9804,3.9808,3.9902,3.9915,3.9785,3.9496,3.9133,3.8796,3.8402,3.7961,3.7555,3.7228,3.6884,3.6593,3.6365,3.6168,3.606,3.5955,3.5762,3.5573,3.5501,3.5472,3.5475,3.5418,3.5397,3.5358,3.5309,3.5404,3.5401,3.5444,3.5402,3.5406,3.542,3.5416,3.5387,3.5461,3.5529,3.5527,3.5483,3.5495,3.5424,3.5433,3.546,3.5508,3.547,3.5398,3.535,3.5441,3.542,3.5402,3.5383,3.5365,3.5297,3.5319,3.5279,3.5348,3.5297,3.5316,3.5293,3.5349,3.5309,3.5412,3.542,3.55,3.5473,3.552,3.5626,3.5514,3.5661,3.6085,3.6272,3.6291,3.6043,3.5791,3.5649,3.559,3.5543,3.5479,3.5316,3.5159,3.514,3.5114,3.507,3.504,3.5042,3.5053,3.5003,3.4941,3.4883,3.4963,3.4948,3.4857,3.4805,3.4805,3.4885,3.4922,3.4928,3.4816,3.4807,3.482,3.528,3.6541,3.9415,4.2466,4.4177,4.5077,4.023,3.1989,2.9024,2.8268,2.8612,3.0239,3.1477,3.3269,3.44,3.4772,3.5221,3.5248,3.5256,3.5369,3.5469,3.5571,3.5516,3.543,3.5491,3.5584,3.5619,3.5733,3.5786,3.5966,3.5903,3.5884,3.5987,3.6075,3.6118,3.6283,3.6334,3.6412,3.6567,3.6521,3.6584,3.6634,3.6626,3.6803,3.7004,3.7191,3.7133,3.7249,3.7423,3.7715,3.7911,3.7971,3.8195,3.8224,3.8254,3.8124,3.8225,3.8513,3.8697,3.8851,3.8929,3.8892,3.892,3.8781,3.8712,3.8643,3.845,3.8024,3.7561,3.7262,3.6993,3.6725,3.6581,3.6243,3.5892,3.5619,3.5555,3.5483,3.5331,3.5224,3.5266,3.5182,3.5056,3.5058,3.5159,3.5145,3.5119,3.5183,3.5156,3.5013,3.5028,3.4964,3.4986,3.511,3.5195,3.5342,3.5205,3.5126,3.5176,3.5376,3.527,3.5296,3.5177,3.5091,3.5155,3.5405,3.5523,3.5212,3.5154,3.5184,3.5217,3.5249,3.5413,3.5594,3.5593,3.5411,3.5603,3.5506,3.5485,3.6035,3.6443,3.6338,3.6057,3.6011,3.5693,3.5528,3.5555,3.5385,3.5282,3.5107,3.5039,3.5022,3.4966,3.5024,3.5087,3.5064,3.511,3.523,3.5101,3.4966,3.5049,3.5029,3.5045,3.4978,3.4921,3.4995,3.4982,3.507,3.5138,3.5115,3.5485,3.664,3.9423,4.2679,4.397,4.5249,4.2367,3.4361,2.9425,2.8477,2.9178,3.1281,3.3375,3.5118,3.6099,3.6556,3.7026,3.718,3.7408,3.761,3.7743,3.7687,3.777,3.7956,3.8013,3.8021,3.7925,3.7946,3.804,3.8007,3.8093,3.8118,3.8187,3.8203,3.8325,3.8314,3.8301,3.8261,3.8358,3.8565,3.8578,3.8543,3.8589,3.8628,3.874,3.879,3.8888,3.9046,3.9505,4.0069,4.0846,4.1055,4.113,4.1298,4.1368,4.1339,4.1345,4.1331,4.1279,4.1208,4.1155,4.0977,4.0886,4.0588,4.0228,3.9809,3.9268,3.8909,3.8482,3.8067,3.7587,3.7217,3.6813,3.6555,3.6381,3.6339,3.615,3.6039,3.5897,3.5844,3.5808,3.5847,3.5768,3.5734,3.5749,3.576,3.5649,3.5649,3.5611,3.5617,3.5559,3.5599,3.566,3.5608,3.5528,3.5558,3.5474,3.5555,3.5611,3.5635,3.5601,3.5653,3.5736,3.5733,3.5709,3.573,3.5869,3.592,3.6152,3.6529,3.6266,3.607,3.6038,3.6032,3.6058,3.6057,3.6119,3.6401,3.6662,3.6656,3.6512,3.6245,3.607,3.594,3.5771,3.5562,3.5478,3.5341,3.5172,3.5146,3.4961,3.4882,3.4867,3.4849,3.5029,3.5142,3.5177,3.516,3.5196,3.5253,3.5253,3.5232,3.5218,3.5331,3.5302,3.5201,3.5006,3.4664,3.5022,3.6642,3.9732,4.1455,4.302,4.7136,4.4967,3.7076,3.2592,3.1853,3.1669,3.227,3.4298,3.5252,3.5952,3.6133,3.6313,3.6389,3.6449,3.6646,3.6545,3.6685,3.6698,3.6767,3.6814,3.6841,3.7025,3.7005,3.7003,3.7127,3.7247,3.7269,3.7387,3.7378,3.7534,3.7612,3.7723,3.7802,3.7741,3.787,3.798,3.8036,3.8151,3.8328,3.8368,3.8474,3.8627,3.8689,3.892,3.9064,3.9185,3.947,3.9622,3.9749,3.9883,4.0103,4.0293,4.0402,4.0486,4.0489,4.0529,4.0537,4.05,4.0352,4.0094,3.9722,3.93,3.8928,3.8519,3.8231,3.7902,3.7642,3.7354,3.7121,3.6853,3.6767,3.6646,3.6682,3.6584,3.6484,3.6416,3.6442,3.6436,3.6519,3.6613,3.6585,3.6544,3.638,3.6262,3.6157,3.6223,3.6322,3.6312,3.6178,3.6251,3.6069,3.6071,3.611,3.6137,3.6192,3.6124,3.6131,3.6264,3.6345,3.6269,3.6292,3.6308,3.6484,3.6515,3.6594,3.678,3.7088,3.735,3.7367,3.7483,3.7476,3.7766,3.8003,3.8423,3.8677,3.8456,3.8343,3.8126,3.7996,3.7818,3.7616,3.7526,3.7401,3.7294,3.7146,3.6998,3.6947,3.6884,3.6766,3.6731,3.6664,3.6677,3.6793,3.6751,3.6627,3.6555,3.6495,3.6531,3.6467,3.6402,3.6329,3.6093,3.5828,3.5884,3.7233,3.9894,4.2289,4.453,4.5659,3.9587,3.5708,3.2693,3.197,3.2424,3.2754,3.4874,3.5385,3.5959,3.5622,3.5666,3.5502,3.578,3.5754,3.6198,3.6326,3.6715,3.6726,3.6847,3.6832,3.7134,3.7231,3.7596,3.7576,3.7653,3.7602,3.7752,3.7773,3.7979,3.7844,3.7886,3.8137,3.8766,3.8993,3.9119,3.9194,3.9381,3.9463,3.9625,3.9642,3.962,3.9646,3.9807,3.9975,4.036,4.058,4.0759,4.0921,4.109,4.1217,4.134,4.1204,4.1009,4.1003,4.099,4.0744,4.0627,4.0727,4.0593,4.0069,3.971,3.9357,3.8581,3.8145,3.806,3.8051,3.7863,3.7574,3.6833,3.5917,3.5236,3.5585,3.5267,3.512,3.4902,3.4851,3.5035,3.5102,3.5139,3.5282,3.5364,3.5428,3.5481,3.5549,3.5429,3.5443,3.5612,3.5756,3.5441,3.5603,3.5769,3.5665,3.5554,3.5653,3.5502,3.5526,3.5547,3.5773,3.5677,3.5717,3.577,3.578,3.5716,3.5766,3.5772,3.5838,3.5756,3.5899,3.6108,3.6236,3.5984,3.5775,3.5932,3.6364,3.6622,3.6821,3.7101,3.6935,3.6545,3.623,3.6204,3.6357,3.6176,3.5932,3.5732,3.5729,3.5707,3.5813,3.5889,3.5807,3.5655,3.5708,3.5817,3.5798,3.5802,3.5939,3.5812,3.5825,3.582,3.5852,3.5739,3.5768,3.5865,3.5789,3.5631,3.56,3.6778,3.9218,4.2,4.3993,4.5056,3.924,3.2778,3.1879,3.1248,3.1553,3.2592,3.432,3.5488,3.5957,3.6248,3.6281,3.6222,3.6167,3.6323,3.6359,3.6549,3.6426,3.6506,3.6509,3.6516,3.6495,3.6545,3.6528,3.6621,3.6571,3.669,3.6788,3.6931,3.6877,3.6958,3.7241,3.7244,3.7245,3.7439,3.7675,3.7755,3.7789,3.7977,3.799,3.8298,3.844,3.8719,3.8718,3.8827,3.8954,3.9031,3.9314,3.9563,3.9713,3.9718,4.007,4.0001,4.025,4.0505,4.0431,4.0536,4.0427,4.025,3.9993,3.9931,3.9678,3.9391,3.8942,3.8382,3.7939,3.758,3.7265,3.703,3.6713,3.6528,3.6459,3.6368,3.639,3.6253,3.6184,3.6146,3.602,3.6165,3.6123,3.6194,3.6249,3.632,3.6271,3.6462,3.6734,3.6758,3.6769,3.6693,3.6831,3.6839,3.6897,3.6796,3.6576,3.6509,3.6371,3.6278,3.6287,3.6316,3.6324,3.632,3.6286,3.6272,3.6355,3.6514,3.6558,3.6355,3.6451,3.6753,3.7097,3.7362,3.7263,3.713,3.6945,3.6844,3.6688,3.6459,3.6358,3.634,3.6232,3.6208,3.6043,3.6022,3.6035,3.5925,3.5926,3.5768,3.5886,3.5824,3.5802,3.5715,3.5764,3.5769,3.5609,3.541,3.5458,3.5487,3.546,3.5559,3.5712,3.6086,3.7858,4.1125,4.3621,4.5231,4.4099,3.8043,3.1225,2.9898,3.0148,3.137,3.3136,3.4514,3.5811,3.6113,3.5834,3.6407,3.644,3.6456,3.6605,3.6518,3.6649,3.6519,3.6697,3.6591,3.6921,3.6852,3.6944,3.6833,3.7098,3.7062,3.721,3.7129,3.7239,3.7275,3.7418,3.7457,3.7545,3.7521,3.7639,3.7647,3.7825,3.7934,3.8095,3.816,3.837,3.8602,3.873,3.8844,3.9066,3.9247,3.9448,3.959,3.9735,3.9865,4.0016,4.0007,4.0109,4.0138,4.031,4.0429,4.0367,4.0249,4.0052,3.9593,3.9163,3.8806,3.8332,3.8042,3.7663,3.7333,3.704,3.6746,3.6603,3.643,3.6306,3.6286,3.6143,3.6045,3.5926,3.5954,3.5856,3.6017,3.594,3.5997,3.5983,3.598,3.6014,3.598,3.5855,3.5911,3.6066,3.6259,3.621,3.606,3.5931,3.5865,3.5865,3.5976,3.6063,3.6196,3.6027,3.5991,3.6119,3.6347,3.6561,3.651,3.6385,3.6464,3.6506,3.6839,3.7012,3.7197,3.7213,3.7129,3.6875,3.6723,3.6664,3.6441,3.6327,3.6296,3.6241,3.6221,3.6191,3.6167,3.6044,3.6127,3.6156,3.6019,3.6009,3.5961,3.5917,3.5993,3.6155,3.6176,3.6055,3.608,3.6153,3.61,3.6137,3.5959,3.581,3.6694,3.9287,4.2389,4.4166,4.6512,4.2951,3.5143,3.2862,3.1748,3.1407,3.2493,3.3722,3.5291,3.6155,3.6651,3.6802,3.671,3.6712,3.6703,3.6692,3.6685,3.6825,3.6928,3.6985,3.6995,3.7036,3.7051,3.7149,3.7118,3.7124,3.7194,3.7279,3.7364,3.7473,3.755,3.7599,3.7687,3.7722,3.7913,3.8004,3.8015,3.8173,3.8362,3.8477,3.858,3.8664,3.8872,3.9037,3.9175,3.9361,3.9554,3.9829,4.0106,4.0194,4.0214,4.0367,4.0539,4.0692,4.0804,4.0785,4.0805,4.0895,4.0656,4.0364,4.0121,3.9748,3.9381,3.9025,3.8622,3.8197,3.7823,3.756,3.7328,3.7192,3.7082,3.7008,3.6908,3.6727,3.6617,3.6636,3.6584,3.66,3.6568,3.6576,3.6498,3.6643,3.6697,3.6692,3.661,3.6697,3.6781,3.6835,3.6864,3.7023,3.7147,3.7212,3.7385,3.7457,3.7781,3.8102,3.8186,3.8249,3.8257,3.819,3.8119,3.8058,3.8004,3.8076,3.8134,3.801,3.7906,3.8008,3.8407,3.8746,3.8521,3.8246,3.8076,3.7936,3.7923,3.7688,3.7406,3.7369,3.7339,3.7395,3.7301,3.7139,3.7135,3.7122,3.7095,3.7028,3.6993,3.6968,3.6942,3.6854,3.6949,3.6996,3.697,3.7046,3.7105,3.7019,3.7052,3.72,3.7077,3.7294,3.903,4.1837,4.4858,4.8401,4.8741,4.2273,3.6494,3.5209,3.4782,3.5062,3.6329,3.7329,3.7826,3.8018,3.7812,3.7758,3.7865,3.7764,3.7596,3.7799,3.7955,3.7918,3.7918,3.7992,3.809,3.8008,3.7863,3.772,3.7614,3.7506,3.7709,3.7724,3.7562,3.7703,3.7881,3.8023,3.8092,3.824,3.8345,3.8188,3.8367,3.854,3.8423,3.8417,3.8557,3.8804,3.8704,3.8774,3.8879,3.9047,3.927,3.955,3.9756,3.9848,4.0082,4.0192,4.0345,4.046,4.0683,4.0649,4.0473,4.0336,4.0241,3.9987,3.95,3.9103,3.862,3.8196,3.8022,3.7682,3.7358,3.6967,3.6902,3.6733,3.6471,3.6268,3.6224,3.6188,3.6324,3.6137,3.6207,3.6079,3.5899,3.6002,3.5993,3.6023,3.5948,3.5889,3.5857,3.5949,3.584,3.5867,3.6066,3.6015,3.6029,3.6007,3.6022,3.6149,3.6129,3.6142,3.6458,3.6454,3.6272,3.6371,3.6256,3.6093,3.6264,3.6424,3.624,3.6086,3.6112,3.6095,3.6258,3.6507,3.6612,3.6666,3.6561,3.6269,3.5735,3.5609,3.5309,3.5081,3.4975,3.5156,3.5132,3.5041,3.5125,3.5138,3.497,3.5016,3.4905,3.5186,3.5201,3.5146,3.4941,3.5147,3.5107,3.5006,3.5219,3.5385,3.5189,3.5045,3.4778,3.4829,3.5961,3.8447,4.1617,4.3591,4.5599,4.4249,3.7327,3.2889,3.2332,3.2105,3.2794,3.4546,3.5672,3.6181,3.6602,3.6526,3.6685,3.6714,3.6693,3.6599,3.6509,3.6541,3.6644,3.6576,3.6593,3.6537,3.6602,3.656,3.6504,3.6468,3.6513,3.6509,3.6526,3.6558,3.6859,3.6872,3.6819,3.6793,3.6815,3.6899,3.701,3.7016,3.7048,3.7139,3.7298,3.7308,3.7511,3.7709,3.7973,3.8173,3.8254,3.8294,3.8635,3.8766,3.8975,3.9248,3.9272,3.9439,3.9444,3.9395,3.934,3.9346,3.9282,3.8832,3.8277,3.7801,3.7298,3.6777,3.6256,3.5796,3.5351,3.4958,3.4777,3.4581,3.4413,3.4391,3.435,3.435,3.4305,3.4245,3.4238,3.3687,3.3474,3.3604,3.3567,3.355,3.3595,3.3771,3.3866,3.3941,3.3821,3.3785,3.381,3.3862,3.3837,3.3945,3.4036,3.4194,3.4261,3.4304,3.414,3.4179,3.4298,3.4443,3.4321,3.4396,3.4516,3.4505,3.4492,3.4493,3.4508,3.4609,3.5045,3.5332,3.5294,3.5046,3.4794,3.4712,3.4685,3.4521,3.4386,3.4238,3.3987,3.3753,3.3775,3.3641,3.3527,3.3556,3.3531,3.3492,3.3495,3.3582,3.3615,3.3646,3.3633,3.3576,3.3499,3.3609,3.3566,3.3586,3.3567,3.3495,3.3506,3.3899,3.5305,3.8057,4.0762,4.2282,4.1988,3.5535,2.9194,2.7945,2.748,2.832,2.9675,3.1616,3.2295,3.3268,3.3943,3.4124,3.4397,3.4619,3.5017,3.531,3.5577,3.5731,3.6037,3.6122,3.6244,3.6179,3.6308,3.6401,3.641,3.6414,3.6626,3.6693,3.6914,3.6988,3.7068,3.7129,3.772,3.8517,3.9422,3.9905,3.9928,3.9679,3.95,3.9232,3.9054,3.8858,3.8811,3.8715,3.8631,3.8525,3.857,3.8598,3.8747,3.8904,3.8895,3.8969,3.9087,3.9106,3.9174,3.9246,3.9213,3.9107,3.8972,3.8653,3.8254,3.7832,3.7457,3.6928,3.6408,3.6239,3.584,3.5541,3.5301,3.5066,3.475,3.4496,3.4301,3.4181,3.4111,3.4008,3.3996,3.3927,3.3919,3.3883,3.3698,3.3674,3.3671,3.3636,3.3689,3.368,3.3695,3.3629,3.3575,3.343,3.3499,3.3586,3.3624,3.3564,3.3467,3.3554,3.3555,3.3605,3.3561,3.3564,3.3459,3.3616,3.368,3.3746,3.3811,3.3844,3.3865,3.4048,3.4427,3.4616,3.4648,3.4474,3.4353,3.4142,3.3959,3.3826,3.355,3.3528,3.3547,3.3538,3.3537,3.3469,3.3363,3.33,3.3275,3.3278,3.3286,3.3384,3.342,3.3354,3.3325,3.3421,3.3376,3.3363,3.3388,3.3436,3.3385,3.3424,3.3714,3.4399,3.6221,3.9332,4.084,4.2595,4.308,3.7674,3.0179,2.7622,2.6885,2.7329,2.9129,3.0352,3.2128,3.2949,3.3713,3.3817,3.3862,3.3791,3.3869,3.3879,3.3974,3.3951,3.4031,3.4029,3.4191,3.4287,3.4411,3.4478,3.4548,3.4659,3.4755,3.4823,3.4885,3.4918,3.4995,3.5002,3.5042,3.502,3.5042,3.5046,3.5086,3.5098,3.5158,3.5269,3.5407,3.554,3.573,3.595,3.6044,3.6192,3.6337,3.6706,3.6935,3.7058,3.7094,3.7253,3.7537,3.7714,3.7751,3.7738,3.79,3.8135,3.8171,3.7894,3.7306,3.6726,3.6132,3.5624,3.5379,3.52,3.5018,3.4818,3.472,3.4641,3.4533,3.4478,3.4417,3.4462,3.4471,3.4439,3.442,3.4445,3.4436,3.437,3.4251,3.4221,3.4227,3.4256,3.436,3.4426,3.4381,3.4471,3.4543,3.4566,3.4518,3.4623,3.4665,3.4685,3.4669,3.4734,3.464,3.4586,3.4603,3.4648,3.4595,3.4684,3.4697,3.4788,3.4835,3.5011,3.5176,3.559,3.6032,3.621,3.6115,3.5867,3.581,3.5671,3.5667,3.5388,3.5068,3.5072,3.5092,3.5312,3.5572,3.5613,3.545,3.5375,3.5443,3.5639,3.5618,3.553,3.5616,3.5658,3.5639,3.551,3.5582,3.5483,3.5545,3.5421,3.5437,3.5073,3.5068,3.5638,3.7665,4.0691,4.293,4.618,4.4095,3.6631,3.2136,3.1148,3.1033,3.2006,3.2833,3.4559,3.5539,3.5902,3.6161,3.6034,3.6087,3.6003,3.6156,3.5976,3.5891,3.5582,3.5451,3.5285,3.5501,3.5466,3.5594,3.5853,3.6242,3.6257,3.6411,3.6501,3.7083,3.8188,3.9006,3.9139,3.9414,3.9577,3.9657,3.9637,3.9595,3.951,3.9466,3.9461,3.9542,3.9592,3.9728,3.9985,4.0062,4.003,4.0063,4.0441,4.1023,4.1359,4.1631,4.1787,4.1847,4.1934,4.2088,4.1985,4.1819,4.1626,4.137,4.1159,4.1104,4.1114,4.1052,4.1059,4.1066,4.0743,4.0393,4.0517,4.0994,4.1327,4.1681,4.1743,4.1928,4.2292,4.2283,4.248,4.2567,4.2591,4.2474,4.2355,4.2227,4.21,4.2007,4.1805,4.1636,4.1495,4.1074,4.074,4.0591,4.0404,4.0298,4.0362,4.0257,4.0058,3.9533,3.8809,3.8791,3.9052,3.9008,3.9053,3.9102,3.9189,3.9182,3.9251,3.9438,3.9606,3.9906,4.026,4.0931,4.1701,4.1941,4.1854,4.1854,4.2012,4.191,4.1846,4.1639,4.1568,4.1521,4.1503,4.1363,4.1379,4.1414,4.1631,4.1906,4.2062,4.2101,4.2211,4.2147,4.2209,4.2086,4.1698,4.1555,4.1632,4.1907,4.2063,4.1834,4.1258,4.0925,4.0903,4.1516,4.3415,4.62,4.8947,5.1489,4.6306,3.9775,3.823,3.7629,3.8124,3.8873,4.0256,4.0386,4.0267,4.0069,4.0116,4.0129,3.9875,3.9666,3.9427,3.9737,3.9857,3.9514,3.9261,3.9178,3.9307,3.9149,3.9284,3.9615,4.0146,4.033,4.0618,4.0943,4.1097,4.108,4.1241,4.1451,4.1455,4.1264,4.1277,4.1198,4.0806,4.0394,4.0215,4.0159,4.0183,4.0443,4.0724,4.1151,4.1644,4.1773,4.1781,4.1673,4.1502,4.1336,4.1201,4.1162,4.1122,4.1096,4.1057,4.1036,4.1113,4.1088,4.1044,4.0749,4.0508,4.0281,3.9813,3.9239,3.8702,3.867,3.8857,3.9321,3.9249,3.881,3.8587,3.8329,3.8172,3.7975,3.7753,3.7877,3.7695,3.7507,3.7406,3.7427,3.7373,3.7187,3.6991,3.6982,3.701,3.6935,3.6769,3.6753,3.6681,3.6728,3.6687,3.6804,3.6841,3.6844,3.675,3.6857,3.6776,3.6816,3.6895,3.6915,3.6801,3.6759,3.6782,3.6859,3.6862,3.6864,3.6933,3.692,3.6922,3.7147,3.748,3.7722,3.7493,3.7388,3.7181,3.7103,3.6927,3.6664,3.64,3.6015,3.5737,3.5729,3.5737,3.566,3.5741,3.5866,3.5856,3.5864,3.5861,3.5792,3.5835,3.5973,3.5926,3.5884,3.6027,3.614,3.6199,3.6203,3.5822,3.5437,3.5587,3.6887,3.9731,4.2879,4.6573,4.5718,4.2538,3.6535,3.4523,3.4397,3.4274,3.5142,3.6182,3.7039,3.6848,3.7192,3.6908,3.7187,3.69,3.7204,3.7031,3.7356,3.7237,3.7477,3.7241,3.7511,3.7443,3.7659,3.7602,3.7746,3.756,3.7642,3.749,3.7675,3.7634,3.776,3.7707,3.7841,3.7804,3.7947,3.8066,3.8309,3.8302,3.8318,3.8371,3.8705,3.8953,3.9096,3.9162,3.938,3.9523,3.9665,3.9849,4.0059,4.0255,4.0392,4.0549,4.0707,4.0918,4.1065,4.1097,4.103,4.1002,4.0863,4.061,4.0388,4.0108,3.9667,3.9388,3.8962,3.8631,3.8197,3.8042,3.7868,3.7721,3.7444,3.731,3.7137,3.7277,3.7238,3.7275,3.7078,3.716,3.7195,3.7214,3.7025,3.7145,3.7121,3.7313,3.7337,3.7466,3.7236,3.7235,3.7216,3.7286,3.7155,3.7352,3.7273,3.7303,3.7307,3.7333,3.7337,3.7495,3.7442,3.7373,3.7319,3.743,3.7352,3.7277,3.7299,3.7405,3.746,3.7476,3.7373,3.7529,3.7429,3.7755,3.811,3.8541,3.845,3.8388,3.8474,3.8831,3.9531,4.0505,4.0993,4.1191,4.1348,4.1346,4.1112,4.0789,4.0435,4.015,3.9845,3.9523,3.927,3.9003,3.8828,3.8619,3.8396,3.8304,3.8209,3.8072,3.7973,3.7809,3.7699,3.7272,3.7048,3.7295,3.89,4.1888,4.44,4.6774,4.271,3.5739,3.3596,3.3097,3.3722,3.4324,3.5092,3.6401,3.7157,3.7409,3.7486,3.7375,3.7417,3.7433,3.7537,3.742,3.7446,3.7456,3.7547,3.75,3.7565,3.7674,3.7939,3.7789,3.785,3.7807,3.7985,3.7961,3.8107,3.8259,3.8197,3.8167,3.8297,3.838,3.8562,3.8617,3.8604,3.8725,3.8981,3.9119,3.9196,3.926,3.9421,3.961,3.9807,3.9775,3.9958,4.025,4.039,4.0439,4.0556,4.0768,4.103,4.0873,4.1102,4.1057,4.1105,4.0953,4.0594,4.0435,4.0181,3.9897,3.9484,3.9265,3.8867,3.8491,3.8379,3.8097,3.7923,3.7819,3.781,3.7893,3.7746,3.7598,3.7522,3.7364,3.7354,3.78,3.793,3.7531,3.7428,3.7146,3.7154,3.7036,3.6807,3.6604,3.6633,3.6723,3.6676,3.6727,3.6439,3.6607,3.6707,3.6546,3.651,3.6547,3.6574,3.6598,3.659,3.6596,3.6611,3.6562,3.6614,3.6723,3.6672,3.6734,3.6949,3.7004,3.7056,3.7197,3.7316,3.7712,3.8346,3.8704,3.8503,3.8287,3.8055,3.7638,3.7634,3.73,3.7152,3.684,3.6725,3.6756,3.669,3.6768,3.6985,3.7329,3.7147,3.6933,3.6858,3.6883,3.6966,3.6991,3.6948,3.6959,3.6914,3.6869,3.6796,3.6791,3.6758,3.665,3.6648,3.7052,3.8868,4.1927,4.4763,4.6755,4.2886,3.5818,3.2067,3.1128,3.125,3.2571,3.3842,3.5278,3.6223,3.6616,3.6801,3.6724,3.6707,3.6734,3.6849,3.694,3.7027,3.7025,3.7118,3.7245,3.7408,3.7349,3.736,3.7332,3.7586,3.7644,3.7715,3.7772,3.7818,3.7806,3.7859,3.7993,3.8099,3.8211,3.828,3.8401,3.8558,3.8568,3.859,3.8806,3.9039,3.931,3.9636,3.9704,3.9829,3.9918,3.9913,4.0021,4.0151,4.0155,4.03,4.0489,4.0641,4.0601,4.0541,4.0626,4.073,4.0602,4.0413,4.03,3.9874,3.9471,3.8974,3.8539,3.8083,3.8009,3.7699,3.7519,3.7298,3.7149,3.6979,3.6643,3.6575,3.663,3.6518,3.6343,3.6487,3.649,3.6445,3.6368,3.631,3.6332,3.6304,3.634,3.6455,3.6433,3.6371,3.652,3.6515,3.6483,3.6489,3.6489,3.6569,3.652,3.6532,3.6708,3.6729,3.6676,3.6692,3.6707,3.6634,3.6519,3.6721,3.6917,3.7009,3.7038,3.6851,3.6824,3.6944,3.7222,3.7628,3.774,3.7489,3.7213,3.714,3.7087,3.6982,3.6841,3.6881,3.6778,3.6722,3.6835,3.7003,3.7033,3.6941,3.6886,3.6756,3.6655,3.6587,3.6617,3.6549,3.666,3.6678,3.6777,3.6594,3.6617,3.6644,3.6622,3.6422,3.6146,3.6245,3.7668,4.0424,4.2132,4.4458,4.7026,4.2563,3.5486,3.3291,3.2749,3.3054,3.3996,3.5458,3.6361,3.6819,3.7112,3.7027,3.6999,3.6969,3.7045,3.6963,3.7034,3.6997,3.7022,3.7084,3.7165,3.7189,3.724,3.728,3.7366,3.7373,3.7516,3.7655,3.7681,3.7723,3.7891,3.803,3.7996,3.8069,3.8207,3.8317,3.8369,3.8481,3.8498,3.8621,3.8962,3.9099,3.9236,3.9423,3.9557,3.9732,3.9937,4.016,4.0237,4.0414,4.059,4.066,4.0742,4.0829,4.0938,4.0979,4.1009,4.1069,4.0822,4.064,4.0282,3.9987,3.9564,3.9187,3.8855,3.8554,3.8435,3.8126,3.7834,3.7573,3.7503,3.7346,3.7161,3.7193,3.7135,3.7072,3.7016,3.7013,3.7082,3.7071,3.7068,3.7065,3.7089,3.7057,3.709,3.7016,3.7053,3.7114,3.7106,3.7086,3.7158,3.719,3.7147,3.7129,3.7092,3.7132,3.7126,3.717,3.7069,3.7037,3.7143,3.714,3.7095,3.712,3.7071,3.7219,3.7381,3.7385,3.7245,3.7292,3.7257,3.7453,3.7518,3.7984,3.8157,3.7887,3.7751,3.7629,3.7563,3.74,3.7157,3.7094,3.7045,3.7116,3.7077,3.7001,3.6871,3.6867,3.692,3.69,3.6835,3.6811,3.6822,3.6848,3.682,3.685,3.6847,3.6848,3.6836,3.6779,3.6775,3.6467,3.619,3.6379,3.782,4.0644,4.3417,4.684,4.5761,3.9033,3.6029,3.414,3.356,3.3827,3.4591,3.6308,3.6916,3.7152,3.7118,3.7117,3.7161,3.7224,3.7212,3.7252,3.7175,3.7312,3.7355,3.746,3.7442,3.7445,3.7465,3.7529,3.7564,3.7639,3.7662,3.7693,3.774,3.7777,3.7905,3.7941,3.8022,3.8161,3.8225,3.8426,3.8479,3.8535,3.867,3.884,3.8885,3.9026,3.9128,3.9386,3.9575,3.9741,3.9826,3.992,4.0234,4.0394,4.0408,4.0542,4.0791,4.0869,4.0973,4.1001,4.1032,4.0884,4.0687,4.0586,4.0303,3.9891,3.9508,3.9164,3.8885,3.8521,3.8255,3.7912,3.7689
