5.0733,5.0744,5.0523,5.0439,5.0575,5.0603,5.0625,5.0539,5.0463,5.0492,5.0597,5.0597,5.0309,5.0296,5.0373,5.0552,5.0525,5.0446,5.0349,5.0259,5.0404,5.0418,5.0419,5.0201,5.0203,5.0319,5.0391,5.0239,5.0191,5.0196,5.0268,5.0433,5.0289,5.018,5.0122,5.0209,5.0259,5.0302,5.0062,5.0039,5.0094,5.0285,5.028,5.0158,5.0078,5.0109,5.0183,5.0163,5.0058,4.999,5.0162,5.0395,5.0413,5.0402,5.0447,5.0496,5.0669,5.0968,5.0902,5.0897,5.0867,5.0944,5.0936,5.0695,5.0479,5.0276,5.0214,5.0177,4.994,4.9723,4.971,4.9763,4.9788,4.9622,4.9541,4.9487,4.9626,4.9706,4.9639,4.9503,4.9382,4.9442,4.9553,4.9557,4.9434,4.9484,4.9553,4.9581,4.9443,4.895,4.8773,4.9272,5.0376,5.1681,5.242,5.4365,5.6877,5.7234,5.6996,5.6013,5.3494,5.0124,4.9492,4.9778,4.9514,4.9544,4.9456,4.9611,4.952,4.9337,4.9256,4.9391,4.9429,4.9567,4.9387,4.9349,4.9402,4.9555,4.9577,4.9498,4.9391,4.9503,4.9524,4.9676,4.9592,4.9501,4.9448,4.9656,4.9776,4.9654,4.956,4.9719,4.9718,4.982,4.9829,4.9753,4.9804,4.9959,5.0155,5.0205,5.0123,5.0194,5.0356,5.0551,5.0839,5.0831,5.0961,5.1179,5.1421,5.1533,5.1551,5.1592,5.1598,5.1847,5.2117,5.206,5.1986,5.2087,5.2154,5.2164,5.2036,5.1797,5.175,5.1505,5.1305,5.0935,5.047,5.0337,5.0179,5.0029,4.9859,4.953,4.9285,4.9284,4.9447,4.9247,4.9019,4.8973,4.8946,4.905,4.9026,4.8862,4.8751,4.8857,4.8918,4.8852,4.8666,4.861,4.8817,4.8935,4.8854,4.8707,4.8663,4.8697,4.8833,4.8838,4.8716,4.8657,4.8668,4.8805,4.8773,4.8706,4.8718,4.8789,4.8887,4.8807,4.8633,4.8694,4.87,4.8775,4.8854,4.8835,4.8679,4.8645,4.8791,4.8872,4.8799,4.8592,4.8642,4.8765,4.8847,4.8748,4.8614,4.8625,4.8745,4.8638,4.8595,4.8546,4.8568,4.8597,4.8721,4.868,4.8518,4.8412,4.8576,4.8639,4.8634,4.8447,4.8413,4.8463,4.8705,4.8626,4.8388,4.8427,4.8498,4.8533,4.8575,4.8404,4.8319,4.8327,4.8464,4.8532,4.8414,4.8237,4.8255,4.8409,4.8444,4.8309,4.8228,4.8229,4.8434,4.849,4.8418,4.8361,4.8469,4.8625,4.8729,4.8698,4.8748,4.8852,4.8929,4.9118,4.9246,4.9336,4.9387,4.9371,4.9492,4.9348,4.9087,4.896,4.8909,4.89,4.8684,4.8383,4.831,4.8393,4.8497,4.8452,4.8274,4.83,4.828,4.8433,4.8424,4.8265,4.8188,4.8232,4.83,4.8387,4.8236,4.8233,4.8236,4.8399,4.8397,4.8279,4.8079,4.7643,4.7792,4.8788,4.9886,5.1387,5.3759,5.5728,5.6165,5.6092,5.4794,5.2239,4.94,4.8901,4.8705,4.8363,4.8509,4.8719,4.8805,4.8658,4.8577,4.8502,4.8656,4.8771,4.8752,4.858,4.8712,4.8822,4.8976,4.8875,4.8802,4.8743,4.887,4.8971,4.8998,4.8931,4.9008,4.9094,4.9207,4.9278,4.9197,4.9108,4.9256,4.9405,4.9451,4.9423,4.9363,4.9475,4.9712,4.9827,4.9801,4.981,5.0075,5.0253,5.0425,5.0471,5.0546,5.0598,5.0905,5.1174,5.1259,5.1316,5.1478,5.1743,5.1914,5.194,5.1958,5.1982,5.2118,5.2293,5.2097,5.1907,5.1847,5.1769,5.1566,5.1306,5.1109,5.0774,5.0504,5.0404,5.0254,4.9955,4.9759,4.9744,4.9759,4.9699,4.9384,4.9344,4.9414,4.9556,4.9491,4.9378,4.9355,4.9384,4.9459,4.9537,4.9416,4.9324,4.9377,4.9539,4.955,4.9412,4.9314,4.9425,4.949,4.9544,4.9413,4.9416,4.9471,4.9617,4.9749,4.9665,4.9629,4.9674,4.9756,4.9898,4.9833,4.9675,4.9735,4.9875,4.9988,4.9916,4.9716,4.9818,4.9955,5.0074,5.0042,4.9857,4.9854,4.9983,5.0037,4.9986,4.9877,4.9853,4.9896,4.9998,5.0021,4.9896,4.9856,4.9854,5.0013,5.0047,4.985,4.9792,4.9877,4.9981,4.9938,4.9783,4.9732,4.9874,5.0013,5.0015,4.9876,4.9831,4.9865,4.9971,5.0014,4.9915,4.9892,4.9855,4.9922,5.0032,4.9953,4.9775,4.9782,4.9844,4.9949,4.9834,4.9715,4.9678,4.9805,4.9896,4.9841,4.9687,4.9649,4.9775,4.9853,4.9923,4.9848,4.9782,4.9893,5.0019,5.0165,5.0172,5.0227,5.0276,5.0588,5.065,5.0658,5.0809,5.085,5.087,5.0825,5.0597,5.0372,5.0288,5.0262,5.0205,4.9965,4.9778,4.9703,4.974,4.9792,4.9562,4.9507,4.9536,4.9592,4.9645,4.9489,4.9428,4.9466,4.9534,4.9606,4.9567,4.9514,4.9467,4.9582,4.9671,4.9624,4.9159,4.8879,4.9426,5.0618,5.1898,5.332,5.607,5.7438,5.7444,5.7024,5.6402,5.3908,5.0095,4.9691,4.9919,4.9667,4.9685,4.9839,4.9818,4.9854,4.9737,4.9628,4.966,4.9745,4.9794,4.9644,4.9592,4.9722,4.9886,4.9949,4.9858,4.9772,4.9802,4.9895,5.0075,5.0005,4.9915,5.0019,5.0145,5.0323,5.0217,5.0102,5.0183,5.0385,5.0441,5.031,5.0224,5.0308,5.0424,5.0587,5.0727,5.0727,5.0837,5.0986,5.1264,5.1341,5.1351,5.1427,5.1684,5.1962,5.2166,5.2116,5.231,5.2544,5.2716,5.2778,5.2569,5.2616,5.2781,5.2925,5.3025,5.2846,5.2679,5.2479,5.2401,5.2167,5.1911,5.1429,5.1254,5.1121,5.1031,5.0701,5.043,5.0341,5.0313,5.0347,5.0156,5.0079,5.0075,5.0157,5.0206,5.0043,4.9933,4.9864,5.002,5.013,5.0079,4.9924,4.9935,5.0114,5.0141,5.0052,4.9895,4.9872,5.0032,5.01,5.0081,5.0025,4.9882,4.9972,5.0137,5.0183,5.0021,5.0023,5.0114,5.022,5.0213,5.0091,5.0031,5.0077,5.0163,5.0147,5.0075,4.9971,5.0065,5.0081,5.0148,4.9982,4.9888,4.996,5.0039,5.0134,5.0007,4.9869,4.9924,5.0038,5.0064,4.9965,4.9858,4.9851,4.9919,4.9934,4.9841,4.9807,4.9828,4.9854,4.9953,4.9933,4.9757,4.9711,4.9782,4.977,4.9784,4.9696,4.9612,4.9673,4.9756,4.979,4.9582,4.9575,4.9621,4.9749,4.9663,4.9595,4.9577,4.954,4.9618,4.9645,4.9528,4.9432,4.9497,4.9655,4.9715,4.9573,4.9505,4.97,4.9814,5.0056,4.9952,4.9905,5.0074,5.0377,5.06,5.0551,5.0328,5.0233,5.0233,5.0196,4.9969,4.9595,4.947,4.949,4.9461,4.9222,4.8924,4.8933,4.8911,4.8963,4.8929,4.8702,4.8735,4.8727,4.8802,4.8811,4.8647,4.854,4.8616,4.8676,4.8718,4.8535,4.8522,4.8604,4.8562,4.8133,4.8047,4.8895,5.0128,5.1789,5.395,5.6117,5.6095,5.6167,5.58,5.4165,5.0659,4.8502,4.8732,4.865,4.8628,4.8621,4.8558,4.8402,4.857,4.8616,4.8527,4.8385,4.8438,4.8467,4.8561,4.8435,4.8404,4.8395,4.8567,4.8619,4.8595,4.8485,4.8555,4.8519,4.8759,4.8633,4.8544,4.8579,4.8803,4.8919,4.8868,4.8764,4.8796,4.8977,4.9116,4.9179,4.9098,4.9062,4.9176,4.9379,4.9522,4.9463,4.9556,4.9752,5.0063,5.023,5.0278,5.0375,5.0481,5.0717,5.0885,5.0918,5.0886,5.1075,5.1236,5.1374,5.1473,5.1234,5.1152,5.1125,5.1116,5.1027,5.0727,5.0512,5.0318,5.0181,4.9711,4.928,4.9112,4.8943,4.8876,4.863,4.8362,4.8275,4.8262,4.8367,4.8312,4.8071,4.7994,4.8064,4.8144,4.8077,4.7924,4.7938,4.795,4.8074,4.7998,4.7864,4.7744,4.7941,4.8018,4.8035,4.7995,4.7945,4.7955,4.803,4.8057,4.7969,4.792,4.8025,4.809,4.8081,4.8039,4.7979,4.8013,4.8147,4.8288,4.8068,4.7949,4.802,4.8141,4.8237,4.8108,4.7972,4.7928,4.8044,4.8068,4.8063,4.7945,4.8021,4.8076,4.8127,4.8054,4.7913,4.7858,4.8011,4.8029,4.7989,4.7799,4.7814,4.7915,4.8027,4.7958,4.7839,4.7747,4.7713,4.7849,4.7875,4.7713,4.767,4.7722,4.7791,4.7835,4.7692,4.7638,4.7787,4.7963,4.7984,4.7901,4.7852,4.8007,4.8247,4.8379,4.8333,4.8395,4.8572,4.8767,4.8755,4.8545,4.8402,4.8282,4.8225,4.8245,4.8032,4.7814,4.7737,4.7727,4.7721,4.766,4.7459,4.7478,4.7635,4.7725,4.7632,4.7516,4.7463,4.7503,4.759,4.7594,4.7418,4.7439,4.7517,4.769,4.7575,4.7408,4.7224,4.6866,4.685,4.7435,4.8328,4.9563,5.145,5.4125,5.4985,5.5322,5.4813,5.2726,5.01,4.8521,4.8032,4.7581,4.7549,4.7734,4.7896,4.7857,4.7906,4.7862,4.8009,4.8069,4.8037,4.7857,4.7969,4.806,4.8256,4.819,4.8081,4.8087,4.8191,4.8241,4.829,4.8168,4.827,4.8415,4.8609,4.8539,4.8464,4.8474,4.8481,4.8622,4.8708,4.8673,4.8714,4.8901,4.9059,4.9145,4.9054,4.9124,4.9403,4.9644,4.9753,4.9769,4.9897,5.0076,5.0434,5.055,5.0541,5.0551,5.0814,5.104,5.1225,5.122,5.1128,5.1296,5.1458,5.1525,5.1373,5.1236,5.1124,5.1075,5.086,5.0584,5.0185,5.0042,4.9863,4.9881,4.9707,4.934,4.9169,4.9087,4.9143,4.8975,4.8718,4.8766,4.8798,4.8846,4.8793,4.8616,4.859,4.8758,4.8815,4.8738,4.8578,4.8629,4.8565,4.8728,4.8804,4.8699,4.8632,4.8684,4.8831,4.8964,4.8843,4.8846,4.8887,4.9004,4.9116,4.9081,4.9118,4.9163,4.9297,4.9375,4.9239,4.9215,4.9246,4.9382,4.9498,4.9446,4.935,4.9336,4.9449,4.9548,4.9448,4.9366,4.9406,4.9482,4.9602,4.9499,4.9387,4.9393,4.9494,4.9586,4.9609,4.9426,4.9446,4.9455,4.9512,4.953,4.9461,4.9398,4.9503,4.9573,4.9607,4.9386,4.9378,4.9514,4.9639,4.9493,4.9324,4.9327,4.9456,4.9529,4.9549,4.9436,4.9381,4.9382,4.9528,4.9646,4.9461,4.9504,4.9535,4.9784,4.999,4.994,5.0007,4.9997,5.0235,5.0361,5.0444,5.06,5.0648,5.058,5.0597,5.0504,5.0234,5.0068,5.0028,5.0034,4.9808,4.9534,4.9418,4.9438,4.95,4.9468,4.9333,4.9253,4.9339,4.9457,4.9434,4.9258,4.9241,4.9324,4.9413,4.9445,4.9271,4.9184,4.9319,4.9457,4.9482,4.908,4.8656,4.8967,5.0026,5.1434,5.2837,5.5184,5.7194,5.7428,5.7022,5.6611,5.465,5.0746,4.9356,4.9786,4.9682,4.9577,4.9648,4.972,4.9779,4.9692,4.9533,4.9545,4.9601,4.9625,4.9566,4.9595,4.9669,4.9753,4.9792,4.9851,4.9697,4.9731,4.9822,4.9991,5.0006,4.9911,4.9952,5.0083,5.0119,5.0171,5.0065,5.0141,5.0283,5.0443,5.0403,5.0238,5.0351,5.0476,5.0656,5.0825,5.0715,5.0827,5.0974,5.1164,5.1362,5.1437,5.1446,5.1709,5.1976,5.2183,5.214,5.2303,5.2569,5.2775,5.2897,5.2861,5.2835,5.2973,5.3073,5.3144,5.3006,5.2747,5.2606,5.2475,5.2317,5.2019,5.1612,5.1406,5.1327,5.1158,5.0828,5.0592,5.0459,5.047,5.0445,5.0384,5.0277,5.0199,5.016,5.0244,5.0349,5.024,5.0165,5.0237,5.0327,5.0341,5.0218,5.0142,5.0259,5.0362,5.0387,5.0234,5.0277,5.0325,5.0391,5.0502,5.0476,5.0274,5.0393,5.049,5.0584,5.0503,5.0408,5.0453,5.059,5.0562,5.048,5.0383,5.0451,5.0509,5.0578,5.0477,5.0371,5.0307,5.0362,5.0464,5.0444,5.0221,5.0263,5.0376,5.0446,5.0408,5.021,5.0157,5.0332,5.0468,5.036,5.0265,5.0211,5.0305,5.0427,5.0353,5.0302,5.02,5.0281,5.0399,5.0412,5.0276,5.0204,5.0183,5.0274,5.0285,5.0131,5.0058,5.0151,5.0254,5.0273,5.0079,5.001,5.0088,5.0184,5.0203,5.0147,5.0009,4.9925,5.003,5.0144,5.0129,5.0033,5.0126,5.0245,5.039,5.0457,5.0451,5.0427,5.071,5.0952,5.1048,5.1045,5.096,5.1003,5.1012,5.087,5.0502,5.0287,5.0272,5.0266,5.0176,4.9838,4.977,4.9782,4.9903,4.9838,4.9665,4.9571,4.9633,4.9737,4.9671,4.9463,4.954,4.9596,4.9648,4.965,4.959,4.956,4.9537,4.9612,4.9667,4.9175,4.888,4.9538,5.077,5.2239,5.3871,5.6704,5.7501,5.7346,5.6962,5.4995,5.312,4.9861,4.9805,5.0147,4.9944,4.9939,4.9812,4.9973,5.0016,5.0007,4.9786,4.9795,4.9812,4.9998,4.9879,4.9797,4.9711,4.9933,4.9989,5.0025,4.982,4.9848,4.9914,5.0054,5.0142,5.0078,5.0016,5.0146,5.0139,5.0243,5.0099,5.0092,5.0167,5.0373,5.0435,5.0363,5.0367,5.0556,5.054,5.0832,5.0728,5.0753,5.0932,5.1194,5.134,5.1412,5.1451,5.1585,5.2005,5.2215,5.2206,5.2251,5.2445,5.2572,5.2723,5.2763,5.2667,5.2767,5.2831,5.2813,5.2666,5.2351,5.2116,5.196,5.1952,5.1682,5.1256,5.0946,5.0781,5.0593,5.0411,5.005,4.9998,4.9994,4.9987,4.9878,4.9737,4.9586,4.9573,4.9719,4.9681,4.9569,4.9513,4.9535,4.9674,4.9587,4.9453,4.9432,4.9457,4.9599,4.9629,4.946,4.9391,4.9406,4.9524,4.9578,4.9581,4.9502,4.9474,4.9554,4.9637,4.9549,4.9396,4.9407,4.9471,4.9537,4.9538,4.9378,4.9352,4.9457,4.9526,4.9358,4.9171,4.9259,4.9352,4.9334,4.9342,4.9291,4.9277,4.9321,4.9416,4.9354,4.922,4.9138,4.9194,4.9217,4.9222,4.9133,4.8982,4.8969,4.9214,4.9087,4.8929,4.8892,4.8937,4.9032,4.9025,4.8931,4.8857,4.8855,4.8866,4.8946,4.8838,4.877,4.8727,4.8833,4.8901,4.8757,4.8727,4.8678,4.8712,4.8727,4.8577,4.8484,4.8497,4.8563,4.8715,4.8688,4.8436,4.8406,4.8455,4.8659,4.8622,4.8558,4.859,4.8651,4.8887,4.8934,4.882,4.8882,4.9147,4.9356,4.9498,4.9372,4.9285,4.9226,4.9199,4.9044,4.8786,4.8514,4.842,4.8325,4.8361,4.8105,4.7996,4.8089,4.8072,4.8065,4.7831,4.7812,4.7838,4.7872,4.7993,4.7862,4.7658,4.7724,4.7914,4.8003,4.7885,4.7729,4.7779,4.7859,4.7679,4.7134,4.698,4.7772,4.9068,5.0681,5.2842,5.4784,5.491,5.5407,5.5177,5.3386,5.0342,4.8202,4.7966,4.7901,4.7678,4.7649,4.7828,4.785,4.7855,4.7871,4.7732,4.7606,4.771,4.7803,4.7871,4.7737,4.7819,4.7876,4.7945,4.7942,4.7886,4.7713,4.7907,4.8019,4.8141,4.8046,4.7961,4.7913,4.8101,4.8209,4.8111,4.8187,4.8206,4.8311,4.8359,4.8345,4.8204,4.8274,4.8433,4.8693,4.867,4.8648,4.8816,4.908,4.9398,4.9527,4.9535,4.969,4.9939,5.0221,5.0219,5.0223,5.0262,5.0377,5.0528,5.0598,5.0408,5.0435,5.0524,5.0584,5.0488,5.0158,4.9872,4.9789,4.9662,4.9456,4.8949,4.8721,4.8566,4.836,4.8205,4.7929,4.7812,4.7803,4.776,4.7723,4.7613,4.7486,4.7494,4.7628,4.7598,4.7573,4.7417,4.739,4.7507,4.7582,4.7498,4.7369,4.7398,4.7523,4.7522,4.7341,4.7328,4.7373,4.7535,4.7675,4.7677,4.7542,4.7585,4.7661,4.7829,4.7723,4.7522,4.761,4.7794,4.7924,4.7981,4.7813,4.7767,4.7849,4.7915,4.7973,4.7864,4.7749,4.7803,4.7961,4.8052,4.8026,4.7903,4.8019,4.8155,4.8145,4.7975,4.7866,4.791,4.803,4.8029,4.7869,4.7845,4.7921,4.7971,4.8068,4.7986,4.7795,4.7799,4.7923,4.7984,4.7863,4.7756,4.7782,4.7947,4.8004,4.7988,4.7802,4.7849,4.7915,4.8132,4.8076,4.814,4.8183,4.8297,4.8521,4.8549,4.8349,4.8365,4.8652,4.901,4.9107,4.8887,4.8817,4.8857,4.8796,4.8575,4.8313,4.8132,4.8129,4.8187,4.8022,4.7882,4.7724,4.7778,4.79,4.7944,4.7801,4.7655,4.7725,4.7774,4.7849,4.7739,4.7684,4.7696,4.7801,4.7929,4.7738,4.7655,4.7804,4.7907,4.7861,4.7342,4.715,4.801,4.9392,5.0944,5.3074,5.531,5.5693,5.5555,5.4652,5.2032,4.8671,4.8068,4.8263,4.81,4.8215,4.805,4.809,4.8022,4.8271,4.8283,4.8184,4.8034,4.8186,4.826,4.8329,4.8144,4.8238,4.8295,4.8396,4.8407,4.8424,4.8375,4.8524,4.8607,4.883,4.8675,4.8623,4.8653,4.8826,4.89,4.8802,4.8729,4.8806,4.8918,4.9126,4.9117,4.9085,4.9205,4.9331,4.952,4.9503,4.9526,4.9781,5.0001,5.0327,5.0312,5.0256,5.0418,5.0657,5.0953,5.1084,5.1069,5.1188,5.1369,5.1532,5.1545,5.1398,5.1422,5.159,5.1576,5.1377,5.101,5.0727,5.0593,5.0429,5.0355,4.9943,4.9617,4.9476,4.9488,4.9418,4.9176,4.8958,4.8941,4.8969,4.8933,4.8823,4.8788,4.8793,4.8879,4.8875,4.8714,4.8658,4.8798,4.8881,4.902,4.8984,4.8917,4.8797,4.8934,4.9121,4.9047,4.8928,4.8956,4.9093,4.9148,4.9058,4.8986,4.9063,4.9255,4.9324,4.9226,4.9124,4.9174,4.9275,4.9487,4.9474,4.9332,4.9328,4.9429,4.9594,4.9562,4.9332,4.9355,4.9417,4.952,4.9544,4.9357,4.938,4.9399,4.9482,4.951,4.9405,4.9276,4.9252,4.9418,4.9454,4.9312,4.92,4.9189,4.9337,4.9348,4.9135,4.912,4.9221,4.9323,4.9339,4.9195,4.9139,4.9181,4.9308,4.9394,4.9319,4.9122,4.9069,4.9217,4.9296,4.9212,4.9069,4.9107,4.9191,4.9263,4.9103,4.9019,4.9061,4.9213,4.9253,4.9247,4.9015,4.9025,4.9091,4.9254,4.9273,4.9216,4.913,4.9208,4.9391,4.951,4.9465,4.9506,4.9545,4.9721,4.9977,5.0035,5.0058,5.0153,5.0111,5.0082,4.9781,4.9573,4.9556,4.9514,4.9576,4.9301,4.9087,4.8968,4.9083,4.9103,4.8983,4.8806,4.8858,4.8905,4.9046,4.8858,4.8817,4.8767,4.8799,4.8917,4.8939,4.8773,4.8766,4.8841,4.8948,4.8896,4.8529,4.811,4.8313,4.9351,5.0633,5.1934,5.3928,5.6643,5.7042,5.6467,5.5608,5.283,4.9287,4.8996,4.934,4.9037,4.9058,4.907,4.9275,4.9137,4.9132,4.8923,4.9075,4.9086,4.9244,4.8994,4.9062,4.9057,4.9253,4.9233,4.9153,4.8995,4.9148,4.9202,4.95,4.9407,4.9298,4.9277,4.9445,4.9544,4.9589,4.944,4.9516,4.9663,4.9707,4.9725,4.9742,4.9804,4.9989,5.0205,5.0198,5.0103,5.0105,5.032,5.0534,5.0741,5.0714,5.0761,5.0982,5.1251,5.1507,5.1563,5.1708,5.1892,5.2084,5.227,5.2168,5.2169,5.2304,5.2476,5.2446,5.2348,5.2139,5.2006,5.188,5.175,5.1437,5.1042,5.0824,5.0713,5.0547,5.0242,4.9963,4.9878,4.9817,4.9828,4.965,4.9519,4.9484,4.9595,4.9641,4.9597,4.947,4.9436,4.9493,4.9586,4.9537,4.9438,4.9426,4.9573,4.9665,4.9589,4.9447,4.9506,4.9628,4.9813,4.9673,4.9566,4.9609,4.963,4.9618,4.9749,4.9626,4.9582,4.9609,4.967,4.9714,4.9625,4.9613,4.9701,4.976,4.9809,4.9574,4.9539,4.957,4.9683,4.9745,4.9584,4.9537,4.9579,4.9658,4.9734,4.9627,4.9486,4.9535,4.96,4.9694,4.957,4.9305,4.9351,4.9517,4.9646,4.9519,4.9371,4.9466,4.9455,4.9466,4.9483,4.9232,4.9155,4.9226,4.9387,4.9359,4.9243,4.9066,4.9107,4.9238,4.9274,4.91,4.9026,4.9124,4.9212,4.9177,4.9044,4.8961,4.8964,4.9021,4.908,4.8941,4.8809,4.8917,4.8994,4.8988,4.8782,4.8746,4.8773,4.887,4.893,4.8864,4.8712,4.8914,4.9019,4.9166,4.918,4.9034,4.9193,4.9377,4.9705,4.9749,4.9471,4.9443,4.9483,4.94,4.9231,4.9019,4.8862,4.8886,4.8837,4.867,4.8467,4.8403,4.843,4.8559,4.8304,4.8179,4.8151,4.8232,4.8388,4.8336,4.8183,4.8127,4.8234,4.8295,4.8181,4.8064,4.8084,4.8196,4.8264,4.7949,4.7346,4.7612,4.8639,4.9974,5.1575,5.2656,5.52,5.5676,5.5863,5.513,5.2982,4.9601,4.8371,4.8556,4.8251,4.8337,4.8123,4.8247,4.8105,4.846,4.8251,4.8257,4.8129,4.8341,4.8281,4.8387,4.819,4.8206,4.8228,4.8368,4.8192,4.8153,4.8121,4.8349,4.8412,4.848,4.819,4.8265,4.8411,4.8662,4.8534,4.8472,4.8539,4.8646,4.8733,4.8798,4.8667,4.8658,4.8799,4.9015,4.9094,4.9044,4.9059,4.9351,4.9633,4.9846,4.9817,4.9986,5.0197,5.0395,5.0514,5.0554,5.0539,5.06,5.0808,5.0904,5.0862,5.0858,5.084,5.0953,5.1003,5.0764,5.0417,5.0196,5.0067,4.9917,4.9583,4.909,4.8914,4.8749,4.8646,4.8528,4.8236,4.8104,4.8074,4.8109,4.805,4.7776,4.7766,4.784,4.7959,4.7873,4.7728,4.7688,4.772,4.7796,4.7781,4.7658,4.7625,4.768,4.7797,4.783,4.7649,4.7502,4.7614,4.7684,4.7856,4.7663,4.7657,4.7645,4.7801,4.7902,4.7813,4.7614,4.7782,4.7924,4.8007,4.7879,4.7868,4.7855,4.7974,4.7952,4.7935,4.774,4.7787,4.7904,4.8095,4.789,4.773,4.7702,4.7965,4.7983,4.789,4.7739,4.7772,4.7801,4.789,4.7778,4.7588,4.7623,4.7665,4.7837,4.7856,4.7708,4.7677,4.7811,4.7923,4.7852,4.7733,4.7662,4.7803,4.7931,4.7948,4.7714,4.7706,4.7802,4.7904,4.793,4.7866,4.7676,4.7686,4.7822,4.797,4.7933,4.7888,4.7961,4.8192,4.8355,4.8285,4.8308,4.846,4.8794,4.9,4.8945,4.8773,4.8738,4.8718,4.871,4.8475,4.8191,4.8096,4.812,4.8148,4.7979,4.7634,4.7634,4.767,4.7892,4.7844,4.7703,4.7658,4.7733,4.7789,4.7796,4.7535,4.7534,4.7563,4.7678,4.7817,4.7699,4.7678,4.7649,4.76,4.715,4.7107,4.7918,4.9236,5.0907,5.3285,5.5164,5.5409,5.5327,5.4244,5.1638,4.8366,4.7954,4.8089,4.7943,4.7978,4.797,4.788,4.7848,4.804,4.8167,4.8159,4.7985,4.798,4.8103,4.8254,4.8186,4.8093,4.8178,4.8339,4.8356,4.8343,4.8197,4.833,4.8449,4.8621,4.8647,4.8546,4.8477,4.8607,4.8813,4.896,4.8832,4.8783,4.8952,4.9201,4.9272,4.9154,4.9248,4.944,4.9606,4.9809,4.9783,4.9821,4.9982,5.0252,5.0518,5.0557,5.0604,5.0835,5.1036,5.1268,5.1237,5.1304,5.1476,5.164,5.1733,5.1634,5.1579,5.1602,5.1684,5.1639,5.1429,5.1019,5.0777,5.0656,5.054,5.0176,4.9863,4.964,4.9569,4.9537,4.9431,4.9128,4.8996,4.9041,4.9119,4.9114,4.9015,4.8898,4.9053,4.9124,4.9198,4.9029,4.9003,4.9057,4.9133,4.9174,4.9028,4.8969,4.9075,4.9181,4.9152,4.9015,4.8993,4.9099,4.9211,4.9178,4.9124,4.9151,4.925,4.9377,4.946,4.942,4.9328,4.9368,4.9509,4.964,4.9504,4.9447,4.9473,4.9586,4.9629,4.9513,4.9474,4.953,4.9617,4.9624,4.963,4.9489,4.9461,4.9589,4.9663,4.9676,4.9454,4.9519,4.9586,4.9698,4.9679,4.9425,4.9493,4.9605,4.9653,4.9617,4.9468,4.9482,4.9503,4.9628,4.9657,4.9613,4.9492,4.9584,4.972,4.9766,4.9591,4.9468,4.9541,4.9653,4.9653,4.9456,4.9366,4.9437,4.9602,4.9687,4.947,4.9419,4.9426,4.9528,4.9605,4.9557,4.9381,4.9406,4.9552,4.9654,4.9626,4.9601,4.9595,4.9722,4.9894,4.9885,4.989,4.9946,5.0054,5.0251,5.0359,5.0446,5.0513,5.0539,5.0449,5.0355,5.0126,4.9917,4.987,4.9903,4.9793,4.9519,4.9408,4.9331,4.941,4.9415,4.926,4.9189,4.9277,4.9297,4.9349,4.9229,4.9154,4.9219,4.9334,4.9348,4.9257,4.9235,4.921,4.9337,4.9405,4.9128,4.8675,4.8821,4.9863,5.1202,5.2588,5.4633,5.626,5.7269,5.7208,5.6723,5.5146,5.127,4.9222,4.963,4.9635,4.9373,4.9497,4.9569,4.966,4.9545,4.9416,4.939,4.9464,4.9503,4.9463,4.9348,4.9341,4.942,4.9591,4.9612,4.9492,4.9491,4.9542,4.9712,4.9771,4.9673,4.9679,4.9781,4.9893,4.9917,4.9866,4.9852,4.9978,5.0119,5.018,5.0098,5.0025,5.0081,5.022,5.0495,5.0548,5.0471,5.0631,5.071,5.0971,5.0999,5.1078,5.1308,5.1593,5.1754,5.1771,5.188,5.2114,5.2354,5.2459,5.2573,5.2495,5.2473,5.2648,5.2758,5.2717,5.2452,5.2243,5.2182,5.2001,5.1739,5.1439,5.109,5.0893,5.0896,5.0687,5.0351,5.0149,5.0141,5.0064,5.001,4.9907,4.9758,4.9816,4.9849,4.9957,4.9875,4.9752,4.9761,4.982,4.9897,4.9679,4.9648,4.9739,4.9879,4.9898,4.9688,4.9655,4.974,4.9766,4.9894,4.9824,4.9742,4.9766,4.9921,4.9986,4.989,4.9764,4.9725,4.9914,4.997,4.9921,4.9819,4.9819,4.9961,4.9969,4.9957,4.9809,4.98,4.991,4.9998,4.9973,4.9888,4.9916,4.9949,5.0039,5.008,4.9914,4.986,4.9996,5.0055,5.002,4.9871,4.9851,4.9945,4.9976,5.0092,4.9966,4.994,4.9988,5.0064,5.0102,4.9937,4.9809,4.9824,4.9938,4.9955,4.9876,4.9769,4.9812,4.9836,4.9885,4.9798,4.9718,4.9758,4.9801,4.9847,4.9818,4.9603,4.9617,4.9731,4.9784,4.9743,4.9589,4.9577,4.9623,4.9677,4.9615,4.9441,4.9459,4.9645,4.9635,4.9527,4.945,4.9493,4.9573,4.9618,4.9684,4.9567,4.9664,4.9841,5.0042,5.0117,5.0078,5.0191,5.0334,5.0414,5.0397,5.0123,4.9954,4.9906,4.9816,4.9771,4.9621,4.9278,4.9158,4.9086,4.9092,4.9023,4.8831,4.8763,4.8938,4.8862,4.8807,4.8769,4.8799,4.8872,4.8812,4.8691,4.8553,4.8679,4.8708,4.8806,4.8756,4.8596,4.8464,4.8075,4.8166,4.8995,4.9948,5.1424,5.3448,5.6147,5.6431,5.6108,5.5431,5.3252,4.9847,4.8895,4.891,4.8541,4.8649,4.8781,4.8914,4.8616,4.8561,4.8509,4.8678,4.8645,4.8526,4.837,4.8516,4.8562,4.87,4.8491,4.8429,4.837,4.8639,4.8612,4.8532,4.845,4.8503,4.851,4.8671,4.8603,4.853,4.8612,4.8725,4.8763,4.876,4.8631,4.8734,4.8872,4.8992,4.8944,4.895,4.9095,4.9318,4.9473,4.9525,4.9439,4.9587,4.9845,5.0139,5.0236,5.0224,5.0288,5.0523,5.0726,5.0873,5.083,5.0921,5.111,5.1192,5.1145,5.0926,5.0809,5.0835,5.0859,5.0757,5.0358,4.9951,4.9751,4.9658,4.9489,4.8944,4.8671,4.8537,4.845,4.8485,4.8267,4.8006,4.7926,4.7902,4.8006,4.7768,4.7722,4.7765,4.7873,4.795,4.7797,4.7634,4.7696,4.7743,4.7771,4.773,4.7663,4.7622,4.7707,4.7796,4.7794,4.7619,4.767,4.779,4.7843,4.7747,4.761,4.7666,4.7871,4.7961,4.7954,4.7816,4.7739,4.7802,4.7958,4.792,4.7771,4.7756,4.7867,4.7929,4.7891,4.7688,4.7715,4.7787,4.7901,4.7929,4.7779,4.7681,4.7707,4.7858,4.7866,4.7696,4.765,4.7748,4.7828,4.786,4.7755,4.7697,4.7779,4.7736,4.7788,4.7646,4.7595,4.76,4.7669,4.7763,4.7744,4.7574,4.7502,4.7659,4.7702,4.7569,4.7384,4.7401,4.7572,4.7685,4.7626,4.7448,4.7451,4.7577,4.7711,4.7742,4.7651,4.767,4.7764,4.8001,4.811,4.8057,4.8063,4.8387,4.8624,4.8528,4.8328,4.8156,4.8142,4.8158,4.7986,4.7629,4.7442,4.7404,4.7452,4.7525,4.7444,4.7233,4.7238,4.7298,4.7299,4.7219,4.7083,4.713,4.7231,4.7343,4.7181,4.7034,4.7059,4.7241,4.7326,4.7147,4.7094,4.7039,4.6844,4.6655,4.6769,4.751,4.8729,5.0359,5.2888,5.4585,5.4848,5.4849,5.362,5.115,4.8415,4.7709,4.7525,4.7379,4.7478,4.7583,4.7432,4.7425,4.7632,4.767,4.7823,4.764,4.7503,4.7509,4.7684,4.7838,4.7809,4.7769,4.7792,4.783,4.7934,4.7833,4.7814,4.7972,4.8107,4.8238,4.8182,4.8069,4.8125,4.8253,4.84,4.8375,4.8323,4.8387,4.8536,4.8653,4.8717,4.8679,4.8751,4.9004,4.9234,4.9217,4.926,4.9487,4.9714,5.0009,5.0121,5.0129,5.0241,5.0476,5.073,5.0805,5.0793,5.0863,5.1059,5.118,5.1222,5.102,5.0942,5.0913,5.0923,5.0722,5.0374,5.0089,4.989,4.9758,4.9674,4.9384,4.9101,4.8959,4.891,4.8847,4.865,4.8442,4.8469,4.8592,4.8608,4.851,4.8304,4.8378,4.8427,4.8495,4.8357,4.8326,4.8391,4.8467,4.8601,4.8487,4.836,4.8424,4.8544,4.8663,4.8553,4.843,4.8451,4.863,4.8747,4.874,4.8688,4.8715,4.8867,4.8946,4.8895,4.8888,4.8872,4.8874,4.8999,4.9143,4.8987,4.8907,4.8961,4.9083,4.9131,4.9004,4.8969,4.913,4.9173,4.9177,4.9027,4.9011,4.9091,4.9217,4.9211,4.9147,4.9083,4.9059,4.915,4.9192,4.9071,4.8924,4.9001,4.9136,4.9205,4.9147,4.9052,4.8967,4.9231,4.9274,4.9164,4.9015,4.9028,4.9177,4.9167,4.9163,4.9032,4.903,4.9165,4.9184,4.9146,4.9008,4.8995,4.9082,4.9228,4.9191,4.8933,4.8913,4.9067,4.9245,4.9198,4.9073,4.919,4.9275,4.9343,4.951,4.9621,4.9593,4.9636,4.9762,4.9984,4.9995,5.0131,5.012,5.009,5.0058,4.981,4.96,4.9516,4.9489,4.9408,4.9207,4.8999,4.8945,4.8979,4.9025,4.901,4.8921,4.8833,4.8944,4.9062,4.8908,4.8732,4.876,4.8861,4.8937,4.8894,4.8762,4.8787,4.8898,4.8993,4.8808,4.8468,4.8202,4.8763,4.9967,5.1433,5.2908,5.5697,5.6872,5.6914,5.6481,5.4615,5.0893,4.8712,4.9348,4.9269,4.9072,4.8999,4.9175,4.9221,4.9329,4.9017,4.9051,4.9055,4.9152,4.9115,4.9139,4.906,4.9096,4.9168,4.9303,4.9185,4.9087,4.9209,4.9416,4.9437,4.9381,4.932,4.9489,4.9503,4.9624,4.9588,4.962,4.9613,4.9818,4.9958,4.9919,4.9828,4.9897,5.0091,5.0301,5.0356,5.0277,5.0459,5.0762,5.0928,5.0983,5.0952,5.1058,5.1285,5.1475,5.1702,5.1779,5.1874,5.2082,5.2316,5.2373,5.2322,5.2364,5.2494,5.2491,5.2397,5.2238,5.213,5.1978,5.1828,5.162,5.1441,5.1085,5.0886,5.0731,5.0577,5.0225,5.0018,4.9946,4.9988,4.9945,4.9836,4.9675,4.9626,4.9716,4.9794,4.9709,4.9611,4.9591,4.9734,4.9846,4.9786,4.9594,4.9567,4.9697,4.9791,4.9788,4.9664,4.9598,4.969,4.984,4.9794,4.9656,4.9718,4.9808,4.9831,4.9885,4.9745,4.982,4.9825,4.9791,4.9946,4.9763,4.9771,4.9798,4.9976,5.0042,4.9844,4.9743,4.9859,4.9934,5.0001,4.9858,4.9746,4.985,4.9992,5.001,4.9849,4.9698,4.9746,4.987,4.9914,4.9878,4.9734,4.9789,4.9913,4.9854,4.9891,4.9839,4.9784,4.9797,4.9951,4.9865,4.971,4.9691,4.9757,4.9904,4.9792,4.9712,4.9651,4.9692,4.9847,4.9814,4.9683,4.9633,4.9687,4.9704,4.9761,4.9549,4.9575,4.961,4.9662,4.9637,4.9567,4.9511,4.9582,4.9712,4.9745,4.9634,4.9543,4.9744,4.9864,5.0096,5.0027,4.9954,5.0126,5.0296,5.0651,5.0642,5.0523,5.0518,5.0503,5.0373,5.0115,4.9836,4.9752,4.9759,4.9707,4.9595,4.9342,4.9262,4.928,4.9345,4.9277,4.9118,4.9125,4.9145,4.9253,4.9223,4.9056,4.9067,4.9137,4.9201,4.9132,4.9091,4.9073,4.9149,4.9116,4.9006,4.8447,4.8765,4.9828,5.1314,5.3027,5.5677,5.6813,5.675,5.6481,5.4997,5.1252,4.8801,4.9209,4.9352,4.9275,4.9229,4.9193,4.911,4.916,4.911,4.9095,4.895,4.8957,4.9064,4.9178,4.8908,4.8872,4.8902,4.9031,4.9045,4.9004,4.8965,4.9071,4.9216,4.9317,4.9265,4.9161,4.9021,4.9245,4.9331,4.9366,4.9294,4.9313,4.9372,4.9507,4.9484,4.9451,4.9527,4.9698,4.9908,4.9962,5.0042,5.01,5.0218,5.0364,5.0541,5.0547,5.0706,5.0885,5.1201,5.1277,5.1289,5.1346,5.1576,5.1749,5.1933,5.183,5.1704,5.176,5.1795,5.1629,5.1403,5.1232,5.1038,5.0748,5.0622,5.0256,4.9918,4.9669,4.9679,4.9559,4.9324,4.9033,4.8893,4.8856,4.887,4.8791,4.8621,4.8575,4.8699,4.8689,4.8578,4.8492,4.8475,4.8542,4.8602,4.8669,4.8444,4.8453,4.8541,4.8666,4.8704,4.8394,4.8453,4.8595,4.8716,4.868,4.8591,4.8578,4.8682,4.8724,4.8743,4.8714,4.8648,4.8697,4.882,4.887,4.875,4.8629,4.8546,4.8584,4.8737,4.859,4.8492,4.8599,4.8692,4.8726,4.847,4.8474,4.8443,4.8509,4.8675,4.8548,4.8401,4.8383,4.8496,4.8643,4.8486,4.8431,4.8352,4.842,4.8447,4.8252,4.8145,4.8211,4.8346,4.8447,4.8314,4.8107,4.8106,4.8152,4.8202,4.8202,4.812,4.7945,4.8076,4.8173,4.8179,4.8007,4.8028,4.8125,4.8227,4.8264,4.8157,4.8284,4.8478,4.8601,4.8703,4.8748,4.8837,4.8938,4.9103,4.9213,4.8964,4.8813,4.8589,4.8543,4.8446,4.8437,4.8138,4.807,4.797,4.8066,4.7861,4.7778,4.7851,4.7937,4.7921,4.786,4.7674,4.7672,4.7855,4.7887,4.7831,4.7699,4.7697,4.7681,4.7699,4.7663,4.759,4.7402,4.6977,4.7204,4.8023,4.9083,5.0651,5.1851,5.445,5.5162,5.5401,5.4739,5.2526,4.9879,4.8364,4.7984,4.7493,4.7621,4.7768,4.8008,4.781,4.7889,4.7802,4.8053,4.7936,4.7898,4.7803,4.7974,4.7979,4.8143,4.7964,4.7889,4.7851,4.8004,4.8042,4.8079,4.7922,4.8127,4.8272,4.8382,4.8272,4.814,4.8142,4.834,4.8457,4.8499,4.8497,4.8597,4.8676,4.8845,4.8836,4.8761,4.8845,4.9188,4.9453,4.9599,4.9565,4.9631,5.0018,5.025,5.0331,5.0347,5.0548,5.0759,5.1058,5.1078,5.1046,5.0963,5.1081,5.1367,5.1534,5.1279,5.1148,5.1007,5.1009,5.081,5.0451,5.0082,4.9882,4.9734,4.957,4.9209,4.8981,4.8991,4.8992,4.8938,4.8837,4.8608,4.8574,4.8584,4.8662,4.8489,4.8387,4.8449,4.8513,4.8589,4.8549,4.8364,4.8442,4.8517,4.8653,4.8395,4.8282,4.8283,4.8441,4.8643,4.8637,4.8426,4.8507,4.8524,4.8691,4.8751,4.865,4.8683,4.8742,4.8823,4.8929,4.8783,4.8764,4.8918,4.9004,4.8959,4.8918,4.8856,4.8921,4.8994,4.9047,4.8808,4.8762,4.8833,4.9007,4.9042,4.8995,4.8895,4.8838,4.9024,4.9086,4.8956,4.8878,4.8823,4.8865,4.8911,4.8862,4.8722,4.8719,4.8918,4.8969,4.8878,4.8754,4.8865,4.8879,4.8858,4.884,4.8699,4.8706,4.8836,4.9008,4.895,4.8851,4.8966,4.8927,4.904,4.9028,4.8858,4.8828,4.8998,4.9206,4.933,4.9176,4.9252,4.9426,4.9595,4.9667,4.9727,4.9875,5.0103,5.0193,5.0074,4.9839,4.9801,4.9738,4.9652,4.9565,4.9396,4.9164,4.9065,4.9033,4.9113,4.8991,4.8835,4.8807,4.8933,4.8965,4.8813,4.8732,4.8815,4.8887,4.8942,4.8904,4.8806,4.8858,4.8923,4.8972,4.8963,4.8796,4.8687,4.8441,4.8598,4.945,5.0596,5.2181,5.4601,5.6981,5.7267,5.6756,5.5784,5.298,5.0917,4.9298,4.9315,4.9266,4.9203,4.9555,4.9452,4.9437,4.927,4.9447,4.9497,4.9513,4.9295,4.9328,4.9328,4.9529,4.9559,4.9566,4.9489,4.9486,4.9559,4.9731,4.9645,4.9578,4.9569,4.9752,4.9878,4.9852,4.9755,4.9855,5.0012,5.0174,5.0051,5.0037,5.0085,5.0219,5.036,5.0387,5.0405,5.0473,5.0688,5.0944,5.1043,5.095,5.1035,5.1296,5.1633,5.1788,5.1777,5.201,5.2247,5.2518,5.258,5.258,5.2661,5.2785,5.3003,5.2949,5.2796,5.2579,5.25,5.2433,5.2156,5.1798,5.1437,5.1256,5.1196,5.1025,5.0696,5.0423,5.0293,5.0313,5.0284,5.0001,4.9969,4.9966,5.0048,4.9997,4.9984,4.9904,4.9909,5.0033,5.0072,4.9936,4.9807,4.9854,4.9992,5.0025,4.998,4.9822,4.9886,4.9985,5.0004,4.9937,4.9878,4.9922,5.0016,5.0093,5.0064,4.9965,5.0025,5.0107,5.0246,5.0268,5.0074,4.9998,5.0113,5.0328,5.0279,5.0247,5.0118,5.0128,5.0345,5.0292,5.0089,5.0119,5.014,5.0321,5.0389,5.0294,5.0192,5.0137,5.0236,5.0312,5.0346,5.0251,5.027,5.0398,5.0315,5.0189,5.022,5.019,5.0349,5.0372,5.0308,5.0161,5.0258,5.0333,5.0399,5.03,5.0123,5.0109,5.0297,5.0369,5.0295,5.0152,5.0171,5.0318,5.0385,5.0245,5.0138,5.0145,5.0188,5.0369,5.0418,5.0193,5.0144,5.0234,5.0373,5.0446,5.0244,5.0187,5.024,5.033,5.0349,5.0313,5.0266,5.0477,5.0663,5.0683,5.0608,5.0692,5.0709,5.0911,5.1069,5.1244,5.1201,5.1222,5.1315,5.125,5.1068,5.083,5.0692,5.066,5.0712,5.044,5.024,5.011,5.0171,5.0182,5.0076,5.0003,4.9968,5.0072,5.0209,5.0126,4.9961,5.0015,5.0024,5.0147,5.0178,5.008,5.0011,5.0119,5.0161,5.0152,4.9806,4.94,4.9592,5.0583,5.1892,5.255,5.4107,5.7144,5.8191,5.7961,5.7416,5.5666,5.1939,5.0154,5.062,5.0376,5.0239,5.0305,5.0428,5.039,5.0242,5.0124,5.0205,5.0255,5.0285,5.0212,5.0181,5.0187,5.0396,5.0448,5.028,5.0106,5.0253,5.0309,5.0496,5.0413,5.0339,5.0299,5.0483,5.0707,5.0509,5.0428,5.052,5.061,5.0672,5.0584,5.047,5.0554,5.0729,5.0892,5.101,5.1016,5.1117,5.1321,5.1522,5.1561,5.1563,5.1608,5.1869,5.2133,5.2201,5.2208,5.2265,5.2492,5.2659,5.2874,5.2748,5.2834,5.2981,5.3028,5.3117,5.2772,5.2713,5.2568,5.2388,5.2198,5.174,5.1347,5.1206,5.106,5.0918,5.0694,5.0299,5.0184,5.0118,5.007,4.9905,4.9687,4.9712,4.9782,4.976,4.9689,4.9607,4.959,4.9675,4.9874,4.9745,4.9589,4.9596,4.9639,4.9688,4.9673,4.9501,4.9303,4.9252,4.9421,4.9659,4.9678,4.9738,4.9643,4.9644,4.9611,4.9554,4.963,4.9666,4.9798,4.9684,4.9593,4.9528,4.951,4.9511,4.9625,4.955,4.9504,4.9452,4.9468,4.9644,4.9663,4.9581,4.9476,4.9608,4.9706,4.9479,4.9419,4.9415,4.9514,4.9389,4.9315,4.9345,4.9346,4.9416,4.9469,4.9444,4.9375,4.9268,4.9385,4.9496,4.9229,4.915,4.9136,4.9288,4.9352,4.9332,4.9106,4.909,4.9181,4.9345,4.9306,4.9135,4.9027,4.908,4.9125,4.9157,4.9065,4.8957,4.9049,4.916,4.9101,4.889,4.8851,4.8904,4.9058,4.9053,4.8915,4.8836,4.8953,4.9206,4.9276,4.9299,4.9305,4.9315,4.9497,4.9529,4.9531,4.9767,4.9781,4.9744,4.9796,4.9614,4.927,4.912,4.9091,4.9009,4.8676,4.8457,4.8556,4.8579,4.8693,4.8653,4.845,4.8258,4.8375,4.8584,4.8653,4.8525,4.841,4.8468,4.8524,4.8645,4.8477,4.833,4.8569,4.8788,4.8707,4.8383,4.8132,4.7687,4.8138,4.9319,5.0453,5.2087,5.4832,5.6064,5.6659,5.6228,5.4115,5.1169,4.9328,4.9036,4.834,4.8307,4.8509,4.8787,4.8691,4.858,4.8496,4.8481,4.8649,4.8778,4.8617,4.859,4.8602,4.8728,4.8779,4.8662,4.8546,4.8456,4.8654,4.8805,4.8728,4.8601,4.8622,4.8856,4.896,4.8986,4.8817,4.8874,4.9032,4.918,4.9197,4.9074,4.9093,4.9316,4.9511,4.951,4.9361,4.9475,4.9687,4.982,4.9965,4.9952,5.0189,5.039,5.0585,5.0828,5.077,5.0913,5.1122,5.1416,5.1577,5.151,5.156,5.1608,5.1792,5.178,5.156,5.1319,5.1166,5.1133,5.1001,5.0553,5.0309,5.0077,4.9897,4.9709,4.953,4.9251,4.9143,4.9279,4.9187,4.9058,4.8683,4.8552,4.8687,4.901,4.8868,4.8703,4.8662,4.878,4.8841,4.8787,4.8654,4.8628,4.8707,4.8788,4.8803,4.8603,4.8559,4.8675,4.8776,4.8738,4.8641,4.8646,4.8766,4.8937,4.8931,4.8782,4.887,4.8896,4.9026,4.9109,4.9036,4.8903,4.8968,4.9023,4.9088,4.8977,4.8985,4.9085,4.9119,4.9213,4.9063,4.9009,4.9012,4.9057,4.9154,4.9046,4.8981,4.9005,4.9153,4.9236,4.9065,4.8977,4.8945,4.899,4.9068,4.9017,4.8932,4.896,4.9014,4.9033,4.9019,4.8845,4.8842,4.8849,4.9037,4.9048,4.8858,4.8849,4.8858,4.9052,4.9037,4.8872,4.901,4.9103,4.9066,4.8977,4.887,4.896,4.8991,4.9026,4.9364,4.927,4.8846,4.8836,4.9056,4.9136,4.905,4.9024,4.9223,4.9572,4.9595,4.9495,4.946,4.9647,5.0028,5.0215,5.0097,5.0003,5.0012,5.0043,4.987,4.9589,4.9434,4.9422,4.9331,4.9297,4.927,4.9078,4.8992,4.8966,4.9082,4.9051,4.902,4.8944,4.9042,4.9184,4.904,4.8815,4.8963,4.9031,4.9197,4.9045,4.8884,4.8944,4.8936,4.9058,4.8739,4.8404,4.8794,5.0016,5.1652,5.3383,5.6027,5.6852,5.6869,5.6577,5.475,5.089,4.8936,4.9378,4.9339,4.9328,4.9219,4.9288,4.922,4.9387,4.9425,4.9336,4.9078,4.9128,4.9195,4.938,4.9187,4.9104,4.9126,4.9415,4.9485,4.9392,4.923,4.9406,4.9477,4.9641,4.9593,4.9453,4.9447,4.9639,4.9763,4.9773,4.9542,4.973,4.981,4.9864,5.0014,4.996,4.9941,5.0199,5.039,5.0445,5.0412,5.0515,5.0821,5.1006,5.1239,5.1082,5.1194,5.1458,5.1777,5.2006,5.201,5.2119,5.2196,5.2451,5.2639,5.2517,5.2413,5.2403,5.2378,5.241,5.2129,5.1823,5.1708,5.1571,5.1365,5.1052,5.0721,5.048,5.0347,5.0296,5.0017,4.9797,4.9645,4.9698,4.9867,4.9765,4.9561,4.9615,4.9785,4.9794,4.9673,4.9553,4.9579,4.9604,4.9736,4.9688,4.9553,4.9553,4.9732,4.9828,4.981,4.9619,4.9668,4.969,4.9894,4.9871,4.9665,4.9708,4.9879,4.9988,4.9999,4.987,4.9847,4.9862,5.0052,5.004,4.9846,4.9782,4.9814,4.9903,5.0014,4.9849,4.9719,4.974,4.9864,5.0028,4.9885,4.9818,4.9783,4.9949,5,4.9927,4.9816,4.9685,4.9767,4.9869,4.9874,4.9748,4.9736,4.9771,4.9878,4.983,4.9778,4.969,4.9845,4.997,4.9935,4.9818,4.9828,4.9777,4.9905,4.9932,4.9778,4.9665,4.9822,4.9854,4.9824,4.9763,4.9718,4.9829,4.99,4.9815,4.9743,4.9625,4.9709,4.9787,4.9782,4.962,4.9598,4.9667,4.9812,4.9934,4.9754,4.959,4.9637,4.9751,4.9776,4.9686,4.9593,4.9663,4.9771,4.9866,4.9731,4.9566,4.961,4.9734,4.9754,4.9717,4.9696,4.9678,4.9742,4.9935,5.0021,5.0025,5.0099,5.0241,5.0396,5.0582,5.0524,5.0564,5.0561,5.0527,5.0411,5.0213,5.0046,5.0074,5.0057,4.9979,4.9732,4.9632,4.9494,4.9487,4.9601,4.943,4.9294,4.9429,4.9555,4.9544,4.9316,4.9311,4.945,4.9521,4.955,4.936,4.9402,4.9425,4.951,4.9656,4.9452,4.9072,4.8838,4.9291,5.0359,5.1017,5.2259,5.5726,5.743,5.7458,5.7041,5.5775,5.2538,4.9667,4.997,4.9806,4.9649,4.9729,4.9794,4.9899,4.9853,4.9586,4.9517,4.9606,4.9731,4.9707,4.9536,4.9653,4.9791,4.9936,4.9802,4.9702,4.969,4.9869,5.0006,5.0052,4.9948,4.9903,4.9964,5.0064,5.0151,5.004,5.0005,5.0128,5.0234,5.0413,5.0231,5.0176,5.0306,5.0535,5.0646,5.0639,5.0751,5.086,5.0982,5.1191,5.1151,5.1213,5.1467,5.1756,5.1958,5.2062,5.2225,5.2264,5.2539,5.2751,5.2774,5.2656,5.2854,5.315,5.3157,5.2987,5.2763,5.2686,5.2682,5.2593,5.2375,5.192,5.1618,5.136,5.1241,5.11,5.0711,5.0539,5.0404,5.0369,5.0214,5.0056,5.0022,4.9976,5.0128,5.0079,4.9892,4.9837,4.9828,4.9888,4.989,4.9846,4.9784,4.9788,4.9888,4.9982,4.9829,4.9775,4.9799,4.9848,4.9902,4.9739,4.9738,4.9827,4.9946,4.9971,4.9868,4.982,4.9771,4.9859,5.0004,4.99,4.9772,4.977,4.9883,4.99,4.974,4.9701,4.9713,4.9852,5.0002,4.9803,4.9662,4.9579,4.9718,4.9838,4.9733,4.9573,4.9594,4.9589,4.969,4.9646,4.9469,4.9496,4.9459,4.9601,4.9557,4.938,4.9338,4.9368,4.9616,4.9582,4.9329,4.9233,4.9233,4.9371,4.9456,4.9364,4.9224,4.9277,4.9283,4.9281,4.9147,4.9103,4.913,4.9251,4.9278,4.9109,4.8997,4.9116,4.9185,4.9185,4.9014,4.8934,4.887,4.8952,4.9035,4.8937,4.8811,4.8816,4.8835,4.8902,4.8955,4.874,4.8835,4.8853,4.8976,4.8807,4.8803,4.8789,4.8762,4.8876,4.8897,4.8708,4.8753,4.8818,4.892,4.9082,4.9044,4.9059,4.9162,4.927,4.9354,4.9433,4.949,4.9638,4.9827,4.9714,4.9479,4.9284,4.9213,4.9226,4.915,4.892,4.8648,4.8608,4.857,4.8727,4.8669,4.8462,4.8286,4.8356,4.8444,4.8353,4.8324,4.8271,4.8362,4.8423,4.8287,4.8159,4.818,4.827,4.8406,4.8342,4.8207,4.8017,4.7618,4.7873,4.8773,4.99,5.1456,5.4167,5.5669,5.6013,5.5698,5.4152,5.1635,5.0022,4.8914,4.8328,4.8307,4.8163,4.8501,4.8517,4.843,4.8307,4.8459,4.8414,4.8475,4.825,4.8282,4.8294,4.8472,4.8472
