0.73728,0.76172,0.76572,0.75235,0.74497,0.76653,0.78266,0.79101,0.76653,0.76401,0.76884,0.79437,0.80494,0.78566,0.7678,0.78502,0.79447,0.82016,0.81001,0.78726,0.80012,0.83055,0.85331,0.84125,0.82871,0.8493,0.87733,0.90688,0.90236,0.88965,0.90814,0.93671,0.96555,0.95714,0.94422,0.95076,0.97338,0.99871,1.0038,0.9802,0.97115,0.98672,0.99855,0.99214,0.9587,0.94045,0.94519,0.95137,0.93379,0.88139,0.86072,0.86182,0.87146,0.85167,0.83845,0.806,0.80737,0.82912,0.83267,0.80829,0.7926,0.7928,0.8128,0.82791,0.80674,0.78681,0.79273,0.81621,0.83047,0.81486,0.79645,0.80483,0.82818,0.84157,0.83309,0.81053,0.80887,0.82844,0.846,0.84281,0.8202,0.81938,0.83279,0.85156,0.84964,0.81931,0.83238,0.84174,0.86332,0.86114,0.8304,0.83013,0.83367,0.85782,0.85799,0.83563,0.8281,0.83191,0.84904,0.86559,0.83138,0.81483,0.82647,0.84465,0.84903,0.82539,0.80428,0.81463,0.83018,0.83979,0.81557,0.80003,0.80338,0.8088,0.83051,0.81568,0.79366,0.79133,0.80905,0.82011,0.81054,0.78308,0.78598,0.79906,0.814,0.80265,0.77329,0.77402,0.79505,0.80256,0.79881,0.77456,0.76428,0.76503,0.78672,0.79725,0.76754,0.75564,0.77521,0.78455,0.79855,0.78022,0.77001,0.78825,0.82159,0.8256,0.80938,0.80718,0.83174,0.85806,0.89111,0.87552,0.834,0.828,0.83404,0.83723,0.80128,0.76842,0.74633,0.75469,0.74769,0.71587,0.6912,0.69049,0.708,0.71776,0.69687,0.67556,0.67392,0.67907,0.71096,0.69026,0.66153,0.65736,0.66392,0.67922,0.67837,0.65426,0.64507,0.61951,0.61048,0.66905,0.73667,0.85917,1.0378,1.311,1.3658,1.3438,1.2985,1.1963,0.89669,0.62792,0.63335,0.61432,0.62533,0.64897,0.67827,0.64959,0.64305,0.62986,0.65313,0.64659,0.63764,0.62286,0.62549,0.62997,0.65106,0.64324,0.62192,0.62832,0.6337,0.65982,0.64087,0.61945,0.63024,0.6514,0.67138,0.65818,0.63373,0.63478,0.65589,0.67861,0.68198,0.65093,0.66567,0.67836,0.6967,0.71197,0.69864,0.69487,0.72763,0.74998,0.76124,0.75,0.75245,0.76519,0.7955,0.81548,0.78954,0.78826,0.79803,0.83003,0.82585,0.81889,0.79254,0.78352,0.80115,0.80108,0.78069,0.73829,0.72283,0.72076,0.73055,0.69802,0.65358,0.63366,0.63209,0.63923,0.6217,0.58506,0.5767,0.58963,0.59463,0.59787,0.56258,0.54837,0.5566,0.58047,0.58234,0.55969,0.53583,0.54037,0.56418,0.57966,0.53631,0.5356,0.54538,0.56445,0.55925,0.54454,0.5299,0.53918,0.5586,0.5718,0.54744,0.53068,0.53158,0.55411,0.5658,0.54869,0.53201,0.53163,0.54698,0.57424,0.5491,0.52228,0.53422,0.55599,0.56118,0.54855,0.5315,0.52676,0.53476,0.55308,0.53585,0.51176,0.50393,0.52865,0.53399,0.54382,0.50828,0.4924,0.52017,0.52844,0.51562,0.50825,0.48326,0.50455,0.52469,0.51458,0.50041,0.48439,0.47949,0.50377,0.52355,0.50564,0.46597,0.47281,0.49954,0.50901,0.49496,0.47297,0.4595,0.4867,0.51829,0.48114,0.46275,0.48454,0.51482,0.53052,0.53348,0.49691,0.50643,0.52137,0.57403,0.57732,0.56096,0.5518,0.55944,0.56607,0.55773,0.50247,0.48858,0.4873,0.48332,0.45882,0.43745,0.43689,0.43719,0.45101,0.45213,0.42611,0.40263,0.41354,0.4358,0.43744,0.42277,0.39786,0.40076,0.4201,0.43101,0.4071,0.403,0.41162,0.41802,0.36186,0.34209,0.33908,0.43624,0.56568,0.74931,0.96964,1.0595,1.126,1.0904,0.89168,0.59617,0.45114,0.41251,0.41931,0.42142,0.41592,0.40769,0.40373,0.42808,0.43874,0.45195,0.41728,0.4042,0.42301,0.44926,0.45211,0.44156,0.4224,0.43426,0.45855,0.46253,0.44122,0.43178,0.44408,0.47145,0.48557,0.46095,0.44752,0.45284,0.46931,0.48917,0.47706,0.47014,0.47875,0.49519,0.53295,0.51919,0.50606,0.51886,0.53858,0.57084,0.56615,0.55095,0.57221,0.59921,0.61681,0.62597,0.60378,0.60596,0.61348,0.63536,0.6458,0.63149,0.62435,0.62486,0.63783,0.62761,0.58209,0.56552,0.57761,0.58394,0.57377,0.5176,0.49723,0.49576,0.50409,0.49958,0.46948,0.4421,0.4482,0.46276,0.47148,0.45065,0.4246,0.43778,0.44528,0.46211,0.43868,0.41788,0.41216,0.43733,0.45198,0.43432,0.42475,0.43267,0.44353,0.46532,0.47837,0.44569,0.44005,0.45646,0.48014,0.47512,0.45605,0.44228,0.47312,0.49013,0.49177,0.47219,0.46733,0.48876,0.50523,0.50084,0.47675,0.47131,0.47803,0.49108,0.50082,0.47671,0.46452,0.47365,0.48405,0.49404,0.47463,0.45413,0.4623,0.47321,0.4804,0.45109,0.4439,0.44998,0.4711,0.48132,0.47014,0.43678,0.42773,0.45432,0.46558,0.45854,0.42834,0.43593,0.45678,0.48024,0.45369,0.42557,0.4294,0.44607,0.47326,0.45875,0.42809,0.4384,0.44932,0.45537,0.47361,0.45476,0.46022,0.47137,0.50069,0.51637,0.49464,0.49123,0.51693,0.56661,0.5905,0.55124,0.53165,0.53737,0.54607,0.53013,0.48141,0.46925,0.46418,0.47136,0.47024,0.44961,0.42409,0.42387,0.43594,0.45263,0.44216,0.42757,0.42701,0.43973,0.44972,0.43427,0.41012,0.42845,0.45814,0.46036,0.46396,0.44028,0.42255,0.40363,0.4111,0.48471,0.56039,0.6775,0.87846,1.1337,1.197,1.1687,1.0918,0.86256,0.53087,0.46545,0.46356,0.44421,0.47765,0.48555,0.51066,0.4761,0.47463,0.46781,0.50992,0.50079,0.50331,0.47493,0.47648,0.48968,0.50189,0.47539,0.46916,0.47463,0.50242,0.52116,0.51294,0.48873,0.48614,0.50413,0.5232,0.52497,0.50777,0.506,0.52163,0.54609,0.55615,0.54387,0.54186,0.55498,0.60131,0.59992,0.57992,0.58256,0.60642,0.63498,0.65208,0.64329,0.63917,0.65913,0.6871,0.70397,0.68951,0.68781,0.68997,0.71724,0.72735,0.70376,0.68323,0.69351,0.70076,0.70424,0.65846,0.62817,0.62851,0.62659,0.63018,0.59078,0.55779,0.54758,0.54831,0.55453,0.53643,0.50692,0.50093,0.51804,0.52322,0.51384,0.49284,0.49774,0.50455,0.52526,0.50926,0.49437,0.49114,0.49766,0.52268,0.52462,0.50141,0.49263,0.5058,0.52977,0.55013,0.522,0.51049,0.52745,0.54651,0.55424,0.53767,0.52155,0.53584,0.55958,0.56684,0.55071,0.53873,0.54359,0.54832,0.57862,0.56067,0.54053,0.54318,0.57348,0.57751,0.56092,0.53719,0.5459,0.56149,0.58399,0.55639,0.5353,0.53508,0.54647,0.5692,0.56368,0.52805,0.51867,0.52831,0.54423,0.54972,0.51854,0.51323,0.52209,0.53845,0.53626,0.50945,0.4967,0.51114,0.5295,0.52164,0.50113,0.50061,0.50883,0.51709,0.53677,0.51636,0.49397,0.49992,0.52619,0.54733,0.54404,0.52967,0.54339,0.57363,0.59148,0.58309,0.57701,0.60861,0.63203,0.64165,0.6086,0.5781,0.5648,0.56168,0.56233,0.54356,0.49958,0.48284,0.48349,0.49021,0.48656,0.44681,0.43877,0.45948,0.48203,0.47566,0.4429,0.43529,0.44526,0.46555,0.4576,0.44413,0.42588,0.43944,0.45546,0.46288,0.43258,0.37726,0.37642,0.46154,0.58573,0.69703,0.86724,1.0998,1.1582,1.1349,1.0456,0.77652,0.4275,0.41214,0.4451,0.42108,0.41295,0.40996,0.43615,0.43836,0.44372,0.39555,0.40464,0.41604,0.4397,0.41951,0.39999,0.38826,0.40724,0.43135,0.43393,0.39431,0.40144,0.40149,0.43048,0.43581,0.41045,0.39451,0.41416,0.43317,0.44189,0.41406,0.40498,0.41521,0.44207,0.45476,0.43809,0.42968,0.44603,0.46917,0.49523,0.47013,0.46717,0.4855,0.50164,0.53493,0.53994,0.53225,0.54056,0.5757,0.5941,0.58277,0.55966,0.57413,0.57897,0.58606,0.57428,0.54705,0.54703,0.54946,0.55342,0.54029,0.48621,0.45597,0.4431,0.44033,0.43357,0.39262,0.36469,0.36513,0.37313,0.37487,0.33867,0.32361,0.33242,0.34587,0.34603,0.32113,0.30171,0.31054,0.32515,0.34313,0.32714,0.29247,0.29938,0.32755,0.33018,0.31371,0.28415,0.29427,0.3126,0.3393,0.32002,0.28918,0.30881,0.30523,0.32795,0.30921,0.29441,0.28975,0.29776,0.32183,0.30873,0.29099,0.28642,0.29175,0.30659,0.32064,0.28151,0.27698,0.28185,0.30793,0.29698,0.27068,0.2605,0.2733,0.29285,0.30231,0.26688,0.24011,0.25335,0.27358,0.27489,0.25778,0.23284,0.24839,0.25488,0.25803,0.23743,0.22512,0.23557,0.25231,0.25783,0.22875,0.20799,0.21661,0.22533,0.24721,0.23625,0.22007,0.2197,0.25099,0.26614,0.27803,0.2424,0.24671,0.28323,0.31639,0.33364,0.30788,0.29159,0.28766,0.29523,0.26918,0.24143,0.2279,0.20465,0.21392,0.22027,0.18238,0.16054,0.16885,0.16867,0.17398,0.15428,0.13506,0.16083,0.1619,0.1586,0.13487,0.12814,0.13429,0.14993,0.15044,0.1538,0.12061,0.12637,0.11811,0.084221,0.083915,0.13125,0.22666,0.38303,0.63593,0.78203,0.83109,0.82703,0.66585,0.39696,0.16403,0.13225,0.095585,0.10144,0.11332,0.1311,0.10955,0.094993,0.10893,0.1265,0.13082,0.097824,0.087918,0.11341,0.12594,0.12189,0.10349,0.10109,0.12932,0.14629,0.12299,0.097915,0.10042,0.10734,0.13467,0.14863,0.136,0.11208,0.12272,0.14162,0.15823,0.14681,0.12777,0.14495,0.16656,0.19497,0.18573,0.16576,0.17337,0.20459,0.2294,0.23009,0.22178,0.22797,0.25027,0.27241,0.28815,0.27011,0.25741,0.28853,0.30376,0.30853,0.27539,0.26921,0.28038,0.29443,0.27716,0.2355,0.21561,0.218,0.22348,0.21451,0.17699,0.13133,0.13275,0.14381,0.14799,0.1123,0.081691,0.081847,0.096857,0.11404,0.08931,0.061261,0.064994,0.083484,0.092161,0.075333,0.05702,0.061861,0.067314,0.090524,0.0949,0.066871,0.058575,0.079332,0.098453,0.095279,0.078074,0.07607,0.09804,0.12061,0.10702,0.073077,0.069702,0.092873,0.12788,0.12599,0.097849,0.090689,0.10133,0.11377,0.13677,0.11247,0.1017,0.10451,0.12029,0.13697,0.10425,0.10192,0.10806,0.10732,0.13275,0.10695,0.096326,0.10767,0.12189,0.11449,0.1094,0.079063,0.084299,0.09774,0.1207,0.11005,0.081834,0.077999,0.098541,0.11577,0.10351,0.073292,0.072586,0.088124,0.11142,0.10582,0.092359,0.1108,0.13209,0.14835,0.15472,0.12961,0.12841,0.17267,0.22164,0.23349,0.18834,0.16356,0.16834,0.17063,0.15832,0.12107,0.097025,0.092756,0.092962,0.083946,0.051423,0.043451,0.04919,0.068402,0.076424,0.05692,0.02917,0.031567,0.042964,0.062767,0.046397,0.024878,0.024172,0.044241,0.057828,0.043946,0.024217,0.014681,-0.0038832,0.015775,0.080212,0.11516,0.23278,0.42663,0.69601,0.78337,0.75681,0.69461,0.49481,0.15811,0.054506,0.047309,0.025482,0.053403,0.073241,0.083842,0.044754,0.053488,0.06523,0.088528,0.089864,0.075941,0.046744,0.063404,0.076785,0.099842,0.079593,0.067505,0.067563,0.096065,0.10712,0.10486,0.086749,0.092178,0.10792,0.1271,0.10761,0.10511,0.10344,0.12036,0.15034,0.15367,0.12307,0.13148,0.15829,0.19191,0.18911,0.1773,0.18866,0.21337,0.24393,0.25357,0.2399,0.25648,0.28303,0.31041,0.31013,0.29954,0.29358,0.31166,0.33731,0.34571,0.32422,0.30648,0.30659,0.31429,0.31149,0.2756,0.24615,0.23802,0.24117,0.23428,0.19541,0.15497,0.15916,0.16857,0.17412,0.1542,0.12691,0.11736,0.13982,0.15365,0.14198,0.11678,0.11226,0.1263,0.15131,0.13963,0.11567,0.11436,0.12935,0.14835,0.14288,0.11532,0.13022,0.13639,0.15501,0.15898,0.1452,0.1331,0.14772,0.16482,0.18274,0.14333,0.15686,0.16453,0.18763,0.20056,0.1681,0.15861,0.17745,0.19174,0.20538,0.18057,0.17173,0.18121,0.19804,0.20652,0.19131,0.17118,0.17214,0.19745,0.20543,0.18701,0.1594,0.16849,0.176,0.20093,0.18124,0.16299,0.16165,0.17812,0.19231,0.18709,0.15607,0.1553,0.16413,0.18606,0.18263,0.15436,0.14975,0.15993,0.18042,0.18606,0.1508,0.14602,0.15765,0.17929,0.18473,0.16092,0.15811,0.1716,0.18515,0.20251,0.19918,0.1852,0.20649,0.24006,0.25132,0.23997,0.23138,0.26557,0.30066,0.31316,0.2779,0.25386,0.24481,0.24358,0.23869,0.20504,0.18197,0.17807,0.17784,0.18463,0.17186,0.13637,0.13747,0.14574,0.16889,0.16004,0.12811,0.12868,0.14596,0.16228,0.1588,0.12429,0.12871,0.13944,0.15798,0.1583,0.13949,0.11379,0.08793,0.11321,0.20911,0.30466,0.43625,0.65505,0.85699,0.88318,0.81741,0.70867,0.40517,0.11863,0.1494,0.14905,0.13187,0.16502,0.17898,0.19062,0.18009,0.15314,0.14873,0.1619,0.17786,0.18179,0.14947,0.1563,0.17043,0.19233,0.18684,0.1688,0.16207,0.19236,0.19324,0.19898,0.16705,0.17366,0.18044,0.20063,0.21529,0.19449,0.18296,0.2048,0.22492,0.23419,0.21488,0.21113,0.2284,0.26048,0.27397,0.26426,0.2569,0.27821,0.31431,0.33421,0.31836,0.31057,0.32939,0.35664,0.3898,0.38406,0.361,0.36767,0.38894,0.39988,0.38466,0.3571,0.34913,0.35891,0.36295,0.3274,0.28284,0.2668,0.2647,0.25675,0.24296,0.18277,0.16771,0.16298,0.1729,0.17122,0.13673,0.1132,0.12492,0.14099,0.14088,0.10905,0.089782,0.10361,0.12076,0.11654,0.088923,0.082226,0.092142,0.10162,0.11248,0.10112,0.070791,0.081474,0.10306,0.11234,0.098426,0.07393,0.07988,0.098479,0.11177,0.092593,0.0687,0.063491,0.078901,0.10271,0.084452,0.058459,0.057175,0.073963,0.095981,0.093807,0.069573,0.062347,0.082591,0.095057,0.092394,0.051483,0.052344,0.062778,0.087917,0.0871,0.056506,0.052178,0.069308,0.079656,0.067066,0.05475,0.040153,0.046644,0.059785,0.065805,0.042452,0.025554,0.04056,0.053516,0.057461,0.036126,0.024294,0.033049,0.045896,0.052116,0.020997,0.0030589,0.0088606,0.028148,0.035515,0.030702,0.015694,0.0095574,0.0098588,0.025705,0.023153,0.003479,0.0064265,0.022778,0.045699,0.051166,0.029204,0.040337,0.071598,0.085948,0.098203,0.092283,0.094378,0.098668,0.11339,0.10982,0.061079,0.04041,0.035176,0.034762,0.038867,-0.0015043,-0.0096203,-0.01296,-0.0053349,0.00015508,-0.021601,-0.039622,-0.044915,-0.021099,-0.010226,-0.018186,-0.062395,-0.063047,-0.040783,-0.029598,-0.034489,-0.05363,-0.05117,-0.053683,-0.039334,-0.05652,-0.12201,-0.12488,-0.044926,0.081761,0.21095,0.40432,0.57465,0.65832,0.68109,0.63416,0.40596,0.063159,-0.05866,-0.028687,-0.045701,-0.086402,-0.072588,-0.048502,-0.03899,-0.041341,-0.072902,-0.068478,-0.060782,-0.041297,-0.043796,-0.068283,-0.079204,-0.07404,-0.07157,-0.043256,-0.057114,-0.085242,-0.073106,-0.048689,-0.028196,-0.044065,-0.057066,-0.051392,-0.033496,-0.029172,-0.044007,-0.056306,-0.043829,-0.018589,0.0027469,-0.0034068,-0.012234,-0.018362,0.0030976,0.030496,0.041987,0.027168,0.033567,0.057775,0.089541,0.10282,0.081671,0.086016,0.10981,0.13812,0.14203,0.11591,0.11355,0.12811,0.13873,0.13656,0.11669,0.10394,0.097071,0.096195,0.082637,0.045789,0.010618,-0.00012565,0.00041345,0.0012675,-0.037653,-0.069268,-0.071404,-0.061239,-0.0506,-0.071427,-0.10062,-0.097582,-0.087229,-0.068521,-0.070254,-0.10294,-0.10663,-0.096512,-0.073165,-0.082823,-0.10694,-0.11741,-0.097568,-0.077795,-0.088221,-0.10844,-0.09986,-0.084921,-0.066606,-0.072478,-0.090727,-0.091716,-0.086217,-0.064659,-0.049003,-0.080959,-0.09163,-0.070636,-0.051088,-0.03989,-0.064301,-0.075525,-0.06682,-0.041186,-0.033624,-0.052549,-0.06213,-0.062222,-0.036601,-0.033142,-0.044805,-0.071214,-0.074076,-0.054343,-0.036328,-0.046778,-0.082675,-0.083746,-0.05787,-0.039066,-0.056412,-0.088965,-0.082517,-0.063325,-0.03578,-0.052762,-0.084798,-0.088311,-0.071202,-0.062442,-0.055565,-0.080073,-0.095059,-0.077406,-0.065736,-0.058258,-0.090083,-0.095096,-0.087955,-0.065746,-0.063172,-0.091764,-0.093267,-0.076938,-0.061244,-0.05838,-0.066544,-0.05771,-0.044916,-0.016576,0.00036363,-0.0055887,-0.0080364,0.022438,0.037655,0.043927,0.014643,-0.019929,-0.027457,-0.018196,-0.024176,-0.050419,-0.083068,-0.087949,-0.07271,-0.067493,-0.086553,-0.1035,-0.11431,-0.10292,-0.092208,-0.084463,-0.11243,-0.12305,-0.11028,-0.09169,-0.085775,-0.11793,-0.12489,-0.10805,-0.086201,-0.089075,-0.12273,-0.1579,-0.16469,-0.099165,-0.048476,0.035586,0.16489,0.40199,0.59548,0.64409,0.60154,0.44552,0.14121,-0.11392,-0.08558,-0.1085,-0.12394,-0.097013,-0.071007,-0.066933,-0.086644,-0.10176,-0.092637,-0.085583,-0.059703,-0.071188,-0.10002,-0.10174,-0.073085,-0.050694,-0.057889,-0.082772,-0.079932,-0.061028,-0.046861,-0.043345,-0.060774,-0.058444,-0.043896,-0.021026,-0.019802,-0.038613,-0.042933,-0.028539,-0.0038467,0.012656,-0.01303,-0.014348,0.0079961,0.038954,0.059771,0.051037,0.039978,0.062021,0.099495,0.11913,0.11538,0.10583,0.13382,0.16381,0.1755,0.17942,0.16129,0.16982,0.19084,0.20311,0.1974,0.16853,0.16163,0.1657,0.16567,0.14277,0.099561,0.079675,0.075713,0.078449,0.05637,0.015057,0.0059587,0.0039622,0.015306,0.0097293,-0.021458,-0.038513,-0.0252,-0.0093193,-0.0028621,-0.032251,-0.03872,-0.022825,-0.009325,-0.0010599,-0.031825,-0.042712,-0.035528,-0.0046649,-0.00020505,-0.028904,-0.039086,-0.028329,-0.0084927,0.0045109,-0.00093257,-0.023692,-0.020455,0.0040912,0.024057,0.0041467,-0.020335,-0.015859,0.013918,0.026926,0.01949,0.0014396,-0.00028804,0.022561,0.03539,0.037709,0.0070305,0.006869,0.012635,0.037362,0.036987,0.021234,0.01209,0.027268,0.040225,0.034093,0.0056772,-0.0072999,0.0085835,0.029313,0.026257,-0.005968,-0.0055562,0.00030016,0.011029,0.025838,0.008623,-0.0090187,-0.0042039,0.013543,0.021738,0.0041327,-0.01954,-0.021485,0.001831,0.016816,-0.00083482,-0.021488,-0.013174,-0.0014232,0.023426,0.00012829,-0.026019,-0.020954,-0.0047482,0.015649,0.0075391,-0.025415,-0.031905,-0.012443,0.0090197,0.005497,-0.028006,-0.029913,-0.013525,0.00083246,0.0036428,-0.027942,-0.027616,-0.013839,0.0044139,0.00012702,-0.011382,-0.002558,0.012778,0.054177,0.063992,0.054334,0.052374,0.082329,0.10526,0.10852,0.080549,0.046872,0.03848,0.053792,0.044046,0.010178,-0.012578,-0.014897,-0.010257,-0.0075128,-0.019732,-0.05519,-0.055496,-0.037661,-0.023339,-0.030748,-0.05839,-0.057684,-0.050154,-0.027028,-0.038655,-0.064168,-0.064162,-0.047316,-0.030471,-0.036816,-0.0667,-0.087085,-0.097298,-0.080933,0.0035802,0.096365,0.22158,0.42153,0.65768,0.68537,0.61307,0.53435,0.26749,-0.060895,-0.061637,-0.059159,-0.082945,-0.052947,-0.038419,-0.033328,-0.063492,-0.061412,-0.07061,-0.046526,-0.04238,-0.044261,-0.080399,-0.073987,-0.064961,-0.037469,-0.057377,-0.079301,-0.087589,-0.052802,-0.044322,-0.053046,-0.080227,-0.068544,-0.056271,-0.038525,-0.042797,-0.072095,-0.078593,-0.06308,-0.04881,-0.047491,-0.057121,-0.064694,-0.04074,-0.012425,0.0048258,-0.024983,-0.016644,-0.0061621,0.014225,0.037867,0.026743,0.027923,0.055347,0.077243,0.10225,0.095018,0.065649,0.069447,0.09395,0.1077,0.099852,0.07564,0.07237,0.077726,0.073366,0.042343,0.0002872,-0.016694,-0.022975,-0.028736,-0.071269,-0.12167,-0.12002,-0.12489,-0.11369,-0.12209,-0.17066,-0.18584,-0.17989,-0.16408,-0.16657,-0.20071,-0.20847,-0.20525,-0.18544,-0.18172,-0.2167,-0.22439,-0.20925,-0.19566,-0.20283,-0.22699,-0.23994,-0.23663,-0.21029,-0.20544,-0.21693,-0.23849,-0.23629,-0.22555,-0.21132,-0.21702,-0.24414,-0.2422,-0.21931,-0.21319,-0.2359,-0.26575,-0.2624,-0.24312,-0.22476,-0.23125,-0.25499,-0.26138,-0.25414,-0.24507,-0.23975,-0.27497,-0.28316,-0.26796,-0.24898,-0.25971,-0.29568,-0.29381,-0.28401,-0.27317,-0.28351,-0.31917,-0.32609,-0.33285,-0.3036,-0.29839,-0.32414,-0.35037,-0.34774,-0.33369,-0.31428,-0.33865,-0.36529,-0.36798,-0.35149,-0.34307,-0.37209,-0.39142,-0.37665,-0.36415,-0.3692,-0.40511,-0.41998,-0.42047,-0.39359,-0.38053,-0.406,-0.43371,-0.43652,-0.41229,-0.408,-0.42532,-0.44115,-0.45229,-0.45164,-0.44502,-0.43881,-0.46405,-0.45954,-0.4337,-0.41335,-0.40858,-0.44466,-0.44386,-0.42971,-0.40666,-0.37664,-0.37658,-0.41307,-0.41565,-0.41509,-0.40934,-0.46767,-0.49303,-0.50319,-0.48309,-0.49232,-0.53097,-0.57208,-0.57446,-0.55043,-0.52918,-0.56063,-0.58549,-0.58589,-0.58319,-0.57822,-0.59356,-0.6092,-0.61482,-0.60175,-0.58738,-0.61302,-0.63123,-0.62795,-0.62195,-0.62506,-0.68678,-0.71457,-0.67861,-0.58554,-0.43843,-0.24579,-0.058379,0.015016,0.06501,-0.0071633,-0.24577,-0.56293,-0.64582,-0.64763,-0.65463,-0.65969,-0.67845,-0.67722,-0.66753,-0.65601,-0.651,-0.65945,-0.69193,-0.68703,-0.67101,-0.65188,-0.6775,-0.70473,-0.69718,-0.67334,-0.66153,-0.67953,-0.70304,-0.69039,-0.67832,-0.66407,-0.69333,-0.71759,-0.70476,-0.69415,-0.67379,-0.67421,-0.69878,-0.69391,-0.68399,-0.65811,-0.66148,-0.67931,-0.68264,-0.64181,-0.61453,-0.60984,-0.63377,-0.632,-0.60524,-0.57148,-0.55739,-0.5846,-0.58499,-0.56323,-0.54593,-0.54172,-0.56566,-0.58008,-0.56474,-0.55508,-0.55657,-0.57807,-0.60245,-0.60911,-0.614,-0.62951,-0.67149,-0.70298,-0.70981,-0.70713,-0.7199,-0.73437,-0.77463,-0.78115,-0.77348,-0.76912,-0.78306,-0.81079,-0.81654,-0.79756,-0.78545,-0.79522,-0.82756,-0.83567,-0.81518,-0.79444,-0.80108,-0.83013,-0.82729,-0.81756,-0.80643,-0.80267,-0.82171,-0.82896,-0.81593,-0.79329,-0.78173,-0.80332,-0.81621,-0.80194,-0.78367,-0.76945,-0.78817,-0.79785,-0.78232,-0.75782,-0.74757,-0.7766,-0.78228,-0.77942,-0.75669,-0.74828,-0.75475,-0.77247,-0.76537,-0.75119,-0.74103,-0.75851,-0.78217,-0.77904,-0.76034,-0.74086,-0.75174,-0.77422,-0.77586,-0.76085,-0.74165,-0.75528,-0.774,-0.78112,-0.77071,-0.75163,-0.7516,-0.77307,-0.78085,-0.76614,-0.75171,-0.74963,-0.77807,-0.78463,-0.77512,-0.7534,-0.7517,-0.77758,-0.78666,-0.76935,-0.74505,-0.73458,-0.74914,-0.77384,-0.77062,-0.75165,-0.73727,-0.74758,-0.77393,-0.76732,-0.74977,-0.72352,-0.746,-0.76817,-0.75108,-0.72982,-0.71561,-0.73188,-0.74822,-0.72895,-0.71304,-0.67902,-0.66629,-0.68779,-0.68226,-0.65154,-0.60424,-0.59132,-0.63706,-0.64842,-0.63476,-0.62534,-0.6333,-0.67982,-0.70162,-0.68958,-0.6756,-0.68917,-0.72176,-0.7325,-0.72933,-0.71862,-0.70861,-0.72422,-0.73691,-0.73085,-0.71861,-0.70517,-0.72199,-0.74086,-0.72903,-0.70655,-0.69078,-0.7219,-0.72982,-0.7252,-0.71697,-0.73882,-0.74373,-0.70898,-0.60986,-0.45683,-0.26191,-0.022787,0.0031439,-0.016688,-0.049755,-0.25132,-0.62902,-0.73003,-0.69959,-0.6921,-0.64448,-0.64525,-0.66276,-0.67093,-0.63535,-0.63443,-0.61605,-0.6464,-0.65105,-0.63454,-0.60906,-0.60047,-0.61288,-0.62785,-0.60831,-0.57917,-0.56316,-0.58738,-0.59176,-0.58275,-0.54834,-0.53896,-0.55766,-0.57103,-0.5563,-0.53834,-0.51178,-0.51584,-0.53343,-0.52148,-0.49017,-0.46787,-0.46089,-0.47441,-0.45857,-0.4233,-0.39549,-0.3998,-0.41441,-0.39088,-0.35631,-0.32315,-0.31647,-0.33001,-0.32386,-0.30639,-0.27334,-0.26552,-0.2813,-0.28715,-0.28379,-0.2635,-0.26679,-0.30549,-0.32741,-0.33321,-0.33026,-0.35139,-0.39644,-0.41671,-0.4266,-0.42109,-0.41858,-0.45109,-0.47758,-0.47587,-0.46279,-0.4536,-0.47056,-0.48645,-0.48253,-0.46451,-0.44635,-0.45594,-0.48458,-0.47567,-0.45349,-0.43483,-0.45379,-0.47628,-0.47148,-0.45468,-0.4268,-0.4254,-0.4505,-0.44992,-0.42827,-0.41677,-0.40598,-0.4347,-0.4349,-0.41585,-0.39941,-0.3954,-0.41931,-0.4191,-0.40505,-0.37671,-0.37322,-0.38793,-0.40794,-0.39778,-0.3771,-0.36256,-0.37854,-0.39577,-0.38761,-0.37221,-0.35409,-0.37404,-0.39015,-0.38045,-0.36053,-0.34819,-0.3674,-0.38913,-0.38181,-0.35868,-0.35012,-0.3564,-0.38218,-0.38579,-0.36809,-0.35124,-0.35383,-0.38128,-0.38258,-0.36625,-0.35381,-0.35493,-0.38665,-0.38606,-0.37388,-0.35004,-0.3558,-0.38682,-0.38934,-0.38097,-0.35935,-0.35209,-0.37383,-0.38949,-0.38081,-0.35803,-0.35016,-0.36792,-0.39078,-0.37738,-0.35735,-0.3421,-0.3651,-0.37826,-0.37218,-0.34883,-0.34301,-0.3671,-0.38128,-0.37507,-0.35519,-0.33515,-0.34182,-0.36543,-0.36439,-0.33134,-0.30144,-0.29408,-0.31842,-0.31378,-0.27544,-0.23395,-0.22311,-0.2604,-0.27209,-0.26584,-0.26298,-0.26837,-0.30767,-0.33566,-0.33399,-0.3266,-0.32546,-0.36366,-0.39599,-0.38605,-0.36386,-0.35749,-0.38711,-0.40164,-0.38481,-0.37191,-0.36656,-0.39285,-0.39783,-0.39333,-0.38738,-0.36937,-0.37889,-0.40377,-0.39956,-0.3944,-0.41296,-0.42699,-0.36624,-0.25295,-0.097803,0.11211,0.29655,0.29259,0.25741,0.21336,-0.053,-0.41118,-0.43764,-0.41928,-0.41649,-0.37814,-0.37294,-0.39048,-0.41201,-0.39284,-0.38524,-0.37074,-0.41191,-0.41915,-0.41484,-0.38565,-0.38086,-0.40377,-0.41168,-0.39559,-0.38022,-0.36834,-0.38712,-0.3987,-0.39656,-0.36924,-0.35907,-0.37099,-0.39014,-0.38314,-0.36065,-0.33987,-0.36424,-0.37647,-0.36287,-0.33644,-0.31677,-0.32646,-0.33791,-0.32111,-0.29644,-0.27567,-0.27004,-0.27807,-0.26988,-0.23961,-0.20818,-0.19653,-0.22751,-0.2189,-0.19272,-0.16105,-0.15404,-0.18781,-0.18992,-0.17763,-0.1557,-0.1714,-0.21564,-0.22744,-0.23284,-0.23458,-0.23955,-0.28422,-0.32382,-0.33211,-0.33409,-0.34047,-0.37927,-0.39872,-0.3982,-0.39154,-0.38287,-0.40878,-0.43093,-0.42732,-0.41237,-0.40591,-0.41604,-0.43992,-0.45266,-0.43625,-0.41314,-0.42142,-0.44846,-0.45666,-0.42464,-0.42097,-0.4174,-0.44193,-0.44442,-0.42496,-0.41536,-0.41313,-0.43788,-0.44394,-0.41718,-0.41136,-0.41228,-0.42884,-0.44222,-0.44578,-0.4148,-0.40718,-0.417,-0.43949,-0.44129,-0.41828,-0.40771,-0.42599,-0.42949,-0.4281,-0.40606,-0.4025,-0.44077,-0.4509,-0.43137,-0.42234,-0.41594,-0.43327,-0.44846,-0.45147,-0.43331,-0.42182,-0.44059,-0.46412,-0.46714,-0.4449,-0.42527,-0.44186,-0.46683,-0.47136,-0.44888,-0.42754,-0.44568,-0.47159,-0.47631,-0.46712,-0.44994,-0.45113,-0.47857,-0.48154,-0.4643,-0.44826,-0.45164,-0.47835,-0.48532,-0.46709,-0.43975,-0.44563,-0.47838,-0.4857,-0.47837,-0.45358,-0.4459,-0.4549,-0.48783,-0.4863,-0.46496,-0.44797,-0.4654,-0.47113,-0.45707,-0.42707,-0.40467,-0.40816,-0.42989,-0.39942,-0.35658,-0.33267,-0.35641,-0.38501,-0.39137,-0.38359,-0.37663,-0.39051,-0.43942,-0.46352,-0.44785,-0.43709,-0.44319,-0.48455,-0.49435,-0.48159,-0.45949,-0.47115,-0.4875,-0.4979,-0.48869,-0.4594,-0.46976,-0.50162,-0.50476,-0.49671,-0.47232,-0.45913,-0.4779,-0.50126,-0.50147,-0.52375,-0.52687,-0.49017,-0.41453,-0.28668,-0.067455,0.15325,0.19747,0.20026,0.12161,-0.090661,-0.37711,-0.44305,-0.46964,-0.49585,-0.46592,-0.44771,-0.43369,-0.4757,-0.47158,-0.45726,-0.43154,-0.44082,-0.46482,-0.46714,-0.44753,-0.42839,-0.42179,-0.45379,-0.44791,-0.43311,-0.41803,-0.41093,-0.42182,-0.44163,-0.42575,-0.40791,-0.3902,-0.41364,-0.41724,-0.40615,-0.38334,-0.36984,-0.38601,-0.38994,-0.3734,-0.3531,-0.32752,-0.34185,-0.3404,-0.33741,-0.3121,-0.28035,-0.27246,-0.28626,-0.27437,-0.24723,-0.21848,-0.20927,-0.22662,-0.22153,-0.20125,-0.17822,-0.19068,-0.21237,-0.21402,-0.19234,-0.18617,-0.20625,-0.23472,-0.25683,-0.27384,-0.26461,-0.27883,-0.32485,-0.35564,-0.36128,-0.35887,-0.35707,-0.39416,-0.41418,-0.4057,-0.3871,-0.38877,-0.41117,-0.42633,-0.41615,-0.39656,-0.38126,-0.40666,-0.42834,-0.42573,-0.40495,-0.39592,-0.40699,-0.42755,-0.42077,-0.40424,-0.38704,-0.39486,-0.41246,-0.40868,-0.38696,-0.37555,-0.38495,-0.4051,-0.39876,-0.39401,-0.37292,-0.36589,-0.38422,-0.39358,-0.37242,-0.35397,-0.34844,-0.37384,-0.37495,-0.36903,-0.34188,-0.34064,-0.37384,-0.38069,-0.36239,-0.34513,-0.34423,-0.37511,-0.38438,-0.37488,-0.36308,-0.34336,-0.36089,-0.38128,-0.38492,-0.36027,-0.34667,-0.3671,-0.38197,-0.38254,-0.36086,-0.34932,-0.36569,-0.38278,-0.3842,-0.36924,-0.35394,-0.35948,-0.38618,-0.38583,-0.37199,-0.35645,-0.35278,-0.38382,-0.3843,-0.37044,-0.35059,-0.35258,-0.38438,-0.39162,-0.37179,-0.35197,-0.3543,-0.38196,-0.38808,-0.37081,-0.35868,-0.34748,-0.36965,-0.38381,-0.37777,-0.35564,-0.34782,-0.36401,-0.38572,-0.37468,-0.35496,-0.34749,-0.36327,-0.37618,-0.36565,-0.35487,-0.33383,-0.33892,-0.33839,-0.32873,-0.30058,-0.27579,-0.27646,-0.27768,-0.26232,-0.23099,-0.23,-0.24214,-0.28989,-0.29245,-0.28597,-0.2886,-0.30268,-0.34782,-0.35344,-0.34375,-0.34436,-0.35255,-0.37249,-0.38535,-0.37803,-0.35972,-0.3521,-0.37621,-0.39307,-0.3758,-0.35573,-0.34763,-0.37129,-0.38616,-0.3777,-0.35355,-0.34781,-0.37593,-0.42262,-0.41426,-0.32774,-0.26213,-0.15231,-0.028626,0.19902,0.323,0.33025,0.28858,0.13778,-0.20531,-0.41383,-0.3439,-0.36016,-0.36742,-0.36111,-0.32623,-0.32568,-0.32942,-0.36332,-0.35191,-0.35315,-0.33153,-0.3275,-0.34697,-0.3615,-0.34313,-0.31956,-0.30038,-0.337,-0.33894,-0.33044,-0.29781,-0.29634,-0.31535,-0.32368,-0.30419,-0.28542,-0.27523,-0.2978,-0.30805,-0.29997,-0.26869,-0.24771,-0.25529,-0.27147,-0.25288,-0.23122,-0.20858,-0.20549,-0.21934,-0.20193,-0.17084,-0.13614,-0.14311,-0.14952,-0.13566,-0.09699,-0.073163,-0.071943,-0.09467,-0.093446,-0.077893,-0.047473,-0.050301,-0.079385,-0.08991,-0.079382,-0.077367,-0.091776,-0.13702,-0.16429,-0.17074,-0.1739,-0.19729,-0.24004,-0.26206,-0.26142,-0.26213,-0.25147,-0.28205,-0.30644,-0.30164,-0.28753,-0.27597,-0.29337,-0.32204,-0.30848,-0.29521,-0.27911,-0.29628,-0.31952,-0.31289,-0.2881,-0.28203,-0.29614,-0.31832,-0.30757,-0.29795,-0.27339,-0.27825,-0.3005,-0.30725,-0.2881,-0.26579,-0.26923,-0.29961,-0.30086,-0.28576,-0.26637,-0.26852,-0.2956,-0.29927,-0.2777,-0.26526,-0.26055,-0.28044,-0.29608,-0.29111,-0.27135,-0.27017,-0.29003,-0.30237,-0.29565,-0.27434,-0.26762,-0.29951,-0.3094,-0.30486,-0.29724,-0.2908,-0.30903,-0.32782,-0.32204,-0.31043,-0.29484,-0.30917,-0.33531,-0.33861,-0.32374,-0.31176,-0.32643,-0.35501,-0.35726,-0.34396,-0.32657,-0.34006,-0.37056,-0.36863,-0.35238,-0.34633,-0.35764,-0.38112,-0.38985,-0.38265,-0.36747,-0.36923,-0.39402,-0.41044,-0.4026,-0.39516,-0.38299,-0.41209,-0.42253,-0.41146,-0.39765,-0.39763,-0.43172,-0.4384,-0.42758,-0.41053,-0.41493,-0.42165,-0.4382,-0.43809,-0.4236,-0.39354,-0.39914,-0.41013,-0.3966,-0.37694,-0.34847,-0.33785,-0.35585,-0.36532,-0.34721,-0.34827,-0.37506,-0.41764,-0.43759,-0.42662,-0.42182,-0.429,-0.46614,-0.49381,-0.49739,-0.47402,-0.47564,-0.50617,-0.51705,-0.50619,-0.48781,-0.48712,-0.5168,-0.52712,-0.51137,-0.49494,-0.49671,-0.52494,-0.53657,-0.53048,-0.50694,-0.50418,-0.5709,-0.57764,-0.48999,-0.35642,-0.19771,0.022828,0.13786,0.1724,0.15969,0.049447,-0.28866,-0.55939,-0.53301,-0.52191,-0.51798,-0.51271,-0.52882,-0.53178,-0.51641,-0.48895,-0.49518,-0.51913,-0.5368,-0.52514,-0.49907,-0.50095,-0.53098,-0.52865,-0.51684,-0.48981,-0.48283,-0.51567,-0.51951,-0.50576,-0.49273,-0.48062,-0.49199,-0.50653,-0.49379,-0.47598,-0.458,-0.48096,-0.4999,-0.48554,-0.46203,-0.44098,-0.4489,-0.45622,-0.4364,-0.40601,-0.39417,-0.40772,-0.41147,-0.38894,-0.37402,-0.34079,-0.33165,-0.34713,-0.34179,-0.31161,-0.29266,-0.29798,-0.31511,-0.32131,-0.30304,-0.29037,-0.29573,-0.33452,-0.34571,-0.34564,-0.35018,-0.37931,-0.43926,-0.45105,-0.45906,-0.45824,-0.45825,-0.50301,-0.52742,-0.52952,-0.51816,-0.52524,-0.55661,-0.55985,-0.54841,-0.53729,-0.53838,-0.56573,-0.57238,-0.56747,-0.557,-0.54425,-0.55611,-0.58039,-0.58536,-0.57133,-0.55009,-0.55965,-0.59094,-0.59514,-0.56748,-0.54941,-0.54947,-0.57346,-0.57613,-0.55985,-0.54757,-0.56045,-0.58535,-0.57663,-0.55562,-0.5434,-0.54171,-0.57457,-0.57989,-0.56055,-0.5429,-0.53864,-0.56624,-0.57435,-0.56203,-0.5463,-0.54739,-0.56894,-0.57589,-0.56327,-0.54912,-0.54497,-0.58281,-0.5891,-0.58141,-0.56106,-0.5431,-0.56057,-0.58768,-0.58684,-0.57101,-0.55632,-0.57868,-0.59607,-0.59074,-0.57105,-0.55379,-0.57003,-0.60374,-0.59658,-0.57267,-0.55634,-0.57681,-0.60191,-0.59907,-0.58578,-0.56475,-0.57391,-0.59954,-0.60268,-0.58554,-0.56972,-0.57283,-0.60376,-0.60287,-0.59159,-0.56866,-0.56938,-0.5909,-0.59295,-0.55501,-0.52857,-0.51825,-0.52665,-0.53969,-0.51703,-0.47396,-0.44726,-0.47291,-0.49732,-0.49292,-0.49288,-0.4919,-0.52798,-0.56038,-0.5656,-0.56247,-0.5528,-0.57951,-0.60464,-0.60135,-0.59369,-0.56887,-0.57989,-0.60874,-0.6171,-0.59587,-0.58111,-0.58438,-0.61617,-0.61964,-0.60187,-0.58336,-0.58841,-0.61584,-0.61934,-0.63305,-0.65276,-0.62127,-0.59038,-0.51265,-0.38283,-0.1418,0.056042,0.10102,0.086758,-0.015075,-0.2575,-0.52121,-0.58546,-0.60924,-0.61133,-0.58002,-0.56003,-0.57108,-0.59659,-0.58265,-0.5582,-0.55042,-0.55819,-0.58433,-0.58155,-0.56429,-0.54412,-0.54967,-0.57499,-0.56578,-0.54189,-0.52191,-0.52798,-0.54836,-0.54554,-0.53299,-0.51858,-0.51918,-0.53687,-0.53098,-0.51808,-0.50074,-0.48303,-0.50277,-0.51435,-0.49627,-0.46452,-0.44731,-0.46419,-0.46189,-0.43784,-0.40495,-0.38806,-0.39989,-0.3991,-0.37097,-0.33994,-0.32291,-0.34034,-0.34373,-0.3273,-0.29804,-0.27721,-0.29219,-0.31679,-0.31692,-0.30263,-0.3023,-0.32174,-0.35829,-0.37009,-0.38011,-0.39008,-0.41858,-0.45823,-0.46749,-0.46175,-0.45637,-0.46777,-0.50795,-0.52392,-0.52365,-0.49835,-0.50292,-0.52802,-0.53702,-0.52059,-0.50746,-0.50218,-0.53088,-0.54683,-0.53299,-0.5112,-0.50233,-0.53223,-0.54353,-0.52961,-0.51602,-0.49822,-0.50845,-0.53595,-0.51877,-0.49746,-0.47991,-0.49316,-0.5178,-0.51285,-0.48819,-0.47188,-0.48182,-0.50362,-0.49499,-0.47137,-0.45895,-0.483,-0.497,-0.49114,-0.47716,-0.45575,-0.46144,-0.48306,-0.48737,-0.47626,-0.45609,-0.45373,-0.48467,-0.48593,-0.47475,-0.4576,-0.46092,-0.48958,-0.49152,-0.47526,-0.4552,-0.45954,-0.47579,-0.49351,-0.48753,-0.46806,-0.45523,-0.47245,-0.49266,-0.48713,-0.47073,-0.45382,-0.48173,-0.49942,-0.49545,-0.47116,-0.45806,-0.48151,-0.5023,-0.49496,-0.46892,-0.45238,-0.46979,-0.49486,-0.4976,-0.47859,-0.46354,-0.46572,-0.49573,-0.49797,-0.48343,-0.46527,-0.47117,-0.49264,-0.4978,-0.47837,-0.45661,-0.46009,-0.48585,-0.48404,-0.47033,-0.43719,-0.41052,-0.42113,-0.42947,-0.41361,-0.37394,-0.33556,-0.36407,-0.38557,-0.38482,-0.3832,-0.3929,-0.43217,-0.45144,-0.45065,-0.44425,-0.4478,-0.4739,-0.49454,-0.48966,-0.48881,-0.46646,-0.47521,-0.49254,-0.50742,-0.49098,-0.47392,-0.48134,-0.5078,-0.5023,-0.48354,-0.47307,-0.48112,-0.50084,-0.50604,-0.50688,-0.52109,-0.52731,-0.49632,-0.40097,-0.25769,-0.064476,0.19079,0.22855,0.18995,0.15482,-0.024885,-0.39341,-0.53124,-0.49891,-0.49955,-0.461,-0.45514,-0.46332,-0.48815,-0.46324,-0.45919,-0.435,-0.45549,-0.47833,-0.479,-0.44702,-0.44001,-0.44554,-0.47202,-0.45412,-0.43838,-0.41776,-0.43857,-0.451,-0.44853,-0.42109,-0.41201,-0.41498,-0.43332,-0.43013,-0.41472,-0.38234,-0.38379,-0.39743,-0.4037,-0.38174,-0.35367,-0.34144,-0.35734,-0.35314,-0.32869,-0.29893,-0.28325,-0.29548,-0.28412,-0.2571,-0.22392,-0.21307,-0.21857,-0.2283,-0.20393,-0.18356,-0.16219,-0.17793,-0.19331,-0.18735,-0.17079,-0.16176,-0.18943,-0.22975,-0.23959,-0.24015,-0.24942,-0.29024,-0.32526,-0.34053,-0.33627,-0.33581,-0.3488,-0.38587,-0.40037,-0.40021,-0.37616,-0.38035,-0.41233,-0.42049,-0.40553,-0.38499,-0.38699,-0.41757,-0.41895,-0.40369,-0.38517,-0.38645,-0.41869,-0.42791,-0.42012,-0.40078,-0.38504,-0.39225,-0.41637,-0.4123,-0.39094,-0.37907,-0.40187,-0.42111,-0.40929,-0.40085,-0.38555,-0.40817,-0.42012,-0.41241,-0.387,-0.38557,-0.39114,-0.4138,-0.41564,-0.40896,-0.38798,-0.39571,-0.42611,-0.42825,-0.40926,-0.39633,-0.40777,-0.4387,-0.44467,-0.42788,-0.41535,-0.42846,-0.45395,-0.45981,-0.43988,-0.43719,-0.43929,-0.4645,-0.4777,-0.46806,-0.45106,-0.44845,-0.48451,-0.50219,-0.49242,-0.47191,-0.46246,-0.49362,-0.51452,-0.51367,-0.49704,-0.48906,-0.51185,-0.52786,-0.53121,-0.51211,-0.49544,-0.50776,-0.53814,-0.54598,-0.52659,-0.51141,-0.52439,-0.55218,-0.54747,-0.53163,-0.52418,-0.5403,-0.56465,-0.56146,-0.54249,-0.52275,-0.53842,-0.55486,-0.55606,-0.53486,-0.49649,-0.48347,-0.50839,-0.50802,-0.48394,-0.44464,-0.44779,-0.4863,-0.49994,-0.50716,-0.49742,-0.51004,-0.55023,-0.57099,-0.57552,-0.56593,-0.56076,-0.59229,-0.61117,-0.60834,-0.59862,-0.59206,-0.59623,-0.62411,-0.62565,-0.61057,-0.59024,-0.60657,-0.63409,-0.63738,-0.61572,-0.59907,-0.61537,-0.64807,-0.67071,-0.68495,-0.67375,-0.59671,-0.52301,-0.3891,-0.17813,0.059708,0.11246,0.074185,-0.017171,-0.26357,-0.57091,-0.62099,-0.6463,-0.66392,-0.63282,-0.60552,-0.60844,-0.64224,-0.6329,-0.62809,-0.60277,-0.61285,-0.62275,-0.64403,-0.62878,-0.61389,-0.60236,-0.62267,-0.63936,-0.63429,-0.60293,-0.58275,-0.60092,-0.6374,-0.62147,-0.59051,-0.58022,-0.58577,-0.61178,-0.61296,-0.58181,-0.56942,-0.56999,-0.5917,-0.58928,-0.57175,-0.53593,-0.53176,-0.54184,-0.53607,-0.51791,-0.48675,-0.47203,-0.48531,-0.47564,-0.45447,-0.44393,-0.4213,-0.42796,-0.4335,-0.42577,-0.40793,-0.38478,-0.40434,-0.43128,-0.42817,-0.42048,-0.42275,-0.45833,-0.48989,-0.50631,-0.50796,-0.53312,-0.57342,-0.59608,-0.60452,-0.60675,-0.5937,-0.61634,-0.66512,-0.68121,-0.64771,-0.63527,-0.65314,-0.66714,-0.67083,-0.67455,-0.66404,-0.67075,-0.6894,-0.68884,-0.68269,-0.66873,-0.67392,-0.68961,-0.70271,-0.69969,-0.68299,-0.67,-0.6918,-0.70872,-0.69787,-0.67302,-0.65929,-0.69435,-0.69842,-0.68908,-0.66845,-0.66293,-0.68352,-0.68761,-0.66845,-0.64706,-0.63503,-0.65846,-0.67994,-0.6754,-0.65393,-0.64076,-0.64894,-0.67496,-0.67563,-0.65662,-0.63663,-0.65617,-0.68008,-0.67441,-0.65543,-0.65006,-0.66378,-0.68076,-0.6857,-0.66966,-0.64864,-0.64882,-0.67722,-0.68428,-0.67259,-0.66136,-0.65556,-0.68728,-0.68892,-0.67328,-0.65703,-0.65751,-0.6841,-0.69428,-0.67965,-0.6606,-0.66409,-0.68629,-0.6896,-0.68345,-0.66346,-0.65764,-0.68215,-0.70379,-0.68462,-0.66171,-0.64344,-0.67314,-0.69429,-0.67637,-0.66177,-0.63701,-0.64762,-0.64965,-0.63688,-0.60573,-0.57905,-0.57504,-0.58826,-0.57297,-0.56424,-0.54462,-0.55628,-0.59439,-0.60206,-0.60387,-0.60723,-0.61239,-0.65435,-0.66358,-0.65836,-0.64442,-0.65105,-0.68166,-0.69019,-0.69009,-0.67048,-0.65401,-0.67588,-0.69384,-0.6871,-0.66706,-0.65558,-0.6763,-0.69609,-0.68727,-0.67152,-0.65993,-0.68198,-0.73211,-0.74654,-0.68305,-0.57053,-0.47399,-0.40791,-0.1749,-0.00078334,0.072984,0.054929,-0.13196,-0.42261,-0.64202,-0.6407,-0.6621,-0.69756,-0.67651,-0.64979,-0.63393,-0.63894,-0.66631,-0.6614,-0.6497,-0.63125,-0.63207,-0.64547,-0.66239,-0.65341,-0.62586,-0.61547,-0.63905,-0.64705,-0.62999,-0.60381,-0.60059,-0.62185,-0.62484,-0.60942,-0.58648,-0.57896,-0.59967,-0.60855,-0.59167,-0.58228,-0.55629,-0.56171,-0.57427,-0.567,-0.53447,-0.51333,-0.50974,-0.52486,-0.50684,-0.47129,-0.44379,-0.43528,-0.4472,-0.4393,-0.40676,-0.38111,-0.37872,-0.39587,-0.39102,-0.37515,-0.3514,-0.34604,-0.37236,-0.39298,-0.3863,-0.39042,-0.39638,-0.446,-0.47611,-0.47637,-0.48173,-0.4962,-0.54517,-0.56071,-0.55764,-0.54826,-0.55146,-0.56671,-0.59288,-0.59071,-0.57687,-0.563,-0.57623,-0.60311,-0.59535,-0.57625,-0.56381,-0.57457,-0.60151,-0.59114,-0.57364,-0.55692,-0.57348,-0.59743,-0.58993,-0.57114,-0.55921,-0.55461,-0.5765,-0.57761,-0.55906,-0.53953,-0.53184,-0.55598,-0.56335,-0.54698,-0.52753,-0.51925,-0.54017,-0.53728,-0.51997,-0.5097,-0.49757,-0.52307,-0.52172,-0.51708,-0.50116,-0.48065,-0.49689,-0.51612,-0.50946,-0.49253,-0.46893,-0.49551,-0.522,-0.50543,-0.48465,-0.4707,-0.48994,-0.50788,-0.49918,-0.482,-0.46486,-0.48534,-0.50167,-0.50584,-0.48486,-0.46479,-0.47052,-0.49025,-0.50633,-0.48469,-0.47044,-0.4667,-0.49678,-0.49738,-0.48302,-0.45977,-0.46108,-0.48506,-0.49709,-0.47885,-0.45805,-0.45105,-0.48026,-0.49012,-0.47891,-0.46501,-0.45484,-0.47142,-0.49225,-0.48337,-0.46692,-0.4468,-0.46967,-0.49192,-0.48001,-0.46797,-0.44751,-0.47068,-0.48439,-0.46279,-0.46409,-0.44374,-0.43311,-0.44392,-0.42722,-0.40573,-0.386,-0.37325,-0.37762,-0.36217,-0.35661,-0.34623,-0.36287,-0.40342,-0.41021,-0.41584,-0.40676,-0.42476,-0.46221,-0.46732,-0.4703,-0.46895,-0.45577,-0.48551,-0.49961,-0.4878,-0.47434,-0.4661,-0.49564,-0.50744,-0.49608,-0.47935,-0.46735,-0.49482,-0.50399,-0.49897,-0.47631,-0.46728,-0.48151,-0.54402,-0.55542,-0.46802,-0.34337,-0.21239,-0.065671,0.1893,0.24928,0.22976,0.16444,-0.084225,-0.45203,-0.51989,-0.46172,-0.48638,-0.48469,-0.48602,-0.4598,-0.46351,-0.45212,-0.48995,-0.49663,-0.48886,-0.4605,-0.46547,-0.4812,-0.50507,-0.48371,-0.46309,-0.45674,-0.48001,-0.48572,-0.47128,-0.45116,-0.4501,-0.47643,-0.48332,-0.47055,-0.45164,-0.4273,-0.45172,-0.46814,-0.46698,-0.44468,-0.42061,-0.42443,-0.44169,-0.42784,-0.41082,-0.38842,-0.39753,-0.40833,-0.39037,-0.3573,-0.3294,-0.33859,-0.34858,-0.33103,-0.31285,-0.28172,-0.28091,-0.29997,-0.30119,-0.28885,-0.26663,-0.26458,-0.29843,-0.31477,-0.3117,-0.30777,-0.33333,-0.38345,-0.40642,-0.41902,-0.43005,-0.43793,-0.47345,-0.51348,-0.53094,-0.52427,-0.51628,-0.55383,-0.58095,-0.58539,-0.56741,-0.55838,-0.58139,-0.60813,-0.60146,-0.5832,-0.57163,-0.59334,-0.61745,-0.62249,-0.60352,-0.58431,-0.58811,-0.61571,-0.63215,-0.62103,-0.60079,-0.60115,-0.62295,-0.62373,-0.61042,-0.59037,-0.59998,-0.63147,-0.6286,-0.61881,-0.60136,-0.60724,-0.61864,-0.63593,-0.62392,-0.60054,-0.59487,-0.61999,-0.63302,-0.62623,-0.60597,-0.60209,-0.62467,-0.64023,-0.6329,-0.61391,-0.60208,-0.62319,-0.63294,-0.6345,-0.626,-0.62038,-0.62727,-0.64993,-0.63944,-0.63123,-0.62837,-0.64024,-0.66816,-0.6676,-0.64541,-0.62707,-0.62763,-0.66888,-0.67034,-0.65428,-0.64298,-0.64691,-0.68074,-0.6791,-0.6703,-0.65525,-0.65147,-0.66859,-0.68186,-0.67746,-0.66528,-0.66333,-0.67926,-0.69098,-0.67833,-0.66653,-0.65941,-0.69121,-0.69925,-0.68966,-0.67545,-0.66078,-0.69151,-0.69673,-0.70572,-0.68012,-0.66341,-0.67423,-0.69431,-0.69489,-0.67906,-0.65951,-0.66184,-0.66625,-0.65836,-0.64264,-0.60511,-0.59619,-0.60286,-0.59859,-0.58861,-0.58597,-0.5958,-0.6365,-0.65226,-0.64535,-0.64015,-0.65658,-0.69842,-0.71106,-0.70824,-0.7034,-0.70485,-0.73509,-0.74188,-0.72972,-0.71394,-0.72034,-0.74089,-0.76078,-0.743,-0.72933,-0.71879,-0.72654,-0.75955,-0.75545,-0.74321,-0.71687,-0.75095,-0.7992,-0.81019,-0.74666,-0.63958,-0.525,-0.35051,-0.11897,-0.032817,0.012242,-0.091862,-0.34203,-0.50941,-0.70679,-0.72522,-0.73502,-0.7806,-0.76193,-0.7465,-0.71423,-0.71448,-0.7431,-0.75554,-0.73567,-0.72935,-0.72116,-0.7483,-0.74701,-0.74132,-0.71059,-0.7075,-0.71646,-0.74277,-0.73195,-0.71795,-0.69894,-0.70859,-0.73099,-0.7191,-0.6937,-0.6794,-0.69673,-0.70984,-0.6997,-0.67751,-0.66107,-0.67982,-0.69021,-0.66723,-0.64019,-0.62239,-0.61599,-0.63077,-0.62507,-0.60014,-0.56714,-0.55138,-0.57487,-0.56052,-0.52751,-0.49729,-0.49732,-0.52038,-0.50846,-0.47922,-0.46372,-0.47146,-0.513,-0.52234,-0.51924,-0.51089,-0.51903,-0.56134,-0.59603,-0.60571,-0.60858,-0.6209,-0.65967,-0.68894,-0.70232,-0.68726,-0.6814,-0.7151,-0.73952,-0.73336,-0.72404,-0.70919,-0.73499,-0.7435,-0.75168,-0.7363,-0.71551,-0.72054,-0.74933,-0.75315,-0.7338,-0.71471,-0.7281,-0.76118,-0.75343,-0.73497,-0.70907,-0.72199,-0.74324,-0.74211,-0.71957,-0.69534,-0.69611,-0.72233,-0.73486,-0.72161,-0.70419,-0.69069,-0.71286,-0.71993,-0.70423,-0.68534,-0.67268,-0.70034,-0.70506,-0.68831,-0.66438,-0.66237,-0.69276,-0.70398,-0.69606,-0.68576,-0.66853,-0.67477,-0.70038,-0.70186,-0.67982,-0.66907,-0.68364,-0.70716,-0.70513,-0.68333,-0.67055,-0.68386,-0.70704,-0.70655,-0.68549,-0.67134,-0.68101,-0.70389,-0.70681,-0.69964,-0.68139,-0.6759,-0.70737,-0.71335,-0.6965,-0.67743,-0.67861,-0.70901,-0.71327,-0.70205,-0.6802,-0.67781,-0.7054,-0.70904,-0.69927,-0.67808,-0.68471,-0.69951,-0.71696,-0.70555,-0.68539,-0.67355,-0.69378,-0.71617,-0.70872,-0.68996,-0.67173,-0.68434,-0.70681,-0.68925,-0.65397,-0.63,-0.63565,-0.65013,-0.63052,-0.60222,-0.57213,-0.56795,-0.60558,-0.61338,-0.60712,-0.59983,-0.61498,-0.65862,-0.67639,-0.67227,-0.65819,-0.66187,-0.71066,-0.71895,-0.70024,-0.68505,-0.69307,-0.71815,-0.72174,-0.71792,-0.70065,-0.68479,-0.70511,-0.72447,-0.7099,-0.69423,-0.67619,-0.7026,-0.7188,-0.71186,-0.71149,-0.73749,-0.72958,-0.65156,-0.51879,-0.35219,-0.098231,0.016397,0.013161,0.02007,-0.047993,-0.26284,-0.63214,-0.72319,-0.70294,-0.69131,-0.65573,-0.65153,-0.68258,-0.69383,-0.66125,-0.63857,-0.64642,-0.67859,-0.67768,-0.66511,-0.65029,-0.64076,-0.65174,-0.66591,-0.6549,-0.63863,-0.61336,-0.63709,-0.64901,-0.6373,-0.60822,-0.60297,-0.6198,-0.63283,-0.60811,-0.5868,-0.57398,-0.59826,-0.59709,-0.58993,-0.56224,-0.5388,-0.54013,-0.55323,-0.5394,-0.50847,-0.47716,-0.47555,-0.48029,-0.46788,-0.43729,-0.4039,-0.39928,-0.41005,-0.39714,-0.36549,-0.33726,-0.34336,-0.35955,-0.35832,-0.35422,-0.33992,-0.33475,-0.36972,-0.39338,-0.39699,-0.40092,-0.41826,-0.47468,-0.49576,-0.50238,-0.50179,-0.50467,-0.54914,-0.57106,-0.56327,-0.55136,-0.53952,-0.55795,-0.58595,-0.58703,-0.5639,-0.54944,-0.56566,-0.58876,-0.58252,-0.56505,-0.5453,-0.55832,-0.5828,-0.58363,-0.55472,-0.54652,-0.55897,-0.5825,-0.5748,-0.56743,-0.5465,-0.53903,-0.56227,-0.57134,-0.56259,-0.53721,-0.53299,-0.56444,-0.57397,-0.55941,-0.53046,-0.52708,-0.55062,-0.55221,-0.54164,-0.52134,-0.52367,-0.54879,-0.55277,-0.54997,-0.52863,-0.51866,-0.53607,-0.55186,-0.54671,-0.53151,-0.51862,-0.54068,-0.5634,-0.55545,-0.53905,-0.52599,-0.54376,-0.56908,-0.56394,-0.54395,-0.52977,-0.5386,-0.56563,-0.57873,-0.55784,-0.54188,-0.54295,-0.5785,-0.58278,-0.56742,-0.54737,-0.55263,-0.58258,-0.58297,-0.56693,-0.55178,-0.55662,-0.58696,-0.58536,-0.57628,-0.56869,-0.5582,-0.58081,-0.59457,-0.58811,-0.56838,-0.55987,-0.58487,-0.60491,-0.59918,-0.57777,-0.5682,-0.59653,-0.61423,-0.60835,-0.5877,-0.58164,-0.60356,-0.6212,-0.61681,-0.59929,-0.58389,-0.5918,-0.61709,-0.61945,-0.60193,-0.58694,-0.59361,-0.60712,-0.59486,-0.56946,-0.54255,-0.54408,-0.56681,-0.54516,-0.51009,-0.48876,-0.51228,-0.53145,-0.55505,-0.56077,-0.55126,-0.56866,-0.6049,-0.63328,-0.62728,-0.62392,-0.62929,-0.66603,-0.678,-0.67177,-0.65246,-0.65392,-0.6822,-0.70055,-0.68987,-0.67018,-0.66142,-0.67469,-0.70384,-0.70598,-0.68522,-0.67406,-0.68759,-0.71872,-0.74094,-0.7642,-0.7226,-0.64187,-0.54569,-0.39921,-0.14054,0.011116,0.017328,-0.035723,-0.16148,-0.29832,-0.65565,-0.73547,-0.73212,-0.75889,-0.72331,-0.7137,-0.69834,-0.73379,-0.73974,-0.7429,-0.71511,-0.71298,-0.73366,-0.75898,-0.73686,-0.72454,-0.7111,-0.73945,-0.73984,-0.73948,-0.71142,-0.70662,-0.72097,-0.74731,-0.7259,-0.71644,-0.70047,-0.71505,-0.72883,-0.73742,-0.71043,-0.6803,-0.68371,-0.71033,-0.69915,-0.67746,-0.65688,-0.66362,-0.67284,-0.66479,-0.6429,-0.61401,-0.59588,-0.59409,-0.6051,-0.58794,-0.5451,-0.53046,-0.5411,-0.5379,-0.52081,-0.49833,-0.49768,-0.53564,-0.54467,-0.53861,-0.51935,-0.506,-0.53816,-0.57872,-0.59691,-0.60151,-0.617,-0.65618,-0.69738,-0.70508,-0.70853,-0.70047,-0.73674,-0.76351,-0.76953,-0.75237,-0.75133,-0.7723,-0.79448,-0.79296,-0.78172,-0.75621,-0.7623,-0.79323,-0.80255,-0.79308,-0.77821,-0.77471,-0.80877,-0.81287,-0.79824,-0.77489,-0.77714,-0.81141,-0.80916,-0.79019,-0.77596,-0.76786,-0.79268,-0.79194
