7.041,7.0528,7.0575,7.0714,7.0795,7.093,7.1102,7.1188,7.1303,7.1419,7.1478,7.1707,7.1793,7.1958,7.2071,7.2199,7.2274,7.2431,7.2554,7.2654,7.2653,7.2646,7.2537,7.2325,7.21,7.1779,7.1543,7.1259,7.0959,7.064,7.0543,7.022,7.0035,6.9802,6.9609,6.9433,6.9237,6.9251,6.9121,6.8988,6.8955,6.8925,6.8873,6.8893,6.8814,6.8789,6.8799,6.8779,6.8726,6.8699,6.8701,6.8725,6.8758,6.8788,6.8814,6.88,6.8806,6.8869,6.8907,6.8875,6.887,6.89,6.8925,6.8888,6.8939,6.8937,6.8921,6.8907,6.8955,6.8986,6.8985,6.8944,6.8917,6.8945,6.899,6.8904,6.8912,6.8894,6.8894,6.8855,6.883,6.8874,6.8831,6.8891,6.8908,6.8876,6.8903,6.8834,6.8867,6.8862,6.8878,6.8907,6.8847,6.8879,6.8906,6.888,6.8875,6.8902,6.8913,6.8926,6.89,6.8892,6.8948,6.8943,6.8974,6.8954,6.8961,6.8944,6.8927,6.8949,6.8971,6.898,6.8962,6.8991,6.9049,6.9041,6.9025,6.9043,6.9062,6.9126,6.9134,6.9123,6.9362,6.9328,6.9339,6.962,6.9747,6.9887,6.9992,6.9866,6.9732,6.9523,6.9497,6.941,6.9314,6.9164,6.904,6.9,6.8998,6.9,6.8999,6.8985,6.9026,6.9034,6.9048,6.9091,6.902,6.9043,6.9108,6.9099,6.8993,6.8433,6.7899,6.7931,6.8226,6.9729,7.2869,7.7098,7.8299,7.48,6.9463,6.5497,6.5714,6.6328,6.6598,6.6975,6.7244,6.7473,6.7964,6.8802,6.939,6.9458,6.9373,6.9428,6.9422,6.952,6.952,6.9563,6.9556,6.9646,6.9689,6.9808,6.9794,6.9864,6.9813,6.9965,6.9949,7.0032,7.0086,7.0192,7.0223,7.034,7.0305,7.0426,7.0486,7.0543,7.0659,7.0753,7.0777,7.0991,7.1019,7.1163,7.1268,7.133,7.1437,7.1567,7.1686,7.1836,7.2016,7.2129,7.2279,7.2431,7.2547,7.2698,7.2762,7.2906,7.3045,7.3081,7.3124,7.3137,7.3094,7.2932,7.282,7.2576,7.2286,7.2019,7.1716,7.1422,7.1097,7.0804,7.0607,7.0379,7.0196,7.0067,6.9908,6.975,6.9712,6.9657,6.96,6.9534,6.9473,6.9411,6.944,6.9409,6.9408,6.9381,6.9412,6.9422,6.9352,6.9458,6.9451,6.943,6.9456,6.9457,6.9453,6.9464,6.9529,6.9495,6.9545,6.9548,6.9537,6.9511,6.9547,6.9518,6.9591,6.9543,6.9581,6.9591,6.9619,6.9572,6.9579,6.9635,6.9618,6.9585,6.9578,6.9604,6.9542,6.9572,6.9591,6.9597,6.9569,6.9515,6.9529,6.9565,6.9542,6.9577,6.9514,6.9517,6.9536,6.9539,6.961,6.9552,6.9572,6.9556,6.9533,6.9545,6.9564,6.9572,6.9602,6.9616,6.9553,6.9614,6.9613,6.9598,6.9567,6.9587,6.9579,6.9617,6.9595,6.9603,6.9626,6.9617,6.9557,6.9601,6.9633,6.9572,6.962,6.9611,6.9641,6.9594,6.9639,6.9595,6.9625,6.9623,6.9634,6.9619,6.9683,6.9679,6.9756,6.9787,6.9748,6.9871,6.9911,6.9826,6.993,7.0282,7.0509,7.0608,7.0582,7.0316,7.0183,7.0056,7.0037,7.0044,6.9901,6.9783,6.9599,6.955,6.9596,6.9597,6.9549,6.9621,6.9557,6.9579,6.9587,6.9531,6.9497,6.9599,6.9625,6.9572,6.9202,6.8419,6.8195,6.8345,6.9287,7.1484,7.5376,7.8481,7.8043,7.3811,6.8635,6.7081,6.7581,6.7471,6.7884,6.8175,6.8203,6.8769,6.9408,6.9963,6.9952,6.9883,6.9853,6.9917,6.9916,6.9946,6.9974,7.0001,6.9988,7.0106,7.0178,7.0211,7.0233,7.0254,7.0266,7.0365,7.0381,7.0423,7.0438,7.0504,7.0573,7.0651,7.0688,7.0757,7.0863,7.0954,7.1005,7.108,7.1209,7.132,7.1399,7.1506,7.1634,7.1693,7.1858,7.1888,7.2084,7.2211,7.2337,7.249,7.2649,7.2782,7.2888,7.3008,7.3122,7.3207,7.3337,7.3366,7.3421,7.3399,7.3317,7.318,7.2969,7.2692,7.2499,7.2248,7.1941,7.1634,7.1403,7.1138,7.0947,7.0739,7.0538,7.0428,7.0255,7.0196,7.0077,6.9972,6.9942,6.9892,6.9858,6.9851,6.9782,6.9801,6.9772,6.9779,6.976,6.9767,6.9739,6.9739,6.9721,6.9714,6.9772,6.9747,6.9731,6.9752,6.9749,6.982,6.9798,6.9826,6.9813,6.981,6.9864,6.9879,6.9844,6.9866,6.9883,6.991,6.9894,6.9899,6.9915,6.9921,6.994,6.9906,6.9881,6.9874,6.9909,6.9881,6.9882,6.9881,6.9827,6.9814,6.9834,6.9802,6.9848,6.9792,6.9819,6.9825,6.9799,6.9808,6.9789,6.9827,6.9817,6.9827,6.9842,6.9787,6.9765,6.9819,6.9893,6.9838,6.9816,6.9789,6.9866,6.9867,6.9833,6.9826,6.9794,6.9789,6.9797,6.9835,6.979,6.9819,6.9824,6.979,6.9741,6.9792,6.984,6.98,6.9807,6.9796,6.9795,6.9768,6.9834,6.9801,6.9762,6.9785,6.977,6.9761,6.982,6.9795,6.9805,6.9806,6.9846,6.9906,6.9911,6.9905,6.988,7.0004,7.0018,6.9924,6.9944,7.0217,7.0558,7.0775,7.0689,7.0404,7.0321,7.0201,7.0199,7.0148,7.0006,6.983,6.9677,6.9697,6.9702,6.9713,6.9667,6.966,6.9681,6.9698,6.9635,6.9682,6.9647,6.9652,6.9667,6.962,6.9222,6.8485,6.8245,6.8377,6.9272,7.1538,7.5484,7.8488,7.7948,7.3828,6.8955,6.7809,6.8039,6.8036,6.8074,6.8536,6.853,6.9004,6.9402,6.9993,7.008,6.9949,7.0027,6.9945,7.009,7.0025,7.0126,7.0073,7.0194,7.0146,7.0304,7.0242,7.0314,7.0323,7.0399,7.0378,7.0481,7.0476,7.0605,7.0558,7.0726,7.0731,7.0813,7.0868,7.0977,7.1003,7.1079,7.1209,7.1335,7.1397,7.1535,7.1591,7.1661,7.1783,7.1898,7.2027,7.2199,7.2299,7.2465,7.2608,7.2765,7.2899,7.3004,7.314,7.3275,7.3355,7.3458,7.3498,7.3541,7.3526,7.3517,7.3399,7.3154,7.2918,7.2676,7.2433,7.2077,7.1832,7.1546,7.1307,7.1028,7.0877,7.0668,7.0495,7.0353,7.033,7.02,7.0061,7.0068,7.001,6.9958,6.9922,6.9949,6.9895,6.9889,6.9869,6.9824,6.9835,6.9788,6.9801,6.9771,6.9797,6.979,6.9826,6.979,6.9877,6.9793,6.9824,6.9804,6.9882,6.9844,6.9897,6.9873,6.9917,6.9879,6.9898,6.9876,6.9862,6.9897,6.9943,6.9921,6.9948,6.995,6.991,6.9894,6.9918,6.9956,6.9941,6.9901,6.9915,6.9916,6.9951,6.9928,6.9884,6.9943,6.9877,6.9908,6.9891,6.9878,6.9891,6.9907,6.9896,6.9927,6.9917,6.9862,6.9881,6.9928,6.9924,6.9892,6.9928,6.9913,6.9964,6.9925,6.9893,6.9914,6.9945,6.9908,6.9892,6.987,6.9861,6.9934,6.9871,6.9924,6.9883,6.9848,6.9901,6.9892,6.9877,6.9815,6.9909,6.9869,6.9872,6.9862,6.9856,6.9859,6.9818,6.9863,6.9843,6.9848,6.9805,6.9866,6.9819,6.9804,6.9869,6.9845,6.9902,6.9924,6.9939,6.9997,6.9912,6.9975,7.0066,7.0063,7.0036,7.0308,7.0587,7.0827,7.0697,7.0483,7.0344,7.0219,7.0211,7.0113,7.0034,6.9782,6.9698,6.9708,6.97,6.9682,6.9685,6.9671,6.9656,6.9712,6.9701,6.9682,6.9652,6.968,6.9671,6.9619,6.9213,6.8449,6.823,6.8331,6.9274,7.0214,7.3492,7.7485,7.849,7.5643,7.0567,6.7525,6.7808,6.7943,6.8046,6.8603,6.8431,6.9075,6.9688,7.0107,6.9922,6.9998,6.9886,6.9983,6.9976,7.0046,7.0024,7.0099,7.0093,7.016,7.02,7.027,7.0275,7.0342,7.0348,7.0419,7.0455,7.0479,7.051,7.0604,7.0674,7.0713,7.0743,7.0846,7.0841,7.0948,7.1031,7.1132,7.1174,7.1334,7.1436,7.1545,7.1671,7.1787,7.1883,7.2042,7.2186,7.2259,7.2463,7.2606,7.2755,7.2845,7.3024,7.3063,7.317,7.3256,7.3419,7.3454,7.3508,7.3535,7.3496,7.3381,7.3219,7.2972,7.2628,7.2313,7.1983,7.1764,7.1521,7.1243,7.1046,7.0777,7.066,7.049,7.0313,7.0201,7.017,7.0019,6.9942,6.9814,6.9773,6.9817,6.9739,6.9699,6.9713,6.9668,6.9667,6.9653,6.9602,6.9595,6.9629,6.965,6.9706,6.9634,6.9604,6.9633,6.9629,6.9591,6.9674,6.9619,6.9621,6.9664,6.9652,6.9648,6.9637,6.9623,6.9601,6.9589,6.9649,6.9668,6.9638,6.9604,6.9661,6.9609,6.9636,6.9629,6.9652,6.9628,6.9652,6.9639,6.9611,6.9607,6.9621,6.9575,6.9579,6.9565,6.9518,6.9534,6.9544,6.9513,6.952,6.9568,6.946,6.9471,6.9517,6.9453,6.9524,6.9477,6.9488,6.9488,6.9514,6.9547,6.9476,6.9479,6.9516,6.9508,6.9558,6.952,6.9524,6.953,6.9449,6.9416,6.949,6.9457,6.9414,6.9441,6.9451,6.941,6.9399,6.9437,6.9402,6.9434,6.9433,6.9451,6.94,6.9381,6.9419,6.9348,6.9363,6.9381,6.9395,6.9355,6.9312,6.9358,6.9311,6.9265,6.9317,6.9395,6.9434,6.9388,6.9369,6.94,6.9526,6.9464,6.9452,6.978,6.9964,7.0137,7.0153,6.9963,6.9829,6.9709,6.9612,6.9584,6.9368,6.9262,6.9069,6.9054,6.9112,6.9163,6.9053,6.909,6.897,6.9094,6.9044,6.905,6.8989,6.8996,6.9013,6.8989,6.8879,6.8155,6.7764,6.7838,6.8364,7.0085,7.3699,7.7574,7.8008,7.3669,6.8386,6.5654,6.6364,6.6612,6.6924,6.7463,6.7365,6.7713,6.8203,6.9096,6.9306,6.9237,6.9262,6.9335,6.9233,6.938,6.9349,6.9406,6.9403,6.952,6.9523,6.9506,6.9581,6.9631,6.9683,6.9766,6.9704,6.9759,6.9838,6.9922,6.9961,7.0065,7.0103,7.0139,7.0264,7.0344,7.0433,7.0474,7.0544,7.0624,7.0773,7.0847,7.0915,7.1052,7.1154,7.1249,7.147,7.1515,7.1702,7.1809,7.1958,7.2085,7.2177,7.2312,7.2511,7.262,7.2633,7.2701,7.2754,7.2744,7.2697,7.2589,7.2389,7.2157,7.1982,7.1747,7.1445,7.1143,7.0826,7.0563,7.0296,7.0073,6.9897,6.9709,6.9509,6.9453,6.9314,6.9225,6.9141,6.9095,6.9073,6.9034,6.9027,6.8998,6.8988,6.8932,6.8925,6.891,6.8918,6.8865,6.8924,6.8924,6.8906,6.8952,6.8999,6.9083,6.9053,6.9065,6.9015,6.899,6.9084,6.9119,6.9131,6.9072,6.9154,6.9188,6.9212,6.92,6.9177,6.9111,6.9137,6.9142,6.9192,6.9197,6.9174,6.9186,6.9169,6.9181,6.9183,6.915,6.9195,6.9197,6.9207,6.9131,6.915,6.9177,6.9124,6.9184,6.9207,6.9225,6.9156,6.9178,6.9206,6.9272,6.9254,6.923,6.9268,6.9265,6.9265,6.9254,6.9215,6.9266,6.9282,6.9229,6.9322,6.9248,6.9255,6.9321,6.9309,6.9268,6.9238,6.9232,6.9324,6.9296,6.9302,6.9255,6.9288,6.9292,6.9364,6.9321,6.9385,6.9427,6.9454,6.9443,6.9478,6.9616,6.9487,6.9592,6.9889,7.008,7.0182,7.0064,7.0072,6.9877,6.976,6.9651,6.9522,6.9423,6.9245,6.9241,6.9203,6.9209,6.9197,6.926,6.9223,6.9233,6.9184,6.9171,6.9173,6.9179,6.9143,6.9192,6.9097,6.8765,6.8052,6.7963,6.8093,6.9165,7.1717,7.3737,7.7487,7.8317,7.4179,6.8964,6.5769,6.6316,6.6555,6.6994,6.7461,6.7592,6.8021,6.8763,6.9428,6.9519,6.9466,6.9497,6.9475,6.9527,6.9558,6.9624,6.9606,6.9659,6.9704,6.9812,6.9838,6.9821,6.9907,6.9985,6.9974,7.0085,7.009,7.0142,7.0184,7.027,7.0298,7.0387,7.0474,7.0477,7.0578,7.0766,7.0777,7.0851,7.0969,7.1022,7.1163,7.1222,7.1434,7.1518,7.1637,7.173,7.1872,7.2046,7.2158,7.2299,7.2477,7.2589,7.2671,7.2683,7.2874,7.294,7.304,7.3081,7.2995,7.2982,7.2816,7.2613,7.2295,7.1914,7.1663,7.1375,7.1067,7.0734,7.0562,7.0286,7.0132,6.9955,6.9837,6.971,6.9583,6.9509,6.9484,6.9454,6.9422,6.9389,6.9279,6.927,6.925,6.922,6.9189,6.9214,6.9207,6.9218,6.9219,6.9205,6.9149,6.9192,6.922,6.927,6.9225,6.9304,6.9339,6.9303,6.9322,6.9321,6.9316,6.9363,6.9357,6.9337,6.9385,6.9427,6.9392,6.9378,6.9421,6.9387,6.9405,6.9408,6.9452,6.9397,6.9423,6.9458,6.9449,6.942,6.939,6.9419,6.9442,6.9372,6.9393,6.9387,6.942,6.9399,6.9393,6.94,6.9368,6.9382,6.9406,6.9383,6.9465,6.9379,6.9414,6.9427,6.9401,6.9366,6.9414,6.9413,6.9427,6.9432,6.9461,6.9443,6.9396,6.9408,6.9463,6.9417,6.9446,6.9444,6.9462,6.9492,6.9412,6.9449,6.9442,6.9445,6.9432,6.9452,6.9448,6.9476,6.9452,6.9445,6.9435,6.9464,6.9446,6.9405,6.9452,6.9508,6.9467,6.9413,6.9375,6.9461,6.9434,6.9461,6.9533,6.9551,6.9532,6.9545,6.9628,6.973,6.9629,6.9658,6.9937,7.0228,7.0384,7.0305,7.0098,7.0048,6.9906,6.9869,6.984,6.9685,6.9557,6.94,6.9358,6.9339,6.9363,6.9362,6.9373,6.934,6.9326,6.9296,6.9306,6.9372,6.9328,6.9329,6.9246,6.9067,6.828,6.7937,6.8002,6.8725,7.0679,7.4412,7.8045,7.8297,7.458,6.9444,6.7294,6.7638,6.7567,6.7758,6.8108,6.8227,6.8828,6.9551,6.9791,6.9634,6.9661,6.9606,6.9674,6.9665,6.9707,6.9708,6.9776,6.9778,6.984,6.9851,6.9944,6.9967,7.0029,7.0024,7.0074,7.009,7.0198,7.0225,7.0262,7.0272,7.0326,7.0436,7.0513,7.0562,7.0684,7.0774,7.0828,7.0934,7.0994,7.106,7.1219,7.1375,7.1409,7.1551,7.1672,7.1833,7.1926,7.1965,7.2164,7.2299,7.2399,7.2574,7.2693,7.2817,7.2932,7.2994,7.3077,7.3116,7.309,7.3032,7.2896,7.2748,7.2488,7.2212,7.1868,7.1609,7.1459,7.118,7.0928,7.0682,7.0451,7.0272,7.0072,7.0023,6.9865,6.9786,6.971,6.9667,6.9569,6.9606,6.9481,6.9509,6.9492,6.9483,6.9452,6.9459,6.9503,6.9477,6.9425,6.937,6.9461,6.9404,6.9401,6.9464,6.9478,6.949,6.9453,6.9461,6.952,6.9516,6.9476,6.9475,6.9506,6.9563,6.9532,6.9531,6.954,6.9551,6.9571,6.9556,6.9575,6.961,6.9574,6.9583,6.9632,6.9572,6.9532,6.9573,6.9616,6.9583,6.9566,6.9554,6.9544,6.9529,6.9539,6.9507,6.9509,6.9541,6.9538,6.9548,6.951,6.951,6.9506,6.9528,6.9536,6.9523,6.9452,6.9438,6.9485,6.9518,6.9548,6.95,6.9503,6.9502,6.9559,6.9499,6.9456,6.9542,6.9503,6.9536,6.9546,6.9523,6.9504,6.9558,6.9515,6.9495,6.9567,6.951,6.9497,6.9487,6.9505,6.9478,6.9497,6.9526,6.9523,6.9479,6.9502,6.9475,6.9496,6.9518,6.9476,6.9465,6.9462,6.952,6.9552,6.9577,6.9572,6.9567,6.9613,6.966,6.9716,6.9664,6.967,7.0003,7.035,7.0436,7.0297,7.0091,6.9984,6.9881,6.9876,6.9743,6.9574,6.9352,6.9351,6.9309,6.9301,6.9327,6.9296,6.9328,6.934,6.9311,6.9239,6.9313,6.9309,6.9272,6.9294,6.914,6.8605,6.7948,6.7914,6.8162,6.9421,7.2329,7.6445,7.8424,7.6355,7.1598,6.7566,6.7476,6.7649,6.7481,6.7808,6.8034,6.8236,6.8801,6.9579,6.9648,6.9532,6.9521,6.9555,6.9565,6.9629,6.9569,6.9681,6.9714,6.9738,6.9758,6.9798,6.9836,6.9869,6.9912,6.9973,7.0004,7.0021,7.006,7.0135,7.0201,7.0245,7.0315,7.0367,7.0449,7.0501,7.059,7.0682,7.0746,7.0852,7.0979,7.1034,7.1097,7.1245,7.1325,7.1475,7.1574,7.1735,7.1914,7.2023,7.217,7.2287,7.2426,7.2546,7.2715,7.2811,7.2884,7.296,7.3046,7.3059,7.3077,7.2983,7.2844,7.2632,7.2411,7.2137,7.1831,7.1479,7.1174,7.0954,7.0681,7.0438,7.0259,7.0083,6.9928,6.981,6.9656,6.9614,6.9562,6.9464,6.9442,6.9434,6.9393,6.934,6.9313,6.9333,6.9359,6.9295,6.9237,6.922,6.9331,6.9268,6.9252,6.9283,6.9289,6.9291,6.9334,6.9304,6.9276,6.9329,6.934,6.9345,6.938,6.9391,6.9372,6.9378,6.9375,6.9398,6.9415,6.9436,6.9454,6.9421,6.9436,6.9453,6.9442,6.94,6.9433,6.938,6.9398,6.9445,6.9412,6.9419,6.9361,6.939,6.9346,6.9326,6.9382,6.9397,6.9332,6.9297,6.9327,6.9353,6.9364,6.9355,6.9352,6.9351,6.9379,6.9391,6.9365,6.9336,6.9347,6.935,6.9428,6.9349,6.9415,6.9397,6.9258,6.9418,6.9368,6.937,6.9357,6.9412,6.9357,6.9345,6.935,6.9369,6.9386,6.9354,6.9375,6.9388,6.9348,6.9374,6.9412,6.9376,6.9372,6.9268,6.9343,6.938,6.9298,6.9383,6.934,6.9313,6.9429,6.9334,6.9367,6.9317,6.9339,6.9339,6.9393,6.9371,6.9422,6.9446,6.948,6.9503,6.9446,6.9535,6.9602,6.9513,6.9596,7,7.0223,7.0332,7.017,6.9974,6.9813,6.9747,6.9796,6.9684,6.9566,6.9344,6.9263,6.925,6.9256,6.9281,6.9277,6.9291,6.9247,6.925,6.9266,6.9296,6.9277,6.9226,6.9244,6.9082,6.8837,6.807,6.7824,6.7987,6.9001,7.153,7.5583,7.8224,7.7011,7.2637,6.8006,6.7426,6.7693,6.7511,6.8011,6.8006,6.8326,6.9022,6.9574,6.9638,6.9576,6.9601,6.9459,6.9527,6.9532,6.9628,6.9532,6.9636,6.9697,6.9753,6.9737,6.9805,6.9803,6.9894,6.9866,6.9948,6.9912,6.997,7.0057,7.0103,7.0135,7.0228,7.024,7.0294,7.0379,7.0479,7.0554,7.0613,7.0704,7.0847,7.0965,7.106,7.1171,7.1257,7.1328,7.1497,7.16,7.1777,7.1847,7.1972,7.2085,7.2268,7.2376,7.2558,7.2625,7.2782,7.2874,7.2877,7.2876,7.2916,7.2827,7.2666,7.2506,7.2238,7.1938,7.157,7.13,7.094,7.0821,7.0532,7.0314,7.0098,6.9989,6.9746,6.9584,6.9439,6.9302,6.9262,6.9218,6.9111,6.92,6.9099,6.9002,6.8994,6.8987,6.8951,6.8983,6.8934,6.8874,6.8893,6.8943,6.8856,6.8996,6.8928,6.8921,6.8912,6.8957,6.8896,6.8926,6.8902,6.9061,6.9018,6.8955,6.8965,6.8965,6.8979,6.8958,6.9076,6.9023,6.902,6.9077,6.9018,6.9072,6.9031,6.9052,6.9031,6.9007,6.8975,6.8918,6.8942,6.8953,6.8918,6.8914,6.8951,6.8936,6.9005,6.898,6.8951,6.8929,6.8933,6.8895,6.8913,6.8905,6.8902,6.8843,6.8931,6.8836,6.8836,6.8863,6.8837,6.8916,6.8887,6.8887,6.8906,6.8861,6.8846,6.8835,6.8896,6.8919,6.8859,6.8851,6.887,6.8925,6.8898,6.8909,6.8859,6.8776,6.8807,6.8821,6.8774,6.8778,6.8802,6.8824,6.8882,6.8843,6.8842,6.8757,6.8902,6.8869,6.8918,6.8956,6.8907,6.9017,6.9059,6.9057,6.9075,6.925,6.9519,6.9724,6.9758,6.9517,6.9427,6.9267,6.9225,6.9236,6.9089,6.889,6.8757,6.8725,6.876,6.8751,6.8723,6.8779,6.8754,6.8705,6.8692,6.8726,6.8766,6.8785,6.8736,6.8705,6.8416,6.8169,6.7581,6.7647,6.7887,6.9184,7.2191,7.6518,7.8158,7.5068,6.9626,6.5126,6.514,6.6072,6.6303,6.6853,6.7078,6.7301,6.8014,6.869,6.9072,6.9083,6.9041,6.9006,6.9122,6.9088,6.9117,6.9215,6.9283,6.9314,6.9304,6.9348,6.9419,6.9502,6.953,6.9547,6.9581,6.9753,6.9803,6.9775,6.9837,6.9869,6.9964,7.0059,7.0176,7.0213,7.0252,7.0416,7.0483,7.0591,7.0721,7.0774,7.0845,7.1049,7.1133,7.1255,7.1427,7.1558,7.1717,7.1791,7.1932,7.2083,7.2193,7.2368,7.2517,7.2564,7.2743,7.2793,7.2843,7.2877,7.2813,7.2668,7.2533,7.2325,7.2031,7.1695,7.1362,7.1068,7.0936,7.0654,7.0353,7.0164,6.9932,6.9808,6.9632,6.9517,6.9408,6.9353,6.9292,6.9213,6.914,6.9121,6.9154,6.9102,6.8981,6.9021,6.9059,6.9034,6.9097,6.9077,6.9104,6.9057,6.9081,6.9148,6.9146,6.9171,6.925,6.92,6.9215,6.926,6.9278,6.9284,6.9252,6.9267,6.9312,6.9301,6.9269,6.9284,6.9291,6.9309,6.9331,6.9347,6.9302,6.9246,6.9288,6.923,6.924,6.935,6.9303,6.9274,6.9267,6.9292,6.9265,6.9315,6.9294,6.9277,6.9328,6.9256,6.9242,6.9262,6.9263,6.9343,6.9292,6.935,6.9294,6.9302,6.932,6.9298,6.9324,6.9345,6.9361,6.9381,6.9369,6.9379,6.9371,6.935,6.933,6.9403,6.9374,6.9387,6.9374,6.9363,6.9362,6.9318,6.9344,6.9388,6.9402,6.9375,6.9387,6.9377,6.9444,6.9524,6.9483,6.9489,6.9579,6.9616,6.9665,6.9599,6.9767,7.0125,7.0264,7.0251,7.0129,6.9985,6.9811,6.9863,6.9778,6.9621,6.9474,6.9288,6.9356,6.9314,6.932,6.934,6.936,6.9279,6.9313,6.9347,6.9315,6.9342,6.9324,6.9339,6.9296,6.8971,6.824,6.803,6.8152,6.9061,7.135,7.5349,7.8471,7.7969,7.3458,7.0581,6.6912,6.6796,6.7357,6.7191,6.8061,6.7795,6.8486,6.9,6.9938,6.9783,6.9856,6.9673,6.9895,6.9761,6.9943,6.9778,6.9952,6.9968,7.01,7.0029,7.0189,7.0097,7.027,7.0195,7.0335,7.0274,7.0408,7.0411,7.0524,7.0564,7.068,7.0632,7.0733,7.087,7.0984,7.1013,7.109,7.1121,7.1247,7.1369,7.1494,7.1584,7.1679,7.1822,7.1949,7.204,7.2173,7.231,7.2462,7.2609,7.2689,7.2911,7.303,7.3107,7.3234,7.3322,7.337,7.339,7.335,7.3309,7.3186,7.3062,7.2736,7.2417,7.2082,7.1851,7.1505,7.1254,7.0973,7.0803,7.0582,7.0402,7.0271,7.0171,7.0048,7.0026,6.9976,6.9945,6.9872,6.9856,6.9788,6.9742,6.9712,6.9781,6.9631,6.9767,6.9652,6.9681,6.968,6.9724,6.9676,6.9711,6.9682,6.9677,6.9704,6.9718,6.9744,6.976,6.972,6.9785,6.9779,6.9817,6.9796,6.9811,6.9815,6.9801,6.9773,6.984,6.9785,6.9883,6.9822,6.9848,6.9843,6.987,6.982,6.9825,6.9807,6.9788,6.9781,6.9805,6.9795,6.9808,6.9786,6.9789,6.9763,6.9793,6.98,6.9804,6.9769,6.9811,6.9821,6.9754,6.9799,6.9802,6.9792,6.9822,6.9762,6.9809,6.9864,6.9786,6.9812,6.9823,6.9791,6.9803,6.9817,6.9811,6.983,6.982,6.9811,6.9822,6.9779,6.9806,6.9825,6.9823,6.9814,6.9803,6.9789,6.9832,6.9805,6.9782,6.9872,6.9904,6.9922,6.9899,6.9888,6.9931,7.0054,6.9952,6.9992,7.0304,7.0618,7.0743,7.0702,7.0492,7.0284,7.016,7.0168,7.0127,6.9978,6.9831,6.9644,6.9616,6.9678,6.9636,6.9633,6.9585,6.9631,6.9597,6.9611,6.9594,6.9577,6.9551,6.9544,6.956,6.9184,6.839,6.8378,6.8292,6.9214,7.1421,7.5308,7.8399,7.7834,7.3795,6.885,6.7583,6.7863,6.7739,6.8123,6.8238,6.8587,6.8926,6.9593,6.9909,6.9819,6.9798,6.9784,6.9865,6.9855,6.9908,6.9904,6.9962,6.9924,7.0034,7.0052,7.0118,7.01,7.0151,7.0201,7.0236,7.0202,7.0274,7.036,7.0413,7.0419,7.0566,7.0583,7.0605,7.0746,7.0814,7.0887,7.0964,7.1047,7.1152,7.1252,7.1349,7.1453,7.1573,7.1705,7.1743,7.1876,7.2047,7.2187,7.232,7.2439,7.2558,7.2757,7.2859,7.2994,7.3037,7.3133,7.3261,7.3262,7.3216,7.3135,7.2938,7.2726,7.2432,7.2129,7.196,7.1631,7.1272,7.1049,7.0792,7.0559,7.0321,7.0144,7.0004,6.9839,6.9733,6.9694,6.9595,6.953,6.9511,6.9503,6.945,6.9428,6.9402,6.9441,6.9418,6.9372,6.9432,6.9364,6.9369,6.9404,6.9416,6.9393,6.9368,6.9376,6.94,6.9436,6.9374,6.9416,6.9433,6.9436,6.943,6.9493,6.944,6.9478,6.9487,6.9517,6.95,6.9508,6.9528,6.9525,6.9566,6.9533,6.951,6.9507,6.9475,6.9493,6.9502,6.948,6.9475,6.9442,6.9425,6.9382,6.9402,6.9406,6.9402,6.9377,6.9377,6.9405,6.9392,6.9388,6.9355,6.936,6.9352,6.933,6.9374,6.9388,6.9357,6.9376,6.9362,6.9369,6.9406,6.9404,6.9364,6.9366,6.9343,6.9375,6.9396,6.937,6.9342,6.9342,6.9342,6.9358,6.9372,6.9318,6.9328,6.9295,6.9319,6.9321,6.9344,6.9318,6.9342,6.9331,6.9319,6.9341,6.9379,6.9417,6.9459,6.9433,6.9469,6.9523,6.9487,6.9442,6.9728,7.0061,7.0249,7.018,6.9989,6.9804,6.9701,6.9674,6.9657,6.9585,6.9414,6.9205,6.92,6.9156,6.9202,6.9194,6.9159,6.9122,6.9159,6.9176,6.9148,6.9132,6.9136,6.9151,6.9096,6.87,6.7971,6.7856,6.7835,6.8327,6.995,7.3334,7.7165,7.7906,7.4758,6.9722,6.6927,6.727,6.7378,6.7442,6.8042,6.806,6.8688,6.9404,6.9642,6.9569,6.9532,6.9523,6.9533,6.9589,6.9602,6.9657,6.97,6.9711,6.9769,6.9826,6.9856,6.9868,6.993,6.9964,7.0022,7.0031,7.0091,7.015,7.0225,7.0245,7.0344,7.0366,7.0464,7.0506,7.0612,7.0731,7.0814,7.0907,7.0973,7.1102,7.1233,7.1314,7.1431,7.1588,7.1737,7.1915,7.2055,7.2212,7.2255,7.2468,7.2622,7.2749,7.2889,7.2968,7.3091,7.323,7.332,7.3387,7.3353,7.329,7.3216,7.2945,7.2665,7.2409,7.2037,7.1787,7.1457,7.1155,7.1,7.0795,7.0496,7.0385,7.0166,7.0042,6.991,6.9829,6.9747,6.9651,6.9559,6.9556,6.9547,6.9493,6.944,6.9446,6.9405,6.9423,6.9421,6.9378,6.9335,6.93,6.933,6.9301,6.9301,6.9339,6.9357,6.94,6.9402,6.9399,6.9422,6.9389,6.9414,6.9423,6.94,6.9389,6.9313,6.9335,6.9354,6.943,6.9385,6.9413,6.9401,6.943,6.9443,6.9414,6.935,6.9358,6.9368,6.9366,6.9344,6.9286,6.9376,6.9345,6.9382,6.9348,6.9318,6.933,6.9279,6.9262,6.9296,6.9229,6.9233,6.9258,6.9299,6.9299,6.9257,6.9234,6.9249,6.9267,6.9237,6.9181,6.9213,6.922,6.9239,6.9224,6.9178,6.9195,6.9225,6.9232,6.9171,6.9188,6.9148,6.9127,6.9127,6.9141,6.915,6.9193,6.9187,6.9207,6.9132,6.9118,6.9132,6.9206,6.9371,6.9264,6.926,6.9485,6.9747,6.9939,6.9969,6.973,6.9613,6.9477,6.9389,6.9366,6.9158,6.9029,6.8938,6.8935,6.893,6.885,6.8857,6.8827,6.8804,6.8851,6.8852,6.8846,6.8856,6.8851,6.8842,6.8774,6.8508,6.7734,6.7567,6.7758,6.8564,7.0913,7.5023,7.7933,7.6858,7.1861,6.6749,6.5657,6.6032,6.6387,6.6705,6.7223,6.7298,6.7771,6.853,6.921,6.9255,6.9163,6.9186,6.9123,6.9186,6.9168,6.9257,6.9348,6.9462,6.9459,6.946,6.9453,6.9478,6.951,6.9601,6.9652,6.9748,6.9812,6.9812,6.9834,6.9919,6.9987,7.0065,7.0154,7.024,7.0327,7.046,7.0552,7.0658,7.0712,7.0821,7.0859,7.1013,7.1134,7.1305,7.1425,7.1527,7.168,7.1739,7.1965,7.2122,7.2281,7.2465,7.2556,7.268,7.2749,7.2911,7.2935,7.301,7.2964,7.2951,7.2787,7.2469,7.2212,7.1872,7.161,7.1351,7.099,7.0638,7.0384,7.018,6.9972,6.9744,6.9582,6.947,6.9359,6.929,6.9203,6.9209,6.9202,6.9113,6.9135,6.9044,6.8996,6.8963,6.8954,6.8962,6.8968,6.8999,6.9019,6.9006,6.9046,6.9033,6.9008,6.9067,6.9071,6.9073,6.9063,6.9171,6.9124,6.9212,6.9165,6.9225,6.9207,6.9241,6.926,6.9226,6.9232,6.9291,6.9273,6.9338,6.9301,6.93,6.9238,6.9269,6.9269,6.9296,6.9312,6.9282,6.9264,6.9329,6.9294,6.9285,6.931,6.9313,6.9316,6.9225,6.9352,6.9295,6.9342,6.9341,6.9339,6.934,6.9368,6.9438,6.939,6.943,6.9482,6.9457,6.9511,6.9534,6.9563,6.9568,6.9566,6.951,6.9776,6.98,6.9757,6.9984,7.0275,7.0408,7.0462,7.0243,7.0074,6.9995,6.9992,6.9932,6.9773,6.9657,6.9516,6.9504,6.9492,6.9525,6.9481,6.9418,6.9478,6.9488,6.9494,6.9418,6.9448,6.9427,6.9471,6.9482,6.928,6.8625,6.8248,6.8295,6.8487,6.9705,7.2472,7.6841,7.8971,7.6738,7.1418,6.6588,6.6077,6.6902,6.697,6.7579,6.788,6.8071,6.8804,6.96,7.0004,6.9944,6.9932,6.9907,6.9997,6.9967,7.0051,7.0084,7.0107,7.0118,7.0221,7.0295,7.0333,7.0323,7.0398,7.0449,7.0491,7.0537,7.0663,7.0668,7.0742,7.0748,7.0803,7.0874,7.0938,7.1026,7.1162,7.1246,7.1317,7.1468,7.1527,7.1654,7.1793,7.1907,7.2025,7.2209,7.2345,7.2419,7.2581,7.28,7.2905,7.3038,7.3203,7.3334,7.3446,7.3583,7.3687,7.3778,7.3812,7.3791,7.3689,7.3516,7.3288,7.2989,7.2637,7.2305,7.2004,7.1682,7.1354,7.1149,7.1013,7.0837,7.0641,7.0495,7.0339,7.0265,7.0175,7.0113,7.0049,7.0029,6.9968,7.0005,6.9961,6.9923,6.9854,6.9894,6.987,6.9876,6.9897,6.9874,6.9885,6.995,6.9928,6.9927,6.9899,6.9969,6.998,6.9987,6.9985,6.9972,7.0039,7.0056,7.0037,6.9996,7.004,7.0072,7.0037,7.0081,7.0066,7.002,7.0002,7.0038,7.0073,7.0007,7.0016,7.0032,7.0035,7.0013,7.0017,6.9983,7.0016,7.002,6.9987,6.9991,6.9966,6.9998,6.997,6.999,6.9956,6.9993,6.9962,6.9966,6.9994,6.9973,6.9986,6.9963,7.0013,6.9996,6.9949,6.9922,6.9953,7.0001,6.9975,6.9964,6.9965,6.9947,6.9922,6.9956,6.9936,6.9971,6.9935,6.9953,7.0002,7.0118,7.0055,7.0032,7.0084,7.0194,7.0184,7.0076,7.0394,7.0805,7.0959,7.0806,7.0564,7.044,7.0397,7.0355,7.0363,7.0273,7.0125,6.9912,6.9858,6.985,6.9834,6.9866,6.9869,6.9824,6.9801,6.9797,6.9797,6.9851,6.9792,6.9856,6.9761,6.9568,6.8839,6.8452,6.8546,6.9179,7.0885,7.443,7.8158,7.8847,7.5678,7.0512,6.7877,6.811,6.8162,6.8197,6.8683,6.88,6.9459,7.0184,7.0335,7.0265,7.0265,7.0183,7.0275,7.029,7.0295,7.0293,7.0393,7.0395,7.0463,7.05,7.0518,7.0584,7.0609,7.0628,7.0653,7.0685,7.0766,7.0805,7.0878,7.0906,7.0904,7.1008,7.1111,7.1204,7.1293,7.1356,7.1449,7.1487,7.1628,7.175,7.1858,7.1978,7.211,7.2222,7.2399,7.2509,7.266,7.27,7.2856,7.301,7.3199,7.3361,7.3452,7.3619,7.3744,7.382,7.384,7.3905,7.393,7.3834,7.366,7.3424,7.3082,7.2765,7.252,7.2174,7.2038,7.1712,7.1479,7.1254,7.1008,7.0848,7.0666,7.0531,7.0445,7.0339,7.0243,7.0229,7.0175,7.0186,7.0127,7.0097,7.0026,7.0036,6.9999,6.9986,6.9963,6.9967,6.9936,6.9951,6.9932,6.9995,6.9937,6.9956,6.9932,6.9944,6.9968,6.9953,6.9955,6.999,7.0005,6.9965,6.9967,6.9984,6.9976,6.9989,7.0014,7.0012,6.9972,6.9994,7.0026,7.0044,7.0016,7.0019,7.0002,7.0067,7.0042,7.0039,6.9952,7.0015,7.0021,6.9986,6.9987,6.995,6.995,6.9994,6.9943,6.9951,6.9945,6.9945,6.992,6.9926,6.9974,6.9927,6.9945,6.9934,6.9957,6.9911,6.9898,6.9907,6.992,6.9932,6.9921,6.9942,6.9912,6.9899,6.9924,6.9905,6.9914,6.9894,6.9889,6.9893,6.988,6.9897,6.9864,6.9885,6.9871,6.989,6.9837,6.9855,6.9934,6.9929,6.9976,7.0023,6.9972,6.9967,6.9958,7.0061,7.0114,6.9991,7.0232,7.0566,7.08,7.0758,7.0545,7.0363,7.0266,7.0243,7.0201,7.0066,6.9908,6.9709,6.9706,6.9702,6.9681,6.9677,6.964,6.9659,6.9609,6.9605,6.9608,6.9657,6.9617,6.9578,6.9582,6.935,6.8611,6.8234,6.8338,6.904,7.0878,7.252,7.6476,7.8574,7.673,7.2065,6.7857,6.7798,6.801,6.7772,6.8375,6.8355,6.8819,6.9524,6.9915,6.993,6.9836,6.9918,6.9809,6.9893,6.9808,6.997,6.993,7.0037,7.0006,7.0076,7.0043,7.0194,7.0177,7.024,7.0192,7.0314,7.0311,7.0399,7.0421,7.0465,7.049,7.0648,7.0696,7.0744,7.0753,7.0882,7.0951,7.1046,7.1104,7.1207,7.1367,7.1459,7.1608,7.1681,7.1833,7.1973,7.2146,7.227,7.2422,7.2552,7.2716,7.2865,7.3026,7.3078,7.3165,7.3263,7.3404,7.3478,7.3499,7.3411,7.3269,7.3084,7.2772,7.2524,7.2229,7.1829,7.1569,7.1264,7.0997,7.075,7.05,7.0283,7.0235,7.0093,6.9976,6.987,6.9761,6.9655,6.9733,6.9642,6.9607,6.9573,6.9523,6.9495,6.9483,6.948,6.9495,6.9471,6.9431,6.9449,6.9478,6.9492,6.949,6.9485,6.9486,6.9496,6.9478,6.9477,6.9524,6.9549,6.9531,6.9479,6.9505,6.9543,6.9575,6.9547,6.956,6.9591,6.9575,6.9591,6.9561,6.9565,6.9585,6.9593,6.9586,6.9614,6.9539,6.9524,6.9562,6.9567,6.9561,6.9551,6.9504,6.9556,6.9526,6.9505,6.9547,6.95,6.9553,6.9535,6.9516,6.9469,6.9533,6.9496,6.9498,6.95,6.9476,6.9518,6.9483,6.9498,6.9513,6.9456,6.9486,6.9473,6.9524,6.9474,6.9485,6.9479,6.948,6.9501,6.9464,6.9438,6.9474,6.946,6.944,6.944,6.9426,6.9439,6.9389,6.9457,6.9405,6.9431,6.9408,6.9413,6.9395,6.9411,6.9362,6.9399,6.9385,6.9401,6.9401,6.9388,6.9399,6.9385,6.9425,6.9524,6.9497,6.9481,6.9471,6.9638,6.9618,6.9547,6.9893,7.0046,7.0367,7.0245,6.9974,6.9856,6.9775,6.9755,6.9721,6.959,6.9386,6.92,6.9204,6.9212,6.9207,6.9229,6.92,6.9217,6.9194,6.9218,6.9169,6.918,6.9186,6.923,6.9124,6.8993,6.8225,6.7744,6.7885,6.8397,6.9995,7.3508,7.7239,7.7829,7.4575,6.9475,6.6896,6.731,6.741,6.7568,6.8016,6.8065,6.862,6.9363,6.9554,6.9545,6.9471,6.95,6.9481,6.9527,6.9565,6.959,6.9643,6.9645,6.9705,6.9701,6.9757,6.9799,6.9842,6.9918,6.9974,6.9964,7.0025,7.0072,7.0105,7.014,7.0225,7.0304,7.0345,7.0447,7.0477,7.0575,7.0657,7.0752,7.086,7.0995,7.1073,7.1176,7.1247,7.1432,7.163,7.1734,7.1892,7.193,7.21,7.2237,7.2388,7.2527,7.2671,7.2773,7.289,7.2971,7.3048,7.3121,7.3153,7.3103,7.2944,7.2745,7.2424,7.2108,7.1898,7.1559,7.1388,7.1068,7.0805,7.0555,7.0283,7.0082,6.9867,6.9761,6.9648,6.9582,6.9455,6.9362,6.93,6.9237,6.9208,6.9169,6.9179,6.9148,6.912,6.9141,6.9124,6.8997,6.9032,6.902,6.905,6.9044,6.9006,6.9052,6.898,6.9018,6.8949,6.9042,6.9083,6.9098,6.9057,6.9024,6.902,6.8948,6.8975,6.9036,6.9073,6.905,6.9077,6.9044,6.9055,6.9011,6.8959,6.9013,6.8997,6.8967,6.9012,6.8988,6.8995,6.8984,6.8955,6.8909,6.8904,6.8916,6.8962,6.8956,6.8892,6.8919,6.8888,6.8902,6.8889,6.8933,6.8937,6.8939,6.891,6.8871,6.8918,6.8834,6.8831,6.8895,6.8887,6.8868,6.8869,6.8863,6.8878,6.8847,6.8879,6.8826,6.8835,6.879,6.8783,6.8847,6.8757,6.8793,6.8783,6.8711,6.874,6.8748,6.8782,6.873,6.8704,6.8787,6.8758,6.87,6.8742,6.8727,6.8758,6.8663,6.8667,6.8709,6.8736,6.8777,6.8769,6.8765,6.8675,6.8706,6.8954,6.8901,6.8867,6.913,6.9338,6.9438,6.9476,6.9366,6.9149,6.9021,6.8979,6.8992,6.881,6.8678,6.8487,6.8511,6.8481,6.849,6.8419,6.8468,6.8422,6.8456,6.8476,6.8473,6.8463,6.8424,6.8402,6.8438,6.8381,6.7707,6.7236,6.7331,6.7592,6.9133,7.2374,7.6491,7.7587,7.3951,6.8545,6.4882,6.5365,6.5946,6.6226,6.6728,6.6745,6.6946,6.7466,6.8304,6.8746,6.8736,6.8625,6.872,6.8722,6.8808,6.8786,6.8923,6.892,6.8951,6.8899,6.9049,6.9086,6.913,6.9175,6.9193,6.9241,6.9344,6.9394,6.9439,6.9492,6.9537,6.954,6.9654,6.9732,6.9804,6.9857,6.9958,7.0101,7.014,7.0305,7.0377,7.0457,7.0565,7.064,7.0757,7.0897,7.1007,7.1152,7.1295,7.1473,7.1572,7.1741,7.189,7.209,7.2151,7.2216,7.2362,7.2383,7.2421,7.2433,7.2303,7.2156,7.1896,7.1675,7.1372,7.1074,7.0757,7.0461,7.015,6.9892,6.964,6.9439,6.9223,6.9124,6.9008,6.8878,6.8789,6.8745,6.8699,6.8689,6.8624,6.8559,6.8578,6.86,6.8551,6.8578,6.847,6.8533,6.8569,6.8569,6.8574,6.8569,6.8595,6.8619,6.8669,6.8588,6.8646,6.863,6.8692,6.8721,6.8755,6.8784,6.8751,6.8775,6.8716,6.8758,6.8784,6.8809,6.8799,6.8783,6.8808,6.881,6.8735,6.8762,6.8791,6.8778,6.8781,6.8783,6.8764,6.8746,6.876,6.8776,6.8765,6.8795,6.876,6.8789,6.8822,6.8772,6.877,6.8871,6.8824,6.8807,6.8827,6.8782,6.8831,6.8856,6.8865,6.8869,6.8848,6.8894,6.8891,6.8909,6.8889,6.8826,6.8863,6.89,6.8956,6.8961,6.8842,6.8892,6.8947,6.8986,6.899,6.8987,6.9069,6.9008,6.9084,6.9234,6.9122,6.909,6.9373,6.9711,6.9923,6.9875,6.9618,6.95,6.9377,6.9426,6.9342,6.9115,6.9025,6.8862,6.8884,6.888,6.8884,6.8878,6.8903,6.882,6.8838,6.8869,6.8864,6.8893,6.8862,6.8859,6.8827,6.8586,6.791,6.7587,6.774,6.829,7.022,7.3892,7.7558,7.7858,7.3572,6.8263,6.5667,6.6169,6.6506,6.6499,6.7078,6.7208,6.7648,6.8264,6.91,6.9248,6.9254,6.9188,6.9266,6.9252,6.9285,6.93,6.9414,6.9421,6.9452,6.9484,6.9582,6.958,6.9662,6.9662,6.9677,6.9751,6.9839,6.986,6.9909,6.9896,7.0043,7.006,7.0124,7.0234,7.0337,7.0438,7.0511,7.0592,7.0634,7.083,7.0924,7.0987,7.1135,7.128,7.1344,7.1501,7.1636,7.1834,7.1963,7.2109,7.2244,7.2408,7.2584,7.2693,7.2755,7.2893,7.2958,7.2982,7.2961,7.2909,7.273,7.2511,7.2257,7.1997,7.1608,7.1305,7.0967,7.0776,7.0459,7.0251,7.0073,6.9881,6.9783,6.9623,6.9515,6.942,6.9358,6.9336,6.9307,6.9273,6.9211,6.9233,6.9136,6.9127,6.9094,6.9099,6.9084,6.9038,6.9117,6.9115,6.9152,6.9118,6.9132,6.9158,6.913,6.917,6.9191,6.929,6.9291,6.9259,6.9272,6.9246,6.9257,6.9316,6.9281,6.9283,6.9285,6.9323,6.9352,6.9348,6.9344,6.9338,6.9334,6.9345,6.932,6.9359,6.9329,6.929,6.9326,6.9287,6.9359,6.9318,6.9317,6.9317,6.9337,6.933,6.9295,6.9296,6.928,6.9318,6.9303,6.9317,6.9302,6.93,6.9251,6.9351,6.9346,6.9366,6.9372,6.9373,6.9334,6.9396,6.9403,6.9403,6.939,6.9391,6.9379,6.9376,6.9405,6.9435,6.9417,6.9411,6.9401,6.9449,6.9445,6.9403,6.9427,6.9399,6.9394,6.9457,6.9414,6.9434,6.9431,6.9398,6.9409,6.9434,6.9459,6.95,6.952,6.96,6.9588,6.9672,6.9691,6.9603,6.9747,6.9917,7.0192,7.0394,7.0327,7.0122,7.0025,6.9869,6.985,6.979,6.9691,6.9486,6.9361,6.9328,6.9332,6.9342,6.9308,6.9301,6.9316,6.9362,6.9375,6.9357,6.9358,6.9286,6.9347,6.9282,6.8818,6.8106,6.7961,6.821,6.931,7.1861,7.582,7.8239,7.7003,7.2533,6.8013,6.7416,6.772,6.759,6.774,6.8144,6.8216,6.877,6.9642,6.9741,6.9727,6.9648,6.9676,6.9693,6.9741,6.9719,6.9781,6.9805,6.9892,6.9894,6.9949,6.9974,7.0037,7.0025,7.0087,7.01,7.0157,7.0216,7.0251,7.0291,7.0393,7.0478,7.0559,7.0564,7.0674,7.0787,7.0829,7.0963,7.1036,7.1141,7.1245,7.1399,7.1443,7.1539,7.17,7.1798,7.1949,7.2086,7.2249,7.2361,7.2542,7.2676,7.2788,7.2913,7.3064,7.3149,7.3265,7.3318,7.334,7.3339,7.3218,7.3102,7.2969,7.2722,7.2421,7.2134,7.1788,7.1555,7.1273,7.1028,7.0767,7.0562,7.0382,7.0227,7.0085,7.0014,6.9909,6.9867,6.9801,6.9759,6.9716,6.9652,6.9595,6.968,6.9625,6.9576,6.9551,6.9565,6.9608,6.9545,6.9588,6.9594,6.9608,6.9564,6.9552,6.9588,6.9596,6.9603,6.9612,6.9624,6.9587,6.9645,6.9609,6.9658,6.9654,6.9655,6.9664,6.973,6.9728,6.9709,6.9705,6.9694,6.9712,6.9752,6.9705,6.9753,6.9743,6.9724,6.9736,6.9716,6.9696,6.9687,6.9697,6.9619,6.9657,6.9657,6.9662,6.9636,6.9651,6.961,6.9652,6.9603,6.967,6.9667,6.9668,6.9658,6.9619,6.9698,6.9698,6.969,6.971,6.9676,6.9714,6.972,6.9704,6.9698,6.9678,6.9705,6.9725,6.9718,6.9697,6.9608,6.9683,6.9895,6.969,6.9619,6.9646,6.9634,6.9623,6.9676,6.9684,6.9634,6.9651,6.9676,6.9723,6.978,6.9701,6.9616,6.9629,6.9646,6.959,6.9682,6.9832,6.9649,6.9643,6.9673,6.9704,6.9702,6.973,6.9739,6.9725,6.9681,6.9849,6.9893,6.9791,6.9946,7.0284,7.0551,7.0557,7.0344,7.0185,6.9988,6.993,6.9938,6.9898,6.9677,6.9535,6.9475,6.94,6.9479,6.9468,6.9448,6.9409,6.9471,6.941,6.9453,6.9418,6.9424,6.9443,6.9378,6.9141,6.833,6.8005,6.8114,6.884,6.9673,7.248,7.6536,7.8224,7.6146,7.1294,6.7533,6.7479,6.7863,6.7672,6.831,6.8104,6.871,6.9373,6.9829,6.9792,6.9747,6.9722,6.9745,6.975,6.9802,6.9815,6.984,6.9877,6.9929,6.9968,7.0003,7.0051,7.0083,7.0067,7.0174,7.0247,7.0222,7.0296,7.0342,7.0404,7.0421,7.0502,7.0568,7.0647,7.0701,7.0809,7.0848,7.0945,7.1024,7.1191,7.1327,7.1407,7.1624,7.1773,7.1747,7.1939,7.2017,7.215,7.2282,7.2467,7.2594,7.2769,7.2795,7.289,7.3012,7.3103,7.3205,7.3307,7.3317,7.3236,7.3179,7.3065,7.2791,7.2545,7.2258,7.1924,7.1698,7.14,7.1159,7.0884,7.0617,7.0514,7.0328,7.0171,7.0045,6.9938,6.9844,6.9715,6.9716,6.9615,6.9592,6.9648,6.9594,6.9516,6.9529,6.9433,6.9469,6.9454,6.947,6.9462,6.9451,6.9448,6.9479,6.9461,6.9517,6.9455,6.9514,6.9533,6.9499,6.9529,6.9516,6.9522,6.9543,6.9499,6.9516,6.9566,6.9562,6.9588,6.9548,6.9565,6.9559,6.9603,6.9534,6.9544,6.9527,6.9563,6.9538,6.9535,6.9498,6.95,6.951,6.9486,6.9476,6.9546,6.9491,6.9478,6.9539,6.9489,6.9462,6.9472,6.947,6.9476,6.9494,6.9514,6.947,6.9453,6.945,6.9471,6.9478,6.9462,6.945,6.9434,6.9487,6.945,6.946,6.9494,6.941,6.9499,6.9449,6.9485,6.9459,6.9477,6.9496,6.945,6.9481,6.9416,6.9447,6.9447,6.9528,6.9441,6.9455,6.9419,6.9417,6.9431,6.9454,6.9449,6.9425,6.9427,6.9426,6.9442,6.9407,6.9441,6.9454,6.9455,6.9407,6.9438,6.942,6.9526,6.9568,6.9586,6.9558,6.955,6.9687,6.9715,6.9651,6.9783,7.0136,7.0273,7.0466,7.0329,7.0128,6.9955,6.988,6.9879,6.9756,6.9626,6.9384,6.9323,6.9328,6.933,6.9339,6.9314,6.9304,6.9299,6.9266,6.9269,6.9246,6.9251,6.9229,6.9238,6.9168,6.8642,6.796,6.7867,6.8109,6.9189,7.1867,7.5851,7.8005,7.6244,7.1538,6.7248,6.7136,6.7487,6.7344,6.755,6.7876,6.8011,6.8547,6.9422,6.9501,6.9479,6.9414,6.9418,6.9444,6.9451,6.9481,6.9491,6.9532,6.9614,6.9613,6.9623,6.9647,6.976,6.9762,6.9776,6.9844,6.9884,6.9908,6.9975,7.0032,7.0077,7.0085,7.0186,7.0232,7.0388,7.0414,7.0476,7.053,7.061,7.0704,7.0778,7.0915,7.1067,7.1116,7.1259,7.1337,7.1483,7.1597,7.1742,7.1896,7.199,7.2104,7.2253,7.2337,7.2533,7.2614,7.2675,7.281,7.2856,7.2834,7.2709,7.2585,7.25,7.2243,7.1922,7.1689,7.1289,7.0983,7.0697,7.0406,7.022,6.9999,6.9779,6.9694,6.9532,6.9394,6.9244,6.9112,6.9114,6.9065,6.9001,6.899,6.8962,6.8931,6.8929,6.891,6.8935,6.8866,6.8806,6.8869,6.8828,6.8852,6.8785,6.8836,6.8858,6.8879,6.8815,6.879,6.8791,6.889,6.884,6.8896,6.8816,6.8898,6.8904,6.8909,6.8906,6.8847,6.8828,6.8847,6.8892,6.8867,6.891,6.8862,6.8877,6.8848,6.8836,6.8813,6.8818,6.8852,6.88,6.8805,6.8818,6.8752,6.8821,6.885,6.8844,6.885,6.8841,6.8849,6.8824,6.8791,6.8815,6.8817,6.8796,6.8803,6.8808,6.8839,6.8783,6.8764,6.8808,6.8797,6.8843,6.8776,6.8805,6.8847,6.8812,6.878,6.88,6.8794,6.8849,6.8847,6.8786,6.8784,6.8761,6.8821,6.8828,6.8815,6.8799,6.8817,6.8742,6.8759,6.877,6.8745,6.8735,6.875,6.8803,6.8846,6.883,6.8874,6.8804,6.8851,6.9045,6.9023,6.8978,6.9216,6.9458,6.9587,6.9641,6.9484,6.9394,6.9181,6.9186,6.9035,6.8846,6.8789,6.8639,6.8677,6.8631,6.8616,6.8689,6.8637,6.8657,6.87,6.8641,6.8557,6.8627,6.8605,6.861,6.8594,6.8514,6.7961,6.7489,6.758,6.7935,6.9633,7.3139,7.7189,7.7714,7.33,6.7852,6.4654,6.5276,6.5858,6.6242,6.6872,6.6895,6.7164
