7.6209,7.5681,7.5215,7.4932,7.3015,7.158,8.2844,8.4846,8.2411,8.1608,7.9463,7.9508,7.7967,7.7598,7.6274,7.6189,7.5088,7.507,7.428,7.4334,7.3617,7.3948,7.344,7.3732,7.1758,7.3968,7.9866,8.0143,7.8366,7.7483,7.6432,7.5568,7.4461,7.4769,7.4982,7.6828,7.8464,8.0145,8.0294,8.024,7.8514,7.6469,7.3502,7.2062,7.1655,7.1531,7.0975,7.0749,7.0489,7.0501,7.0218,7.0052,6.9721,6.9644,6.9561,6.9568,6.9428,6.9452,6.9446,6.9469,6.9575,6.9583,6.956,6.9506,6.9538,6.946,6.9476,6.9306,6.9402,6.9294,6.9319,6.9232,6.9236,6.9128,6.919,6.9117,6.9176,6.9047,6.9124,6.901,6.9128,6.9026,6.9124,6.8983,6.915,6.9015,6.9017,6.8878,6.8972,6.9048,6.9071,6.8854,6.9225,6.9257,6.9529,6.9314,6.9271,6.9178,6.9366,6.9193,6.9374,6.9319,6.9616,6.9566,6.9656,6.9197,6.926,6.9185,6.9366,6.9275,6.9084,6.871,6.866,6.8412,6.8536,6.8569,6.8573,6.8526,6.8653,6.8577,6.8545,6.8444,6.8541,6.8477,6.8694,6.8759,6.8808,6.8437,6.8428,6.8662,6.9203,6.9282,6.9299,6.9141,6.8879,6.8935,6.9313,6.9389,6.9324,6.9097,6.9087,6.9056,6.9054,6.8861,6.8697,6.8369,6.8777,6.9023,6.8944,6.8631,6.8614,6.8876,6.8846,6.8693,6.8769,6.9095,6.9206,6.938,6.9403,6.9328,6.9458,6.9608,6.9604,6.9623,6.9492,6.939,6.9371,6.941,6.9291,6.9314,6.9243,6.9256,6.9339,6.9319,6.9376,6.95,6.9562,6.9762,6.9758,6.9544,6.9389,7.0013,7.0378,7.1471,7.2953,7.5002,7.7071,7.7947,7.8058,7.6913,7.4437,7.2338,7.1141,7.0728,7.012,7.013,7.0355,7.0355,7.0134,7.0044,6.9897,6.99,6.9825,6.9827,6.978,6.9736,6.9723,6.9741,6.9617,6.9329,6.9323,6.9383,6.9319,6.9725,6.98,6.9875,6.982,6.9926,7.0007,7.0002,6.9936,7.0055,7.0121,7.0218,7.021,7.0363,7.0344,7.0453,7.0426,7.0579,7.0565,7.0712,7.0698,7.0826,7.0865,7.0949,7.0868,7.0924,7.0902,7.0941,7.0895,7.0905,7.0777,7.0754,7.0716,7.0776,7.0658,7.0667,7.0705,7.0777,7.0763,7.0855,7.092,7.0948,7.0942,7.104,7.0906,7.0893,7.0863,7.0777,7.0734,7.0675,7.0565,7.0591,7.0558,7.0636,7.067,7.07,7.0697,7.0714,7.0758,7.0749,7.0749,7.0779,7.0851,7.0861,7.092,7.0924,7.0843,7.0797,7.0862,7.0905,7.0904,7.0861,7.0944,7.0976,7.1038,7.0993,7.0935,7.1006,7.1068,7.1113,7.1207,7.1208,7.1278,7.1316,7.1389,7.143,7.1471,7.1612,7.1749,7.1837,7.189,7.1948,7.2063,7.217,7.2391,7.2324,7.2411,7.2387,7.2445,7.2477,7.2684,7.2729,7.2912,7.2903,7.3015,7.3038,7.2964,7.2951,7.1948,7.161,7.1999,7.2174,7.2334,7.2612,7.2897,7.2872,7.2992,7.2889,7.2897,7.2914,7.2862,7.2732,7.2802,7.262,7.2597,7.254,7.2567,7.2483,7.245,7.2522,7.2779,7.2791,7.2832,7.2811,7.2863,7.2772,7.3175,7.3802,7.4928,7.6423,7.866,7.9783,8.0729,8.096,8.0442,7.8673,7.651,7.4728,7.3784,7.3759,7.3531,7.3419,7.3246,7.3198,7.3057,7.3105,7.3094,7.3122,7.3072,7.3214,7.324,7.3418,7.342,7.338,7.3396,7.3546,7.3551,7.3651,7.3658,7.3828,7.38,7.3822,7.3796,7.3826,7.3929,7.3933,7.3912,7.4044,7.4129,7.4092,7.4123,7.4177,7.3665,7.229,7.2497,7.3023,7.3407,7.3816,7.3983,7.4166,7.4321,7.4419,7.4513,7.4511,7.4625,7.4821,7.4786,7.4906,7.4897,7.4957,7.5017,7.5176,7.5231,7.5345,7.5359,7.5504,7.5618,7.5771,7.5848,7.5922,7.5945,7.6071,7.6176,7.6221,7.6063,7.6153,7.6138,7.6187,7.6221,7.6192,7.6145,7.6103,7.6175,7.6183,7.6123,7.6198,7.6234,7.6213,7.6236,7.6177,7.6213,7.6196,7.6321,7.6278,7.6242,7.6265,7.6239,7.6312,7.6336,7.6221,7.6214,7.6273,7.6287,7.6365,7.629,7.6318,7.6292,7.6328,7.6295,7.6278,7.6159,7.6145,7.6172,7.6181,7.609,7.6093,7.6082,7.6104,7.6212,7.62,7.6177,7.6209,7.6172,7.6255,7.6263,7.6214,7.6225,7.6297,7.6284,7.6405,7.6288,7.6386,7.6495,7.6632,7.6794,7.6816,7.6719,7.6821,7.686,7.6927,7.6957,7.6827,7.6884,7.7032,7.7093,7.7205,7.7214,7.7207,7.7351,7.7249,7.7205,7.7104,7.7043,7.6975,7.6912,7.681,7.678,7.678,7.6822,7.6865,7.688,7.6804,7.6907,7.6931,7.6989,7.6925,7.6878,7.6697,7.6953,7.7596,7.8618,8.0152,8.2253,8.3163,8.4221,8.4627,8.4106,8.2526,8.0559,7.8797,7.7785,7.7852,7.7748,7.773,7.7568,7.7542,7.7412,7.7432,7.74,7.7531,7.7457,7.7465,7.7416,7.7411,7.7476,7.7507,7.7563,7.7576,7.7486,7.7543,7.765,7.7606,7.7645,7.772,7.7799,7.7936,7.8051,7.8017,7.8012,7.8092,7.8099,7.8168,7.8128,7.8191,7.8271,7.8369,7.8425,7.8468,7.8534,7.8508,7.8549,7.862,7.8475,7.8545,7.8502,7.8526,7.8575,7.8584,7.8524,7.8487,7.8483,7.8579,7.8516,7.8546,7.8571,7.8547,7.8567,7.8553,7.8636,7.861,7.8784,7.8873,7.8938,7.8869,7.8889,7.8888,7.8879,7.8843,7.8713,7.8659,7.869,7.8624,7.8606,7.8528,7.8428,7.8405,7.8401,7.8402,7.8407,7.8379,7.8441,7.8475,7.8465,7.8448,7.8393,7.8448,7.8547,7.856,7.8496,7.8446,7.8419,7.8435,7.8457,7.8445,7.8411,7.8403,7.844,7.8483,7.8501,7.8443,7.8546,7.8474,7.8475,7.8498,7.8423,7.848,7.8544,7.8502,7.8566,7.8418,7.8448,7.8424,7.8388,7.8372,7.8327,7.8349,7.8238,7.8314,7.8268,7.8293,7.8191,7.8157,7.8231,7.8199,7.8156,7.8148,7.821,7.8138,7.8189,7.8155,7.8284,7.832,7.8324,7.8433,7.842,7.8388,7.841,7.8433,7.844,7.8479,7.8469,7.8588,7.8711,7.871,7.8689,7.8606,7.8457,7.8454,7.8412,7.8293,7.8164,7.8029,7.7963,7.7976,7.7948,7.7881,7.7899,7.7913,7.7967,7.7988,7.795,7.7983,7.785,7.772,7.7804,7.8242,7.9036,8.026,8.2333,8.4442,8.554,8.5723,8.5258,8.3737,8.1739,7.9826,7.8861,7.8798,7.8536,7.8521,7.8337,7.8168,7.8092,7.8109,7.802,7.8061,7.8005,7.8011,7.803,7.8038,7.8094,7.8055,7.8065,7.8078,7.8137,7.8114,7.8071,7.8171,7.8247,7.8247,7.8352,7.8327,7.8315,7.8361,7.8404,7.8436,7.8419,7.8446,7.848,7.854,7.8584,7.8616,7.8632,7.8649,7.8735,7.8904,7.8878,7.8887,7.8958,7.8988,7.9106,7.9133,7.9021,7.904,7.9092,7.9153,7.9145,7.9115,7.9152,7.9112,7.9132,7.9208,7.92,7.9222,7.9261,7.9356,7.9389,7.9416,7.9532,7.9493,7.9474,7.9484,7.9418,7.9364,7.9341,7.9289,7.9222,7.9102,7.9033,7.9049,7.9018,7.9156,7.9097,7.9001,7.9045,7.9125,7.9128,7.9103,7.9082,7.9126,7.9186,7.9258,7.9263,7.9229,7.9265,7.9291,7.9314,7.9345,7.9287,7.9245,7.9368,7.9364,7.9361,7.9352,7.9345,7.9335,7.9413,7.9383,7.9327,7.9328,7.9284,7.9309,7.9358,7.9366,7.9322,7.9319,7.9299,7.9325,7.9282,7.9251,7.9245,7.9292,7.9239,7.9141,7.9088,7.9091,7.9113,7.911,7.9064,7.8945,7.8995,7.9044,7.9033,7.9029,7.8965,7.8918,7.9008,7.8972,7.8948,7.892,7.8847,7.8901,7.896,7.9007,7.8919,7.8928,7.8954,7.9103,7.9327,7.9186,7.9193,7.9206,7.9304,7.929,7.9252,7.9201,7.9293,7.9314,7.9434,7.9486,7.9448,7.9401,7.9491,7.9396,7.9271,7.9204,7.9081,7.9027,7.8876,7.8732,7.8687,7.8695,7.8676,7.867,7.8703,7.8673,7.8651,7.8609,7.8663,7.8655,7.8437,7.8474,7.9053,7.9966,8.0553,8.2349,8.4425,8.6138,8.6716,8.6559,8.5373,8.3309,8.1334,7.9861,7.9706,7.9433,7.9211,7.9019,7.9006,7.8887,7.8899,7.8793,7.8858,7.8836,7.8888,7.8842,7.8904,7.8925,7.8935,7.8966,7.8944,7.8858,7.8904,7.8922,7.9023,7.9077,7.9071,7.9037,7.907,7.8996,7.8992,7.9002,7.8997,7.9026,7.9024,7.9041,7.901,7.9117,7.9059,7.9158,7.916,7.9149,7.912,7.9205,7.9237,7.9206,7.9203,7.9225,7.9225,7.924,7.9223,7.923,7.9152,7.9169,7.9177,7.9225,7.9211,7.9197,7.9142,7.9237,7.9329,7.9374,7.9353,7.9415,7.9515,7.9558,7.9662,7.9689,7.963,7.9611,7.9616,7.9604,7.9452,7.936,7.9343,7.9286,7.9295,7.9218,7.9222,7.9221,7.9218,7.9226,7.9172,7.9143,7.9215,7.923,7.9238,7.9279,7.9196,7.9232,7.923,7.9286,7.9283,7.9207,7.9164,7.9256,7.9245,7.9218,7.9129,7.9197,7.9175,7.9188,7.9126,7.9095,7.9121,7.9073,7.9099,7.9109,7.9026,7.8989,7.9021,7.8989,7.8989,7.8891,7.8846,7.882,7.8828,7.8874,7.8764,7.8701,7.8692,7.8663,7.8716,7.8711,7.867,7.8756,7.8768,7.8742,7.8658,7.8558,7.8639,7.8635,7.8633,7.865,7.8536,7.8552,7.8607,7.8629,7.8564,7.8543,7.8586,7.8616,7.8578,7.8622,7.853,7.8552,7.8629,7.8666,7.8677,7.861,7.8616,7.8751,7.8898,7.8931,7.8853,7.8822,7.8848,7.9001,7.8935,7.8856,7.902,7.9088,7.9176,7.9259,7.9262,7.9269,7.9354,7.9386,7.9323,7.9157,7.901,7.8901,7.8861,7.8703,7.863,7.855,7.8554,7.868,7.8656,7.8576,7.8643,7.8635,7.8629,7.8721,7.8662,7.8393,7.8403,7.8946,7.985,8.111,8.3048,8.5094,8.6094,8.6321,8.5799,8.4155,8.206,8.036,7.9589,7.952,7.9209,7.9104,7.9077,7.9055,7.9043,7.8927,7.8778,7.8912,7.8948,7.9003,7.8951,7.8786,7.8852,7.8864,7.8909,7.8884,7.8893,7.8832,7.8963,7.8942,7.9007,7.8963,7.8953,7.8961,7.8999,7.9049,7.909,7.9102,7.9185,7.9247,7.9262,7.9211,7.9374,7.9296,7.9373,7.9283,7.9311,7.9363,7.9347,7.9394,7.9356,7.9291,7.936,7.9388,7.9462,7.95,7.9434,7.9326,7.9481,7.9449,7.9541,7.9457,7.9371,7.9438,7.9439,7.9509,7.9456,7.9464,7.955,7.9636,7.9685,7.9731,7.9676,7.9686,7.97,7.9659,7.9546,7.9449,7.9463,7.94,7.9332,7.9265,7.9132,7.9203,7.9242,7.9208,7.9149,7.9162,7.9149,7.9155,7.922,7.9242,7.9235,7.9234,7.9213,7.9315,7.927,7.9328,7.9272,7.9314,7.929,7.9382,7.9312,7.929,7.9309,7.9272,7.9445,7.9254,7.9323,7.9327,7.9278,7.9319,7.9183,7.9189,7.9207,7.9225,7.9131,7.915,7.9053,7.9034,7.9016,7.9038,7.8982,7.8928,7.8915,7.8951,7.8868,7.886,7.8846,7.8815,7.8796,7.8864,7.8895,7.8834,7.8801,7.879,7.8777,7.8837,7.8775,7.8746,7.8657,7.87,7.8732,7.8684,7.8699,7.8703,7.873,7.8719,7.8723,7.8635,7.8618,7.874,7.879,7.8972,7.8927,7.8846,7.8943,7.8977,7.8957,7.89,7.8943,7.9002,7.9087,7.9075,7.9122,7.9033,7.907,7.9102,7.9068,7.8898,7.8809,7.8731,7.8617,7.8566,7.8325,7.8252,7.8286,7.8266,7.8317,7.8264,7.8172,7.8129,7.8194,7.8206,7.8123,7.8,7.7886,7.7865,7.8545,7.9553,8.0928,8.2899,8.4699,8.5381,8.5395,8.4421,8.286,8.0803,7.9015,7.8673,7.8515,7.8407,7.8299,7.8202,7.8162,7.8094,7.8,7.7966,7.804,7.8044,7.7986,7.7918,7.7957,7.7985,7.7975,7.7993,7.799,7.8048,7.8025,7.8002,7.7968,7.7998,7.7993,7.7997,7.8036,7.8057,7.7948,7.7967,7.8005,7.7953,7.7959,7.7934,7.7903,7.7957,7.8005,7.8036,7.7974,7.8044,7.8069,7.8092,7.8076,7.807,7.8104,7.8096,7.8199,7.8152,7.813,7.8108,7.8153,7.8194,7.816,7.8092,7.806,7.8075,7.8094,7.8095,7.8109,7.807,7.8136,7.8243,7.8233,7.8251,7.8252,7.8223,7.8288,7.8224,7.8185,7.8048,7.8038,7.7984,7.7864,7.7882,7.7712,7.7688,7.7654,7.7814,7.7643,7.7604,7.7612,7.7663,7.7665,7.7706,7.766,7.7675,7.7649,7.7689,7.7681,7.7679,7.7631,7.7619,7.7687,7.7634,7.7545,7.754,7.7513,7.7552,7.7549,7.7425,7.7431,7.7357,7.7376,7.7367,7.7347,7.7289,7.7309,7.7289,7.7287,7.72,7.7164,7.7136,7.714,7.711,7.7119,7.7012,7.6992,7.7023,7.7038,7.6938,7.6922,7.6809,7.6839,7.6867,7.6841,7.6784,7.6768,7.6751,7.6742,7.6719,7.6644,7.6611,7.6607,7.6705,7.6661,7.6588,7.6607,7.66,7.6679,7.6652,7.6627,7.6494,7.653,7.6597,7.6591,7.6566,7.6558,7.6557,7.652,7.6583,7.6603,7.6463,7.6569,7.657,7.6609,7.6604,7.6558,7.6571,7.6598,7.6696,7.6875,7.6824,7.6853,7.6849,7.6884,7.693,7.684,7.6851,7.6885,7.6949,7.7032,7.7071,7.7082,7.7079,7.7141,7.6969,7.6827,7.6796,7.6735,7.6674,7.6596,7.6472,7.6341,7.6302,7.6333,7.6332,7.6272,7.6281,7.6234,7.6323,7.6336,7.6176,7.5877,7.5999,7.6501,7.7449,7.8028,7.9662,8.1751,8.3624,8.4108,8.4023,8.3154,8.1144,7.904,7.7446,7.7162,7.6809,7.6631,7.6458,7.6422,7.6185,7.6125,7.6018,7.6074,7.6095,7.6079,7.6047,7.5997,7.6037,7.6058,7.6147,7.6128,7.6155,7.6196,7.623,7.6241,7.6282,7.6261,7.636,7.6404,7.6384,7.6401,7.6435,7.6412,7.6458,7.6412,7.6498,7.6455,7.6512,7.6562,7.6584,7.6604,7.6549,7.6591,7.6581,7.6628,7.6651,7.6619,7.6647,7.6682,7.6748,7.6697,7.669,7.6648,7.6646,7.6696,7.6678,7.6622,7.6584,7.6556,7.6569,7.6632,7.6634,7.657,7.6652,7.6663,7.6685,7.6704,7.6735,7.6777,7.6764,7.6758,7.6753,7.6655,7.6599,7.6564,7.6517,7.6446,7.6417,7.6349,7.6345,7.6412,7.6392,7.6323,7.6379,7.6354,7.6384,7.6446,7.64,7.6391,7.6343,7.6427,7.6494,7.6507,7.6521,7.653,7.6556,7.654,7.6438,7.6411,7.6421,7.6458,7.641,7.6305,7.6326,7.63,7.6309,7.6277,7.6203,7.6216,7.621,7.6188,7.6188,7.617,7.6038,7.6018,7.6078,7.6093,7.6135,7.6024,7.6017,7.6033,7.6002,7.6071,7.5983,7.5991,7.5992,7.5997,7.5989,7.5969,7.5912,7.5952,7.5988,7.5951,7.5954,7.5942,7.5932,7.5958,7.5938,7.5954,7.5893,7.5928,7.5985,7.6021,7.5987,7.5982,7.5946,7.5975,7.5986,7.5979,7.5936,7.593,7.5947,7.596,7.5958,7.5912,7.5922,7.5944,7.5931,7.5927,7.5873,7.5874,7.5862,7.5913,7.5905,7.586,7.5843,7.5899,7.5949,7.5917,7.5907,7.6035,7.6095,7.6179,7.6188,7.6138,7.6162,7.6206,7.6234,7.6201,7.6284,7.6432,7.6572,7.662,7.6656,7.6618,7.6508,7.6381,7.6349,7.6339,7.622,7.599,7.5902,7.5936,7.6019,7.5978,7.5924,7.5987,7.6059,7.6061,7.602,7.5948,7.5699,7.5917,7.6222,7.7036,7.8171,7.9922,8.2156,8.3719,8.4054,8.3883,8.2694,8.0687,7.8714,7.7365,7.7145,7.6874,7.6714,7.6643,7.6562,7.6435,7.6396,7.6392,7.641,7.6415,7.6431,7.6326,7.645,7.6453,7.6461,7.6471,7.6505,7.6511,7.6563,7.6633,7.6675,7.6744,7.6786,7.6824,7.6947,7.6937,7.6964,7.6946,7.7048,7.7058,7.7202,7.7199,7.7267,7.7298,7.737,7.7466,7.7518,7.7559,7.7648,7.7771,7.783,7.7875,7.7946,7.8032,7.807,7.8064,7.8052,7.8072,7.8094,7.8157,7.8102,7.8065,7.8068,7.805,7.8034,7.8124,7.8089,7.8137,7.8087,7.8171,7.8255,7.8339,7.8423,7.8497,7.8594,7.8564,7.8542,7.8579,7.8589,7.8466,7.8431,7.8443,7.8313,7.8231,7.8226,7.8347,7.8396,7.8268,7.8242,7.8222,7.8271,7.8336,7.8239,7.8259,7.8297,7.8315,7.8308,7.8345,7.8326,7.8269,7.8331,7.8327,7.8301,7.8249,7.818,7.8168,7.8184,7.8246,7.8129,7.812,7.8123,7.8198,7.8188,7.801,7.7949,7.7953,7.7931,7.7863,7.7841,7.776,7.7679,7.7659,7.7581,7.7487,7.7458,7.7512,7.7524,7.7475,7.7381,7.7372,7.738,7.7423,7.7433,7.7368,7.7296,7.728,7.7269,7.7281,7.7249,7.7255,7.7187,7.7222,7.7172,7.711,7.7039,7.7047,7.7061,7.7103,7.6974,7.6902,7.6931,7.696,7.7019,7.7031,7.6926,7.6936,7.6998,7.6999,7.6966,7.6875,7.6873,7.6906,7.6905,7.6796,7.6751,7.6716,7.6657,7.6815,7.6895,7.6968,7.7005,7.6944,7.701,7.704,7.705,7.6944,7.6974,7.6933,7.6916,7.701,7.7019,7.6908,7.6778,7.6703,7.6602,7.6391,7.6277,7.6245,7.6187,7.6108,7.5899,7.5696,7.5816,7.5777,7.5692,7.5533,7.5555,7.5584,7.5541,7.5516,7.5369,7.5165,7.5264,7.5889,7.6812,7.8216,8.018,8.1109,8.2254,8.2749,8.2316,8.0922,7.8958,7.7078,7.5713,7.5687,7.5539,7.5497,7.5446,7.5379,7.5307,7.5173,7.5131,7.5186,7.5212,7.511,7.504,7.5081,7.5046,7.5189,7.5093,7.5039,7.5014,7.5033,7.5071,7.5072,7.5075,7.5155,7.517,7.5172,7.5189,7.5188,7.5255,7.5236,7.5282,7.5297,7.5282,7.5288,7.5295,7.5344,7.5306,7.5332,7.5318,7.5394,7.5434,7.5589,7.5551,7.5462,7.5578,7.5618,7.5591,7.5569,7.555,7.5572,7.5598,7.5563,7.5587,7.5512,7.554,7.5504,7.5526,7.5559,7.5462,7.5539,7.5569,7.5722,7.5718,7.5763,7.5841,7.5843,7.5841,7.5764,7.5816,7.5808,7.5754,7.5723,7.5667,7.5581,7.545,7.5469,7.5441,7.5473,7.5464,7.5382,7.5403,7.5448,7.5472,7.5405,7.5485,7.5424,7.5461,7.549,7.5496,7.5489,7.5426,7.5503,7.554,7.5539,7.5513,7.5491,7.5493,7.5492,7.5522,7.5449,7.5469,7.5419,7.5459,7.5446,7.5351,7.5334,7.5334,7.5293,7.531,7.5298,7.5262,7.5337,7.5347,7.5333,7.5232,7.5154,7.5214,7.5195,7.5259,7.5202,7.5144,7.5151,7.5229,7.522,7.5175,7.5161,7.5176,7.5151,7.5274,7.528,7.5182,7.5204,7.5251,7.5142,7.5053,7.5026,7.5039,7.5071,7.5128,7.511,7.5011,7.5011,7.5097,7.5166,7.5286,7.5278,7.5229,7.5355,7.5372,7.5376,7.5314,7.5286,7.5222,7.5322,7.5378,7.5433,7.5541,7.5538,7.5541,7.556,7.5385,7.5239,7.5177,7.5064,7.4977,7.4841,7.4695,7.4624,7.4598,7.4579,7.4484,7.4383,7.4394,7.4458,7.4562,7.4489,7.4375,7.4131,7.4165,7.4631,7.5423,7.6515,7.8385,8.0334,8.1154,8.1698,8.1732,8.0869,7.9226,7.6946,7.5281,7.498,7.4907,7.4778,7.4683,7.4609,7.4471,7.435,7.4398,7.4413,7.4384,7.4315,7.435,7.4345,7.4336,7.443,7.4429,7.4386,7.4427,7.451,7.4476,7.4471,7.4494,7.4501,7.4581,7.4589,7.4549,7.4579,7.4561,7.4592,7.4582,7.4679,7.4623,7.4573,7.4659,7.4674,7.4774,7.4705,7.4656,7.4723,7.4781,7.4818,7.4782,7.4742,7.4743,7.4792,7.4827,7.475,7.4765,7.4735,7.4706,7.4701,7.4659,7.465,7.4669,7.4681,7.4665,7.4642,7.4588,7.4605,7.4695,7.4711,7.4773,7.4775,7.4806,7.4907,7.4896,7.4894,7.4849,7.4792,7.4751,7.478,7.4659,7.4555,7.4491,7.4449,7.4442,7.4433,7.4407,7.4446,7.4433,7.4454,7.4469,7.4442,7.444,7.447,7.4521,7.4627,7.4553,7.4577,7.4567,7.4588,7.4593,7.4619,7.4549,7.4535,7.4566,7.4554,7.4552,7.4477,7.4521,7.4458,7.4463,7.4439,7.4423,7.4397,7.4362,7.4397,7.4427,7.438,7.4302,7.4451,7.4458,7.444,7.4376,7.4337,7.4355,7.4351,7.429,7.4187,7.418,7.4184,7.4203,7.4248,7.4141,7.4122,7.4156,7.4161,7.4144,7.4052,7.4006,7.4063,7.411,7.4112,7.4058,7.4124,7.4121,7.4085,7.4146,7.4081,7.4079,7.4164,7.4221,7.4308,7.4392,7.4511,7.4509,7.4549,7.4606,7.4579,7.4626,7.4615,7.4613,7.4637,7.4739,7.4787,7.495,7.4989,7.4994,7.4995,7.4933,7.4842,7.4753,7.4704,7.4643,7.4582,7.4516,7.441,7.4379,7.4426,7.4393,7.4308,7.4374,7.4379,7.4379,7.446,7.4508,7.4385,7.4245,7.4417,7.5063,7.6068,7.7486,7.9517,8.0706,8.1989,8.2366,8.2264,8.1155,7.907,7.7144,7.5806,7.5708,7.5308,7.5209,7.5087,7.5009,7.4851,7.4943,7.4842,7.4848,7.4732,7.4832,7.4825,7.4937,7.485,7.4879,7.4817,7.49,7.4882,7.4916,7.4866,7.4957,7.5045,7.522,7.524,7.5269,7.5262,7.5369,7.5363,7.5513,7.5528,7.551,7.5573,7.5654,7.5784,7.5849,7.5828,7.5871,7.5912,7.6005,7.6081,7.6057,7.6108,7.6146,7.6239,7.6246,7.627,7.6235,7.632,7.629,7.6342,7.6322,7.6315,7.6379,7.6435,7.6415,7.6431,7.6432,7.6471,7.6552,7.6633,7.6646,7.6729,7.6795,7.6931,7.6951,7.696,7.6891,7.6903,7.6864,7.6879,7.6807,7.6777,7.6712,7.6764,7.67,7.6713,7.6678,7.6735,7.6724,7.678,7.6786,7.6795,7.6788,7.6805,7.6883,7.6885,7.686,7.6894,7.6881,7.7014,7.7024,7.6985,7.6913,7.6932,7.6932,7.6961,7.6965,7.697,7.6891,7.7013,7.6958,7.6974,7.6889,7.6916,7.6954,7.6997,7.694,7.6908,7.6928,7.6939,7.6956,7.7007,7.6921,7.6966,7.6977,7.7005,7.7039,7.6925,7.7018,7.7029,7.6999,7.702,7.6936,7.6939,7.6962,7.6989,7.7028,7.7006,7.698,7.6963,7.7005,7.6992,7.6937,7.6965,7.7003,7.6989,7.6974,7.6948,7.6887,7.6825,7.6856,7.6885,7.6876,7.6785,7.6854,7.6964,7.7122,7.7093,7.705,7.706,7.7186,7.7194,7.716,7.7092,7.7185,7.7196,7.7328,7.7383,7.7289,7.7337,7.7333,7.7266,7.7048,7.6947,7.6871,7.6744,7.6714,7.66,7.6521,7.646,7.6459,7.6415,7.6388,7.6393,7.638,7.6397,7.644,7.6504,7.6344,7.6223,7.6622,7.7393,7.8016,7.938,8.1397,8.348,8.4331,8.4503,8.4162,8.239,8.0168,7.8437,7.7904,7.7689,7.744,7.7288,8.0537,8.3476,8.2505,8.1427,8.0622,8.0215,7.9676,7.9209,7.8819,7.8468,7.8214,7.8009,7.7905,7.7657,7.7553,7.7436,7.7444,7.7338,7.7372,7.7275,7.7308,7.7279,7.7286,7.7275,7.7315,7.7333,7.7376,7.7314,7.7391,7.7289,7.7367,7.7387,7.7443,7.7413,7.7404,7.7497,7.7499,7.7593,7.7606,7.7659,7.7698,7.7676,7.767,7.766,7.7686,7.7669,7.7644,7.7622,7.7619,7.7728,7.7713,7.768,7.762,7.7563,7.7564,7.7571,7.7574,7.7683,7.78,7.7872,7.8018,7.8019,7.802,7.7923,7.7894,7.7905,7.7984,7.7943,7.7863,7.7787,7.7774,7.7805,7.775,7.7733,7.7712,7.7915,7.786,7.7832,7.785,7.7857,7.8043,7.8067,7.8025,7.8061,7.7942,7.8154,7.8111,7.8078,7.8122,7.8308,7.8247,7.8107,7.8022,7.8045,7.8265,7.8083,7.7965,7.7939,7.8212,7.816,7.8068,7.7968,7.7958,7.7926,7.7958,7.8028,7.7989,7.7938,7.7946,7.8092,7.8013,7.7905,7.7999,7.8116,7.797,7.7882,7.7889,7.7955,7.7504,7.7077,7.6979,7.7208,7.7328,7.7554,7.7901,7.7926,7.7793,7.7816,7.7925,7.8023,7.8109,7.8137,7.8071,7.8174,7.824,7.8248,7.8208,7.8263,7.8293,7.8291,7.8309,7.8368,7.8401,7.8361,7.846,7.8484,7.8436,7.8207,7.8099,7.8124,7.808,7.7954,7.7734,7.772,7.7704,7.7682,7.7599,7.7538,7.7573,7.7616,7.7548,7.7562,7.7512,7.7328,7.7093,7.7506,7.8165,7.9119,8.0904,8.2885,8.4209,8.4754,8.4533,8.31,8.1325,7.928,7.767,7.7612,7.7594,7.7542,7.7389,7.7287,7.7221,7.704,7.6909,7.683,7.6941,7.6922,7.6871,7.6909,7.6903,7.6827,7.6728,7.6606,7.6594,7.6739,7.6705,7.6726,7.6739,7.6646,7.67,7.6505,7.5164,7.5213,7.5603,7.5918,7.6135,7.6118,7.6106,7.5925,7.5918,7.5768,7.5784,7.5607,7.5412,7.5313,7.5319,7.5142,7.5113,7.4932,7.4838,7.477,7.4791,7.4609,7.4601,7.4483,7.453,7.4464,7.4442,7.433,7.4345,7.4248,7.4307,7.4201,7.4201,7.4139,7.4222,7.4281,7.4269,7.429,7.434,7.4385,7.4346,7.4305,7.4253,7.414,7.4104,7.4123,7.3956,7.3839,7.381,7.3778,7.3841,7.3864,7.3802,7.3754,7.3764,7.3797,7.3859,7.3853,7.3826,7.3897,7.3889,7.3899,7.3912,7.3795,7.3878,7.3906,7.3949,7.3884,7.384,7.3834,7.3895,7.3881,7.3899,7.3855,7.3801,7.378,7.3846,7.3824,7.3829,7.3785,7.3769,7.388,7.3776,7.3633,7.3706,7.3768,7.3731,7.366,7.3616,7.3638,7.3644,7.3745,7.3715,7.3707,7.3681,7.3631,7.3564,7.3683,7.3623,7.3518,7.3554,7.361,7.3687,7.3827,7.3755,7.383,7.3888,7.3959,7.3959,7.3883,7.3801,7.3857,7.4008,7.4027,7.4041,7.4041,7.3988,7.411,7.3959,7.3864,7.3683,7.3554,7.35,7.3516,7.3342,7.3291,7.3273,7.3276,7.3296,7.3195,7.3133,7.3163,7.3213,7.3171,7.3186,7.3105,7.3061,7.2936,7.3187,7.3879,7.4897,7.6573,7.8633,8.043,8.0945,8.0833,8.0545,7.8898,7.6582,7.4482,7.3605,7.3623,7.3465,7.3322,7.315,7.3004,7.2935,7.2997,7.3015,7.2991,7.2701,7.2586,7.2613,7.2725,7.2842,7.2811,7.2712,7.2738,7.2728,7.2797,7.2715,7.2536,7.2654,7.2714,7.2696,7.2725,7.2703,7.2717,7.2757,7.2761,7.2746,7.2682,7.2685,7.2759,7.2701,7.2693,7.2704,7.2739,7.2842,7.284,7.2849,7.2802,7.2766,7.2724,7.2743,7.2743,7.261,7.2634,7.2656,7.263,7.2603,7.2571,7.2506,7.2552,7.2682,7.2681,7.2642,7.2517,7.2503,7.2606,7.2707,7.2638,7.2637,7.2713,7.2821,7.2816,7.2805,7.2738,7.2689,7.2621,7.2558,7.2446,7.2396,7.2435,7.2421,7.2389,7.2364,7.2301,7.232,7.2342,7.2366,7.2347,7.2291,7.2187,7.2234,7.2224,7.2206,7.2124,7.2149,7.2197,7.2193,7.2159,7.2113,7.2089,7.2083,7.2104,7.2068,7.1969,7.1886,7.1906,7.1888,7.1887,7.1877,7.1777,7.1805,7.1809,7.1758,7.1752,7.1659,7.1687,7.169,7.1766,7.173,7.1683,7.1643,7.1641,7.171,7.1658,7.1569,7.1554,7.1574,7.1569,7.1567,7.151,7.1522,7.1552,7.154,7.1568,7.1473,7.1503,7.1527,7.1625,7.1598,7.154,7.1558,7.163,7.1683,7.1711,7.175,7.1779,7.2001,7.2099,7.2212,7.2269,7.2301,7.2395,7.2436,7.2514,7.2496,7.2573,7.2766,7.2887,7.3001,7.2968,7.2995,7.3004,7.296,7.2844,7.2856,7.2646,7.2564,7.2574,7.2507,7.2466,7.2477,7.2539,7.2624,7.2698,7.2768,7.2822,7.2869,7.2914,7.2952,7.2809,7.2727,7.3208,7.4156,7.5368,7.7287,7.951,8.1056,8.1488,8.1553,8.0417,7.8284,7.6281,7.5453,7.489,7.4577,7.445,7.4243,7.4275,7.4125,7.4205,7.4136,7.4126,7.408,7.4158,7.4204,7.4289,7.415,7.4245,7.4273,7.4375,7.4337,7.4395,7.4369,7.4453,7.4483,7.46,7.4611,7.4611,7.4624,7.4787,7.4784,7.4899,7.4887,7.4961,7.5016,7.5061,7.5032,7.5064,7.5134,7.5209,7.5278,7.5305,7.5269,7.5286,7.532,7.5332,7.5406,7.5372,7.539,7.5406,7.5509,7.5479,7.5362,7.5425,7.5452,7.5442,7.5431,7.54,7.5373,7.5352,7.5389,7.5451,7.5474,7.5477,7.5606,7.5669,7.5786,7.5847,7.5874,7.5899,7.5914,7.5914,7.5874,7.5827,7.5864,7.5819,7.5821,7.5812,7.5796,7.573,7.5768,7.5786,7.5855,7.5766,7.5787,7.5749,7.5811,7.5765,7.5741,7.5766,7.58,7.5811,7.5852,7.5778,7.5756,7.5726,7.5794,7.58,7.5755,7.5745,7.5712,7.5721,7.5803,7.5786,7.5709,7.5689,7.5712,7.5723,7.5689,7.5655,7.5617,7.567,7.5645,7.5682,7.5625,7.5603,7.5618,7.5683,7.5752,7.5671,7.5658,7.5635,7.5682,7.5673,7.5644,7.5656,7.5661,7.5684,7.569,7.5622,7.5628,7.5682,7.5782,7.5811,7.5705,7.5687,7.5754,7.5844,7.5993,7.5941,7.6098,7.6209,7.625,7.6275,7.6224,7.626,7.6254,7.6281,7.6311,7.6347,7.6361,7.651,7.6585,7.6546,7.6519,7.6496,7.6331,7.6169,7.6077,7.5978,7.5891,7.5813,7.5724,7.5699,7.5706,7.5617,7.5663,7.569,7.5656,7.568,7.5641,7.5658,7.5655,7.5616,7.54,7.5675,7.6455,7.752,7.9221,8.135,8.3156,8.3587,8.3723,8.2764,8.0774,7.8644,7.7146,7.6989,7.6761,7.6696,7.6625,7.6627,7.6598,7.66,7.6605,7.6592,7.6454,7.6573,7.6562,7.6749,7.6662,7.6622,7.6492,7.6383,7.6471,7.6584,7.6601,7.6654,7.6947,7.7048,7.7125,7.7075,7.7081,7.7107,7.7225,7.7265,7.731,7.7329,7.7387,7.7456,7.7588,7.7669,7.7655,7.7643,7.7761,7.7789,7.7802,7.7679,7.7716,7.7681,7.776,7.7716,7.7636,7.763,7.763,7.7647,7.7622,7.749,7.7398,7.7442,7.7447,7.7372,7.7246,7.7248,7.7337,7.736,7.7439,7.7493,7.7529,7.7559,7.7641,7.7705,7.7613,7.761,7.7542,7.7515,7.745,7.7355,7.7207,7.718,7.724,7.7234,7.7117,7.7177,7.7159,7.7242,7.7246,7.724,7.7297,7.7198,7.7236,7.7237,7.7264,7.7193,7.7154,7.7192,7.723,7.716,7.7128,7.7122,7.7188,7.7074,7.6993,7.7024,7.7029,7.6997,7.7078,7.7072,7.7008,7.698,7.7024,7.7024,7.6986,7.6936,7.6897,7.6944,7.6929,7.7019,7.6847,7.6815,7.6813,7.6916,7.6877,7.6893,7.6817,7.6826,7.6886,7.6945,7.693,7.6898,7.6924,7.6995,7.7073,7.7267,7.7358,7.7371,7.7387,7.7398,7.7405,7.7432,7.7386,7.7387,7.7528,7.7479,7.762,7.7704,7.7711,7.7737,7.7712,7.7618,7.7456,7.7371,7.7307,7.7229,7.7194,7.7029,7.6985,7.7005,7.6907,7.6962,7.6948,7.7067,7.705,7.7106,7.7121,7.7107,7.7121,7.6915,7.7025,7.7507,7.8308,7.9556,8.163,8.3914,8.4973,8.5236,8.4809,8.3039,8.101,7.9134,7.8264,7.8097,7.7878,7.7788,8.0508,8.1462,8.0641,8.0162,7.961,7.9295,7.8798,7.8616,7.8339,7.8296,7.8041,7.796,7.7817,7.7854,7.7771,7.7754,7.7639,7.766,7.7592,7.7739,7.768,7.7724,7.7646,7.7698,7.7723,7.7817,7.7795,7.7877,7.7804,7.7913,7.7958,7.7986,7.7992,7.8055,7.8104,7.8156,7.8167,7.8064,7.8122,7.8233,7.8252,7.8252,7.8208,7.8249,7.8241,7.8239,7.831,7.8221,7.8263,7.8212,7.8293,7.8296,7.8311,7.8369,7.8458,7.8527,7.8717,7.8723,7.8755,7.8891,7.905,7.9076,7.9065,7.8926,7.892,7.8917,7.8931,7.8967,7.892,7.8885,7.8995,7.8969,7.8978,7.8954,7.8927,7.8973,7.8978,7.8924,7.8993,7.8988,7.897,7.9011,7.9042,7.9019,7.9106,7.9159,7.9168,7.9173,7.9149,7.9127,7.9233,7.9196,7.926,7.9218,7.9224,7.9229,7.9328,7.927,7.9228,7.9225,7.9277,7.9316,7.9263,7.925,7.922,7.9222,7.9265,7.9306,7.9278,7.9279,7.9329,7.9431,7.9543,7.9628,7.96,7.9636,7.9655,7.9752,7.9894,7.984,7.99,7.9984,8.0049,8.0113,8.0222,8.034,8.0385,8.0373,8.0351,8.0231,8.0243,8.0129,8.0113,8.0091,7.9982,7.9872,7.9832,7.9946,8.0094,8.0121,8.0126,8.022,8.0243,8.0236,8.0275,8.0292,8.0191,8.0283,8.0734,8.1279,8.2365,8.4389,8.5513,8.7294,8.8177,8.8082,8.7024,8.5253,8.3418,8.1731,8.1422,8.144,8.1431,8.1356,8.1404,8.1248,8.1174,8.1144,8.1203,8.1161,8.1218,8.1159,8.1218,8.1201,8.1273,8.1309,8.1302,8.1307,8.1369,8.1471,8.1423,8.1495,8.1662,8.1711,8.1754,8.1739,8.1873,8.2019,8.2121,8.2184,8.2177,8.2204,8.22,8.2263,8.234,8.2447,8.2407,8.2409,8.2451,8.2566,8.2622,8.265,8.2689,8.2759,8.2867,8.2923,8.2883,8.2939,8.2924,8.2984,8.2996,8.2947,8.2889,8.2876,8.296,8.2974,8.2951,8.2953,8.3134,8.3252,8.3302,8.3469,8.3489,8.3491,8.3485,8.3511,8.3425,8.3408,8.3338,8.3396,8.3384,8.3406,8.3254,8.3207,8.3237,8.3444,8.3373,8.3304,8.3368,8.339,8.3465,8.3514,8.3402,8.3464,8.3604,8.3736,8.3643,8.3636,8.3702,8.3654,8.3702,8.3739,8.3702,8.3618,8.3691,8.3711,8.3655,8.3651,8.3538,8.3562,8.3661,8.3668,8.3588,8.3514,8.3564,8.3692,8.3756,8.3804,8.3806,8.3822,8.3831,8.3895,8.3999,8.3891,8.394,8.3976,8.4095,8.4138,8.4189,8.4284,8.4225,8.4193,8.4103,8.3968,8.3818,8.373,8.3635,8.35,8.343,8.3399,8.3334,8.3367,8.3442,8.3334,8.3306,8.3312,8.3391,8.3448,8.3391,8.335,8.3253,8.325,8.3804,8.4423,8.4962,8.6444,8.8523,9.0248,9.1071,9.1089,9.0306,8.8441,8.6363,8.4592,8.3949,8.4011,8.4016,8.3925,8.3844,8.3766,8.3734,8.3699,8.3783,8.3727,8.3723,8.363,8.3758,8.3723,8.3831,8.3739,8.3697,8.3764,8.3838,8.3867,8.3885,8.3959,8.4026,8.4049,8.3997,8.3903,8.3935,8.4108,8.4118,8.4218,8.4265,8.4233,8.4284,8.4568,8.4624,8.4542,8.4503,8.458,8.478,8.4839,8.4678,8.4656,8.4668,8.4571,8.4638,8.4758,8.4803,8.4689,8.4503,8.4523,8.4702,8.4557,8.4681,8.4785,8.4873,8.4841,8.503,8.5333,8.5425,8.5599,8.5837,8.5988,8.5678,8.5558,8.5902,8.605,8.589,8.5652,8.5474,8.5245,8.5536,8.6243,8.683,8.6659,8.6271,8.6167,8.6191,8.6019,8.6394,8.6778,8.6104,8.5432,8.5661,8.6197,8.6032,8.6021,8.5852,8.559,8.5405,8.5587,8.5837,8.5917,8.5735,8.5654,8.4541,8.4375,9.42,9.7343,9.4414,9.2552,9.1334,9.1068,8.9652,8.9225,8.8658,8.8122,8.7314,8.7108,8.6153,8.4877,8.4531,8.5831,8.641,8.6334,8.5881,8.6206,8.5645,8.5512,8.5002,8.5313,8.5069,8.5541,8.5431,8.5502,8.5286,8.5478,8.5426,8.5276,8.5052,8.5279,8.5347,8.5179,8.4912,8.4972,8.501,8.5141,8.5349,8.4977,8.4472,8.4206,8.4174,8.4338,8.4341,8.4281,8.4042,8.395,8.4742,8.6003,8.7541,8.9553,9.159,9.2383,9.2549,9.2221,9.0323,8.8338,8.6198,8.4859,8.4314,8.4085,8.4014,8.3609,8.309,8.2813,8.2765,8.2503,8.221,8.2111,8.2419,8.2811,8.3085,8.2152,8.1633,8.1647,8.208,8.2627,8.3002,8.2776,8.2306,8.1427,8.1185,8.1072,8.1214,8.121,8.13,8.1299,8.1029,8.116,8.1959,8.2357,8.2172,8.1631,8.1661,8.1696,8.1584,8.1643,8.2114,8.1935,8.1416,8.1053,8.0994,8.0782,8.1213,8.1322,8.13,8.0963,8.1118,8.111,8.0873,8.0684,8.1051,8.1025,8.0763,8.0943,8.1284,8.1387,8.1258,8.1485,8.1676,8.1753,8.1438,8.0991,8.1079,8.1127,8.1332,8.1111,8.0546,8.0325,8.0343,8.0761,8.0936,8.0917,8.1489,8.1385,8.0871,8.0914,8.1234,8.1326,8.1344,8.089,8.0798,8.107,8.1262,8.1144,8.0673,8.0483,8.0435,8.0249,8.0366,8.0443,8.028,8.0122,8.0242,8.064,8.0927,8.098,8.0832,8.0669,8.0469,8.0276,8.0213,8.038,8.0342,8.0404,8.0641,8.1196,8.1212,8.0893,8.0585,8.0555,8.0649,8.0549,8.0303,8.0261,8.0305,8.0389,8.0252,8.0106,8.0224,8.0531,8.0846,8.0824,8.0262,8.0252,8.0631,8.0695,7.9912,7.969,7.9749,7.9498,7.9355,7.9489,7.9628,7.9849,7.9695,7.9289,7.9025,7.9322,7.9116,7.9421,7.977,7.9752,8.0516,8.1949,8.412,8.6312,8.7363,8.7197,8.627,8.4157,8.2046,8.0447,7.9964,8.0002,7.9504,7.8934,7.8862,7.9022,7.8988,7.8929,7.8953,7.9061,7.8873,7.8913,7.8945,7.9216,7.9217,7.891,7.8537,7.8545,7.8508,7.8685,7.8974,7.9287,7.9233,7.9122,7.9225,7.9187,7.9149,7.9564,7.9988,7.9396,7.8822,7.8783,7.9194,7.9443,7.9597,7.9608,7.9778,7.9763,7.9626,7.9751,7.9625,7.9518,7.9292,7.9256,7.9581,7.9774,7.9883,7.995,8.0083,8.0613,8.0635,7.9775,7.9161,7.9317,7.9491,7.9527,7.9483,7.8913,7.8716,7.8882,7.9091,7.9186,7.9469,7.9367,7.9156,7.9353,7.9429,7.9598,7.9497,7.9441,7.9331,7.9557,7.985,7.9785,7.9458,7.9358,7.9641,7.9491,7.9022,7.8799,7.9021,7.9277,7.933,7.9227,7.9106,7.9066,7.8843,7.8796,7.8812,7.9179,7.9313,7.9004,7.8857,7.9307,7.9497,7.9135,7.8961,7.8682,7.8706,7.9015,7.9174,7.9243,7.9389,7.9361,7.9103,7.882,7.9037,7.9421,7.8904,7.8091,7.871,7.9526,7.9296,7.9444,7.996,8.0216,8.0227,7.9821,7.9822,8.0111,8.0185,8.0124,7.9568,7.917,7.9179,7.9251,7.9337,7.9267,7.9251,7.9164,7.8987,7.8969,7.9064,7.9056,7.9093,7.888,7.9088,7.9346,7.9457,7.9335,7.9315,7.9503,7.9956,8.0474,8.1033,8.2052,8.3992,8.6362,8.7956,8.7765,8.6251,8.4802,8.2791,8.1714,8.0302,8.0292,8.0393,8.0473,8.0618,8.023,7.9973,7.9628,7.985,7.9659,7.9819,7.9609,7.9899,7.9913,7.9967,7.9909,7.9905,7.9743,7.9756,7.9855,7.9798,7.965,7.9752,8.0017,8.0498,8.034,7.9935,7.9596,7.9644,7.9721,7.9887,7.9893,7.9848,8.0046,8.0198,8.0181,8.0021,8.0023,7.9923,7.9909,7.9982,8.0343,8.0657,8.0317,7.9988,7.9975,7.9548,7.9328,7.9498,7.9455,7.9356,7.9354,7.9165,7.8999,7.89,7.8622,7.9058,7.9404,7.9436,7.9043,7.9291,7.9461,7.9537,7.9325,7.9013,7.8935,7.8486,7.8344,7.8325,7.8285,7.7939,7.773,7.8033,7.8496,7.8164,7.7943,7.7973,7.8117,7.8253,7.8074,7.8002,7.8308,7.7922,7.7442,7.718,7.7203,7.7225,7.7241,7.7492,7.7824,7.7798,7.7737,7.7688,7.7623,7.7488,7.759,7.7875,7.7754,7.7243,7.7069,7.7266,7.775,7.749,7.7124,7.7171,7.745,7.7333,7.7291,7.7429,7.7541,7.7671,7.7585,7.7371,7.7611,7.7764,7.7676,7.7416,7.7489,7.7691,7.7579,7.7405,7.7659,7.7274,7.6971,7.6806,7.6688,7.6804,7.6829,7.683,7.6663,7.6503,7.6338,7.6316,7.6387,7.648,7.6307,7.6094,7.6264,7.6471,7.637,7.6162,7.5554,7.5659,7.6544,7.7889,7.9235,8.1525,8.3566,8.4276,8.4092,8.3166,8.1452,8.0351,7.8234,7.6636,7.6545,7.6461,7.659,7.6047,7.5963,7.6029,7.6198,7.6047,7.6067,7.5883,7.5612,7.5631,7.5829,7.5996,7.5978,7.557,7.5446,7.5595,7.5568,7.5376,7.5455,7.5297,7.5172,7.5332,7.5473,7.5531,7.5519,7.5425,7.5423,7.5451,7.5278,7.5253,7.528,7.5353,7.5081,7.508,7.5596,7.5564,7.5387,7.5302,7.5168,7.5095,7.5153,7.5228,7.537,7.5402,7.5126,7.5027,7.5112,7.5225,7.4947,7.4697,7.4659,7.4947,7.4935,7.4993,7.506,7.5382,7.5455,7.5132,7.5312,7.5769,7.5945,7.5883,7.6013,7.5674,7.5087,7.5003,7.4907,7.4772,7.4863,7.5422,7.5494,7.5635,7.5666,7.5474,7.4945,7.5135,7.5178,7.5137,7.5389,7.5786,7.5539,7.5297,7.5463,7.5563,7.5466,7.5241,7.5387,7.5305,7.4699,7.4857,7.5248,7.541,7.5417,7.5157,7.5246,7.5531,7.5487,7.5061,7.5033,7.5378,7.5382,7.4995,7.4693,7.4843,7.5279,7.5273,7.5231,7.5208,7.5017,7.5014,7.5358,7.5801,7.5741,7.5279,7.5142,7.5371,7.541,7.5553,7.5584,7.5552,7.5405,7.5286,7.5715,7.5814,7.5505,7.5021,7.4698,7.4843,7.5099,7.5103,7.5021,7.4743,7.46,7.4755,7.4802,7.4513,7.4523,7.452,7.4745,7.4761,7.4527,7.4028,7.4331,7.5136,7.5563,7.6548,7.859,7.963,8.1968,8.2886,8.3111,8.2814,8.0879,7.8376,7.622,7.5438,7.5254,7.5352,7.5271,7.4983,7.4664,7.4585,7.4522,7.4481,7.4554,7.4679,7.4601,7.48,7.5043,7.5143,7.4986,7.4635,7.4709,7.4878,7.4985,7.481,7.4455,7.4346,7.4851,7.5185,7.4565,7.4683,7.5004,7.4947,7.4609,7.4766,7.5054,7.5069,7.4853,7.4887,7.5098,7.5195,7.515,7.5259,7.5172,7.5113,7.5105,7.5276,7.5246,7.5384,7.566,7.57,7.4915,7.4733,7.487,7.5156,7.527,7.5352,7.5836,7.5805,7.4932,7.4701,7.5244,7.53,7.5213,7.5371,7.5395,7.5451,7.5564,7.5781,7.5532,7.5292,7.5624,7.5775,7.58,7.5522,7.5557,7.5383,7.5339,7.5491,7.5076,7.5109,7.5212,7.532,7.5367,7.5226,7.5118,7.5,7.5055,7.5038,7.5037,7.5134,7.5235,7.526,7.5267,7.5293,7.5387,7.5603,7.5339,7.5102,7.5037,7.4972,7.5137,7.4974,7.4704,7.4531,7.4324,7.4717,7.5429,7.5266,7.5027,7.4909,7.4802,7.4728,7.4766,7.4789,7.5019,7.5011,7.5071,7.5211,7.5479,7.5068,7.4812,7.5034,7.5131,7.5376,7.5318,7.5222,7.5189,7.5089,7.5059,7.5058,7.4902,7.4924,7.4671,7.4576,7.4606,7.457,7.4693,7.4622,7.4534,7.439,7.452,7.4681,7.4522,7.4002,7.3934,7.4346,7.4635,7.4462,7.4029,7.4373,7.5257,7.6381,7.8487,8.0659,8.2063,8.2596,8.2604,8.0899,7.8602,7.6652,7.5469,7.5199,7.492,7.4923,7.473,7.4598,7.4637,7.4607,7.4944,7.4882,7.4495,7.4031,7.4389,7.4729,7.4407,7.4414,7.4387,7.431,7.4513,7.4638,7.4596,7.4628,7.4471,7.4622,7.4816,7.4811,7.4708,7.4819,7.5008,7.4822,7.4458,7.4625,7.4653,7.4903,7.4904,7.4862,7.5104,7.515,7.5147,7.4984,7.488,7.5002,7.5137,7.4989,7.4887,7.4891,7.5043,7.5011,7.4966,7.4781,7.477,7.4939,7.4882,7.4892,7.4776,7.4678,7.4941,7.5106,7.4794,7.447,7.4634,7.5248,7.5423,7.5469,7.5172,7.477,7.4646,7.4934,7.4989,7.4933,7.4664,7.4606,7.4757,7.5207,7.5239,7.4826,7.4536,7.4813,7.5095,7.4609,7.486,7.4999,7.4844,7.4708,7.455,7.4468,7.4499,7.4571,7.4664,7.4803,7.4737,7.4602,7.4574,7.4745,7.4683,7.4434,7.439,7.4487,7.4626,7.4437,7.446,7.4359,7.4171,7.4438,7.4802,7.4503,7.4209,7.4175,7.4363,7.4522,7.4457,7.4402,7.4525,7.4703,7.4797,7.4762,7.4575,7.4553,7.4555,7.4963,7.4996,7.4985,7.4929,7.4531,7.4075,7.4187,7.4164,7.3825,7.3811,7.3963,7.3964,7.4252,7.3897,7.359,7.3943,7.3959,7.3592,7.351,7.3677,7.372,7.3765,7.3669,7.3756,7.4272,7.4743,7.5009,7.6381,7.8607,8.0544,8.1609,8.1799,8.1037,7.9165,7.6915,7.504,7.4667,7.4686,7.4144,7.3875,7.3786,7.3983,7.3923,7.3817,7.3806,7.3697,7.3454,7.3585,7.3504,7.3666,7.3567,7.3414,7.3723,7.3703,7.3778,7.3755,7.3717,7.3874,7.3818,7.3547,7.3381,7.348,7.3594,7.3614,7.3992,7.4189,7.4003,7.3783,7.3764,7.3838,7.4045,7.4049,7.3856,7.3812,7.3809,7.3902,7.3933,7.3914,7.3894,7.4102,7.3942,7.3858,7.3784,7.3898,7.4001,7.4041,7.3942,7.398,7.4023,7.3805,7.3541,7.3717,7.377,7.4113,7.4167,7.3841,7.3841,7.4005,7.4128,7.4117,7.4147,7.3886,7.3927,7.3919,7.4063,7.3966,7.3766,7.394,7.4059,7.3624,7.3382,7.3459,7.3421,7.3679,7.3873,7.3891,7.4001,7.398,7.4327,7.4325,7.3687,7.3461,7.3871,7.4253,7.4456,7.4222,7.411,7.3903,7.3988,7.4248,7.4212,7.3743,7.3534,7.373,7.3786,7.3622,7.3743,7.3924,7.3846,7.3892,7.3683,7.3803,7.3953,7.3937,7.4002,7.4195,7.4059,7.4027,7.4123,7.4182,7.4333,7.4329,7.4017,7.3878,7.3869,7.3935,7.368,7.3396,7.3489,7.3116,7.3012,7.3367,7.3424,7.3442,7.3237,7.3324,7.3039,7.2801,7.2987,7.3287,7.3145,7.2892,7.289,7.3135,7.3948,7.4692,7.5781,7.7298,7.9068,8.0564,8.1228,8.1405,7.9764,7.7131,7.49,7.3472,7.3494,7.3822,7.3837,7.3561,7.3407,7.3297,7.3262,7.3291,7.3552,7.3428,7.3263,7.3349,7.3021,7.3002,7.3066,7.348,7.3683,7.3597,7.3408,7.3253,7.3201,7.3151,7.3288,7.328,7.3293,7.3264,7.3472,7.3641,7.3732,7.3434,7.346,7.3358,7.3491,7.3563,7.3636,7.356,7.3761,7.3737,7.3592,7.3374,7.3424,7.3712,7.3838,7.3861,7.3725,7.3726,7.3781,7.3672,7.3525,7.3593,7.3625,7.3792,7.3792,7.3488,7.3262,7.3457,7.3754,7.3664,7.3412,7.3483,7.384,7.3971,7.384,7.3724,7.3952,7.4036,7.3813
