1.8229,1.8361,1.8343,1.8724,1.9108,1.8711,1.8791,1.8846,1.9088,1.9223,1.9519,1.9496,1.9503,1.9268,1.9534,1.9481,1.8947,1.8423,1.8392,1.8266,1.8077,1.7578,1.7304,1.7265,1.7213,1.7275,1.7271,1.6792,1.7071,1.7415,1.7236,1.7146,1.7184,1.6941,1.6932,1.713,1.7301,1.734,1.7112,1.7015,1.7153,1.7376,1.7559,1.7305,1.7121,1.7227,1.7549,1.764,1.781,1.7829,1.7865,1.777,1.764,1.7883,1.8047,1.8042,1.8064,1.8341,1.8163,1.8343,1.8443,1.847,1.8377,1.8244,1.8158,1.7977,1.7984,1.8188,1.8332,1.839,1.8499,1.8712,1.8513,1.8235,1.8323,1.8487,1.8544,1.8369,1.8349,1.8255,1.8521,1.8596,1.8412,1.8204,1.8079,1.8184,1.8457,1.8418,1.8576,1.8689,1.8948,1.9074,1.9211,1.9035,1.8838,1.892,1.9738,2.0217,1.9909,1.9621,1.9482,1.9431,1.9362,1.9088,1.873,1.8729,1.895,1.8982,1.8547,1.8358,1.8483,1.8759,1.8847,1.8614,1.8561,1.8598,1.8641,1.8644,1.8514,1.8437,1.8559,1.8739,1.8922,1.8925,1.8775,1.8956,1.8887,1.8559,1.8342,1.913,2.054,2.2261,2.4503,2.6558,2.6405,2.6148,2.5169,2.2394,1.9251,1.9106,1.9267,1.9163,1.9426,1.9403,1.9164,1.8886,1.9099,1.9351,1.9538,1.9162,1.8756,1.8377,1.8926,1.942,1.9387,1.9361,1.929,1.916,1.9276,1.9322,1.939,1.933,1.9567,1.9643,1.9412,1.9278,1.9588,2.0121,2.0112,1.9873,1.9808,1.9881,2.0078,2.0098,2.0087,2.0245,2.049,2.0775,2.0906,2.0807,2.071,2.0744,2.0932,2.1376,2.1452,2.149,2.1723,2.1972,2.2049,2.2265,2.2122,2.2024,2.2228,2.2516,2.2093,2.1436,2.161,2.1826,2.1988,2.187,2.1771,2.1518,2.1161,2.0799,2.0746,2.0507,2.039,1.9933,1.9924,1.9923,1.9852,1.9804,1.9658,1.9493,1.9336,1.9409,1.9378,1.9107,1.869,1.9456,1.9719,1.9949,1.9888,1.8735,1.8014,1.8944,2.0135,2.0394,2.0008,1.9801,1.9637,1.9458,1.9461,1.9546,1.9654,1.9502,1.9486,1.9668,1.9737,1.9108,1.8575,1.8726,1.943,1.9952,1.9754,1.9481,1.9544,1.95,1.959,1.9847,1.961,1.9481,1.9341,1.9433,1.9378,1.9274,1.9177,1.9579,1.9719,2.0139,1.9997,1.9204,1.9227,2.0185,2.0872,2.0235,1.9392,2.0154,2.1157,2.1569,2.1498,2.0799,2.0212,2.0069,2.0138,2.0052,1.9756,1.9366,1.9482,1.9851,1.9929,1.911,1.9034,1.9226,1.9616,1.9805,1.9654,1.9458,1.9436,1.9904,1.9968,1.9612,1.9546,1.9458,1.9475,1.9757,1.9583,1.9224,1.8669,1.8526,1.9368,2.0783,2.2168,2.4583,2.6452,2.7012,2.6936,2.5376,2.2874,2.0222,1.9848,1.9314,1.8833,1.8814,1.8637,1.9111,1.8966,1.9066,1.8943,1.896,1.8949,1.8866,1.8707,1.8837,1.8804,1.8885,1.8615,1.8243,1.825,1.8805,1.9308,1.9212,1.9103,1.8986,1.8987,1.8931,1.9235,1.9331,1.9183,1.9278,1.9225,1.9234,1.8392,1.8441,1.9406,1.9952,2.0042,1.9589,1.9675,1.9572,1.956,1.9727,2.0026,1.9973,2.039,2.0667,2.0601,1.9893,2.0168,2.0805,2.1322,2.1461,2.1179,2.0774,2.0997,2.1176,2.129,2.0839,2.057,2.0402,2.0254,2.0326,2.0088,1.9738,1.943,1.9428,1.9443,1.8609,1.8661,1.8679,1.82,1.8297,1.8538,1.8797,1.864,1.8625,1.8545,1.8427,1.8156,1.8139,1.8316,1.8366,1.8279,1.8126,1.7995,1.7858,1.8101,1.8509,1.8424,1.849,1.8481,1.8486,1.8408,1.8249,1.8271,1.8324,1.8456,1.861,1.839,1.8309,1.8263,1.8454,1.8412,1.8375,1.8319,1.8396,1.817,1.7939,1.8444,1.8693,1.8963,1.8851,1.8607,1.8495,1.8485,1.8626,1.863,1.8723,1.8576,1.876,1.8856,1.9368,1.94,1.9294,1.9173,1.9395,1.9468,1.9564,1.9438,1.8909,1.8731,1.8679,1.8789,1.8564,1.797,1.795,1.8217,1.8522,1.843,1.7959,1.7903,1.758,1.7541,1.808,1.8007,1.8006,1.8045,1.8142,1.8133,1.7667,1.7538,1.7633,1.7958,1.7988,1.7884,1.7639,1.7101,1.7049,1.7563,1.8363,1.9519,2.1384,2.4256,2.5682,2.572,2.4817,2.2536,1.9296,1.8072,1.7525,1.7035,1.7269,1.7807,1.8021,1.7819,1.7666,1.7451,1.7719,1.7446,1.7681,1.7375,1.7244,1.7523,1.7897,1.7905,1.7715,1.7643,1.749,1.754,1.7677,1.7618,1.7521,1.7541,1.7898,1.796,1.7706,1.7571,1.7735,1.7941,1.7913,1.7793,1.7797,1.8061,1.8287,1.8249,1.8138,1.8212,1.8408,1.8555,1.8629,1.8538,1.8507,1.8752,1.9116,1.9312,1.9327,1.9269,1.9324,1.9577,1.9701,1.9613,1.9529,1.9684,1.9699,1.9727,1.9457,1.9406,1.9199,1.9078,1.8869,1.8756,1.8179,1.796,1.7851,1.782,1.7548,1.7051,1.6854,1.6907,1.713,1.6819,1.6624,1.6483,1.6592,1.6837,1.6721,1.6446,1.6445,1.6628,1.6757,1.6677,1.6468,1.629,1.6326,1.66,1.663,1.6286,1.6247,1.6376,1.6455,1.6492,1.6207,1.6294,1.6411,1.658,1.6587,1.6416,1.6329,1.6406,1.6496,1.6692,1.6409,1.6222,1.6325,1.6492,1.6706,1.647,1.6219,1.6044,1.6464,1.6626,1.6457,1.6335,1.6403,1.6642,1.6807,1.667,1.6799,1.69,1.6994,1.7203,1.7227,1.6952,1.7117,1.7427,1.7543,1.7275,1.7058,1.6999,1.6935,1.6875,1.6747,1.631,1.6045,1.6335,1.6387,1.6141,1.5954,1.5917,1.603,1.6266,1.6143,1.5782,1.5786,1.5922,1.6061,1.5963,1.5526,1.5476,1.5573,1.5707,1.565,1.5233,1.5168,1.5226,1.4957,1.485,1.499,1.5889,1.7046,1.8963,2.195,2.2826,2.2695,2.2339,2.0467,1.6461,1.4212,1.4464,1.4423,1.4682,1.4831,1.4488,1.4283,1.4478,1.4526,1.4725,1.4468,1.4212,1.4104,1.4344,1.4638,1.4346,1.394,1.4055,1.4294,1.4346,1.4029,1.3848,1.4011,1.4325,1.4468,1.4274,1.3956,1.3983,1.4015,1.4466,1.4573,1.4207,1.4095,1.4258,1.4449,1.4538,1.4212,1.4216,1.4516,1.4912,1.4843,1.4541,1.4682,1.517,1.5392,1.54,1.5178,1.5003,1.5121,1.5534,1.5879,1.5743,1.5485,1.5685,1.5929,1.6108,1.5857,1.5652,1.5501,1.5443,1.5343,1.4829,1.4503,1.4364,1.4469,1.4426,1.4004,1.3485,1.3446,1.3617,1.3765,1.3472,1.3249,1.3252,1.3557,1.3725,1.3572,1.3219,1.328,1.3464,1.3836,1.3516,1.3267,1.3307,1.3492,1.3796,1.3938,1.3473,1.34,1.3626,1.3829,1.3793,1.3463,1.3452,1.3728,1.3934,1.3908,1.3502,1.3525,1.3668,1.3923,1.3904,1.3542,1.3512,1.3633,1.3854,1.4028,1.3855,1.3622,1.3667,1.3864,1.4002,1.364,1.3556,1.3677,1.3799,1.3981,1.3605,1.3557,1.3731,1.4065,1.4136,1.3939,1.3668,1.3865,1.4247,1.439,1.4431,1.4267,1.4505,1.4881,1.5093,1.4627,1.4225,1.4064,1.4082,1.413,1.3755,1.3352,1.3284,1.3506,1.36,1.3495,1.3195,1.3136,1.3283,1.3477,1.3334,1.3028,1.3041,1.3124,1.3438,1.3372,1.3011,1.3063,1.3287,1.3521,1.3431,1.3033,1.3059,1.3068,1.3161,1.2951,1.3026,1.3879,1.5382,1.7303,2.0091,2.1001,2.0827,2.0662,1.9138,1.5173,1.2912,1.3221,1.3453,1.3792,1.3874,1.3457,1.3329,1.3542,1.368,1.3937,1.369,1.3469,1.3505,1.3752,1.3899,1.3759,1.3496,1.3677,1.3894,1.4076,1.3804,1.3681,1.3806,1.4079,1.4229,1.413,1.383,1.3922,1.4158,1.4492,1.4469,1.4222,1.4173,1.4486,1.4815,1.4806,1.4483,1.4539,1.4895,1.5267,1.5285,1.4985,1.5159,1.5558,1.5955,1.6053,1.5794,1.5815,1.6127,1.6513,1.6602,1.6375,1.6391,1.6583,1.6874,1.693,1.6535,1.6456,1.6491,1.6546,1.6375,1.5781,1.5411,1.5334,1.538,1.5344,1.5047,1.4545,1.4506,1.4639,1.4656,1.4397,1.4076,1.4102,1.4313,1.4427,1.4155,1.3952,1.4034,1.4297,1.4457,1.4167,1.3977,1.3967,1.432,1.4476,1.4362,1.4046,1.405,1.4314,1.4492,1.4378,1.4122,1.4164,1.4377,1.4704,1.4397,1.4068,1.4109,1.434,1.4564,1.4454,1.4266,1.4071,1.4321,1.4546,1.46,1.4305,1.4209,1.4294,1.454,1.4623,1.4377,1.411,1.4297,1.4592,1.4577,1.4228,1.4127,1.43,1.452,1.4657,1.442,1.4176,1.4141,1.4401,1.4614,1.4277,1.4074,1.4221,1.4429,1.4594,1.4246,1.4006,1.412,1.4461,1.4612,1.4298,1.413,1.4377,1.4541,1.4875,1.4804,1.4564,1.4592,1.493,1.5271,1.529,1.5031,1.532,1.5596,1.5752,1.548,1.492,1.4777,1.4969,1.505,1.4821,1.4349,1.4268,1.4398,1.4669,1.474,1.4306,1.4231,1.4414,1.4717,1.471,1.4378,1.4343,1.4531,1.48,1.4763,1.4355,1.4317,1.4382,1.4555,1.4509,1.4383,1.4086,1.4021,1.3901,1.4335,1.4896,1.5818,1.7346,2.0125,2.2236,2.21,2.1439,2.0359,1.7022,1.4193,1.426,1.4237,1.4318,1.4761,1.4889,1.4772,1.4419,1.4325,1.4503,1.4689,1.4595,1.4182,1.4252,1.4521,1.4851,1.4741,1.4383,1.4477,1.4767,1.5029,1.4891,1.4584,1.4666,1.4809,1.506,1.5115,1.4888,1.4867,1.4921,1.514,1.5265,1.501,1.5026,1.5313,1.5646,1.5735,1.5488,1.555,1.5754,1.6099,1.6159,1.5957,1.596,1.6241,1.665,1.687,1.6711,1.6513,1.6771,1.7154,1.7474,1.7268,1.7058,1.7149,1.7501,1.766,1.7319,1.7002,1.7113,1.7256,1.7082,1.6876,1.6311,1.6088,1.607,1.6087,1.5735,1.517,1.5134,1.521,1.5419,1.5116,1.4792,1.4772,1.5018,1.5196,1.5022,1.4698,1.4756,1.4965,1.5132,1.5168,1.4814,1.47,1.5017,1.5185,1.5168,1.4813,1.4737,1.4929,1.5237,1.5263,1.4932,1.487,1.5043,1.5335,1.5302,1.4849,1.4862,1.4927,1.5173,1.5411,1.5111,1.4929,1.5026,1.5319,1.5452,1.5055,1.487,1.4987,1.5263,1.5377,1.5052,1.4898,1.5018,1.5264,1.5321,1.4838,1.4683,1.4688,1.4895,1.5066,1.4922,1.4791,1.4841,1.5148,1.5348,1.5159,1.4812,1.4882,1.5141,1.5452,1.5272,1.5002,1.4966,1.5203,1.5387,1.5153,1.4907,1.4788,1.4952,1.536,1.5409,1.4922,1.4762,1.509,1.5408,1.5463,1.511,1.5159,1.5471,1.5801,1.5768,1.5708,1.5721,1.5855,1.6355,1.6385,1.6051,1.5885,1.5749,1.5731,1.5731,1.5357,1.5028,1.4863,1.4966,1.5151,1.4794,1.4555,1.4726,1.5031,1.5079,1.4804,1.4641,1.4784,1.4874,1.499,1.4762,1.4465,1.4571,1.4823,1.5044,1.4922,1.4553,1.4597,1.4691,1.4494,1.4326,1.4873,1.6101,1.7648,2.0171,2.2164,2.2282,2.2108,2.1691,2.0159,1.6262,1.431,1.4719,1.4931,1.5301,1.5366,1.5029,1.4977,1.5228,1.5337,1.5241,1.4924,1.4926,1.5128,1.5487,1.536,1.5062,1.4995,1.5199,1.5405,1.5561,1.5247,1.506,1.5278,1.5606,1.5583,1.5332,1.5256,1.5444,1.5846,1.5946,1.5616,1.5552,1.5855,1.6211,1.6316,1.618,1.5902,1.599,1.6531,1.6788,1.661,1.6437,1.6492,1.6961,1.7326,1.7206,1.7095,1.7328,1.7693,1.7967,1.7826,1.7615,1.7813,1.7926,1.8204,1.8229,1.7886,1.7815,1.8018,1.816,1.7943,1.7332,1.7017,1.7026,1.7063,1.6818,1.6236,1.6081,1.6155,1.629,1.6122,1.5603,1.5469,1.5607,1.5829,1.6023,1.567,1.5513,1.5623,1.5868,1.5977,1.5661,1.5523,1.5667,1.5975,1.606,1.5678,1.5552,1.5804,1.6089,1.6148,1.5977,1.5713,1.5767,1.6002,1.6223,1.6049,1.5745,1.5844,1.6098,1.6305,1.6117,1.5774,1.581,1.6095,1.6297,1.6004,1.575,1.5874,1.6075,1.6244,1.6213,1.5902,1.5838,1.5999,1.621,1.6163,1.5646,1.5727,1.6017,1.6134,1.5998,1.5789,1.5737,1.596,1.61,1.5977,1.5626,1.5695,1.5544,1.5834,1.6069,1.5747,1.5452,1.5512,1.5866,1.5927,1.5566,1.5384,1.5544,1.5815,1.5877,1.5523,1.5475,1.5777,1.6089,1.5997,1.5643,1.5516,1.5647,1.5999,1.6296,1.6232,1.5982,1.6305,1.6612,1.6746,1.6399,1.6029,1.5886,1.5987,1.6052,1.5533,1.5227,1.5244,1.5535,1.5485,1.5396,1.4822,1.4889,1.5142,1.5437,1.5288,1.4871,1.4872,1.4948,1.5316,1.5184,1.4773,1.4895,1.4982,1.529,1.5101,1.4757,1.4661,1.4321,1.4343,1.4874,1.5481,1.6577,1.8388,2.1566,2.2547,2.2518,2.1519,2.0609,1.8412,1.5326,1.4831,1.4473,1.4815,1.498,1.5196,1.4716,1.4617,1.4731,1.4934,1.5227,1.4883,1.454,1.4553,1.4756,1.5219,1.4911,1.4501,1.4533,1.4679,1.4843,1.4797,1.4429,1.4812,1.4985,1.5129,1.4882,1.4847,1.4635,1.4918,1.5273,1.5259,1.5042,1.514,1.529,1.549,1.5253,1.5161,1.529,1.5591,1.5808,1.5848,1.5702,1.5775,1.6264,1.6468,1.6539,1.6238,1.6238,1.6413,1.6882,1.6948,1.6629,1.6386,1.6568,1.6822,1.6862,1.6452,1.6416,1.6311,1.6477,1.6357,1.591,1.5444,1.5476,1.5321,1.5541,1.5169,1.4721,1.4301,1.4782,1.5027,1.4706,1.44,1.4446,1.4574,1.4842,1.46,1.4179,1.4199,1.4362,1.4551,1.4258,1.4008,1.4156,1.422,1.4645,1.4543,1.4095,1.4049,1.4379,1.4494,1.43,1.4236,1.4236,1.4517,1.464,1.4561,1.4146,1.4271,1.4395,1.4636,1.4653,1.4147,1.4058,1.4298,1.4532,1.4598,1.4171,1.4105,1.4082,1.4521,1.455,1.4062,1.3978,1.4305,1.4443,1.449,1.409,1.4124,1.4185,1.4439,1.4371,1.4205,1.4082,1.4108,1.4397,1.4557,1.4507,1.4269,1.4383,1.463,1.4975,1.4658,1.4548,1.4888,1.5059,1.5523,1.5466,1.5039,1.5128,1.5336,1.5327,1.503,1.4487,1.4371,1.4387,1.4458,1.4419,1.395,1.3839,1.4215,1.4449,1.433,1.3848,1.3927,1.4199,1.4336,1.4151,1.3856,1.3961,1.4171,1.4313,1.4428,1.4065,1.3891,1.4144,1.4234,1.4024,1.326,1.3387,1.4414,1.5886,1.7702,1.9795,2.0755,2.1553,2.1492,1.9145,1.6276,1.5408,1.4771,1.4455,1.4387,1.3936,1.3819,1.4124,1.4583,1.4628,1.4394,1.4083,1.4212,1.4479,1.4714,1.4564,1.4337,1.4449,1.4759,1.4837,1.4742,1.4367,1.4317,1.4564,1.4876,1.4799,1.4528,1.4662,1.495,1.5152,1.5112,1.4778,1.4923,1.5225,1.5523,1.5373,1.5082,1.5296,1.5682,1.5861,1.5925,1.5633,1.5711,1.5966,1.6393,1.654,1.6167,1.6286,1.6446,1.6839,1.6973,1.67,1.6718,1.7001,1.7269,1.7327,1.6926,1.6833,1.684,1.7109,1.7257,1.6862,1.6516,1.6469,1.6574,1.6447,1.5877,1.5555,1.558,1.563,1.5674,1.5256,1.4985,1.5041,1.5292,1.5387,1.5007,1.4857,1.4808,1.5067,1.5247,1.5193,1.4936,1.4876,1.5141,1.5337,1.5181,1.4848,1.5034,1.5206,1.5418,1.527,1.5014,1.5076,1.5358,1.5515,1.55,1.5237,1.5049,1.5266,1.5579,1.5673,1.5298,1.5197,1.5359,1.5603,1.5556,1.5216,1.5077,1.5286,1.5526,1.5454,1.5108,1.4996,1.5267,1.5365,1.5507,1.5221,1.4927,1.5008,1.5212,1.5273,1.4906,1.4608,1.4807,1.5105,1.5202,1.4813,1.4697,1.4833,1.5069,1.5259,1.4998,1.4831,1.4843,1.5056,1.5525,1.5428,1.5242,1.5354,1.5342,1.5376,1.501,1.4541,1.4458,1.4555,1.4615,1.4336,1.3867,1.3899,1.406,1.4258,1.4089,1.3898,1.3648,1.3854,1.4128,1.4107,1.3809,1.3752,1.3791,1.3905,1.3902,1.3621,1.3647,1.3824,1.423,1.4168,1.3486,1.3333,1.3932,1.5074,1.6458,1.6934,1.8983,2.1117,2.1891,2.1762,2.032,1.6999,1.3869,1.4335,1.4447,1.4127,1.4248,1.4451,1.4849,1.4982,1.4659,1.4551,1.4759,1.5073,1.5206,1.5015,1.4729,1.4802,1.5074,1.54,1.5237,1.4859,1.4943,1.5078,1.5287,1.5036,1.4837,1.4878,1.5209,1.552,1.5425,1.5192,1.5311,1.5397,1.579,1.5802,1.5619,1.5611,1.5797,1.6014,1.6101,1.5816,1.591,1.623,1.656,1.6736,1.6542,1.6597,1.6902,1.7298,1.745,1.7041,1.7023,1.7199,1.7474,1.7669,1.7466,1.729,1.7429,1.7687,1.7666,1.7242,1.6818,1.6838,1.685,1.6764,1.622,1.5863,1.5772,1.5984,1.5847,1.5619,1.5175,1.5074,1.5275,1.5453,1.5334,1.4917,1.5002,1.5274,1.5516,1.5334,1.5063,1.5066,1.538,1.5519,1.5424,1.5083,1.5192,1.5489,1.5538,1.5519,1.5199,1.5141,1.5326,1.5558,1.5531,1.5216,1.5214,1.5407,1.5589,1.5522,1.522,1.5244,1.5403,1.5589,1.5499,1.5132,1.5132,1.5215,1.5453,1.5596,1.5294,1.5102,1.5205,1.5548,1.5637,1.5239,1.5083,1.5111,1.536,1.5644,1.5269,1.5081,1.5324,1.5653,1.5755,1.5422,1.5343,1.5481,1.5763,1.6138,1.6179,1.5902,1.6217,1.6562,1.6585,1.6233,1.5855,1.5714,1.5822,1.5835,1.5391,1.5003,1.5009,1.5193,1.5229,1.5101,1.4863,1.478,1.4938,1.5175,1.5073,1.4727,1.4634,1.4924,1.5205,1.5158,1.4721,1.4734,1.4905,1.5129,1.5022,1.4638,1.4366,1.423,1.4382,1.518,1.5845,1.7011,1.9113,2.2039,2.2788,2.2331,2.1338,1.8863,1.5702,1.5173,1.5096,1.489,1.5345,1.5684,1.5854,1.5587,1.5602,1.5599,1.5898,1.6016,1.6032,1.5661,1.587,1.6078,1.644,1.6144,1.5901,1.5919,1.6368,1.6521,1.6463,1.6265,1.6452,1.671,1.6855,1.6419,1.6288,1.6159,1.6383,1.6672,1.6793,1.6498,1.6596,1.691,1.7228,1.728,1.7009,1.7077,1.7389,1.769,1.7681,1.7503,1.76,1.7998,1.835,1.8429,1.8322,1.8359,1.847,1.8815,1.8981,1.8734,1.8665,1.8783,1.9034,1.9045,1.8569,1.8374,1.8321,1.8448,1.8335,1.7799,1.7495,1.7447,1.7464,1.7534,1.7222,1.6813,1.6745,1.6924,1.6997,1.6754,1.6418,1.6564,1.6732,1.695,1.6724,1.6398,1.648,1.678,1.6923,1.6726,1.6483,1.6518,1.6816,1.7023,1.7005,1.6673,1.6689,1.6864,1.7076,1.7064,1.6647,1.6733,1.6985,1.7149,1.7043,1.6778,1.6794,1.6998,1.7142,1.7038,1.6819,1.6777,1.6827,1.7157,1.7164,1.6928,1.6714,1.6921,1.7103,1.7199,1.6802,1.6721,1.6799,1.695,1.6935,1.6622,1.6536,1.6771,1.7014,1.7138,1.6948,1.6682,1.6873,1.7158,1.7409,1.7262,1.7118,1.7246,1.7633,1.8087,1.7612,1.7326,1.7341,1.7346,1.7236,1.6874,1.6565,1.652,1.6646,1.6719,1.6537,1.6281,1.6128,1.6326,1.6532,1.6465,1.6163,1.6135,1.6294,1.6523,1.6441,1.6137,1.6147,1.6416,1.6639,1.6472,1.6149,1.6226,1.6267,1.6091,1.5902,1.6144,1.7125,1.8624,2.0674,2.3573,2.3965,2.367,2.3141,2.1082,1.7511,1.6369,1.6479,1.6494,1.6992,1.6929,1.6744,1.6494,1.678,1.6787,1.7169,1.6932,1.6905,1.6528,1.6951,1.7057,1.7038,1.667,1.7074,1.7227,1.7448,1.7055,1.6946,1.7037,1.7541,1.7674,1.7545,1.7239,1.7265,1.7514,1.7765,1.7817,1.7538,1.7629,1.7968,1.8207,1.8241,1.805,1.8287,1.8642,1.8881,1.8994,1.895,1.8915,1.9305,1.9542,1.9719,1.9593,1.9556,1.9846,2.0271,2.0399,2.0093,2.0028,2.026,2.0479,2.0413,2.0181,2.005,2.0099,2.0169,1.9966,1.9325,1.9071,1.894,1.894,1.8906,1.8554,1.8041,1.8081,1.8204,1.8265,1.7887,1.77,1.7652,1.801,1.8174,1.7837,1.7526,1.764,1.7865,1.8204,1.7865,1.7688,1.7591,1.7762,1.8065,1.7967,1.7542,1.7682,1.7937,1.8192,1.8095,1.7702,1.7715,1.7955,1.8205,1.809,1.7692,1.7806,1.8054,1.8214,1.8176,1.7792,1.7754,1.7895,1.8104,1.8246,1.7856,1.7682,1.7839,1.8108,1.8019,1.7781,1.7715,1.7741,1.7994,1.8078,1.7622,1.758,1.7785,1.7886,1.7946,1.7779,1.755,1.7579,1.7845,1.8073,1.7901,1.7609,1.7847,1.8209,1.8303,1.8159,1.8141,1.8418,1.8885,1.9189,1.8714,1.84,1.8386,1.8455,1.8515,1.8156,1.758,1.737,1.7436,1.76,1.7364,1.7047,1.7117,1.7322,1.7523,1.7269,1.6957,1.6998,1.7117,1.7267,1.714,1.688,1.6829,1.6999,1.7339,1.7356,1.7021,1.6907,1.7096,1.7008,1.6786,1.6747,1.7724,1.9061,2.0955,2.3825,2.4612,2.4396,2.4152,2.2565,2.0812,1.7101,1.6935,1.7309,1.7514,1.7849,1.7448,1.7299,1.7297,1.7629,1.7614,1.7447,1.7186,1.7374,1.7564,1.7812,1.7404,1.733,1.7467,1.7659,1.7819,1.7761,1.7397,1.7471,1.7754,1.8075,1.7893,1.7634,1.7627,1.7979,1.8246,1.8118,1.7768,1.7992,1.8312,1.8602,1.8425,1.8191,1.8246,1.8535,1.8816,1.8995,1.8836,1.8926,1.9244,1.957,1.9657,1.9498,1.9591,1.9913,2.0245,2.033,1.9964,2.0017,2.0251,2.0548,2.0539,2.0263,2.0029,2.0112,2.0279,2.0227,1.974,1.9219,1.9174,1.9144,1.9201,1.8628,1.8349,1.8293,1.8486,1.8438,1.8003,1.7757,1.7873,1.8087,1.82,1.8109,1.7779,1.7755,1.8059,1.8246,1.8055,1.7691,1.7773,1.8016,1.8292,1.8123,1.7766,1.7775,1.8026,1.8191,1.8106,1.7845,1.79,1.8088,1.815,1.8141,1.7908,1.7771,1.8055,1.8244,1.8215,1.7812,1.7877,1.8004,1.8089,1.8158,1.781,1.7738,1.7955,1.8177,1.8313,1.7718,1.7657,1.7721,1.7972,1.8119,1.781,1.7555,1.7645,1.7877,1.7913,1.7625,1.7401,1.7523,1.7891,1.7914,1.753,1.7421,1.7434,1.7743,1.7817,1.7578,1.7448,1.7499,1.782,1.8041,1.7892,1.7691,1.7648,1.806,1.8335,1.8252,1.8126,1.8365,1.8643,1.8717,1.8409,1.7929,1.7793,1.7864,1.7829,1.7714,1.7129,1.6921,1.7054,1.729,1.7233,1.6768,1.6792,1.6914,1.7152,1.7058,1.6649,1.6622,1.6719,1.7052,1.6984,1.6667,1.6593,1.6804,1.6958,1.707,1.6762,1.6456,1.6132,1.6336,1.7004,1.7723,1.9075,2.1383,2.4088,2.4526,2.3815,2.2693,2.0287,1.7236,1.7092,1.688,1.6598,1.6845,1.7195,1.7519,1.7233,1.7045,1.6967,1.7308,1.7297,1.7296,1.6929,1.7033,1.7212,1.7568,1.727,1.7049,1.7068,1.7431,1.7544,1.7344,1.7141,1.7179,1.7331,1.7676,1.7592,1.7301,1.7293,1.7648,1.7925,1.7891,1.7521,1.7613,1.7979,1.8275,1.8198,1.8084,1.8123,1.8382,1.8722,1.8911,1.8717,1.8684,1.8927,1.9355,1.9616,1.9298,1.9216,1.9481,1.9831,2.0088,1.9609,1.9502,1.9709,1.9942,2.0094,1.9602,1.9387,1.938,1.9441,1.9425,1.9047,1.8587,1.8468,1.8412,1.8403,1.8081,1.7712,1.768,1.7851,1.7957,1.7572,1.7301,1.7418,1.7663,1.7811,1.7533,1.7378,1.7367,1.7551,1.7789,1.779,1.7412,1.739,1.7637,1.7851,1.7815,1.7469,1.7456,1.7717,1.7916,1.7794,1.7414,1.7542,1.7887,1.8184,1.8099,1.7912,1.764,1.7808,1.8032,1.8159,1.7889,1.7718,1.7872,1.8012,1.8048,1.7632,1.7408,1.7543,1.7775,1.7837,1.7498,1.7376,1.7512,1.772,1.7763,1.7748,1.7334,1.7212,1.7475,1.7608,1.7502,1.7183,1.7332,1.7561,1.7716,1.7463,1.7196,1.7233,1.7472,1.7775,1.7616,1.7319,1.7473,1.7635,1.7832,1.7843,1.7593,1.7632,1.7974,1.8427,1.8402,1.8195,1.8385,1.85,1.8599,1.8472,1.79,1.7696,1.7714,1.7789,1.7356,1.6954,1.6925,1.6959,1.7334,1.7333,1.6971,1.6847,1.6993,1.7301,1.7289,1.7089,1.6911,1.7095,1.7447,1.7325,1.7023,1.7027,1.7084,1.731,1.737,1.7097,1.6481,1.6137,1.6728,1.7931,1.9099,2.0591,2.3351,2.4371,2.447,2.3596,2.1603,1.8059,1.7055,1.763,1.7307,1.7239,1.7304,1.7604,1.7515,1.7567,1.7197,1.7244,1.7434,1.7715,1.7609,1.7267,1.7257,1.7556,1.76,1.7674,1.7344,1.7581,1.7714,1.795,1.7774,1.7558,1.7688,1.7942,1.8025,1.8112,1.7914,1.7804,1.7984,1.836,1.8395,1.8266,1.8122,1.8409,1.8742,1.8852,1.8672,1.8624,1.8921,1.9329,1.9432,1.9227,1.932,1.9463,1.9734,2.0044,2.0013,1.9938,2.0159,2.0379,2.0603,2.0358,2.0198,2.0339,2.0613,2.0711,2.0335,2.0034,1.9923,1.9974,1.9875,1.9299,1.9059,1.8845,1.8942,1.9034,1.8789,1.8389,1.825,1.8358,1.8477,1.8354,1.802,1.8052,1.8314,1.8479,1.8438,1.8094,1.8134,1.8389,1.8651,1.8648,1.8334,1.8161,1.8379,1.8702,1.8755,1.8414,1.832,1.8513,1.8786,1.8865,1.8612,1.8445,1.8671,1.8912,1.8894,1.8528,1.8482,1.8582,1.8783,1.8914,1.8698,1.8433,1.8542,1.8749,1.8869,1.8611,1.8424,1.8556,1.8768,1.8876,1.8639,1.8348,1.8436,1.8641,1.8801,1.8496,1.833,1.8369,1.8568,1.8755,1.8661,1.8259,1.829,1.8523,1.8745,1.8676,1.8367,1.8388,1.8624,1.8834,1.8771,1.8584,1.8577,1.8813,1.9168,1.9104,1.9004,1.9049,1.9309,1.9459,1.9401,1.8831,1.8455,1.8458,1.8475,1.8354,1.7762,1.7605,1.7684,1.7845,1.7861,1.7496,1.7332,1.745,1.7611,1.7694,1.7424,1.7246,1.7227,1.7387,1.7521,1.7264,1.7038,1.7118,1.7274,1.7376,1.7272,1.6541,1.6151,1.6911,1.7943,1.8959,2.0613,2.3531,2.4155,2.4388,2.3996,2.2166,1.969,1.7316,1.7402,1.7108,1.6722,1.6824,1.707,1.7198,1.6987,1.6747,1.6658,1.6808,1.6981,1.6928,1.6659,1.6589,1.6716,1.6982,1.6891,1.6578,1.6524,1.6716,1.6904,1.7031,1.6639,1.6585,1.6775,1.6963,1.7002,1.6652,1.6528,1.6796,1.6991,1.7132,1.7047,1.6813,1.6873,1.7066,1.7358,1.7229,1.7162,1.7426,1.7738,1.7996,1.7723,1.7733,1.7978,1.828,1.8437,1.8263,1.8221,1.8396,1.8692,1.8812,1.8624,1.8296,1.8364,1.8613,1.8681,1.8455,1.799,1.7846,1.8017,1.7908,1.7598,1.7007,1.6791,1.6871,1.6857,1.6649,1.6055,1.6053,1.6114,1.6308,1.6169,1.5744,1.5507,1.5662,1.5879,1.5906,1.5538,1.5407,1.5568,1.5863,1.5833,1.5514,1.5372,1.5675,1.5836,1.5759,1.541,1.5315,1.5476,1.5665,1.5919,1.5658,1.5447,1.5518,1.5727,1.5846,1.5556,1.5425,1.5586,1.5712,1.5873,1.5548,1.5302,1.5313,1.5597,1.5616,1.557,1.5136,1.5154,1.5435,1.5581,1.5377,1.5055,1.5094,1.5309,1.5533,1.5343,1.502,1.4965,1.5221,1.5449,1.5284,1.5024,1.5315,1.5576,1.5639,1.5609,1.5398,1.5474,1.5823,1.6062,1.6023,1.5427,1.5303,1.5285,1.5341,1.5119,1.4483,1.4158,1.4225,1.4503,1.4416,1.3907,1.3748,1.3868,1.3929,1.3978,1.358,1.3349,1.3545,1.3741,1.3784,1.3459,1.3162,1.3212,1.3494,1.3534,1.3134,1.2964,1.2799,1.2514,1.2854,1.3388,1.4283,1.5043,1.7236,1.9938,2.0262,1.9965,1.8981,1.6888,1.3654,1.2995,1.2719,1.2702,1.3106,1.3236,1.3107,1.2701,1.2824,1.3001,1.325,1.3082,1.2901,1.2818,1.296,1.3244,1.3281,1.2868,1.2885,1.3077,1.3431,1.3366,1.314,1.3041,1.3334,1.352,1.3601,1.3123,1.3172,1.3381,1.3696,1.3751,1.3576,1.3475,1.3602,1.3898,1.411,1.3935,1.3856,1.4014,1.4278,1.4565,1.4383,1.4366,1.4607,1.501,1.512,1.494,1.4835,1.5124,1.5299,1.5554,1.5504,1.5247,1.5321,1.5594,1.5713,1.5494,1.5113,1.4933,1.4921,1.4737,1.4341,1.3896,1.3667,1.3733,1.3763,1.3395,1.285,1.2845,1.2932,1.3087,1.3017,1.2613,1.2616,1.2805,1.2999,1.3069,1.2749,1.2563,1.2752,1.3085,1.3005,1.2765,1.2737,1.3,1.3128,1.3127,1.2872,1.2698,1.2927,1.3208,1.3173,1.2803,1.2583,1.2834,1.3143,1.3276,1.2838,1.2716,1.2801,1.314,1.3235,1.2941,1.2815,1.309,1.3156,1.3288,1.2986,1.2655,1.2686,1.2973,1.3193,1.2942,1.2624,1.2594,1.279,1.2894,1.2686,1.2499,1.2557,1.27,1.2855,1.2757,1.2691,1.264,1.2862,1.3192,1.3229,1.2826,1.2937,1.3225,1.3703,1.3795,1.3326,1.3233,1.3233,1.3234,1.3011,1.2354,1.2111,1.2107,1.2245,1.2062,1.169,1.1624,1.1759,1.1947,1.2006,1.1722,1.1498,1.1566,1.1818,1.1897,1.163,1.1312,1.1425,1.1758,1.1856,1.1589,1.1328,1.1551,1.1641,1.1111,1.0884,1.1061,1.2104,1.3625,1.5595,1.8304,1.8837,1.86,1.8188,1.6467,1.2617,1.0963,1.1514,1.1699,1.2078,1.1793,1.154,1.1466,1.1818,1.1789,1.19,1.1446,1.1419,1.1559,1.192,1.1845,1.1492,1.145,1.1754,1.2003,1.2047,1.1624,1.1646,1.1927,1.2069,1.2018,1.1832,1.1758,1.1977,1.2136,1.2318,1.2052,1.2013,1.2192,1.2553,1.2673,1.2416,1.2302,1.2591,1.2997,1.3264,1.3035,1.2949,1.322,1.3693,1.3844,1.3755,1.3719,1.3806,1.4113,1.4399,1.4284,1.4022,1.4308,1.4533,1.4743,1.4583,1.425,1.4239,1.4473,1.434,1.3921,1.341,1.3183,1.319,1.3175,1.3049,1.255,1.2303,1.2275,1.2409,1.2324,1.1865,1.1833,1.2017,1.2234,1.2214,1.1887,1.1814,1.21,1.2222,1.2179,1.1891,1.1894,1.2063,1.2222,1.2297,1.2111,1.1784,1.204,1.2228,1.2321,1.1926,1.1809,1.1929,1.2181,1.2288,1.2131,1.1956,1.2144,1.2364,1.2449,1.203,1.1983,1.2073,1.2249,1.2446,1.2281,1.2003,1.2133,1.2268,1.2498,1.2372,1.208,1.2178,1.2384,1.2537,1.2257,1.1926,1.1998,1.2235,1.2421,1.2134,1.2015,1.2026,1.2334,1.2577,1.2525,1.2283,1.2493,1.2683,1.2926,1.2971,1.271,1.2871,1.3314,1.3571,1.332,1.2926,1.2842,1.2757,1.285,1.2517,1.2287,1.1987,1.1908,1.2073,1.2074,1.1769,1.1609,1.1894,1.201,1.217,1.1843,1.1815,1.1853,1.1963,1.1987,1.172,1.1637,1.1911,1.2078,1.2262,1.1989,1.1804,1.1508,1.1342,1.172,1.2513,1.339,1.5002,1.7979,1.9649,1.9269,1.8546,1.7249,1.4148,1.2057,1.2203,1.2072,1.2205,1.2294,1.2584,1.2471,1.2211,1.213,1.2281,1.246,1.2397,1.2053,1.2081,1.2258,1.2525,1.2497,1.2227,1.2194,1.2453,1.2744,1.2659,1.2346,1.2382,1.2603,1.2807,1.2961,1.2688,1.2582,1.2795,1.306,1.3257,1.3092,1.3103,1.323,1.3578,1.3842,1.3617,1.3582,1.3891,1.4256,1.4381,1.4268,1.415,1.4319,1.4775,1.5069,1.4996,1.4843,1.5054,1.5358,1.5607,1.5428,1.5289,1.5389,1.5674,1.5797,1.5604,1.5275,1.5153,1.5218,1.5249,1.4984,1.4472,1.4203,1.4114,1.4137,1.3851,1.3397,1.3292,1.3473,1.3585,1.3363,1.3015,1.3044,1.3262,1.3503,1.3325,1.2946,1.3072,1.315,1.3351,1.3431,1.3185,1.3082,1.3211,1.3446,1.353,1.3208,1.3136,1.3249,1.3497,1.3554,1.3255,1.3202,1.3383,1.3664,1.3597,1.3258,1.3153,1.3214,1.341,1.3626,1.3374,1.3159,1.3264,1.3497,1.3581,1.3343,1.3004,1.2998,1.3312,1.3512,1.3254,1.3032,1.3083,1.3246,1.3358,1.3329,1.2913,1.2816,1.2951,1.318,1.309,1.2788,1.2718,1.2959,1.3131,1.3085,1.2825,1.2899,1.3097,1.3369,1.3261,1.3215,1.3206,1.3217,1.3189,1.3151,1.2589,1.2185,1.2087,1.1985,1.1818,1.1302,1.1097,1.1156,1.1246,1.109,1.0642,1.0464,1.0556,1.0591,1.0526,0.99371,0.98008,0.98011,0.99716,0.99387,0.96264,0.93693,0.92529,0.93273,0.93587,0.90161,0.81884,0.78975,0.87462,1.0088,1.1458,1.35,1.5977,1.6049,1.621,1.5808,1.2721,1.262,0.94308,0.9133,0.91473,0.85931,0.89932,0.89454,0.91618,0.86187,0.83131,0.79326,0.88635,0.91689,0.94869,0.91092,0.91708,0.9043,0.93125,0.90516,0.89167,0.85791,0.87552,0.8806,0.89613,0.8601,0.86767,0.87485,0.89915,0.88046,0.87906,0.87523,0.86656,0.87029,0.88473,0.85546,0.86249,0.87121,0.89192,0.89202,0.89533,0.89143,0.90602,0.89882,0.92536,0.94714,0.98278,0.99259,1.0078,1.0219,0.99325,0.99567,1.0198,1.0478,1.0493,1.0381,1.0119,1.0078,1.0299,1.023,0.99399,0.94299,0.92637,0.94384,0.92743,0.90566,0.85424,0.84285,0.84031,0.83464,0.78709,0.74925,0.7225,0.73075,0.7406,0.73492,0.73065,0.72796,0.72611,0.71935,0.7084,0.71508,0.71369,0.72964,0.73768,0.74268,0.71205,0.72138,0.73565,0.74479,0.75528,0.74433,0.74601,0.77116,0.78353,0.78133,0.76098,0.7584,0.75538,0.77614,0.77322,0.75389,0.74559,0.76171,0.76315,0.7745,0.75622,0.75391,0.75071,0.77448,0.76843,0.74663,0.71935,0.72878,0.75144,0.76389,0.75793,0.74148,0.73543,0.74864,0.7551,0.77908,0.76131,0.76891,0.77939,0.80056,0.79239,0.79428,0.80375,0.80335,0.80598,0.78844,0.74364,0.72716,0.72013,0.69004,0.66603,0.63711,0.61319,0.62921,0.64362,0.64545,0.6263,0.61713,0.61378,0.60765,0.61775,0.59816,0.59033,0.58163,0.61814,0.62204,0.6111,0.60828,0.6151,0.63359,0.65018,0.60601,0.55227,0.51374,0.56577,0.67692,0.77152,0.93944,1.1981,1.3007,1.3578,1.2933,1.0663,0.81084,0.69595,0.66391,0.62931,0.59209,0.58102,0.62883,0.62911,0.61785,0.59912,0.62919,0.63485,0.63651,0.62553,0.60973,0.61003,0.62396,0.63464,0.62591,0.60863,0.62075,0.64227,0.65297,0.64386,0.61104,0.60794,0.64349,0.67263,0.65435,0.63413,0.63702,0.6541,0.67827,0.69122,0.66647,0.66608,0.68646,0.70238,0.71331,0.71089,0.71551,0.7178,0.73743,0.75812,0.75346,0.75464,0.76776,0.77226,0.791,0.78728,0.76705,0.7604,0.794,0.80996,0.79981,0.792,0.7949,0.80834,0.80254,0.76765,0.74816,0.73821,0.7261,0.71355,0.69101,0.65428,0.63455,0.65666,0.64794,0.62369,0.58077,0.59241,0.60615,0.62307,0.62876,0.62183,0.60739,0.61348,0.61702,0.61708,0.59717,0.60653,0.62761,0.65016,0.65403,0.6405,0.63971,0.65362,0.67557,0.68807,0.6623,0.67413,0.69865,0.73238,0.74457,0.71784,0.7094,0.72418,0.73022,0.74103,0.73126,0.73106,0.75175,0.75498,0.7629,0.75516,0.74684,0.75502,0.77733,0.78851,0.76737,0.7652,0.76607,0.79946,0.80744,0.78616,0.77853,0.78424,0.82094,0.84247,0.82142,0.82691,0.82475,0.85344,0.89842,0.89433,0.88659,0.91023,0.93423,0.93022,0.91266,0.88057,0.88024,0.88246,0.88305,0.84192,0.824,0.81118,0.82506,0.84578,0.84185,0.8292,0.82052,0.83483,0.86378,0.85302,0.81663,0.81697,0.833,0.84992,0.84496,0.81692,0.81451,0.83802,0.86041,0.85919,0.83702,0.81038,0.78076,0.80266,0.89711,0.99689,1.1419,1.4022,1.6417,1.6424,1.5755,1.4502,1.1735,0.90964,0.89576,0.8784,0.85601,0.89976,0.91107,0.91238,0.90649,0.88813,0.88138,0.89715,0.89978,0.89249,0.88159,0.8968,0.91912,0.93634,0.9247,0.91578,0.9196,0.94878,0.96703,0.95565,0.94648,0.95245,0.97667,1.0053,1.0083,0.9755,0.97988,1.0091,1.0329,1.0412,1.0131,1.03,1.0495,1.0805,1.0907,1.0816,1.079,1.1133,1.1565,1.1698,1.1605,1.1653,1.192,1.2347,1.2594,1.253,1.2504,1.2674,1.3131,1.3291,1.3161,1.3014,1.3179,1.3354,1.3284,1.2834,1.2696,1.2671,1.2657,1.2374,1.2111,1.1641,1.1483,1.1567,1.1608,1.1355,1.0947,1.0946,1.103,1.1201,1.1058,1.0854,1.093,1.1195,1.125,1.111,1.0969,1.1056,1.1295,1.1447,1.1436,1.1311,1.1307,1.145,1.1571,1.1589,1.1241,1.1303,1.1537,1.1707,1.1633,1.1313,1.1376,1.1686,1.1777,1.1694,1.1437,1.151,1.1612,1.183,1.1848,1.1645,1.1459,1.156,1.1836,1.1955,1.1807,1.1649,1.1692,1.1882,1.2006,1.1761,1.184,1.1945,1.2108,1.2084,1.1722,1.1668,1.1869,1.2151,1.2376,1.2063,1.1963,1.2052,1.2353,1.2536,1.2443,1.2341,1.244,1.2766,1.299,1.3023,1.2932,1.2856,1.2982,1.2933,1.2918,1.2407,1.1944,1.1945,1.1926,1.1673,1.1278,1.1236,1.1456,1.1726,1.157,1.1263,1.12,1.1431,1.1434,1.1385,1.1128,1.1218,1.136,1.1374,1.144,1.1198,1.1061,1.1122,1.1391,1.1369,1.092,1.0367,1.0651,1.179,1.3089,1.4394,1.6835,1.8836,1.8918,1.8517,1.7039,1.3839,1.1996,1.1225,1.1363,1.1339,1.1133,1.1281,1.1323,1.1401,1.1124,1.0979,1.1035,1.1297,1.1247,1.1167,1.0875,1.1119,1.1349,1.1538,1.122,1.1138,1.1051,1.1221,1.1385,1.1399,1.12,1.117,1.1313,1.1563,1.1412,1.1189,1.1208,1.1473,1.1764,1.1763,1.149,1.1679,1.2012,1.223,1.2247,1.2034,1.2009,1.2301,1.27,1.2844,1.2604,1.2829,1.3092,1.341,1.3568,1.327,1.3364,1.3664,1.3877,1.3853,1.3649,1.3499,1.3608,1.3717,1.3654,1.3346,1.297,1.2721,1.2675,1.2579,1.2216,1.1722,1.1591,1.1571,1.1437,1.1257,1.1049,1.0966,1.1166,1.123,1.092,1.0732,1.0733,1.0738,1.1152,1.0981,1.0705,1.0697,1.0951,1.1146,1.1035,1.0711,1.0842,1.0874,1.116,1.0874,1.0655,1.0717,1.0929,1.1135,1.1156,1.0942,1.0818,1.0846,1.1125,1.1233,1.1087,1.1028,1.1331,1.1636,1.1511,1.129,1.1274,1.1432,1.1753,1.1678,1.1312,1.1324,1.1528,1.1598,1.1689,1.1601,1.1249,1.1381,1.1598,1.156,1.157,1.1325,1.144,1.1705,1.165,1.1351,1.1021,1.1364,1.1531,1.1632,1.1439,1.1248,1.1352,1.1454,1.1598,1.163,1.1318,1.1465,1.1703,1.1854,1.1793,1.1501,1.1708,1.194,1.2073,1.2303,1.2052,1.2197,1.2553,1.2742,1.2443,1.2136,1.2207,1.2043,1.1982,1.1859,1.1556,1.1252,1.1485,1.1544,1.1357,1.1051,1.1069,1.1313,1.1356,1.1434,1.1105,1.1052,1.1238,1.1499,1.1488,1.1273,1.1087,1.1177,1.1323,1.1465,1.1228,1.0942,1.0899,1.0698,1.0494,1.0699,1.1438,1.27,1.4847,1.7527,1.8125,1.827,1.7524,1.5354,1.2718,1.1513,1.069,1.0311,1.0476,1.0362,1.0514,1.0361,1.0441,1.0568,1.0901,1.0736,1.0475,1.011,1.0512,1.0653,1.049,1.0233,1.0423,1.0666,1.0801,1.077,1.0537,1.0479,1.0581,1.0696,1.0854,1.0647,1.0631,1.0807,1.1135,1.0931,1.0828,1.0808,1.0875,1.1203,1.13,1.1054,1.1236,1.1301,1.1595,1.1771,1.161,1.1756,1.1975,1.2236,1.2529,1.2485,1.2311,1.2585,1.2909,1.3266,1.3082,1.2999,1.3092,1.3302,1.3294,1.2961,1.2812,1.2702,1.2804,1.2791,1.2439,1.1965,1.1806,1.1778,1.1725,1.1307,1.0871,1.0958,1.0927,1.0938,1.0748,1.0453,1.0438,1.0655,1.0726,1.0705,1.0309,1.0231,1.0365,1.0714,1.0668,1.0291,1.025,1.0524,1.0681,1.0677,1.0333,1.0418,1.0505,1.0732,1.0756,1.0501,1.0517,1.0807,1.0909,1.1114,1.0776,1.0726,1.0799,1.0955,1.114,1.0891,1.0717,1.0669,1.0968,1.113,1.0885,1.0743,1.0951,1.1209,1.1335,1.0939,1.081,1.0899,1.108,1.1273,1.1293,1.0897,1.079,1.108,1.1256,1.1079,1.0768,1.0768,1.1105,1.1271,1.1168,1.0981,1.1055,1.1366,1.1555,1.1491,1.1392,1.1458,1.1617,1.1975,1.2026,1.1958,1.1955,1.2083,1.2109,1.2137,1.1678,1.1393,1.1427,1.1406,1.1308,1.0842,1.0675,1.088,1.1146,1.1138,1.0786,1.0638,1.0739,1.0835,1.0945,1.0777,1.0542,1.0633,1.0858,1.0931,1.0711,1.0559,1.0727,1.0897,1.1019,1.0711,1.0534,1.0298,1.0191,1.0598,1.1406,1.2403,1.405,1.6769,1.8878,1.8969,1.833,1.6921,1.3875,1.1343,1.109,1.0854,1.0771,1.1214,1.1364,1.1163,1.0833,1.0833,1.108,1.1231,1.1217,1.096,1.0958,1.1188,1.1401,1.1241,1.1128,1.1114,1.1207,1.1435,1.1389,1.1208,1.1191,1.1305,1.1646,1.1768,1.1597,1.1363,1.147,1.1841,1.1945,1.1749,1.1598,1.1843,1.2199,1.226,1.2133,1.2133,1.2258,1.2627,1.286,1.2811,1.2834,1.3007,1.3419,1.3619,1.3583,1.3468,1.3547,1.4106,1.4365,1.4319,1.4066,1.4095,1.4327,1.4304,1.3938,1.3638,1.3465,1.3649,1.3672,1.2984,1.2487,1.2385,1.2279,1.2326,1.2075,1.1732,1.152,1.1703,1.1672,1.1499,1.1147,1.1235,1.1312,1.1547,1.1428,1.1313,1.1235,1.1446,1.146,1.1186,1.1246,1.1129,1.1387,1.1479,1.1472,1.1186,1.1012,1.1097,1.1305,1.149,1.0956,1.0895,1.1267,1.1508,1.1344,1.1001,1.0817,1.1037,1.119,1.1267,1.12,1.0663,1.0897,1.0944,1.0997,1.1072,1.082,1.0885,1.1019,1.1039,1.077,1.0457,1.0568,1.0663,1.0832,1.0565,1.0299,1.0511,1.0762,1.0759,1.0739,1.0321,1.0378,1.0436,1.0587,1.0449,1.014,1.0104,1.0189,1.0369,1.0408,1.016,1.0147,1.0093,1.0196,0.99483,0.96784,0.97611,0.99962,1.0116,1.012,0.99213,0.98447,0.99863,1.0205,1.0362,1.0192,1.0153,1.0232,1.0544,1.077,1.0631,1.0721,1.0967,1.1273,1.1302,1.0892,1.0803,1.0681,1.0782,1.0709,1.029,0.99248,1.0017,1.0118,1.0189,1.0074,0.98547,0.99046,0.99969,1.0131,0.99198,0.97326,0.97978,1.0027,1.0184,0.99168,0.98058,0.97554,0.9924,1.0133,1.011,0.98017,0.97871,0.97519,0.95018,0.96421,1.0258,1.1503,1.3304,1.5855,1.7633,1.785,1.7816,1.6451,1.3671,1.1817,1.0279,0.99922,1.0068,1.0205,1.0504,1.0168,0.99989,1.0087,1.0378,1.0369,1.0041,0.99746,1.0291,1.0387,1.0378,1.0031,1.0015,1.0267,1.0434,1.0438,1.0411,1.0122,1.0255,1.0443,1.0712,1.0439,1.0225,1.0305,1.0574,1.081,1.0636,1.0426,1.0592,1.0893,1.1118,1.0943,1.0855,1.0907,1.1148,1.1392,1.1502,1.1265,1.1394,1.1782,1.213,1.2185,1.21,1.215,1.2524,1.2773,1.2719,1.2602,1.258,1.2885,1.3026,1.292,1.2689,1.2505,1.2522,1.2549,1.2358,1.1839,1.1553,1.1428,1.1432,1.1294,1.069,1.0474,1.0586,1.0696,1.0551,1.0232,1.0186,1.0382,1.0501,1.0554,1.0335,1.0192,1.0184,1.0372,1.0457,1.0278,1.0142,1.027,1.0404,1.0453,1.0241,1.01,1.0155,1.0377,1.0447,1.0309,1.0128,1.0242,1.0322,1.0524,1.0513,1.0196,1.007,1.0363,1.055,1.0641,1.0427,1.0304,1.0414,1.0556,1.0507,1.0257,1.0227,1.0505,1.0669,1.0536,1.0264,1.029,1.0422,1.0665,1.0699,1.043,1.0202,1.0348,1.0569,1.058,1.0324,1.029,1.0414,1.0605,1.0587,1.0325,1.026,1.041,1.0605,1.0599,1.0422,1.0217,1.03,1.0527,1.0691,1.0499,1.0243,1.0358,1.0503,1.0656,1.0468,1.0303,1.0354,1.0544,1.0661,1.0514,1.0546,1.0729,1.0935,1.1082,1.1035,1.0857,1.097,1.1341,1.1643,1.1606,1.152,1.1533,1.1595,1.1722,1.143,1.0952,1.083,1.0954,1.102,1.0714,1.0301,1.0353,1.0394,1.0578,1.0549,1.0265,1.0116,1.0365,1.0555,1.052,1.026,1.0193,1.0294,1.0494,1.0471,1.0108,1.0099,1.0286,1.058,1.0546,1.0315,1.0105,0.98833,1.0225,1.119,1.2142,1.3462,1.5771,1.847,1.8973,1.8289,1.7212,1.392,1.0482,1.0551,1.0419,1.0257,1.0647,1.0836,1.0986,1.0847,1.0557,1.0561,1.0711,1.0806,1.0728,1.0452,1.056,1.0786,1.1021,1.0851,1.0662,1.067,1.0891,1.1036,1.0961,1.0779,1.0871,1.1077,1.1184,1.1207,1.0946,1.0978,1.1159,1.1414,1.1548,1.1229,1.1246,1.1412,1.1628,1.176,1.169,1.1723,1.2099,1.2376,1.2445,1.2248,1.2323,1.269,1.2879,1.3162,1.3209,1.3069,1.3275,1.3633,1.3897,1.3681,1.356,1.3697,1.3921,1.4041,1.3702,1.3377,1.3261,1.3294,1.3103,1.259,1.2148,1.2087,1.2147,1.2127,1.1783,1.1356,1.1311,1.1389,1.1503,1.1385,1.1091,1.1022,1.1299,1.1448,1.1227,1.1015,1.1002,1.1251,1.1524,1.1302,1.1087,1.1028,1.123,1.1474,1.1455,1.1122,1.1081,1.1258,1.1487,1.1494,1.1092,1.1011,1.118,1.1444,1.1424,1.1094,1.1074,1.1243,1.1552,1.1551,1.1257,1.1021,1.1121,1.1474,1.1476,1.1241,1.1084,1.127,1.1463,1.1624,1.1322,1.1146,1.1139,1.1479,1.1501,1.1176,1.1043,1.1191,1.1305,1.1418,1.1265,1.1049,1.101,1.1173,1.1364,1.1258,1.1024,1.1005,1.122,1.1388,1.1177,1.0889,1.0937,1.1113,1.1228,1.1219,1.0806,1.0782,1.1081,1.1239,1.1232,1.0921,1.0886,1.0985,1.1292,1.1342,1.1091,1.1049,1.1352,1.1617,1.1601,1.1315,1.1513,1.1748,1.2086
