2.9399,2.9281,2.9392,2.9277,2.9291,2.93,2.9324,2.9394,2.9304,2.9389,2.9386,2.9351,2.9296,2.9302,2.9303,2.9337,2.9276,2.9259,2.9296,2.9252,2.9255,2.9357,2.929,2.9274,2.917,2.921,2.9249,2.9172,2.9194,2.9191,2.9278,2.9339,2.9381,2.9388,2.9295,2.9393,2.9428,2.9376,2.9566,2.9555,2.9568,2.9668,2.9743,2.9669,2.9673,2.9495,2.9262,2.9053,2.9013,2.8965,2.8617,2.8498,2.8346,2.8333,2.8272,2.8307,2.8278,2.8253,2.8081,2.8114,2.8087,2.8143,2.8196,2.8075,2.7978,2.7824,2.8299,2.8646,2.9737,3.1357,3.3719,3.5814,3.6532,3.6491,3.5364,3.3211,3.103,2.9462,2.9142,2.8807,2.8669,2.8605,2.8406,2.8312,2.8297,2.8259,2.8214,2.8264,2.8217,2.8252,2.8248,2.8269,2.8249,2.8294,2.8254,2.8305,2.8356,2.835,2.8333,2.8447,2.8399,2.8441,2.842,2.8413,2.844,2.8453,2.8475,2.8582,2.8585,2.8579,2.864,2.8663,2.8724,2.881,2.8923,2.8958,2.898,2.9107,2.9182,2.9155,2.9121,2.9205,2.9276,2.9224,2.9313,2.932,2.9328,2.9436,2.9461,2.9491,2.9547,2.9544,2.9541,2.9504,2.9578,2.9656,2.9662,2.9751,2.9838,2.9817,2.9682,2.9762,2.965,2.9613,2.9574,2.9507,2.9405,2.9262,2.9225,2.9199,2.9166,2.908,2.9011,2.8947,2.896,2.8994,2.8912,2.8883,2.8977,2.9022,2.9002,2.898,2.903,2.9018,2.9021,2.9048,2.9027,2.9119,2.91,2.9129,2.9146,2.9099,2.913,2.9153,2.9204,2.9056,2.9128,2.9125,2.914,2.9111,2.9131,2.9095,2.9124,2.9076,2.912,2.9131,2.9089,2.9051,2.9014,2.9038,2.9097,2.9085,2.9018,2.8998,2.8996,2.892,2.8919,2.9059,2.8961,2.8905,2.8896,2.8956,2.8894,2.8918,2.8943,2.8955,2.8925,2.892,2.8919,2.9006,2.9078,2.9222,2.9194,2.9112,2.9118,2.9125,2.9166,2.9214,2.9269,2.9291,2.9317,2.943,2.9573,2.9476,2.9435,2.9539,2.9415,2.9272,2.9167,2.9112,2.9042,2.8846,2.8845,2.8793,2.8759,2.8806,2.872,2.8731,2.8768,2.8784,2.8782,2.8832,2.8774,2.8815,2.8564,2.8547,2.9043,2.9733,3.0888,3.3093,3.5529,3.6878,3.7097,3.6684,3.4891,3.2717,3.074,2.9796,2.9818,2.9551,2.9378,2.9294,2.9221,2.9079,2.9058,2.9,2.9071,2.9052,2.9068,2.902,2.915,2.9087,2.9114,2.9178,2.9161,2.9044,2.9155,2.9142,2.9154,2.9221,2.9277,2.9228,2.9284,2.9357,2.9362,2.943,2.9427,2.9453,2.9453,2.9464,2.9536,2.9532,2.9641,2.9646,2.9694,2.9617,2.9651,2.9717,2.978,2.9868,2.9915,2.9969,2.9922,2.991,2.9941,2.997,2.9988,3.0091,3.0103,3.0097,3.0089,3.0063,3.0023,3.007,3.0077,3.0105,3.0181,3.019,3.0264,3.0262,3.0154,3.0222,3.0231,3.0081,2.9959,2.993,2.9796,2.9726,2.964,2.9516,2.9504,2.9438,2.9406,2.931,2.9276,2.9237,2.9321,2.9374,2.936,2.9315,2.9304,2.9321,2.9319,2.9294,2.9264,2.9298,2.9375,2.9301,2.9274,2.9253,2.924,2.9324,2.9267,2.9313,2.9283,2.9265,2.9286,2.9251,2.9126,2.9213,2.911,2.9153,2.9186,2.9127,2.914,2.9123,2.9073,2.9074,2.904,2.9061,2.9134,2.9059,2.8989,2.8935,2.8923,2.902,2.8962,2.8904,2.8851,2.8904,2.8863,2.8877,2.8852,2.8824,2.8728,2.8763,2.88,2.8935,2.9046,2.9024,2.895,2.8984,2.8978,2.9008,2.9008,2.8969,2.8999,2.9147,2.9303,2.9335,2.9269,2.9326,2.9329,2.9279,2.8977,2.8825,2.8624,2.8667,2.8531,2.8395,2.8488,2.8471,2.8366,2.8329,2.837,2.8301,2.8306,2.833,2.8309,2.8329,2.8418,2.8163,2.8092,2.8467,2.9098,3.0019,3.1917,3.4205,3.6011,3.6387,3.6663,3.587,3.4022,3.182,2.9879,2.891,2.8846,2.8791,2.869,2.8571,2.8494,2.8408,2.8309,2.8274,2.8319,2.83,2.8332,2.8438,2.8409,2.8568,2.898,2.9164,2.9415,2.9555,2.9596,2.9794,2.9965,2.9979,3.0081,3.0203,3.0249,3.0348,3.0431,3.0387,3.0372,3.0472,3.0583,3.0589,3.0543,3.0589,3.0629,3.0635,3.0688,3.0722,3.0691,3.0694,3.064,3.0781,3.0837,3.0978,3.1004,3.09,3.0942,3.093,3.0962,3.1016,3.0984,3.0983,3.1003,3.096,3.092,3.105,3.0946,3.1022,3.1053,3.1116,3.1069,3.1183,3.1158,3.097,3.0788,3.0745,3.0706,3.06,3.0544,3.0446,3.0313,3.0256,3.0212,3.024,3.0127,2.9998,3.0022,3.0073,3.0055,2.9968,2.9966,2.9959,3.0081,3.013,3.0127,2.9961,3.0043,3.0027,3.0092,3.0112,3.0001,3.0066,3.0062,3.0054,3.0018,3.0059,3.0024,3.0028,3.0008,2.9973,2.9903,2.9942,2.98,2.9842,2.9859,2.991,2.9851,2.9723,2.968,2.9791,2.9779,2.9678,2.9705,2.9749,2.9685,2.97,2.979,2.9728,2.9767,2.9718,2.9716,2.9611,2.9654,2.9633,2.9703,2.9626,2.965,2.9612,2.967,2.9668,2.9696,2.9697,2.9774,2.9876,2.9787,2.991,2.9824,2.9768,2.9864,2.9891,3.0019,3.0109,3.0257,3.0154,3.0108,2.9993,2.9958,2.992,2.9828,2.9686,2.9613,2.9595,2.9482,2.9383,2.9414,2.9424,2.9455,2.952,2.9396,2.9448,2.9463,2.9453,2.9499,2.9436,2.9204,2.9178,2.9555,3.0308,3.142,3.3323,3.554,3.7249,3.7943,3.7691,3.6151,3.4243,3.194,3.0301,3.0219,3.0038,2.9974,2.9892,2.9759,2.9712,2.9705,2.9651,2.9578,2.9544,2.9566,2.9558,2.9622,2.9592,2.9613,2.9692,2.973,2.9729,2.9686,2.9661,2.9676,2.9754,2.9823,2.9859,2.9914,2.989,2.9869,2.9974,2.9958,3.0016,3.0069,3.0109,3.0173,3.0234,3.0161,3.0208,3.0195,3.0299,3.0485,3.0506,3.0391,3.0444,3.0586,3.0587,3.0546,3.061,3.0627,3.0705,3.0669,3.0726,3.0689,3.0728,3.0768,3.0759,3.0796,3.0786,3.0824,3.0817,3.0832,3.0825,3.0738,3.0773,3.0707,3.0677,3.0638,3.0552,3.0515,3.0389,3.0286,3.0202,3.0136,3.0011,2.9885,2.9882,2.9946,2.9818,2.9792,2.9739,2.9722,2.974,2.9757,2.976,2.9727,2.98,2.9864,2.9831,2.9831,2.9786,2.9832,2.978,2.9799,2.9864,2.986,2.9806,2.9766,2.98,2.9793,2.9721,2.9808,2.9737,2.9707,2.9743,2.9673,2.9635,2.9607,2.9691,2.9661,2.9621,2.9621,2.9592,2.9608,2.9605,2.9656,2.9559,2.955,2.9583,2.9682,2.9624,2.9555,2.9595,2.9566,2.9619,2.964,2.9572,2.9635,2.9697,2.9659,2.9613,2.9615,2.9712,2.9703,2.9635,2.9611,2.9767,2.9868,2.9984,2.9995,2.9906,2.9883,2.9956,2.9919,2.9929,3.0004,2.999,3.0133,3.0276,3.0269,3.0192,3.0217,3.0045,2.9993,2.9876,2.9868,2.9798,2.9715,2.962,2.9547,2.9525,2.9527,2.9589,2.9509,2.9549,2.9541,2.9515,2.9479,2.9549,2.9449,2.9575,2.932,2.9229,2.9852,3.0761,3.2019,3.438,3.6744,3.7784,3.799,3.7847,3.6564,3.4502,3.2326,3.0645,3.044,3.0314,3.0218,3.0125,2.9933,2.9857,2.984,2.9796,2.9763,2.983,2.9775,2.9759,2.9874,2.9961,2.9947,2.9948,2.9909,2.9996,3.0007,3.0052,3.0074,3.0086,3.0101,3.0078,3.0229,3.0192,3.0195,3.0236,3.0313,3.0382,3.0368,3.0538,3.0542,3.0556,3.0573,3.0652,3.073,3.078,3.077,3.0893,3.0925,3.1024,3.1049,3.113,3.1081,3.1106,3.1228,3.1265,3.1325,3.1335,3.1318,3.1291,3.1248,3.134,3.1448,3.138,3.1475,3.1555,3.1563,3.1595,3.1598,3.1598,3.1655,3.1593,3.1523,3.137,3.1416,3.1281,3.1245,3.1084,3.0966,3.0947,3.0828,3.0787,3.0726,3.0759,3.0798,3.0799,3.0754,3.0789,3.0841,3.0778,3.079,3.085,3.1003,3.0945,3.0996,3.0933,3.0923,3.0849,3.0878,3.0903,3.0952,3.1,3.1,3.0999,3.0988,3.102,3.094,3.1011,3.105,3.1019,3.1005,3.102,3.0995,3.094,3.0991,3.0955,3.0963,3.093,3.0868,3.0864,3.0855,3.0908,3.0913,3.0959,3.0862,3.0931,3.0922,3.0885,3.0869,3.0889,3.0828,3.0775,3.0858,3.0926,3.0848,3.0851,3.0854,3.0845,3.084,3.0844,3.0854,3.0879,3.0918,3.0847,3.0815,3.086,3.0939,3.0977,3.0884,3.0819,3.082,3.0949,3.0963,3.0993,3.1081,3.1101,3.1135,3.1046,3.115,3.1222,3.1181,3.1209,3.1404,3.1553,3.1519,3.1489,3.1491,3.1536,3.1544,3.1254,3.1165,3.1152,3.1119,3.1027,3.0906,3.0829,3.0856,3.0817,3.08,3.0857,3.0882,3.0832,3.0875,3.0889,3.0847,3.082,3.0616,3.0589,3.1072,3.1938,3.328,3.5477,3.7816,3.9138,3.9378,3.93,3.8066,3.6046,3.3792,3.2073,3.1883,3.1576,3.1428,3.1304,3.1157,3.1019,3.0942,3.095,3.0995,3.1109,3.0926,3.0962,3.0932,3.1022,3.1028,3.1081,3.1028,3.1078,3.1106,3.1132,3.1147,3.1155,3.1148,3.1224,3.1323,3.1306,3.1286,3.146,3.1468,3.1445,3.1429,3.1414,3.1418,3.1454,3.1481,3.1615,3.176,3.1625,3.1739,3.178,3.1929,3.1855,3.1892,3.1975,3.2,3.2043,3.2119,3.2091,3.2175,3.2207,3.2173,3.226,3.2318,3.2326,3.2178,3.2181,3.2256,3.2254,3.2348,3.2363,3.2391,3.2484,3.2419,3.2499,3.2392,3.2331,3.2202,3.2133,3.1953,3.1955,3.1903,3.1703,3.1637,3.1649,3.1658,3.1541,3.1436,3.1478,3.1475,3.1367,3.1453,3.1515,3.1478,3.1434,3.1464,3.1493,3.155,3.1541,3.1499,3.1472,3.1561,3.1569,3.1528,3.1461,3.1535,3.1548,3.1538,3.1471,3.145,3.149,3.1458,3.1479,3.1373,3.1334,3.1372,3.1435,3.1314,3.1379,3.1407,3.1367,3.1282,3.1233,3.1171,3.1086,3.1161,3.118,3.1155,3.1094,3.1064,3.1041,3.1008,3.0973,3.109,3.0945,3.0924,3.0923,3.0972,3.0931,3.0906,3.0958,3.0897,3.0905,3.0874,3.0921,3.0907,3.101,3.1166,3.1094,3.1066,3.1099,3.1087,3.108,3.1069,3.124,3.1135,3.1384,3.1378,3.1318,3.1339,3.1346,3.1352,3.1332,3.1187,3.0969,3.0919,3.0818,3.0717,3.061,3.0629,3.0505,3.0566,3.053,3.0497,3.0519,3.0592,3.052,3.0454,3.051,3.054,3.0431,3.0219,3.0508,3.1156,3.2363,3.4105,3.6313,3.8306,3.9238,3.9234,3.7886,3.5892,3.3631,3.1972,3.1795,3.1712,3.1558,3.1568,3.1534,3.1402,3.1401,3.1436,3.1641,3.1717,3.1789,3.1972,3.2096,3.2205,3.2306,3.2381,3.2331,3.241,3.2416,3.2444,3.2446,3.2613,3.2554,3.2598,3.2591,3.2719,3.2906,3.2857,3.2764,3.2808,3.273,3.2843,3.2981,3.3081,3.3093,3.3051,3.3088,3.3083,3.3071,3.3117,3.3111,3.3087,3.3114,3.3146,3.3153,3.3175,3.3212,3.3265,3.3188,3.32,3.3317,3.3284,3.3435,3.3323,3.3342,3.342,3.3474,3.3354,3.3379,3.3407,3.3335,3.3462,3.356,3.3554,3.3378,3.3324,3.3277,3.3201,3.2937,3.2861,3.2675,3.2616,3.259,3.2487,3.2442,3.2504,3.2446,3.2342,3.2293,3.231,3.2322,3.2373,3.2416,3.2336,3.2332,3.2275,3.234,3.2302,3.2383,3.2323,3.2333,3.2369,3.2417,3.2388,3.2441,3.2376,3.234,3.2314,3.233,3.2334,3.2309,3.2319,3.2337,3.2259,3.2213,3.225,3.2221,3.2187,3.2199,3.2215,3.2198,3.2148,3.2169,3.214,3.221,3.2129,3.2142,3.2155,3.218,3.2098,3.2135,3.2191,3.2234,3.2188,3.2171,3.2073,3.1938,3.2024,3.2126,3.223,3.2353,3.2287,3.2289,3.2323,3.242,3.2467,3.2391,3.2313,3.24,3.2466,3.2567,3.265,3.2642,3.2706,3.2653,3.2626,3.2481,3.2505,3.239,3.2284,3.2084,3.2024,3.2046,3.2071,3.2014,3.1931,3.1991,3.2003,3.1956,3.194,3.1921,3.2014,3.1972,3.1984,3.1725,3.1787,3.2404,3.3355,3.476,3.7053,3.9097,4.0104,4.0283,4.0115,3.8629,3.6562,3.4381,3.2813,3.2733,3.2505,3.2409,3.2402,3.2231,3.2081,3.2061,3.2011,3.2028,3.1982,3.2033,3.2039,3.2125,3.2169,3.2063,3.2003,3.204,3.2153,3.2185,3.2198,3.2126,3.2157,3.2183,3.2174,3.2185,3.218,3.2275,3.2308,3.2182,3.225,3.2342,3.231,3.2341,3.2384,3.2354,3.2426,3.2448,3.2527,3.2613,3.2677,3.2681,3.2766,3.274,3.277,3.2852,3.2854,3.2881,3.2873,3.2863,3.2886,3.2898,3.292,3.2929,3.2908,3.2996,3.2969,3.2983,3.3057,3.3139,3.3217,3.3256,3.3183,3.3154,3.3104,3.3088,3.3052,3.2864,3.2847,3.2786,3.2587,3.2497,3.2451,3.2406,3.2308,3.2271,3.2275,3.2266,3.2255,3.2304,3.2222,3.224,3.2355,3.2368,3.2275,3.2276,3.2292,3.234,3.2337,3.2357,3.2374,3.2398,3.2352,3.233,3.2403,3.2384,3.2392,3.2408,3.2398,3.2364,3.239,3.2477,3.2399,3.2385,3.2367,3.2323,3.228,3.2278,3.2286,3.2256,3.2248,3.2209,3.2254,3.2397,3.231,3.2173,3.2254,3.2223,3.2257,3.2204,3.224,3.2246,3.2217,3.226,3.2301,3.2226,3.2224,3.2313,3.2296,3.2295,3.2325,3.2417,3.2485,3.2463,3.2486,3.2646,3.25,3.2469,3.2495,3.251,3.2552,3.2612,3.2678,3.2883,3.2958,3.2877,3.2862,3.2876,3.2794,3.2628,3.2532,3.2425,3.236,3.2269,3.2238,3.221,3.2065,3.209,3.2092,3.2103,3.2109,3.2119,3.2085,3.2035,3.2037,3.1998,3.1772,3.1747,3.2059,3.2698,3.3865,3.5556,3.7973,3.9809,4.0483,4.0367,3.8942,3.688,3.4636,3.3071,3.2972,3.2692,3.2531,3.2392,3.2362,3.2293,3.2231,3.2203,3.2133,3.2124,3.2142,3.213,3.2156,3.2203,3.2212,3.2272,3.2339,3.2347,3.2358,3.2399,3.2379,3.2406,3.2502,3.2494,3.2485,3.2544,3.2563,3.2669,3.2709,3.2728,3.2659,3.2771,3.2846,3.2903,3.2953,3.3026,3.3036,3.3141,3.328,3.3276,3.3348,3.3369,3.3442,3.3509,3.3509,3.3583,3.3641,3.3725,3.3763,3.3724,3.3801,3.3792,3.3851,3.3822,3.3829,3.3892,3.3915,3.3999,3.396,3.4068,3.4133,3.4204,3.4176,3.4138,3.4078,3.401,3.3891,3.3802,3.3765,3.3616,3.3491,3.3527,3.3421,3.3259,3.3328,3.3313,3.3286,3.3271,3.3308,3.3297,3.3359,3.3393,3.3411,3.3332,3.3357,3.339,3.3374,3.3427,3.3494,3.3511,3.3549,3.3489,3.3432,3.3416,3.3473,3.3449,3.35,3.3474,3.3589,3.3619,3.355,3.3579,3.3484,3.3548,3.3528,3.3497,3.3481,3.3465,3.3426,3.3474,3.3496,3.352,3.3488,3.3456,3.3471,3.3507,3.3423,3.3509,3.3428,3.3449,3.3416,3.3489,3.346,3.3446,3.3507,3.3487,3.353,3.3441,3.3529,3.3539,3.3511,3.3555,3.3525,3.3498,3.3592,3.3553,3.3591,3.366,3.3709,3.3738,3.3801,3.3769,3.3676,3.3807,3.3864,3.3839,3.3849,3.3967,3.4127,3.4213,3.4301,3.431,3.4262,3.4129,3.3944,3.3821,3.3824,3.3725,3.367,3.3622,3.3512,3.3468,3.3494,3.3376,3.3399,3.3497,3.3489,3.3523,3.3434,3.3443,3.3496,3.3405,3.3184,3.3356,3.3921,3.4789,3.6306,3.8713,3.9954,4.1541,4.2023,4.1455,3.9814,3.7631,3.5651,3.4356,3.4451,3.4133,3.3972,3.3775,3.3798,3.3769,3.372,3.3537,3.3623,3.3505,3.3787,3.3703,3.3681,3.357,3.3692,3.3702,3.3705,3.3726,3.3804,3.3795,3.3817,3.3824,3.3906,3.3872,3.3931,3.3911,3.3929,3.3924,3.3979,3.3998,3.3961,3.414,3.4139,3.4154,3.4213,3.4196,3.4165,3.4286,3.4244,3.436,3.4423,3.4452,3.4497,3.4534,3.454,3.4538,3.4599,3.4672,3.4733,3.471,3.4721,3.4824,3.4836,3.4853,3.4836,3.4867,3.4837,3.4839,3.4977,3.4958,3.494,3.5093,3.5042,3.4973,3.4936,3.4857,3.4763,3.4582,3.4547,3.4466,3.4263,3.4234,3.4096,3.408,3.4032,3.4123,3.4062,3.4053,3.4004,3.3946,3.3924,3.4048,3.4028,3.4131,3.4077,3.4101,3.4044,3.4053,3.4134,3.4095,3.4147,3.4235,3.4187,3.4211,3.4309,3.4405,3.442,3.449,3.4577,3.4512,3.4503,3.4487,3.4482,3.4429,3.4571,3.4511,3.4539,3.4501,3.446,3.4533,3.4531,3.4512,3.4426,3.4573,3.4574,3.4531,3.4501,3.4598,3.459,3.4557,3.4598,3.4587,3.4578,3.4615,3.4585,3.4627,3.4604,3.4656,3.4642,3.4626,3.4816,3.49,3.4855,3.4947,3.499,3.4853,3.4962,3.5103,3.518,3.5232,3.5392,3.5581,3.57,3.5751,3.5758,3.5789,3.5716,3.5736,3.5542,3.5445,3.5345,3.5317,3.5299,3.5175,3.5046,3.5039,3.5159,3.5179,3.5203,3.5187,3.522,3.5197,3.5266,3.5227,3.5204,3.4897,3.4895,3.5525,3.6428,3.7746,4.0003,4.2071,4.3309,4.3553,4.287,4.1007,3.879,3.669,3.5795,3.5879,3.5781,3.5553,3.5439,3.5404,3.5291,3.5289,3.5298,3.5193,3.5117,3.5097,3.5092,3.5135,3.5161,3.513,3.5239,3.5192,3.5186,3.5211,3.5317,3.5242,3.5355,3.5367,3.5485,3.5472,3.5381,3.5464,3.566,3.5688,3.5695,3.5764,3.5731,3.5743,3.5715,3.5771,3.579,3.5924,3.5794,3.5818,3.5857,3.5965,3.5947,3.6056,3.6144,3.6101,3.6047,3.6188,3.6144,3.618,3.6245,3.625,3.625,3.6327,3.6354,3.6312,3.6272,3.6356,3.6485,3.6505,3.6484,3.6468,3.6482,3.6544,3.6573,3.6517,3.6471,3.6373,3.6155,3.6124,3.605,3.6005,3.5822,3.5762,3.5828,3.5861,3.6171,3.609,3.6028,3.5952,3.5922,3.5871,3.5887,3.5942,3.5936,3.5951,3.5856,3.5909,3.5929,3.595,3.5936,3.5954,3.5934,3.586,3.5954,3.605,3.6048,3.6011,3.5906,3.5902,3.5919,3.5929,3.5926,3.585,3.5845,3.578,3.5769,3.5763,3.5719,3.5757,3.5682,3.5709,3.5633,3.5684,3.5583,3.5536,3.5554,3.5532,3.5538,3.5578,3.5512,3.5544,3.5464,3.5356,3.5435,3.545,3.5508,3.5659,3.5696,3.5599,3.5643,3.5624,3.5735,3.5749,3.5652,3.5743,3.5897,3.591,3.6038,3.6172,3.611,3.6049,3.6065,3.597,3.5853,3.574,3.5664,3.5557,3.5427,3.5453,3.5349,3.535,3.5334,3.5383,3.537,3.5287,3.5321,3.5319,3.5362,3.5344,3.5407,3.5419,3.5077,3.5246,3.5916,3.7023,3.864,4.0958,4.306,4.3702,4.3668,4.2489,4.0477,3.8187,3.6527,3.6215,3.6233,3.6043,3.5935,3.5722,3.5636,3.556,3.5604,3.5587,3.5527,3.5467,3.549,3.5474,3.5518,3.5478,3.5557,3.5617,3.5742,3.5677,3.565,3.5639,3.5653,3.5736,3.5652,3.571,3.5806,3.5788,3.5734,3.572,3.5646,3.5688,3.5735,3.5744,3.5687,3.578,3.5742,3.5835,3.5862,3.5854,3.5941,3.5993,3.6063,3.6122,3.6196,3.6211,3.6247,3.6209,3.6199,3.629,3.635,3.6359,3.6334,3.6303,3.6385,3.6399,3.6341,3.6302,3.6328,3.6302,3.632,3.6345,3.6347,3.6377,3.6303,3.6137,3.6115,3.5979,3.5865,3.5761,3.5669,3.5583,3.5431,3.5385,3.5235,3.5228,3.5189,3.5147,3.5113,3.5077,3.5145,3.5253,3.5262,3.5203,3.5113,3.5234,3.5243,3.5275,3.523,3.5334,3.5289,3.5284,3.5234,3.5266,3.5369,3.536,3.5365,3.5368,3.5397,3.5352,3.5313,3.5266,3.5338,3.5349,3.5337,3.5382,3.5332,3.5279,3.534,3.531,3.5331,3.5281,3.5242,3.5338,3.5308,3.5228,3.5301,3.5323,3.5284,3.5227,3.5307,3.5219,3.52,3.5178,3.5249,3.5282,3.5262,3.5321,3.5325,3.5278,3.5239,3.5261,3.5325,3.5396,3.5591,3.5594,3.5642,3.5597,3.5561,3.5576,3.5603,3.5571,3.5627,3.5737,3.584,3.5904,3.5891,3.5898,3.5875,3.589,3.5772,3.5662,3.5587,3.5479,3.54,3.5346,3.5285,3.5211,3.5114,3.5124,3.5172,3.5171,3.5166,3.5164,3.5171,3.5224,3.5219,3.5155,3.4872,3.4996,3.5447,3.6364,3.7709,3.8921,4.1206,4.3017,4.3486,4.3376,4.1781,3.968,3.7501,3.6206,3.5998,3.5684,3.5478,3.547,3.5339,3.53,3.5221,3.5232,3.5115,3.519,3.5219,3.5232,3.5195,3.5187,3.5221,3.5237,3.5242,3.5298,3.5324,3.5444,3.5479,3.5423,3.5387,3.543,3.5437,3.5499,3.5508,3.5519,3.5622,3.564,3.5641,3.5738,3.5788,3.5809,3.5889,3.6,3.5981,3.6063,3.6081,3.6086,3.6222,3.6258,3.6192,3.6314,3.6407,3.6425,3.6494,3.66,3.6583,3.6648,3.6701,3.6734,3.6666,3.6609,3.6715,3.6723,3.6761,3.6799,3.6828,3.7037,3.7005,3.686,3.681,3.6776,3.6786,3.6683,3.6642,3.6532,3.6387,3.6344,3.6238,3.6095,3.6036,3.597,3.5921,3.588,3.5897,3.5787,3.589,3.5954,3.5951,3.5888,3.5954,3.5997,3.5997,3.5991,3.6125,3.6021,3.5975,3.5966,3.6002,3.5932,3.6044,3.5952,3.5937,3.588,3.5958,3.6035,3.5918,3.5937,3.5952,3.5939,3.595,3.5912,3.5907,3.5877,3.5931,3.5927,3.5811,3.5763,3.578,3.5783,3.5822,3.5729,3.5699,3.5672,3.5709,3.5685,3.5653,3.5581,3.5508,3.5567,3.5574,3.5554,3.5497,3.5592,3.5521,3.5478,3.5515,3.554,3.5484,3.5511,3.5534,3.5481,3.5502,3.5599,3.5686,3.5713,3.5719,3.5665,3.5672,3.5556,3.5624,3.5662,3.5646,3.5795,3.5884,3.604,3.6057,3.5985,3.5958,3.5887,3.5791,3.5696,3.5585,3.5387,3.5381,3.525,3.5105,3.5141,3.5116,3.5103,3.51,3.5116,3.5093,3.5182,3.5246,3.5429,3.56,3.5586,3.5465,3.5773,3.6304,3.7414,3.9033,4.1385,4.3467,4.4414,4.447,4.3189,4.1272,4.0157,3.8134,3.6976,3.6962,3.6853,3.6765,3.6584,3.6542,3.6427,3.646,3.6356,3.6469,3.6451,3.6509,3.639,3.6417,3.6432,3.6444,3.6533,3.6548,3.6596,3.6645,3.6647,3.6753,3.6687,3.6804,3.6766,3.6884,3.6873,3.6936,3.7016,3.695,3.6972,3.7009,3.7138,3.7814,3.8011,3.7905,3.7949,3.7798,3.7775,3.7736,3.7703,3.767,3.7769,3.771,3.7684,3.7749,3.7861,3.7843,3.7857,3.7829,3.7892,3.7954,3.7942,3.7993,3.8021,3.8017,3.7987,3.8059,3.8166,3.8087,3.8212,3.8246,3.8345,3.8219,3.8233,3.8243,3.8075,3.8062,3.7975,3.798,3.7797,3.7647,3.7645,3.7594,3.7596,3.7543,3.7585,3.7489,3.7458,3.7436,3.7502,3.7493,3.7506,3.748,3.7528,3.7591,3.7568,3.7538,3.7517,3.7506,3.7508,3.7482,3.758,3.7562,3.7589,3.7586,3.7633,3.7595,3.7715,3.7637,3.7523,3.7486,3.7494,3.7634,3.7481,3.7525,3.7449,3.7449,3.742,3.7392,3.7347,3.7432,3.7433,3.7405,3.7446,3.7414,3.736,3.7388,3.738,3.7343,3.7423,3.733,3.7279,3.7294,3.7306,3.7364,3.7312,3.7329,3.7284,3.7417,3.7471,3.7492,3.7531,3.7552,3.7553,3.7575,3.7667,3.7798,3.7631,3.7487,3.7662,3.7717,3.7834,3.7903,3.7961,3.7963,3.7884,3.7741,3.7654,3.7607,3.754,3.7538,3.7408,3.7265,3.731,3.737,3.7309,3.7323,3.7193,3.7194,3.7239,3.7251,3.7233,3.7279,3.7272,3.7079,3.7232,3.7735,3.8552,3.9895,4.1027,4.3311,4.5176,4.563,4.547,4.4061,4.2059,3.9775,3.8275,3.819,3.8069,3.789,3.7803,3.7638,3.762,3.7625,3.7582,3.7391,3.7343,3.7302,3.7463,3.7482,3.752,3.7443,3.7475,3.7533,3.7555,3.754,3.7586,3.7655,3.7632,3.7693,3.7679,3.7729,3.7768,3.7817,3.7817,3.7836,3.7828,3.7934,3.8009,3.7929,3.8026,3.8096,3.813,3.816,3.822,3.8282,3.8385,3.8471,3.856,3.8499,3.8463,3.8601,3.8573,3.8625,3.8727,3.8708,3.8752,3.8789,3.8908,3.8801,3.8968,3.8893,3.8837,3.8979,3.9023,3.8945,3.8991,3.8944,3.8843,3.8874,3.8774,3.8717,3.8516,3.8383,3.8336,3.8286,3.8169,3.8015,3.795,3.7934,3.7924,3.7892,3.7757,3.7706,3.7719,3.7686,3.7719,3.7736,3.7692,3.7761,3.7771,3.7841,3.7841,3.7838,3.7834,3.7824,3.7814,3.7864,3.7882,3.7916,3.7873,3.7886,3.7895,3.7847,3.7785,3.7843,3.7861,3.7861,3.788,3.7892,3.7847,3.7773,3.7802,3.7801,3.7785,3.779,3.7741,3.777,3.7708,3.7661,3.7746,3.7693,3.7675,3.7612,3.7635,3.7612,3.7591,3.7534,3.7528,3.7513,3.7404,3.7442,3.739,3.7353,3.7337,3.7357,3.732,3.7235,3.7334,3.7344,3.731,3.7448,3.7584,3.7531,3.7552,3.7438,3.7522,3.7559,3.762,3.7622,3.7527,3.7511,3.7636,3.7842,3.7875,3.7796,3.7786,3.7785,3.7598,3.7509,3.7325,3.7405,3.737,3.7224,3.6973,3.7026,3.7115,3.7096,3.7002,3.6971,3.6937,3.7009,3.6999,3.6943,3.6979,3.6969,3.6659,3.677,3.7245,3.8156,3.9531,4.188,4.4121,4.5122,4.5165,4.432,4.231,4.0048,3.9012,3.7821,3.7613,3.7339,3.7101,3.7144,3.6912,3.687,3.676,3.6769,3.6641,3.6791,3.6744,3.6733,3.6586,3.6631,3.672,3.6724,3.6728,3.6717,3.682,3.6856,3.6865,3.684,3.6871,3.6945,3.685,3.6903,3.6932,3.7048,3.7121,3.7018,3.703,3.7083,3.7165,3.723,3.7206,3.7223,3.7193,3.724,3.7375,3.7388,3.7447,3.7458,3.7564,3.7635,3.7704,3.7627,3.7643,3.7715,3.7756,3.7728,3.7845,3.7866,3.7921,3.7878,3.7889,3.7926,3.7973,3.8,3.8044,3.8072,3.811,3.8049,3.8046,3.7979,3.7969,3.7862,3.7694,3.7569,3.7462,3.7397,3.7256,3.7226,3.7212,3.7104,3.7094,3.705,3.6981,3.6968,3.6949,3.7026,3.712,3.709,3.7079,3.7051,3.7086,3.7166,3.7241,3.7221,3.72,3.7202,3.7265,3.7289,3.7273,3.7213,3.7226,3.7167,3.7279,3.7276,3.7258,3.7222,3.731,3.7294,3.7118,3.7124,3.7212,3.7162,3.718,3.7178,3.7156,3.715,3.714,3.7095,3.712,3.714,3.7135,3.7092,3.7103,3.7078,3.7104,3.7062,3.7146,3.7186,3.7122,3.7125,3.7064,3.7117,3.7021,3.7058,3.714,3.7133,3.7179,3.7202,3.7166,3.7131,3.72,3.7282,3.7224,3.723,3.7287,3.7425,3.7475,3.7553,3.7632,3.7584,3.7813,3.8076,3.8263,3.8436,3.8652,3.8874,3.8961,3.9045,3.9106,3.915,3.9101,3.9133,3.8984,3.8968,3.8918,3.8883,3.878,3.8708,3.8687,3.8681,3.8695,3.8623,3.8655,3.8639,3.8492,3.8648,3.8729,3.877,3.8752,3.8601,3.8398,3.8836,3.9677,4.0851,4.284,4.5134,4.6683,4.7042,4.6748,4.5174,4.3053,4.0952,3.9657,3.962,3.9364,3.9304,3.9211,3.9083,3.898,3.9056,3.8901,3.8887,3.8905,3.8941,3.8929,3.8915,3.8909,3.8884,3.9017,3.9041,3.898,3.9045,3.9007,3.8997,3.9052,3.8985,3.9084,3.9135,3.9181,3.9146,3.9174,3.9228,3.9187,3.92,3.9275,3.9383,3.9416,3.9471,3.9437,3.9542,3.9616,3.9584,3.9675,3.9779,3.9754,3.9817,3.992,3.9938,3.9944,4.0014,4.0164,4.0156,4.0164,4.0237,4.026,4.0267,4.0263,4.0394,4.0453,4.0444,4.0413,4.0424,4.0506,4.0565,4.0546,4.057,4.0542,4.047,4.0425,4.0374,4.0176,4.0037,4.002,3.9897,3.9815,3.9721,3.971,3.9649,3.9617,3.951,3.9565,3.9544,3.9509,3.9553,3.9606,3.9654,3.9687,3.9584,3.9621,3.9645,3.965,3.969,3.9661,3.9659,3.9652,3.9662,3.9723,3.9654,3.9663,3.9672,3.9673,3.974,3.981,3.9745,3.9726,3.9807,3.9693,3.9581,3.9629,3.9682,3.9708,3.9679,3.9669,3.9714,3.9642,3.9682,3.9709,3.967,3.9642,3.9644,3.9601,3.963,3.9713,3.9679,3.9687,3.9676,3.9691,3.9645,3.966,3.9627,3.9658,3.9687,3.9708,3.9929,3.9931,3.985,3.996,3.997,3.9976,3.9869,3.9826,3.9834,4.0087,4.0332,4.0647,4.0886,4.0876,4.1041,4.0987,4.0963,4.0858,4.0738,4.0635,4.0607,4.0549,4.0538,4.0405,4.035,4.0363,4.0457,4.0622,4.1153,4.1153,4.1002,4.0895,4.0823,4.0754,4.0493,4.0369,4.068,4.1297,4.248,4.4346,4.6477,4.8306,4.891,4.8965,4.8158,4.6288,4.4057,4.2241,4.1309,4.1269,4.116,4.1141,4.0885,4.0822,4.0663,4.0659,4.0645,4.064,4.0622,4.0674,4.0824,4.0991,4.0941,4.085,4.0784,4.0832,4.0715,4.0763,4.0727,4.0735,4.0748,4.0816,4.084,4.0782,4.0854,4.1017,4.1154,4.1072,4.1152,4.1087,4.1066,4.1129,4.1189,4.126,4.1305,4.1182,4.1332,4.1464,4.1491,4.1449,4.1604,4.1588,4.1666,4.1821,4.1673,4.1729,4.1779,4.1735,4.1797,4.1947,4.1947,4.1868,4.1992,4.1955,4.1965,4.2036,4.2141,4.2136,4.2151,4.21,4.214,4.2183,4.2102,4.1955,4.184,4.171,4.1581,4.1511,4.1496,4.1435,4.1345,4.1325,4.1131,4.1125,4.1162,4.113,4.1132,4.1074,4.121,4.1079,4.1132,4.1231,4.1185,4.1283,4.1253,4.1155,4.1081,4.1255,4.123,4.1247,4.1212,4.1199,4.1216,4.126,4.1197,4.121,4.1288,4.1264,4.1307,4.1243,4.1171,4.11,4.1166,4.1189,4.1196,4.1092,4.0988,4.0999,4.1049,4.1028,4.1005,4.0993,4.0999,4.1034,4.1042,4.1065,4.1061,4.107,4.1118,4.1106,4.1055,4.1047,4.1181,4.1272,4.1316,4.1248,4.1168,4.1148,4.1299,4.1258,4.1258,4.1355,4.1396,4.1505,4.1656,4.1474,4.1421,4.1387,4.1298,4.1145,4.1077,4.1035,4.0989,4.0911,4.0765,4.0661,4.0621,4.0695,4.0648,4.0621,4.0749,4.0697,4.0532,4.0607,4.0658,4.064,4.0696,4.037,4.065,4.1284,4.2234,4.4029,4.6413,4.832,4.8732,4.9028,4.8686,4.6878,4.4626,4.2595,4.154,4.1554,4.1333,4.1189,4.1092,4.1006,4.0921,4.0772,4.0782,4.081,4.0784,4.0733,4.0761,4.0824,4.0866,4.0791,4.0831,4.0816,4.0836,4.0799,4.078,4.076,4.0897,4.0989,4.0917,4.0939,4.0982,4.108,4.1068,4.1135,4.1221,4.1312,4.1271,4.1286,4.1308,4.1317,4.1425,4.1487,4.1553,4.1581,4.1643,4.1697,4.171,4.18,4.1804,4.1985,4.1993,4.2067,4.2041,4.2112,4.2014,4.2101,4.2122,4.2137,4.2154,4.2141,4.2206,4.2261,4.2272,4.2216,4.2181,4.2304,4.2301,4.2242,4.2178,4.203,4.2066,4.1849,4.1685,4.1613,4.1571,4.1528,4.1383,4.1328,4.1326,4.125,4.1264,4.1267,4.1251,4.1228,4.1151,4.1218,4.1315,4.139,4.1285,4.1316,4.1198,4.1267,4.1357,4.1286,4.125,4.1205,4.1283,4.1273,4.1303,4.1222,4.1259,4.1303,4.1263,4.1222,4.1152,4.1154,4.1076,4.1081,4.1157,4.1033,4.0972,4.0923,4.0845,4.0798,4.0832,4.0782,4.0779,4.0692,4.0732,4.0736,4.0634,4.0602,4.0637,4.0615,4.0589,4.0573,4.0595,4.0557,4.059,4.0614,4.0605,4.0622,4.0693,4.0803,4.0761,4.0771,4.0823,4.0751,4.0869,4.0865,4.0907,4.0916,4.0999,4.1071,4.1096,4.1253,4.1261,4.1219,4.1188,4.1117,4.0937,4.0815,4.0778,4.0701,4.0554,4.0482,4.0385,4.0363,4.0388,4.0382,4.0311,4.0328,4.0273,4.0326,4.0351,4.0352,4.0306,4.0138,4.0002,4.0521,4.0892,4.1777,4.3361,4.5705,4.7839,4.8488,4.8549,4.7519,4.5475,4.3236,4.1616,4.1291,4.1082,4.0846,4.0693,4.0577,4.0608,4.0445,4.0462,4.0402,4.0477,4.04,4.0507,4.0538,4.0553,4.0476,4.0586,4.0648,4.0617,4.0602,4.0695,4.0676,4.0767,4.073,4.0715,4.0786,4.0814,4.0903,4.0912,4.0914,4.0849,3.9995,3.9786,4.0155,4.0336,4.0556,4.0766,4.0913,4.1044,4.1225,4.132,4.1354,4.1434,4.1597,4.1598,4.1672,4.1707,4.1831,4.1845,4.1991,4.2052,4.2014,4.2058,4.2074,4.2143,4.2244,4.2212,4.2215,4.2298,4.2359,4.2324,4.2414,4.2419,4.2474,4.2369,4.24,4.2355,4.2284,4.2203,4.2018,4.1912,4.1815,4.1796,4.1694,4.1697,4.1615,4.1576,4.1587,4.1578,4.1645,4.1526,4.1513,4.1539,4.1643,4.1622,4.1631,4.1623,4.1663,4.167,4.1663,4.1679,4.1677,4.1682,4.1746,4.1695,4.1684,4.1685,4.1736,4.1765,4.1758,4.1796,4.1691,4.1701,4.1724,4.1757,4.1735,4.1724,4.1695,4.1687,4.171,4.167,4.1647,4.1655,4.1725,4.1692,4.1638,4.1553,4.1587,4.1637,4.1563,4.1581,4.1596,4.1618,4.1591,4.161,4.16,4.1523,4.1625,4.1779,4.1757,4.1757,4.1806,4.1752,4.178,4.1795,4.1715,4.1789,4.1937,4.2076,4.2136,4.2171,4.218,4.2142,4.2131,4.2075,4.1958,4.1831,4.1774,4.1759,4.1555,4.1519,4.1435,4.1447,4.1408,4.1585,4.1543,4.1422,4.1319,4.1422,4.1463,4.1432,4.1501,4.1431,4.1215,4.1381,4.1999,4.2858,4.4349,4.6651,4.8713,4.9606,4.9639,4.8416,4.651,4.4436,4.2674,4.2152,4.2137,4.1915,4.1831,4.1746,4.1731,4.1589,4.1581,4.1457,4.1566,4.1473,4.1525,4.1585,4.1651,4.1708,4.1747,4.1795,4.1795,4.1675,4.1832,4.1925,4.189,4.1932,4.1906,4.1991,4.2025,4.1972,4.2029,4.211,4.2113,4.2159,4.2211,4.2252,4.2304,4.2223,4.2361,4.2455,4.2564,4.247,4.2468,4.2607,4.2685,4.2714,4.2763,4.2825,4.2832,4.2974,4.3003,4.3094,4.3024,4.3146,4.3144,4.3209,4.3277,4.3343,4.3363,4.3377,4.3384,4.3458,4.3411,4.3494,4.3424,4.3511,4.3443,4.3364,4.3261,4.3221,4.3068,4.2844,4.2773,4.2743,4.2696,4.2751,4.2578,4.2418,4.2452,4.249,4.2529,4.2417,4.2443,4.2481,4.246,4.2491,4.2495,4.2504,4.2556,4.2593,4.2662,4.2734,4.273,4.2672,4.2706,4.2691,4.2704,4.2647,4.2666,4.2621,4.2613,4.2647,4.2674,4.2685,4.2629,4.2641,4.2583,4.2598,4.2778,4.2753,4.2705,4.2779,4.2716,4.2585,4.2518,4.2591,4.2597,4.2563,4.2503,4.2533,4.2735,4.2777,4.2741,4.2783,4.2872,4.2955,4.2985,4.3121,4.3167,4.3242,4.337,4.3319,4.2483,4.1035,4.1453,4.1903,4.2272,4.2712,4.2961,4.3129,4.3145,4.3239,4.3257,4.3313,4.3261,4.3271,4.3134,4.3104,4.2926,4.3021,4.2976,4.3015,4.3008,4.3011,4.2924,4.2925,4.2981,4.3076,4.3111,4.3118,4.3115,4.3046,4.2775,4.3036,4.3768,4.4867,4.6594,4.881,5.0591,5.1473,5.1412,5.0203,4.8235,4.6011,4.4166,4.3784,4.3757,4.3615,4.3522,4.3511,4.3464,4.3372,4.3309,4.3331,4.3348,4.3293,4.3402,4.338,4.3354,4.3296,4.3331,4.3278,4.3423,4.3445,4.3498,4.3483,4.3515,4.3506,4.3502,4.3521,4.3656,4.3581,4.3611,4.3613,4.369,4.3744,4.3753,4.3861,4.3859,4.3896,4.3983,4.3996,4.4012,4.4068,4.4219,4.4195,4.4281,4.434,4.4343,4.4396,4.4437,4.4427,4.4473,4.4573,4.4571,4.4574,4.461,4.4547,4.4593,4.4574,4.4689,4.4682,4.4691,4.4708,4.4697,4.48,4.4774,4.4774,4.4759,4.4625,4.4588,4.4484,4.434,4.4249,4.4127,4.4064,4.3913,4.3944,4.391,4.3878,4.3784,4.369,4.3553,4.373,4.3677,4.3647,4.3719,4.3668,4.3729,4.3703,4.3746,4.3777,4.3704,4.3677,4.3724,4.3648,4.3656,4.3683,4.3673,4.3642,4.372,4.3734,4.3674,4.37,4.3765,4.3729,4.3648,4.3595,4.3624,4.3629,4.3598,4.3598,4.3569,4.3498,4.3514,4.3495,4.3495,4.3413,4.3475,4.3409,4.3381,4.3466,4.3474,4.3527,4.3501,4.3374,4.3318,4.3321,4.3402,4.3533,4.3561,4.3497,4.3529,4.3522,4.3541,4.3564,4.3549,4.3534,4.3624,4.3684,4.3839,4.3902,4.3822,4.3825,4.3798,4.3656,4.3551,4.3526,4.3453,4.3249,4.3096,4.3053,4.3094,4.3109,4.3053,4.3017,4.3026,4.3046,4.3018,4.3056,4.3106,4.3146,4.3093,4.3012,4.2762,4.3089,4.3689,4.4814,4.6518,4.895,5.0926,5.1555,5.1444,5.0159,4.8068,4.5864,4.4264,4.4064,4.3802,4.3591,4.3596,4.3503,4.3389,4.3142,4.3166,4.319,4.3161,4.3036,4.2993,4.3072,4.3075,4.3088,4.305,4.3102,4.3091,4.3178,4.3196,4.3217,4.3228,4.321,4.3211,4.3233,4.3246,4.3271,4.3306,4.3419,4.3427,4.3348,4.3361,4.3436,4.3527,4.3589,4.3626,4.3666,4.3752,4.3775,4.3831,4.3864,4.3911,4.4002,4.4014,4.4099,4.4115,4.4201,4.4267,4.4304,4.4331,4.4374,4.4397,4.4429,4.4512,4.4492,4.4537,4.4595,4.4595,4.4619,4.4664,4.4641,4.466,4.4676,4.4667,4.4514,4.4479,4.4329,4.4222,4.4102,4.3993,4.4003,4.3953,4.3893,4.3864,4.3851,4.3819,4.3798,4.3817,4.3785,4.3824,4.3879,4.3911,4.3946,4.3825,4.384,4.3939,4.3841,4.3852,4.3908,4.394,4.3918,4.3869,4.3866,4.3922,4.3879,4.3923,4.3908,4.3858,4.3898,4.3973,4.3972,4.3931,4.3933,4.3929,4.387,4.3869,4.392,4.3826,4.3739,4.3761,4.3786,4.3754,4.3783,4.378,4.3691,4.3636,4.3675,4.3683,4.3595,4.3628,4.3696,4.3611,4.3637,4.3674,4.3637,4.3627,4.3576,4.3669,4.3779,4.3806,4.3763,4.3791,4.379,4.3822,4.3773,4.3836,4.3884,4.3916,4.4067,4.4137,4.4334,4.4251,4.4203,4.4234,4.4188,4.3944,4.388,4.3853,4.3818,4.3639,4.3549,4.3459,4.3479,4.3495,4.3555,4.3507,4.3466,4.3484,4.3447,4.3519,4.3535,4.3554,4.3449,4.3229,4.3429,4.4006,4.5035,4.6716,4.9106,5.1202,5.1867,5.1949,5.0742,4.8736,4.6653,4.566,4.4563,4.4417,4.4196,4.3991,4.4,4.3805,4.3835,4.3748,4.3725,4.3725,4.3762,4.3655,4.3897,4.3771,4.3906,4.3872,4.3923,4.394,4.3956,4.3967,4.4009,4.3998,4.413,4.4061,4.4168,4.4228,4.4236,4.4218,4.4239,4.427,4.4358,4.4455,4.4471,4.4492,4.4608,4.4653,4.4641,4.4643,4.4715,4.4798,4.4825,4.4861,4.4858,4.4969,4.5034,4.5042,4.5085,4.5101,4.5093,4.5225,4.5216,4.5315,4.5261,4.5273,4.5314,4.5341,4.5404,4.5499,4.5478,4.5499,4.5511,4.5505,4.5535,4.548,4.5447,4.5328,4.5261,4.5122,4.505,4.4865,4.472,4.4677,4.4557,4.4496,4.4503,4.4404,4.4464,4.4468,4.4439,4.4494,4.4463,4.4512,4.4489,4.4517,4.4488,4.4484,4.4517,4.451,4.4567,4.4528,4.4533,4.4572,4.4511,4.4559,4.4526,4.4476,4.455,4.4499,4.4422,4.4424,4.4381,4.4386,4.4369,4.439,4.4341,4.4362,4.4386,4.4411,4.4382,4.4329,4.4321,4.438,4.4264,4.4246,4.4281,4.424,4.4189,4.4224,4.424,4.4174,4.4216,4.4228,4.4285,4.4282,4.4269,4.4271,4.4356,4.4475,4.4447,4.4509,4.4549,4.4545,4.4559,4.4482,4.4454,4.4537,4.4621,4.4708,4.4775,4.4867,4.4809,4.4823,4.478,4.475,4.4607,4.4442,4.4374,4.4346,4.4176,4.4095,4.4062,4.4086,4.4065,4.4008,4.4081,4.4075,4.4025,4.4098,4.4061,4.4106,4.4151,4.3936,4.3864,4.4115,4.4888,4.5392,4.6867,4.9197,5.1848,5.2493,5.2341,5.1477,4.9448,4.7417,4.5391,4.4777,4.4672,4.4631,4.4475,4.4381,4.4312,4.4315,4.4268,4.4296,4.4203,4.4304,4.4307,4.435,4.4284,4.4376,4.441,4.4418,4.4455,4.4602,4.471,4.4825,4.4994,4.5261,4.546,4.5422,4.5487,4.5481,4.5522,4.5512,4.546,4.5521,4.56,4.5567,4.5636,4.5702,4.5768,4.5684,4.5745,4.5775,4.5901,4.5957,4.6081,4.6157,4.6169,4.6305,4.6373,4.646,4.645,4.6494,4.6545,4.6591,4.6622,4.663,4.6735,4.6747,4.6748,4.6775,4.6977,4.7149,4.7101,4.7071,4.7122,4.7002,4.6841,4.6704,4.6563,4.6457,4.6354,4.6209,4.6119,4.6047,4.5968,4.5909,4.5849,4.5836,4.5775,4.5767,4.5718,4.5685,4.5718,4.5732,4.5775,4.5723,4.5826,4.5714,4.5782,4.5802,4.5798,4.5731,4.5745,4.5822,4.5807,4.5783,4.578,4.5724,4.5788,4.5802,4.5697,4.5718,4.5701,4.5682,4.5689,4.5624,4.5687,4.571,4.5588,4.564,4.5655,4.5591,4.5631,4.5556,4.5551,4.5541,4.5554,4.5552,4.5444,4.5412,4.5536,4.5541,4.5533,4.5545,4.5573,4.5669,4.5712,4.5776,4.5763,4.5783,4.5865,4.5943,4.5808,4.5842,4.5809,4.5928,4.5992,4.6138,4.6076,4.6059,4.6058,4.5937,4.5751,4.5669,4.557,4.5496,4.5363,4.5251,4.523,4.5205,4.5248,4.5178,4.5244,4.5152,4.5067,4.5114,4.5118,4.5094,4.5125,4.5068,4.4833,4.4912,4.5507,4.638,4.7759,4.9992,5.2084,5.3089,5.3242,5.3077,5.162,4.9477,4.7341,4.5769,4.5634,4.5481,4.5355,4.5236,4.5156,4.5057,4.5008,4.4953,4.4945,4.4953,4.4973,4.4935,4.4933,4.4996,4.499,4.5047,4.503,4.5065,4.5151,4.5153,4.5183,4.5214,4.5241,4.5236,4.5281,4.5311,4.5314,4.5413,4.5442,4.5482,4.544,4.5426,4.5494,4.556,4.5581,4.5647,4.562,4.5678,4.5699,4.5766,4.5743,4.5838,4.5915,4.5916,4.6,4.5951,4.6,4.6038,4.6126,4.609,4.6118,4.6157,4.6196,4.6158,4.6151,4.6251,4.6252,4.6256,4.6277,4.6347,4.6372,4.6333,4.6241,4.6189,4.6056,4.5981,4.5865,4.5697,4.5614,4.5508,4.5377,4.5361,4.5278,4.516,4.5238,4.5214,4.5233,4.5184,4.5175,4.5195,4.5219,4.5114,4.5113,4.5187,4.5242,4.5277,4.5301,4.5325,4.5347,4.5319,4.5353,4.5389,4.528,4.5327,4.5328,4.5398,4.5345,4.5362,4.5343,4.5341,4.535,4.5297,4.5273,4.5316,4.5285,4.5251,4.5243,4.526,4.5258,4.5277,4.5258,4.5153,4.5183,4.519,4.5129,4.5182,4.5171,4.519,4.518,4.5161,4.5137,4.5085,4.5014,4.5009,4.5039,4.5037,4.5098,4.5095,4.5114,4.5166,4.5132,4.525,4.5196,4.52,4.5178,4.5135,4.5144,4.5193,4.5331,4.5433,4.5616,4.5498,4.5499,4.5525,4.543,4.525,4.52,4.5101,4.5083,4.5017,4.4849,4.4806,4.478,4.475,4.4753,4.475,4.4709,4.4713,4.47,4.4776,4.4779,4.4731,4.4685,4.4498,4.4702,4.5299,4.6236,4.6856,4.8949,5.1428,5.2694,5.3093,5.2704,5.0982,4.8839,4.6848,4.5687,4.5686,4.5393,4.5334,4.5185,4.5107,4.5011,4.4927,4.4933,4.4933,4.4908,4.496,4.4916,4.4942,4.4964,4.4994,4.5005,4.5061,4.504,4.5031,4.5068,4.5104,4.512,4.518,4.5175,4.5235,4.5204,4.5301,4.53,4.5374,4.5413,4.5435,4.5501,4.5598,4.5546,4.5678,4.5772,4.5824,4.5758,4.5864,4.5937,4.6013,4.6067,4.6101,4.6141,4.6183,4.6203,4.6261,4.6241,4.6329,4.6345,4.6332,4.6368,4.6339,4.6418,4.6406,4.6517,4.6517,4.6526,4.6577,4.6724,4.6631,4.6629,4.6576,4.6519,4.6423,4.6324,4.6185,4.6071,4.5996,4.585,4.5825,4.5731,4.5652,4.5614,4.5544,4.5537,4.5582,4.5584,4.5548,4.5496,4.5489,4.5579,4.5567,4.5599,4.5506,4.5566,4.5589,4.5611,4.5573,4.5599,4.5555,4.5591,4.5592,4.5601,4.5589,4.5612,4.5543,4.5599,4.5604,4.5575,4.5606,4.5608,4.5564,4.5534,4.5514,4.5538,4.5482,4.5493,4.5441,4.5487,4.5481,4.5492,4.5459,4.5459,4.5437,4.5456,4.5445,4.5457,4.5439,4.5444,4.5466,4.5468,4.5487,4.5455,4.5463,4.5421,4.5461,4.5443,4.542,4.5424,4.5483,4.5528,4.5517,4.559,4.5646,4.5686,4.5682,4.5669,4.5727,4.5725,4.5779,4.5778,4.5809,4.5919,4.6097,4.6169,4.6213,4.6198,4.613,4.6032,4.5942,4.5844,4.5727,4.5623,4.548,4.5355,4.5394,4.5338,4.5343,4.536,4.5333,4.5302,4.5362,4.5352,4.5342,4.5431,4.5442,4.5369,4.5144,4.5253,4.5841,4.6759,4.8225,5.051,5.272,5.3608,5.3723,5.279,5.0865,4.8636,4.7609,4.6483,4.6318,4.6123,4.5952,4.5915,4.572,4.5816,4.5696,4.5769,4.5662,4.5779,4.5749,4.5885,4.5876,4.586,4.5875,4.5908,4.5867,4.5966,4.5935,4.6003,4.6012,4.6065,4.6091,4.6188,4.6116,4.6198,4.6192,4.6277,4.6278,4.6404,4.6403,4.6496,4.6479,4.6552,4.6611,4.6639,4.6709,4.6709,4.6729,4.6802,4.6778,4.6847,4.6931,4.7004,4.7017,4.7132,4.7201,4.7111,4.7191,4.7137,4.7264,4.7236,4.732,4.7307,4.7306,4.7345,4.7411,4.739,4.7473,4.7509,4.7502,4.7478,4.7517,4.7493,4.7315,4.725,4.7203,4.7069,4.6905,4.683,4.6801,4.6663,4.6611,4.6518,4.6511,4.6487,4.6481,4.6451,4.6492,4.6408,4.6501,4.6454,4.6487,4.6512,4.6558,4.6535,4.6537,4.6592,4.6528,4.6533,4.6544,4.6559,4.6604
