-6.3548,-6.7451,-7.1744,-7.4338,-7.6295,-7.7513,-7.8336,-7.8579,-7.9035,-7.9103,-7.9245,-7.9247,-7.9414,-7.9497,-7.9611,-7.9603,-7.9693,-7.9745,-7.9867,-7.9842,-8.0005,-8.0135,-8.0305,-8.0238,-8.0341,-8.0537,-8.0738,-8.077,-8.09,-8.0922,-8.0951,-8.1009,-8.0997,-8.0995,-8.1064,-8.1146,-8.1229,-8.1201,-8.1289,-8.1391,-8.1448,-8.1268,-8.1102,-8.1041,-8.1054,-8.1032,-8.0897,-8.0757,-8.0783,-8.0736,-8.0649,-8.0547,-8.0687,-8.0911,-8.0972,-8.0849,-8.0481,-8.0436,-8.027,-7.9908,-7.9714,-7.9805,-7.9732,-7.9241,-7.8867,-7.8716,-7.8767,-7.886,-7.8602,-7.8214,-7.8137,-7.8064,-7.8147,-7.835,-7.8403,-7.8432,-7.8297,-7.8403,-7.8505,-7.826,-7.8091,-7.8253,-7.8211,-7.8131,-7.8097,-7.821,-7.8297,-7.8576,-7.8456,-7.8195,-7.8108,-7.8186,-7.8202,-7.8232,-7.814,-7.8158,-7.8113,-7.8353,-7.831,-7.8005,-7.796,-7.8024,-7.8068,-7.7982,-7.7967,-7.7778,-7.7784,-7.7907,-7.8103,-7.8057,-7.7765,-7.7922,-7.8003,-7.7876,-7.782,-7.7708,-7.7559,-7.7476,-7.7571,-7.7682,-7.7811,-7.796,-7.7752,-7.7708,-7.7852,-7.7925,-7.7868,-7.7734,-7.7758,-7.7885,-7.7878,-7.7846,-7.7747,-7.7526,-7.7435,-7.7535,-7.7934,-7.7712,-7.7513,-7.7726,-7.7826,-7.7628,-7.747,-7.737,-7.7085,-7.7272,-7.7376,-7.7562,-7.746,-7.7388,-7.7566,-7.7508,-7.7794,-7.9215,-8.1876,-8.4492,-8.7845,-9.0534,-9.0743,-8.4559,-7.2326,-6.0323,-5.5178,-5.5238,-5.6825,-6.1295,-6.5241,-6.9558,-7.2761,-7.5055,-7.596,-7.7088,-7.782,-7.8181,-7.8323,-7.8169,-7.8049,-7.8235,-7.8797,-7.8769,-7.8689,-7.8656,-7.8699,-7.8861,-7.9105,-7.9148,-7.9407,-7.9439,-7.9368,-7.9235,-7.9542,-7.9588,-7.9679,-7.9715,-7.9875,-8.007,-8.0561,-8.0621,-8.0579,-8.033,-8.0442,-8.043,-8.057,-8.0689,-8.0839,-8.0963,-8.1324,-8.1276,-8.112,-8.0667,-8.0555,-8.0481,-8.0491,-8.0544,-8.0739,-8.1044,-8.1023,-8.0651,-8.0301,-8.0251,-8.0167,-8.0274,-8.0115,-7.9649,-7.9138,-7.8914,-7.8658,-7.8561,-7.8338,-7.8179,-7.808,-7.7979,-7.7985,-7.7999,-7.7821,-7.757,-7.744,-7.739,-7.7337,-7.7236,-7.7253,-7.7489,-7.7657,-7.7548,-7.7337,-7.7131,-7.7112,-7.7182,-7.7277,-7.732,-7.7295,-7.7384,-7.7543,-7.7702,-7.7595,-7.7405,-7.7301,-7.7342,-7.7358,-7.745,-7.7497,-7.7449,-7.7304,-7.7101,-7.7075,-7.731,-7.7387,-7.7337,-7.7177,-7.6974,-7.7027,-7.699,-7.6981,-7.6993,-7.7013,-7.702,-7.7002,-7.6995,-7.7147,-7.7103,-7.7136,-7.7055,-7.6793,-7.6584,-7.6444,-7.6518,-7.6628,-7.6849,-7.7069,-7.6996,-7.6838,-7.683,-7.6919,-7.7056,-7.7136,-7.7113,-7.723,-7.7204,-7.7008,-7.6893,-7.6642,-7.6502,-7.6533,-7.6588,-7.651,-7.671,-7.6913,-7.6999,-7.6864,-7.6846,-7.6752,-7.6721,-7.6657,-7.6568,-7.6507,-7.658,-7.662,-7.6532,-7.6599,-7.7549,-7.998,-8.312,-8.5942,-8.7945,-9.0082,-9.0296,-8.2296,-6.9422,-5.7055,-5.2755,-5.34,-5.5859,-6.1152,-6.5196,-6.9443,-7.2609,-7.504,-7.6567,-7.7207,-7.7413,-7.7514,-7.7639,-7.7749,-7.7874,-7.8013,-7.8247,-7.8547,-7.8508,-7.8554,-7.8578,-7.8681,-7.8826,-7.9046,-7.9181,-7.9286,-7.9293,-7.9347,-7.9393,-7.9475,-7.9718,-7.9974,-8.019,-8.0326,-8.0671,-8.0746,-8.0531,-8.0498,-8.0608,-8.0765,-8.0956,-8.1064,-8.1253,-8.1373,-8.129,-8.1329,-8.123,-8.1257,-8.1293,-8.1188,-8.1131,-8.1269,-8.1382,-8.1219,-8.1169,-8.1163,-8.1172,-8.1181,-8.115,-8.1279,-8.1266,-8.1176,-8.0595,-7.9724,-7.9465,-7.9294,-7.9209,-7.9203,-7.9131,-7.9078,-7.9001,-7.8955,-7.884,-7.8801,-7.8786,-7.9136,-7.9293,-7.8814,-7.862,-7.8614,-7.8638,-7.8805,-7.8958,-7.8928,-7.8969,-7.9033,-7.9107,-7.9158,-7.9122,-7.925,-7.9266,-7.9401,-7.9543,-7.9736,-7.9759,-7.966,-7.9511,-7.9572,-7.9563,-7.9484,-7.9549,-7.9639,-7.9837,-7.9956,-7.9795,-7.9714,-7.9718,-7.971,-7.9858,-7.9822,-7.9953,-7.9943,-7.9901,-7.9805,-8.01,-8.0061,-7.9876,-7.9763,-7.981,-7.9942,-8.0016,-8.0135,-8.0272,-8.0246,-8.0228,-8.0071,-8.0088,-8.0031,-8.0455,-8.0583,-8.055,-8.0745,-8.0715,-8.0658,-8.0644,-8.0667,-8.0651,-8.0796,-8.0891,-8.1063,-8.1004,-8.07,-8.0557,-8.0924,-8.1226,-8.1389,-8.1229,-8.0946,-8.0818,-8.0797,-8.0953,-8.1033,-8.1107,-8.104,-8.0977,-8.1249,-8.1425,-8.1186,-8.1215,-8.2655,-8.5534,-8.8302,-9.1332,-9.4648,-9.5753,-9.0399,-7.7902,-7.0629,-6.0128,-5.6786,-5.8565,-6.1645,-6.7137,-7.1241,-7.5941,-7.8664,-8.1077,-8.1804,-8.2686,-8.2492,-8.2847,-8.2931,-8.3545,-8.3472,-8.3748,-8.3402,-8.3622,-8.3483,-8.3946,-8.4008,-8.4381,-8.4301,-8.4884,-8.5125,-8.5129,-8.4593,-8.4462,-8.4632,-8.5294,-8.5345,-8.5518,-8.5348,-8.5589,-8.5769,-8.6173,-8.6319,-8.6629,-8.6756,-8.6629,-8.6658,-8.6567,-8.653,-8.6555,-8.669,-8.6805,-8.6756,-8.6803,-8.6856,-8.6844,-8.6764,-8.6729,-8.6746,-8.6848,-8.6965,-8.6999,-8.7281,-8.7458,-8.7269,-8.6594,-8.6422,-8.6213,-8.5888,-8.545,-8.5195,-8.4934,-8.4895,-8.4777,-8.4754,-8.4593,-8.4595,-8.4463,-8.4512,-8.4701,-8.4661,-8.4353,-8.4065,-8.4033,-8.4392,-8.4213,-8.4295,-8.4179,-8.4204,-8.427,-8.4412,-8.4433,-8.4625,-8.4605,-8.4733,-8.4637,-8.4627,-8.4519,-8.4497,-8.448,-8.4621,-8.4685,-8.4699,-8.4579,-8.4679,-8.4722,-8.4895,-8.4745,-8.4544,-8.4474,-8.4484,-8.4432,-8.4499,-8.4531,-8.464,-8.4616,-8.4615,-8.4493,-8.4427,-8.4355,-8.4375,-8.4344,-8.4437,-8.44,-8.45,-8.4451,-8.4384,-8.4371,-8.4457,-8.4498,-8.4508,-8.4413,-8.4489,-8.4606,-8.4768,-8.4696,-8.4643,-8.4594,-8.4649,-8.4727,-8.4806,-8.4815,-8.4872,-8.4783,-8.4612,-8.4522,-8.444,-8.4544,-8.4654,-8.4722,-8.513,-8.5113,-8.4784,-8.4478,-8.456,-8.4769,-8.479,-8.4656,-8.4337,-8.4198,-8.426,-8.4479,-8.4533,-8.4629,-8.5502,-8.7668,-9.034,-9.3058,-9.69,-9.8759,-9.6491,-8.5136,-7.1063,-6.2489,-6.0443,-6.2256,-6.6039,-6.878,-7.2676,-7.7435,-8.0516,-8.3107,-8.4133,-8.4853,-8.4946,-8.5486,-8.5539,-8.6068,-8.6011,-8.6288,-8.6129,-8.6201,-8.5987,-8.6115,-8.6187,-8.654,-8.6417,-8.658,-8.6413,-8.6611,-8.6589,-8.6868,-8.6922,-8.7239,-8.7304,-8.7439,-8.7379,-8.7548,-8.752,-8.7873,-8.8065,-8.8272,-8.8339,-8.8442,-8.8313,-8.841,-8.8345,-8.8053,-8.7829,-8.7923,-8.7996,-8.804,-8.8104,-8.8076,-8.7926,-8.8003,-8.8137,-8.8204,-8.8151,-8.7986,-8.8061,-8.8092,-8.7882,-8.7507,-8.7368,-8.7084,-8.6831,-8.6742,-8.6633,-8.6489,-8.6135,-8.5829,-8.5824,-8.5722,-8.5517,-8.5226,-8.5029,-8.4959,-8.5085,-8.514,-8.5229,-8.5301,-8.5242,-8.5177,-8.5128,-8.5095,-8.511,-8.5155,-8.5228,-8.5415,-8.5299,-8.5018,-8.4936,-8.4925,-8.5189,-8.529,-8.5307,-8.5205,-8.5055,-8.4905,-8.504,-8.516,-8.5226,-8.5222,-8.5081,-8.4917,-8.4933,-8.4823,-8.4773,-8.4597,-8.4825,-8.4815,-8.4779,-8.4681,-8.4676,-8.4907,-8.5212,-8.4927,-8.4588,-8.432,-8.43,-8.4355,-8.45,-8.4541,-8.4542,-8.4305,-8.4309,-8.4449,-8.4622,-8.4576,-8.4602,-8.4538,-8.4571,-8.4662,-8.4764,-8.4708,-8.4721,-8.4726,-8.4741,-8.4374,-8.4236,-8.4254,-8.4158,-8.4304,-8.4445,-8.4418,-8.4528,-8.4725,-8.4639,-8.4372,-8.4174,-8.4037,-8.4078,-8.4136,-8.408,-8.3957,-8.3987,-8.3967,-8.3941,-8.4153,-8.4741,-8.685,-8.9822,-9.2424,-9.602,-9.7766,-9.667,-8.6411,-7.2824,-6.3457,-6.029,-6.155,-6.5105,-6.9823,-7.4198,-7.8283,-8.1071,-8.3049,-8.3895,-8.4354,-8.4348,-8.4541,-8.4571,-8.4993,-8.522,-8.5377,-8.5152,-8.5329,-8.525,-8.5454,-8.5481,-8.5686,-8.5654,-8.5991,-8.6038,-8.6095,-8.5887,-8.601,-8.6019,-8.6303,-8.6487,-8.6696,-8.6636,-8.6615,-8.6669,-8.6878,-8.704,-8.7185,-8.7108,-8.7158,-8.7109,-8.7009,-8.7064,-8.7132,-8.7215,-8.7398,-8.7372,-8.7183,-8.7066,-8.6925,-8.6947,-8.7039,-8.7015,-8.6891,-8.6985,-8.6981,-8.6921,-8.6889,-8.6738,-8.6655,-8.6376,-8.6118,-8.6091,-8.5728,-8.5598,-8.5794,-8.5067,-8.47,-8.436,-8.4373,-8.4535,-8.4357,-8.4187,-8.3993,-8.4045,-8.3949,-8.3855,-8.3955,-8.4065,-8.4079,-8.4047,-8.3795,-8.3864,-8.3954,-8.4058,-8.3978,-8.4023,-8.4052,-8.3798,-8.3708,-8.3878,-8.3934,-8.3958,-8.4124,-8.4097,-8.3955,-8.3714,-8.368,-8.3569,-8.3522,-8.3611,-8.36,-8.3664,-8.3561,-8.3766,-8.3816,-8.3695,-8.3485,-8.3562,-8.35,-8.3341,-8.3294,-8.3237,-8.3327,-8.3508,-8.3274,-8.3246,-8.3045,-8.3047,-8.3185,-8.3286,-8.3591,-8.3684,-8.3441,-8.3391,-8.3325,-8.3624,-8.3576,-8.3459,-8.3546,-8.3687,-8.3585,-8.3347,-8.3134,-8.3174,-8.3379,-8.345,-8.3506,-8.3611,-8.3563,-8.339,-8.327,-8.3294,-8.3196,-8.3007,-8.3167,-8.3178,-8.3387,-8.343,-8.3215,-8.3019,-8.3399,-8.5148,-8.7912,-9.0088,-9.3632,-9.667,-9.7077,-9.1607,-7.9369,-6.8,-6.239,-6.137,-6.1886,-6.5459,-7.0174,-7.4591,-7.8161,-8.0827,-8.253,-8.3311,-8.3726,-8.4074,-8.4291,-8.4545,-8.4576,-8.4607,-8.4709,-8.4873,-8.5025,-8.4926,-8.518,-8.5248,-8.5656,-8.5759,-8.5682,-8.5487,-8.557,-8.5818,-8.6276,-8.6543,-8.6479,-8.6354,-8.6229,-8.6408,-8.6611,-8.6786,-8.7243,-8.7654,-8.7638,-8.716,-8.7008,-8.6972,-8.71,-8.7366,-8.7605,-8.7642,-8.7514,-8.7402,-8.7423,-8.7483,-8.7328,-8.733,-8.7341,-8.7523,-8.7608,-8.758,-8.7659,-8.7873,-8.795,-8.7932,-8.7807,-8.7671,-8.7287,-8.6901,-8.6718,-8.6611,-8.6727,-8.683,-8.6625,-8.616,-8.5997,-8.5939,-8.5985,-8.6198,-8.6402,-8.6312,-8.6011,-8.5894,-8.5913,-8.5964,-8.6132,-8.6216,-8.6284,-8.6258,-8.6303,-8.6462,-8.6593,-8.6631,-8.6611,-8.6555,-8.661,-8.6692,-8.6891,-8.6933,-8.6911,-8.7007,-8.6944,-8.6841,-8.6849,-8.6921,-8.6884,-8.6758,-8.6746,-8.6798,-8.6974,-8.7021,-8.6957,-8.6961,-8.7138,-8.726,-8.7112,-8.7045,-8.71,-8.7138,-8.7198,-8.7373,-8.7401,-8.7385,-8.7236,-8.723,-8.7549,-8.7708,-8.7698,-8.7599,-8.7658,-8.78,-8.7879,-8.7961,-8.798,-8.7822,-8.7696,-8.777,-8.7993,-8.8257,-8.8326,-8.8337,-8.8374,-8.8648,-8.8766,-8.8323,-8.8084,-8.7878,-8.781,-8.7925,-8.8198,-8.8328,-8.8171,-8.8054,-8.7964,-8.8419,-9.0044,-9.2623,-9.482,-9.8425,-10.181,-10.229,-10.16,-9.3004,-8.1448,-7.3236,-6.8904,-6.8209,-7.0868,-7.5552,-7.9584,-8.3117,-8.5606,-8.7441,-8.8413,-8.9384,-8.9787,-8.996,-8.9577,-8.9544,-8.9453,-8.9738,-8.9919,-9.0147,-9.0246,-9.0468,-9.0474,-9.0635,-9.0645,-9.0869,-9.1014,-9.1399,-9.1731,-9.1499,-9.1343,-9.1313,-9.1362,-9.1588,-9.1798,-9.1953,-9.2116,-9.2147,-9.2094,-9.2102,-9.2089,-9.2291,-9.2388,-9.2347,-9.2335,-9.2334,-9.2302,-9.2322,-9.233,-9.2367,-9.2418,-9.2543,-9.2394,-9.2129,-9.2029,-9.2056,-9.2173,-9.2635,-9.3056,-9.2874,-9.2422,-9.2065,-9.2008,-9.1916,-9.1851,-9.1699,-9.1546,-9.1513,-9.1504,-9.1462,-9.1234,-9.0597,-9.0503,-9.062,-9.0747,-9.0756,-9.0655,-9.0381,-9.0314,-9.045,-9.0661,-9.0671,-9.0699,-9.0626,-9.0592,-9.0592,-9.0597,-9.0713,-9.0904,-9.1184,-9.0877,-9.0587,-9.0327,-9.025,-9.0302,-9.0568,-9.096,-9.093,-9.0522,-9.017,-9.033,-9.0403,-9.0332,-9.0279,-9.0616,-9.0778,-9.0547,-9.0211,-9.0037,-9.0067,-9.0193,-9.0377,-9.0478,-9.0324,-9.0219,-9.0147,-9.0236,-9.0178,-9.0241,-9.0291,-9.0504,-9.0595,-9.0794,-9.0759,-9.0602,-9.0693,-9.072,-9.0368,-9.0155,-9.0009,-9.0131,-9.018,-9.0398,-9.0642,-9.0711,-9.0515,-9.0234,-9.0034,-8.9914,-8.9954,-9.0043,-9.0084,-9.0232,-9.035,-9.0248,-9.0104,-9.0349,-9.1516,-9.3839,-9.5944,-9.7199,-10.066,-10.294,-10.275,-9.6683,-8.5819,-7.7948,-7.2743,-7.0515,-7.1932,-7.5871,-8.0374,-8.4035,-8.626,-8.8164,-8.9371,-8.9937,-9.0317,-9.05,-9.0608,-9.0627,-9.079,-9.0818,-9.0878,-9.0953,-9.1025,-9.1132,-9.1295,-9.145,-9.1579,-9.1595,-9.165,-9.1775,-9.1836,-9.1898,-9.1954,-9.2033,-9.2124,-9.2455,-9.2633,-9.2709,-9.2627,-9.2568,-9.2577,-9.2399,-9.254,-9.2587,-9.2614,-9.2717,-9.283,-9.2753,-9.2483,-9.2365,-9.2435,-9.2435,-9.2462,-9.2521,-9.2448,-9.2321,-9.2281,-9.2375,-9.2355,-9.2402,-9.2401,-9.2353,-9.2579,-9.2493,-9.241,-9.221,-9.1899,-9.1792,-9.159,-9.1357,-9.139,-9.1175,-9.0982,-9.079,-9.062,-9.0521,-9.0509,-9.0406,-9.0334,-9.0269,-9.0356,-9.053,-9.071,-9.0577,-9.0403,-9.0235,-9.0313,-9.0355,-9.0431,-9.0438,-9.0466,-9.0392,-9.0251,-9.021,-9.0269,-9.0329,-9.0373,-9.0487,-9.0397,-9.0039,-8.995,-9.0011,-9.0072,-9.006,-8.9893,-8.9897,-8.9847,-8.9966,-9.0131,-9.0112,-8.9886,-8.9611,-8.9523,-8.9518,-8.9619,-8.9709,-8.9849,-8.9966,-8.9907,-8.9765,-8.9954,-8.9963,-9.0063,-9.0053,-8.9939,-8.9862,-8.9676,-8.943,-8.9368,-8.9445,-8.9538,-8.9573,-8.9653,-8.9846,-8.9814,-8.9651,-8.9519,-8.9526,-8.9491,-8.9321,-8.934,-8.9338,-8.9402,-8.9319,-8.9194,-8.9092,-8.9536,-9.1385,-9.3978,-9.618,-9.9617,-10.132,-10.214,-10.093,-9.1131,-8.0019,-7.286,-6.9779,-6.9256,-7.1877,-7.631,-8.0795,-8.4229,-8.6285,-8.7629,-8.876,-8.9338,-8.9618,-8.9711,-8.9596,-8.9722,-8.9906,-9.018,-9.032,-9.0474,-9.0435,-9.0453,-9.0373,-9.0479,-9.0786,-9.0902,-9.0808,-9.0851,-9.0943,-9.1074,-9.1092,-9.1204,-9.1288,-9.1459,-9.1555,-9.1636,-9.1702,-9.1672,-9.1692,-9.179,-9.2021,-9.2316,-9.2139,-9.1874,-9.197,-9.1998,-9.1984,-9.1822,-9.1614,-9.1512,-9.1509,-9.1609,-9.1633,-9.1629,-9.1697,-9.1691,-9.1825,-9.1805,-9.1805,-9.1663,-9.1434,-9.1302,-9.1026,-9.0741,-9.0709,-9.0602,-9.0226,-8.9929,-8.9806,-8.9491,-8.9404,-8.9373,-8.9289,-8.9208,-8.9175,-8.9117,-8.9098,-8.9085,-8.8966,-8.8709,-8.8854,-8.8975,-8.8958,-8.896,-8.8912,-8.9008,-8.9188,-8.916,-8.9045,-8.9033,-8.8991,-8.884,-8.8776,-8.8847,-8.888,-8.8963,-8.8808,-8.8703,-8.8779,-8.8841,-8.8845,-8.8817,-8.8679,-8.8695,-8.8684,-8.8757,-8.8768,-8.867,-8.8565,-8.8362,-8.8192,-8.826,-8.8288,-8.8352,-8.8389,-8.8503,-8.8609,-8.8526,-8.8463,-8.8454,-8.8485,-8.8567,-8.8606,-8.8629,-8.8616,-8.8566,-8.8502,-8.8337,-8.8213,-8.8215,-8.8306,-8.8422,-8.8515,-8.8605,-8.8431,-8.8175,-8.8063,-8.8124,-8.8239,-8.8214,-8.7881,-8.7878,-8.779,-8.7755,-8.7751,-8.7747,-8.8219,-9,-9.2641,-9.3685,-9.6558,-10.053,-10.213,-9.9519,-8.8553,-7.5563,-6.8485,-6.5817,-6.6571,-7.0467,-7.502,-7.9779,-8.3226,-8.5471,-8.7017,-8.7775,-8.8201,-8.8364,-8.8465,-8.8518,-8.8644,-8.8794,-8.9002,-8.8808,-8.9029,-8.9125,-8.9227,-8.9175,-8.9372,-8.9434,-8.9449,-8.9639,-8.9854,-8.9818,-8.981,-8.9738,-8.9963,-9.0471,-9.0696,-9.0702,-9.0391,-9.0295,-9.0367,-9.0686,-9.0977,-9.0933,-9.0777,-9.0659,-9.0878,-9.0974,-9.1032,-9.1053,-9.1011,-9.0946,-9.1089,-9.0932,-9.0731,-9.0711,-9.0552,-9.0551,-9.0734,-9.0801,-9.0695,-9.0752,-9.0599,-9.0532,-9.0476,-9.0417,-9.0099,-8.9762,-8.939,-8.9109,-8.8971,-8.8785,-8.8572,-8.815,-8.8042,-8.7998,-8.8092,-8.8049,-8.7876,-8.7894,-8.7852,-8.7951,-8.7881,-8.7986,-8.7899,-8.7879,-8.7832,-8.7863,-8.7887,-8.8028,-8.8132,-8.8001,-8.7888,-8.7913,-8.7905,-8.8006,-8.7757,-8.7765,-8.7753,-8.7785,-8.7886,-8.7867,-8.7767,-8.7697,-8.76,-8.7693,-8.7766,-8.7772,-8.7686,-8.7712,-8.776,-8.7528,-8.7428,-8.7404,-8.7426,-8.7346,-8.7311,-8.7395,-8.7463,-8.7407,-8.7286,-8.7264,-8.7373,-8.7462,-8.7579,-8.7648,-8.759,-8.7592,-8.7593,-8.7674,-8.7434,-8.7328,-8.7281,-8.7319,-8.748,-8.7497,-8.7628,-8.7746,-8.7564,-8.738,-8.7332,-8.7225,-8.7229,-8.7182,-8.7077,-8.7088,-8.7095,-8.7113,-8.705,-8.7001,-8.7631,-8.8342,-9.0671,-9.2967,-9.5744,-9.9464,-10.071,-9.8905,-8.854,-7.7081,-7.0175,-6.6995,-6.6826,-6.9777,-7.4413,-7.8754,-8.2176,-8.4368,-8.6093,-8.7043,-8.7474,-8.758,-8.7814,-8.7641,-8.7834,-8.7905,-8.8325,-8.8267,-8.8618,-8.8447,-8.8538,-8.8386,-8.8587,-8.8702,-8.9011,-8.9098,-8.9109,-8.9248,-8.9434,-8.9342,-8.9447,-8.9616,-8.9661,-8.9591,-8.9795,-8.9792,-8.9653,-8.9843,-9.0024,-8.9911,-9.003,-9.0061,-9.0225,-9.0197,-9.0158,-8.9957,-8.993,-8.9879,-8.9906,-8.9957,-8.982,-8.9718,-8.9728,-8.9786,-8.9864,-8.9748,-8.9828,-9.0111,-9.0099,-8.9872,-8.9599,-8.9347,-8.917,-8.9094,-8.8897,-8.8684,-8.8314,-8.8162,-8.8064,-8.798,-8.7871,-8.7849,-8.7581,-8.7395,-8.753,-8.7531,-8.7462,-8.7466,-8.7385,-8.7495,-8.7251,-8.7186,-8.7132,-8.7167,-8.734,-8.7514,-8.7566,-8.7591,-8.7393,-8.73,-8.7346,-8.7362,-8.75,-8.74,-8.7172,-8.7209,-8.7353,-8.74,-8.7152,-8.7079,-8.7036,-8.7223,-8.7414,-8.7489,-8.7097,-8.6925,-8.6918,-8.6971,-8.7118,-8.7089,-8.7011,-8.6958,-8.6698,-8.6749,-8.6934,-8.7365,-8.734,-8.702,-8.7004,-8.7219,-8.7222,-8.7315,-8.728,-8.6973,-8.6909,-8.6853,-8.6858,-8.6904,-8.6737,-8.6737,-8.6905,-8.7004,-8.7097,-8.706,-8.69,-8.6813,-8.6571,-8.6629,-8.666,-8.6572,-8.6525,-8.6573,-8.6628,-8.7336,-8.8172,-9.0517,-9.2902,-9.5563,-9.904,-9.9819,-9.7292,-8.6456,-7.522,-6.8928,-6.6865,-6.7297,-7.0044,-7.4302,-7.8563,-8.1856,-8.3842,-8.5418,-8.6172,-8.6728,-8.7013,-8.7375,-8.7442,-8.785,-8.7899,-8.7968,-8.7814,-8.8299,-8.827,-8.8332,-8.8142,-8.8312,-8.8444,-8.8588,-8.8737,-8.8887,-8.8887,-8.8981,-8.8845,-8.9013,-8.9026,-8.9124,-8.9396,-8.9669,-8.9811,-8.9776,-8.9838,-8.9866,-8.9837,-9.002,-8.9937,-8.9968,-9.0014,-9.0301,-9.0228,-8.9932,-8.9876,-8.9995,-9.0043,-9.0037,-8.9866,-8.9663,-9.0032,-9.0186,-9.005,-8.9735,-8.9623,-8.9627,-8.9748,-8.9521,-8.9285,-8.8828,-8.8607,-8.8486,-8.8469,-8.8158,-8.7896,-8.7854,-8.7725,-8.7683,-8.7458,-8.7092,-8.6992,-8.6845,-8.6969,-8.7109,-8.7109,-8.6998,-8.7009,-8.7018,-8.7144,-8.7132,-8.7218,-8.7356,-8.7396,-8.7424,-8.752,-8.7475,-8.7433,-8.7237,-8.7219,-8.7024,-8.7183,-8.7338,-8.7499,-8.7326,-8.7179,-8.7098,-8.7192,-8.7094,-8.7099,-8.7097,-8.7279,-8.7349,-8.7167,-8.705,-8.7074,-8.7042,-8.7039,-8.7092,-8.7112,-8.7082,-8.7128,-8.7094,-8.7023,-8.7172,-8.721,-8.7157,-8.7228,-8.7178,-8.7128,-8.7223,-8.7372,-8.7481,-8.7601,-8.7446,-8.7132,-8.6974,-8.6991,-8.7081,-8.7206,-8.7243,-8.7485,-8.7388,-8.7383,-8.714,-8.7008,-8.701,-8.6983,-8.6949,-8.7126,-8.7162,-8.6945,-8.6832,-8.6656,-8.7083,-8.8838,-9.1712,-9.3996,-9.7367,-10.055,-10.114,-9.515,-8.2627,-7.0821,-6.5588,-6.5066,-6.7066,-7.1329,-7.5581,-8.0003,-8.342,-8.5897,-8.655,-8.7051,-8.7289,-8.7425,-8.7871,-8.8135,-8.8158,-8.8376,-8.8328,-8.8225,-8.8529,-8.8613,-8.8695,-8.8975,-8.921,-8.9055,-8.922,-8.9092,-8.9206,-8.9266,-8.9452,-8.9694,-8.9716,-8.9947,-8.999,-8.9894,-9.021,-9.0299,-9.0499,-9.0427,-9.0402,-9.0616,-9.0828,-9.0829,-9.0714,-9.0675,-9.0909,-9.0813,-9.0839,-9.0752,-9.0674,-9.0812,-9.0676,-9.0555,-9.0444,-9.052,-9.0769,-9.0695,-9.0737,-9.0817,-9.0808,-9.0589,-9.0224,-8.9879,-8.9747,-8.9374,-8.8989,-8.893,-8.9021,-8.888,-8.8487,-8.8186,-8.8182,-8.8241,-8.8274,-8.7962,-8.7791,-8.7693,-8.7749,-8.7804,-8.7831,-8.8004,-8.7862,-8.7757,-8.7761,-8.7688,-8.775,-8.7834,-8.7947,-8.8074,-8.8129,-8.7804,-8.781,-8.7868,-8.8101,-8.8191,-8.8124,-8.771,-8.7752,-8.7774,-8.7937,-8.8116,-8.7989,-8.7952,-8.7672,-8.7559,-8.7465,-8.7587,-8.7883,-8.8072,-8.7884,-8.762,-8.7345,-8.74,-8.7925,-8.7941,-8.7516,-8.7248,-8.7336,-8.7457,-8.7453,-8.738,-8.7277,-8.7484,-8.748,-8.7386,-8.7388,-8.7562,-8.7543,-8.743,-8.756,-8.7849,-8.7831,-8.7522,-8.7388,-8.7725,-8.8054,-8.7717,-8.751,-8.7289,-8.7532,-8.7608,-8.7544,-8.7674,-8.7903,-8.7949,-8.7805,-8.7379,-8.712,-8.718,-8.7212,-8.7301,-8.7251,-8.718,-8.7069,-8.7081,-8.7074,-8.7422,-8.881,-9.1276,-9.3642,-9.6732,-10.032,-10.136,-10.125,-9.2807,-7.9413,-6.8679,-6.5155,-6.5109,-6.7752,-7.2763,-7.6951,-8.1401,-8.4275,-8.6427,-8.7218,-8.7672,-8.7569,-8.7832,-8.7877,-8.8482,-8.838,-8.8737,-8.872,-8.8582,-8.8483,-8.8729,-8.854,-8.8819,-8.8799,-8.9048,-8.9051,-8.9255,-8.9309,-8.9471,-8.9519,-8.9866,-9.0067,-9.0197,-8.994,-8.9975,-9.0176,-9.0188,-8.9954,-9.023,-9.0398,-9.0754,-9.0711,-9.0545,-9.0492,-9.0473,-9.049,-9.0539,-9.0612,-9.0614,-9.0581,-9.063,-9.0576,-9.051,-9.0513,-9.057,-9.0713,-9.066,-9.06,-9.0689,-9.0724,-9.04,-9.0054,-8.9773,-8.9741,-8.9504,-8.9204,-8.8912,-8.8702,-8.8482,-8.8435,-8.8193,-8.8076,-8.7835,-8.7775,-8.7682,-8.7928,-8.7789,-8.7608,-8.761,-8.7606,-8.7588,-8.7563,-8.7718,-8.7707,-8.7552,-8.7632,-8.7573,-8.7668,-8.7739,-8.774,-8.7564,-8.7643,-8.7629,-8.7705,-8.7827,-8.7763,-8.76,-8.752,-8.7661,-8.7791,-8.7752,-8.7594,-8.7357,-8.7408,-8.7429,-8.7385,-8.7326,-8.7357,-8.7397,-8.7371,-8.7315,-8.7334,-8.7294,-8.7301,-8.7105,-8.7042,-8.7071,-8.7378,-8.7454,-8.7279,-8.6917,-8.6931,-8.6874,-8.7063,-8.7144,-8.7161,-8.7234,-8.7063,-8.7069,-8.7144,-8.7023,-8.6986,-8.721,-8.7248,-8.7038,-8.7028,-8.7107,-8.7239,-8.722,-8.7421,-8.7464,-8.7223,-8.7067,-8.7314,-8.737,-8.7326,-8.7137,-8.7134,-8.717,-8.7264,-8.7278,-8.7265,-8.7229,-8.7154,-8.7041,-8.7049,-8.7252,-8.7262,-8.6811,-8.6781,-8.6809,-8.6767,-8.6792,-8.6828,-8.7453,-8.926,-9.1686,-9.3704,-9.7061,-9.8767,-9.9775,-9.866,-8.9219,-7.8408,-7.1331,-6.8051,-6.7004,-6.9314,-7.359,-7.7993,-8.1635,-8.3992,-8.5692,-8.6616,-8.709,-8.7324,-8.7558,-8.7678,-8.7779,-8.7731,-8.8075,-8.8343,-8.8375,-8.8144,-8.8175,-8.8206,-8.8343,-8.838,-8.8703,-8.8897,-8.9191,-8.91,-8.9031,-8.901,-8.9236,-8.9263,-8.9367,-8.9349,-8.9558,-8.9564,-8.9655,-8.9634,-8.9739,-8.9718,-8.981,-8.984,-8.9875,-8.9769,-8.9745,-8.97,-8.9791,-8.9594,-8.9725,-8.9676,-8.9517,-8.934,-8.9266,-8.9249,-8.9284,-8.9421,-8.9596,-8.9714,-8.959,-8.9614,-8.9319,-8.9145,-8.8941,-8.8738,-8.8457,-8.8292,-8.8355,-8.8136,-8.7851,-8.7468,-8.7421,-8.7397,-8.7315,-8.7275,-8.7304,-8.7404,-8.7209,-8.6969,-8.689,-8.6953,-8.6951,-8.7105,-8.7193,-8.7079,-8.7194,-8.7275,-8.7077,-8.6981,-8.704,-8.723,-8.728,-8.7391,-8.7241,-8.7125,-8.704,-8.6982,-8.6995,-8.6932,-8.7109,-8.7094,-8.6975,-8.6919,-8.6831,-8.6868,-8.7129,-8.7191,-8.7159,-8.6938,-8.6829,-8.6959,-8.6818,-8.6805,-8.6776,-8.6712,-8.6613,-8.6671,-8.6555,-8.661,-8.6644,-8.659,-8.6595,-8.6793,-8.6694,-8.6557,-8.6543,-8.6671,-8.6815,-8.6906,-8.6941,-8.6856,-8.6858,-8.6973,-8.683,-8.6714,-8.6499,-8.6567,-8.6461,-8.6278,-8.6424,-8.6577,-8.6815,-8.6967,-8.6773,-8.6439,-8.6263,-8.6349,-8.6563,-8.6484,-8.6406,-8.6168,-8.5892,-8.6058,-8.6201,-8.6187,-8.6165,-8.6396,-8.8015,-9.2535,-9.5728,-9.9186,-10.077,-9.7903,-8.6382,-7.1268,-6.2454,-6.0881,-6.3328,-6.4828,-7.0089,-7.4529,-7.9041,-8.2293,-8.4563,-8.5885,-8.6437,-8.6929,-8.7049,-8.7071,-8.6964,-8.7164,-8.7362,-8.7737,-8.7718,-8.77,-8.7762,-8.7851,-8.7757,-8.7708,-8.7875,-8.8147,-8.8439,-8.848,-8.8517,-8.8591,-8.856,-8.8799,-8.8939,-8.9056,-8.8977,-8.912,-8.9288,-8.965,-8.97,-8.9774,-8.9684,-8.9722,-8.9898,-9.0293,-9.0159,-8.9984,-8.9752,-8.9713,-8.9746,-8.9897,-8.9956,-8.9926,-8.9964,-8.9967,-8.9848,-8.9729,-8.9554,-8.9646,-8.9689,-8.962,-8.9436,-8.9253,-8.8837,-8.853,-8.8092,-8.76,-8.7423,-8.7167,-8.7123,-8.7155,-8.6976,-8.674,-8.6697,-8.6755,-8.6523,-8.6335,-8.6269,-8.6356,-8.6548,-8.6521,-8.6403,-8.6268,-8.6227,-8.6275,-8.6274,-8.6353,-8.6455,-8.6244,-8.6111,-8.6241,-8.6473,-8.6378,-8.6284,-8.6378,-8.647,-8.6499,-8.655,-8.6563,-8.645,-8.6389,-8.6339,-8.6209,-8.628,-8.6452,-8.641,-8.6096,-8.606,-8.6095,-8.6106,-8.6043,-8.5897,-8.5899,-8.5892,-8.5992,-8.609,-8.5963,-8.5884,-8.5867,-8.5984,-8.5916,-8.5862,-8.5716,-8.5771,-8.5805,-8.6054,-8.5808,-8.5536,-8.5447,-8.5513,-8.562,-8.5587,-8.5653,-8.562,-8.5699,-8.5699,-8.5827,-8.5789,-8.5845,-8.6081,-8.6207,-8.6138,-8.5866,-8.5865,-8.5831,-8.5731,-8.5834,-8.563,-8.557,-8.5643,-8.5663,-8.5917,-8.5778,-8.5763,-8.5621,-8.5552,-8.5503,-8.5421,-8.5553,-8.5482,-8.5519,-8.5505,-8.543,-8.5214,-8.5281,-8.586,-8.7816,-9.0759,-9.3435,-9.7233,-9.9466,-9.9045,-8.9901,-7.6272,-6.5335,-6.1665,-6.252,-6.358,-6.8301,-7.2576,-7.7393,-8.0923,-8.3258,-8.4775,-8.5561,-8.5911,-8.6123,-8.6029,-8.6231,-8.6257,-8.6404,-8.66,-8.6824,-8.7036,-8.7261,-8.7142,-8.7048,-8.7078,-8.7122,-8.745,-8.7585,-8.7599,-8.7625,-8.7547,-8.7675,-8.7758,-8.7933,-8.8212,-8.8447,-8.8556,-8.8443,-8.8501,-8.8601,-8.8818,-8.9032,-8.9176,-8.9289,-8.9157,-8.8821,-8.8812,-8.897,-8.8822,-8.8658,-8.8786,-8.8749,-8.8855,-8.8801,-8.8647,-8.8563,-8.8648,-8.8498,-8.8016,-8.8018,-8.8253,-8.8195,-8.8153,-8.7995,-8.7883,-8.7577,-8.7244,-8.6814,-8.6467,-8.6253,-8.6287,-8.6238,-8.5969,-8.5909,-8.5711,-8.5737,-8.5756,-8.5572,-8.5369,-8.5441,-8.5671,-8.5847,-8.5765,-8.5307,-8.5423,-8.5344,-8.5337,-8.531,-8.5387,-8.5433,-8.5597,-8.5742,-8.5462,-8.5446,-8.5416,-8.5562,-8.5669,-8.5743,-8.5494,-8.5354,-8.5248,-8.5144,-8.5279,-8.5257,-8.5349,-8.5245,-8.534,-8.5235,-8.516,-8.5249,-8.5253,-8.5349,-8.5255,-8.508,-8.5107,-8.4904,-8.4815,-8.4786,-8.4784,-8.4805,-8.4904,-8.504,-8.4956,-8.4825,-8.5045,-8.5158,-8.5,-8.4923,-8.4713,-8.4596,-8.4737,-8.4899,-8.5026,-8.4816,-8.4612,-8.4569,-8.4566,-8.4697,-8.476,-8.4971,-8.4979,-8.4938,-8.5013,-8.4827,-8.4628,-8.462,-8.4505,-8.4602,-8.4772,-8.4836,-8.4764,-8.4623,-8.4635,-8.4552,-8.4798,-8.4839,-8.4705,-8.4724,-8.475,-8.4705,-8.4741,-8.4841,-8.4867,-8.4984,-8.5082,-8.5184,-8.4986,-8.4807,-8.4888,-8.483,-8.4905,-8.4894,-8.4879,-8.4883,-8.4919,-8.5113,-8.515,-8.506,-8.482,-8.4776,-8.465,-8.4593,-8.466,-8.4571,-8.4587,-8.4537,-8.4509,-8.4565,-8.4662,-8.604,-8.8748,-9.1262,-9.4974,-9.8224,-9.951,-9.7844,-8.6986,-7.2737,-6.3306,-6.0706,-6.1881,-6.5551,-7.0354,-7.5116,-7.9162,-8.1925,-8.3881,-8.4637,-8.4923,-8.5089,-8.5333,-8.5547,-8.5957,-8.5885,-8.5895,-8.6033,-8.6038,-8.607,-8.6131,-8.6083,-8.624,-8.6269,-8.6479,-8.6586,-8.6785,-8.6945,-8.6979,-8.7163,-8.7422,-8.7526,-8.7636,-8.7634,-8.7668,-8.7551,-8.7563,-8.7768,-8.7944,-8.8033,-8.8029,-8.8237,-8.8374,-8.8521,-8.8457,-8.8357,-8.8429,-8.8379,-8.8305,-8.8438,-8.8322,-8.8257,-8.8341,-8.8469,-8.8455,-8.8398,-8.8426,-8.8456,-8.8443,-8.8497,-8.8218,-8.803,-8.7663,-8.7324,-8.7099,-8.6772,-8.6636,-8.6262,-8.6148,-8.5961,-8.579,-8.5731,-8.5722,-8.5608,-8.5564,-8.5381,-8.5404,-8.5286,-8.522,-8.5182,-8.5271,-8.5228,-8.5142,-8.5086,-8.5073,-8.5398,-8.5427,-8.5372,-8.5324,-8.5294,-8.5277,-8.5157,-8.5248,-8.5315,-8.5378,-8.5491,-8.5353,-8.5238,-8.5049,-8.5133,-8.5124,-8.5141,-8.5258,-8.5236,-8.5157,-8.5106,-8.5102,-8.5244,-8.5306,-8.525,-8.5106,-8.4988,-8.4881,-8.4862,-8.4776,-8.4927,-8.5176,-8.5177,-8.4836,-8.4736,-8.4955,-8.5165,-8.5134,-8.4959,-8.4874,-8.4594,-8.4778,-8.4867,-8.4785,-8.4784,-8.4796,-8.4818,-8.4817,-8.4944,-8.4909,-8.508,-8.5033,-8.4892,-8.4939,-8.4773,-8.4696,-8.4818,-8.4841,-8.4781,-8.4828,-8.4869,-8.48,-8.4874,-8.4777,-8.4826,-8.4984,-8.5056,-8.5173,-8.5089,-8.5009,-8.5063,-8.5144,-8.5416,-8.5654,-8.5562,-8.5245,-8.5085,-8.4957,-8.5076,-8.5247,-8.5452,-8.5342,-8.5058,-8.4956,-8.4833,-8.4797,-8.48,-8.5026,-8.5045,-8.4941,-8.4986,-8.5115,-8.5015,-8.5078,-8.6332,-8.8886,-9.1006,-9.4044,-9.7462,-9.8755,-9.544,-8.4149,-7.2261,-6.5505,-6.3944,-6.3642,-6.6622,-7.1117,-7.5177,-7.9104,-8.168,-8.3883,-8.5042,-8.5362,-8.5232,-8.5366,-8.5495,-8.59,-8.5985,-8.6297,-8.6415,-8.6601,-8.641,-8.6473,-8.6265,-8.6633,-8.6919,-8.7075,-8.6957,-8.7013,-8.6859,-8.7109,-8.7404,-8.7689,-8.7704,-8.7607,-8.7632,-8.7751,-8.7826,-8.8034,-8.8063,-8.8316,-8.8351,-8.8472,-8.8486,-8.8368,-8.8319,-8.8688,-8.8774,-8.8469,-8.8299,-8.8276,-8.8359,-8.8354,-8.8504,-8.8469,-8.8112,-8.8013,-8.8096,-8.8248,-8.8371,-8.846,-8.8542,-8.8532,-8.8332,-8.7909,-8.7609,-8.7339,-8.7343,-8.7167,-8.6825,-8.6559,-8.6309,-8.6142,-8.5999,-8.5891,-8.5849,-8.5772,-8.5859,-8.5926,-8.5859,-8.5808,-8.5791,-8.577,-8.588,-8.5825,-8.5868,-8.5825,-8.5917,-8.5888,-8.5821,-8.5768,-8.5811,-8.6004,-8.611,-8.5998,-8.6003,-8.5989,-8.5842,-8.5742,-8.5857,-8.5866,-8.5593,-8.5666,-8.5637,-8.5495,-8.5622,-8.5624,-8.5718,-8.5691,-8.5689,-8.5636,-8.562,-8.5648,-8.5755,-8.566,-8.5603,-8.552,-8.5612,-8.5637,-8.5626,-8.5333,-8.5449,-8.5425,-8.5574,-8.562,-8.554,-8.5483,-8.5516,-8.5452,-8.5353,-8.5425,-8.5341,-8.5285,-8.5394,-8.5353,-8.544,-8.5475,-8.5623,-8.5776,-8.5837,-8.5683,-8.5571,-8.5554,-8.5788,-8.5948,-8.5856,-8.5496,-8.5298,-8.5322,-8.5626,-8.5687,-8.5578,-8.569,-8.5763,-8.5705,-8.5712,-8.567,-8.5497,-8.5213,-8.5162,-8.5358,-8.5288,-8.5153,-8.5124,-8.5312,-8.5423,-8.6305,-8.8647,-9.0801,-9.3519,-9.7066,-9.8243,-9.7292,-8.8541,-7.7493,-7.3057,-6.7399,-6.5909,-6.6907,-6.9735,-7.4144,-7.8251,-8.1544,-8.3266,-8.4726,-8.5295,-8.569,-8.5695,-8.6104,-8.6308,-8.6624,-8.6398,-8.662,-8.6526,-8.683,-8.6659,-8.6889,-8.6847,-8.6892,-8.6935,-8.7128,-8.7002,-8.7193,-8.7323,-8.7681,-8.7863,-8.7715,-8.7504,-8.7749,-8.7762,-8.7899,-8.7956,-8.8151,-8.8248,-8.8369,-8.8291,-8.8524,-8.8535,-8.8295,-8.836,-8.8301,-8.8403,-8.8445,-8.8113,-8.8268,-8.8076,-8.8055,-8.7919,-8.8085,-8.8292,-8.8458,-8.8008,-8.7914,-8.7857,-8.7821,-8.813,-8.7949,-8.7769,-8.7364,-8.6978,-8.6872,-8.6679,-8.6743,-8.6702,-8.6088,-8.5695,-8.5744,-8.582,-8.586,-8.5766,-8.5478,-8.5427,-8.5422,-8.5738,-8.5877,-8.5803,-8.5438,-8.5264,-8.5233,-8.5379,-8.5476,-8.584,-8.6019,-8.5985,-8.5344,-8.5257,-8.5308,-8.5276,-8.5237,-8.5353,-8.5241,-8.5283,-8.5296,-8.5277,-8.5268,-8.5281,-8.5305,-8.53,-8.5279,-8.5219,-8.5148,-8.5218,-8.5159,-8.5183,-8.5218,-8.5616,-8.5772,-8.5443,-8.4806,-8.4632,-8.4643,-8.4727,-8.4862,-8.5006,-8.4994,-8.4959,-8.4988,-8.4983,-8.4848,-8.4963,-8.5173,-8.5276,-8.5109,-8.5007,-8.5184,-8.5144,-8.5083,-8.512,-8.5129,-8.5081,-8.5022,-8.5238,-8.5345,-8.5346,-8.5331,-8.5174,-8.5071,-8.5098,-8.5159,-8.5383,-8.5492,-8.5484,-8.5048,-8.4959,-8.5064,-8.506,-8.5165,-8.507,-8.4951,-8.483,-8.4766,-8.4949,-8.5314,-8.6325,-8.8547,-9.0934,-9.3519,-9.7213,-9.9295,-9.7906,-8.7776,-7.4813,-6.6683,-6.3872,-6.4415,-6.764,-7.2164,-7.6773,-7.9088,-8.1923,-8.4217,-8.5156,-8.5957,-8.6082,-8.6634,-8.6691,-8.7109,-8.7005,-8.7295,-8.7225,-8.7518,-8.7397,-8.7781,-8.7878,-8.8257,-8.815,-8.8393,-8.8297,-8.8615,-8.8764,-8.92,-8.9196,-8.9181,-8.9403,-8.961,-8.9621,-8.9883,-8.9898,-9.0224,-9.0353,-9.0601,-9.0621,-9.0918,-9.1115,-9.1356,-9.1448,-9.1419,-9.1237,-9.1306,-9.1399,-9.1469,-9.1445,-9.1632,-9.1745,-9.1943,-9.2129,-9.2109,-9.1988,-9.186,-9.2063,-9.226,-9.2568,-9.2514,-9.2326,-9.2051,-9.1852,-9.161,-9.1506,-9.1512,-9.146,-9.1389,-9.1226,-9.1135,-9.1199,-9.1168,-9.1331,-9.1549,-9.1649,-9.1724,-9.1853,-9.1755,-9.1796,-9.1758,-9.1856,-9.215,-9.225,-9.2403,-9.2506,-9.2654,-9.2677,-9.2662,-9.2897,-9.2892,-9.3078,-9.3118,-9.3305,-9.3444,-9.3604,-9.3674,-9.381,-9.3919,-9.4304,-9.4283,-9.4388,-9.4446,-9.4744,-9.4609,-9.4591,-9.4516,-9.4705,-9.4782,-9.4886,-9.4938,-9.5132,-9.5234,-9.5541,-9.5801,-9.5452,-9.5455,-9.5686,-9.5909,-9.6004,-9.6119,-9.6188,-9.6297,-9.6685,-9.6863,-9.6897,-9.6936,-9.6999,-9.7095,-9.739,-9.7293,-9.7334,-9.7429,-9.758,-9.7741,-9.7821,-9.803,-9.8326,-9.8356,-9.8284,-9.8317,-9.827,-9.8101,-9.8112,-9.8204,-9.8571,-9.8725,-9.8795,-9.8789,-9.8681,-9.9102,-10.06,-10.346,-10.58,-10.929,-11.268,-11.352,-10.959,-9.7683,-9.0842,-8.21,-7.8088,-7.8585,-8.1385,-8.6299,-9.0516,-9.4818,-9.7118,-9.936,-9.9983,-10.083,-10.072,-10.149,-10.135,-10.19,-10.174,-10.237,-10.193,-10.201,-10.168,-10.203,-10.205,-10.251,-10.246,-10.275,-10.268,-10.3,-10.297,-10.329,-10.327,-10.365,-10.382,-10.375,-10.369,-10.417,-10.399,-10.399,-10.388,-10.396,-10.422,-10.431,-10.429,-10.429,-10.453,-10.485,-10.459,-10.429,-10.404,-10.388,-10.393,-10.406,-10.406,-10.399,-10.391,-10.394,-10.425,-10.423,-10.411,-10.367,-10.341,-10.334,-10.309,-10.263,-10.245,-10.207,-10.191,-10.159,-10.145,-10.128,-10.08,-10.062,-10.047,-10.038,-10.006,-9.969,-9.972,-9.9637,-9.9612,-9.9567,-9.9655,-9.9556,-9.9442,-9.9175,-9.9222,-9.9066,-9.9039,-9.887,-9.8878,-9.8727,-9.8715,-9.8495,-9.8492,-9.8301,-9.831,-9.8124,-9.8145,-9.7976,-9.7982,-9.7843,-9.7768,-9.754,-9.7571,-9.7411,-9.7517,-9.7291,-9.7194,-9.7021,-9.6904,-9.6943,-9.6912,-9.6739,-9.66,-9.6369,-9.6319,-9.6216,-9.6061,-9.5965,-9.6057,-9.6117,-9.6381,-9.6194,-9.5985,-9.5882,-9.5958,-9.5868,-9.5684,-9.5581,-9.5528,-9.5476,-9.5372,-9.5249,-9.541,-9.5198,-9.5189,-9.5029,-9.4889,-9.4818,-9.4686,-9.461,-9.4583,-9.448,-9.4309,-9.427,-9.4277,-9.472,-9.6096,-9.8503,-10.059,-10.401,-10.714,-10.774,-10.292,-9.1079,-8.4553,-7.6309,-7.2499,-7.2873,-7.5631,-8.048,-8.4407,-8.8309,-9.0516,-9.2572,-9.3195,-9.3898,-9.3688,-9.4221,-9.4156,-9.4559,-9.4223,-9.4554,-9.4158,-9.4571,-9.4512,-9.4902,-9.4641,-9.4896,-9.4772,-9.5071,-9.5151,-9.5452,-9.5063,-9.5165,-9.4942,-9.5232,-9.5299,-9.5542,-9.5503,-9.576,-9.5759,-9.5985,-9.5948,-9.6108,-9.6161,-9.6251,-9.6296,-9.6425,-9.6495,-9.6511,-9.6547,-9.6524,-9.6544,-9.6453,-9.6122,-9.5957,-9.592,-9.6081,-9.6189,-9.63,-9.6272,-9.6286,-9.6369,-9.6484,-9.6277,-9.6389,-9.6454,-9.6097,-9.5718,-9.5501,-9.5247,-9.4687,-9.4431,-9.4267,-9.4523,-9.4394,-9.4285,-9.427,-9.4273,-9.4147,-9.4246,-9.4334,-9.4668,-9.4449,-9.4196,-9.4338,-9.4373,-9.4305,-9.4405,-9.4213,-9.4483,-9.4636,-9.4631,-9.4393,-9.465,-9.4684,-9.4727,-9.4648,-9.4644,-9.457,-9.4816,-9.4813,-9.4621,-9.4502,-9.4651,-9.4755,-9.5036,-9.4781,-9.4694,-9.4562,-9.4734,-9.4814,-9.4948,-9.491,-9.4978,-9.4979,-9.5159,-9.5324,-9.5173,-9.5285,-9.5432,-9.5249,-9.5348,-9.5396,-9.522,-9.4993,-9.5109,-9.5373,-9.5586,-9.5455,-9.5356,-9.5231,-9.5277,-9.5344,-9.5495,-9.541,-9.5238,-9.502,-9.5046,-9.51,-9.5201,-9.5234,-9.5421,-9.5487,-9.5954,-9.7734,-10.02,-10.242,-10.6,-10.862,-10.848,-10.325,-9.2436,-8.4482,-7.9007,-7.6639,-7.7694,-7.8965,-8.3066,-8.7303,-9.075,-9.3231,-9.4743,-9.5728,-9.6039,-9.6533,-9.6781,-9.6862,-9.6983,-9.7052,-9.699,-9.7112,-9.723,-9.7547,-9.7743,-9.7836,-9.7804,-9.7811,-9.787,-9.8125,-9.836,-9.8459,-9.8539,-9.8693,-9.8635,-9.8974,-9.9183,-9.9217,-9.9095,-9.9155,-9.9291,-9.9509,-9.9492,-9.9544,-9.9543,-9.9556,-9.967,-9.9692,-9.9859,-9.9881,-9.9921,-9.9868,-9.9578,-9.9467,-9.9471,-9.959,-9.9621,-9.9756,-9.9848,-10,-10.01,-10.025,-10.02,-10.002,-9.9966,-9.9917,-9.9613,-9.9389,-9.9122,-9.8955,-9.8781,-9.8723,-9.8638,-9.8554,-9.8451,-9.8403,-9.8334,-9.84,-9.8367,-9.8415,-9.841,-9.8474,-9.8468,-9.8513,-9.8537,-9.8598,-9.8639,-9.8735,-9.8735,-9.8723,-9.8747,-9.8649,-9.8758,-9.8903,-9.8887,-9.8908,-9.8865,-9.8914,-9.8927,-9.9004,-9.9053,-9.898,-9.8897,-9.886,-9.8829,-9.8815,-9.8787,-9.8863,-9.8882,-9.8936,-9.8977,-9.9031,-9.9087,-9.9201,-9.9253,-9.932,-9.944,-9.9577,-9.9599,-9.9793,-10.017,-9.9795,-9.9463,-9.9142,-9.8871,-9.9144,-9.9309,-9.9401,-9.9496,-9.9528,-9.941,-9.9346,-9.9275,-9.9274,-9.9413,-9.9435,-9.9401,-9.928,-9.9242,-9.9567,-9.9794,-9.9909,-10.096,-10.336,-10.572,-10.887,-11.233,-11.274,-11.046,-9.9893,-8.9061,-8.2476,-7.9997,-8.0156,-8.2755,-8.7178,-9.1305,-9.4932,-9.7188,-9.897,-9.9406,-10.025,-10.056,-10.076,-10.058,-10.081,-10.084,-10.119,-10.12,-10.142,-10.139,-10.128,-10.146,-10.172,-10.187,-10.228,-10.229,-10.232,-10.221,-10.221,-10.231,-10.258,-10.292,-10.321,-10.315,-10.308,-10.3,-10.321,-10.338,-10.359,-10.369,-10.373,-10.373,-10.39,-10.407,-10.395,-10.39,-10.378,-10.38,-10.387,-10.395,-10.396,-10.409,-10.398,-10.371,-10.365,-10.372,-10.379,-10.391,-10.386,-10.385,-10.35,-10.316,-10.284,-10.254,-10.256,-10.246,-10.232,-10.233,-10.214,-10.199,-10.153,-10.138,-10.127,-10.123,-10.126,-10.142,-10.156,-10.148,-10.133,-10.132,-10.128,-10.144,-10.128,-10.141,-10.143,-10.137,-10.135,-10.141,-10.147,-10.169,-10.18,-10.162,-10.154,-10.161,-10.16,-10.162,-10.156,-10.155,-10.147,-10.149,-10.149,-10.163,-10.17,-10.17,-10.156,-10.148,-10.144,-10.137,-10.147,-10.156,-10.157,-10.159,-10.157,-10.168,-10.171,-10.175,-10.19,-10.217,-10.222,-10.227,-10.229,-10.194,-10.149,-10.132,-10.132,-10.171,-10.219,-10.225,-10.206,-10.179,-10.157,-10.156,-10.161,-10.152,-10.125,-10.147,-10.152,-10.141,-10.128,-10.123,-10.143,-10.179,-10.333,-10.482,-10.734,-11.038,-11.43,-11.614,-11.36,-10.244,-8.8553,-8.1229,-7.9084,-8.0131,-8.3914,-8.8342,-9.2778,-9.6796,-9.9403,-10.111,-10.153,-10.183,-10.186,-10.21,-10.218,-10.25,-10.254,-10.284,-10.286,-10.313,-10.336,-10.338,-10.328,-10.335,-10.324,-10.343,-10.357,-10.373,-10.389,-10.405,-10.4,-10.421,-10.431,-10.453,-10.476,-10.478,-10.454,-10.464,-10.465,-10.48,-10.502,-10.538,-10.539,-10.513,-10.507,-10.508,-10.531,-10.538,-10.519,-10.499,-10.493,-10.491,-10.495,-10.508,-10.505,-10.503,-10.503,-10.503,-10.548,-10.526,-10.499,-10.471,-10.47,-10.451,-10.413,-10.359,-10.318,-10.291,-10.29,-10.28,-10.287,-10.291,-10.265,-10.249,-10.226,-10.213,-10.225,-10.229,-10.244,-10.234,-10.23,-10.216,-10.217,-10.222,-10.232,-10.218,-10.208,-10.216,-10.232,-10.232,-10.247,-10.223,-10.232,-10.223,-10.237,-10.244,-10.229,-10.207,-10.21,-10.211,-10.227,-10.224,-10.223,-10.213,-10.206,-10.205,-10.224,-10.209,-10.203,-10.187,-10.189,-10.193,-10.181,-10.163,-10.164,-10.169,-10.194,-10.208,-10.196,-10.179,-10.204,-10.206,-10.204,-10.187,-10.189,-10.185,-10.162,-10.16,-10.163,-10.173,-10.179,-10.187,-10.213,-10.197,-10.164,-10.146,-10.138,-10.143,-10.132,-10.138,-10.135,-10.126,-10.107,-10.1,-10.101,-10.128,-10.206,-10.3,-10.571,-10.823,-11.197,-11.524,-11.549,-10.946,-9.6808,-8.4853,-7.9629,-7.8816,-8.0735,-8.5566,-8.9785,-9.4354,-9.7532,-9.9662,-10.086,-10.152,-10.143,-10.157,-10.168,-10.203,-10.207,-10.247,-10.243,-10.246,-10.229,-10.24,-10.245,-10.263,-10.273,-10.296,-10.301,-10.328,-10.33,-10.321,-10.305,-10.32,-10.336,-10.367,-10.388,-10.396,-10.376,-10.393,-10.391,-10.409,-10.418,-10.429,-10.441,-10.45,-10.452,-10.432,-10.42,-10.417,-10.423,-10.419,-10.421,-10.426,-10.437,-10.441,-10.441,-10.441,-10.449,-10.435,-10.417,-10.409,-10.406,-10.41,-10.423,-10.408,-10.346,-10.296,-10.271,-10.243,-10.244,-10.225,-10.204,-10.176,-10.16,-10.142,-10.149,-10.143,-10.152,-10.169,-10.147,-10.137,-10.123,-10.131,-10.143,-10.129,-10.145,-10.149,-10.166,-10.153,-10.141,-10.114,-10.108,-10.113,-10.129,-10.13,-10.128,-10.118,-10.123,-10.129,-10.149,-10.157,-10.155,-10.16,-10.123,-10.102,-10.108,-10.104,-10.103,-10.106,-10.097,-10.101,-10.102,-10.096,-10.091,-10.085,-10.084,-10.096,-10.107,-10.108,-10.092,-10.069,-10.057,-10.056,-10.055,-10.067,-10.073,-10.078,-10.095,-10.095,-10.088,-10.074,-10.07,-10.065,-10.09,-10.107,-10.1,-10.094,-10.079,-10.081,-10.098,-10.119,-10.12,-10.098,-10.077,-10.081,-10.088,-10.084,-10.096,-10.109,-10.119,-10.123,-10.102,-10.068,-10.075,-10.076,-10.073,-10.054,-10.034,-10.041,-10.057,-10.062,-10.066,-10.137,-10.358,-10.627,-10.956,-11.174,-11.397,-11.406,-10.28,-10.24,-10.304,-10.254,-10.306,-10.252,-10.334,-10.282,-10.333,-10.291,-10.361,-10.353,-10.419,-10.336,-10.325,-10.289,-10.345,-10.324,-10.369,-10.34,-10.379,-10.335,-10.346,-10.317,-10.34,-10.329,-10.343,-10.322,-10.34,-10.319,-10.349,-10.352,-10.372,-10.365,-10.363,-10.314,-10.304,-10.264,-10.236,-10.203,-10.185,-10.156,-10.162,-10.155,-10.142,-10.097,-10.086,-10.08,-10.071,-10.064,-10.048,-10.049,-10.06,-10.096,-10.094,-10.079,-10.061,-10.054,-10.06,-10.049,-10.055,-10.071,-10.069,-10.078,-10.062,-10.071,-10.073,-10.096,-10.069,-10.058,-10.031,-10.035,-10.037,-10.05,-10.034,-10.043,-10.032,-10.054,-10.056,-10.062,-10.029,-10.017,-9.9903,-10.02,-10.011,-10.034,-10.041,-10.046,-9.9997,-10.003,-9.9864,-9.9968,-9.9967,-10.023,-10.027,-10.04,-10.015,-10.024,-10.016,-10.033,-10.029,-10.045,-10.027,-10.021,-10.007,-10.017,-10.017,-10.034,-10.013,-10.011,-10.027,-10.061,-10.01,-9.9832,-9.9706,-9.9534,-9.9585,-9.97,-9.9773,-9.9881,-9.9841,-9.9823,-9.9808,-9.9955,-10.105,-10.356,-10.575,-10.861,-11.185,-11.226,-11.038,-10.077,-9.1131,-8.5248,-8.2105,-8.0889,-8.3061,-8.7417,-9.1001,-9.4194,-9.5161,-9.7968,-9.8671,-9.9691,-10.009,-10.029,-10.084,-10.127,-10.094,-10.051,-10.06,-10.107,-10.121,-10.088,-10.096,-10.119,-10.146,-10.164,-10.167,-10.159,-10.171,-10.17,-10.177,-10.183,-10.218,-10.218,-10.209,-10.199,-10.243,-10.267,-10.27,-10.238,-10.257,-10.263,-10.244,-10.235,-10.235,-10.239,-10.25,-10.251,-10.237,-10.224,-10.213,-10.192,-10.203,-10.207,-10.194,-10.189,-10.2,-10.204,-10.215,-10.212,-10.206,-10.219,-10.21,-10.172,-10.146,-10.122,-10.1,-10.073,-10.06,-10.039,-10.023,-10.009,-10.022,-10.038,-10.028,-9.9738,-9.9577,-9.9549,-10.004,-9.9934,-9.9887,-9.975,-9.9911,-10,-10.01,-9.9708,-9.9688,-9.9652,-9.9966,-10.011,-10.009,-10.003,-10.016,-9.9878,-9.957,-9.9367,-9.9353,-9.9528,-9.9814,-10.004,-9.9821,-9.9394,-9.947,-9.9426,-9.9741,-9.985,-10.022,-9.9997,-9.9597,-9.9299,-9.9412,-9.9353,-9.9188,-9.9178,-9.9305,-9.9493,-9.9589,-9.9671,-9.9391,-9.9525,-9.9831,-9.9896,-9.9791,-9.9597,-9.9507,-9.9505,-9.9583,-9.9568,-9.9251,-9.9018,-9.9209,-9.9514,-9.9524,-9.9605,-9.9604,-9.9628,-9.9343,-9.9209,-9.8916,-9.8952,-9.9159,-9.9452,-9.9529,-9.9175,-9.9113,-9.8755,-9.8722,-9.9401,-10.131,-10.413,-10.675,-11.066,-11.29,-11.241,-10.46,-9.1734,-8.192,-7.7702,-7.8219,-8.0407,-8.4156,-8.7932,-9.2087,-9.3863,-9.6338,-9.8211,-9.9195,-9.974,-9.9631,-9.9667,-9.9695,-10.001,-10.007,-10.029,-10.039,-10.074,-10.066,-10.097,-10.095,-10.087,-10.095,-10.101,-10.091,-10.113,-10.108,-10.124,-10.134,-10.16,-10.163,-10.183,-10.178,-10.209,-10.235,-10.257,-10.25,-10.244,-10.239,-10.262,-10.255,-10.241,-10.237,-10.238,-10.239,-10.241,-10.237,-10.248,-10.233,-10.237,-10.223,-10.229,-10.226,-10.231,-10.253,-10.284,-10.274,-10.232,-10.167,-10.142,-10.13,-10.138,-10.136,-10.105,-10.048,-10.008,-10.002,-10.001,-9.9944,-9.9944,-9.9923,-9.9737,-9.9273,-9.927,-9.9368,-9.9576,-9.9513,-9.9386,-9.9215,-9.9096,-9.9319,-9.9475,-9.9536,-9.931,-9.9238,-9.9223,-9.9347,-9.9432,-9.9671,-9.9629,-9.9278,-9.912,-9.9371,-9.9705,-9.981,-9.9572,-9.9355,-9.9181,-9.9106,-9.9374,-9.952,-9.9386,-9.9302,-9.9253,-9.9367,-9.9301,-9.9021,-9.8947,-9.9166,-9.9307,-9.9324,-9.9115,-9.8909,-9.8615,-9.8962,-9.9164,-9.9204,-9.9306,-9.9018,-9.8804,-9.8773,-9.8597,-9.856,-9.8529,-9.8675,-9.8614,-9.8792,-9.9087,-9.9272,-9.9144,-9.8978,-9.8969,-9.9397,-9.9624,-9.8971,-9.8419,-9.8218,-9.8439,-9.8736,-9.8896,-9.9316,-9.9561,-9.9175,-9.8528,-9.8226,-9.8325,-9.8603
