-18.705,-18.669,-18.642,-18.586,-18.552,-18.535,-18.555,-18.551,-18.57,-18.56,-18.558,-18.55,-18.554,-18.547,-18.553,-18.539,-18.535,-18.528,-18.548,-18.523,-18.511,-18.51,-18.521,-18.529,-18.517,-18.504,-18.488,-18.49,-18.488,-18.479,-18.456,-18.443,-18.442,-18.438,-18.429,-18.409,-18.399,-18.397,-18.389,-18.362,-18.36,-18.338,-18.333,-18.319,-18.296,-18.275,-18.257,-18.237,-18.227,-18.207,-18.175,-18.162,-18.152,-18.145,-18.139,-18.125,-18.114,-18.112,-18.113,-18.121,-18.115,-18.127,-18.135,-18.164,-18.198,-18.228,-18.244,-18.292,-18.343,-18.38,-18.414,-18.429,-18.47,-18.519,-18.546,-18.558,-18.569,-18.586,-18.604,-18.615,-18.617,-18.613,-18.613,-18.629,-18.636,-18.633,-18.627,-18.621,-18.623,-18.628,-18.629,-18.63,-18.62,-18.619,-18.619,-18.628,-18.617,-18.628,-18.623,-18.633,-18.619,-18.603,-18.609,-18.621,-18.621,-18.627,-18.623,-18.622,-18.614,-18.631,-18.629,-18.627,-18.612,-18.623,-18.639,-18.638,-18.629,-18.645,-18.649,-18.651,-18.65,-18.652,-18.658,-18.657,-18.668,-18.674,-18.674,-18.666,-18.674,-18.686,-18.679,-18.68,-18.682,-18.684,-18.691,-18.695,-18.689,-18.681,-18.691,-18.698,-18.7,-18.683,-18.673,-18.671,-18.675,-18.691,-18.683,-18.683,-18.686,-18.68,-18.69,-18.677,-18.674,-18.67,-18.672,-18.682,-18.671,-18.669,-18.669,-18.678,-18.689,-18.675,-18.667,-18.669,-18.666,-18.659,-18.654,-18.655,-18.658,-18.651,-18.658,-18.639,-18.623,-18.61,-18.596,-18.568,-18.566,-18.579,-18.602,-18.609,-18.612,-18.613,-18.618,-18.623,-18.627,-18.657,-18.668,-18.675,-18.682,-18.695,-18.704,-18.694,-18.686,-18.687,-18.694,-18.701,-18.699,-18.692,-18.696,-18.701,-18.703,-18.702,-18.694,-18.695,-18.71,-18.741,-18.796,-18.802,-18.7,-18.509,-18.259,-17.974,-17.583,-17.35,-17.386,-17.79,-18.238,-18.62,-18.812,-18.8,-18.752,-18.685,-18.635,-18.606,-18.638,-18.626,-18.649,-18.632,-18.636,-18.623,-18.638,-18.641,-18.626,-18.606,-18.617,-18.611,-18.62,-18.617,-18.608,-18.596,-18.605,-18.601,-18.592,-18.571,-18.574,-18.579,-18.59,-18.577,-18.561,-18.548,-18.553,-18.544,-18.545,-18.523,-18.506,-18.5,-18.493,-18.482,-18.463,-18.446,-18.429,-18.424,-18.401,-18.37,-18.358,-18.351,-18.345,-18.334,-18.305,-18.286,-18.269,-18.268,-18.251,-18.237,-18.223,-18.222,-18.218,-18.219,-18.223,-18.228,-18.246,-18.278,-18.314,-18.327,-18.339,-18.38,-18.417,-18.463,-18.494,-18.522,-18.559,-18.592,-18.608,-18.623,-18.623,-18.642,-18.663,-18.683,-18.686,-18.681,-18.685,-18.693,-18.699,-18.693,-18.697,-18.7,-18.697,-18.708,-18.697,-18.69,-18.687,-18.688,-18.7,-18.689,-18.668,-18.687,-18.677,-18.688,-18.692,-18.674,-18.672,-18.681,-18.683,-18.674,-18.677,-18.669,-18.67,-18.677,-18.68,-18.666,-18.667,-18.672,-18.684,-18.687,-18.677,-18.678,-18.686,-18.685,-18.686,-18.683,-18.685,-18.695,-18.697,-18.707,-18.702,-18.694,-18.694,-18.698,-18.699,-18.699,-18.693,-18.696,-18.697,-18.697,-18.682,-18.673,-18.673,-18.675,-18.664,-18.639,-18.611,-18.59,-18.594,-18.604,-18.61,-18.628,-18.637,-18.653,-18.66,-18.666,-18.678,-18.689,-18.714,-18.726,-18.713,-18.72,-18.727,-18.741,-18.738,-18.729,-18.726,-18.729,-18.736,-18.737,-18.73,-18.733,-18.725,-18.731,-18.746,-18.733,-18.732,-18.742,-18.794,-18.826,-18.85,-18.675,-18.431,-18.178,-17.855,-17.494,-17.359,-17.541,-17.987,-18.422,-18.796,-18.874,-18.842,-18.824,-18.752,-18.726,-18.681,-18.694,-18.675,-18.708,-18.689,-18.686,-18.681,-18.691,-18.67,-18.676,-18.653,-18.654,-18.641,-18.663,-18.641,-18.642,-18.619,-18.615,-18.61,-18.609,-18.601,-18.604,-18.58,-18.585,-18.582,-18.571,-18.55,-18.546,-18.538,-18.536,-18.515,-18.493,-18.491,-18.472,-18.465,-18.455,-18.43,-18.406,-18.399,-18.385,-18.365,-18.34,-18.315,-18.303,-18.291,-18.274,-18.259,-18.24,-18.238,-18.231,-18.216,-18.192,-18.198,-18.19,-18.211,-18.214,-18.228,-18.245,-18.274,-18.307,-18.349,-18.368,-18.402,-18.439,-18.479,-18.511,-18.542,-18.558,-18.586,-18.601,-18.622,-18.615,-18.619,-18.631,-18.657,-18.655,-18.654,-18.647,-18.648,-18.658,-18.667,-18.654,-18.654,-18.652,-18.659,-18.658,-18.653,-18.648,-18.646,-18.653,-18.654,-18.645,-18.641,-18.639,-18.637,-18.636,-18.648,-18.624,-18.625,-18.632,-18.634,-18.624,-18.616,-18.611,-18.618,-18.621,-18.612,-18.611,-18.602,-18.614,-18.618,-18.607,-18.605,-18.608,-18.613,-18.612,-18.613,-18.602,-18.602,-18.604,-18.609,-18.604,-18.593,-18.589,-18.594,-18.595,-18.606,-18.592,-18.592,-18.587,-18.59,-18.599,-18.581,-18.568,-18.564,-18.559,-18.552,-18.516,-18.486,-18.493,-18.507,-18.526,-18.539,-18.531,-18.543,-18.563,-18.562,-18.593,-18.603,-18.632,-18.625,-18.638,-18.643,-18.64,-18.628,-18.642,-18.648,-18.65,-18.644,-18.64,-18.655,-18.659,-18.659,-18.649,-18.66,-18.663,-18.663,-18.677,-18.723,-18.768,-18.707,-18.563,-18.33,-18.046,-17.704,-17.346,-17.28,-17.352,-17.756,-18.201,-18.597,-18.784,-18.773,-18.723,-18.649,-18.622,-18.593,-18.618,-18.601,-18.622,-18.606,-18.63,-18.609,-18.614,-18.608,-18.62,-18.608,-18.609,-18.581,-18.592,-18.589,-18.602,-18.582,-18.583,-18.575,-18.572,-18.572,-18.573,-18.539,-18.536,-18.543,-18.558,-18.527,-18.508,-18.504,-18.491,-18.48,-18.479,-18.463,-18.451,-18.44,-18.44,-18.426,-18.388,-18.366,-18.353,-18.328,-18.318,-18.29,-18.269,-18.253,-18.254,-18.238,-18.221,-18.202,-18.194,-18.189,-18.186,-18.181,-18.175,-18.179,-18.195,-18.224,-18.241,-18.266,-18.301,-18.346,-18.384,-18.424,-18.44,-18.475,-18.504,-18.536,-18.576,-18.593,-18.596,-18.621,-18.623,-18.636,-18.633,-18.631,-18.646,-18.659,-18.659,-18.659,-18.651,-18.662,-18.666,-18.664,-18.653,-18.655,-18.665,-18.667,-18.659,-18.657,-18.649,-18.658,-18.66,-18.66,-18.645,-18.652,-18.644,-18.653,-18.652,-18.656,-18.651,-18.64,-18.645,-18.659,-18.647,-18.633,-18.635,-18.64,-18.643,-18.654,-18.659,-18.659,-18.653,-18.65,-18.653,-18.66,-18.661,-18.672,-18.663,-18.67,-18.656,-18.656,-18.671,-18.68,-18.67,-18.667,-18.662,-18.672,-18.664,-18.668,-18.66,-18.668,-18.674,-18.673,-18.674,-18.663,-18.658,-18.662,-18.67,-18.661,-18.649,-18.636,-18.644,-18.646,-18.623,-18.592,-18.566,-18.571,-18.579,-18.583,-18.589,-18.603,-18.616,-18.631,-18.63,-18.634,-18.656,-18.668,-18.694,-18.698,-18.692,-18.69,-18.702,-18.705,-18.716,-18.713,-18.71,-18.703,-18.707,-18.712,-18.708,-18.715,-18.714,-18.714,-18.714,-18.716,-18.711,-18.752,-18.83,-18.808,-18.678,-18.468,-18.21,-17.919,-17.523,-17.326,-17.425,-17.866,-18.311,-18.689,-18.818,-18.792,-18.753,-18.709,-18.682,-18.629,-18.64,-18.634,-18.669,-18.656,-18.664,-18.617,-18.643,-18.63,-18.639,-18.617,-18.616,-18.61,-18.615,-18.6,-18.612,-18.589,-18.596,-18.585,-18.592,-18.575,-18.575,-18.559,-18.563,-18.559,-18.56,-18.534,-18.53,-18.528,-18.524,-18.506,-18.485,-18.465,-18.45,-18.458,-18.444,-18.425,-18.406,-18.404,-18.383,-18.366,-18.335,-18.31,-18.298,-18.282,-18.261,-18.252,-18.229,-18.22,-18.213,-18.203,-18.191,-18.177,-18.176,-18.206,-18.208,-18.221,-18.232,-18.248,-18.282,-18.32,-18.355,-18.392,-18.422,-18.466,-18.497,-18.525,-18.55,-18.57,-18.603,-18.621,-18.625,-18.625,-18.632,-18.654,-18.657,-18.658,-18.64,-18.649,-18.647,-18.657,-18.669,-18.661,-18.661,-18.672,-18.673,-18.668,-18.655,-18.652,-18.662,-18.679,-18.676,-18.664,-18.659,-18.66,-18.664,-18.659,-18.654,-18.654,-18.65,-18.66,-18.656,-18.649,-18.647,-18.653,-18.657,-18.665,-18.659,-18.656,-18.665,-18.673,-18.678,-18.674,-18.659,-18.675,-18.665,-18.68,-18.67,-18.68,-18.679,-18.687,-18.7,-18.7,-18.684,-18.691,-18.686,-18.691,-18.688,-18.676,-18.688,-18.69,-18.689,-18.688,-18.679,-18.679,-18.689,-18.686,-18.692,-18.662,-18.661,-18.675,-18.68,-18.688,-18.671,-18.666,-18.669,-18.67,-18.666,-18.666,-18.671,-18.661,-18.663,-18.658,-18.66,-18.658,-18.658,-18.659,-18.663,-18.66,-18.658,-18.66,-18.666,-18.671,-18.644,-18.642,-18.652,-18.663,-18.657,-18.629,-18.631,-18.634,-18.65,-18.646,-18.628,-18.624,-18.614,-18.619,-18.61,-18.558,-18.546,-18.558,-18.589,-18.606,-18.604,-18.591,-18.597,-18.622,-18.63,-18.638,-18.648,-18.667,-18.696,-18.699,-18.694,-18.68,-18.695,-18.696,-18.707,-18.699,-18.702,-18.709,-18.704,-18.711,-18.708,-18.702,-18.708,-18.711,-18.722,-18.719,-18.708,-18.737,-18.809,-18.819,-18.71,-18.498,-18.262,-17.991,-17.596,-17.297,-17.265,-17.487,-17.953,-18.374,-18.717,-18.806,-18.765,-18.708,-18.657,-18.632,-18.62,-18.639,-18.648,-18.647,-18.641,-18.635,-18.623,-18.625,-18.627,-18.627,-18.612,-18.601,-18.6,-18.601,-18.61,-18.596,-18.581,-18.589,-18.584,-18.581,-18.569,-18.56,-18.56,-18.564,-18.553,-18.541,-18.522,-18.528,-18.509,-18.511,-18.491,-18.481,-18.463,-18.462,-18.451,-18.433,-18.412,-18.396,-18.385,-18.38,-18.365,-18.336,-18.321,-18.309,-18.295,-18.262,-18.247,-18.235,-18.22,-18.218,-18.185,-18.187,-18.183,-18.184,-18.193,-18.193,-18.197,-18.214,-18.235,-18.285,-18.319,-18.348,-18.376,-18.415,-18.464,-18.496,-18.522,-18.557,-18.582,-18.613,-18.623,-18.622,-18.625,-18.648,-18.655,-18.662,-18.664,-18.652,-18.655,-18.678,-18.68,-18.67,-18.662,-18.665,-18.671,-18.667,-18.67,-18.665,-18.671,-18.672,-18.676,-18.669,-18.66,-18.658,-18.68,-18.663,-18.664,-18.657,-18.657,-18.659,-18.657,-18.653,-18.656,-18.67,-18.671,-18.671,-18.668,-18.663,-18.662,-18.67,-18.675,-18.677,-18.67,-18.679,-18.688,-18.687,-18.697,-18.678,-18.671,-18.685,-18.689,-18.687,-18.684,-18.698,-18.701,-18.705,-18.693,-18.686,-18.687,-18.705,-18.718,-18.71,-18.704,-18.699,-18.694,-18.701,-18.705,-18.698,-18.692,-18.693,-18.703,-18.704,-18.7,-18.692,-18.7,-18.705,-18.71,-18.694,-18.696,-18.698,-18.703,-18.713,-18.703,-18.691,-18.698,-18.711,-18.71,-18.706,-18.694,-18.704,-18.706,-18.704,-18.698,-18.692,-18.693,-18.698,-18.701,-18.697,-18.679,-18.683,-18.693,-18.682,-18.666,-18.648,-18.643,-18.631,-18.602,-18.586,-18.594,-18.626,-18.641,-18.636,-18.625,-18.633,-18.643,-18.663,-18.684,-18.681,-18.693,-18.697,-18.715,-18.713,-18.718,-18.711,-18.703,-18.708,-18.727,-18.714,-18.695,-18.717,-18.723,-18.718,-18.713,-18.713,-18.712,-18.72,-18.73,-18.729,-18.758,-18.81,-18.8,-18.666,-18.57,-18.336,-18.043,-17.703,-17.384,-17.328,-17.635,-18.102,-18.509,-18.819,-18.821,-18.771,-18.708,-18.647,-18.632,-18.639,-18.649,-18.636,-18.638,-18.646,-18.645,-18.627,-18.626,-18.631,-18.631,-18.624,-18.608,-18.601,-18.601,-18.596,-18.597,-18.596,-18.572,-18.577,-18.578,-18.565,-18.556,-18.563,-18.552,-18.54,-18.535,-18.537,-18.523,-18.51,-18.511,-18.503,-18.491,-18.454,-18.45,-18.444,-18.435,-18.417,-18.391,-18.375,-18.368,-18.346,-18.333,-18.305,-18.29,-18.271,-18.254,-18.253,-18.238,-18.234,-18.227,-18.206,-18.199,-18.191,-18.186,-18.193,-18.208,-18.224,-18.237,-18.267,-18.296,-18.339,-18.373,-18.391,-18.414,-18.464,-18.511,-18.526,-18.541,-18.572,-18.585,-18.607,-18.615,-18.627,-18.634,-18.641,-18.637,-18.65,-18.655,-18.643,-18.643,-18.641,-18.643,-18.655,-18.651,-18.648,-18.644,-18.644,-18.639,-18.633,-18.626,-18.628,-18.634,-18.632,-18.626,-18.629,-18.63,-18.628,-18.631,-18.629,-18.618,-18.62,-18.625,-18.63,-18.627,-18.624,-18.64,-18.64,-18.638,-18.638,-18.644,-18.639,-18.653,-18.651,-18.653,-18.655,-18.66,-18.682,-18.67,-18.661,-18.667,-18.687,-18.687,-18.678,-18.68,-18.692,-18.686,-18.685,-18.697,-18.678,-18.682,-18.685,-18.694,-18.703,-18.69,-18.688,-18.697,-18.695,-18.691,-18.686,-18.671,-18.679,-18.692,-18.69,-18.672,-18.672,-18.668,-18.66,-18.656,-18.623,-18.595,-18.575,-18.587,-18.604,-18.623,-18.62,-18.614,-18.623,-18.634,-18.632,-18.633,-18.657,-18.682,-18.691,-18.68,-18.683,-18.694,-18.697,-18.705,-18.699,-18.69,-18.685,-18.694,-18.706,-18.697,-18.69,-18.683,-18.693,-18.704,-18.702,-18.696,-18.693,-18.712,-18.777,-18.811,-18.731,-18.558,-18.325,-18.183,-17.889,-17.473,-17.316,-17.435,-17.884,-18.303,-18.682,-18.818,-18.787,-18.728,-18.67,-18.632,-18.615,-18.632,-18.631,-18.648,-18.626,-18.624,-18.624,-18.63,-18.615,-18.618,-18.598,-18.611,-18.606,-18.609,-18.599,-18.596,-18.585,-18.588,-18.576,-18.569,-18.563,-18.559,-18.551,-18.544,-18.538,-18.535,-18.524,-18.529,-18.513,-18.505,-18.487,-18.474,-18.469,-18.462,-18.448,-18.425,-18.407,-18.402,-18.38,-18.366,-18.34,-18.334,-18.295,-18.281,-18.265,-18.249,-18.247,-18.238,-18.232,-18.22,-18.213,-18.197,-18.199,-18.197,-18.202,-18.199,-18.218,-18.255,-18.285,-18.31,-18.335,-18.37,-18.414,-18.455,-18.491,-18.514,-18.545,-18.559,-18.59,-18.612,-18.616,-18.622,-18.64,-18.652,-18.657,-18.669,-18.664,-18.67,-18.683,-18.668,-18.669,-18.674,-18.685,-18.684,-18.683,-18.675,-18.668,-18.673,-18.694,-18.691,-18.672,-18.662,-18.666,-18.67,-18.676,-18.656,-18.651,-18.657,-18.651,-18.652,-18.664,-18.658,-18.654,-18.659,-18.649,-18.639,-18.642,-18.651,-18.656,-18.659,-18.657,-18.644,-18.651,-18.657,-18.67,-18.658,-18.654,-18.65,-18.662,-18.664,-18.662,-18.655,-18.656,-18.656,-18.667,-18.66,-18.653,-18.651,-18.655,-18.665,-18.662,-18.659,-18.66,-18.663,-18.676,-18.677,-18.668,-18.665,-18.671,-18.676,-18.671,-18.671,-18.671,-18.671,-18.673,-18.67,-18.65,-18.658,-18.663,-18.666,-18.649,-18.63,-18.626,-18.604,-18.582,-18.57,-18.567,-18.58,-18.603,-18.621,-18.617,-18.619,-18.624,-18.646,-18.671,-18.679,-18.694,-18.696,-18.693,-18.709,-18.706,-18.695,-18.692,-18.705,-18.712,-18.715,-18.707,-18.7,-18.705,-18.704,-18.713,-18.704,-18.696,-18.698,-18.718,-18.733,-18.778,-18.779,-18.748,-18.618,-18.4,-18.141,-17.825,-17.44,-17.321,-17.532,-17.981,-18.389,-18.736,-18.831,-18.793,-18.733,-18.647,-18.627,-18.614,-18.642,-18.636,-18.65,-18.629,-18.641,-18.632,-18.642,-18.626,-18.635,-18.615,-18.63,-18.612,-18.617,-18.594,-18.6,-18.594,-18.593,-18.578,-18.587,-18.584,-18.576,-18.557,-18.551,-18.536,-18.541,-18.531,-18.532,-18.516,-18.502,-18.483,-18.489,-18.475,-18.46,-18.435,-18.419,-18.411,-18.394,-18.377,-18.36,-18.352,-18.328,-18.3,-18.282,-18.264,-18.262,-18.251,-18.25,-18.232,-18.204,-18.199,-18.199,-18.197,-18.191,-18.182,-18.196,-18.231,-18.249,-18.275,-18.3,-18.34,-18.372,-18.416,-18.436,-18.476,-18.495,-18.533,-18.554,-18.577,-18.584,-18.608,-18.623,-18.642,-18.638,-18.628,-18.638,-18.651,-18.662,-18.662,-18.655,-18.646,-18.661,-18.673,-18.676,-18.66,-18.653,-18.658,-18.656,-18.659,-18.652,-18.657,-18.642,-18.646,-18.645,-18.637,-18.625,-18.635,-18.636,-18.637,-18.632,-18.632,-18.641,-18.656,-18.647,-18.638,-18.639,-18.643,-18.645,-18.644,-18.638,-18.647,-18.641,-18.657,-18.663,-18.652,-18.649,-18.643,-18.645,-18.659,-18.658,-18.659,-18.656,-18.674,-18.672,-18.659,-18.654,-18.661,-18.662,-18.666,-18.667,-18.659,-18.651,-18.663,-18.658,-18.666,-18.655,-18.655,-18.65,-18.654,-18.645,-18.648,-18.651,-18.656,-18.663,-18.659,-18.657,-18.653,-18.663,-18.659,-18.66,-18.65,-18.653,-18.659,-18.673,-18.657,-18.66,-18.654,-18.658,-18.671,-18.669,-18.66,-18.66,-18.649,-18.665,-18.661,-18.657,-18.663,-18.663,-18.663,-18.654,-18.654,-18.648,-18.639,-18.658,-18.657,-18.642,-18.635,-18.627,-18.62,-18.604,-18.575,-18.558,-18.574,-18.598,-18.603,-18.606,-18.601,-18.597,-18.615,-18.624,-18.625,-18.635,-18.649,-18.671,-18.68,-18.675,-18.666,-18.667,-18.669,-18.668,-18.666,-18.665,-18.665,-18.685,-18.684,-18.681,-18.675,-18.67,-18.662,-18.674,-18.672,-18.688,-18.742,-18.785,-18.713,-18.544,-18.301,-18.047,-17.7,-17.334,-17.252,-17.536,-17.999,-18.398,-18.733,-18.784,-18.759,-18.674,-18.608,-18.582,-18.577,-18.593,-18.588,-18.6,-18.596,-18.603,-18.586,-18.582,-18.576,-18.583,-18.573,-18.567,-18.555,-18.566,-18.567,-18.556,-18.545,-18.549,-18.523,-18.532,-18.53,-18.523,-18.508,-18.508,-18.504,-18.498,-18.478,-18.474,-18.467,-18.448,-18.447,-18.439,-18.413,-18.405,-18.393,-18.384,-18.375,-18.356,-18.338,-18.323,-18.311,-18.292,-18.27,-18.251,-18.237,-18.22,-18.201,-18.187,-18.172,-18.168,-18.164,-18.15,-18.135,-18.132,-18.132,-18.142,-18.148,-18.164,-18.192,-18.219,-18.26,-18.288,-18.327,-18.353,-18.391,-18.425,-18.465,-18.478,-18.515,-18.531,-18.556,-18.569,-18.563,-18.571,-18.585,-18.6,-18.601,-18.596,-18.601,-18.609,-18.605,-18.606,-18.603,-18.597,-18.61,-18.607,-18.597,-18.583,-18.592,-18.596,-18.595,-18.607,-18.602,-18.584,-18.589,-18.602,-18.597,-18.593,-18.6,-18.599,-18.593,-18.594,-18.596,-18.593,-18.591,-18.597,-18.601,-18.598,-18.594,-18.602,-18.602,-18.6,-18.594,-18.599,-18.599,-18.62,-18.627,-18.62,-18.618,-18.614,-18.621,-18.623,-18.618,-18.617,-18.612,-18.626,-18.635,-18.634,-18.626,-18.63,-18.633,-18.633,-18.644,-18.627,-18.632,-18.639,-18.635,-18.631,-18.629,-18.626,-18.624,-18.635,-18.641,-18.628,-18.63,-18.631,-18.647,-18.643,-18.636,-18.639,-18.638,-18.641,-18.641,-18.628,-18.632,-18.632,-18.634,-18.632,-18.642,-18.64,-18.646,-18.646,-18.651,-18.639,-18.637,-18.63,-18.628,-18.636,-18.632,-18.627,-18.635,-18.627,-18.62,-18.599,-18.585,-18.577,-18.56,-18.55,-18.545,-18.558,-18.583,-18.592,-18.598,-18.601,-18.593,-18.595,-18.616,-18.644,-18.649,-18.653,-18.66,-18.671,-18.677,-18.673,-18.669,-18.674,-18.678,-18.687,-18.684,-18.689,-18.691,-18.694,-18.692,-18.691,-18.68,-18.685,-18.694,-18.717,-18.756,-18.807,-18.775,-18.646,-18.437,-18.199,-17.908,-17.467,-17.275,-17.427,-17.626,-18.081,-18.485,-18.759,-18.814,-18.745,-18.691,-18.638,-18.642,-18.655,-18.655,-18.643,-18.662,-18.655,-18.667,-18.654,-18.643,-18.637,-18.648,-18.65,-18.647,-18.629,-18.632,-18.625,-18.625,-18.621,-18.623,-18.606,-18.603,-18.6,-18.594,-18.585,-18.578,-18.565,-18.561,-18.536,-18.53,-18.514,-18.518,-18.509,-18.501,-18.48,-18.462,-18.443,-18.42,-18.415,-18.397,-18.38,-18.363,-18.344,-18.327,-18.299,-18.265,-18.257,-18.255,-18.241,-18.215,-18.19,-18.175,-18.179,-18.181,-18.179,-18.174,-18.17,-18.17,-18.2,-18.215,-18.241,-18.267,-18.3,-18.342,-18.387,-18.416,-18.455,-18.493,-18.532,-18.559,-18.579,-18.59,-18.6,-18.6,-18.612,-18.628,-18.646,-18.635,-18.639,-18.643,-18.645,-18.643,-18.645,-18.653,-18.656,-18.648,-18.639,-18.643,-18.649,-18.65,-18.645,-18.636,-18.643,-18.646,-18.649,-18.638,-18.625,-18.624,-18.626,-18.628,-18.631,-18.636,-18.632,-18.622,-18.625,-18.622,-18.612,-18.614,-18.624,-18.628,-18.627,-18.627,-18.618,-18.626,-18.636,-18.633,-18.637,-18.641,-18.643,-18.647,-18.669,-18.664,-18.671,-18.686,-18.689,-18.696,-18.692,-18.704,-18.713,-18.717,-18.712,-18.713,-18.708,-18.72,-18.728,-18.733,-18.728,-18.733,-18.74,-18.748,-18.746,-18.735,-18.733,-18.745,-18.752,-18.749,-18.751,-18.748,-18.75,-18.755,-18.752,-18.732,-18.73,-18.752,-18.747,-18.747,-18.745,-18.733,-18.728,-18.743,-18.746,-18.736,-18.726,-18.73,-18.737,-18.728,-18.715,-18.709,-18.715,-18.718,-18.716,-18.689,-18.678,-18.678,-18.679,-18.655,-18.625,-18.619,-18.632,-18.65,-18.666,-18.658,-18.661,-18.665,-18.668,-18.679,-18.692,-18.704,-18.718,-18.723,-18.723,-18.723,-18.721,-18.724,-18.72,-18.716,-18.717,-18.71,-18.708,-18.716,-18.718,-18.717,-18.714,-18.707,-18.707,-18.723,-18.725,-18.76,-18.82,-18.773,-18.625,-18.396,-18.126,-17.828,-17.609,-17.381,-17.357,-17.748,-18.181,-18.588,-18.797,-18.815,-18.739,-18.68,-18.634,-18.628,-18.627,-18.634,-18.634,-18.63,-18.641,-18.637,-18.62,-18.619,-18.613,-18.616,-18.619,-18.61,-18.604,-18.595,-18.597,-18.595,-18.584,-18.571,-18.571,-18.575,-18.577,-18.567,-18.552,-18.549,-18.542,-18.54,-18.531,-18.518,-18.508,-18.495,-18.482,-18.468,-18.46,-18.445,-18.439,-18.434,-18.412,-18.397,-18.369,-18.347,-18.335,-18.324,-18.31,-18.297,-18.285,-18.266,-18.241,-18.215,-18.219,-18.216,-18.208,-18.206,-18.205,-18.189,-18.194,-18.205,-18.225,-18.238,-18.28,-18.305,-18.341,-18.374,-18.409,-18.442,-18.475,-18.514,-18.54,-18.562,-18.581,-18.591,-18.602,-18.617,-18.632,-18.629,-18.637,-18.644,-18.642,-18.642,-18.641,-18.642,-18.655,-18.659,-18.662,-18.649,-18.648,-18.649,-18.646,-18.645,-18.637,-18.638,-18.644,-18.643,-18.639,-18.629,-18.619,-18.637,-18.644,-18.645,-18.632,-18.626,-18.631,-18.628,-18.637,-18.624,-18.624,-18.637,-18.64,-18.641,-18.627,-18.628,-18.634,-18.642,-18.638,-18.637,-18.638,-18.633,-18.652,-18.66,-18.649,-18.649,-18.646,-18.658,-18.655,-18.641,-18.653,-18.655,-18.662,-18.66,-18.658,-18.658,-18.653,-18.667,-18.668,-18.661,-18.656,-18.656,-18.668,-18.662,-18.64,-18.641,-18.635,-18.638,-18.631,-18.622,-18.609,-18.579,-18.55,-18.555,-18.557,-18.58,-18.588,-18.597,-18.601,-18.61,-18.611,-18.627,-18.641,-18.657,-18.669,-18.672,-18.677,-18.679,-18.681,-18.674,-18.678,-18.676,-18.683,-18.682,-18.671,-18.673,-18.683,-18.687,-18.691,-18.675,-18.674,-18.681,-18.685,-18.726,-18.793,-18.776,-18.668,-18.461,-18.209,-17.911,-17.5,-17.298,-17.369,-17.79,-18.223,-18.605,-18.751,-18.763,-18.753,-18.677,-18.627,-18.586,-18.608,-18.612,-18.626,-18.601,-18.603,-18.594,-18.603,-18.596,-18.606,-18.582,-18.59,-18.579,-18.584,-18.57,-18.575,-18.559,-18.567,-18.545,-18.554,-18.543,-18.546,-18.528,-18.535,-18.517,-18.517,-18.509,-18.503,-18.502,-18.487,-18.466,-18.462,-18.46,-18.441,-18.422,-18.405,-18.39,-18.387,-18.372,-18.357,-18.334,-18.308,-18.305,-18.285,-18.264,-18.236,-18.224,-18.214,-18.206,-18.191,-18.192,-18.175,-18.177,-18.179,-18.17,-18.173,-18.18,-18.196,-18.225,-18.245,-18.275,-18.321,-18.367,-18.403,-18.442,-18.465,-18.495,-18.526,-18.564,-18.573,-18.576,-18.585,-18.602,-18.616,-18.62,-18.608,-18.613,-18.618,-18.631,-18.63,-18.633,-18.631,-18.628,-18.625,-18.633,-18.616,-18.62,-18.619,-18.628,-18.616,-18.615,-18.602,-18.611,-18.615,-18.617,-18.61,-18.613,-18.603,-18.601,-18.6,-18.598,-18.599,-18.6,-18.611,-18.608,-18.602,-18.601,-18.602,-18.606,-18.612,-18.608,-18.603,-18.611,-18.619,-18.619,-18.613,-18.615,-18.612,-18.621,-18.626,-18.625,-18.61,-18.621,-18.619,-18.626,-18.629,-18.629,-18.63,-18.629,-18.63,-18.635,-18.633,-18.625,-18.631,-18.627,-18.624,-18.622,-18.631,-18.631,-18.637,-18.635,-18.629,-18.628,-18.625,-18.639,-18.635,-18.633,-18.629,-18.624,-18.634,-18.633,-18.626,-18.626,-18.629,-18.632,-18.636,-18.626,-18.623,-18.633,-18.647,-18.633,-18.629,-18.617,-18.624,-18.632,-18.642,-18.632,-18.63,-18.624,-18.626,-18.623,-18.619,-18.606,-18.609,-18.608,-18.588,-18.577,-18.554,-18.528,-18.529,-18.534,-18.549,-18.553,-18.57,-18.589,-18.594,-18.592,-18.612,-18.62,-18.648,-18.655,-18.65,-18.649,-18.652,-18.658,-18.655,-18.656,-18.651,-18.649,-18.658,-18.661,-18.658,-18.647,-18.657,-18.66,-18.668,-18.673,-18.7,-18.751,-18.734,-18.615,-18.403,-18.145,-17.859,-17.451,-17.27,-17.398,-17.594,-18.044,-18.441,-18.726,-18.765,-18.69,-18.638,-18.582,-18.58,-18.579,-18.595,-18.583,-18.595,-18.588,-18.595,-18.58,-18.578,-18.571,-18.568,-18.574,-18.575,-18.563,-18.554,-18.547,-18.551,-18.546,-18.536,-18.534,-18.543,-18.527,-18.524,-18.509,-18.501,-18.499,-18.503,-18.487,-18.467,-18.459,-18.453,-18.446,-18.434,-18.426,-18.414,-18.403,-18.388,-18.367,-18.344,-18.335,-18.312,-18.298,-18.281,-18.257,-18.24,-18.231,-18.216,-18.199,-18.183,-18.175,-18.167,-18.158,-18.153,-18.146,-18.142,-18.151,-18.163,-18.176,-18.186,-18.206,-18.24,-18.28,-18.316,-18.346,-18.38,-18.424,-18.463,-18.491,-18.51,-18.536,-18.556,-18.579,-18.582,-18.583,-18.594,-18.596,-18.598,-18.609,-18.612,-18.614,-18.613,-18.612,-18.608,-18.607,-18.608,-18.61,-18.612,-18.612,-18.6,-18.6,-18.593,-18.598,-18.599,-18.601,-18.592,-18.592,-18.595,-18.593,-18.59,-18.591,-18.584,-18.591,-18.593,-18.594,-18.594,-18.587,-18.598,-18.602,-18.59,-18.592,-18.594,-18.603,-18.606,-18.599,-18.603,-18.6,-18.606,-18.609,-18.614,-18.613,-18.612,-18.618,-18.63,-18.618,-18.613,-18.617,-18.622,-18.624,-18.622,-18.62,-18.621,-18.63,-18.634,-18.636,-18.624,-18.629,-18.629,-18.632,-18.622,-18.613,-18.623,-18.624,-18.627,-18.623,-18.621,-18.626,-18.626,-18.63,-18.62,-18.628,-18.636,-18.633,-18.63,-18.631,-18.629,-18.628,-18.624,-18.631,-18.633,-18.625,-18.626,-18.624,-18.633,-18.635,-18.631,-18.63,-18.633,-18.638,-18.631,-18.629,-18.625,-18.631,-18.637,-18.638,-18.632,-18.628,-18.63,-18.632,-18.628,-18.618,-18.614,-18.616,-18.623,-18.616,-18.598,-18.585,-18.584,-18.568,-18.543,-18.521,-18.535,-18.562,-18.575,-18.579,-18.581,-18.577,-18.585,-18.59,-18.613,-18.622,-18.631,-18.642,-18.652,-18.662,-18.656,-18.65,-18.66,-18.663,-18.674,-18.665,-18.652,-18.663,-18.664,-18.663,-18.668,-18.655,-18.656,-18.666,-18.697,-18.755,-18.772,-18.674,-18.493,-18.257,-18.009,-17.629,-17.28,-17.305,-17.682,-18.139,-18.49,-18.731,-18.734,-18.693,-18.641,-18.582,-18.579,-18.587,-18.598,-18.604,-18.597,-18.597,-18.599,-18.601,-18.602,-18.588,-18.583,-18.571,-18.578,-18.574,-18.561,-18.559,-18.549,-18.544,-18.547,-18.542,-18.534,-18.52,-18.524,-18.514,-18.505,-18.499,-18.495,-18.492,-18.486,-18.474,-18.465,-18.446,-18.443,-18.431,-18.412,-18.395,-18.383,-18.371,-18.367,-18.347,-18.32,-18.299,-18.291,-18.286,-18.257,-18.226,-18.213,-18.196,-18.189,-18.177,-18.159,-18.153,-18.15,-18.157,-18.142,-18.14,-18.142,-18.17,-18.185,-18.21,-18.237,-18.263,-18.297,-18.339,-18.375,-18.413,-18.458,-18.486,-18.518,-18.54,-18.557,-18.582,-18.587,-18.601,-18.611,-18.611,-18.622,-18.624,-18.629,-18.642,-18.63,-18.627,-18.628,-18.634,-18.636,-18.635,-18.617,-18.63,-18.626,-18.626,-18.627,-18.619,-18.625,-18.623,-18.629,-18.615,-18.625,-18.618,-18.62,-18.626,-18.618,-18.62,-18.62,-18.632,-18.629,-18.637,-18.632,-18.632,-18.651,-18.656,-18.655,-18.646,-18.658,-18.671,-18.665,-18.667,-18.657,-18.658,-18.665,-18.662,-18.668,-18.667,-18.653,-18.663,-18.676,-18.671,-18.667,-18.662,-18.665,-18.659,-18.675,-18.661,-18.658,-18.672,-18.677,-18.678,-18.66,-18.653,-18.66,-18.672,-18.663,-18.655,-18.66,-18.673,-18.675,-18.678,-18.677,-18.675,-18.673,-18.682,-18.693,-18.691,-18.682,-18.686,-18.689,-18.685,-18.691,-18.691,-18.693,-18.697,-18.697,-18.688,-18.697,-18.691,-18.686,-18.694,-18.688,-18.685,-18.676,-18.678,-18.682,-18.682,-18.687,-18.69,-18.679,-18.681,-18.666,-18.642,-18.628,-18.619,-18.598,-18.601,-18.613,-18.636,-18.647,-18.629,-18.64,-18.654,-18.65,-18.671,-18.693,-18.71,-18.711,-18.707,-18.715,-18.727,-18.722,-18.715,-18.725,-18.725,-18.739,-18.729,-18.727,-18.711,-18.715,-18.715,-18.72,-18.704,-18.713,-18.736,-18.789,-18.828,-18.766,-18.61,-18.369,-18.099,-17.775,-17.411,-17.31,-17.394,-17.814,-18.254,-18.639,-18.819,-18.798,-18.75,-18.68,-18.634,-18.617,-18.634,-18.627,-18.645,-18.637,-18.637,-18.627,-18.636,-18.619,-18.624,-18.605,-18.609,-18.601,-18.616,-18.594,-18.6,-18.592,-18.589,-18.582,-18.586,-18.554,-18.56,-18.559,-18.569,-18.551,-18.543,-18.528,-18.523,-18.513,-18.497,-18.486,-18.485,-18.476,-18.466,-18.454,-18.434,-18.417,-18.397,-18.391,-18.383,-18.35,-18.336,-18.318,-18.301,-18.282,-18.256,-18.246,-18.238,-18.229,-18.215,-18.191,-18.187,-18.193,-18.191,-18.197,-18.186,-18.197,-18.22,-18.249,-18.275,-18.281,-18.312,-18.363,-18.407,-18.444,-18.47,-18.502,-18.528,-18.557,-18.582,-18.6,-18.602,-18.616,-18.624,-18.639,-18.633,-18.64,-18.649,-18.657,-18.649,-18.648,-18.643,-18.639,-18.649,-18.649,-18.638,-18.638,-18.635,-18.644,-18.638,-18.63,-18.625,-18.627,-18.626,-18.636,-18.623,-18.626,-18.618,-18.623,-18.627,-18.625,-18.625,-18.627,-18.611,-18.628,-18.623,-18.618,-18.625,-18.626,-18.628,-18.626,-18.629,-18.628,-18.626,-18.633,-18.639,-18.635,-18.635,-18.65,-18.648,-18.64,-18.637,-18.638,-18.644,-18.644,-18.648,-18.645,-18.646,-18.648,-18.649,-18.651,-18.654,-18.649,-18.643,-18.638,-18.633,-18.623,-18.623,-18.626,-18.633,-18.624,-18.578,-18.554,-18.539,-18.54,-18.556,-18.575,-18.583,-18.581,-18.603,-18.606,-18.608,-18.616,-18.632,-18.667,-18.672,-18.659,-18.664,-18.664,-18.676,-18.669,-18.672,-18.665,-18.667,-18.678,-18.667,-18.663,-18.667,-18.664,-18.673,-18.675,-18.68,-18.68,-18.717,-18.778,-18.752,-18.619,-18.406,-18.125,-17.815,-17.432,-17.289,-17.424,-17.874,-18.304,-18.686,-18.786,-18.741,-18.694,-18.643,-18.619,-18.582,-18.594,-18.588,-18.614,-18.606,-18.61,-18.575,-18.595,-18.585,-18.594,-18.579,-18.576,-18.559,-18.56,-18.559,-18.566,-18.553,-18.552,-18.547,-18.552,-18.531,-18.518,-18.51,-18.511,-18.497,-18.499,-18.496,-18.491,-18.486,-18.48,-18.455,-18.439,-18.426,-18.419,-18.412,-18.4,-18.38,-18.366,-18.342,-18.33,-18.306,-18.283,-18.277,-18.264,-18.254,-18.239,-18.216,-18.189,-18.191,-18.19,-18.179,-18.169,-18.159,-18.165,-18.173,-18.18,-18.195,-18.204,-18.233,-18.282,-18.315,-18.35,-18.37,-18.398,-18.442,-18.475,-18.492,-18.512,-18.544,-18.57,-18.592,-18.598,-18.602,-18.607,-18.625,-18.619,-18.627,-18.621,-18.624,-18.633,-18.641,-18.627,-18.625,-18.616,-18.615,-18.614,-18.624,-18.623,-18.625,-18.622,-18.629,-18.617,-18.609,-18.6,-18.604,-18.606,-18.603,-18.595,-18.601,-18.603,-18.611,-18.599,-18.595,-18.586,-18.599,-18.605,-18.597,-18.596,-18.597,-18.605,-18.617,-18.61,-18.606,-18.593,-18.611,-18.617,-18.62,-18.62,-18.612,-18.62,-18.617,-18.618,-18.62,-18.616,-18.623,-18.627,-18.63,-18.63,-18.617,-18.619,-18.635,-18.635,-18.623,-18.619,-18.63,-18.635,-18.637,-18.63,-18.612,-18.615,-18.623,-18.615,-18.591,-18.593,-18.577,-18.56,-18.543,-18.526,-18.531,-18.551,-18.58,-18.58,-18.583,-18.585,-18.593,-18.624,-18.627,-18.651,-18.651,-18.651,-18.655,-18.667,-18.664,-18.66,-18.66,-18.662,-18.666,-18.667,-18.664,-18.666,-18.672,-18.67,-18.676,-18.667,-18.665,-18.683,-18.752,-18.787,-18.703,-18.532,-18.29,-18.025,-17.66,-17.436,-17.272,-17.38,-17.838,-18.267,-18.644,-18.766,-18.759,-18.698,-18.649,-18.613,-18.606,-18.603,-18.604,-18.614,-18.607,-18.619,-18.614,-18.623,-18.609,-18.604,-18.594,-18.588,-18.589,-18.592,-18.58,-18.578,-18.571,-18.568,-18.576,-18.563,-18.548,-18.54,-18.539,-18.543,-18.527,-18.511,-18.51,-18.506,-18.5,-18.497,-18.482,-18.464,-18.452,-18.447,-18.43,-18.405,-18.39,-18.379,-18.358,-18.347,-18.319,-18.311,-18.296,-18.278,-18.258,-18.237,-18.212,-18.203,-18.195,-18.188,-18.168,-18.161,-18.169,-18.174,-18.179,-18.185,-18.194,-18.218,-18.258,-18.283,-18.302,-18.349,-18.393,-18.433,-18.465,-18.485,-18.514,-18.536,-18.571,-18.589,-18.593,-18.599,-18.61,-18.621,-18.632,-18.623,-18.629,-18.632,-18.648,-18.65,-18.643,-18.629,-18.634,-18.64,-18.644,-18.635,-18.629,-18.636,-18.633,-18.636,-18.629,-18.616,-18.613,-18.617,-18.628,-18.624,-18.619,-18.63,-18.629,-18.624,-18.619,-18.616,-18.614,-18.624,-18.627,-18.633,-18.632,-18.627,-18.628,-18.64,-18.641,-18.634,-18.636,-18.641,-18.64,-18.629,-18.635,-18.631,-18.646,-18.652,-18.65,-18.639,-18.649,-18.649,-18.654,-18.655,-18.644,-18.647,-18.649,-18.653,-18.649,-18.651,-18.641,-18.643,-18.661,-18.651,-18.64,-18.638,-18.639,-18.638,-18.65,-18.657,-18.646,-18.644,-18.656,-18.647,-18.638,-18.638,-18.634,-18.646,-18.65,-18.64,-18.63,-18.643,-18.645,-18.643,-18.643,-18.651,-18.654,-18.649,-18.65,-18.651,-18.643,-18.649,-18.65,-18.653,-18.649,-18.639,-18.657,-18.651,-18.646,-18.638,-18.64,-18.634,-18.633,-18.644,-18.653,-18.645,-18.647,-18.647,-18.651,-18.644,-18.632,-18.638,-18.634,-18.611,-18.605,-18.591,-18.561,-18.541,-18.558,-18.568,-18.58,-18.591,-18.591,-18.597,-18.608,-18.601,-18.612,-18.637,-18.654,-18.667,-18.663,-18.664,-18.672,-18.684,-18.684,-18.679,-18.674,-18.676,-18.677,-18.683,-18.679,-18.684,-18.686,-18.697,-18.681,-18.681,-18.712,-18.773,-18.762,-18.647,-18.439,-18.205,-17.941,-17.523,-17.274,-17.347,-17.741,-18.189,-18.561,-18.717,-18.755,-18.714,-18.65,-18.612,-18.599,-18.61,-18.593,-18.606,-18.601,-18.623,-18.599,-18.605,-18.594,-18.594,-18.584,-18.586,-18.567,-18.571,-18.566,-18.574,-18.563,-18.555,-18.547,-18.54,-18.53,-18.536,-18.523,-18.513,-18.502,-18.5,-18.482,-18.485,-18.471,-18.475,-18.463,-18.461,-18.435,-18.421,-18.411,-18.409,-18.394,-18.373,-18.348,-18.338,-18.327,-18.312,-18.29,-18.27,-18.26,-18.234,-18.218,-18.199,-18.186,-18.17,-18.161,-18.15,-18.151,-18.14,-18.145,-18.142,-18.155,-18.155,-18.167,-18.192,-18.237,-18.259,-18.296,-18.332,-18.37,-18.413,-18.447,-18.464,-18.498,-18.515,-18.546,-18.571,-18.577,-18.578,-18.579,-18.584,-18.603,-18.603,-18.6,-18.605,-18.613,-18.613,-18.619,-18.594,-18.598,-18.606,-18.607,-18.604,-18.594,-18.592,-18.592,-18.596,-18.595,-18.584,-18.585,-18.587,-18.59,-18.587,-18.589,-18.589,-18.588,-18.587,-18.587,-18.581,-18.586,-18.586,-18.589,-18.592,-18.581,-18.579,-18.584,-18.591,-18.592,-18.585,-18.594,-18.594,-18.597,-18.602,-18.595,-18.595,-18.603,-18.605,-18.607,-18.603,-18.605,-18.598,-18.602,-18.606,-18.605,-18.605,-18.618,-18.622,-18.623,-18.609,-18.611,-18.615,-18.614,-18.62,-18.614,-18.608,-18.611,-18.605,-18.604,-18.612,-18.601,-18.599,-18.612,-18.607,-18.614,-18.61,-18.616,-18.622,-18.618,-18.614,-18.608,-18.609,-18.621,-18.629,-18.62,-18.613,-18.615,-18.618,-18.622,-18.616,-18.611,-18.611,-18.62,-18.628,-18.612,-18.606,-18.601,-18.61,-18.609,-18.599,-18.591,-18.579,-18.578,-18.574,-18.553,-18.516,-18.507,-18.52,-18.558,-18.572,-18.546,-18.562,-18.575,-18.589,-18.593,-18.608,-18.614,-18.647,-18.647,-18.651,-18.644,-18.636,-18.642,-18.656,-18.656,-18.651,-18.651,-18.651,-18.662,-18.66,-18.65,-18.657,-18.664,-18.665,-18.664,-18.664,-18.697,-18.768,-18.746,-18.63,-18.409,-18.158,-18.022,-17.689,-17.311,-17.256,-17.553,-18.022,-18.418,-18.718,-18.751,-18.681,-18.627,-18.582,-18.579,-18.594,-18.592,-18.598,-18.6,-18.61,-18.591,-18.588,-18.592,-18.594,-18.586,-18.577,-18.574,-18.579,-18.568,-18.569,-18.559,-18.552,-18.552,-18.556,-18.556,-18.549,-18.541,-18.535,-18.535,-18.525,-18.508,-18.501,-18.496,-18.487,-18.485,-18.477,-18.454,-18.436,-18.435,-18.432,-18.423,-18.392,-18.373,-18.366,-18.353,-18.337,-18.307,-18.29,-18.273,-18.257,-18.241,-18.219,-18.213,-18.21,-18.214,-18.194,-18.174,-18.164,-18.173,-18.18,-18.2,-18.196,-18.221,-18.248,-18.285,-18.315,-18.35,-18.393,-18.431,-18.473,-18.494,-18.516,-18.549,-18.568,-18.592,-18.616,-18.621,-18.633,-18.646,-18.654,-18.655,-18.65,-18.657,-18.656,-18.655,-18.659,-18.658,-18.657,-18.66,-18.662,-18.66,-18.654,-18.648,-18.652,-18.662,-18.648,-18.644,-18.644,-18.648,-18.651,-18.653,-18.638,-18.632,-18.637,-18.643,-18.642,-18.638,-18.632,-18.648,-18.645,-18.644,-18.635,-18.64,-18.633,-18.631,-18.642,-18.651,-18.644,-18.642,-18.653,-18.66,-18.668,-18.648,-18.651,-18.657,-18.665,-18.673,-18.665,-18.664,-18.662,-18.674,-18.672,-18.663,-18.664,-18.669,-18.68,-18.679,-18.677,-18.67,-18.672,-18.671,-18.669,-18.665,-18.66,-18.665,-18.663,-18.67,-18.663,-18.67,-18.673,-18.673,-18.674,-18.673,-18.676,-18.67,-18.664,-18.679,-18.676,-18.666,-18.679,-18.679,-18.677,-18.675,-18.673,-18.669,-18.667,-18.658,-18.65,-18.662,-18.658,-18.662,-18.646,-18.633,-18.615,-18.603,-18.576,-18.572,-18.583,-18.599,-18.61,-18.609,-18.619,-18.632,-18.631,-18.642,-18.657,-18.677,-18.696,-18.681,-18.692,-18.692,-18.696,-18.69,-18.686,-18.68,-18.697,-18.702,-18.706,-18.694,-18.699,-18.694,-18.705,-18.694,-18.692,-18.69,-18.694,-18.731,-18.794,-18.806,-18.697,-18.504,-18.26,-17.966,-17.565,-17.4,-17.32,-17.53,-18.004,-18.396,-18.754,-18.806,-18.767,-18.709,-18.65,-18.612,-18.626,-18.633,-18.639,-18.632,-18.628,-18.623,-18.629,-18.628,-18.618,-18.611,-18.614,-18.619,-18.619,-18.607,-18.594,-18.586,-18.59,-18.583,-18.585,-18.581,-18.568,-18.569,-18.566,-18.554,-18.54,-18.545,-18.537,-18.524,-18.508,-18.503,-18.489,-18.488,-18.479,-18.472,-18.456,-18.429,-18.42,-18.407,-18.389,-18.367,-18.35,-18.342,-18.321,-18.295,-18.286,-18.279,-18.258,-18.245,-18.228,-18.217,-18.208,-18.21,-18.209,-18.207,-18.202,-18.213,-18.236,-18.251,-18.27,-18.299,-18.327,-18.362,-18.406,-18.445,-18.464,-18.501,-18.525,-18.562,-18.587,-18.595,-18.605,-18.63,-18.641,-18.647,-18.645,-18.648,-18.652,-18.665,-18.668,-18.655,-18.659,-18.652,-18.662,-18.662,-18.653,-18.661,-18.652,-18.645,-18.64,-18.64,-18.643,-18.645,-18.646,-18.647,-18.64,-18.634,-18.632,-18.639,-18.631,-18.631,-18.622,-18.624,-18.629,-18.636,-18.633,-18.622,-18.625,-18.633,-18.64,-18.635,-18.633,-18.632,-18.636,-18.638,-18.641,-18.632,-18.637,-18.636,-18.646,-18.647,-18.643,-18.636,-18.649,-18.65,-18.648,-18.648,-18.65,-18.653,-18.653,-18.655,-18.657,-18.644,-18.641,-18.651,-18.654,-18.647,-18.646,-18.649,-18.653,-18.655,-18.637,-18.64,-18.64,-18.642,-18.653,-18.634,-18.639,-18.616,-18.622,-18.604,-18.58,-18.553,-18.559,-18.585,-18.602,-18.605,-18.587,-18.598,-18.613,-18.624,-18.619,-18.64,-18.649,-18.675,-18.684,-18.683,-18.682,-18.679,-18.684,-18.696,-18.687,-18.682,-18.674,-18.693,-18.689,-18.683,-18.684,-18.684,-18.695,-18.702,-18.701,-18.709,-18.764,-18.807,-18.732,-18.571,-18.329,-18.032,-17.694,-17.365,-17.278,-17.378,-17.806,-18.248,-18.653,-18.818,-18.778,-18.723,-18.66,-18.636,-18.602,-18.619,-18.622,-18.63,-18.623,-18.636,-18.612,-18.624,-18.614,-18.62,-18.609,-18.608,-18.586,-18.595,-18.588,-18.604,-18.583,-18.585,-18.573,-18.575,-18.561,-18.565,-18.555,-18.545,-18.543,-18.537,-18.532,-18.526,-18.514,-18.511,-18.493,-18.487,-18.47,-18.461,-18.45,-18.439,-18.418,-18.391,-18.38,-18.365,-18.35,-18.329,-18.306,-18.281,-18.277,-18.265,-18.248,-18.226,-18.22,-18.21,-18.208,-18.196,-18.187,-18.183,-18.197,-18.205,-18.225,-18.232,-18.268,-18.29,-18.334,-18.362,-18.397,-18.431,-18.479,-18.512,-18.541,-18.56,-18.582,-18.601,-18.622,-18.62,-18.625,-18.636,-18.647,-18.66,-18.657,-18.65,-18.652,-18.657,-18.662,-18.666,-18.658,-18.654,-18.662,-18.658,-18.664,-18.648,-18.65,-18.649,-18.655,-18.653,-18.646,-18.637,-18.647,-18.646,-18.634,-18.629,-18.626,-18.621,-18.64,-18.641,-18.631,-18.632,-18.632,-18.63,-18.632,-18.626,-18.626,-18.631,-18.64,-18.631,-18.637,-18.639,-18.635,-18.644,-18.647,-18.639,-18.643,-18.647,-18.651,-18.658,-18.649,-18.65,-18.654,-18.655,-18.659,-18.655,-18.643,-18.647,-18.65,-18.658,-18.655,-18.648,-18.652,-18.655,-18.653,-18.658,-18.653,-18.651,-18.656,-18.655,-18.653,-18.649,-18.651,-18.659,-18.659,-18.66,-18.659,-18.661,-18.662,-18.661,-18.659,-18.661,-18.649,-18.648,-18.665,-18.665,-18.66,-18.663,-18.649,-18.649,-18.644,-18.629,-18.617,-18.621,-18.601,-18.588,-18.551,-18.546,-18.565,-18.583,-18.589,-18.591,-18.592,-18.606,-18.615,-18.615,-18.626,-18.644,-18.683,-18.69,-18.683,-18.679,-18.674,-18.673,-18.684,-18.687,-18.68,-18.69,-18.687,-18.697,-18.699,-18.691,-18.685,-18.686,-18.687,-18.701,-18.741,-18.788,-18.768,-18.653,-18.441,-18.193,-17.9,-17.495,-17.297,-17.404,-17.819,-18.261,-18.638,-18.796,-18.781,-18.743,-18.669,-18.63,-18.614,-18.638,-18.627,-18.635,-18.624,-18.63,-18.621,-18.625,-18.616,-18.63,-18.618,-18.621,-18.608,-18.606,-18.599,-18.603,-18.588,-18.594,-18.581,-18.574,-18.572,-18.57,-18.565,-18.552,-18.54,-18.55,-18.546,-18.539,-18.504,-18.504,-18.498,-18.489,-18.482,-18.46,-18.446,-18.43,-18.424,-18.411,-18.392,-18.37,-18.354,-18.346,-18.324,-18.301,-18.28,-18.265,-18.261,-18.245,-18.224,-18.209,-18.206,-18.202,-18.199,-18.178,-18.182,-18.184,-18.202,-18.207,-18.225,-18.246,-18.285,-18.332,-18.367,-18.399,-18.434,-18.471,-18.511,-18.535,-18.555,-18.57,-18.587,-18.605,-18.624,-18.627,-18.634,-18.633,-18.644,-18.648,-18.654,-18.647,-18.645,-18.645,-18.65,-18.646,-18.646,-18.648,-18.648,-18.648,-18.644,-18.635,-18.631,-18.634,-18.642,-18.635,-18.631,-18.631,-18.636,-18.635,-18.63,-18.627,-18.626,-18.629,-18.643,-18.633,-18.635,-18.622,-18.624,-18.627,-18.633,-18.622,-18.631,-18.631,-18.641,-18.642,-18.634,-18.635,-18.631,-18.637,-18.635,-18.627,-18.637,-18.641,-18.639,-18.64,-18.631,-18.634,-18.633,-18.644,-18.647,-18.638,-18.636,-18.634,-18.643,-18.638,-18.619,-18.622,-18.636,-18.641,-18.642,-18.638,-18.641,-18.639,-18.648,-18.643,-18.64,-18.638,-18.63,-18.633,-18.642,-18.636,-18.629,-18.639,-18.638,-18.642,-18.636,-18.636,-18.633,-18.646,-18.64,-18.63,-18.632,-18.636,-18.629,-18.641,-18.635,-18.629,-18.631,-18.642,-18.635,-18.645,-18.637,-18.625,-18.63,-18.642,-18.633,-18.625,-18.629,-18.632,-18.628,-18.623,-18.62,-18.623,-18.62,-18.596,-18.584,-18.586,-18.557,-18.522,-18.527,-18.54,-18.564,-18.563,-18.568,-18.568,-18.58,-18.582,-18.579,-18.609,-18.613,-18.637,-18.644,-18.639,-18.64,-18.642,-18.647,-18.646,-18.648,-18.643,-18.649,-18.654,-18.635,-18.645,-18.635,-18.644,-18.653,-18.642,-18.651,-18.685,-18.718,-18.739,-18.634,-18.433,-18.198,-17.94,-17.545,-17.26,-17.272,-17.649,-18.118,-18.498,-18.734,-18.714,-18.649,-18.589,-18.564,-18.557,-18.566,-18.562,-18.57,-18.555,-18.569,-18.566,-18.559,-18.543,-18.546,-18.545,-18.539,-18.52,-18.526,-18.517,-18.531,-18.509,-18.506,-18.519,-18.507,-18.501,-18.478,-18.467,-18.469,-18.474,-18.475,-18.458,-18.442,-18.434,-18.433,-18.431,-18.404,-18.391,-18.389,-18.364,-18.358,-18.343,-18.315,-18.305,-18.297,-18.268,-18.249,-18.237,-18.21,-18.199,-18.185,-18.167,-18.136,-18.141,-18.129,-18.111,-18.1,-18.088,-18.074,-18.089,-18.095,-18.089,-18.101,-18.126,-18.148,-18.183,-18.216,-18.248,-18.291
