18.378,18.377,18.379,18.379,18.377,18.381,18.383,18.388,18.381,18.388,18.391,18.388,18.387,18.387,18.387,18.384,18.386,18.377,18.371,18.371,18.373,18.374,18.371,18.365,18.362,18.361,18.357,18.364,18.367,18.354,18.361,18.358,18.36,18.363,18.352,18.358,18.351,18.357,18.353,18.353,18.351,18.35,18.351,18.349,18.351,18.349,18.358,18.355,18.35,18.354,18.346,18.346,18.349,18.346,18.345,18.344,18.348,18.351,18.346,18.348,18.351,18.349,18.353,18.357,18.356,18.347,18.348,18.358,18.359,18.353,18.348,18.345,18.346,18.347,18.356,18.345,18.343,18.356,18.36,18.359,18.362,18.372,18.389,18.391,18.389,18.393,18.408,18.436,18.456,18.443,18.43,18.424,18.413,18.405,18.406,18.4,18.393,18.366,18.338,18.335,18.321,18.326,18.325,18.328,18.325,18.323,18.325,18.325,18.328,18.328,18.33,18.331,18.33,18.314,18.295,18.29,18.329,18.469,18.587,18.805,19.035,19.188,19.019,18.776,18.633,18.452,18.223,18.15,18.175,18.174,18.27,18.32,18.396,18.404,18.428,18.424,18.433,18.426,18.437,18.441,18.453,18.46,18.457,18.453,18.467,18.462,18.475,18.484,18.493,18.497,18.503,18.496,18.502,18.51,18.522,18.528,18.537,18.551,18.557,18.565,18.582,18.597,18.609,18.627,18.65,18.685,18.692,18.711,18.731,18.754,18.776,18.794,18.807,18.825,18.842,18.844,18.85,18.856,18.857,18.854,18.846,18.837,18.815,18.779,18.748,18.71,18.674,18.639,18.603,18.59,18.559,18.524,18.481,18.455,18.449,18.433,18.424,18.41,18.398,18.391,18.39,18.387,18.376,18.375,18.374,18.383,18.377,18.374,18.367,18.365,18.36,18.366,18.361,18.36,18.365,18.365,18.359,18.364,18.36,18.368,18.368,18.375,18.369,18.371,18.371,18.368,18.374,18.376,18.376,18.382,18.375,18.378,18.38,18.384,18.389,18.393,18.395,18.391,18.397,18.399,18.41,18.405,18.399,18.403,18.397,18.404,18.403,18.41,18.403,18.408,18.407,18.399,18.406,18.402,18.395,18.399,18.403,18.395,18.393,18.389,18.389,18.395,18.397,18.397,18.392,18.396,18.4,18.4,18.401,18.402,18.4,18.395,18.4,18.401,18.398,18.389,18.391,18.394,18.398,18.394,18.399,18.394,18.4,18.399,18.396,18.4,18.401,18.397,18.396,18.4,18.398,18.398,18.401,18.4,18.389,18.397,18.403,18.405,18.4,18.403,18.399,18.4,18.406,18.402,18.405,18.406,18.412,18.41,18.41,18.405,18.409,18.399,18.402,18.409,18.406,18.412,18.412,18.407,18.413,18.413,18.402,18.406,18.415,18.413,18.423,18.426,18.428,18.446,18.451,18.447,18.46,18.482,18.508,18.522,18.511,18.498,18.488,18.478,18.472,18.471,18.47,18.45,18.424,18.403,18.399,18.403,18.401,18.4,18.397,18.401,18.406,18.408,18.399,18.397,18.4,18.405,18.399,18.394,18.388,18.361,18.351,18.386,18.528,18.767,18.887,19.091,19.251,19.069,18.828,18.672,18.516,18.272,18.226,18.23,18.244,18.321,18.372,18.429,18.461,18.478,18.474,18.479,18.486,18.487,18.498,18.499,18.506,18.513,18.514,18.517,18.519,18.524,18.529,18.536,18.547,18.556,18.559,18.564,18.571,18.572,18.583,18.593,18.596,18.606,18.63,18.645,18.666,18.683,18.7,18.711,18.734,18.756,18.777,18.795,18.816,18.845,18.855,18.867,18.882,18.904,18.911,18.918,18.92,18.926,18.927,18.914,18.895,18.873,18.849,18.813,18.776,18.735,18.701,18.663,18.622,18.597,18.563,18.539,18.511,18.495,18.489,18.48,18.462,18.451,18.439,18.431,18.428,18.429,18.43,18.423,18.414,18.412,18.409,18.407,18.405,18.406,18.407,18.403,18.408,18.41,18.406,18.403,18.395,18.404,18.405,18.41,18.408,18.414,18.416,18.421,18.421,18.425,18.424,18.426,18.425,18.435,18.437,18.43,18.437,18.439,18.446,18.45,18.451,18.449,18.455,18.454,18.459,18.466,18.465,18.462,18.467,18.471,18.468,18.463,18.464,18.465,18.467,18.466,18.471,18.462,18.462,18.464,18.458,18.462,18.458,18.456,18.454,18.464,18.466,18.462,18.459,18.459,18.467,18.466,18.462,18.461,18.459,18.457,18.454,18.456,18.461,18.458,18.465,18.461,18.46,18.459,18.461,18.463,18.471,18.466,18.457,18.467,18.474,18.474,18.467,18.468,18.47,18.472,18.472,18.469,18.468,18.466,18.469,18.473,18.473,18.469,18.468,18.472,18.478,18.479,18.478,18.487,18.483,18.479,18.48,18.477,18.476,18.485,18.488,18.489,18.484,18.484,18.485,18.486,18.488,18.486,18.485,18.491,18.492,18.498,18.497,18.493,18.501,18.505,18.511,18.522,18.535,18.535,18.538,18.557,18.566,18.593,18.606,18.588,18.58,18.571,18.561,18.551,18.555,18.55,18.537,18.503,18.491,18.488,18.485,18.478,18.475,18.473,18.478,18.483,18.478,18.482,18.479,18.48,18.481,18.479,18.48,18.467,18.439,18.424,18.468,18.532,18.722,18.959,19.172,19.331,19.166,18.907,18.757,18.6,18.362,18.307,18.329,18.333,18.417,18.473,18.54,18.564,18.583,18.59,18.593,18.588,18.593,18.597,18.608,18.613,18.617,18.624,18.631,18.637,18.649,18.651,18.661,18.668,18.676,18.681,18.69,18.695,18.701,18.705,18.719,18.733,18.749,18.762,18.783,18.804,18.827,18.843,18.864,18.886,18.911,18.937,18.963,18.985,19.012,19.042,19.068,19.091,19.09,19.114,19.131,19.143,19.152,19.151,19.149,19.144,19.126,19.102,19.073,19.04,19.006,18.968,18.933,18.899,18.871,18.837,18.811,18.799,18.774,18.754,18.74,18.728,18.721,18.711,18.701,18.698,18.696,18.693,18.692,18.686,18.682,18.682,18.676,18.675,18.671,18.675,18.675,18.677,18.675,18.681,18.673,18.671,18.669,18.674,18.675,18.676,18.677,18.68,18.685,18.682,18.685,18.695,18.7,18.703,18.703,18.708,18.709,18.712,18.711,18.714,18.712,18.713,18.716,18.715,18.717,18.722,18.721,18.715,18.721,18.715,18.71,18.708,18.704,18.702,18.703,18.701,18.699,18.699,18.696,18.691,18.688,18.691,18.693,18.69,18.686,18.683,18.682,18.678,18.679,18.678,18.677,18.677,18.675,18.678,18.678,18.68,18.67,18.667,18.664,18.664,18.664,18.664,18.663,18.657,18.657,18.655,18.653,18.655,18.657,18.656,18.65,18.651,18.655,18.657,18.651,18.651,18.652,18.654,18.661,18.657,18.658,18.659,18.663,18.659,18.659,18.654,18.651,18.65,18.662,18.656,18.654,18.652,18.65,18.656,18.656,18.654,18.646,18.649,18.648,18.649,18.653,18.664,18.672,18.682,18.678,18.687,18.7,18.727,18.741,18.734,18.729,18.722,18.713,18.697,18.696,18.683,18.682,18.664,18.639,18.629,18.619,18.611,18.614,18.613,18.608,18.604,18.602,18.598,18.601,18.598,18.607,18.604,18.603,18.595,18.582,18.559,18.547,18.622,18.815,19.041,19.275,19.427,19.271,19.03,18.85,18.672,18.488,18.477,18.501,18.455,18.452,18.511,18.572,18.625,18.663,18.675,18.683,18.674,18.686,18.684,18.702,18.705,18.71,18.709,18.719,18.722,18.731,18.734,18.733,18.732,18.747,18.758,18.763,18.765,18.773,18.777,18.784,18.789,18.798,18.811,18.822,18.844,18.855,18.869,18.895,18.921,18.931,18.943,18.965,18.982,19.009,19.027,19.042,19.059,19.069,19.082,19.089,19.091,19.099,19.102,19.09,19.085,19.067,19.036,19.02,18.986,18.953,18.914,18.884,18.838,18.804,18.774,18.749,18.716,18.687,18.671,18.658,18.653,18.642,18.638,18.627,18.622,18.624,18.617,18.615,18.614,18.602,18.618,18.618,18.607,18.596,18.599,18.596,18.595,18.589,18.592,18.593,18.594,18.594,18.59,18.592,18.596,18.595,18.596,18.592,18.595,18.597,18.603,18.597,18.589,18.589,18.596,18.597,18.593,18.593,18.593,18.59,18.591,18.59,18.597,18.596,18.593,18.586,18.586,18.584,18.579,18.58,18.581,18.575,18.573,18.573,18.567,18.577,18.572,18.563,18.556,18.563,18.557,18.559,18.552,18.551,18.548,18.548,18.556,18.556,18.549,18.553,18.56,18.562,18.561,18.56,18.558,18.56,18.566,18.563,18.56,18.56,18.57,18.572,18.577,18.572,18.575,18.581,18.592,18.593,18.603,18.624,18.624,18.613,18.616,18.62,18.631,18.649,18.655,18.64,18.641,18.631,18.627,18.625,18.619,18.617,18.603,18.578,18.553,18.553,18.547,18.538,18.541,18.535,18.536,18.53,18.534,18.532,18.532,18.527,18.525,18.523,18.521,18.507,18.482,18.469,18.51,18.643,18.879,19.099,19.301,19.333,19.067,18.884,18.701,18.462,18.383,18.404,18.369,18.366,18.442,18.467,18.527,18.553,18.578,18.588,18.58,18.579,18.58,18.585,18.594,18.601,18.602,18.617,18.618,18.624,18.618,18.623,18.63,18.639,18.641,18.652,18.656,18.66,18.662,18.675,18.684,18.683,18.685,18.706,18.725,18.742,18.756,18.77,18.786,18.81,18.832,18.853,18.869,18.882,18.902,18.923,18.933,18.941,18.948,18.969,18.971,18.975,18.969,18.964,18.95,18.932,18.903,18.873,18.834,18.796,18.758,18.726,18.709,18.676,18.639,18.622,18.591,18.573,18.556,18.544,18.537,18.526,18.515,18.517,18.511,18.51,18.507,18.503,18.499,18.499,18.499,18.499,18.49,18.489,18.492,18.495,18.493,18.494,18.494,18.488,18.488,18.482,18.487,18.495,18.5,18.505,18.503,18.503,18.499,18.502,18.506,18.513,18.524,18.524,18.522,18.525,18.532,18.523,18.531,18.535,18.537,18.543,18.553,18.547,18.549,18.547,18.546,18.549,18.549,18.548,18.551,18.555,18.559,18.55,18.552,18.553,18.556,18.555,18.555,18.55,18.551,18.547,18.547,18.546,18.548,18.549,18.544,18.544,18.54,18.544,18.54,18.539,18.538,18.536,18.534,18.536,18.535,18.534,18.531,18.532,18.531,18.537,18.537,18.54,18.537,18.538,18.533,18.532,18.539,18.538,18.535,18.537,18.546,18.545,18.546,18.537,18.539,18.542,18.541,18.541,18.54,18.549,18.552,18.559,18.565,18.585,18.593,18.588,18.583,18.583,18.601,18.614,18.638,18.641,18.631,18.62,18.615,18.61,18.605,18.603,18.596,18.584,18.564,18.539,18.532,18.527,18.53,18.526,18.53,18.53,18.532,18.528,18.529,18.533,18.531,18.527,18.525,18.525,18.51,18.49,18.504,18.607,18.812,19.042,19.157,19.354,19.37,19.07,18.926,18.762,18.487,18.365,18.375,18.375,18.441,18.52,18.574,18.601,18.616,18.623,18.625,18.629,18.632,18.637,18.645,18.648,18.653,18.654,18.66,18.673,18.674,18.678,18.682,18.696,18.703,18.711,18.712,18.718,18.718,18.726,18.737,18.745,18.749,18.758,18.772,18.793,18.81,18.826,18.841,18.86,18.883,18.905,18.919,18.947,18.962,18.989,19.003,19.018,19.029,19.041,19.048,19.049,19.047,19.048,19.044,19.033,19.013,18.983,18.947,18.918,18.882,18.839,18.799,18.768,18.737,18.705,18.681,18.66,18.644,18.622,18.616,18.601,18.59,18.584,18.579,18.579,18.574,18.567,18.566,18.564,18.561,18.556,18.559,18.562,18.556,18.557,18.552,18.548,18.547,18.545,18.549,18.544,18.545,18.55,18.544,18.552,18.555,18.552,18.553,18.554,18.551,18.555,18.554,18.558,18.557,18.552,18.554,18.554,18.553,18.559,18.56,18.567,18.565,18.569,18.567,18.57,18.567,18.569,18.569,18.576,18.577,18.577,18.574,18.573,18.575,18.569,18.572,18.571,18.574,18.569,18.571,18.569,18.572,18.57,18.568,18.564,18.564,18.562,18.556,18.553,18.561,18.561,18.562,18.56,18.563,18.559,18.559,18.557,18.556,18.556,18.556,18.55,18.553,18.554,18.553,18.555,18.553,18.556,18.552,18.549,18.549,18.551,18.556,18.555,18.555,18.553,18.552,18.551,18.556,18.552,18.552,18.549,18.548,18.553,18.551,18.551,18.554,18.55,18.552,18.544,18.543,18.545,18.546,18.547,18.546,18.547,18.545,18.55,18.552,18.556,18.546,18.547,18.55,18.546,18.544,18.542,18.551,18.552,18.548,18.546,18.542,18.542,18.545,18.55,18.554,18.563,18.57,18.582,18.592,18.589,18.599,18.617,18.638,18.664,18.65,18.635,18.624,18.61,18.606,18.6,18.603,18.598,18.587,18.56,18.541,18.536,18.539,18.538,18.531,18.535,18.536,18.537,18.537,18.542,18.546,18.54,18.534,18.537,18.529,18.513,18.5,18.497,18.563,18.722,18.958,19.176,19.364,19.307,19.014,18.875,18.725,18.446,18.351,18.375,18.375,18.451,18.512,18.569,18.603,18.613,18.623,18.625,18.627,18.63,18.636,18.639,18.644,18.652,18.658,18.662,18.669,18.679,18.684,18.694,18.696,18.705,18.709,18.708,18.713,18.726,18.741,18.75,18.751,18.762,18.773,18.791,18.811,18.826,18.84,18.86,18.883,18.901,18.922,18.942,18.97,18.984,19.006,19.015,19.024,19.047,19.061,19.07,19.079,19.077,19.079,19.064,19.056,19.043,19.017,18.984,18.949,18.916,18.876,18.836,18.8,18.772,18.754,18.731,18.707,18.683,18.66,18.649,18.639,18.627,18.618,18.607,18.608,18.602,18.595,18.594,18.591,18.595,18.589,18.578,18.578,18.581,18.578,18.575,18.575,18.572,18.568,18.571,18.57,18.564,18.566,18.569,18.573,18.576,18.574,18.58,18.575,18.581,18.577,18.579,18.585,18.587,18.584,18.587,18.588,18.592,18.594,18.595,18.603,18.599,18.607,18.606,18.613,18.613,18.616,18.612,18.609,18.61,18.608,18.607,18.614,18.605,18.61,18.612,18.606,18.608,18.608,18.6,18.598,18.608,18.605,18.606,18.599,18.597,18.603,18.599,18.589,18.592,18.59,18.597,18.59,18.59,18.593,18.597,18.599,18.594,18.595,18.595,18.595,18.596,18.593,18.593,18.599,18.6,18.597,18.596,18.6,18.594,18.602,18.601,18.598,18.598,18.6,18.599,18.601,18.601,18.599,18.602,18.605,18.603,18.601,18.598,18.596,18.593,18.598,18.596,18.593,18.595,18.596,18.597,18.599,18.601,18.601,18.607,18.606,18.607,18.602,18.603,18.605,18.603,18.6,18.602,18.606,18.608,18.602,18.605,18.608,18.608,18.613,18.609,18.617,18.618,18.62,18.624,18.621,18.618,18.614,18.617,18.622,18.618,18.628,18.634,18.648,18.66,18.658,18.66,18.669,18.687,18.708,18.733,18.724,18.709,18.703,18.686,18.678,18.673,18.671,18.668,18.647,18.621,18.617,18.609,18.605,18.605,18.602,18.608,18.61,18.61,18.61,18.609,18.605,18.607,18.611,18.61,18.599,18.584,18.565,18.568,18.67,18.885,19.119,19.338,19.423,19.399,19.107,18.946,18.824,18.548,18.453,18.457,18.462,18.517,18.601,18.647,18.685,18.697,18.717,18.71,18.719,18.715,18.733,18.731,18.744,18.745,18.758,18.763,18.774,18.778,18.785,18.79,18.801,18.805,18.815,18.817,18.828,18.829,18.841,18.849,18.856,18.87,18.878,18.893,18.911,18.93,18.951,18.965,18.989,19.012,19.03,19.053,19.078,19.1,19.118,19.14,19.155,19.166,19.18,19.192,19.201,19.2,19.204,19.205,19.194,19.182,19.164,19.13,19.098,19.063,19.026,18.999,18.963,18.937,18.9,18.876,18.849,18.829,18.809,18.799,18.792,18.78,18.767,18.763,18.753,18.757,18.758,18.746,18.742,18.744,18.741,18.739,18.735,18.737,18.73,18.731,18.727,18.725,18.726,18.723,18.717,18.723,18.724,18.731,18.734,18.735,18.739,18.731,18.73,18.736,18.738,18.74,18.742,18.745,18.737,18.742,18.743,18.744,18.74,18.742,18.749,18.751,18.752,18.75,18.753,18.756,18.758,18.757,18.762,18.764,18.762,18.764,18.767,18.76,18.759,18.761,18.761,18.762,18.759,18.76,18.756,18.756,18.756,18.757,18.758,18.762,18.755,18.758,18.756,18.757,18.758,18.764,18.76,18.76,18.759,18.761,18.767,18.766,18.766,18.759,18.764,18.759,18.761,18.764,18.76,18.761,18.758,18.758,18.754,18.76,18.762,18.769,18.783,18.782,18.771,18.764,18.77,18.773,18.803,18.815,18.778,18.761,18.772,18.768,18.763,18.77,18.773,18.766,18.775,18.771,18.771,18.774,18.778,18.775,18.776,18.776,18.777,18.771,18.773,18.779,18.77,18.774,18.778,18.783,18.776,18.777,18.787,18.776,18.777,18.771,18.771,18.782,18.787,18.788,18.793,18.804,18.814,18.828,18.816,18.814,18.845,18.868,18.883,18.882,18.87,18.866,18.859,18.85,18.843,18.847,18.837,18.81,18.795,18.776,18.78,18.77,18.776,18.776,18.776,18.775,18.772,18.774,18.781,18.776,18.77,18.772,18.77,18.76,18.745,18.727,18.717,18.751,18.897,19.139,19.363,19.567,19.572,19.287,19.113,18.948,18.722,18.65,18.676,18.64,18.633,18.709,18.754,18.809,18.835,18.857,18.851,18.86,18.858,18.86,18.871,18.872,18.877,18.875,18.885,18.886,18.891,18.895,18.901,18.906,18.91,18.916,18.915,18.912,18.915,18.923,18.935,18.952,18.961,18.961,18.975,18.989,19.001,19.014,19.03,19.055,19.078,19.098,19.116,19.144,19.154,19.177,19.188,19.193,19.207,19.231,19.244,19.246,19.252,19.254,19.263,19.258,19.234,19.211,19.21,19.165,19.123,19.09,19.037,19.003,18.968,18.942,18.928,18.902,18.874,18.857,18.841,18.834,18.818,18.809,18.804,18.799,18.796,18.787,18.782,18.784,18.774,18.784,18.778,18.774,18.766,18.764,18.764,18.763,18.76,18.76,18.748,18.751,18.757,18.757,18.761,18.763,18.764,18.763,18.762,18.76,18.758,18.761,18.764,18.766,18.766,18.758,18.758,18.758,18.763,18.758,18.755,18.756,18.757,18.758,18.758,18.751,18.752,18.751,18.748,18.736,18.742,18.738,18.751,18.748,18.739,18.738,18.745,18.746,18.744,18.737,18.733,18.736,18.742,18.736,18.73,18.731,18.727,18.722,18.721,18.72,18.715,18.723,18.725,18.721,18.72,18.709,18.709,18.72,18.714,18.706,18.703,18.716,18.718,18.718,18.718,18.718,18.72,18.719,18.718,18.721,18.721,18.716,18.722,18.73,18.724,18.721,18.722,18.726,18.727,18.726,18.729,18.726,18.731,18.733,18.739,18.743,18.757,18.775,18.769,18.768,18.779,18.791,18.806,18.827,18.836,18.807,18.803,18.799,18.798,18.785,18.784,18.783,18.766,18.736,18.712,18.715,18.71,18.707,18.706,18.71,18.705,18.709,18.704,18.705,18.707,18.715,18.702,18.694,18.695,18.674,18.652,18.66,18.769,18.976,19.203,19.434,19.564,19.352,19.215,19.087,18.917,18.666,18.553,18.588,18.548,18.601,18.667,18.732,18.754,18.79,18.79,18.8,18.792,18.8,18.799,18.818,18.812,18.822,18.82,18.838,18.844,18.853,18.85,18.864,18.869,18.883,18.879,18.887,18.89,18.901,18.899,18.909,18.912,18.928,18.94,18.956,18.955,18.972,18.988,19.001,19.018,19.041,19.055,19.077,19.096,19.121,19.138,19.153,19.173,19.185,19.197,19.199,19.203,19.21,19.209,19.203,19.196,19.176,19.158,19.127,19.094,19.059,19.027,18.982,18.948,18.906,18.875,18.846,18.826,18.808,18.791,18.771,18.769,18.761,18.759,18.748,18.749,18.745,18.742,18.737,18.737,18.73,18.73,18.726,18.725,18.726,18.731,18.721,18.717,18.715,18.714,18.715,18.715,18.71,18.708,18.708,18.713,18.718,18.718,18.717,18.718,18.72,18.724,18.722,18.731,18.73,18.738,18.737,18.742,18.74,18.732,18.735,18.741,18.74,18.744,18.743,18.748,18.75,18.753,18.75,18.752,18.752,18.754,18.752,18.756,18.751,18.756,18.753,18.753,18.753,18.756,18.753,18.748,18.747,18.741,18.739,18.744,18.741,18.744,18.739,18.74,18.735,18.736,18.736,18.73,18.731,18.741,18.744,18.739,18.736,18.738,18.738,18.739,18.741,18.748,18.748,18.744,18.74,18.74,18.74,18.732,18.738,18.74,18.741,18.735,18.738,18.739,18.742,18.74,18.742,18.737,18.734,18.734,18.735,18.731,18.733,18.745,18.74,18.733,18.731,18.728,18.733,18.73,18.735,18.731,18.731,18.729,18.736,18.73,18.729,18.732,18.726,18.719,18.72,18.729,18.736,18.734,18.744,18.758,18.764,18.763,18.763,18.771,18.79,18.807,18.826,18.819,18.811,18.801,18.794,18.787,18.774,18.772,18.779,18.771,18.739,18.716,18.71,18.704,18.705,18.7,18.704,18.707,18.708,18.706,18.708,18.705,18.701,18.704,18.704,18.691,18.67,18.651,18.673,18.791,19.019,19.235,19.451,19.566,19.296,19.114,18.963,18.735,18.555,18.527,18.545,18.535,18.61,18.67,18.736,18.756,18.775,18.78,18.786,18.784,18.787,18.789,18.801,18.805,18.817,18.813,18.824,18.825,18.837,18.833,18.845,18.852,18.861,18.858,18.87,18.874,18.884,18.892,18.893,18.909,18.92,18.939,18.951,18.967,18.991,19.008,19.014,19.03,19.043,19.063,19.086,19.109,19.13,19.145,19.157,19.176,19.192,19.2,19.207,19.213,19.218,19.208,19.204,19.188,19.162,19.144,19.116,19.096,19.061,19.017,18.981,18.943,18.915,18.884,18.855,18.827,18.806,18.791,18.774,18.763,18.751,18.752,18.744,18.74,18.74,18.743,18.741,18.736,18.73,18.737,18.732,18.729,18.724,18.729,18.727,18.722,18.722,18.724,18.719,18.715,18.719,18.727,18.731,18.734,18.726,18.733,18.736,18.74,18.739,18.742,18.744,18.749,18.743,18.739,18.742,18.743,18.747,18.747,18.748,18.751,18.754,18.762,18.761,18.762,18.762,18.763,18.762,18.768,18.764,18.763,18.76,18.763,18.769,18.774,18.768,18.767,18.764,18.766,18.767,18.762,18.756,18.754,18.758,18.755,18.75,18.75,18.751,18.747,18.744,18.741,18.743,18.743,18.742,18.742,18.736,18.733,18.733,18.737,18.731,18.734,18.731,18.734,18.727,18.734,18.738,18.734,18.735,18.732,18.734,18.734,18.731,18.733,18.734,18.738,18.737,18.737,18.736,18.738,18.738,18.738,18.737,18.737,18.734,18.738,18.738,18.733,18.74,18.74,18.742,18.745,18.745,18.739,18.741,18.739,18.746,18.742,18.745,18.749,18.744,18.743,18.747,18.742,18.746,18.745,18.748,18.744,18.747,18.753,18.763,18.777,18.789,18.785,18.782,18.8,18.828,18.847,18.851,18.837,18.835,18.826,18.815,18.802,18.801,18.797,18.792,18.765,18.743,18.733,18.726,18.727,18.727,18.727,18.728,18.726,18.731,18.73,18.726,18.728,18.718,18.721,18.719,18.705,18.684,18.678,18.753,18.929,19.163,19.38,19.562,19.464,19.187,19.036,18.886,18.628,18.552,18.573,18.558,18.599,18.677,18.732,18.775,18.801,18.796,18.81,18.804,18.815,18.812,18.821,18.82,18.829,18.836,18.842,18.853,18.856,18.86,18.869,18.878,18.882,18.882,18.892,18.894,18.902,18.905,18.92,18.93,18.945,18.956,18.969,18.985,19.004,19.016,19.032,19.052,19.065,19.077,19.105,19.129,19.148,19.163,19.179,19.198,19.217,19.229,19.24,19.246,19.251,19.254,19.247,19.236,19.221,19.2,19.168,19.128,19.107,19.065,19.029,18.993,18.954,18.926,18.893,18.872,18.845,18.821,18.804,18.794,18.779,18.775,18.767,18.763,18.755,18.75,18.746,18.75,18.747,18.739,18.732,18.731,18.722,18.722,18.717,18.719,18.718,18.722,18.716,18.715,18.716,18.714,18.721,18.727,18.72,18.722,18.725,18.729,18.73,18.732,18.735,18.738,18.735,18.734,18.734,18.733,18.736,18.736,18.742,18.746,18.75,18.752,18.753,18.751,18.75,18.753,18.758,18.759,18.753,18.761,18.761,18.758,18.762,18.771,18.764,18.756,18.757,18.754,18.762,18.758,18.756,18.753,18.757,18.756,18.752,18.751,18.755,18.757,18.752,18.746,18.749,18.749,18.746,18.747,18.745,18.749,18.747,18.748,18.75,18.753,18.754,18.744,18.748,18.749,18.752,18.75,18.751,18.753,18.757,18.76,18.761,18.758,18.758,18.763,18.762,18.76,18.768,18.771,18.771,18.774,18.772,18.776,18.778,18.778,18.776,18.776,18.781,18.784,18.789,18.793,18.798,18.803,18.807,18.808,18.812,18.818,18.818,18.818,18.824,18.828,18.834,18.836,18.835,18.841,18.841,18.844,18.849,18.857,18.857,18.864,18.878,18.887,18.897,18.892,18.908,18.922,18.948,18.961,18.954,18.939,18.939,18.933,18.917,18.908,18.908,18.909,18.891,18.86,18.845,18.839,18.837,18.834,18.833,18.834,18.836,18.836,18.837,18.846,18.843,18.844,18.841,18.841,18.831,18.81,18.791,18.804,18.904,19.109,19.336,19.556,19.697,19.485,19.265,19.111,18.922,18.715,18.677,18.689,18.672,18.74,18.806,18.874,18.906,18.934,18.933,18.945,18.936,18.94,18.94,18.956,18.955,18.972,18.973,18.981,18.985,18.994,19.002,19.007,19.003,19.014,19.014,19.021,19.02,19.032,19.03,19.039,19.046,19.062,19.072,19.085,19.097,19.119,19.128,19.139,19.156,19.181,19.191,19.21,19.23,19.252,19.273,19.29,19.303,19.322,19.338,19.336,19.352,19.352,19.357,19.344,19.336,19.323,19.297,19.269,19.229,19.209,19.19,19.155,19.099,19.056,19.032,19.002,18.98,18.959,18.948,18.923,18.91,18.897,18.895,18.885,18.873,18.864,18.874,18.868,18.869,18.855,18.86,18.859,18.85,18.845,18.842,18.841,18.845,18.841,18.842,18.834,18.834,18.833,18.832,18.834,18.841,18.838,18.838,18.84,18.836,18.837,18.843,18.847,18.852,18.849,18.85,18.849,18.85,18.849,18.854,18.859,18.852,18.858,18.859,18.854,18.861,18.851,18.848,18.849,18.849,18.848,18.848,18.848,18.853,18.849,18.845,18.848,18.844,18.847,18.841,18.84,18.838,18.84,18.842,18.836,18.834,18.83,18.826,18.833,18.833,18.83,18.826,18.827,18.826,18.828,18.825,18.833,18.828,18.826,18.827,18.828,18.827,18.828,18.835,18.835,18.836,18.825,18.83,18.829,18.834,18.834,18.837,18.834,18.833,18.836,18.832,18.836,18.835,18.835,18.842,18.842,18.831,18.828,18.83,18.837,18.837,18.842,18.844,18.862,18.874,18.875,18.872,18.879,18.892,18.922,18.935,18.924,18.908,18.903,18.896,18.89,18.882,18.878,18.866,18.853,18.826,18.811,18.809,18.805,18.799,18.81,18.806,18.802,18.802,18.793,18.797,18.8,18.798,18.792,18.79,18.775,18.758,18.728,18.739,18.846,19.068,19.285,19.511,19.611,19.402,19.187,18.989,18.776,18.683,18.72,18.717,18.647,18.676,18.744,18.796,18.817,18.84,18.852,18.861,18.858,18.864,18.874,18.881,18.882,18.882,18.881,18.878,18.883,18.888,18.892,18.899,18.907,18.912,18.914,18.919,18.922,18.932,18.942,18.947,18.959,18.971,18.99,19.002,19.019,19.04,19.054,19.076,19.089,19.11,19.132,19.155,19.176,19.197,19.206,19.225,19.239,19.253,19.268,19.269,19.275,19.274,19.277,19.269,19.252,19.226,19.201,19.167,19.126,19.092,19.054,19.009,18.97,18.959,18.93,18.902,18.883,18.861,18.847,18.832,18.822,18.81,18.808,18.796,18.792,18.787,18.777,18.777,18.776,18.775,18.773,18.767,18.761,18.763,18.761,18.763,18.76,18.756,18.755,18.752,18.759,18.756,18.759,18.763,18.759,18.756,18.757,18.755,18.757,18.767,18.773,18.774,18.769,18.765,18.768,18.767,18.761,18.761,18.77,18.769,18.772,18.77,18.774,18.774,18.773,18.772,18.772,18.768,18.768,18.776,18.776,18.777,18.769,18.767,18.767,18.765,18.764,18.764,18.762,18.761,18.758,18.753,18.754,18.751,18.753,18.758,18.758,18.748,18.746,18.747,18.749,18.749,18.748,18.753,18.753,18.751,18.747,18.749,18.749,18.749,18.752,18.753,18.756,18.756,18.76,18.77,18.775,18.783,18.792,18.804,18.801,18.805,18.813,18.81,18.821,18.847,18.853,18.841,18.832,18.827,18.826,18.812,18.81,18.802,18.787,18.756,18.737,18.735,18.729,18.731,18.729,18.731,18.73,18.729,18.724,18.727,18.73,18.733,18.732,18.726,18.709,18.692,18.683,18.733,18.888,19.127,19.236,19.459,19.602,19.379,19.206,19.038,18.808,18.595,18.569,18.577,18.595,18.694,18.741,18.79,18.808,18.82,18.818,18.819,18.821,18.82,18.827,18.84,18.844,18.851,18.859,18.865,18.875,18.875,18.881,18.886,18.895,18.904,18.909,18.908,18.916,18.918,18.922,18.932,18.937,18.946,18.959,18.973,18.992,19.003,19.017,19.042,19.064,19.082,19.099,19.119,19.137,19.154,19.171,19.184,19.199,19.212,19.227,19.227,19.23,19.227,19.221,19.213,19.198,19.173,19.141,19.112,19.072,19.033,18.987,18.952,18.918,18.892,18.857,18.833,18.813,18.797,18.792,18.784,18.774,18.768,18.759,18.756,18.756,18.755,18.756,18.751,18.748,18.749,18.742,18.735,18.734,18.735,18.732,18.73,18.732,18.736,18.734,18.729,18.728,18.728,18.733,18.743,18.748,18.743,18.743,18.742,18.746,18.749,18.751,18.744,18.747,18.75,18.753,18.756,18.756,18.761,18.766,18.776,18.779,18.777,18.769,18.77,18.775,18.777,18.775,18.77,18.775,18.776,18.777,18.777,18.772,18.775,18.781,18.782,18.777,18.777,18.776,18.773,18.777,18.773,18.771,18.766,18.77,18.767,18.769,18.768,18.767,18.764,18.765,18.778,18.767,18.765,18.767,18.764,18.764,18.762,18.762,18.762,18.76,18.764,18.763,18.761,18.76,18.764,18.771,18.764,18.754,18.758,18.762,18.765,18.761,18.761,18.761,18.76,18.759,18.761,18.761,18.755,18.759,18.768,18.769,18.759,18.756,18.76,18.761,18.763,18.761,18.766,18.76,18.761,18.765,18.773,18.78,18.786,18.802,18.808,18.799,18.803,18.816,18.824,18.85,18.865,18.85,18.844,18.84,18.831,18.825,18.82,18.824,18.821,18.806,18.768,18.758,18.752,18.75,18.752,18.753,18.753,18.753,18.759,18.757,18.751,18.754,18.753,18.754,18.746,18.735,18.721,18.705,18.738,18.865,19.095,19.315,19.53,19.625,19.337,19.172,19.011,18.75,18.603,18.589,18.597,18.63,18.718,18.767,18.819,18.821,18.846,18.842,18.85,18.847,18.857,18.858,18.862,18.868,18.879,18.893,18.897,18.89,18.897,18.901,18.913,18.919,18.927,18.922,18.928,18.938,18.94,18.952,18.963,18.972,18.987,19.001,19.02,19.025,19.046,19.064,19.083,19.098,19.118,19.14,19.161,19.181,19.2,19.209,19.228,19.244,19.257,19.27,19.274,19.275,19.282,19.269,19.256,19.237,19.214,19.193,19.155,19.121,19.082,19.048,19.012,18.974,18.951,18.926,18.9,18.885,18.865,18.846,18.823,18.814,18.795,18.798,18.794,18.791,18.783,18.783,18.781,18.783,18.775,18.778,18.784,18.79,18.779,18.771,18.77,18.773,18.766,18.766,18.764,18.768,18.77,18.776,18.774,18.779,18.774,18.783,18.788,18.788,18.791,18.797,18.795,18.794,18.791,18.792,18.796,18.794,18.798,18.799,18.806,18.809,18.813,18.816,18.821,18.827,18.822,18.825,18.825,18.826,18.829,18.834,18.835,18.832,18.833,18.834,18.834,18.831,18.836,18.836,18.837,18.836,18.834,18.826,18.829,18.83,18.826,18.822,18.824,18.818,18.821,18.822,18.815,18.814,18.816,18.814,18.818,18.813,18.812,18.811,18.815,18.812,18.816,18.823,18.82,18.821,18.822,18.815,18.819,18.82,18.817,18.832,18.824,18.824,18.824,18.829,18.831,18.829,18.83,18.833,18.837,18.837,18.836,18.833,18.83,18.832,18.835,18.833,18.834,18.838,18.839,18.835,18.834,18.838,18.838,18.835,18.84,18.838,18.837,18.832,18.842,18.839,18.835,18.832,18.831,18.834,18.836,18.831,18.834,18.831,18.837,18.836,18.841,18.848,18.85,18.864,18.876,18.872,18.882,18.896,18.914,18.942,18.932,18.915,18.906,18.899,18.894,18.884,18.876,18.881,18.866,18.84,18.824,18.819,18.82,18.826,18.825,18.823,18.827,18.829,18.828,18.827,18.827,18.823,18.823,18.828,18.82,18.806,18.784,18.777,18.855,19.035,19.271,19.492,19.672,19.561,19.281,19.145,18.991,18.731,18.652,18.677,18.675,18.75,18.788,18.844,18.891,18.92,18.927,18.936,18.931,18.929,18.936,18.94,18.952,18.956,18.961,18.962,18.968,18.977,18.98,18.991,18.994,19.001,19.01,19.012,19.014,19.025,19.029,19.035,19.044,19.061,19.074,19.094,19.113,19.13,19.149,19.164,19.175,19.198,19.214,19.238,19.251,19.274,19.295,19.313,19.332,19.344,19.355,19.364,19.373,19.375,19.374,19.369,19.367,19.349,19.316,19.283,19.252,19.217,19.179,19.157,19.124,19.093,19.063,19.028,19.007,18.986,18.972,18.954,18.944,18.928,18.924,18.92,18.917,18.911,18.904,18.913,18.913,18.908,18.907,18.901,18.906,18.909,18.914,18.918,18.918,18.923,18.926,18.926,18.93,18.935,18.943,18.946,18.957,18.959,18.96,18.965,18.97,18.972,18.98,18.98,18.989,18.99,18.999,18.999,18.998,19.001,19.01,19.017,19.022,19.025,19.026,19.027,19.032,19.032,19.033,19.029,19.035,19.04,19.038,19.039,19.038,19.036,19.038,19.034,19.035,19.033,19.035,19.03,19.029,19.027,19.021,19.018,19.017,19.014,19.01,19.009,19.006,19.009,19.01,19.005,19,19.003,19.009,19.013,19.007,19.009,19.008,19.01,19.012,19.012,19.013,19.017,19.019,19.021,19.018,19.014,19.008,19.012,19.018,19.021,19.021,19.027,19.032,19.022,19.022,19.021,19.021,19.023,19.019,19.024,19.023,19.025,19.028,19.027,19.024,19.029,19.026,19.021,19.026,19.024,19.021,19.025,19.024,19.026,19.032,19.032,19.028,19.024,19.022,19.027,19.023,19.022,19.018,19.024,19.026,19.026,19.032,19.042,19.056,19.06,19.065,19.074,19.092,19.113,19.125,19.113,19.11,19.1,19.085,19.074,19.07,19.071,19.064,19.048,19.019,19.011,19.006,19.009,19.011,19.007,19.005,19.006,19.001,19.002,18.998,19.001,19.002,18.998,18.983,18.98,18.965,18.948,18.959,19.057,19.273,19.499,19.733,19.841,19.579,19.379,19.211,19.019,18.862,18.857,18.855,18.835,18.914,18.955,18.993,19.03,19.064,19.074,19.074,19.06,19.071,19.064,19.082,19.08,19.091,19.087,19.097,19.098,19.107,19.097,19.113,19.114,19.126,19.123,19.129,19.131,19.143,19.148,19.153,19.155,19.175,19.184,19.206,19.216,19.232,19.242,19.259,19.275,19.296,19.319,19.339,19.357,19.367,19.382,19.392,19.413,19.425,19.439,19.444,19.444,19.447,19.443,19.442,19.435,19.414,19.386,19.356,19.323,19.287,19.242,19.202,19.181,19.147,19.129,19.1,19.07,19.047,19.028,19.016,19.004,18.987,18.985,18.98,18.971,18.964,18.961,18.957,18.958,18.969,18.958,18.949,18.948,18.944,18.945,18.937,18.935,18.933,18.934,18.927,18.93,18.927,18.937,18.939,18.939,18.937,18.941,18.933,18.935,18.942,18.943,18.941,18.947,18.943,18.944,18.948,18.941,18.936,18.942,18.942,18.947,18.944,18.94,18.936,18.938,18.944,18.941,18.934,18.932,18.933,18.935,18.935,18.932,18.924,18.918,18.916,18.916,18.908,18.902,18.896,18.896,18.887,18.885,18.881,18.879,18.884,18.887,18.885,18.883,18.876,18.88,18.882,18.882,18.877,18.881,18.886,18.886,18.883,18.88,18.886,18.886,18.888,18.888,18.887,18.898,18.891,18.894,18.897,18.891,18.888,18.885,18.893,18.892,18.888,18.89,18.897,18.902,18.91,18.924,18.928,18.923,18.943,18.949,18.974,18.98,18.974,18.967,18.965,18.96,18.947,18.936,18.933,18.932,18.913,18.881,18.872,18.869,18.862,18.864,18.86,18.857,18.858,18.858,18.854,18.856,18.855,18.856,18.858,18.854,18.846,18.83,18.801,18.795,18.861,19.038,19.274,19.506,19.663,19.584,19.333,19.142,18.96,18.757,18.738,18.76,18.729,18.691,18.753,18.827,18.879,18.904,18.923,18.938,18.939,18.943,18.943,18.953,18.955,18.959,18.962,18.974,18.973,18.985,18.986,18.999,19.003,19.015,19.024,19.03,19.03,19.034,19.035,19.046,19.057,19.063,19.07,19.086,19.098,19.115,19.123,19.141,19.154,19.166,19.188,19.207,19.226,19.24,19.256,19.277,19.288,19.297,19.304,19.313,19.316,19.315,19.31,19.303,19.292,19.27,19.245,19.207,19.188,19.151,19.115,19.082,19.046,19.011,18.978,18.954,18.934,18.914,18.894,18.877,18.865,18.858,18.846,18.84,18.836,18.832,18.836,18.835,18.831,18.83,18.823,18.825,18.819,18.811,18.811,18.811,18.818,18.816,18.817,18.803,18.802,18.807,18.807,18.807,18.809,18.81,18.811,18.816,18.815,18.814,18.818,18.819,18.829,18.829,18.833,18.836,18.83,18.836,18.836,18.838,18.845,18.847,18.85,18.848,18.849,18.85,18.852,18.859,18.858,18.855,18.854,18.856,18.861,18.854,18.853,18.849,18.854,18.858,18.855,18.852,18.855,18.853,18.853,18.849,18.849,18.846,18.846,18.844,18.841,18.837,18.833,18.832,18.832,18.832,18.832,18.827,18.827,18.827,18.828,18.828,18.829,18.82,18.82,18.823,18.821,18.825,18.82,18.821,18.824,18.823,18.816,18.821,18.82,18.825,18.825,18.825,18.822,18.819,18.819,18.818,18.818,18.816,18.818,18.828,18.831,18.835,18.845,18.858,18.862,18.857,18.861,18.875,18.882,18.911,18.918,18.906,18.899,18.894,18.886,18.873,18.867,18.869,18.863,18.85,18.825,18.808,18.796,18.794,18.799,18.8,18.794,18.794,18.796,18.795,18.796,18.793,18.794,18.79,18.781,18.773,18.754,18.734,18.777,18.914,19.143,19.361,19.578,19.637,19.347,19.199,19.041,18.752,18.609,18.6,18.612,18.657,18.749,18.803,18.83,18.845,18.865,18.86,18.865,18.86,18.868,18.875,18.883,18.883,18.887,18.893,18.906,18.908,18.913,18.916,18.925,18.929,18.937,18.937,18.948,18.948,18.952,18.954,18.96,18.964,18.978,18.992,19.007,19.025,19.042,19.057,19.079,19.094,19.115,19.134,19.153,19.177,19.188,19.207,19.223,19.232,19.254,19.265,19.27,19.273,19.272,19.265,19.258,19.242,19.217,19.19,19.16,19.122,19.08,19.04,19.001,18.984,18.955,18.928,18.902,18.879,18.86,18.848,18.833,18.82,18.812,18.806,18.805,18.8,18.795,18.788,18.789,18.784,18.781,18.78,18.773,18.771,18.767,18.769,18.771,18.767,18.767,18.769,18.765,18.767,18.764,18.769,18.771,18.774,18.771,18.772,18.77,18.772,18.772,18.772,18.771,18.777,18.773,18.771,18.774,18.776,18.777,18.783,18.788,18.789,18.787,18.783,18.785,18.792,18.79,18.791,18.79,18.788,18.783,18.786,18.786,18.789,18.785,18.787,18.793,18.8,18.791,18.793,18.791,18.786,18.788,18.785,18.782,18.783,18.781,18.775,18.773,18.773,18.776,18.77,18.768,18.763,18.765,18.765,18.767,18.767,18.762,18.76,18.762,18.759,18.762,18.762,18.763,18.762,18.758,18.754,18.752,18.759,18.761,18.767,18.766,18.764,18.76,18.763,18.763,18.763,18.764,18.766,18.764,18.763,18.761,18.758,18.761,18.766,18.765,18.765,18.759,18.762,18.76,18.763,18.764,18.758,18.76,18.752,18.751,18.749,18.755,18.755,18.763,18.763,18.774,18.785,18.798,18.796,18.796,18.809,18.821,18.843,18.864,18.862,18.843,18.844,18.83,18.817,18.818,18.821,18.822,18.803,18.768,18.754,18.752,18.749,18.749,18.748,18.749,18.746,18.752,18.749,18.752,18.75,18.749,18.749,18.749,18.736,18.716,18.706,18.732,18.856,19.078,19.3,19.531,19.626,19.502,19.233,19.08,18.929,18.655,18.579,18.587,18.588,18.67,18.738,18.79,18.817,18.829,18.837,18.84,18.839,18.839,18.853,18.853,18.859,18.859,18.87,18.869,18.877,18.888,18.903,18.901,18.904,18.914,18.922,18.924,18.927,18.931,18.941,18.957,18.969,18.975,18.996,19,19.021,19.035,19.05,19.069,19.087,19.111,19.139,19.159,19.175,19.197,19.213,19.232,19.244,19.254,19.268,19.278,19.286,19.288,19.286,19.28,19.266,19.248,19.218,19.185,19.145,19.105,19.071,19.035,18.999,18.968,18.945,18.919,18.895,18.876,18.856,18.85,18.837,18.833,18.831,18.823,18.82,18.813,18.813,18.812,18.809,18.808,18.804,18.804,18.794,18.787,18.787,18.789,18.792,18.793,18.794,18.795,18.791,18.793,18.793,18.795,18.799,18.806,18.808,18.811,18.814,18.814,18.817,18.827,18.826,18.827,18.829,18.829,18.836,18.841,18.844,18.846,18.851,18.855,18.859,18.87,18.865,18.864,18.865,18.87,18.874,18.874,18.878,18.882,18.889,18.889,18.889,18.893,18.895,18.901,18.899,18.899,18.901,18.901,18.902,18.899,18.9,18.901,18.911,18.908,18.9,18.901,18.903,18.903,18.908,18.905,18.905,18.907,18.908,18.908,18.91,18.91,18.909,18.913,18.912,18.913,18.916,18.915,18.912,18.921,18.92,18.916,18.918,18.919,18.927,18.923,18.918,18.916,18.912,18.917,18.917,18.917,18.918,18.916,18.915,18.916
