-19.925,-19.934,-19.924,-19.928,-19.922,-19.931,-19.928,-19.92,-19.93,-19.92,-19.907,-19.903,-19.896,-19.888,-19.875,-19.881,-19.858,-19.813,-19.795,-19.79,-19.828,-19.853,-19.87,-19.856,-19.862,-19.873,-19.888,-19.907,-19.921,-19.943,-19.94,-19.96,-19.965,-19.946,-19.945,-19.946,-19.962,-19.96,-19.952,-19.952,-19.958,-19.956,-19.962,-19.956,-19.96,-19.962,-19.963,-19.966,-19.961,-19.962,-19.986,-20.039,-20.033,-19.921,-19.733,-19.487,-19.216,-18.854,-18.687,-18.672,-18.929,-19.381,-19.782,-20.064,-20.053,-20.002,-19.935,-19.887,-19.865,-19.871,-19.877,-19.881,-19.884,-19.889,-19.878,-19.877,-19.874,-19.874,-19.872,-19.875,-19.862,-19.867,-19.873,-19.856,-19.849,-19.836,-19.845,-19.855,-19.842,-19.84,-19.829,-19.824,-19.824,-19.821,-19.799,-19.788,-19.789,-19.791,-19.79,-19.779,-19.759,-19.751,-19.752,-19.747,-19.741,-19.716,-19.702,-19.69,-19.676,-19.662,-19.642,-19.623,-19.611,-19.591,-19.575,-19.553,-19.528,-19.527,-19.513,-19.504,-19.488,-19.468,-19.453,-19.453,-19.445,-19.43,-19.43,-19.436,-19.458,-19.473,-19.494,-19.512,-19.552,-19.607,-19.646,-19.674,-19.707,-19.743,-19.786,-19.798,-19.814,-19.822,-19.842,-19.862,-19.882,-19.883,-19.884,-19.892,-19.907,-19.913,-19.906,-19.898,-19.896,-19.903,-19.911,-19.911,-19.893,-19.894,-19.887,-19.901,-19.907,-19.899,-19.885,-19.899,-19.894,-19.887,-19.886,-19.884,-19.884,-19.896,-19.898,-19.887,-19.879,-19.877,-19.888,-19.896,-19.888,-19.896,-19.889,-19.893,-19.9,-19.898,-19.88,-19.887,-19.905,-19.907,-19.908,-19.903,-19.906,-19.898,-19.909,-19.913,-19.903,-19.905,-19.902,-19.917,-19.908,-19.903,-19.909,-19.915,-19.927,-19.927,-19.921,-19.915,-19.91,-19.926,-19.927,-19.91,-19.906,-19.917,-19.928,-19.92,-19.915,-19.908,-19.922,-19.921,-19.919,-19.91,-19.886,-19.878,-19.889,-19.894,-19.895,-19.874,-19.865,-19.844,-19.82,-19.799,-19.807,-19.828,-19.849,-19.862,-19.871,-19.869,-19.874,-19.904,-19.935,-19.953,-19.946,-19.947,-19.95,-19.967,-19.966,-19.957,-19.956,-19.962,-19.963,-19.966,-19.96,-19.955,-19.955,-19.966,-19.961,-19.965,-19.966,-19.968,-19.976,-19.975,-19.985,-20.003,-20.057,-20.051,-19.924,-19.703,-19.439,-19.295,-18.973,-18.711,-18.8,-19.22,-19.638,-19.994,-20.075,-20.029,-19.967,-19.899,-19.884,-19.868,-19.903,-19.885,-19.891,-19.88,-19.907,-19.888,-19.899,-19.874,-19.885,-19.879,-19.887,-19.871,-19.867,-19.864,-19.872,-19.858,-19.855,-19.844,-19.848,-19.846,-19.848,-19.839,-19.837,-19.822,-19.821,-19.815,-19.817,-19.791,-19.798,-19.785,-19.792,-19.777,-19.762,-19.746,-19.746,-19.73,-19.71,-19.692,-19.681,-19.665,-19.662,-19.656,-19.632,-19.606,-19.592,-19.588,-19.574,-19.552,-19.53,-19.514,-19.504,-19.492,-19.477,-19.46,-19.446,-19.464,-19.456,-19.456,-19.466,-19.494,-19.527,-19.539,-19.559,-19.598,-19.636,-19.683,-19.72,-19.757,-19.769,-19.808,-19.827,-19.858,-19.868,-19.873,-19.889,-19.899,-19.912,-19.926,-19.901,-19.921,-19.924,-19.924,-19.923,-19.926,-19.918,-19.922,-19.918,-19.925,-19.907,-19.909,-19.906,-19.913,-19.914,-19.915,-19.903,-19.905,-19.914,-19.915,-19.898,-19.9,-19.904,-19.907,-19.906,-19.901,-19.891,-19.892,-19.903,-19.904,-19.901,-19.895,-19.9,-19.916,-19.911,-19.916,-19.905,-19.911,-19.924,-19.925,-19.928,-19.906,-19.916,-19.915,-19.926,-19.922,-19.922,-19.921,-19.926,-19.939,-19.945,-19.941,-19.923,-19.929,-19.939,-19.943,-19.935,-19.924,-19.931,-19.939,-19.937,-19.943,-19.933,-19.941,-19.946,-19.94,-19.942,-19.931,-19.936,-19.935,-19.944,-19.948,-19.925,-19.941,-19.942,-19.946,-19.945,-19.934,-19.934,-19.938,-19.943,-19.947,-19.917,-19.899,-19.905,-19.915,-19.901,-19.878,-19.875,-19.858,-19.848,-19.824,-19.824,-19.852,-19.869,-19.893,-19.892,-19.894,-19.897,-19.903,-19.94,-19.956,-19.965,-19.963,-19.967,-19.974,-19.989,-19.985,-19.974,-19.976,-19.986,-19.984,-19.979,-19.967,-19.976,-19.971,-19.981,-19.98,-19.969,-19.979,-19.979,-19.996,-20.007,-20.046,-20.072,-20.038,-19.931,-19.707,-19.465,-19.204,-18.813,-18.681,-18.854,-19.264,-19.685,-19.998,-20.101,-20.049,-19.989,-19.901,-19.897,-19.905,-19.927,-19.912,-19.914,-19.907,-19.93,-19.923,-19.933,-19.915,-19.925,-19.905,-19.92,-19.899,-19.897,-19.889,-19.895,-19.891,-19.893,-19.867,-19.864,-19.862,-19.869,-19.853,-19.854,-19.843,-19.844,-19.845,-19.845,-19.833,-19.827,-19.813,-19.82,-19.805,-19.792,-19.771,-19.757,-19.759,-19.754,-19.732,-19.71,-19.698,-19.686,-19.683,-19.66,-19.635,-19.615,-19.601,-19.588,-19.566,-19.541,-19.539,-19.526,-19.518,-19.5,-19.483,-19.473,-19.472,-19.471,-19.477,-19.476,-19.494,-19.524,-19.569,-19.581,-19.616,-19.642,-19.678,-19.724,-19.765,-19.791,-19.819,-19.846,-19.873,-19.898,-19.913,-19.911,-19.937,-19.946,-19.948,-19.937,-19.946,-19.941,-19.953,-19.95,-19.957,-19.951,-19.957,-19.955,-19.962,-19.952,-19.946,-19.941,-19.949,-19.948,-19.947,-19.934,-19.937,-19.933,-19.948,-19.943,-19.93,-19.927,-19.939,-19.944,-19.948,-19.938,-19.93,-19.931,-19.943,-19.948,-19.937,-19.93,-19.94,-19.95,-19.945,-19.951,-19.943,-19.945,-19.957,-19.957,-19.959,-19.954,-19.954,-19.952,-19.956,-19.968,-19.955,-19.955,-19.966,-19.963,-19.966,-19.964,-19.959,-19.968,-19.977,-19.966,-19.961,-19.967,-19.969,-19.975,-19.979,-19.961,-19.962,-19.966,-19.983,-19.987,-19.982,-19.97,-19.975,-19.978,-19.981,-19.982,-19.972,-19.976,-19.987,-19.979,-19.976,-19.976,-19.968,-19.988,-19.987,-19.972,-19.97,-19.97,-19.978,-19.989,-19.977,-19.975,-19.972,-19.984,-19.988,-19.982,-19.973,-19.976,-19.98,-19.988,-19.982,-19.972,-19.977,-19.979,-19.981,-19.966,-19.944,-19.943,-19.937,-19.952,-19.931,-19.929,-19.913,-19.88,-19.861,-19.859,-19.885,-19.9,-19.922,-19.937,-19.934,-19.931,-19.944,-19.96,-19.991,-20.012,-20.006,-20.003,-20.006,-20.017,-20.021,-20.015,-20.005,-20.013,-20.014,-20.025,-20.021,-20.012,-20.022,-20.024,-20.026,-20.032,-20.015,-20.022,-20.027,-20.028,-20.043,-20.082,-20.111,-20.09,-19.983,-19.779,-19.537,-19.295,-18.917,-18.703,-18.841,-19.264,-19.685,-20.011,-20.131,-20.082,-20.009,-19.934,-19.928,-19.939,-19.953,-19.946,-19.947,-19.943,-19.958,-19.951,-19.957,-19.938,-19.935,-19.93,-19.933,-19.933,-19.928,-19.915,-19.914,-19.918,-19.909,-19.89,-19.883,-19.885,-19.891,-19.887,-19.876,-19.855,-19.851,-19.857,-19.854,-19.843,-19.837,-19.839,-19.836,-19.824,-19.809,-19.787,-19.782,-19.781,-19.767,-19.742,-19.722,-19.714,-19.705,-19.68,-19.675,-19.646,-19.619,-19.616,-19.597,-19.58,-19.549,-19.536,-19.523,-19.509,-19.493,-19.477,-19.465,-19.465,-19.46,-19.464,-19.453,-19.467,-19.498,-19.533,-19.55,-19.576,-19.61,-19.646,-19.706,-19.749,-19.774,-19.8,-19.83,-19.863,-19.886,-19.893,-19.902,-19.906,-19.93,-19.941,-19.936,-19.94,-19.943,-19.952,-19.951,-19.949,-19.939,-19.941,-19.949,-19.953,-19.949,-19.941,-19.94,-19.944,-19.949,-19.942,-19.931,-19.927,-19.94,-19.942,-19.94,-19.935,-19.929,-19.934,-19.946,-19.942,-19.936,-19.93,-19.927,-19.942,-19.948,-19.951,-19.947,-19.939,-19.947,-19.955,-19.949,-19.949,-19.954,-19.965,-19.967,-19.955,-19.958,-19.963,-19.962,-19.975,-19.973,-19.963,-19.972,-19.973,-19.977,-19.969,-19.965,-19.97,-19.979,-19.987,-19.981,-19.975,-19.971,-19.97,-19.984,-19.98,-19.975,-19.978,-19.98,-19.994,-19.99,-19.987,-19.973,-19.98,-19.989,-19.992,-19.989,-19.984,-19.983,-19.983,-19.982,-19.981,-19.978,-19.979,-20,-19.995,-19.982,-19.983,-19.983,-19.976,-19.989,-19.984,-19.979,-19.979,-19.993,-19.995,-19.985,-19.978,-19.983,-19.984,-19.98,-19.966,-19.942,-19.946,-19.951,-19.945,-19.948,-19.927,-19.916,-19.884,-19.858,-19.876,-19.892,-19.914,-19.922,-19.937,-19.94,-19.934,-19.955,-19.988,-20.006,-20.01,-20.017,-20.012,-20.015,-20.02,-20.029,-20.016,-20.012,-20.023,-20.013,-20.026,-20.036,-20.019,-20.01,-20.031,-20.027,-20.027,-20.019,-20.019,-20.029,-20.039,-20.065,-20.106,-20.1,-19.994,-19.801,-19.555,-19.408,-19.102,-18.795,-18.75,-19.01,-19.456,-19.852,-20.126,-20.135,-20.082,-20.005,-19.956,-19.936,-19.949,-19.956,-19.958,-19.948,-19.943,-19.949,-19.954,-19.956,-19.943,-19.946,-19.944,-19.94,-19.934,-19.921,-19.917,-19.92,-19.932,-19.925,-19.909,-19.903,-19.908,-19.907,-19.895,-19.883,-19.875,-19.881,-19.877,-19.879,-19.862,-19.849,-19.835,-19.846,-19.833,-19.822,-19.813,-19.798,-19.797,-19.775,-19.754,-19.751,-19.733,-19.725,-19.706,-19.678,-19.658,-19.637,-19.63,-19.611,-19.601,-19.586,-19.566,-19.549,-19.542,-19.531,-19.512,-19.508,-19.507,-19.509,-19.506,-19.5,-19.516,-19.554,-19.591,-19.63,-19.655,-19.694,-19.735,-19.782,-19.797,-19.823,-19.849,-19.871,-19.901,-19.928,-19.942,-19.941,-19.95,-19.963,-19.979,-19.975,-19.97,-19.968,-19.986,-19.984,-19.975,-19.97,-19.966,-19.981,-19.983,-19.972,-19.96,-19.96,-19.966,-19.97,-19.964,-19.953,-19.959,-19.961,-19.966,-19.959,-19.958,-19.959,-19.957,-19.957,-19.957,-19.949,-19.95,-19.95,-19.957,-19.959,-19.966,-19.955,-19.964,-19.966,-19.969,-19.97,-19.956,-19.968,-19.972,-19.975,-19.974,-19.963,-19.961,-19.981,-19.981,-19.973,-19.967,-19.979,-19.981,-19.982,-19.988,-19.974,-19.975,-19.984,-19.988,-19.995,-19.978,-19.975,-19.979,-19.989,-19.991,-19.974,-19.976,-19.978,-19.987,-19.986,-19.98,-19.986,-19.989,-19.995,-19.997,-19.987,-19.98,-19.973,-19.956,-19.957,-19.949,-19.942,-19.943,-19.947,-19.924,-19.881,-19.862,-19.872,-19.905,-19.917,-19.928,-19.931,-19.937,-19.948,-19.971,-19.983,-19.995,-20.01,-20.017,-20.02,-20.02,-20.014,-20.018,-20.023,-20.034,-20.035,-20.023,-20.025,-20.025,-20.038,-20.032,-20.022,-20.025,-20.026,-20.039,-20.031,-20.024,-20.032,-20.055,-20.11,-20.123,-20.024,-19.842,-19.598,-19.325,-18.958,-18.737,-18.76,-19.129,-19.579,-19.964,-20.132,-20.107,-20.088,-20.012,-19.975,-19.94,-19.946,-19.951,-19.968,-19.957,-19.957,-19.943,-19.953,-19.952,-19.961,-19.95,-19.941,-19.935,-19.939,-19.941,-19.941,-19.933,-19.92,-19.919,-19.928,-19.923,-19.902,-19.894,-19.897,-19.897,-19.896,-19.882,-19.878,-19.87,-19.871,-19.857,-19.847,-19.838,-19.83,-19.828,-19.828,-19.804,-19.792,-19.784,-19.77,-19.758,-19.743,-19.711,-19.691,-19.678,-19.668,-19.651,-19.622,-19.611,-19.596,-19.589,-19.568,-19.542,-19.539,-19.524,-19.525,-19.521,-19.509,-19.504,-19.506,-19.532,-19.55,-19.57,-19.598,-19.634,-19.676,-19.72,-19.745,-19.784,-19.815,-19.852,-19.878,-19.887,-19.906,-19.933,-19.958,-19.959,-19.956,-19.948,-19.959,-19.97,-19.972,-19.978,-19.972,-19.98,-19.977,-19.98,-19.974,-19.966,-19.967,-19.972,-19.968,-19.967,-19.951,-19.968,-19.965,-19.965,-19.971,-19.963,-19.955,-19.951,-19.956,-19.963,-19.954,-19.944,-19.952,-19.968,-19.967,-19.961,-19.963,-19.963,-19.97,-19.968,-19.967,-19.952,-19.969,-19.975,-19.971,-19.982,-19.961,-19.968,-19.98,-19.986,-19.992,-19.985,-19.989,-20.004,-19.996,-19.999,-19.99,-20.003,-20.013,-20.009,-20.004,-19.995,-19.996,-20.004,-20.011,-20.015,-20.015,-20.017,-20.018,-20.026,-20.02,-20.022,-20.012,-20.017,-20.029,-20.028,-20.018,-20.013,-20.016,-20.019,-20.024,-20.014,-20.01,-20.014,-20.01,-20.011,-20.018,-20.009,-20.021,-20.024,-20.027,-20.016,-19.992,-19.995,-19.995,-19.995,-19.978,-19.966,-19.943,-19.918,-19.91,-19.922,-19.944,-19.962,-19.967,-19.983,-19.988,-19.986,-19.987,-20.011,-20.043,-20.043,-20.043,-20.049,-20.047,-20.055,-20.049,-20.039,-20.041,-20.034,-20.042,-20.035,-20.033,-20.024,-20.026,-20.029,-20.041,-20.033,-20.024,-20.017,-20.032,-20.059,-20.113,-20.075,-19.962,-19.765,-19.541,-19.284,-18.89,-18.715,-18.833,-19.249,-19.673,-19.987,-20.09,-20.091,-20.044,-19.964,-19.923,-19.905,-19.929,-19.937,-19.955,-19.937,-19.944,-19.932,-19.941,-19.93,-19.932,-19.915,-19.931,-19.927,-19.929,-19.912,-19.915,-19.907,-19.91,-19.911,-19.912,-19.889,-19.896,-19.895,-19.897,-19.89,-19.88,-19.867,-19.873,-19.865,-19.861,-19.837,-19.833,-19.828,-19.833,-19.818,-19.804,-19.789,-19.783,-19.785,-19.755,-19.734,-19.707,-19.694,-19.693,-19.669,-19.638,-19.62,-19.59,-19.602,-19.595,-19.572,-19.543,-19.539,-19.516,-19.51,-19.492,-19.479,-19.472,-19.477,-19.487,-19.506,-19.507,-19.543,-19.579,-19.629,-19.668,-19.698,-19.737,-19.786,-19.823,-19.86,-19.879,-19.905,-19.926,-19.967,-19.979,-19.984,-19.989,-20.007,-20.02,-20.024,-20.03,-20.033,-20.038,-20.046,-20.056,-20.054,-20.05,-20.076,-20.101,-20.104,-20.105,-20.107,-20.123,-20.137,-20.132,-20.124,-20.114,-20.113,-20.122,-20.121,-20.111,-20.095,-20.085,-20.09,-20.079,-20.082,-20.065,-20.054,-20.049,-20.043,-20.04,-20.02,-20.018,-20.01,-20.015,-20.01,-19.996,-19.986,-19.994,-20.006,-19.997,-19.992,-19.987,-19.984,-20.006,-19.99,-19.98,-19.981,-19.975,-19.983,-19.992,-19.975,-19.979,-19.971,-19.971,-19.972,-19.96,-19.95,-19.966,-19.961,-19.958,-19.941,-19.919,-19.967,-19.961,-19.979,-19.962,-19.934,-19.954,-19.965,-19.974,-19.967,-19.953,-19.964,-19.976,-19.974,-19.977,-19.974,-19.969,-19.974,-19.982,-19.989,-19.98,-19.981,-19.985,-19.986,-19.984,-19.961,-19.955,-19.957,-19.951,-19.938,-19.929,-19.895,-19.903,-19.863,-19.88,-19.909,-19.913,-19.932,-19.949,-19.965,-19.972,-19.971,-20.009,-20.047,-20.056,-20.062,-20.062,-20.066,-20.066,-20.073,-20.074,-20.062,-20.07,-20.072,-20.077,-20.078,-20.069,-20.067,-20.062,-20.068,-20.07,-20.051,-20.042,-20.035,-20.053,-20.095,-20.113,-20.036,-19.86,-19.645,-19.382,-19.068,-18.836,-18.644,-18.734,-19.172,-19.603,-19.938,-20.041,-20.03,-19.946,-19.878,-19.852,-19.865,-19.88,-19.887,-19.892,-19.881,-19.879,-19.893,-19.897,-19.899,-19.894,-19.876,-19.881,-19.89,-19.883,-19.882,-19.875,-19.875,-19.878,-19.877,-19.861,-19.858,-19.856,-19.86,-19.86,-19.849,-19.836,-19.839,-19.847,-19.834,-19.831,-19.812,-19.81,-19.807,-19.801,-19.797,-19.781,-19.769,-19.761,-19.753,-19.734,-19.707,-19.696,-19.684,-19.674,-19.657,-19.636,-19.611,-19.599,-19.589,-19.587,-19.568,-19.542,-19.529,-19.534,-19.523,-19.514,-19.506,-19.504,-19.509,-19.508,-19.521,-19.544,-19.589,-19.623,-19.664,-19.698,-19.728,-19.777,-19.824,-19.85,-19.869,-19.889,-19.92,-19.95,-19.978,-19.978,-19.977,-19.979,-19.993,-20.002,-20.01,-19.991,-19.988,-19.999,-19.999,-19.986,-19.973,-19.972,-19.967,-19.973,-19.965,-19.96,-19.947,-19.941,-19.955,-19.948,-19.938,-19.916,-19.926,-19.931,-19.928,-19.921,-19.911,-19.912,-19.911,-19.92,-19.908,-19.909,-19.912,-19.921,-19.911,-19.914,-19.909,-19.912,-19.916,-19.927,-19.922,-19.917,-19.925,-19.93,-19.939,-19.941,-19.933,-19.939,-19.939,-19.951,-19.939,-19.937,-19.94,-19.942,-19.949,-19.944,-19.939,-19.935,-19.937,-19.947,-19.949,-19.94,-19.94,-19.943,-19.95,-19.952,-19.943,-19.938,-19.944,-19.955,-19.945,-19.916,-19.9,-19.899,-19.897,-19.89,-19.89,-19.879,-19.846,-19.82,-19.823,-19.842,-19.849,-19.866,-19.876,-19.889,-19.894,-19.893,-19.915,-19.94,-19.947,-19.956,-19.957,-19.956,-19.957,-19.975,-19.975,-19.962,-19.959,-19.964,-19.971,-19.984,-19.972,-19.974,-19.98,-19.99,-19.985,-19.981,-19.979,-19.986,-19.999,-20.026,-20.073,-20.081,-20.051,-19.919,-19.699,-19.418,-19.097,-18.766,-18.68,-18.881,-19.324,-19.717,-20.062,-20.109,-20.072,-20.008,-19.932,-19.922,-19.915,-19.939,-19.941,-19.942,-19.931,-19.954,-19.946,-19.957,-19.931,-19.942,-19.931,-19.948,-19.932,-19.931,-19.908,-19.92,-19.918,-19.918,-19.905,-19.906,-19.901,-19.913,-19.896,-19.881,-19.878,-19.87,-19.861,-19.862,-19.856,-19.842,-19.841,-19.832,-19.832,-19.817,-19.799,-19.791,-19.785,-19.777,-19.761,-19.741,-19.725,-19.718,-19.7,-19.679,-19.67,-19.656,-19.635,-19.631,-19.611,-19.592,-19.56,-19.558,-19.563,-19.539,-19.521,-19.51,-19.501,-19.511,-19.514,-19.527,-19.56,-19.583,-19.624,-19.646,-19.664,-19.699,-19.743,-19.787,-19.832,-19.854,-19.877,-19.894,-19.924,-19.943,-19.963,-19.961,-19.978,-19.992,-19.997,-19.995,-19.999,-19.999,-20.006,-20.006,-20.013,-20.006,-20.008,-20.003,-20.02,-20.015,-20.009,-20.006,-19.998,-20,-20.01,-20.001,-19.993,-19.992,-20.009,-19.997,-19.99,-19.985,-19.991,-19.998,-19.992,-19.99,-19.98,-19.981,-19.983,-19.987,-19.991,-19.987,-19.987,-19.995,-20.003,-19.997,-19.991,-19.989,-19.995,-19.995,-19.992,-19.983,-19.997,-19.998,-19.999,-19.998,-20.002,-19.99,-19.992,-19.999,-20.006,-19.991,-19.991,-19.995,-19.994,-19.991,-19.974,-19.962,-19.951,-19.949,-19.936,-19.931,-19.916,-19.917,-19.907,-19.882,-19.844,-19.846,-19.869,-19.894,-19.911,-19.911,-19.905,-19.909,-19.925,-19.954,-19.982,-19.981,-19.987,-19.988,-19.982,-19.988,-19.966,-19.972,-19.977,-19.988,-19.99,-19.987,-19.986,-19.995,-20.009,-20.008,-20.011,-20.009,-20.017,-20.024,-20.017,-20.047,-20.089,-20.122,-20.033,-19.846,-19.594,-19.309,-19.145,-18.785,-18.678,-18.871,-19.287,-19.717,-20.045,-20.108,-20.061,-20.005,-19.928,-19.932,-19.917,-19.957,-19.924,-19.953,-19.94,-19.959,-19.934,-19.947,-19.934,-19.946,-19.939,-19.955,-19.933,-19.932,-19.919,-19.926,-19.904,-19.918,-19.895,-19.902,-19.898,-19.898,-19.882,-19.869,-19.865,-19.879,-19.855,-19.848,-19.84,-19.838,-19.828,-19.825,-19.816,-19.804,-19.789,-19.781,-19.778,-19.764,-19.75,-19.732,-19.72,-19.709,-19.687,-19.66,-19.639,-19.628,-19.616,-19.598,-19.584,-19.581,-19.569,-19.555,-19.548,-19.524,-19.511,-19.5,-19.513,-19.508,-19.503,-19.51,-19.546,-19.578,-19.615,-19.646,-19.678,-19.709,-19.76,-19.79,-19.826,-19.833,-19.867,-19.89,-19.916,-19.915,-19.925,-19.929,-19.95,-19.953,-19.963,-19.954,-19.96,-19.961,-19.968,-19.969,-19.957,-19.961,-19.977,-19.977,-19.972,-19.962,-19.968,-19.954,-19.97,-19.969,-19.961,-19.952,-19.953,-19.959,-19.957,-19.951,-19.954,-19.951,-19.958,-19.954,-19.948,-19.938,-19.939,-19.946,-19.948,-19.946,-19.944,-19.948,-19.956,-19.955,-19.963,-19.959,-19.963,-19.962,-19.97,-19.966,-19.96,-19.964,-19.976,-19.973,-19.968,-19.964,-19.969,-19.971,-19.977,-19.976,-19.972,-19.969,-19.978,-19.985,-19.987,-19.983,-19.975,-19.981,-19.991,-19.993,-19.984,-19.981,-19.984,-19.992,-19.979,-19.976,-19.975,-19.961,-19.956,-19.954,-19.953,-19.936,-19.933,-19.931,-19.904,-19.88,-19.852,-19.883,-19.908,-19.928,-19.937,-19.929,-19.937,-19.954,-19.967,-19.987,-20,-20.012,-20.021,-20.031,-20.032,-20.023,-20.013,-20.021,-20.026,-20.031,-20.031,-20.026,-20.028,-20.032,-20.033,-20.027,-20.017,-20.027,-20.033,-20.029,-20.02,-20.046,-20.105,-20.129,-20.08,-19.934,-19.706,-19.445,-19.169,-18.796,-18.677,-18.892,-19.322,-19.745,-20.045,-20.105,-20.033,-19.98,-19.924,-19.936,-19.933,-19.947,-19.933,-19.947,-19.942,-19.953,-19.936,-19.942,-19.924,-19.94,-19.928,-19.929,-19.916,-19.916,-19.915,-19.916,-19.906,-19.902,-19.894,-19.907,-19.894,-19.884,-19.87,-19.872,-19.869,-19.878,-19.861,-19.85,-19.841,-19.842,-19.837,-19.831,-19.814,-19.808,-19.812,-19.804,-19.805,-19.8,-19.798,-19.797,-19.793,-19.773,-19.746,-19.74,-19.722,-19.704,-19.678,-19.652,-19.638,-19.613,-19.6,-19.576,-19.557,-19.53,-19.52,-19.52,-19.516,-19.504,-19.508,-19.522,-19.552,-19.583,-19.603,-19.619,-19.662,-19.705,-19.749,-19.773,-19.798,-19.829,-19.864,-19.893,-19.906,-19.911,-19.926,-19.938,-19.949,-19.951,-19.943,-19.947,-19.958,-19.964,-19.961,-19.955,-19.96,-19.953,-19.96,-19.955,-19.949,-19.944,-19.949,-19.949,-19.95,-19.935,-19.929,-19.927,-19.933,-19.926,-19.922,-19.919,-19.933,-19.931,-19.934,-19.929,-19.926,-19.932,-19.942,-19.94,-19.947,-19.93,-19.927,-19.937,-19.945,-19.943,-19.937,-19.936,-19.943,-19.945,-19.943,-19.936,-19.935,-19.941,-19.948,-19.952,-19.951,-19.944,-19.947,-19.953,-19.953,-19.945,-19.95,-19.949,-19.964,-19.959,-19.955,-19.948,-19.947,-19.955,-19.953,-19.948,-19.948,-19.952,-19.962,-19.958,-19.956,-19.946,-19.938,-19.947,-19.951,-19.95,-19.947,-19.942,-19.953,-19.959,-19.956,-19.955,-19.952,-19.958,-19.949,-19.947,-19.936,-19.935,-19.944,-19.942,-19.935,-19.916,-19.914,-19.916,-19.912,-19.91,-19.895,-19.867,-19.839,-19.828,-19.839,-19.871,-19.88,-19.891,-19.905,-19.913,-19.91,-19.931,-19.96,-19.993,-19.989,-19.989,-19.989,-19.985,-19.998,-20.005,-20.001,-19.994,-19.989,-20.008,-20.013,-20.011,-20.002,-20.005,-20.012,-20.019,-20.01,-20,-20.002,-20.013,-20.017,-20.023,-20.061,-20.112,-20.072,-19.921,-19.689,-19.414,-19.114,-18.747,-18.651,-18.89,-19.335,-19.76,-20.056,-20.104,-20.054,-19.994,-19.928,-19.919,-19.914,-19.938,-19.931,-19.93,-19.92,-19.93,-19.93,-19.937,-19.915,-19.914,-19.915,-19.926,-19.915,-19.903,-19.899,-19.907,-19.902,-19.895,-19.866,-19.875,-19.879,-19.894,-19.882,-19.869,-19.856,-19.852,-19.859,-19.854,-19.833,-19.826,-19.818,-19.813,-19.804,-19.788,-19.779,-19.771,-19.768,-19.745,-19.723,-19.71,-19.701,-19.695,-19.685,-19.655,-19.629,-19.614,-19.603,-19.589,-19.568,-19.536,-19.529,-19.515,-19.506,-19.485,-19.468,-19.461,-19.456,-19.463,-19.465,-19.466,-19.479,-19.507,-19.546,-19.573,-19.6,-19.643,-19.693,-19.738,-19.773,-19.792,-19.821,-19.848,-19.872,-19.889,-19.902,-19.912,-19.922,-19.941,-19.947,-19.935,-19.931,-19.934,-19.947,-19.951,-19.95,-19.937,-19.936,-19.952,-19.952,-19.949,-19.938,-19.931,-19.938,-19.936,-19.938,-19.931,-19.933,-19.931,-19.921,-19.918,-19.924,-19.928,-19.931,-19.932,-19.931,-19.917,-19.921,-19.926,-19.942,-19.936,-19.929,-19.929,-19.938,-19.943,-19.941,-19.928,-19.932,-19.942,-19.953,-19.948,-19.95,-19.94,-19.941,-19.954,-19.953,-19.954,-19.946,-19.946,-19.955,-19.962,-19.954,-19.946,-19.949,-19.96,-19.96,-19.962,-19.951,-19.944,-19.952,-19.96,-19.964,-19.956,-19.955,-19.945,-19.941,-19.931,-19.92,-19.913,-19.915,-19.923,-19.89,-19.848,-19.831,-19.852,-19.886,-19.905,-19.904,-19.907,-19.915,-19.936,-19.944,-19.959,-19.978,-19.981,-19.99,-19.997,-20,-19.993,-19.992,-19.999,-19.998,-20,-19.991,-19.995,-20.002,-20.001,-20.002,-19.998,-19.997,-20.006,-20.009,-20.003,-19.994,-19.999,-20.012,-20.067,-20.123,-20.074,-19.925,-19.691,-19.415,-19.103,-18.743,-18.641,-18.85,-19.313,-19.742,-20.068,-20.088,-20.056,-20.037,-19.979,-19.945,-19.909,-19.931,-19.93,-19.945,-19.931,-19.932,-19.922,-19.939,-19.931,-19.931,-19.913,-19.917,-19.914,-19.922,-19.902,-19.894,-19.893,-19.901,-19.905,-19.904,-19.881,-19.879,-19.873,-19.878,-19.869,-19.859,-19.849,-19.846,-19.846,-19.844,-19.822,-19.816,-19.803,-19.803,-19.793,-19.773,-19.763,-19.756,-19.746,-19.732,-19.714,-19.692,-19.679,-19.669,-19.649,-19.628,-19.603,-19.588,-19.578,-19.565,-19.546,-19.519,-19.511,-19.503,-19.499,-19.492,-19.479,-19.477,-19.488,-19.512,-19.536,-19.546,-19.577,-19.614,-19.661,-19.695,-19.733,-19.772,-19.807,-19.841,-19.865,-19.875,-19.899,-19.916,-19.942,-19.942,-19.941,-19.946,-19.952,-19.962,-19.969,-19.967,-19.961,-19.962,-19.971,-19.968,-19.97,-19.954,-19.961,-19.969,-19.966,-19.959,-19.949,-19.952,-19.964,-19.958,-19.956,-19.941,-19.942,-19.943,-19.959,-19.957,-19.95,-19.943,-19.943,-19.951,-19.95,-19.94,-19.937,-19.941,-19.958,-19.961,-19.954,-19.952,-19.954,-19.967,-19.967,-19.958,-19.958,-19.963,-19.974,-19.973,-19.975,-19.974,-19.969,-19.982,-19.979,-19.975,-19.968,-19.969,-19.987,-19.994,-19.985,-19.979,-19.978,-19.986,-19.99,-19.986,-19.981,-19.984,-19.987,-20.002,-19.998,-19.991,-19.994,-19.993,-19.999,-19.997,-19.984,-19.979,-19.96,-19.967,-19.96,-19.947,-19.946,-19.942,-19.926,-19.898,-19.876,-19.878,-19.902,-19.932,-19.947,-19.945,-19.941,-19.948,-19.964,-19.987,-20.005,-20.016,-20.016,-20.029,-20.039,-20.039,-20.033,-20.036,-20.037,-20.041,-20.041,-20.035,-20.034,-20.034,-20.04,-20.04,-20.032,-20.041,-20.044,-20.052,-20.05,-20.037,-20.037,-20.046,-20.1,-20.153,-20.098,-19.957,-19.73,-19.478,-19.343,-18.985,-18.707,-18.733,-19.117,-19.58,-19.948,-20.13,-20.112,-20.06,-19.993,-19.964,-19.946,-19.975,-19.974,-19.994,-19.974,-19.978,-19.967,-19.981,-19.971,-19.977,-19.958,-19.964,-19.958,-19.968,-19.963,-19.956,-19.947,-19.953,-19.952,-19.95,-19.928,-19.928,-19.917,-19.925,-19.919,-19.908,-19.901,-19.9,-19.897,-19.893,-19.885,-19.864,-19.86,-19.857,-19.845,-19.839,-19.813,-19.804,-19.801,-19.787,-19.771,-19.744,-19.723,-19.718,-19.699,-19.681,-19.652,-19.637,-19.636,-19.623,-19.603,-19.579,-19.568,-19.558,-19.558,-19.544,-19.533,-19.525,-19.531,-19.546,-19.566,-19.585,-19.616,-19.656,-19.703,-19.737,-19.773,-19.815,-19.839,-19.879,-19.907,-19.925,-19.942,-19.951,-19.984,-19.991,-20,-19.994,-20.007,-20.019,-20.025,-20.019,-20.019,-20.024,-20.035,-20.031,-20.025,-20.013,-20.018,-20.015,-20.031,-20.021,-20.018,-20.009,-20.014,-20.018,-20.018,-20.008,-20.005,-20.008,-20.019,-20.011,-20.003,-20.001,-20.003,-20.013,-20.012,-20.004,-20.003,-20.003,-20.013,-20.013,-20.012,-20.006,-20.009,-20.019,-20.025,-20.02,-20.017,-20.016,-20.033,-20.037,-20.033,-20.028,-20.027,-20.037,-20.032,-20.027,-20.026,-20.028,-20.034,-20.039,-20.038,-20.03,-20.032,-20.035,-20.045,-20.044,-20.036,-20.033,-20.033,-20.045,-20.043,-20.034,-20.034,-20.034,-20.046,-20.047,-20.038,-20.033,-20.034,-20.047,-20.048,-20.042,-20.039,-20.043,-20.052,-20.053,-20.046,-20.043,-20.039,-20.042,-20.044,-20.044,-20.033,-20.037,-20.048,-20.056,-20.053,-20.041,-20.043,-20.044,-20.046,-20.053,-20.037,-20.041,-20.042,-20.054,-20.051,-20.043,-20.043,-20.041,-20.04,-20.023,-20.002,-20.005,-20.003,-20.004,-20.003,-19.995,-19.96,-19.937,-19.929,-19.951,-19.965,-19.981,-19.987,-20,-20.008,-20.005,-20.008,-20.032,-20.061,-20.075,-20.069,-20.066,-20.07,-20.077,-20.075,-20.078,-20.066,-20.069,-20.075,-20.085,-20.082,-20.071,-20.077,-20.075,-20.081,-20.087,-20.071,-20.076,-20.078,-20.085,-20.086,-20.113,-20.167,-20.165,-20.053,-19.954,-19.723,-19.465,-19.176,-18.8,-18.732,-19.024,-19.478,-19.874,-20.137,-20.162,-20.087,-20.018,-19.977,-19.99,-20.002,-20.009,-20.004,-19.997,-20.011,-20.01,-20.007,-19.993,-19.988,-19.994,-19.991,-19.989,-19.979,-19.973,-19.97,-19.977,-19.972,-19.956,-19.947,-19.946,-19.947,-19.946,-19.931,-19.924,-19.927,-19.928,-19.922,-19.913,-19.898,-19.886,-19.89,-19.879,-19.87,-19.858,-19.85,-19.846,-19.835,-19.814,-19.798,-19.779,-19.776,-19.754,-19.738,-19.711,-19.693,-19.684,-19.673,-19.65,-19.622,-19.605,-19.596,-19.586,-19.572,-19.546,-19.53,-19.523,-19.528,-19.52,-19.514,-19.523,-19.548,-19.584,-19.61,-19.639,-19.675,-19.695,-19.745,-19.782,-19.81,-19.845,-19.876,-19.913,-19.936,-19.949,-19.956,-19.969,-19.994,-20.001,-20,-19.998,-19.999,-20.007,-20.007,-20.004,-19.997,-19.998,-20.001,-20.008,-20.007,-19.996,-19.999,-20.001,-20.003,-19.999,-19.983,-19.983,-19.979,-19.986,-19.986,-19.972,-19.974,-19.979,-19.989,-19.989,-19.977,-19.977,-19.975,-19.984,-19.99,-19.981,-19.977,-19.983,-19.993,-19.992,-19.987,-19.983,-19.982,-19.99,-19.993,-19.986,-19.984,-19.99,-19.996,-19.999,-19.994,-19.987,-19.99,-19.996,-20.001,-19.998,-19.982,-19.991,-19.991,-20.001,-20.001,-19.99,-19.989,-19.993,-19.999,-19.998,-19.985,-19.993,-19.995,-19.997,-20.001,-19.999,-19.989,-19.991,-20.002,-20.001,-19.999,-19.986,-19.99,-20,-19.998,-20,-19.991,-19.995,-20.002,-20.005,-19.995,-19.99,-19.993,-20.003,-20.005,-20.006,-19.998,-19.998,-20.003,-20.007,-20.009,-19.995,-19.998,-20.003,-20.01,-20.005,-20.003,-20.005,-20.006,-20.008,-20.006,-19.998,-20.004,-20.006,-20.009,-20.008,-20.01,-20.002,-20.006,-20.012,-20.006,-20.004,-20.002,-20.008,-20.013,-20.006,-20.001,-19.99,-19.972,-19.979,-19.982,-19.974,-19.956,-19.956,-19.94,-19.921,-19.894,-19.882,-19.902,-19.925,-19.95,-19.953,-19.952,-19.959,-19.975,-19.999,-20.012,-20.018,-20.025,-20.034,-20.042,-20.034,-20.025,-20.029,-20.038,-20.044,-20.042,-20.039,-20.039,-20.04,-20.054,-20.054,-20.044,-20.038,-20.038,-20.05,-20.045,-20.036,-20.042,-20.054,-20.115,-20.148,-20.123,-19.991,-19.785,-19.422,-19.275,-18.913,-18.715,-18.836,-19.233,-19.699,-20.041,-20.149,-20.089,-20.045,-19.964,-19.96,-19.931,-19.969,-19.958,-19.986,-19.96,-19.971,-19.95,-19.969,-19.956,-19.973,-19.946,-19.953,-19.936,-19.954,-19.938,-19.942,-19.921,-19.929,-19.924,-19.932,-19.909,-19.909,-19.899,-19.906,-19.895,-19.89,-19.874,-19.875,-19.867,-19.874,-19.855,-19.838,-19.832,-19.832,-19.823,-19.806,-19.789,-19.782,-19.769,-19.759,-19.749,-19.721,-19.71,-19.688,-19.681,-19.652,-19.619,-19.607,-19.602,-19.59,-19.575,-19.556,-19.539,-19.524,-19.519,-19.509,-19.497,-19.485,-19.486,-19.496,-19.517,-19.52,-19.543,-19.569,-19.618,-19.657,-19.696,-19.728,-19.754,-19.792,-19.832,-19.852,-19.875,-19.898,-19.924,-19.936,-19.951,-19.938,-19.958,-19.959,-19.98,-19.978,-19.971,-19.965,-19.976,-19.976,-19.984,-19.968,-19.972,-19.973,-19.986,-19.971,-19.964,-19.957,-19.969,-19.975,-19.978,-19.961,-19.953,-19.956,-19.97,-19.963,-19.958,-19.954,-19.954,-19.957,-19.959,-19.96,-19.96,-19.95,-19.959,-19.963,-19.967,-19.955,-19.967,-19.969,-19.97,-19.97,-19.965,-19.968,-19.975,-19.979,-19.981,-19.973,-19.976,-19.984,-19.987,-19.987,-19.985,-19.98,-19.984,-19.991,-19.987,-19.984,-19.982,-19.985,-19.997,-19.996,-19.987,-19.978,-19.978,-19.995,-20,-19.998,-19.99,-19.997,-20.001,-19.999,-19.996,-19.991,-19.987,-19.997,-19.996,-19.994,-19.99,-19.993,-19.997,-20.002,-19.993,-19.99,-19.992,-19.998,-20.005,-20.005,-19.996,-20.001,-20.005,-20.017,-20.017,-20.008,-19.997,-19.998,-20.005,-20.005,-20,-20.002,-20.005,-20.014,-20.007,-20.006,-20.003,-20.004,-20.016,-20.016,-20.012,-20.003,-19.995,-20.003,-19.998,-19.995,-19.982,-19.978,-19.986,-19.982,-19.963,-19.96,-19.952,-19.925,-19.904,-19.901,-19.91,-19.931,-19.948,-19.956,-19.958,-19.954,-19.969,-19.997,-20.013,-20.033,-20.023,-20.026,-20.028,-20.042,-20.032,-20.032,-20.038,-20.042,-20.053,-20.045,-20.036,-20.036,-20.042,-20.049,-20.05,-20.04,-20.038,-20.043,-20.077,-20.111,-20.153,-20.096,-19.936,-19.713,-19.438,-19.128,-18.791,-18.718,-18.98,-19.434,-19.843,-20.122,-20.125,-20.078,-20.028,-19.977,-19.954,-19.954,-19.967,-19.983,-19.999,-19.978,-19.974,-19.967,-19.983,-19.976,-19.965,-19.956,-19.954,-19.962,-19.962,-19.948,-19.942,-19.942,-19.946,-19.939,-19.924,-19.912,-19.911,-19.913,-19.917,-19.907,-19.897,-19.889,-19.891,-19.885,-19.875,-19.855,-19.856,-19.851,-19.846,-19.83,-19.811,-19.799,-19.799,-19.788,-19.771,-19.743,-19.736,-19.725,-19.713,-19.701,-19.675,-19.655,-19.635,-19.627,-19.604,-19.587,-19.576,-19.565,-19.558,-19.547,-19.534,-19.523,-19.517,-19.522,-19.522,-19.529,-19.536,-19.565,-19.61,-19.65,-19.69,-19.721,-19.761,-19.803,-19.841,-19.867,-19.883,-19.91,-19.942,-19.957,-19.968,-19.967,-19.98,-19.989,-19.988,-19.99,-19.988,-19.988,-19.999,-20.01,-20.011,-20.004,-20.001,-19.997,-20.003,-19.998,-19.999,-19.988,-19.985,-19.995,-19.995,-19.99,-19.987,-19.988,-19.993,-19.994,-19.99,-19.98,-19.974,-19.981,-19.984,-19.988,-19.985,-19.985,-19.985,-19.994,-19.986,-19.979,-19.985,-20,-20.003,-19.992,-19.986,-19.988,-20,-20.001,-20.002,-20.002,-20.008,-20.001,-20.008,-20.006,-20.006,-20.002,-20.009,-20.02,-20.012,-20.002,-19.999,-20.001,-20.01,-20.009,-20.001,-20.004,-20.008,-20.021,-20.016,-20.016,-20.006,-20.007,-20.009,-20.01,-20.004,-19.998,-20.003,-20.007,-20.015,-20.01,-20.001,-20.002,-20.008,-20.012,-20.005,-19.996,-20.005,-20.008,-20.015,-20.014,-20.005,-20.002,-20.001,-20.008,-20.01,-19.999,-19.996,-20.003,-20.013,-20.018,-20.009,-20.002,-20,-20.003,-20.001,-20,-20.002,-20.002,-20.013,-20.017,-20.011,-19.999,-19.994,-19.988,-19.983,-19.978,-19.955,-19.95,-19.953,-19.944,-19.912,-19.878,-19.874,-19.907,-19.931,-19.942,-19.934,-19.945,-19.957,-19.96,-19.975,-19.986,-20.008,-20.019,-20.03,-20.036,-20.03,-20.029,-20.027,-20.032,-20.027,-20.025,-20.024,-20.032,-20.037,-20.04,-20.031,-20.035,-20.038,-20.037,-20.041,-20.054,-20.094,-20.123,-20.047,-19.865,-19.641,-19.382,-19.069,-18.758,-18.729,-19.047,-19.493,-19.881,-20.118,-20.121,-20.048,-19.981,-19.941,-19.94,-19.955,-19.966,-19.961,-19.963,-19.959,-19.96,-19.955,-19.947,-19.946,-19.949,-19.957,-19.954,-19.936,-19.927,-19.927,-19.935,-19.928,-19.912,-19.898,-19.895,-19.901,-19.902,-19.896,-19.885,-19.883,-19.879,-19.872,-19.863,-19.848,-19.836,-19.84,-19.834,-19.825,-19.805,-19.792,-19.792,-19.774,-19.765,-19.746,-19.736,-19.719,-19.712,-19.692,-19.67,-19.648,-19.631,-19.622,-19.596,-19.575,-19.558,-19.544,-19.544,-19.523,-19.502,-19.493,-19.481,-19.479,-19.48,-19.475,-19.473,-19.49,-19.52,-19.549,-19.577,-19.602,-19.643,-19.689,-19.731,-19.76,-19.793,-19.832,-19.867,-19.894,-19.905,-19.913,-19.925,-19.943,-19.952,-19.956,-19.952,-19.959,-19.958,-19.975,-19.974,-19.968,-19.964,-19.962,-19.967,-19.968,-19.957,-19.961,-19.961,-19.963,-19.962,-19.946,-19.947,-19.948,-19.957,-19.959,-19.948,-19.939,-19.94,-19.944,-19.943,-19.938,-19.934,-19.939,-19.944,-19.949,-19.946,-19.94,-19.94,-19.952,-19.955,-19.954,-19.944,-19.954,-19.957,-19.963,-19.962,-19.957,-19.957,-19.959,-19.97,-19.969,-19.957,-19.957,-19.958,-19.969,-19.965,-19.958,-19.962,-19.968,-19.98,-19.98,-19.97,-19.963,-19.96,-19.964,-19.967,-19.959,-19.954,-19.96,-19.975,-19.976,-19.981,-19.972,-19.971,-19.977,-19.98,-19.965,-19.962,-19.968,-19.966,-19.969,-19.97,-19.963,-19.972,-19.977,-19.977,-19.969,-19.959,-19.961,-19.965,-19.97,-19.972,-19.963,-19.967,-19.97,-19.974,-19.972,-19.963,-19.956,-19.963,-19.969,-19.962,-19.959,-19.959,-19.96,-19.969,-19.948,-19.935,-19.924,-19.928,-19.918,-19.921,-19.905,-19.867,-19.837,-19.848,-19.875,-19.891,-19.893,-19.9,-19.913,-19.915,-19.928,-19.94,-19.969,-19.981,-19.984,-19.99,-19.99,-19.983,-19.992,-20.004,-19.999,-19.993,-19.981,-19.984,-19.991,-19.996,-19.988,-19.992,-19.994,-20.007,-20.002,-19.988,-19.992,-19.998,-20.063,-20.1,-20.029,-19.854,-19.621,-19.384,-19.098,-18.73,-18.664,-18.954,-19.422,-19.826,-20.076,-20.093,-20.013,-19.964,-19.908,-19.902,-19.91,-19.92,-19.916,-19.932,-19.923,-19.916,-19.916,-19.917,-19.918,-19.912,-19.9,-19.9,-19.891,-19.901,-19.893,-19.875,-19.869,-19.873,-19.878,-19.872,-19.861,-19.861,-19.852,-19.854,-19.847,-19.833,-19.822,-19.82,-19.823,-19.814,-19.799,-19.781,-19.775,-19.772,-19.766,-19.744,-19.729,-19.716,-19.712,-19.698,-19.685,-19.656,-19.648,-19.63,-19.615,-19.596,-19.567,-19.55,-19.537,-19.525,-19.515,-19.487,-19.475,-19.466,-19.459,-19.444,-19.422,-19.426,-19.428,-19.443,-19.459,-19.476,-19.488,-19.522,-19.57,-19.613,-19.652,-19.682,-19.723,-19.761,-19.797,-19.813,-19.831,-19.856,-19.879,-19.893,-19.897,-19.903,-19.915,-19.929,-19.931,-19.927,-19.927,-19.924,-19.926,-19.939,-19.935,-19.917,-19.926,-19.929,-19.925,-19.922,-19.912,-19.914,-19.918,-19.917,-19.91,-19.896,-19.9,-19.903,-19.907,-19.906,-19.901,-19.89,-19.896,-19.902,-19.902,-19.904,-19.888,-19.887,-19.901,-19.903,-19.908,-19.899,-19.905,-19.912,-19.913,-19.911,-19.904,-19.908,-19.921,-19.923,-19.922,-19.916,-19.912,-19.92,-19.927,-19.932,-19.918,-19.918,-19.925,-19.937,-19.931,-19.923,-19.923,-19.933,-19.935,-19.938,-19.928,-19.927,-19.933,-19.939,-19.939,-19.944,-19.938,-19.937,-19.943,-19.939,-19.935,-19.932,-19.937,-19.938,-19.938,-19.937,-19.93,-19.93,-19.946,-19.945,-19.939,-19.937,-19.938,-19.95,-19.949,-19.943,-19.935,-19.94,-19.945,-19.953,-19.953,-19.94,-19.939,-19.939,-19.946,-19.927,-19.909,-19.907,-19.907,-19.912,-19.902,-19.871,-19.838,-19.822,-19.832,-19.859,-19.869,-19.874,-19.877,-19.899,-19.905,-19.916,-19.935,-19.959,-19.978,-19.976,-19.978,-19.979,-19.977,-19.986,-19.989,-19.983,-19.981,-19.986,-19.99,-19.998,-19.995,-19.987,-19.987,-19.99,-19.998,-19.993,-19.98,-19.983,-19.997,-20.055,-20.077,-19.96,-19.764,-19.517,-19.252,-18.885,-18.69,-18.751,-18.929,-19.386,-19.801,-20.085,-20.095,-20.036,-19.988,-19.928,-19.908,-19.899,-19.914,-19.92,-19.931,-19.92,-19.922,-19.914,-19.929,-19.92,-19.913,-19.89,-19.892,-19.891,-19.904,-19.9,-19.888,-19.879,-19.88,-19.884,-19.881,-19.863,-19.865,-19.855,-19.856,-19.851,-19.841,-19.834,-19.834,-19.831,-19.821,-19.802,-19.8,-19.792,-19.795,-19.784,-19.769,-19.746,-19.736,-19.729,-19.721,-19.698,-19.677,-19.662,-19.658,-19.642,-19.61,-19.59,-19.566,-19.558,-19.541,-19.526,-19.512,-19.502,-19.487,-19.481,-19.467,-19.456,-19.456,-19.458,-19.477,-19.488,-19.497,-19.533,-19.58,-19.629,-19.667,-19.695,-19.734,-19.773,-19.812,-19.844,-19.853,-19.868,-19.896,-19.92,-19.926,-19.931,-19.932,-19.942,-19.955,-19.964,-19.961,-19.948,-19.949,-19.96,-19.961,-19.96,-19.955,-19.958,-19.968,-19.956,-19.948,-19.941,-19.945,-19.958,-19.955,-19.946,-19.935,-19.942,-19.947,-19.948,-19.942,-19.932,-19.936,-19.952,-19.95,-19.947,-19.933,-19.939,-19.948,-19.959,-19.962,-19.957,-19.95,-19.949,-19.958,-19.961,-19.964,-19.963,-19.965,-19.968,-19.966,-19.963,-19.965,-19.968,-19.977,-19.973,-19.968,-19.966,-19.969,-19.986,-19.983,-19.975,-19.973,-19.973,-19.977,-19.989,-19.988,-19.982,-19.986,-19.987,-19.987,-19.985,-19.974,-19.971,-19.979,-19.987,-19.982,-19.971,-19.964,-19.958,-19.962,-19.956,-19.94,-19.93,-19.925,-19.905,-19.878,-19.863,-19.884,-19.901,-19.924,-19.928,-19.927,-19.935,-19.945,-19.973,-19.998,-20.008,-20,-20.003,-20.02,-20.021,-20.018,-20.009,-20.015,-20.022,-20.027,-20.024,-20.01,-20.015,-20.021,-20.032,-20.029,-20.022,-20.023,-20.027,-20.036,-20.038,-20.056,-20.12,-20.12,-20.078,-19.913,-19.654,-19.358,-19.029,-18.771,-18.705,-18.997,-19.447,-19.873,-20.15,-20.131,-20.079,-20.018,-19.961,-19.952,-19.95,-19.951,-19.949,-19.961,-19.959,-19.973,-19.968,-19.955,-19.95,-19.948,-19.947,-19.946,-19.934,-19.935,-19.934,-19.932,-19.927,-19.917,-19.916,-19.92,-19.921,-19.915,-19.892,-19.886,-19.882,-19.89,-19.882,-19.876,-19.865,-19.86,-19.863,-19.856,-19.832,-19.82,-19.806,-19.804,-19.788,-19.77,-19.755,-19.748,-19.743,-19.73,-19.703,-19.678,-19.667,-19.65,-19.637,-19.617,-19.588,-19.581,-19.573,-19.555,-19.543,-19.52,-19.513,-19.512,-19.505,-19.508,-19.508,-19.525,-19.559,-19.59,-19.615,-19.64,-19.664,-19.704,-19.757,-19.801,-19.833,-19.857,-19.889,-19.915,-19.932,-19.941,-19.953,-19.968,-19.983,-19.979,-19.985,-19.98,-19.993,-19.994,-19.999,-19.994,-19.99,-19.993,-20.01,-20.004,-19.999,-19.988,-19.984,-19.994,-19.996,-19.993,-19.98,-19.982,-19.988,-19.987,-19.989,-19.976,-19.977,-19.986,-19.99,-19.985,-19.977,-19.977,-19.988,-19.996,-19.999,-19.999,-19.99,-19.988,-19.989,-19.991,-19.989,-19.989,-19.992,-20.008,-20.01,-20.002,-20.006,-20.011,-20.02,-20.016,-20.013,-20.006,-20.004,-20.01,-20.015,-20.014,-20.002,-20.006,-20.018,-20.019,-20.012,-19.999,-20.005,-20.016,-20.022,-20.022,-20.012,-20.012,-20.015,-20.019,-20.018,-20.01,-20.005,-20.008,-20.013,-20.014,-20.006,-20.004,-20.005,-19.998,-19.987,-19.977,-19.976,-19.966,-19.973,-19.955,-19.908,-19.88,-19.893,-19.934,-19.938,-19.953,-19.951,-19.961,-19.969,-19.977,-19.993,-20.004,-20.024,-20.04,-20.047,-20.043,-20.04,-20.041,-20.046,-20.052,-20.05,-20.043,-20.044,-20.043,-20.049,-20.055,-20.045,-20.046,-20.051,-20.059,-20.056,-20.05,-20.08,-20.141,-20.144,-20.016,-19.791,-19.545,-19.293,-18.908,-18.72,-18.817,-19.238,-19.682,-19.869,-20.11,-20.13,-20.053,-20.005,-19.966,-19.97,-19.979,-19.978,-19.978,-19.986,-19.98,-19.979,-19.965,-19.968,-19.968,-19.974,-19.965,-19.953,-19.952,-19.958,-19.958,-19.952,-19.94,-19.935,-19.932,-19.934,-19.93,-19.917,-19.904,-19.902,-19.901,-19.896,-19.886,-19.876,-19.865,-19.873,-19.861,-19.842,-19.832,-19.828,-19.822,-19.811,-19.799,-19.771,-19.763,-19.752,-19.735,-19.716,-19.689,-19.674,-19.667,-19.642,-19.618,-19.593,-19.576,-19.57,-19.556,-19.541,-19.513,-19.505,-19.505,-19.502,-19.492,-19.485,-19.491,-19.511,-19.542,-19.566,-19.595,-19.631,-19.673,-19.721,-19.757,-19.787,-19.833,-19.862,-19.894,-19.918,-19.934,-19.932,-19.945,-19.963,-19.972,-19.978,-19.974,-19.977,-19.987,-19.991,-19.993,-19.982,-19.983,-19.995,-19.994,-19.988,-19.982,-19.983,-19.984,-19.985,-19.975,-19.964,-19.967,-19.968,-19.978,-19.973,-19.969,-19.966,-19.965,-19.972,-19.97,-19.965,-19.966,-19.963,-19.973,-19.97,-19.963,-19.964,-19.967,-19.974,-19.969,-19.963,-19.963,-19.967,-19.978,-19.981,-19.98,-19.971,-19.971,-19.986,-19.987,-19.983,-19.976,-19.976,-19.985,-19.987,-19.979,-19.973,-19.977,-19.987,-19.989,-19.985,-19.979,-19.976,-19.979,-19.985,-19.986,-19.98,-19.976,-19.978,-19.986,-19.986,-19.975,-19.978,-19.98,-19.99,-19.982,-19.97,-19.976,-19.975,-19.983,-19.981,-19.98,-19.978,-19.975,-19.979,-19.983,-19.978,-19.979,-19.974,-19.975,-19.982,-19.981,-19.968,-19.967,-19.979,-19.985,-19.978,-19.971,-19.971,-19.975,-19.98,-19.97,-19.946,-19.935,-19.937,-19.939,-19.925,-19.913,-19.894,-19.854,-19.842,-19.857,-19.884,-19.892,-19.915,-19.922,-19.925,-19.914,-19.937,-19.958,-19.988,-19.996,-19.995,-19.99,-19.995,-20.001,-20.005,-19.997,-19.995,-20,-20.009,-20.011,-20.003,-19.995,-19.999,-20.008,-20.006,-20.003,-19.995,-20,-20.009,-20.009,-20.041,-20.08,-20.07,-19.955,-19.746,-19.502,-19.244,-18.861,-18.644,-18.799,-19.234,-19.664,-19.97,-20.087,-20.041,-19.969,-19.894,-19.889,-19.9,-19.917,-19.916,-19.921,-19.903,-19.905,-19.903,-19.91
