-20.585,-20.563,-20.548,-20.54,-20.521,-20.499,-20.48,-20.47,-20.462,-20.452,-20.441,-20.433,-20.433,-20.437,-20.453,-20.473,-20.495,-20.523,-20.571,-20.605,-20.638,-20.661,-20.699,-20.728,-20.757,-20.765,-20.781,-20.795,-20.806,-20.814,-20.821,-20.819,-20.818,-20.827,-20.84,-20.842,-20.838,-20.835,-20.84,-20.848,-20.853,-20.847,-20.845,-20.848,-20.849,-20.848,-20.847,-20.837,-20.841,-20.848,-20.849,-20.838,-20.841,-20.841,-20.842,-20.842,-20.841,-20.831,-20.837,-20.836,-20.843,-20.834,-20.834,-20.824,-20.834,-20.838,-20.84,-20.826,-20.833,-20.834,-20.847,-20.843,-20.829,-20.832,-20.842,-20.85,-20.847,-20.842,-20.843,-20.843,-20.857,-20.853,-20.846,-20.844,-20.849,-20.852,-20.858,-20.852,-20.848,-20.85,-20.854,-20.86,-20.855,-20.852,-20.853,-20.862,-20.863,-20.859,-20.855,-20.862,-20.864,-20.872,-20.871,-20.86,-20.863,-20.865,-20.865,-20.845,-20.83,-20.823,-20.813,-20.817,-20.832,-20.822,-20.808,-20.79,-20.813,-20.817,-20.806,-20.799,-20.806,-20.821,-20.84,-20.855,-20.86,-20.882,-20.896,-20.901,-20.9,-20.896,-20.903,-20.906,-20.914,-20.908,-20.903,-20.906,-20.908,-20.926,-20.934,-20.931,-20.899,-20.863,-20.803,-20.675,-20.499,-20.311,-20.248,-20.553,-20.801,-21.164,-21.329,-21.286,-21.308,-21.285,-21.25,-21.187,-21.115,-21.001,-20.927,-20.872,-20.863,-20.85,-20.861,-20.852,-20.85,-20.837,-20.836,-20.832,-20.839,-20.823,-20.82,-20.8,-20.813,-20.81,-20.803,-20.788,-20.778,-20.772,-20.774,-20.762,-20.753,-20.737,-20.735,-20.73,-20.723,-20.699,-20.685,-20.68,-20.67,-20.662,-20.634,-20.622,-20.608,-20.599,-20.586,-20.561,-20.543,-20.54,-20.533,-20.528,-20.509,-20.504,-20.502,-20.529,-20.539,-20.554,-20.557,-20.586,-20.62,-20.666,-20.688,-20.711,-20.737,-20.769,-20.799,-20.81,-20.815,-20.835,-20.843,-20.858,-20.857,-20.862,-20.87,-20.879,-20.884,-20.885,-20.875,-20.878,-20.882,-20.888,-20.888,-20.883,-20.878,-20.884,-20.888,-20.897,-20.887,-20.88,-20.882,-20.888,-20.895,-20.887,-20.879,-20.883,-20.884,-20.885,-20.889,-20.884,-20.884,-20.885,-20.884,-20.878,-20.874,-20.882,-20.882,-20.883,-20.878,-20.875,-20.874,-20.878,-20.882,-20.887,-20.881,-20.883,-20.885,-20.884,-20.89,-20.89,-20.887,-20.893,-20.897,-20.9,-20.897,-20.895,-20.904,-20.906,-20.906,-20.907,-20.902,-20.9,-20.909,-20.913,-20.913,-20.906,-20.908,-20.909,-20.917,-20.911,-20.912,-20.896,-20.878,-20.873,-20.864,-20.858,-20.866,-20.863,-20.852,-20.838,-20.842,-20.845,-20.846,-20.853,-20.851,-20.852,-20.858,-20.879,-20.896,-20.917,-20.934,-20.932,-20.935,-20.942,-20.945,-20.94,-20.933,-20.937,-20.943,-20.94,-20.945,-20.946,-20.958,-20.971,-20.965,-20.937,-20.893,-20.807,-20.657,-20.492,-20.33,-20.338,-20.752,-21.151,-21.314,-21.289,-21.28,-21.287,-21.257,-21.237,-21.162,-21.074,-20.965,-20.924,-20.911,-20.902,-20.887,-20.887,-20.876,-20.882,-20.876,-20.87,-20.852,-20.852,-20.851,-20.85,-20.84,-20.83,-20.823,-20.825,-20.815,-20.798,-20.792,-20.791,-20.784,-20.781,-20.77,-20.756,-20.749,-20.733,-20.729,-20.717,-20.696,-20.678,-20.664,-20.655,-20.635,-20.617,-20.601,-20.593,-20.586,-20.576,-20.57,-20.549,-20.544,-20.538,-20.539,-20.536,-20.547,-20.57,-20.595,-20.631,-20.657,-20.679,-20.713,-20.742,-20.777,-20.79,-20.811,-20.827,-20.847,-20.861,-20.864,-20.866,-20.87,-20.881,-20.891,-20.894,-20.891,-20.891,-20.898,-20.902,-20.905,-20.898,-20.9,-20.9,-20.903,-20.907,-20.897,-20.893,-20.894,-20.894,-20.9,-20.896,-20.891,-20.888,-20.894,-20.896,-20.892,-20.878,-20.881,-20.883,-20.889,-20.881,-20.874,-20.875,-20.878,-20.879,-20.881,-20.879,-20.876,-20.879,-20.883,-20.88,-20.875,-20.875,-20.879,-20.884,-20.891,-20.881,-20.881,-20.886,-20.887,-20.897,-20.884,-20.884,-20.887,-20.893,-20.898,-20.893,-20.893,-20.897,-20.898,-20.902,-20.899,-20.894,-20.895,-20.9,-20.904,-20.902,-20.894,-20.894,-20.898,-20.899,-20.899,-20.882,-20.857,-20.855,-20.839,-20.835,-20.833,-20.842,-20.838,-20.83,-20.818,-20.824,-20.823,-20.824,-20.833,-20.838,-20.846,-20.864,-20.873,-20.899,-20.923,-20.918,-20.915,-20.921,-20.927,-20.928,-20.929,-20.922,-20.916,-20.921,-20.933,-20.929,-20.935,-20.943,-20.943,-20.909,-20.866,-20.771,-20.619,-20.41,-20.239,-20.24,-20.619,-21.067,-21.205,-21.34,-21.333,-21.322,-21.297,-21.243,-21.156,-21.032,-20.941,-20.882,-20.875,-20.865,-20.869,-20.851,-20.846,-20.836,-20.838,-20.834,-20.831,-20.819,-20.814,-20.81,-20.808,-20.793,-20.793,-20.785,-20.782,-20.777,-20.775,-20.752,-20.741,-20.736,-20.732,-20.718,-20.701,-20.686,-20.676,-20.665,-20.652,-20.638,-20.62,-20.604,-20.591,-20.578,-20.553,-20.533,-20.527,-20.514,-20.503,-20.484,-20.469,-20.468,-20.475,-20.475,-20.482,-20.497,-20.523,-20.564,-20.581,-20.611,-20.645,-20.676,-20.714,-20.746,-20.768,-20.782,-20.797,-20.813,-20.833,-20.838,-20.835,-20.842,-20.852,-20.86,-20.858,-20.857,-20.859,-20.866,-20.867,-20.874,-20.864,-20.858,-20.859,-20.864,-20.873,-20.862,-20.859,-20.859,-20.863,-20.865,-20.86,-20.85,-20.854,-20.86,-20.857,-20.856,-20.848,-20.851,-20.853,-20.863,-20.858,-20.848,-20.844,-20.849,-20.85,-20.855,-20.848,-20.845,-20.846,-20.849,-20.852,-20.849,-20.843,-20.845,-20.849,-20.852,-20.852,-20.848,-20.847,-20.851,-20.857,-20.852,-20.85,-20.849,-20.854,-20.863,-20.857,-20.855,-20.856,-20.861,-20.864,-20.86,-20.859,-20.856,-20.863,-20.868,-20.866,-20.861,-20.861,-20.86,-20.843,-20.825,-20.805,-20.79,-20.801,-20.819,-20.808,-20.787,-20.774,-20.787,-20.792,-20.79,-20.786,-20.784,-20.805,-20.824,-20.839,-20.844,-20.857,-20.879,-20.879,-20.89,-20.886,-20.878,-20.884,-20.887,-20.892,-20.884,-20.884,-20.891,-20.903,-20.914,-20.906,-20.875,-20.854,-20.801,-20.672,-20.482,-20.261,-20.148,-20.303,-20.789,-21.161,-21.309,-21.304,-21.308,-21.284,-21.223,-21.119,-20.979,-20.907,-20.863,-20.848,-20.831,-20.831,-20.822,-20.826,-20.821,-20.818,-20.795,-20.803,-20.79,-20.789,-20.779,-20.766,-20.759,-20.762,-20.758,-20.75,-20.732,-20.726,-20.722,-20.719,-20.708,-20.698,-20.685,-20.68,-20.666,-20.651,-20.627,-20.618,-20.603,-20.593,-20.569,-20.545,-20.531,-20.514,-20.504,-20.488,-20.467,-20.452,-20.448,-20.445,-20.439,-20.43,-20.423,-20.434,-20.458,-20.489,-20.517,-20.545,-20.586,-20.622,-20.665,-20.688,-20.715,-20.742,-20.768,-20.79,-20.799,-20.809,-20.818,-20.827,-20.837,-20.839,-20.844,-20.842,-20.847,-20.855,-20.855,-20.852,-20.848,-20.855,-20.859,-20.86,-20.85,-20.853,-20.85,-20.857,-20.858,-20.852,-20.85,-20.847,-20.856,-20.856,-20.857,-20.846,-20.849,-20.853,-20.855,-20.849,-20.847,-20.845,-20.855,-20.852,-20.854,-20.848,-20.847,-20.855,-20.853,-20.854,-20.852,-20.851,-20.85,-20.86,-20.86,-20.853,-20.855,-20.864,-20.866,-20.867,-20.864,-20.863,-20.864,-20.874,-20.876,-20.87,-20.869,-20.87,-20.884,-20.882,-20.877,-20.87,-20.877,-20.879,-20.882,-20.88,-20.875,-20.875,-20.882,-20.884,-20.882,-20.876,-20.877,-20.88,-20.886,-20.888,-20.87,-20.849,-20.844,-20.834,-20.828,-20.831,-20.838,-20.826,-20.816,-20.812,-20.812,-20.82,-20.812,-20.818,-20.823,-20.839,-20.86,-20.87,-20.888,-20.913,-20.907,-20.905,-20.914,-20.913,-20.919,-20.92,-20.916,-20.912,-20.924,-20.927,-20.921,-20.929,-20.943,-20.941,-20.905,-20.861,-20.762,-20.594,-20.396,-20.235,-20.263,-20.458,-20.921,-21.249,-21.332,-21.33,-21.312,-21.288,-21.234,-21.158,-21.029,-20.941,-20.886,-20.877,-20.868,-20.876,-20.856,-20.849,-20.845,-20.853,-20.845,-20.843,-20.827,-20.823,-20.813,-20.823,-20.8,-20.795,-20.785,-20.786,-20.786,-20.779,-20.76,-20.758,-20.746,-20.748,-20.736,-20.717,-20.707,-20.699,-20.689,-20.677,-20.663,-20.639,-20.626,-20.614,-20.598,-20.58,-20.567,-20.56,-20.552,-20.534,-20.528,-20.509,-20.504,-20.507,-20.513,-20.519,-20.534,-20.546,-20.575,-20.618,-20.644,-20.672,-20.7,-20.734,-20.77,-20.794,-20.809,-20.819,-20.841,-20.855,-20.864,-20.865,-20.867,-20.877,-20.884,-20.886,-20.887,-20.88,-20.89,-20.894,-20.898,-20.897,-20.898,-20.894,-20.902,-20.901,-20.91,-20.896,-20.899,-20.904,-20.904,-20.894,-20.893,-20.895,-20.903,-20.901,-20.898,-20.898,-20.897,-20.898,-20.892,-20.889,-20.886,-20.888,-20.894,-20.897,-20.891,-20.884,-20.885,-20.892,-20.901,-20.899,-20.887,-20.894,-20.905,-20.908,-20.909,-20.904,-20.897,-20.901,-20.912,-20.92,-20.914,-20.909,-20.912,-20.919,-20.918,-20.911,-20.913,-20.909,-20.921,-20.925,-20.923,-20.918,-20.922,-20.924,-20.926,-20.923,-20.92,-20.917,-20.919,-20.905,-20.892,-20.874,-20.873,-20.873,-20.891,-20.878,-20.858,-20.854,-20.862,-20.877,-20.873,-20.865,-20.857,-20.871,-20.898,-20.914,-20.914,-20.937,-20.951,-20.96,-20.966,-20.966,-20.952,-20.968,-20.967,-20.972,-20.968,-20.959,-20.965,-20.98,-20.999,-21.003,-20.981,-20.953,-20.902,-20.799,-20.642,-20.458,-20.338,-20.504,-20.985,-21.296,-21.35,-21.315,-21.318,-21.333,-21.281,-21.241,-21.171,-21.079,-21.027,-20.973,-20.938,-20.93,-20.923,-20.933,-20.925,-20.918,-20.908,-20.905,-20.901,-20.899,-20.888,-20.877,-20.87,-20.875,-20.868,-20.858,-20.841,-20.842,-20.836,-20.837,-20.821,-20.815,-20.8,-20.798,-20.792,-20.772,-20.763,-20.75,-20.738,-20.727,-20.708,-20.689,-20.672,-20.663,-20.657,-20.639,-20.621,-20.616,-20.602,-20.6,-20.598,-20.592,-20.583,-20.593,-20.618,-20.639,-20.664,-20.688,-20.715,-20.751,-20.775,-20.81,-20.826,-20.847,-20.869,-20.89,-20.901,-20.903,-20.911,-20.917,-20.936,-20.941,-20.94,-20.944,-20.948,-20.947,-20.952,-20.948,-20.944,-20.952,-20.957,-20.961,-20.957,-20.949,-20.956,-20.956,-20.955,-20.951,-20.954,-20.946,-20.953,-20.952,-20.946,-20.94,-20.945,-20.941,-20.945,-20.939,-20.935,-20.934,-20.932,-20.935,-20.936,-20.927,-20.923,-20.927,-20.933,-20.934,-20.935,-20.929,-20.934,-20.941,-20.941,-20.932,-20.935,-20.933,-20.941,-20.942,-20.937,-20.938,-20.942,-20.951,-20.952,-20.944,-20.94,-20.939,-20.947,-20.955,-20.953,-20.947,-20.948,-20.955,-20.953,-20.954,-20.949,-20.946,-20.95,-20.949,-20.928,-20.906,-20.898,-20.892,-20.902,-20.904,-20.898,-20.877,-20.875,-20.883,-20.886,-20.885,-20.878,-20.882,-20.891,-20.913,-20.923,-20.932,-20.959,-20.98,-20.979,-20.976,-20.975,-20.974,-20.984,-20.983,-20.982,-20.978,-20.975,-20.976,-20.985,-20.991,-20.997,-20.989,-20.951,-20.899,-20.784,-20.612,-20.409,-20.294,-20.436,-20.898,-21.249,-21.38,-21.368,-21.369,-21.372,-21.325,-21.275,-21.177,-21.073,-20.988,-20.944,-20.921,-20.927,-20.925,-20.923,-20.904,-20.905,-20.891,-20.896,-20.889,-20.878,-20.869,-20.871,-20.863,-20.859,-20.844,-20.836,-20.829,-20.826,-20.82,-20.806,-20.791,-20.787,-20.785,-20.774,-20.758,-20.739,-20.723,-20.719,-20.7,-20.684,-20.67,-20.653,-20.633,-20.624,-20.605,-20.587,-20.565,-20.553,-20.544,-20.535,-20.524,-20.519,-20.523,-20.535,-20.554,-20.576,-20.605,-20.644,-20.679,-20.697,-20.728,-20.752,-20.782,-20.809,-20.838,-20.854,-20.863,-20.872,-20.886,-20.899,-20.903,-20.905,-20.908,-20.916,-20.92,-20.918,-20.915,-20.911,-20.919,-20.925,-20.928,-20.921,-20.922,-20.924,-20.932,-20.927,-20.92,-20.916,-20.916,-20.918,-20.926,-20.912,-20.911,-20.911,-20.915,-20.911,-20.91,-20.906,-20.907,-20.91,-20.914,-20.909,-20.906,-20.903,-20.909,-20.915,-20.91,-20.899,-20.903,-20.912,-20.918,-20.915,-20.909,-20.909,-20.917,-20.919,-20.916,-20.911,-20.915,-20.917,-20.92,-20.922,-20.92,-20.917,-20.925,-20.929,-20.93,-20.926,-20.92,-20.924,-20.933,-20.931,-20.926,-20.921,-20.929,-20.93,-20.931,-20.93,-20.921,-20.924,-20.927,-20.93,-20.929,-20.924,-20.922,-20.929,-20.93,-20.925,-20.926,-20.926,-20.929,-20.93,-20.916,-20.901,-20.885,-20.87,-20.874,-20.874,-20.884,-20.874,-20.86,-20.854,-20.859,-20.862,-20.859,-20.858,-20.865,-20.878,-20.889,-20.907,-20.921,-20.949,-20.96,-20.956,-20.947,-20.96,-20.958,-20.969,-20.963,-20.955,-20.953,-20.961,-20.965,-20.974,-20.975,-20.987,-20.965,-20.934,-20.864,-20.719,-20.524,-20.324,-20.238,-20.453,-20.923,-21.137,-21.336,-21.38,-21.368,-21.357,-21.298,-21.245,-21.112,-21.025,-20.942,-20.925,-20.908,-20.915,-20.901,-20.903,-20.884,-20.889,-20.878,-20.888,-20.863,-20.867,-20.852,-20.859,-20.852,-20.848,-20.831,-20.831,-20.825,-20.825,-20.812,-20.802,-20.786,-20.778,-20.777,-20.766,-20.748,-20.733,-20.72,-20.708,-20.701,-20.684,-20.66,-20.649,-20.629,-20.615,-20.591,-20.577,-20.559,-20.55,-20.538,-20.521,-20.509,-20.5,-20.51,-20.512,-20.529,-20.549,-20.581,-20.602,-20.642,-20.679,-20.705,-20.734,-20.766,-20.793,-20.815,-20.833,-20.849,-20.86,-20.879,-20.884,-20.889,-20.89,-20.902,-20.907,-20.915,-20.907,-20.903,-20.904,-20.919,-20.919,-20.917,-20.908,-20.913,-20.914,-20.918,-20.907,-20.908,-20.906,-20.91,-20.912,-20.904,-20.897,-20.899,-20.904,-20.904,-20.898,-20.897,-20.893,-20.896,-20.898,-20.899,-20.891,-20.893,-20.892,-20.9,-20.9,-20.893,-20.891,-20.894,-20.904,-20.906,-20.898,-20.899,-20.899,-20.905,-20.911,-20.907,-20.904,-20.905,-20.908,-20.912,-20.908,-20.905,-20.908,-20.916,-20.919,-20.914,-20.91,-20.915,-20.919,-20.926,-20.913,-20.916,-20.919,-20.925,-20.928,-20.928,-20.922,-20.919,-20.926,-20.935,-20.935,-20.925,-20.924,-20.925,-20.933,-20.931,-20.922,-20.922,-20.925,-20.93,-20.928,-20.924,-20.92,-20.92,-20.925,-20.929,-20.923,-20.919,-20.921,-20.916,-20.9,-20.88,-20.868,-20.858,-20.871,-20.878,-20.859,-20.84,-20.834,-20.851,-20.856,-20.846,-20.839,-20.838,-20.857,-20.885,-20.898,-20.902,-20.919,-20.937,-20.941,-20.943,-20.938,-20.936,-20.943,-20.949,-20.944,-20.941,-20.937,-20.942,-20.962,-20.977,-20.977,-20.945,-20.911,-20.857,-20.735,-20.545,-20.341,-20.225,-20.413,-20.891,-21.242,-21.372,-21.358,-21.358,-21.339,-21.279,-21.188,-21.054,-20.983,-20.947,-20.925,-20.906,-20.904,-20.897,-20.903,-20.884,-20.882,-20.872,-20.867,-20.859,-20.859,-20.847,-20.842,-20.832,-20.834,-20.823,-20.814,-20.808,-20.811,-20.805,-20.797,-20.783,-20.772,-20.758,-20.759,-20.748,-20.732,-20.707,-20.703,-20.683,-20.676,-20.655,-20.635,-20.622,-20.604,-20.595,-20.577,-20.558,-20.554,-20.541,-20.534,-20.517,-20.516,-20.507,-20.516,-20.541,-20.561,-20.579,-20.607,-20.656,-20.691,-20.722,-20.749,-20.773,-20.794,-20.828,-20.842,-20.85,-20.86,-20.877,-20.885,-20.898,-20.905,-20.905,-20.905,-20.913,-20.916,-20.919,-20.915,-20.917,-20.923,-20.924,-20.92,-20.919,-20.921,-20.931,-20.933,-20.928,-20.92,-20.922,-20.922,-20.923,-20.92,-20.917,-20.913,-20.908,-20.918,-20.919,-20.905,-20.901,-20.912,-20.916,-20.918,-20.908,-20.901,-20.905,-20.907,-20.914,-20.909,-20.904,-20.9,-20.914,-20.916,-20.92,-20.91,-20.913,-20.922,-20.924,-20.913,-20.906,-20.907,-20.926,-20.933,-20.931,-20.921,-20.922,-20.926,-20.931,-20.937,-20.93,-20.933,-20.93,-20.934,-20.934,-20.94,-20.934,-20.93,-20.943,-20.94,-20.935,-20.936,-20.943,-20.941,-20.944,-20.941,-20.944,-20.94,-20.948,-20.949,-20.95,-20.938,-20.944,-20.947,-20.95,-20.931,-20.914,-20.91,-20.906,-20.909,-20.916,-20.901,-20.894,-20.881,-20.89,-20.885,-20.892,-20.887,-20.885,-20.903,-20.912,-20.917,-20.933,-20.953,-20.986,-20.978,-20.974,-20.978,-20.976,-20.994,-20.989,-20.983,-20.979,-20.985,-20.99,-20.998,-21.001,-21.015,-21.002,-20.973,-20.934,-20.843,-20.689,-20.521,-20.371,-20.404,-20.819,-21.215,-21.366,-21.344,-21.338,-21.35,-21.307,-21.275,-21.24,-21.182,-21.073,-20.997,-20.955,-20.961,-20.946,-20.954,-20.929,-20.939,-20.924,-20.937,-20.922,-20.917,-20.9,-20.903,-20.898,-20.904,-20.89,-20.882,-20.864,-20.869,-20.864,-20.863,-20.851,-20.836,-20.828,-20.822,-20.814,-20.801,-20.783,-20.772,-20.756,-20.749,-20.724,-20.714,-20.703,-20.692,-20.672,-20.655,-20.648,-20.64,-20.633,-20.626,-20.608,-20.594,-20.607,-20.611,-20.622,-20.633,-20.657,-20.687,-20.729,-20.754,-20.78,-20.801,-20.835,-20.859,-20.874,-20.892,-20.904,-20.911,-20.935,-20.948,-20.953,-20.946,-20.958,-20.963,-20.977,-20.97,-20.968,-20.967,-20.976,-20.974,-20.975,-20.972,-20.977,-20.975,-20.979,-20.986,-20.979,-20.974,-20.979,-20.973,-20.984,-20.973,-20.969,-20.97,-20.98,-20.979,-20.973,-20.966,-20.967,-20.973,-20.971,-20.966,-20.965,-20.96,-20.966,-20.965,-20.965,-20.962,-20.959,-20.962,-20.968,-20.967,-20.958,-20.958,-20.964,-20.969,-20.968,-20.965,-20.964,-20.97,-20.979,-20.979,-20.976,-20.972,-20.979,-20.982,-20.987,-20.98,-20.976,-20.98,-20.989,-20.993,-20.981,-20.984,-20.983,-20.99,-20.99,-20.982,-20.982,-20.986,-20.996,-20.997,-20.991,-20.985,-20.982,-20.978,-20.962,-20.953,-20.928,-20.927,-20.938,-20.945,-20.93,-20.902,-20.91,-20.922,-20.932,-20.92,-20.915,-20.925,-20.944,-20.961,-20.97,-20.974,-20.99,-21.005,-21.006,-21.013,-21.005,-21.007,-21.011,-21.014,-21.016,-21.01,-21.008,-21.019,-21.031,-21.044,-21.018,-20.999,-20.959,-20.927,-20.825,-20.563,-20.378,-20.356,-20.706,-21.142,-21.359,-21.374,-21.357,-21.37,-21.345,-21.307,-21.223,-21.125,-21.03,-20.985,-20.959,-20.953,-20.941,-20.943,-20.942,-20.938,-20.92,-20.918,-20.905,-20.911,-20.899,-20.893,-20.876,-20.873,-20.87,-20.868,-20.853,-20.841,-20.832,-20.832,-20.82,-20.816,-20.796,-20.79,-20.783,-20.774,-20.76,-20.739,-20.721,-20.709,-20.695,-20.678,-20.651,-20.633,-20.622,-20.613,-20.595,-20.574,-20.559,-20.55,-20.547,-20.541,-20.538,-20.536,-20.551,-20.577,-20.603,-20.633,-20.662,-20.697,-20.74,-20.763,-20.8,-20.814,-20.84,-20.864,-20.88,-20.889,-20.897,-20.907,-20.918,-20.932,-20.932,-20.925,-20.926,-20.93,-20.939,-20.939,-20.931,-20.932,-20.945,-20.947,-20.95,-20.938,-20.939,-20.941,-20.947,-20.938,-20.934,-20.929,-20.932,-20.934,-20.934,-20.926,-20.928,-20.923,-20.935,-20.935,-20.93,-20.921,-20.919,-20.924,-20.928,-20.922,-20.919,-20.921,-20.925,-20.928,-20.926,-20.921,-20.916,-20.925,-20.933,-20.926,-20.924,-20.926,-20.936,-20.939,-20.938,-20.937,-20.931,-20.938,-20.941,-20.938,-20.936,-20.935,-20.945,-20.947,-20.946,-20.941,-20.939,-20.938,-20.945,-20.95,-20.941,-20.939,-20.938,-20.948,-20.949,-20.947,-20.942,-20.939,-20.943,-20.945,-20.941,-20.928,-20.916,-20.907,-20.896,-20.891,-20.876,-20.882,-20.886,-20.876,-20.861,-20.855,-20.865,-20.872,-20.87,-20.87,-20.872,-20.887,-20.914,-20.932,-20.948,-20.956,-20.951,-20.956,-20.971,-20.973,-20.966,-20.966,-20.972,-20.974,-20.972,-20.972,-20.97,-20.985,-20.997,-20.986,-20.946,-20.881,-20.76,-20.577,-20.364,-20.24,-20.249,-20.573,-21.05,-21.323,-21.394,-21.386,-21.377,-21.333,-21.271,-21.134,-21.017,-20.949,-20.927,-20.927,-20.919,-20.911,-20.902,-20.897,-20.9,-20.901,-20.886,-20.875,-20.869,-20.871,-20.866,-20.86,-20.846,-20.84,-20.838,-20.83,-20.821,-20.81,-20.8,-20.8,-20.798,-20.776,-20.76,-20.748,-20.742,-20.737,-20.722,-20.698,-20.682,-20.668,-20.655,-20.635,-20.613,-20.592,-20.576,-20.566,-20.554,-20.525,-20.511,-20.504,-20.504,-20.503,-20.506,-20.522,-20.53,-20.564,-20.597,-20.634,-20.662,-20.705,-20.742,-20.775,-20.8,-20.815,-20.838,-20.863,-20.878,-20.887,-20.89,-20.9,-20.907,-20.916,-20.915,-20.915,-20.919,-20.919,-20.929,-20.932,-20.922,-20.922,-20.929,-20.93,-20.929,-20.926,-20.921,-20.925,-20.931,-20.93,-20.921,-20.92,-20.916,-20.92,-20.924,-20.92,-20.916,-20.915,-20.924,-20.923,-20.915,-20.912,-20.909,-20.914,-20.911,-20.913,-20.906,-20.91,-20.919,-20.92,-20.917,-20.914,-20.914,-20.924,-20.92,-20.925,-20.92,-20.918,-20.925,-20.93,-20.933,-20.919,-20.923,-20.931,-20.94,-20.937,-20.933,-20.935,-20.938,-20.941,-20.943,-20.933,-20.938,-20.936,-20.947,-20.949,-20.946,-20.939,-20.934,-20.947,-20.949,-20.946,-20.938,-20.943,-20.948,-20.947,-20.942,-20.922,-20.906,-20.899,-20.889,-20.891,-20.9,-20.898,-20.888,-20.881,-20.884,-20.875,-20.877,-20.879,-20.886,-20.891,-20.908,-20.921,-20.934,-20.964,-20.973,-20.975,-20.975,-20.971,-20.986,-20.981,-20.976,-20.976,-20.98,-20.98,-20.982,-20.981,-20.978,-21.003,-20.98,-20.95,-20.895,-20.771,-20.59,-20.4,-20.274,-20.411,-20.88,-21.258,-21.396,-21.382,-21.375,-21.374,-21.324,-21.287,-21.189,-21.082,-20.995,-20.955,-20.94,-20.943,-20.936,-20.923,-20.908,-20.92,-20.917,-20.906,-20.896,-20.892,-20.885,-20.885,-20.882,-20.873,-20.86,-20.852,-20.851,-20.848,-20.84,-20.82,-20.817,-20.817,-20.808,-20.784,-20.773,-20.764,-20.757,-20.746,-20.721,-20.704,-20.701,-20.691,-20.672,-20.648,-20.628,-20.614,-20.605,-20.601,-20.586,-20.561,-20.56,-20.549,-20.552,-20.561,-20.576,-20.591,-20.626,-20.656,-20.685,-20.714,-20.73,-20.761,-20.8,-20.827,-20.846,-20.864,-20.888,-20.903,-20.913,-20.917,-20.92,-20.933,-20.943,-20.944,-20.94,-20.937,-20.941,-20.948,-20.963,-20.961,-20.951,-20.95,-20.952,-20.966,-20.966,-20.958,-20.948,-20.949,-20.967,-20.961,-20.947,-20.945,-20.948,-20.956,-20.96,-20.947,-20.944,-20.942,-20.941,-20.948,-20.944,-20.943,-20.941,-20.945,-20.944,-20.944,-20.946,-20.942,-20.947,-20.958,-20.955,-20.947,-20.948,-20.963,-20.965,-20.96,-20.958,-20.956,-20.96,-20.966,-20.972,-20.962,-20.965,-20.971,-20.977,-20.977,-20.969,-20.97,-20.969,-20.974,-20.973,-20.966,-20.969,-20.97,-20.959,-20.937,-20.921,-20.92,-20.917,-20.936,-20.935,-20.916,-20.893,-20.901,-20.916,-20.918,-20.911,-20.91,-20.922,-20.944,-20.966,-20.972,-20.991,-20.999,-21.001,-21.003,-21.012,-21.007,-21.002,-21.005,-21.019,-21.02,-21.015,-21.008,-21.02,-21.04,-21.051,-21.025,-20.985,-20.935,-20.828,-20.667,-20.482,-20.379,-20.573,-21.05,-21.229,-21.381,-21.359,-21.346,-21.372,-21.335,-21.31,-21.231,-21.161,-21.054,-21.018,-20.979,-20.974,-20.956,-20.975,-20.961,-20.961,-20.941,-20.951,-20.943,-20.952,-20.933,-20.931,-20.916,-20.918,-20.909,-20.901,-20.884,-20.884,-20.876,-20.88,-20.865,-20.851,-20.836,-20.832,-20.824,-20.815,-20.793,-20.783,-20.774,-20.758,-20.746,-20.726,-20.707,-20.694,-20.684,-20.671,-20.656,-20.632,-20.626,-20.621,-20.616,-20.613,-20.607,-20.618,-20.642,-20.669,-20.693,-20.703,-20.734,-20.774,-20.809,-20.832,-20.857,-20.874,-20.892,-20.922,-20.934,-20.936,-20.943,-20.951,-20.967,-20.968,-20.968,-20.963,-20.971,-20.978,-20.985,-20.98,-20.977,-20.975,-20.981,-20.983,-20.986,-20.978,-20.983,-20.984,-20.982,-20.977,-20.972,-20.969,-20.979,-20.979,-20.98,-20.973,-20.971,-20.973,-20.978,-20.973,-20.972,-20.971,-20.968,-20.971,-20.97,-20.959,-20.954,-20.959,-20.972,-20.967,-20.963,-20.957,-20.966,-20.971,-20.972,-20.966,-20.966,-20.97,-20.969,-20.98,-20.979,-20.968,-20.974,-20.974,-20.978,-20.974,-20.978,-20.977,-20.981,-20.981,-20.979,-20.97,-20.975,-20.979,-20.99,-20.989,-20.982,-20.963,-20.949,-20.949,-20.928,-20.914,-20.923,-20.926,-20.918,-20.912,-20.904,-20.907,-20.918,-20.916,-20.92,-20.92,-20.935,-20.96,-20.973,-20.994,-21,-21,-21.002,-21.007,-21.011,-21.011,-21.009,-21.011,-21.011,-21.021,-21.017,-21.016,-21.025,-21.043,-21.039,-21.001,-20.948,-20.845,-20.691,-20.583,-20.392,-20.313,-20.576,-21.039,-21.349,-21.423,-21.408,-21.401,-21.377,-21.328,-21.242,-21.108,-21.028,-20.983,-20.974,-20.964,-20.957,-20.945,-20.945,-20.945,-20.944,-20.935,-20.921,-20.914,-20.914,-20.91,-20.903,-20.887,-20.88,-20.878,-20.876,-20.872,-20.859,-20.849,-20.842,-20.837,-20.823,-20.809,-20.8,-20.794,-20.78,-20.765,-20.746,-20.73,-20.71,-20.703,-20.682,-20.66,-20.641,-20.626,-20.617,-20.604,-20.579,-20.568,-20.559,-20.565,-20.558,-20.557,-20.567,-20.583,-20.618,-20.659,-20.686,-20.719,-20.756,-20.792,-20.822,-20.849,-20.866,-20.883,-20.904,-20.919,-20.927,-20.931,-20.941,-20.957,-20.961,-20.961,-20.955,-20.954,-20.958,-20.972,-20.966,-20.963,-20.962,-20.967,-20.97,-20.971,-20.968,-20.965,-20.958,-20.969,-20.972,-20.961,-20.958,-20.959,-20.958,-20.96,-20.957,-20.95,-20.95,-20.955,-20.958,-20.952,-20.944,-20.946,-20.949,-20.952,-20.951,-20.947,-20.946,-20.948,-20.956,-20.954,-20.947,-20.949,-20.955,-20.964,-20.959,-20.957,-20.959,-20.957,-20.964,-20.962,-20.956,-20.96,-20.962,-20.971,-20.974,-20.969,-20.966,-20.968,-20.98,-20.978,-20.975,-20.972,-20.977,-20.975,-20.979,-20.979,-20.977,-20.971,-20.979,-20.979,-20.976,-20.974,-20.976,-20.977,-20.986,-20.976,-20.974,-20.958,-20.944,-20.938,-20.929,-20.911,-20.917,-20.931,-20.928,-20.915,-20.897,-20.903,-20.914,-20.917,-20.916,-20.913,-20.925,-20.947,-20.968,-20.987,-21.002,-21.004,-21.007,-21.011,-21.019,-21.018,-21.013,-21.015,-21.02,-21.025,-21.023,-21.02,-21.027,-21.041,-21.048,-21.022,-20.973,-20.894,-20.754,-20.548,-20.346,-20.284,-20.552,-20.804,-21.224,-21.447,-21.433,-21.449,-21.405,-21.375,-21.273,-21.144,-21.029,-20.994,-20.962,-20.973,-20.95,-20.952,-20.937,-20.946,-20.932,-20.925,-20.914,-20.915,-20.906,-20.912,-20.891,-20.883,-20.874,-20.881,-20.872,-20.866,-20.845,-20.841,-20.83,-20.826,-20.817,-20.805,-20.789,-20.779,-20.769,-20.762,-20.744,-20.728,-20.715,-20.703,-20.687,-20.657,-20.634,-20.62,-20.61,-20.592,-20.578,-20.559,-20.55,-20.55,-20.542,-20.533,-20.54,-20.561,-20.589,-20.607,-20.635,-20.669,-20.706,-20.743,-20.777,-20.805,-20.827,-20.844,-20.873,-20.892,-20.9,-20.906,-20.914,-20.922,-20.937,-20.936,-20.935,-20.938,-20.943,-20.944,-20.944,-20.941,-20.944,-20.947,-20.95,-20.948,-20.944,-20.938,-20.946,-20.954,-20.948,-20.938,-20.944,-20.945,-20.948,-20.943,-20.934,-20.928,-20.933,-20.934,-20.947,-20.936,-20.934,-20.935,-20.94,-20.94,-20.942,-20.934,-20.938,-20.94,-20.945,-20.941,-20.937,-20.935,-20.944,-20.945,-20.947,-20.945,-20.943,-20.945,-20.949,-20.949,-20.948,-20.944,-20.945,-20.95,-20.948,-20.945,-20.945,-20.946,-20.955,-20.958,-20.947,-20.946,-20.952,-20.955,-20.957,-20.956,-20.954,-20.947,-20.956,-20.964,-20.961,-20.951,-20.952,-20.959,-20.959,-20.955,-20.951,-20.956,-20.961,-20.963,-20.961,-20.957,-20.95,-20.939,-20.933,-20.921,-20.902,-20.896,-20.906,-20.917,-20.903,-20.882,-20.878,-20.892,-20.905,-20.897,-20.893,-20.897,-20.921,-20.946,-20.957,-20.965,-20.982,-20.987,-20.992,-21.001,-20.996,-20.992,-20.997,-21.001,-20.996,-20.998,-20.994,-21.004,-21.014,-21.03,-21.015,-20.978,-20.938,-20.846,-20.688,-20.477,-20.366,-20.277,-20.499,-20.993,-21.322,-21.434,-21.413,-21.416,-21.384,-21.339,-21.217,-21.101,-21.01,-20.974,-20.958,-20.953,-20.937,-20.937,-20.934,-20.935,-20.926,-20.925,-20.912,-20.91,-20.907,-20.902,-20.887,-20.883,-20.876,-20.877,-20.863,-20.855,-20.845,-20.846,-20.838,-20.829,-20.812,-20.8,-20.797,-20.792,-20.781,-20.764,-20.747,-20.734,-20.72,-20.711,-20.689,-20.667,-20.661,-20.647,-20.633,-20.615,-20.594,-20.592,-20.585,-20.581,-20.573,-20.572,-20.575,-20.596,-20.624,-20.642,-20.674,-20.701,-20.745,-20.775,-20.81,-20.829,-20.85,-20.871,-20.902,-20.913,-20.921,-20.932,-20.951,-20.954,-20.953,-20.955,-20.959,-20.959,-20.972,-20.969,-20.964,-20.962,-20.977,-20.983,-20.986,-20.971,-20.967,-20.976,-20.985,-20.982,-20.982,-20.972,-20.977,-20.977,-20.979,-20.973,-20.968,-20.967,-20.973,-20.981,-20.979,-20.97,-20.969,-20.968,-20.971,-20.969,-20.966,-20.969,-20.974,-20.976,-20.975,-20.964,-20.973,-20.984,-20.985,-20.983,-20.979,-20.971,-20.982,-20.991,-20.983,-20.982,-20.983,-20.989,-21,-21,-20.992,-20.986,-20.991,-21.004,-21.006,-20.995,-20.995,-20.998,-21.003,-21.011,-21.013,-20.998,-21.001,-21.01,-21.014,-21.01,-21.005,-21.001,-21.007,-21.011,-21.01,-21.01,-21.01,-21.017,-21.014,-20.994,-20.97,-20.971,-20.957,-20.962,-20.974,-20.962,-20.948,-20.938,-20.953,-20.958,-20.965,-20.947,-20.95,-20.969,-20.988,-20.995,-20.997,-21.03,-21.051,-21.048,-21.046,-21.048,-21.042,-21.054,-21.06,-21.06,-21.048,-21.053,-21.059,-21.073,-21.074,-21.084,-21.068,-21.04,-20.991,-20.883,-20.721,-20.558,-20.425,-20.554,-20.799,-21.211,-21.441,-21.417,-21.427,-21.416,-21.404,-21.352,-21.297,-21.223,-21.121,-21.046,-21.027,-21.017,-21.024,-21.013,-21.006,-20.995,-20.994,-20.994,-20.998,-20.987,-20.972,-20.968,-20.965,-20.967,-20.961,-20.943,-20.936,-20.93,-20.934,-20.916,-20.9,-20.904,-20.894,-20.889,-20.878,-20.852,-20.842,-20.841,-20.844,-20.824,-20.801,-20.787,-20.773,-20.772,-20.752,-20.734,-20.722,-20.712,-20.708,-20.698,-20.692,-20.677,-20.68,-20.685,-20.69,-20.715,-20.727,-20.755,-20.786,-20.82,-20.853,-20.872,-20.897,-20.925,-20.948,-20.965,-20.971,-20.989,-21.01,-21.013,-21.022,-21.023,-21.028,-21.038,-21.043,-21.044,-21.04,-21.039,-21.047,-21.044,-21.053,-21.049,-21.048,-21.045,-21.05,-21.051,-21.045,-21.043,-21.045,-21.048,-21.049,-21.042,-21.035,-21.041,-21.044,-21.043,-21.039,-21.032,-21.03,-21.029,-21.035,-21.034,-21.025,-21.027,-21.033,-21.041,-21.028,-21.028,-21.032,-21.036,-21.041,-21.036,-21.033,-21.036,-21.038,-21.046,-21.047,-21.042,-21.036,-21.032,-21.04,-21.043,-21.043,-21.044,-21.049,-21.051,-21.057,-21.053,-21.05,-21.053,-21.056,-21.056,-21.05,-21.048,-21.05,-21.051,-21.057,-21.047,-21.047,-21.05,-21.056,-21.06,-21.041,-21.018,-21.005,-20.993,-20.988,-21.006,-20.995,-20.983,-20.981,-20.977,-20.979,-20.978,-20.98,-20.986,-20.991,-21,-21.015,-21.025,-21.037,-21.065,-21.076,-21.068,-21.071,-21.076,-21.078,-21.081,-21.071,-21.07,-21.072,-21.082,-21.087,-21.086,-21.095,-21.096,-21.082,-21.049,-20.979,-20.842,-20.658,-20.477,-20.42,-20.703,-21.15,-21.414,-21.457,-21.449,-21.443,-21.411,-21.372,-21.307,-21.262,-21.156,-21.068,-21.031,-21.018,-21.018,-21.017,-21.008,-20.998,-20.994,-20.988,-20.988,-20.972,-20.965,-20.959,-20.96,-20.953,-20.938,-20.928,-20.93,-20.924,-20.919,-20.909,-20.895,-20.884,-20.875,-20.866,-20.856,-20.833,-20.824,-20.809,-20.802,-20.777,-20.757,-20.751,-20.736,-20.722,-20.706,-20.696,-20.676,-20.661,-20.657,-20.644,-20.625,-20.613,-20.618,-20.628,-20.637,-20.646,-20.671,-20.708,-20.745,-20.776,-20.803,-20.835,-20.864,-20.895,-20.914,-20.921,-20.934,-20.95,-20.97,-20.98,-20.986,-20.989,-20.99,-20.999,-21.007,-21.007,-20.995,-21.005,-21.008,-21.012,-21.01,-21.002,-21.006,-21.007,-21.013,-21.013,-21.006,-21.005,-21.009,-21.009,-21.011,-21.001,-20.998,-21,-21.006,-21.001,-20.997,-20.991,-20.989,-20.999,-20.994,-20.993,-20.988,-20.988,-20.988,-20.995,-20.991,-20.985,-20.99,-20.995,-21.001,-20.996,-20.988,-20.987,-20.998,-20.999,-21.001,-21,-21.002,-21.008,-21.004,-21.004,-21.004,-21.004,-21.004,-21.011,-21.015,-21.01,-21.004,-21.013,-21.015,-21.011,-21.004,-21.003,-21.004,-21.008,-21.009,-21.006,-21.004,-21.007,-21.009,-21.017,-21.014,-21.001,-21.005,-21.008,-21.018,-21.009,-20.991,-20.978,-20.968,-20.952,-20.935,-20.939,-20.943,-20.945,-20.935,-20.921,-20.927,-20.937,-20.933,-20.94,-20.935,-20.938,-20.959,-20.981,-20.992,-21.009,-21.023,-21.021,-21.024,-21.034,-21.033,-21.033,-21.028,-21.031,-21.039,-21.035,-21.033,-21.037,-21.053,-21.06,-21.036,-20.995,-20.933,-20.815,-20.63,-20.424,-20.309,-20.445,-20.913,-21.297,-21.465,-21.458,-21.451,-21.424,-21.37,-21.272,-21.129,-21.046,-21.01,-21,-20.982,-20.986,-20.968,-20.969,-20.962,-20.965,-20.949,-20.943,-20.924,-20.926,-20.923,-20.922,-20.903,-20.902,-20.898,-20.899,-20.888,-20.874,-20.869,-20.86,-20.86,-20.851,-20.835,-20.822,-20.808,-20.801,-20.785,-20.771,-20.756,-20.732,-20.72,-20.706,-20.684,-20.665,-20.644,-20.631,-20.621,-20.61,-20.59,-20.581,-20.57,-20.572,-20.569,-20.572,-20.582,-20.605,-20.645,-20.678,-20.705,-20.738,-20.777,-20.815,-20.845,-20.867,-20.885,-20.907,-20.919,-20.93,-20.939,-20.943,-20.954,-20.964,-20.972,-20.969,-20.968,-20.967,-20.979,-20.978,-20.981,-20.975,-20.975,-20.983,-20.983,-20.97,-20.968,-20.969,-20.976,-20.974,-20.979,-20.971,-20.966,-20.97,-20.977,-20.969,-20.968,-20.96,-20.96,-20.969,-20.972,-20.965,-20.962,-20.961,-20.969,-20.972,-20.966,-20.963,-20.963,-20.967,-20.974,-20.967,-20.965,-20.966,-20.972,-20.977,-20.972,-20.964,-20.971,-20.972,-20.979,-20.974,-20.97,-20.974,-20.979,-20.984,-20.982,-20.976,-20.973,-20.979,-20.981,-20.985,-20.982,-20.976,-20.98,-20.987,-20.987,-20.981,-20.982,-20.986,-20.988,-20.988,-20.97,-20.953,-20.935,-20.926,-20.925,-20.925,-20.933,-20.926,-20.921,-20.912,-20.914,-20.908,-20.909,-20.916,-20.921,-20.933,-20.945,-20.963,-20.981,-21.011,-21.016,-21.019,-21.018,-21.017,-21.023,-21.029,-21.027,-21.018,-21.025,-21.032,-21.03,-21.035,-21.037,-21.053,-21.035,-21.001,-20.933,-20.791,-20.594,-20.393,-20.298,-20.522,-21.001,-21.212,-21.422,-21.458,-21.445,-21.438,-21.375,-21.316,-21.178,-21.077,-21.006,-20.997,-20.978,-20.992,-20.962,-20.968,-20.949,-20.959,-20.945,-20.95,-20.937,-20.939,-20.932,-20.935,-20.92,-20.911,-20.901,-20.896,-20.898,-20.901,-20.878,-20.868,-20.855,-20.861,-20.84,-20.834,-20.825,-20.81,-20.799,-20.789,-20.779,-20.756,-20.736,-20.726,-20.705,-20.694,-20.669,-20.659,-20.654,-20.647,-20.626,-20.608,-20.602,-20.602,-20.607,-20.612,-20.627,-20.65,-20.685,-20.701,-20.729,-20.767,-20.799,-20.828,-20.862,-20.893,-20.91,-20.927,-20.946,-20.959,-20.965,-20.973,-20.981,-20.985,-20.995,-20.998,-20.989,-20.992,-20.995,-20.998,-21.008,-21.009,-21.005,-20.997,-21.01,-21.011,-21.011,-20.998,-21.003,-21.005,-21.014,-21.006,-20.999,-21.001,-21.011,-21.008,-21.008,-20.997,-20.998,-20.997,-21.008,-21.011,-21.002,-20.996,-20.992,-21.002,-21.01,-21.003,-21.008,-21.003,-21.012,-21.001,-21.001,-21.007,-21.01,-21.009,-21.017,-21.013,-21.023,-21.017,-21.02,-21.021,-21.019,-21.015,-21.014,-21.021,-21.028,-21.031,-21.023,-21.024,-21.034,-21.038,-21.034,-21.028,-21.03,-21.032,-21.028,-21.01,-20.993,-20.973,-20.976,-20.992,-20.989,-20.972,-20.958,-20.971,-20.977,-20.981,-20.971,-20.967,-20.984,-21.01,-21.026,-21.026,-21.045,-21.052,-21.065,-21.073,-21.077,-21.068,-21.073,-21.075,-21.075,-21.075,-21.071,-21.069,-21.081,-21.093,-21.097,-21.093,-21.055,-21.02,-20.922,-20.764,-20.573,-20.484,-20.434,-20.769,-21.228,-21.443,-21.45,-21.433,-21.449,-21.423,-21.383,-21.318,-21.236,-21.136,-21.09,-21.038,-21.034,-21.028,-21.04,-21.025,-21.021,-21.011,-21.009,-21.01,-21.008,-20.998,-20.991,-20.981,-20.981,-20.975,-20.962,-20.955,-20.945,-20.943,-20.941,-20.929,-20.915,-20.908,-20.902,-20.892,-20.89,-20.868,-20.855,-20.848,-20.838,-20.824,-20.8,-20.787,-20.773,-20.772,-20.752,-20.732,-20.716,-20.707,-20.704,-20.692,-20.68,-20.686,-20.696,-20.708,-20.723,-20.747,-20.763,-20.8,-20.834,-20.867,-20.892,-20.914,-20.938,-20.968,-20.984,-20.985,-20.998,-21.016,-21.024,-21.038,-21.037,-21.041,-21.04,-21.047,-21.053,-21.06,-21.051,-21.054,-21.06,-21.062,-21.063,-21.055,-21.054,-21.056,-21.066,-21.064,-21.048,-21.054,-21.056,-21.061,-21.058,-21.054,-21.045,-21.047,-21.048,-21.049,-21.039,-21.033,-21.031,-21.036,-21.039,-21.036,-21.034,-21.036,-21.039,-21.04,-21.036,-21.032,-21.037,-21.044,-21.045,-21.046,-21.038,-21.035,-21.042,-21.05,-21.051,-21.045,-21.045,-21.045,-21.051,-21.051,-21.045,-21.044,-21.047,-21.053,-21.049,-21.045,-21.033,-21.023,-21.02,-21.006,-20.987,-20.984,-20.995,-20.99,-20.982,-20.964,-20.976,-20.98,-20.982,-20.985,-20.978,-20.995,-21.017,-21.035,-21.052,-21.068,-21.061,-21.071,-21.073,-21.079,-21.081,-21.076,-21.073,-21.077,-21.086,-21.081,-21.08,-21.083,-21.099,-21.112,-21.087,-21.048,-20.982,-20.845,-20.663,-20.474,-20.425,-20.529,-20.977,-21.352,-21.476,-21.457,-21.445,-21.447,-21.41,-21.361,-21.251,-21.139,-21.063,-21.046,-21.03,-21.025,-21.009,-21.009,-21,-21.003,-20.996,-20.99,-20.971,-20.982,-20.967,-20.967,-20.953,-20.943,-20.936,-20.939,-20.929,-20.912,-20.905,-20.9,-20.894,-20.879,-20.864,-20.852,-20.841,-20.834,-20.824,-20.811,-20.789,-20.771,-20.76,-20.745,-20.726,-20.702,-20.686,-20.676,-20.656,-20.641,-20.63,-20.627,-20.621,-20.623,-20.626,-20.636,-20.661,-20.673,-20.707,-20.743,-20.771,-20.805,-20.838,-20.868,-20.895,-20.909,-20.931,-20.947,-20.963,-20.976,-20.984,-20.986,-20.994,-21.001,-21.007,-20.999,-21.008,-21.007,-21.014,-21.015,-21.012,-21.006,-21.01,-21.01,-21.018,-21.012,-21.008,-21,-21.007,-21.007,-21.001,-20.995,-20.997,-21.001,-20.999,-20.993,-20.994,-20.991,-20.994,-20.999,-20.997,-20.987,-20.984,-20.99,-20.998,-20.994,-20.988,-20.989,-20.989,-20.995,-20.993,-20.987,-20.991,-20.994,-21.005,-21.004,-21.002,-20.996,-20.992,-21.005,-21.007,-21.008,-21.002,-21.001,-21.012,-21.015,-21.008,-21.002,-21.004,-21.013,-21.015,-21.014,-21.006,-21.008,-21.016,-21.021,-21.013,-20.994,-20.977,-20.966,-20.954,-20.954,-20.955,-20.948,-20.944,-20.934,-20.939,-20.941,-20.94,-20.939,-20.947,-20.961,-20.975,-20.984,-20.991,-21.016,-21.044,-21.039,-21.028,-21.042,-21.049,-21.051,-21.045,-21.041,-21.043,-21.047,-21.052,-21.056,-21.061,-21.07,-21.053,-21.021,-20.958,-20.904,-20.745,-20.528,-20.354,-20.336,-20.688,-21.154,-21.416,-21.48,-21.476,-21.452,-21.406,-21.332,-21.2,-21.092,-21.028,-21.006,-20.997,-20.993,-20.991,-20.983,-20.975,-20.97,-20.972,-20.963,-20.957,-20.953,-20.943,-20.935,-20.933,-20.925,-20.913,-20.905,-20.903,-20.901,-20.885,-20.869,-20.863,-20.855,-20.855,-20.843,-20.825,-20.811,-20.798,-20.788,-20.775,-20.751,-20.734,-20.719,-20.704,-20.689,-20.664,-20.651,-20.635,-20.626,-20.607,-20.594,-20.586,-20.584,-20.587,-20.598,-20.609,-20.627,-20.663,-20.704,-20.733,-20.769,-20.803,-20.837,-20.869,-20.897,-20.912,-20.925,-20.944,-20.963,-20.978,-20.979,-20.978,-20.984,-20.988,-20.997,-20.996,-20.99,-20.991,-20.997,-21.006,-21.001,-20.995,-20.996,-20.995,-21.003,-21,-20.991,-20.991,-20.995,-20.999,-20.997,-20.991,-20.987,-20.982,-20.99,-20.991,-20.983,-20.979,-20.975,-20.984,-20.986,-20.975,-20.975,-20.977,-20.986,-20.987,-20.984,-20.981,-20.985,-20.99,-20.992,-20.992,-20.985,-20.983,-20.984,-20.996,-20.993,-20.996,-20.991,-20.999,-21.001,-21.001,-21.001,-20.992,-21.003,-21.006,-21.002,-21,-21.003,-21.008,-21.011,-21.013,-21.007,-21.007,-21.006,-21.016,-21.016,-21.01,-21.007,-21.007,-21,-20.982,-20.967,-20.947,-20.947,-20.967,-20.962,-20.949,-20.93,-20.928,-20.939,-20.95,-20.944,-20.938,-20.94,-20.953,-20.99,-20.996,-21.014,-21.035,-21.038,-21.053,-21.048,-21.043,-21.035,-21.052,-21.056,-21.054,-21.049,-21.051,-21.058,-21.066,-21.076,-21.077,-21.048,-21.016,-20.946,-20.791,-20.574,-20.367,-20.32,-20.655,-21.131,-21.41,-21.48,-21.471,-21.474,-21.433,-21.407,-21.314,-21.189,-21.095,-21.048,-21.025,-21.012,-21.006,-21.008,-21.004,-20.996,-20.989,-20.975,-20.977,-20.974,-20.969,-20.959,-20.95,-20.947,-20.947,-20.947,-20.937,-20.924,-20.916,-20.915,-20.907,-20.896,-20.879,-20.873,-20.867,-20.854,-20.837,-20.828,-20.81,-20.799,-20.783,-20.765,-20.739,-20.729,-20.722,-20.706,-20.694,-20.682,-20.658,-20.649,-20.656,-20.649,-20.64,-20.635,-20.655,-20.678,-20.702,-20.731,-20.769,-20.798,-20.841,-20.872,-20.894,-20.908,-20.932,-20.962,-20.975,-20.985,-21,-21.011,-21.023,-21.038,-21.037,-21.034,-21.042,-21.053,-21.057,-21.053,-21.054,-21.054,-21.06,-21.062,-21.062,-21.058,-21.057,-21.065,-21.07,-21.063,-21.052,-21.056,-21.057,-21.063,-21.057,-21.057,-21.055,-21.056,-21.058,-21.059,-21.046,-21.048,-21.057,-21.057,-21.055,-21.047,-21.045,-21.054,-21.059,-21.062,-21.053,-21.05,-21.053,-21.063,-21.067,-21.068,-21.055,-21.062,-21.07,-21.078,-21.075,-21.065,-21.071,-21.074,-21.083,-21.078,-21.079,-21.075,-21.079,-21.082,-21.088,-21.081,-21.086,-21.094,-21.099,-21.093,-21.094,-21.1,-21.101,-21.096,-21.102,-21.086,-21.086,-21.091,-21.096,-21.081,-21.064,-21.049,-21.038,-21.049,-21.061,-21.046,-21.032,-21.019,-21.035,-21.044,-21.033,-21.038,-21.033,-21.062,-21.08,-21.08,-21.082,-21.11,-21.13,-21.137,-21.133,-21.133,-21.128,-21.139,-21.142,-21.146,-21.132,-21.136,-21.145,-21.161,-21.171,-21.171,-21.153,-21.12,-21.066,-21.005,-20.854,-20.656,-20.515,-20.575,-21.03,-21.406,-21.536,-21.501,-21.505,-21.51,-21.464,-21.424,-21.352,-21.268,-21.177,-21.127,-21.111,-21.105,-21.094,-21.104,-21.089,-21.09,-21.077,-21.078,-21.08,-21.075,-21.066,-21.053,-21.051,-21.046,-21.049,-21.036,-21.032,-21.028,-21.016,-21.01,-20.999,-20.99,-20.988,-20.987,-20.975,-20.961,-20.942,-20.933,-20.922,-20.908,-20.889,-20.872,-20.858,-20.851,-20.834,-20.815,-20.801,-20.789,-20.785,-20.775,-20.764,-20.759,-20.763,-20.773,-20.793,-20.807,-20.83,-20.858,-20.891,-20.928,-20.957,-20.978,-21.005,-21.032,-21.053,-21.073,-21.081,-21.09,-21.108,-21.118,-21.126,-21.121,-21.121,-21.126,-21.139,-21.142,-21.131,-21.134,-21.141,-21.145,-21.146,-21.139,-21.135,-21.139,-21.142,-21.142,-21.137,-21.127,-21.131,-21.142,-21.141,-21.137,-21.129,-21.121,-21.126,-21.127,-21.123,-21.119,-21.112,-21.114,-21.122,-21.117,-21.116,-21.11,-21.114,-21.121,-21.117,-21.114,-21.115,-21.12,-21.119,-21.119,-21.111,-21.113,-21.111,-21.123,-21.124,-21.117,-21.117,-21.123,-21.128,-21.135,-21.126,-21.119,-21.125,-21.121,-21.128,-21.12,-21.124,-21.123,-21.132,-21.133,-21.132,-21.125,-21.125,-21.132,-21.132,-21.136,-21.137,-21.128,-21.133,-21.143,-21.136,-21.128,-21.129,-21.137,-21.13,-21.117,-21.107,-21.091,-21.08,-21.088,-21.094,-21.084,-21.071,-21.067,-21.08,-21.079,-21.077,-21.074,-21.076,-21.085,-21.105,-21.112,-21.116,-21.144,-21.165,-21.164,-21.162,-21.161,-21.161,-21.168,-21.17,-21.17,-21.159,-21.165,-21.17,-21.177,-21.184,-21.191,-21.177,-21.147,-21.096,-20.979,-20.806,-20.616,-20.496,-20.517,-20.882,-21.311,-21.527,-21.555,-21.546,-21.541,-21.502,-21.462,-21.374,-21.274
