-20.306,-20.321,-20.322,-20.318,-20.309,-20.318,-20.321,-20.329,-20.329,-20.321,-20.319,-20.328,-20.333,-20.349,-20.358,-20.331,-20.298,-20.24,-20.107,-19.913,-19.726,-19.649,-19.958,-20.398,-20.635,-20.651,-20.621,-20.642,-20.64,-20.631,-20.582,-20.526,-20.429,-20.345,-20.298,-20.274,-20.264,-20.271,-20.263,-20.25,-20.245,-20.239,-20.235,-20.234,-20.227,-20.224,-20.223,-20.224,-20.212,-20.202,-20.191,-20.186,-20.179,-20.176,-20.16,-20.145,-20.142,-20.144,-20.13,-20.11,-20.092,-20.075,-20.068,-20.055,-20.034,-20.026,-20.016,-20.002,-19.988,-19.959,-19.937,-19.925,-19.925,-19.917,-19.915,-19.895,-19.897,-19.908,-19.922,-19.939,-19.962,-19.99,-20.027,-20.066,-20.078,-20.101,-20.126,-20.141,-20.178,-20.2,-20.212,-20.216,-20.227,-20.233,-20.253,-20.25,-20.252,-20.25,-20.261,-20.267,-20.264,-20.258,-20.257,-20.257,-20.263,-20.257,-20.261,-20.254,-20.257,-20.262,-20.251,-20.254,-20.252,-20.253,-20.254,-20.26,-20.256,-20.245,-20.241,-20.244,-20.254,-20.244,-20.24,-20.243,-20.242,-20.242,-20.23,-20.227,-20.23,-20.235,-20.238,-20.227,-20.224,-20.229,-20.231,-20.235,-20.232,-20.228,-20.241,-20.243,-20.254,-20.248,-20.247,-20.249,-20.253,-20.252,-20.255,-20.247,-20.249,-20.253,-20.252,-20.257,-20.25,-20.25,-20.254,-20.256,-20.254,-20.249,-20.251,-20.255,-20.254,-20.253,-20.254,-20.259,-20.254,-20.261,-20.254,-20.255,-20.254,-20.25,-20.255,-20.258,-20.257,-20.251,-20.253,-20.256,-20.254,-20.254,-20.245,-20.24,-20.23,-20.223,-20.207,-20.189,-20.19,-20.205,-20.203,-20.183,-20.174,-20.181,-20.193,-20.187,-20.18,-20.177,-20.188,-20.222,-20.237,-20.243,-20.257,-20.272,-20.274,-20.272,-20.284,-20.276,-20.275,-20.278,-20.279,-20.286,-20.275,-20.271,-20.282,-20.302,-20.305,-20.288,-20.252,-20.187,-20.051,-19.851,-19.637,-19.571,-19.664,-20.11,-20.49,-20.619,-20.6,-20.603,-20.627,-20.591,-20.551,-20.453,-20.357,-20.28,-20.246,-20.222,-20.219,-20.21,-20.214,-20.203,-20.205,-20.196,-20.196,-20.178,-20.19,-20.178,-20.172,-20.154,-20.151,-20.147,-20.142,-20.129,-20.119,-20.114,-20.114,-20.113,-20.089,-20.075,-20.066,-20.054,-20.051,-20.034,-20.011,-20,-19.995,-19.982,-19.96,-19.933,-19.912,-19.898,-19.887,-19.874,-19.865,-19.852,-19.84,-19.832,-19.823,-19.828,-19.846,-19.86,-19.882,-19.911,-19.94,-19.978,-20.012,-20.046,-20.073,-20.094,-20.115,-20.136,-20.151,-20.166,-20.167,-20.176,-20.186,-20.2,-20.2,-20.2,-20.197,-20.2,-20.207,-20.212,-20.208,-20.205,-20.203,-20.212,-20.213,-20.209,-20.2,-20.204,-20.208,-20.215,-20.217,-20.213,-20.206,-20.211,-20.217,-20.212,-20.203,-20.197,-20.209,-20.208,-20.21,-20.199,-20.195,-20.2,-20.201,-20.201,-20.193,-20.202,-20.2,-20.197,-20.196,-20.193,-20.192,-20.197,-20.196,-20.197,-20.198,-20.192,-20.19,-20.202,-20.206,-20.204,-20.202,-20.2,-20.205,-20.208,-20.205,-20.205,-20.204,-20.212,-20.213,-20.209,-20.208,-20.206,-20.21,-20.209,-20.213,-20.213,-20.21,-20.215,-20.218,-20.216,-20.217,-20.217,-20.22,-20.221,-20.221,-20.222,-20.218,-20.216,-20.224,-20.218,-20.222,-20.221,-20.222,-20.225,-20.223,-20.21,-20.195,-20.178,-20.182,-20.172,-20.175,-20.182,-20.167,-20.154,-20.146,-20.155,-20.151,-20.147,-20.16,-20.161,-20.167,-20.189,-20.194,-20.21,-20.227,-20.251,-20.246,-20.243,-20.244,-20.248,-20.247,-20.235,-20.243,-20.247,-20.256,-20.258,-20.263,-20.273,-20.281,-20.248,-20.21,-20.164,-20.031,-19.829,-19.616,-19.511,-19.735,-20.181,-20.496,-20.6,-20.588,-20.596,-20.593,-20.551,-20.473,-20.354,-20.262,-20.205,-20.197,-20.192,-20.191,-20.182,-20.177,-20.168,-20.171,-20.161,-20.149,-20.129,-20.133,-20.121,-20.127,-20.119,-20.111,-20.102,-20.093,-20.094,-20.082,-20.075,-20.062,-20.059,-20.055,-20.049,-20.036,-20.015,-20.002,-19.987,-19.974,-19.956,-19.93,-19.918,-19.904,-19.888,-19.866,-19.844,-19.83,-19.818,-19.807,-19.791,-19.779,-19.784,-19.781,-19.78,-19.788,-19.801,-19.83,-19.869,-19.916,-19.945,-19.974,-20.011,-20.035,-20.067,-20.085,-20.098,-20.115,-20.135,-20.148,-20.155,-20.152,-20.155,-20.158,-20.167,-20.171,-20.17,-20.167,-20.17,-20.173,-20.183,-20.177,-20.172,-20.176,-20.178,-20.181,-20.181,-20.18,-20.186,-20.183,-20.181,-20.176,-20.172,-20.176,-20.178,-20.18,-20.174,-20.172,-20.166,-20.169,-20.174,-20.177,-20.171,-20.169,-20.168,-20.168,-20.169,-20.161,-20.165,-20.169,-20.172,-20.173,-20.171,-20.164,-20.17,-20.177,-20.179,-20.174,-20.174,-20.179,-20.182,-20.184,-20.183,-20.188,-20.191,-20.192,-20.195,-20.192,-20.19,-20.189,-20.195,-20.191,-20.196,-20.193,-20.193,-20.193,-20.198,-20.195,-20.189,-20.189,-20.192,-20.199,-20.194,-20.193,-20.199,-20.199,-20.206,-20.197,-20.193,-20.194,-20.19,-20.2,-20.202,-20.195,-20.193,-20.195,-20.199,-20.197,-20.174,-20.155,-20.143,-20.136,-20.141,-20.15,-20.138,-20.125,-20.12,-20.131,-20.129,-20.131,-20.125,-20.127,-20.138,-20.153,-20.165,-20.176,-20.192,-20.213,-20.214,-20.213,-20.221,-20.218,-20.227,-20.218,-20.219,-20.22,-20.223,-20.229,-20.238,-20.237,-20.246,-20.245,-20.222,-20.171,-20.05,-19.862,-19.622,-19.463,-19.556,-19.996,-20.409,-20.584,-20.597,-20.61,-20.596,-20.544,-20.464,-20.394,-20.293,-20.214,-20.184,-20.167,-20.172,-20.157,-20.159,-20.141,-20.141,-20.133,-20.131,-20.121,-20.12,-20.112,-20.117,-20.114,-20.102,-20.082,-20.081,-20.075,-20.067,-20.06,-20.047,-20.031,-20.026,-20.017,-20.012,-19.992,-19.982,-19.963,-19.949,-19.929,-19.912,-19.892,-19.876,-19.862,-19.846,-19.824,-19.809,-19.793,-19.781,-19.774,-19.757,-19.739,-19.731,-19.742,-19.751,-19.77,-19.79,-19.825,-19.865,-19.909,-19.939,-19.958,-19.99,-20.037,-20.064,-20.075,-20.085,-20.096,-20.105,-20.12,-20.126,-20.128,-20.132,-20.14,-20.144,-20.151,-20.148,-20.148,-20.149,-20.156,-20.152,-20.148,-20.148,-20.148,-20.144,-20.15,-20.146,-20.145,-20.143,-20.148,-20.15,-20.148,-20.146,-20.145,-20.146,-20.147,-20.142,-20.142,-20.138,-20.144,-20.141,-20.139,-20.137,-20.134,-20.13,-20.143,-20.142,-20.148,-20.143,-20.15,-20.151,-20.15,-20.145,-20.14,-20.14,-20.15,-20.156,-20.152,-20.147,-20.149,-20.152,-20.154,-20.156,-20.154,-20.156,-20.163,-20.161,-20.152,-20.152,-20.158,-20.162,-20.169,-20.165,-20.16,-20.168,-20.168,-20.171,-20.166,-20.161,-20.155,-20.161,-20.171,-20.173,-20.165,-20.167,-20.165,-20.167,-20.171,-20.163,-20.156,-20.163,-20.165,-20.167,-20.151,-20.132,-20.122,-20.112,-20.107,-20.118,-20.114,-20.104,-20.1,-20.099,-20.106,-20.115,-20.104,-20.109,-20.114,-20.128,-20.151,-20.167,-20.181,-20.202,-20.204,-20.205,-20.21,-20.215,-20.214,-20.213,-20.209,-20.21,-20.214,-20.223,-20.229,-20.23,-20.244,-20.234,-20.208,-20.161,-20.043,-19.866,-19.64,-19.461,-19.522,-19.962,-20.398,-20.584,-20.601,-20.616,-20.6,-20.57,-20.519,-20.403,-20.298,-20.211,-20.185,-20.166,-20.163,-20.162,-20.154,-20.136,-20.137,-20.135,-20.135,-20.119,-20.119,-20.117,-20.119,-20.108,-20.094,-20.092,-20.084,-20.085,-20.079,-20.07,-20.058,-20.046,-20.048,-20.033,-20.026,-20.012,-20.003,-19.991,-19.982,-19.96,-19.936,-19.925,-19.9,-19.892,-19.884,-19.859,-19.832,-19.831,-19.816,-19.811,-19.795,-19.774,-19.774,-19.784,-19.793,-19.802,-19.827,-19.856,-19.904,-19.935,-19.961,-19.995,-20.029,-20.045,-20.083,-20.103,-20.106,-20.13,-20.14,-20.161,-20.166,-20.175,-20.165,-20.182,-20.192,-20.191,-20.184,-20.195,-20.19,-20.191,-20.198,-20.197,-20.203,-20.204,-20.201,-20.197,-20.191,-20.187,-20.197,-20.204,-20.195,-20.192,-20.194,-20.193,-20.191,-20.196,-20.197,-20.199,-20.187,-20.195,-20.195,-20.188,-20.194,-20.187,-20.198,-20.2,-20.196,-20.193,-20.194,-20.198,-20.2,-20.201,-20.201,-20.198,-20.199,-20.202,-20.208,-20.204,-20.207,-20.206,-20.224,-20.219,-20.213,-20.212,-20.209,-20.219,-20.216,-20.217,-20.214,-20.216,-20.216,-20.225,-20.222,-20.219,-20.226,-20.229,-20.23,-20.228,-20.223,-20.211,-20.21,-20.204,-20.193,-20.177,-20.177,-20.193,-20.187,-20.172,-20.159,-20.159,-20.172,-20.176,-20.181,-20.173,-20.178,-20.199,-20.222,-20.227,-20.243,-20.261,-20.273,-20.272,-20.275,-20.267,-20.271,-20.27,-20.28,-20.274,-20.272,-20.275,-20.294,-20.313,-20.322,-20.301,-20.278,-20.234,-20.119,-19.941,-19.74,-19.612,-19.64,-20.036,-20.465,-20.646,-20.613,-20.603,-20.629,-20.61,-20.579,-20.509,-20.412,-20.321,-20.283,-20.258,-20.26,-20.232,-20.235,-20.228,-20.224,-20.222,-20.213,-20.214,-20.216,-20.206,-20.194,-20.19,-20.192,-20.185,-20.179,-20.162,-20.166,-20.149,-20.144,-20.133,-20.122,-20.116,-20.106,-20.102,-20.096,-20.078,-20.065,-20.043,-20.042,-20.026,-20.008,-19.991,-19.968,-19.951,-19.94,-19.931,-19.915,-19.909,-19.907,-19.912,-19.894,-19.894,-19.903,-19.932,-19.951,-19.985,-20.019,-20.041,-20.072,-20.102,-20.133,-20.159,-20.177,-20.207,-20.227,-20.23,-20.238,-20.254,-20.249,-20.271,-20.274,-20.278,-20.28,-20.277,-20.286,-20.289,-20.289,-20.287,-20.29,-20.301,-20.305,-20.304,-20.297,-20.299,-20.305,-20.305,-20.302,-20.292,-20.29,-20.294,-20.3,-20.294,-20.289,-20.292,-20.292,-20.293,-20.288,-20.282,-20.284,-20.288,-20.286,-20.291,-20.277,-20.277,-20.282,-20.292,-20.291,-20.288,-20.283,-20.29,-20.297,-20.295,-20.288,-20.29,-20.286,-20.303,-20.301,-20.299,-20.299,-20.297,-20.3,-20.308,-20.305,-20.303,-20.305,-20.314,-20.316,-20.31,-20.304,-20.316,-20.313,-20.308,-20.289,-20.27,-20.257,-20.258,-20.272,-20.267,-20.252,-20.229,-20.244,-20.249,-20.255,-20.243,-20.24,-20.248,-20.275,-20.294,-20.298,-20.316,-20.324,-20.329,-20.333,-20.338,-20.331,-20.329,-20.336,-20.336,-20.337,-20.333,-20.336,-20.339,-20.347,-20.37,-20.357,-20.331,-20.294,-20.18,-20.009,-19.802,-19.716,-19.69,-20.063,-20.474,-20.655,-20.638,-20.635,-20.664,-20.647,-20.616,-20.537,-20.456,-20.357,-20.314,-20.274,-20.268,-20.26,-20.273,-20.26,-20.264,-20.249,-20.249,-20.24,-20.239,-20.223,-20.224,-20.209,-20.219,-20.21,-20.208,-20.184,-20.178,-20.175,-20.17,-20.148,-20.145,-20.137,-20.132,-20.126,-20.116,-20.092,-20.077,-20.064,-20.053,-20.036,-20.019,-20.006,-19.988,-19.973,-19.959,-19.941,-19.923,-19.919,-19.912,-19.905,-19.901,-19.904,-19.927,-19.945,-19.963,-19.993,-20.013,-20.051,-20.085,-20.123,-20.142,-20.167,-20.182,-20.209,-20.222,-20.231,-20.232,-20.249,-20.255,-20.266,-20.267,-20.267,-20.264,-20.268,-20.274,-20.282,-20.275,-20.271,-20.27,-20.279,-20.277,-20.277,-20.273,-20.276,-20.278,-20.278,-20.273,-20.274,-20.278,-20.28,-20.276,-20.268,-20.264,-20.264,-20.267,-20.266,-20.26,-20.259,-20.26,-20.264,-20.27,-20.261,-20.256,-20.258,-20.267,-20.266,-20.259,-20.255,-20.257,-20.274,-20.274,-20.275,-20.267,-20.266,-20.269,-20.273,-20.269,-20.274,-20.277,-20.278,-20.285,-20.282,-20.274,-20.271,-20.277,-20.288,-20.287,-20.279,-20.275,-20.275,-20.275,-20.28,-20.271,-20.258,-20.244,-20.234,-20.225,-20.222,-20.227,-20.222,-20.218,-20.215,-20.215,-20.207,-20.208,-20.212,-20.217,-20.229,-20.241,-20.255,-20.263,-20.287,-20.296,-20.288,-20.287,-20.292,-20.302,-20.297,-20.298,-20.289,-20.294,-20.3,-20.299,-20.301,-20.313,-20.322,-20.304,-20.265,-20.183,-20.115,-19.944,-19.713,-19.575,-19.703,-20.157,-20.5,-20.639,-20.615,-20.625,-20.625,-20.588,-20.526,-20.413,-20.314,-20.251,-20.23,-20.23,-20.224,-20.218,-20.207,-20.2,-20.204,-20.194,-20.188,-20.178,-20.172,-20.169,-20.167,-20.157,-20.146,-20.145,-20.141,-20.137,-20.123,-20.109,-20.105,-20.093,-20.092,-20.089,-20.068,-20.052,-20.047,-20.035,-20.021,-19.998,-19.988,-19.973,-19.954,-19.935,-19.919,-19.9,-19.886,-19.876,-19.859,-19.844,-19.831,-19.828,-19.831,-19.839,-19.854,-19.871,-19.898,-19.93,-19.97,-20.006,-20.035,-20.067,-20.092,-20.123,-20.144,-20.152,-20.163,-20.181,-20.195,-20.2,-20.203,-20.204,-20.209,-20.217,-20.219,-20.216,-20.215,-20.219,-20.224,-20.229,-20.222,-20.216,-20.215,-20.221,-20.228,-20.222,-20.217,-20.217,-20.22,-20.22,-20.211,-20.208,-20.213,-20.214,-20.218,-20.214,-20.211,-20.21,-20.211,-20.216,-20.211,-20.205,-20.202,-20.204,-20.207,-20.208,-20.206,-20.207,-20.209,-20.212,-20.215,-20.206,-20.209,-20.212,-20.212,-20.216,-20.211,-20.212,-20.213,-20.224,-20.224,-20.221,-20.222,-20.221,-20.226,-20.232,-20.229,-20.223,-20.226,-20.229,-20.23,-20.229,-20.227,-20.23,-20.234,-20.234,-20.238,-20.23,-20.227,-20.23,-20.221,-20.205,-20.181,-20.17,-20.166,-20.172,-20.182,-20.168,-20.145,-20.144,-20.158,-20.16,-20.164,-20.154,-20.159,-20.172,-20.196,-20.205,-20.211,-20.241,-20.257,-20.253,-20.253,-20.253,-20.254,-20.262,-20.264,-20.262,-20.259,-20.257,-20.261,-20.272,-20.278,-20.291,-20.282,-20.261,-20.208,-20.075,-19.877,-19.647,-19.516,-19.66,-20.104,-20.474,-20.619,-20.616,-20.634,-20.637,-20.597,-20.535,-20.413,-20.313,-20.249,-20.213,-20.197,-20.194,-20.188,-20.187,-20.172,-20.167,-20.164,-20.165,-20.152,-20.148,-20.134,-20.145,-20.139,-20.136,-20.133,-20.119,-20.109,-20.107,-20.097,-20.084,-20.072,-20.063,-20.054,-20.047,-20.029,-20.016,-20.003,-19.992,-19.982,-19.956,-19.935,-19.913,-19.908,-19.899,-19.885,-19.866,-19.845,-19.833,-19.826,-19.816,-19.8,-19.799,-19.806,-19.818,-19.842,-19.86,-19.892,-19.931,-19.973,-20.012,-20.037,-20.062,-20.075,-20.102,-20.127,-20.148,-20.152,-20.158,-20.175,-20.179,-20.186,-20.179,-20.18,-20.192,-20.195,-20.192,-20.195,-20.192,-20.197,-20.202,-20.198,-20.194,-20.188,-20.188,-20.195,-20.199,-20.19,-20.185,-20.189,-20.193,-20.194,-20.184,-20.186,-20.187,-20.193,-20.195,-20.186,-20.177,-20.186,-20.19,-20.193,-20.185,-20.183,-20.182,-20.188,-20.191,-20.185,-20.186,-20.187,-20.191,-20.194,-20.186,-20.194,-20.193,-20.195,-20.197,-20.191,-20.194,-20.197,-20.196,-20.2,-20.204,-20.2,-20.201,-20.201,-20.203,-20.205,-20.199,-20.203,-20.202,-20.206,-20.208,-20.2,-20.203,-20.206,-20.209,-20.209,-20.205,-20.207,-20.208,-20.206,-20.216,-20.211,-20.21,-20.213,-20.213,-20.213,-20.208,-20.204,-20.208,-20.208,-20.216,-20.205,-20.204,-20.197,-20.184,-20.178,-20.158,-20.149,-20.152,-20.162,-20.16,-20.15,-20.131,-20.135,-20.147,-20.149,-20.154,-20.145,-20.154,-20.174,-20.197,-20.204,-20.221,-20.23,-20.232,-20.237,-20.245,-20.244,-20.242,-20.24,-20.246,-20.242,-20.242,-20.238,-20.247,-20.259,-20.275,-20.264,-20.229,-20.173,-20.048,-19.851,-19.615,-19.479,-19.617,-20.082,-20.323,-20.554,-20.611,-20.601,-20.625,-20.585,-20.531,-20.378,-20.281,-20.21,-20.206,-20.181,-20.186,-20.169,-20.178,-20.159,-20.165,-20.141,-20.143,-20.136,-20.14,-20.125,-20.121,-20.103,-20.105,-20.096,-20.102,-20.083,-20.075,-20.064,-20.063,-20.056,-20.042,-20.023,-20.021,-20.011,-19.996,-19.979,-19.96,-19.955,-19.944,-19.928,-19.915,-19.89,-19.868,-19.855,-19.838,-19.822,-19.802,-19.79,-19.786,-19.778,-19.773,-19.765,-19.768,-19.797,-19.822,-19.848,-19.862,-19.903,-19.938,-19.979,-20.012,-20.037,-20.057,-20.084,-20.104,-20.123,-20.132,-20.142,-20.145,-20.158,-20.164,-20.167,-20.158,-20.168,-20.172,-20.173,-20.168,-20.165,-20.169,-20.174,-20.175,-20.177,-20.174,-20.173,-20.169,-20.176,-20.167,-20.163,-20.165,-20.17,-20.171,-20.173,-20.158,-20.161,-20.162,-20.169,-20.164,-20.162,-20.157,-20.161,-20.165,-20.166,-20.158,-20.162,-20.159,-20.167,-20.166,-20.165,-20.166,-20.167,-20.169,-20.181,-20.167,-20.168,-20.168,-20.176,-20.178,-20.174,-20.169,-20.172,-20.172,-20.184,-20.183,-20.176,-20.176,-20.183,-20.186,-20.183,-20.18,-20.177,-20.186,-20.189,-20.185,-20.182,-20.183,-20.183,-20.19,-20.192,-20.184,-20.18,-20.186,-20.192,-20.193,-20.19,-20.188,-20.183,-20.192,-20.192,-20.191,-20.189,-20.193,-20.194,-20.19,-20.187,-20.183,-20.183,-20.181,-20.169,-20.159,-20.141,-20.133,-20.133,-20.143,-20.137,-20.125,-20.112,-20.124,-20.126,-20.127,-20.119,-20.12,-20.142,-20.159,-20.17,-20.175,-20.19,-20.216,-20.22,-20.225,-20.219,-20.218,-20.217,-20.224,-20.226,-20.22,-20.215,-20.22,-20.227,-20.243,-20.249,-20.227,-20.193,-20.165,-20.067,-19.892,-19.653,-19.476,-19.54,-19.977,-20.411,-20.586,-20.6,-20.613,-20.609,-20.555,-20.463,-20.334,-20.246,-20.188,-20.175,-20.158,-20.155,-20.154,-20.152,-20.139,-20.133,-20.124,-20.122,-20.12,-20.113,-20.1,-20.097,-20.088,-20.084,-20.085,-20.073,-20.065,-20.062,-20.056,-20.051,-20.045,-20.027,-20.014,-20.006,-19.997,-19.985,-19.963,-19.945,-19.94,-19.928,-19.909,-19.888,-19.867,-19.862,-19.844,-19.827,-19.807,-19.788,-19.78,-19.773,-19.768,-19.759,-19.748,-19.761,-19.785,-19.803,-19.826,-19.86,-19.896,-19.94,-19.974,-19.994,-20.017,-20.041,-20.067,-20.089,-20.099,-20.104,-20.119,-20.125,-20.129,-20.132,-20.132,-20.146,-20.141,-20.155,-20.151,-20.145,-20.139,-20.146,-20.154,-20.15,-20.144,-20.147,-20.15,-20.152,-20.144,-20.145,-20.147,-20.149,-20.15,-20.148,-20.143,-20.139,-20.141,-20.14,-20.148,-20.14,-20.139,-20.132,-20.143,-20.136,-20.139,-20.14,-20.146,-20.143,-20.144,-20.138,-20.14,-20.142,-20.148,-20.145,-20.157,-20.148,-20.152,-20.147,-20.151,-20.154,-20.148,-20.155,-20.153,-20.161,-20.162,-20.147,-20.15,-20.16,-20.165,-20.162,-20.166,-20.157,-20.162,-20.17,-20.162,-20.161,-20.158,-20.169,-20.179,-20.176,-20.16,-20.171,-20.169,-20.174,-20.17,-20.167,-20.159,-20.164,-20.17,-20.169,-20.169,-20.162,-20.168,-20.169,-20.171,-20.172,-20.163,-20.165,-20.166,-20.143,-20.134,-20.113,-20.107,-20.127,-20.13,-20.124,-20.095,-20.093,-20.1,-20.112,-20.114,-20.107,-20.102,-20.115,-20.14,-20.161,-20.168,-20.181,-20.191,-20.191,-20.204,-20.198,-20.195,-20.205,-20.205,-20.195,-20.192,-20.194,-20.196,-20.201,-20.23,-20.234,-20.207,-20.176,-20.112,-19.974,-19.772,-19.576,-19.498,-19.812,-20.256,-20.508,-20.535,-20.517,-20.541,-20.533,-20.518,-20.456,-20.369,-20.265,-20.195,-20.154,-20.144,-20.137,-20.138,-20.131,-20.128,-20.115,-20.115,-20.108,-20.11,-20.103,-20.096,-20.091,-20.087,-20.088,-20.085,-20.07,-20.056,-20.044,-20.051,-20.048,-20.038,-20.024,-20.016,-20.016,-20.004,-19.985,-19.968,-19.959,-19.946,-19.941,-19.912,-19.893,-19.88,-19.873,-19.855,-19.85,-19.833,-19.819,-19.811,-19.806,-19.797,-19.78,-19.787,-19.808,-19.83,-19.851,-19.87,-19.9,-19.931,-19.974,-20,-20.021,-20.033,-20.062,-20.087,-20.107,-20.115,-20.123,-20.128,-20.146,-20.157,-20.157,-20.153,-20.16,-20.158,-20.173,-20.176,-20.18,-20.185,-20.181,-20.187,-20.185,-20.181,-20.181,-20.178,-20.184,-20.193,-20.187,-20.186,-20.187,-20.182,-20.192,-20.17,-20.174,-20.179,-20.182,-20.189,-20.175,-20.165,-20.179,-20.187,-20.191,-20.175,-20.168,-20.163,-20.172,-20.19,-20.182,-20.177,-20.182,-20.187,-20.181,-20.186,-20.182,-20.191,-20.19,-20.192,-20.185,-20.195,-20.192,-20.211,-20.208,-20.201,-20.202,-20.202,-20.212,-20.214,-20.21,-20.213,-20.214,-20.214,-20.218,-20.216,-20.218,-20.216,-20.212,-20.201,-20.19,-20.173,-20.161,-20.161,-20.185,-20.17,-20.158,-20.148,-20.15,-20.163,-20.172,-20.162,-20.157,-20.172,-20.196,-20.214,-20.216,-20.242,-20.239,-20.252,-20.255,-20.251,-20.251,-20.253,-20.249,-20.255,-20.254,-20.253,-20.254,-20.268,-20.277,-20.289,-20.277,-20.252,-20.203,-20.088,-19.914,-19.721,-19.609,-19.803,-20.262,-20.543,-20.591,-20.542,-20.549,-20.586,-20.571,-20.539,-20.464,-20.383,-20.296,-20.247,-20.217,-20.208,-20.2,-20.207,-20.196,-20.188,-20.183,-20.185,-20.179,-20.18,-20.169,-20.165,-20.147,-20.147,-20.147,-20.141,-20.132,-20.108,-20.125,-20.113,-20.1,-20.089,-20.08,-20.073,-20.062,-20.059,-20.038,-20.025,-20.019,-20.012,-19.994,-19.986,-19.961,-19.939,-19.931,-19.927,-19.907,-19.894,-19.886,-19.875,-19.876,-19.871,-19.87,-19.879,-19.91,-19.936,-19.961,-19.986,-20.001,-20.036,-20.072,-20.084,-20.11,-20.132,-20.15,-20.164,-20.179,-20.18,-20.195,-20.196,-20.208,-20.207,-20.204,-20.207,-20.214,-20.225,-20.217,-20.213,-20.215,-20.222,-20.224,-20.217,-20.209,-20.208,-20.215,-20.226,-20.227,-20.213,-20.209,-20.208,-20.215,-20.213,-20.21,-20.206,-20.206,-20.21,-20.206,-20.215,-20.204,-20.202,-20.201,-20.205,-20.207,-20.198,-20.198,-20.198,-20.206,-20.2,-20.201,-20.199,-20.204,-20.209,-20.208,-20.2,-20.203,-20.206,-20.211,-20.21,-20.209,-20.208,-20.215,-20.217,-20.22,-20.221,-20.22,-20.22,-20.217,-20.214,-20.201,-20.18,-20.174,-20.161,-20.155,-20.163,-20.163,-20.153,-20.145,-20.14,-20.149,-20.148,-20.151,-20.156,-20.151,-20.169,-20.187,-20.203,-20.225,-20.249,-20.234,-20.24,-20.239,-20.25,-20.251,-20.252,-20.252,-20.24,-20.246,-20.246,-20.261,-20.256,-20.273,-20.281,-20.269,-20.234,-20.155,-20.007,-19.813,-19.617,-19.607,-19.983,-20.387,-20.571,-20.556,-20.553,-20.566,-20.571,-20.54,-20.484,-20.406,-20.298,-20.23,-20.195,-20.193,-20.187,-20.187,-20.169,-20.166,-20.161,-20.164,-20.148,-20.149,-20.131,-20.139,-20.133,-20.131,-20.11,-20.104,-20.103,-20.099,-20.086,-20.07,-20.064,-20.051,-20.041,-20.033,-20.016,-20.005,-19.999,-19.985,-19.967,-19.942,-19.926,-19.912,-19.91,-19.897,-19.878,-19.855,-19.846,-19.841,-19.833,-19.821,-19.806,-19.801,-19.807,-19.824,-19.838,-19.864,-19.892,-19.935,-19.969,-19.992,-20.024,-20.036,-20.062,-20.086,-20.113,-20.115,-20.124,-20.138,-20.151,-20.162,-20.155,-20.16,-20.166,-20.169,-20.177,-20.168,-20.177,-20.174,-20.179,-20.186,-20.183,-20.174,-20.18,-20.179,-20.183,-20.18,-20.18,-20.178,-20.175,-20.185,-20.169,-20.167,-20.166,-20.168,-20.175,-20.167,-20.158,-20.156,-20.158,-20.168,-20.165,-20.161,-20.149,-20.162,-20.161,-20.164,-20.155,-20.16,-20.162,-20.169,-20.168,-20.158,-20.158,-20.159,-20.175,-20.171,-20.169,-20.171,-20.181,-20.176,-20.179,-20.17,-20.171,-20.161,-20.171,-20.178,-20.171,-20.167,-20.171,-20.156,-20.147,-20.128,-20.113,-20.106,-20.125,-20.113,-20.094,-20.079,-20.082,-20.098,-20.112,-20.104,-20.1,-20.098,-20.124,-20.147,-20.162,-20.177,-20.182,-20.186,-20.189,-20.192,-20.191,-20.182,-20.183,-20.191,-20.189,-20.184,-20.182,-20.188,-20.206,-20.226,-20.212,-20.186,-20.142,-20.047,-19.877,-19.645,-19.486,-19.575,-20.014,-20.4,-20.534,-20.515,-20.521,-20.539,-20.502,-20.486,-20.389,-20.282,-20.198,-20.162,-20.137,-20.13,-20.121,-20.125,-20.12,-20.117,-20.107,-20.098,-20.095,-20.095,-20.088,-20.077,-20.061,-20.069,-20.061,-20.057,-20.041,-20.039,-20.032,-20.026,-20.011,-20.002,-19.987,-19.976,-19.965,-19.961,-19.943,-19.928,-19.909,-19.891,-19.879,-19.859,-19.842,-19.822,-19.813,-19.802,-19.781,-19.768,-19.754,-19.748,-19.741,-19.741,-19.736,-19.752,-19.779,-19.814,-19.843,-19.869,-19.903,-19.94,-19.979,-19.996,-20.013,-20.023,-20.041,-20.064,-20.08,-20.087,-20.086,-20.097,-20.105,-20.116,-20.108,-20.102,-20.101,-20.114,-20.111,-20.113,-20.105,-20.111,-20.117,-20.112,-20.116,-20.107,-20.11,-20.115,-20.12,-20.114,-20.111,-20.109,-20.112,-20.113,-20.111,-20.105,-20.107,-20.102,-20.109,-20.101,-20.093,-20.087,-20.089,-20.096,-20.094,-20.091,-20.089,-20.086,-20.097,-20.096,-20.093,-20.087,-20.098,-20.105,-20.104,-20.101,-20.097,-20.099,-20.102,-20.103,-20.099,-20.094,-20.096,-20.099,-20.109,-20.099,-20.094,-20.102,-20.104,-20.111,-20.106,-20.104,-20.102,-20.105,-20.111,-20.099,-20.07,-20.067,-20.045,-20.051,-20.059,-20.051,-20.041,-20.028,-20.026,-20.032,-20.035,-20.035,-20.038,-20.045,-20.068,-20.077,-20.084,-20.106,-20.13,-20.133,-20.131,-20.127,-20.135,-20.135,-20.142,-20.139,-20.14,-20.138,-20.137,-20.138,-20.151,-20.151,-20.164,-20.15,-20.128,-20.061,-19.915,-19.694,-19.474,-19.397,-19.69,-20.126,-20.4,-20.477,-20.474,-20.494,-20.493,-20.456,-20.382,-20.271,-20.167,-20.111,-20.086,-20.083,-20.077,-20.072,-20.058,-20.048,-20.044,-20.051,-20.047,-20.039,-20.028,-20.019,-20.023,-20.018,-20.004,-19.998,-19.99,-19.988,-19.979,-19.975,-19.955,-19.947,-19.939,-19.935,-19.928,-19.905,-19.889,-19.877,-19.864,-19.844,-19.827,-19.811,-19.799,-19.797,-19.771,-19.747,-19.727,-19.717,-19.707,-19.693,-19.681,-19.674,-19.675,-19.691,-19.713,-19.734,-19.759,-19.796,-19.831,-19.873,-19.894,-19.909,-19.934,-19.965,-19.986,-20.005,-20.012,-20.025,-20.042,-20.053,-20.052,-20.045,-20.05,-20.051,-20.061,-20.061,-20.055,-20.061,-20.063,-20.07,-20.071,-20.07,-20.059,-20.061,-20.067,-20.063,-20.061,-20.054,-20.057,-20.061,-20.065,-20.058,-20.052,-20.055,-20.056,-20.059,-20.056,-20.051,-20.046,-20.051,-20.053,-20.05,-20.048,-20.047,-20.052,-20.058,-20.058,-20.049,-20.046,-20.049,-20.055,-20.055,-20.053,-20.054,-20.059,-20.065,-20.065,-20.06,-20.068,-20.072,-20.069,-20.072,-20.071,-20.068,-20.071,-20.073,-20.076,-20.068,-20.069,-20.077,-20.079,-20.08,-20.077,-20.074,-20.074,-20.083,-20.083,-20.08,-20.081,-20.076,-20.079,-20.087,-20.088,-20.08,-20.08,-20.092,-20.1,-20.091,-20.082,-20.079,-20.07,-20.059,-20.049,-20.035,-20.029,-20.035,-20.046,-20.033,-20.022,-20.006,-20.015,-20.027,-20.036,-20.027,-20.019,-20.033,-20.053,-20.069,-20.08,-20.1,-20.107,-20.109,-20.117,-20.117,-20.114,-20.118,-20.126,-20.127,-20.126,-20.118,-20.115,-20.128,-20.143,-20.154,-20.137,-20.108,-20.063,-19.953,-19.759,-19.52,-19.37,-19.498,-19.949,-20.332,-20.463,-20.465,-20.479,-20.489,-20.459,-20.395,-20.286,-20.175,-20.107,-20.085,-20.06,-20.054,-20.046,-20.055,-20.049,-20.04,-20.029,-20.026,-20.022,-20.026,-20.011,-20.002,-19.999,-20.003,-19.998,-19.993,-19.972,-19.974,-19.965,-19.959,-19.947,-19.935,-19.927,-19.915,-19.899,-19.89,-19.872,-19.851,-19.848,-19.831,-19.815,-19.803,-19.787,-19.769,-19.758,-19.741,-19.72,-19.704,-19.696,-19.686,-19.681,-19.668,-19.672,-19.684,-19.708,-19.728,-19.76,-19.797,-19.833,-19.868,-19.897,-19.914,-19.942,-19.961,-19.985,-20,-20.013,-20.018,-20.032,-20.042,-20.046,-20.05,-20.049,-20.05,-20.057,-20.067,-20.066,-20.062,-20.061,-20.067,-20.067,-20.064,-20.06,-20.057,-20.06,-20.062,-20.062,-20.053,-20.05,-20.049,-20.052,-20.058,-20.051,-20.046,-20.046,-20.055,-20.056,-20.051,-20.046,-20.051,-20.047,-20.048,-20.051,-20.045,-20.043,-20.044,-20.043,-20.046,-20.05,-20.052,-20.052,-20.048,-20.044,-20.038,-20.045,-20.052,-20.056,-20.063,-20.057,-20.054,-20.057,-20.064,-20.061,-20.06,-20.061,-20.062,-20.076,-20.071,-20.068,-20.069,-20.072,-20.078,-20.076,-20.073,-20.067,-20.074,-20.074,-20.074,-20.076,-20.074,-20.075,-20.073,-20.074,-20.068,-20.069,-20.066,-20.075,-20.077,-20.073,-20.068,-20.072,-20.074,-20.082,-20.076,-20.072,-20.075,-20.074,-20.076,-20.074,-20.072,-20.069,-20.073,-20.078,-20.07,-20.049,-20.034,-20.024,-20.018,-20.021,-20.027,-20.016,-20.007,-20.005,-20.011,-20.013,-20.013,-20.007,-20.007,-20.021,-20.045,-20.052,-20.063,-20.092,-20.104,-20.098,-20.099,-20.099,-20.104,-20.111,-20.107,-20.099,-20.102,-20.109,-20.113,-20.118,-20.131,-20.135,-20.12,-20.096,-20.051,-19.934,-19.749,-19.521,-19.368,-19.454,-19.886,-20.296,-20.463,-20.472,-20.486,-20.473,-20.428,-20.345,-20.217,-20.131,-20.068,-20.058,-20.046,-20.043,-20.048,-20.041,-20.028,-20.026,-20.023,-20.02,-20.004,-20.003,-19.996,-19.994,-19.99,-19.981,-19.968,-19.964,-19.953,-19.955,-19.945,-19.936,-19.928,-19.923,-19.913,-19.903,-19.881,-19.874,-19.867,-19.852,-19.828,-19.809,-19.789,-19.775,-19.764,-19.742,-19.721,-19.708,-19.701,-19.694,-19.681,-19.662,-19.65,-19.647,-19.653,-19.66,-19.676,-19.698,-19.727,-19.767,-19.81,-19.839,-19.866,-19.887,-19.926,-19.953,-19.966,-19.978,-19.99,-20.003,-20.02,-20.025,-20.026,-20.03,-20.032,-20.039,-20.047,-20.052,-20.047,-20.044,-20.054,-20.051,-20.049,-20.045,-20.052,-20.059,-20.053,-20.051,-20.049,-20.048,-20.053,-20.056,-20.045,-20.044,-20.047,-20.048,-20.045,-20.048,-20.042,-20.042,-20.046,-20.047,-20.042,-20.041,-20.041,-20.046,-20.047,-20.047,-20.043,-20.043,-20.045,-20.048,-20.056,-20.048,-20.046,-20.048,-20.057,-20.055,-20.05,-20.051,-20.056,-20.055,-20.056,-20.051,-20.053,-20.061,-20.063,-20.062,-20.06,-20.054,-20.06,-20.066,-20.067,-20.066,-20.059,-20.062,-20.065,-20.069,-20.06,-20.054,-20.064,-20.062,-20.068,-20.066,-20.062,-20.054,-20.061,-20.06,-20.063,-20.062,-20.068,-20.067,-20.072,-20.074,-20.068,-20.066,-20.071,-20.067,-20.071,-20.07,-20.067,-20.067,-20.074,-20.075,-20.066,-20.067,-20.068,-20.081,-20.076,-20.081,-20.076,-20.073,-20.073,-20.058,-20.041,-20.025,-20.015,-20.018,-20.037,-20.025,-20.004,-19.994,-20.002,-20.02,-20.014,-20.009,-20,-20.007,-20.031,-20.045,-20.055,-20.071,-20.093,-20.105,-20.1,-20.104,-20.103,-20.104,-20.112,-20.104,-20.099,-20.101,-20.115,-20.124,-20.123,-20.133,-20.136,-20.114,-20.087,-20.011,-19.858,-19.642,-19.428,-19.38,-19.727,-20.18,-20.426,-20.474,-20.471,-20.486,-20.463,-20.399,-20.277,-20.182,-20.136,-20.092,-20.065,-20.059,-20.054,-20.057,-20.045,-20.042,-20.025,-20.036,-20.031,-20.037,-20.024,-20.01,-20.009,-20.006,-19.998,-19.988,-19.982,-19.982,-19.972,-19.97,-19.958,-19.944,-19.932,-19.927,-19.916,-19.899,-19.885,-19.871,-19.865,-19.854,-19.831,-19.812,-19.792,-19.782,-19.767,-19.746,-19.736,-19.721,-19.711,-19.701,-19.689,-19.681,-19.678,-19.693,-19.701,-19.738,-19.75,-19.779,-19.811,-19.85,-19.885,-19.919,-19.937,-19.969,-19.998,-20.017,-20.019,-20.035,-20.049,-20.061,-20.069,-20.069,-20.08,-20.081,-20.091,-20.095,-20.091,-20.084,-20.091,-20.098,-20.111,-20.1,-20.102,-20.098,-20.108,-20.11,-20.104,-20.101,-20.107,-20.1,-20.113,-20.104,-20.094,-20.092,-20.097,-20.096,-20.105,-20.096,-20.099,-20.099,-20.098,-20.088,-20.086,-20.08,-20.101,-20.104,-20.096,-20.095,-20.083,-20.09,-20.096,-20.099,-20.095,-20.096,-20.094,-20.1,-20.105,-20.098,-20.097,-20.101,-20.115,-20.108,-20.112,-20.109,-20.108,-20.111,-20.12,-20.116,-20.115,-20.117,-20.126,-20.136,-20.13,-20.129,-20.129,-20.131,-20.137,-20.134,-20.124,-20.126,-20.138,-20.14,-20.142,-20.141,-20.143,-20.135,-20.141,-20.146,-20.147,-20.141,-20.144,-20.155,-20.155,-20.143,-20.136,-20.14,-20.151,-20.158,-20.148,-20.147,-20.144,-20.157,-20.153,-20.146,-20.143,-20.156,-20.156,-20.15,-20.143,-20.122,-20.116,-20.105,-20.118,-20.117,-20.095,-20.087,-20.091,-20.097,-20.098,-20.093,-20.081,-20.099,-20.111,-20.139,-20.141,-20.151,-20.176,-20.19,-20.183,-20.18,-20.184,-20.186,-20.198,-20.183,-20.183,-20.184,-20.188,-20.204,-20.21,-20.219,-20.215,-20.197,-20.162,-20.109,-19.97,-19.782,-19.609,-19.527,-19.813,-20.267,-20.498,-20.505,-20.488,-20.509,-20.51,-20.479,-20.426,-20.353,-20.257,-20.192,-20.167,-20.141,-20.131,-20.138,-20.137,-20.125,-20.12,-20.118,-20.106,-20.11,-20.099,-20.093,-20.095,-20.091,-20.084,-20.076,-20.055,-20.069,-20.067,-20.057,-20.046,-20.03,-20.019,-20.022,-20.016,-20.009,-19.981,-19.972,-19.963,-19.951,-19.93,-19.922,-19.901,-19.892,-19.884,-19.86,-19.84,-19.835,-19.823,-19.819,-19.812,-19.801,-19.796,-19.807,-19.814,-19.833,-19.847,-19.864,-19.904,-19.936,-19.969,-19.994,-20.029,-20.052,-20.075,-20.089,-20.098,-20.106,-20.108,-20.13,-20.144,-20.146,-20.145,-20.149,-20.164,-20.163,-20.171,-20.157,-20.157,-20.165,-20.173,-20.169,-20.171,-20.174,-20.181,-20.177,-20.173,-20.168,-20.17,-20.181,-20.184,-20.175,-20.166,-20.161,-20.169,-20.169,-20.169,-20.158,-20.159,-20.158,-20.161,-20.159,-20.154,-20.155,-20.152,-20.159,-20.155,-20.147,-20.141,-20.143,-20.148,-20.156,-20.158,-20.153,-20.153,-20.159,-20.164,-20.159,-20.154,-20.155,-20.165,-20.168,-20.17,-20.158,-20.161,-20.171,-20.174,-20.176,-20.18,-20.169,-20.17,-20.169,-20.178,-20.174,-20.171,-20.169,-20.18,-20.183,-20.179,-20.175,-20.181,-20.182,-20.179,-20.173,-20.176,-20.18,-20.186,-20.189,-20.19,-20.182,-20.181,-20.18,-20.181,-20.184,-20.179,-20.159,-20.152,-20.144,-20.125,-20.129,-20.136,-20.134,-20.121,-20.109,-20.111,-20.114,-20.119,-20.125,-20.12,-20.126,-20.142,-20.16,-20.176,-20.192,-20.199,-20.202,-20.205,-20.215,-20.21,-20.209,-20.208,-20.213,-20.217,-20.209,-20.209,-20.209,-20.221,-20.237,-20.236,-20.208,-20.153,-20.047,-19.881,-19.689,-19.538,-19.664,-20.126,-20.452,-20.534,-20.506,-20.514,-20.549,-20.508,-20.472,-20.425,-20.332,-20.235,-20.186,-20.166,-20.162,-20.146,-20.152,-20.144,-20.144,-20.126,-20.123,-20.112,-20.117,-20.113,-20.104,-20.1,-20.09,-20.084,-20.09,-20.082,-20.076,-20.058,-20.048,-20.044,-20.038,-20.027,-20.01,-19.997,-19.988,-19.973,-19.963,-19.945,-19.927,-19.908,-19.892,-19.874,-19.855,-19.841,-19.841,-19.831,-19.816,-19.8,-19.791,-19.783,-19.789,-19.783,-19.782,-19.801,-19.838,-19.87,-19.896,-19.929,-19.961,-19.991,-20.021,-20.046,-20.057,-20.066,-20.089,-20.108,-20.116,-20.129,-20.13,-20.133,-20.14,-20.157,-20.152,-20.157,-20.156,-20.159,-20.162,-20.157,-20.15,-20.159,-20.158,-20.168,-20.165,-20.163,-20.157,-20.156,-20.161,-20.163,-20.157,-20.154,-20.162,-20.158,-20.155,-20.154,-20.149,-20.152,-20.145,-20.146,-20.139,-20.146,-20.147,-20.145,-20.143,-20.139,-20.137,-20.141,-20.145,-20.146,-20.135,-20.134,-20.138,-20.141,-20.143,-20.14,-20.14,-20.141,-20.147,-20.151,-20.144,-20.141,-20.145,-20.149,-20.155,-20.161,-20.161,-20.152,-20.156,-20.151,-20.153,-20.153,-20.145,-20.152,-20.161,-20.162,-20.155,-20.155,-20.162,-20.159,-20.155,-20.159,-20.157,-20.157,-20.163,-20.163,-20.156,-20.159,-20.154,-20.159,-20.162,-20.161,-20.151,-20.152,-20.154,-20.153,-20.155,-20.151,-20.158,-20.167,-20.164,-20.15,-20.139,-20.123,-20.118,-20.111,-20.103,-20.111,-20.11,-20.106,-20.099,-20.094,-20.094,-20.099,-20.102,-20.092,-20.093,-20.104,-20.128,-20.15,-20.17,-20.182,-20.191,-20.184,-20.188,-20.193,-20.202,-20.194,-20.191,-20.191,-20.191,-20.195,-20.186,-20.199,-20.216,-20.223,-20.193,-20.138,-20.026,-19.859,-19.648,-19.544,-19.481,-19.767,-20.21,-20.462,-20.524,-20.497,-20.527,-20.512,-20.484,-20.408,-20.311,-20.207,-20.166,-20.143,-20.145,-20.126,-20.132,-20.124,-20.12,-20.118,-20.115,-20.105,-20.098,-20.09,-20.098,-20.09,-20.08,-20.078,-20.072,-20.07,-20.064,-20.048,-20.037,-20.025,-20.031,-20.015,-20.006,-19.996,-19.988,-19.981,-19.971,-19.947,-19.926,-19.911,-19.899,-19.881,-19.873,-19.848,-19.832,-19.824,-19.808,-19.793,-19.784,-19.767,-19.769,-19.771,-19.769,-19.776,-19.794,-19.823,-19.849,-19.885,-19.924,-19.956,-19.983,-20.018,-20.04,-20.058,-20.073,-20.087,-20.102,-20.12,-20.123,-20.13,-20.135,-20.138,-20.141,-20.148,-20.138,-20.145,-20.152,-20.151,-20.149,-20.147,-20.154,-20.16,-20.16,-20.159,-20.148,-20.145,-20.146,-20.155,-20.15,-20.153,-20.144,-20.149,-20.145,-20.145,-20.14,-20.142,-20.142,-20.146,-20.145,-20.146,-20.137,-20.139,-20.14,-20.142,-20.137,-20.134,-20.143,-20.149,-20.147,-20.144,-20.132,-20.134,-20.139,-20.143,-20.141,-20.14,-20.141,-20.149,-20.148,-20.142,-20.141,-20.148,-20.15,-20.162,-20.157,-20.153,-20.155,-20.159,-20.166,-20.165,-20.164,-20.159,-20.159,-20.165,-20.169,-20.166,-20.163,-20.166,-20.173,-20.173,-20.172,-20.165,-20.166,-20.172,-20.171,-20.158,-20.165,-20.169,-20.172,-20.172,-20.168,-20.159,-20.165,-20.168,-20.173,-20.17,-20.166,-20.171,-20.177,-20.18,-20.175,-20.17,-20.167,-20.172,-20.163,-20.14,-20.13,-20.12,-20.123,-20.132,-20.13,-20.117,-20.097,-20.09,-20.104,-20.112,-20.105,-20.099,-20.098,-20.123,-20.144,-20.153,-20.169,-20.186,-20.189,-20.196,-20.196,-20.195,-20.201,-20.194,-20.195,-20.194,-20.188,-20.194,-20.203,-20.211,-20.227,-20.216,-20.186,-20.151,-20.064,-19.901,-19.68,-19.485,-19.483,-19.862,-20.29,-20.498,-20.506,-20.516,-20.535,-20.535,-20.506,-20.418,-20.309,-20.217,-20.174,-20.143,-20.142,-20.125,-20.13,-20.12,-20.121,-20.11,-20.11,-20.103,-20.105,-20.095,-20.092,-20.077,-20.081,-20.073,-20.064,-20.049,-20.05,-20.042,-20.037,-20.012,-20.004,-19.995,-19.995,-19.979,-19.965,-19.944,-19.936,-19.924,-19.915,-19.897,-19.874,-19.866,-19.846,-19.835,-19.816,-19.796,-19.777,-19.764,-19.754,-19.745,-19.737,-19.73,-19.74,-19.755,-19.771,-19.79,-19.819,-19.841,-19.873,-19.916,-19.945,-19.972,-20.004,-20.032,-20.05,-20.072,-20.069,-20.086,-20.098,-20.111,-20.107,-20.11,-20.11,-20.123,-20.125,-20.123,-20.115,-20.115,-20.116,-20.132,-20.125,-20.119,-20.117,-20.123,-20.128,-20.134,-20.124,-20.118,-20.12,-20.127,-20.124,-20.12,-20.115,-20.119,-20.119,-20.124,-20.121,-20.111,-20.11,-20.117,-20.116,-20.115,-20.108,-20.106,-20.107,-20.114,-20.106,-20.103,-20.102,-20.104,-20.105,-20.106,-20.103,-20.108,-20.114,-20.116,-20.115,-20.108,-20.111,-20.116,-20.122,-20.122,-20.121,-20.122,-20.121,-20.12,-20.126,-20.127,-20.121,-20.122,-20.126,-20.128,-20.124,-20.124,-20.13,-20.132,-20.131,-20.128,-20.124,-20.122,-20.127,-20.131,-20.129,-20.127,-20.124,-20.129,-20.131,-20.134,-20.13,-20.129,-20.135,-20.132,-20.126,-20.121,-20.121,-20.124,-20.127,-20.127,-20.109,-20.088,-20.077,-20.064,-20.065,-20.068,-20.069,-20.061,-20.056,-20.053,-20.055,-20.064,-20.057,-20.053,-20.062,-20.069,-20.083,-20.096,-20.117,-20.137,-20.146,-20.133,-20.143,-20.144,-20.149,-20.144,-20.143,-20.142,-20.144,-20.15,-20.153,-20.159,-20.17,-20.153,-20.134,-20.103,-20.022,-19.864,-19.648,-19.449,-19.405,-19.728,-20.187,-20.453,-20.515,-20.518,-20.523,-20.493,-20.431,-20.301,-20.189,-20.122,-20.099,-20.088,-20.089,-20.085,-20.08,-20.071,-20.069,-20.065,-20.066,-20.05,-20.044,-20.04,-20.039,-20.032,-20.019,-20.01,-20.007,-20.006,-20,-19.986,-19.977,-19.966,-19.961,-19.95,-19.94,-19.925,-19.915,-19.904,-19.896,-19.877,-19.854,-19.832,-19.82,-19.804,-19.789,-19.77,-19.751,-19.736,-19.722,-19.707,-19.69,-19.681,-19.674,-19.678,-19.682,-19.693,-19.703,-19.732,-19.77,-19.815,-19.847,-19.875,-19.904,-19.938,-19.967,-19.989,-20.006,-20.025,-20.043,-20.053,-20.055,-20.058,-20.063,-20.064,-20.071,-20.078,-20.069,-20.075,-20.081,-20.084,-20.077,-20.076,-20.074,-20.077,-20.081,-20.081,-20.068,-20.072,-20.077,-20.083,-20.081,-20.077,-20.067,-20.067,-20.073,-20.074,-20.067,-20.064,-20.065,-20.073,-20.071,-20.063,-20.06,-20.067,-20.067,-20.075,-20.065,-20.064,-20.064,-20.067,-20.07,-20.067,-20.063,-20.061,-20.069,-20.071,-20.069,-20.061,-20.069,-20.072,-20.075,-20.071,-20.072,-20.069,-20.077,-20.077,-20.074,-20.072,-20.074,-20.08,-20.084,-20.081,-20.074,-20.08,-20.077,-20.082,-20.085,-20.081,-20.079,-20.078,-20.087,-20.09,-20.093,-20.086,-20.088,-20.089,-20.083,-20.09,-20.091,-20.087,-20.09,-20.094,-20.095,-20.085,-20.086,-20.092,-20.095,-20.092,-20.087,-20.085,-20.077,-20.066,-20.054,-20.036,-20.03,-20.043,-20.048,-20.041,-20.027,-20.013,-20.015,-20.022,-20.022,-20.019,-20.015,-20.034,-20.063,-20.079,-20.088,-20.107,-20.112,-20.116,-20.123,-20.12,-20.118,-20.116,-20.119,-20.126,-20.121,-20.122,-20.128,-20.13,-20.147,-20.151,-20.121,-20.08,-20.001,-19.846,-19.614,-19.407,-19.38,-19.742,-20.211,-20.45,-20.496,-20.5,-20.51,-20.494,-20.446,-20.334,-20.211,-20.123,-20.089,-20.075,-20.067,-20.056,-20.058,-20.056,-20.05,-20.035,-20.03,-20.025,-20.026,-20.016,-20.002,-19.995,-19.992,-19.99,-19.986,-19.982,-19.97,-19.963,-19.966,-19.954,-19.943,-19.921,-19.918,-19.913,-19.901,-19.883,-19.872,-19.856,-19.845,-19.832,-19.808,-19.793,-19.775,-19.763,-19.747,-19.735,-19.711,-19.685,-19.684,-19.679,-19.668,-19.667,-19.661,-19.675,-19.7,-19.727,-19.759,-19.799,-19.834,-19.867,-19.885,-19.914,-19.936,-19.963,-19.993,-20.011,-20.021,-20.032,-20.042,-20.054,-20.062,-20.062,-20.063,-20.061,-20.067,-20.074,-20.074,-20.064,-20.071,-20.073,-20.076,-20.078,-20.074,-20.069,-20.075,-20.074,-20.075,-20.079,-20.071,-20.074,-20.082,-20.075,-20.07,-20.061,-20.062,-20.07,-20.07,-20.064,-20.059,-20.064,-20.062,-20.064,-20.064,-20.055,-20.063,-20.054,-20.057,-20.061,-20.061,-20.063,-20.064,-20.067,-20.059,-20.064,-20.064,-20.067,-20.069,-20.063,-20.054,-20.062,-20.065,-20.072,-20.076,-20.066,-20.06,-20.066,-20.079,-20.085,-20.075,-20.071,-20.08,-20.082,-20.077,-20.073,-20.074,-20.077,-20.082,-20.085,-20.082,-20.079,-20.083,-20.086,-20.09,-20.087,-20.078,-20.08,-20.087,-20.093,-20.081,-20.076,-20.058,-20.05,-20.035,-20.027,-20.027,-20.037,-20.029,-20.019,-20.002,-20.011,-20.015,-20.017,-20.02,-20.013,-20.021,-20.044,-20.057,-20.073,-20.106,-20.112,-20.113,-20.1,-20.107,-20.098,-20.103,-20.103,-20.11,-20.105,-20.113,-20.108,-20.111,-20.123,-20.14,-20.123,-20.083,-20.027,-19.891,-19.706,-19.501,-19.396,-19.659,-20.108,-20.393,-20.438,-20.408,-20.418,-20.43,-20.412,-20.366,-20.286,-20.168,-20.084,-20.047,-20.037,-20.027,-20.026,-20.008,-20.003,-19.996,-19.991,-19.971,-19.971,-19.96,-19.958,-19.954,-19.944,-19.938,-19.922,-19.927,-19.911,-19.907,-19.896,-19.878,-19.867,-19.859,-19.851,-19.829,-19.818,-19.809,-19.797,-19.774,-19.746,-19.734,-19.716,-19.707,-19.693,-19.669,-19.646,-19.633,-19.623,-19.601,-19.577,-19.563,-19.562,-19.56,-19.572,-19.577,-19.588,-19.603,-19.636,-19.665,-19.695,-19.72,-19.737,-19.765,-19.788,-19.811,-19.82,-19.844,-19.856,-19.866,-19.868,-19.868,-19.876,-19.876,-19.875,-19.875,-19.879,-19.872,-19.887,-19.881,-19.875,-19.874,-19.872,-19.869,-19.87,-19.868,-19.857,-19.857,-19.857,-19.859,-19.861,-19.856,-19.846,-19.85,-19.847,-19.839,-19.832,-19.824,-19.82,-19.821,-19.828,-19.815,-19.807,-19.808,-19.817,-19.814,-19.795,-19.785,-19.788,-19.799,-19.798,-19.791,-19.778,-19.776,-19.786,-19.8,-19.782,-19.77,-19.771,-19.775,-19.772,-19.773,-19.777,-19.771,-19.77,-19.77,-19.77,-19.759,-19.764,-19.759,-19.778,-19.763,-19.76,-19.75,-19.749,-19.743,-19.727,-19.713,-19.682,-19.691
