5.898,5.88,5.8891,5.8929,5.9021,5.8887,5.8674,5.8709,5.8787,5.8886,5.8836,5.871,5.8755,5.8898,5.8957,5.8947,5.8941,5.8908,5.9118,5.9166,5.916,5.9033,5.9118,5.9239,5.938,5.9392,5.9286,5.9307,5.9394,5.9484,5.9444,5.9318,5.9405,5.9565,5.9676,5.9621,5.9562,5.9611,5.9587,5.9815,5.9844,5.9784,5.9839,5.997,6.0021,6.0092,5.9885,5.9829,5.9946,6.004,6.0105,6.0037,5.9999,6.0059,6.0195,6.0213,6.0041,5.9991,5.9974,5.9996,5.9987,5.9824,5.949,5.9452,5.9442,5.9398,5.9154,5.9004,5.8908,5.9037,5.9009,5.8886,5.8756,5.8831,5.8903,5.8905,5.8882,5.8702,5.8738,5.8837,5.8946,5.8899,5.8723,5.8641,5.8793,5.8827,5.882,5.8618,5.8642,5.8686,5.8808,5.8805,5.866,5.87,5.882,5.8839,5.8796,5.8591,5.8558,5.8622,5.873,5.8696,5.8517,5.8531,5.8562,5.8692,5.8647,5.8526,5.8462,5.8503,5.8453,5.8454,5.8281,5.8301,5.8318,5.8326,5.8416,5.8323,5.8173,5.8316,5.8353,5.8423,5.8298,5.8156,5.8234,5.8274,5.8362,5.8182,5.8208,5.8176,5.8372,5.8513,5.8334,5.829,5.831,5.8365,5.8502,5.8461,5.8305,5.8347,5.8483,5.8635,5.8767,5.8652,5.8665,5.8749,5.8787,5.8513,5.8348,5.826,5.8346,5.8378,5.8152,5.8064,5.8,5.8163,5.8294,5.8207,5.8095,5.8023,5.8139,5.8221,5.8211,5.8127,5.8138,5.8038,5.8228,5.8776,5.9583,6.0841,6.2971,6.5071,6.5599,6.5848,6.5567,6.4196,6.2298,6.0545,5.9392,5.9284,5.9175,5.9043,5.9022,5.8711,5.8594,5.8591,5.8718,5.8704,5.857,5.8528,5.8565,5.8653,5.8724,5.874,5.858,5.8639,5.8775,5.8862,5.8751,5.8663,5.8694,5.8747,5.8912,5.8805,5.8734,5.8815,5.8933,5.8974,5.8915,5.8806,5.8883,5.8981,5.9057,5.904,5.8957,5.9026,5.9188,5.9321,5.9342,5.9271,5.9183,5.9376,5.9447,5.9374,5.93,5.9371,5.951,5.9658,5.9671,5.9571,5.9547,5.969,5.9836,5.9802,5.969,5.968,5.9789,5.9945,6.0049,5.9866,5.9943,5.9903,5.9988,5.9889,5.9638,5.9434,5.9378,5.9402,5.9334,5.9096,5.8857,5.8918,5.8872,5.8909,5.8761,5.8657,5.872,5.8723,5.8764,5.8586,5.8577,5.8549,5.8689,5.8787,5.8717,5.8541,5.8689,5.8693,5.8729,5.8729,5.845,5.8524,5.8607,5.8715,5.8597,5.8501,5.852,5.855,5.8671,5.8594,5.8435,5.8449,5.8442,5.8645,5.8602,5.8365,5.837,5.8365,5.8447,5.8534,5.8405,5.8386,5.8448,5.8538,5.8595,5.8364,5.8394,5.8481,5.8549,5.8509,5.8332,5.8288,5.841,5.8464,5.8553,5.8299,5.8262,5.8424,5.8465,5.852,5.8409,5.8351,5.8464,5.859,5.8693,5.864,5.8552,5.8637,5.8792,5.8837,5.8697,5.8667,5.8844,5.9029,5.9231,5.921,5.8937,5.8962,5.8967,5.8946,5.8824,5.8574,5.843,5.8506,5.8472,5.8264,5.8024,5.7995,5.8104,5.8099,5.8078,5.7979,5.7912,5.7997,5.8048,5.8087,5.7929,5.7793,5.7848,5.8372,5.9024,6.0028,6.1844,6.3793,6.5099,6.5275,6.4589,6.2868,6.1179,5.944,5.8394,5.8384,5.8328,5.8249,5.8187,5.8094,5.7862,5.7858,5.7807,5.7915,5.7934,5.781,5.7721,5.7847,5.7794,5.7812,5.7675,5.7608,5.76,5.7613,5.7598,5.7472,5.7431,5.747,5.7637,5.7647,5.754,5.7368,5.748,5.7647,5.767,5.7589,5.7392,5.7505,5.7621,5.7764,5.7577,5.7652,5.7672,5.7834,5.7913,5.7894,5.788,5.7941,5.8084,5.8246,5.8241,5.8157,5.8238,5.8364,5.8507,5.8415,5.8401,5.8494,5.8629,5.8819,5.8802,5.8731,5.8781,5.8868,5.8936,5.8931,5.8728,5.8589,5.8669,5.8651,5.8563,5.8267,5.8082,5.7993,5.81,5.7943,5.7731,5.7576,5.7571,5.7685,5.761,5.7497,5.7439,5.7526,5.7578,5.7618,5.7496,5.7368,5.7343,5.7443,5.7568,5.7386,5.7406,5.7452,5.7516,5.7593,5.7453,5.7341,5.7469,5.7516,5.7551,5.7446,5.7362,5.7401,5.7522,5.7578,5.7534,5.7362,5.7372,5.753,5.758,5.7555,5.7417,5.7464,5.7586,5.7711,5.7617,5.7435,5.7538,5.757,5.7646,5.7468,5.7399,5.7306,5.7499,5.7591,5.755,5.7408,5.738,5.7434,5.7511,5.7587,5.7413,5.7399,5.7525,5.7744,5.7737,5.7645,5.7672,5.779,5.7958,5.7934,5.7835,5.7751,5.7836,5.8076,5.8163,5.8293,5.8071,5.8128,5.8279,5.8119,5.7891,5.779,5.7753,5.7827,5.7779,5.7663,5.7424,5.7498,5.758,5.7573,5.7587,5.7379,5.7447,5.7553,5.7594,5.7457,5.7372,5.7283,5.7454,5.7937,5.8651,5.9655,6.1508,6.3621,6.4943,6.5135,6.4606,6.3904,6.2209,6.0281,5.8728,5.8325,5.8259,5.8165,5.8241,5.7964,5.775,5.7687,5.7801,5.781,5.7822,5.7638,5.766,5.7727,5.7838,5.7807,5.7701,5.7682,5.777,5.7883,5.7986,5.7859,5.7927,5.7919,5.8031,5.8082,5.7916,5.8014,5.8111,5.8219,5.8356,5.8153,5.817,5.8312,5.8435,5.8465,5.8432,5.8359,5.842,5.8568,5.8677,5.8683,5.8616,5.8717,5.8799,5.9037,5.8891,5.8878,5.892,5.9124,5.919,5.9178,5.9121,5.9189,5.9231,5.9372,5.9349,5.9304,5.9293,5.9334,5.9593,5.9543,5.9284,5.9395,5.9347,5.9382,5.924,5.9008,5.8872,5.8761,5.8722,5.8549,5.8337,5.8284,5.8299,5.8283,5.8275,5.8093,5.8021,5.8029,5.8176,5.8142,5.8038,5.7945,5.8045,5.8257,5.8241,5.8079,5.8121,5.8196,5.8267,5.8371,5.8214,5.8084,5.8197,5.823,5.8284,5.8118,5.8076,5.8158,5.8228,5.8284,5.8188,5.8009,5.7991,5.8144,5.8216,5.8094,5.8012,5.8054,5.8075,5.8105,5.804,5.7953,5.7883,5.8006,5.8041,5.7998,5.7814,5.7885,5.796,5.8044,5.7949,5.781,5.7817,5.7939,5.8003,5.7983,5.7757,5.7767,5.7854,5.794,5.7883,5.7736,5.7889,5.8026,5.8143,5.8138,5.7984,5.7944,5.803,5.8094,5.8109,5.8035,5.8142,5.8351,5.8445,5.8376,5.8252,5.8215,5.8218,5.8184,5.8215,5.8026,5.7919,5.7893,5.7928,5.798,5.7837,5.78,5.7879,5.802,5.8094,5.794,5.7909,5.7947,5.8085,5.8059,5.7751,5.7703,5.8136,5.8896,5.9971,6.1574,6.3562,6.5249,6.5753,6.5518,6.4151,6.2156,6.0328,5.9109,5.9144,5.8801,5.8553,5.8584,5.857,5.8511,5.8476,5.8279,5.8284,5.8308,5.8423,5.8375,5.8294,5.8271,5.8344,5.8493,5.8462,5.8271,5.8366,5.8455,5.854,5.8519,5.8383,5.8311,5.8353,5.8358,5.8516,5.8455,5.8389,5.8431,5.8435,5.8578,5.8496,5.8454,5.8551,5.8738,5.8758,5.876,5.8735,5.8856,5.8976,5.9088,5.8909,5.8995,5.907,5.9184,5.9275,5.9279,5.9149,5.9226,5.941,5.9601,5.9418,5.9336,5.9449,5.9581,5.9689,5.9642,5.9633,5.9756,5.9853,5.9984,5.9881,5.9752,5.9705,5.96,5.9575,5.9341,5.9089,5.8992,5.8956,5.8849,5.8769,5.8518,5.8409,5.8476,5.8571,5.849,5.8276,5.8312,5.8433,5.8527,5.8531,5.839,5.8406,5.8452,5.8576,5.8625,5.8437,5.8457,5.8592,5.874,5.8723,5.8536,5.8514,5.8553,5.8603,5.8639,5.8475,5.8466,5.8548,5.8579,5.8566,5.8408,5.835,5.8344,5.8436,5.8367,5.8303,5.8206,5.8237,5.8292,5.8332,5.8048,5.7926,5.787,5.7925,5.7953,5.7862,5.7669,5.7778,5.7793,5.7813,5.7823,5.7637,5.7632,5.7731,5.78,5.7649,5.7493,5.7538,5.767,5.7724,5.7772,5.7675,5.774,5.7733,5.7809,5.7717,5.7551,5.7589,5.7639,5.771,5.7746,5.7829,5.7847,5.7829,5.7947,5.7879,5.7568,5.7433,5.7504,5.7447,5.7393,5.7086,5.692,5.7006,5.7101,5.6994,5.6924,5.6825,5.6828,5.6938,5.6911,5.6756,5.676,5.6747,5.6726,5.6822,5.7173,5.7738,5.9028,6.092,6.2865,6.3886,6.3987,6.3471,6.1826,6.1033,5.9148,5.7438,5.7436,5.74,5.7328,5.7075,5.6956,5.6861,5.6936,5.6949,5.6899,5.6736,5.6844,5.6857,5.7061,5.6919,5.6828,5.6812,5.6894,5.7007,5.7078,5.6934,5.7008,5.7083,5.7235,5.7156,5.7089,5.7094,5.7107,5.7253,5.7243,5.7237,5.7278,5.7395,5.7615,5.7529,5.738,5.7453,5.7483,5.766,5.7698,5.7595,5.7456,5.7648,5.7751,5.7825,5.7661,5.7623,5.7821,5.7879,5.799,5.7911,5.7933,5.8053,5.8146,5.8368,5.8339,5.821,5.8295,5.8438,5.8433,5.836,5.8267,5.8345,5.8432,5.849,5.8235,5.806,5.7961,5.7916,5.7808,5.7608,5.7354,5.7391,5.7435,5.7495,5.7356,5.7213,5.7144,5.7303,5.736,5.729,5.7169,5.7171,5.7246,5.743,5.7334,5.7203,5.7228,5.7355,5.743,5.7369,5.7201,5.7151,5.7167,5.7178,5.739,5.7175,5.7023,5.7151,5.7211,5.7268,5.704,5.7017,5.7119,5.7265,5.727,5.7123,5.7047,5.7123,5.7163,5.7163,5.6954,5.6991,5.7093,5.7181,5.7243,5.7041,5.6997,5.7049,5.7108,5.7145,5.7022,5.6953,5.695,5.7141,5.7409,5.7185,5.7136,5.7149,5.7324,5.7285,5.7144,5.7074,5.7112,5.7326,5.7487,5.7525,5.7377,5.7425,5.746,5.7484,5.7283,5.7095,5.7062,5.7142,5.71,5.6938,5.6802,5.6753,5.6861,5.688,5.6845,5.6643,5.6582,5.6697,5.676,5.6769,5.6635,5.6664,5.657,5.6924,5.7661,5.8445,5.9996,6.2075,6.3916,6.455,6.4473,6.349,6.1768,6.0767,5.9003,5.7778,5.7847,5.7709,5.7794,5.7594,5.7446,5.726,5.7386,5.7385,5.7455,5.7272,5.7317,5.7296,5.7463,5.7458,5.7301,5.7326,5.7412,5.749,5.7605,5.7526,5.7478,5.7502,5.7585,5.7703,5.761,5.7551,5.7618,5.7684,5.7798,5.7681,5.7596,5.7661,5.7797,5.7814,5.7787,5.7684,5.7766,5.7948,5.8057,5.8059,5.7945,5.7978,5.8062,5.8182,5.819,5.805,5.814,5.8258,5.8403,5.8299,5.8125,5.8112,5.8288,5.837,5.8335,5.8193,5.8106,5.8221,5.8346,5.846,5.8446,5.8302,5.8357,5.8396,5.822,5.7999,5.789,5.782,5.7841,5.7709,5.7514,5.7414,5.7395,5.7467,5.7476,5.7378,5.7263,5.7303,5.7319,5.739,5.7252,5.7135,5.7177,5.7272,5.7286,5.7237,5.7137,5.7255,5.7345,5.7475,5.7477,5.7335,5.7269,5.74,5.7389,5.7361,5.717,5.7163,5.7281,5.7416,5.7315,5.7152,5.7112,5.7219,5.7278,5.7207,5.6982,5.7074,5.7155,5.7172,5.7095,5.7031,5.6951,5.7044,5.7068,5.7074,5.6866,5.6884,5.6954,5.7163,5.7096,5.6923,5.6897,5.6984,5.7066,5.713,5.6913,5.6997,5.7082,5.7104,5.7181,5.7094,5.7026,5.7068,5.722,5.7172,5.7178,5.7199,5.7162,5.722,5.7261,5.7109,5.6899,5.684,5.6827,5.6779,5.6535,5.6302,5.6368,5.6393,5.643,5.6332,5.6178,5.6173,5.625,5.6319,5.6243,5.6131,5.614,5.6029,5.6145,5.6587,5.7264,5.8447,6.0424,6.26,6.3699,6.3844,6.3519,6.2747,6.0917,5.8858,5.7434,5.721,5.7227,5.6998,5.6872,5.6483,5.6537,5.649,5.6604,5.6402,5.6311,5.6276,5.6384,5.6444,5.6425,5.6191,5.6241,5.6331,5.6486,5.6467,5.6382,5.6278,5.6362,5.6468,5.6534,5.6414,5.6456,5.6615,5.6724,5.6791,5.6654,5.6635,5.6785,5.6826,5.6874,5.6856,5.6807,5.6849,5.698,5.7031,5.6923,5.687,5.6955,5.7085,5.7211,5.7174,5.7177,5.725,5.7406,5.7548,5.7463,5.744,5.7555,5.7744,5.783,5.7785,5.7718,5.7768,5.7885,5.8003,5.8019,5.7852,5.7888,5.7935,5.7961,5.7831,5.7594,5.7608,5.7495,5.7519,5.7343,5.7102,5.7084,5.71,5.7128,5.7057,5.6877,5.6848,5.6865,5.69,5.6914,5.6727,5.6691,5.6821,5.6922,5.6947,5.6812,5.6755,5.6776,5.6836,5.6822,5.6714,5.6723,5.671,5.6831,5.6924,5.6803,5.6683,5.6651,5.6758,5.6662,5.6614,5.6497,5.6582,5.6563,5.6609,5.6485,5.6495,5.6498,5.6594,5.6578,5.648,5.6353,5.6399,5.6437,5.6553,5.6453,5.6315,5.639,5.655,5.6702,5.6632,5.6577,5.6578,5.6606,5.6768,5.6688,5.6538,5.6657,5.6798,5.6924,5.6938,5.7016,5.6946,5.6975,5.7034,5.6956,5.6579,5.6543,5.6534,5.6484,5.6328,5.6122,5.615,5.6247,5.6334,5.6256,5.6133,5.6121,5.6136,5.6177,5.6258,5.6226,5.6061,5.6084,5.6065,5.6457,5.6941,5.7835,5.9483,6.1592,6.3448,6.3788,6.3469,6.2064,6.0258,5.842,5.6925,5.6827,5.6806,5.6715,5.6667,5.646,5.6215,5.6304,5.6323,5.6368,5.6345,5.6165,5.6259,5.6277,5.6387,5.6365,5.6227,5.6226,5.6414,5.6477,5.6417,5.6279,5.6336,5.6455,5.6589,5.6541,5.6408,5.6409,5.6561,5.6665,5.6657,5.6561,5.6594,5.6747,5.682,5.6855,5.6721,5.6788,5.6909,5.7048,5.7112,5.6993,5.6948,5.7117,5.7176,5.7308,5.7168,5.7198,5.735,5.7487,5.7581,5.7396,5.7378,5.7527,5.7618,5.7621,5.7457,5.7472,5.7524,5.7766,5.7955,5.7804,5.7729,5.777,5.7857,5.7759,5.756,5.7382,5.7346,5.7367,5.7305,5.708,5.69,5.684,5.6888,5.6787,5.6564,5.6556,5.6614,5.6669,5.6667,5.6704,5.6646,5.6484,5.663,5.6686,5.6614,5.6481,5.6544,5.6753,5.6859,5.6861,5.6689,5.6752,5.6958,5.7107,5.7085,5.6948,5.6893,5.704,5.7111,5.7127,5.6942,5.6857,5.6954,5.692,5.7026,5.6886,5.6822,5.6839,5.6896,5.6866,5.6698,5.6657,5.6858,5.7083,5.7087,5.6851,5.6837,5.6989,5.7155,5.7223,5.6901,5.684,5.6973,5.7175,5.731,5.7239,5.7179,5.714,5.7274,5.7223,5.6999,5.6821,5.6674,5.6688,5.6736,5.653,5.6253,5.6315,5.639,5.6439,5.63,5.6063,5.6026,5.599,5.6034,5.5909,5.5815,5.5708,5.5752,5.6074,5.6525,5.7323,5.883,5.9968,6.1943,6.3277,6.3397,6.2936,6.1137,5.9381,5.7358,5.6263,5.6361,5.6414,5.6412,5.6293,5.6016,5.5966,5.5997,5.6081,5.6027,5.5875,5.579,5.5889,5.5942,5.6058,5.5823,5.5758,5.5801,5.5937,5.589,5.571,5.5658,5.5774,5.5939,5.6012,5.5887,5.5849,5.6001,5.6155,5.6114,5.6158,5.6017,5.6054,5.6201,5.6269,5.6157,5.614,5.6226,5.6421,5.6545,5.6427,5.6379,5.6444,5.6748,5.6902,5.6796,5.6731,5.6906,5.6976,5.699,5.6906,5.6745,5.6731,5.6863,5.7035,5.6978,5.6901,5.7011,5.7097,5.7258,5.7214,5.7079,5.7104,5.7108,5.7146,5.7056,5.6779,5.6743,5.6709,5.6786,5.6756,5.6557,5.6493,5.6537,5.6676,5.6702,5.652,5.6502,5.6598,5.6699,5.6801,5.6698,5.6719,5.6792,5.6827,5.684,5.6758,5.6753,5.6702,5.6835,5.6921,5.6814,5.6702,5.6789,5.6943,5.6878,5.6752,5.6662,5.6689,5.6814,5.6837,5.6588,5.6413,5.6358,5.6347,5.6415,5.6296,5.6171,5.6143,5.623,5.624,5.6211,5.6102,5.6252,5.6288,5.6479,5.6313,5.6212,5.6297,5.6414,5.6436,5.6441,5.6392,5.6522,5.6625,5.6704,5.6566,5.6455,5.6467,5.6477,5.6442,5.6241,5.6018,5.5858,5.5828,5.5912,5.5892,5.5699,5.5697,5.5754,5.5838,5.5829,5.5696,5.5826,5.587,5.5924,5.6021,5.575,5.5627,5.6154,5.7031,5.8186,5.9989,6.2102,6.3485,6.3853,6.347,6.1481,5.9314,5.7494,5.6621,5.6656,5.6239,5.6118,5.6007,5.5932,5.5919,5.5689,5.5573,5.5574,5.5633,5.5748,5.5657,5.5509,5.5563,5.5709,5.5784,5.5754,5.5795,5.5909,5.6019,5.5993,5.5967,5.5882,5.5993,5.6186,5.6305,5.6358,5.6247,5.6247,5.6357,5.6534,5.66,5.6373,5.6465,5.6568,5.6725,5.6713,5.6627,5.6674,5.6819,5.6909,5.6937,5.6796,5.6762,5.685,5.7051,5.71,5.7005,5.7016,5.7175,5.7219,5.7239,5.7057,5.7039,5.7084,5.7267,5.7327,5.7159,5.722,5.7285,5.7358,5.743,5.7346,5.7172,5.7033,5.7046,5.695,5.6677,5.6504,5.6446,5.6473,5.6366,5.6311,5.6172,5.6229,5.6237,5.6271,5.618,5.6062,5.6117,5.6187,5.6254,5.6236,5.6137,5.6163,5.626,5.6382,5.6342,5.6133,5.6214,5.6269,5.6322,5.6232,5.6091,5.6103,5.6162,5.6178,5.6221,5.6133,5.6066,5.6077,5.6165,5.6121,5.6013,5.5956,5.5983,5.6052,5.6073,5.5916,5.6002,5.6141,5.6261,5.627,5.6167,5.6196,5.6176,5.64,5.6379,5.6249,5.6161,5.6195,5.6395,5.6464,5.639,5.6424,5.6449,5.6541,5.6574,5.6343,5.6173,5.6233,5.6218,5.6117,5.5882,5.5784,5.5733,5.58,5.5924,5.5863,5.5756,5.5742,5.5792,5.5916,5.5852,5.5729,5.5803,5.577,5.5785,5.6112,5.6721,5.773,5.9429,6.1645,6.3237,6.3631,6.3627,6.2995,6.106,5.8988,5.7188,5.6687,5.6684,5.6577,5.643,5.6122,5.6139,5.6115,5.6125,5.6026,5.5882,5.5882,5.5989,5.6083,5.6014,5.5897,5.5888,5.5866,5.6038,5.6085,5.6026,5.5874,5.5941,5.6115,5.614,5.603,5.6019,5.6025,5.6251,5.6273,5.6138,5.619,5.6268,5.6444,5.6511,5.6445,5.6344,5.6355,5.6526,5.6559,5.653,5.6426,5.6556,5.6627,5.6597,5.6706,5.6576,5.6645,5.6767,5.6847,5.6797,5.6848,5.6839,5.6968,5.702,5.7025,5.7013,5.6891,5.7042,5.7142,5.7167,5.7061,5.7045,5.7085,5.7058,5.6901,5.6665,5.6591,5.6521,5.6579,5.6396,5.6139,5.6096,5.6091,5.6141,5.616,5.5921,5.5882,5.5954,5.6022,5.5994,5.5909,5.5958,5.5983,5.6162,5.6173,5.6068,5.6011,5.6143,5.6181,5.6108,5.6014,5.6005,5.6056,5.6145,5.6179,5.6071,5.6005,5.6054,5.6125,5.6247,5.6058,5.5961,5.599,5.6097,5.6136,5.5929,5.5879,5.5911,5.5975,5.5873,5.5916,5.5646,5.579,5.5872,5.5984,5.5915,5.582,5.5821,5.5896,5.5904,5.5854,5.5832,5.5947,5.6182,5.6347,5.6194,5.6059,5.6108,5.5997,5.5956,5.5956,5.5682,5.567,5.5589,5.565,5.5638,5.5341,5.5444,5.5522,5.5588,5.56,5.5466,5.5508,5.5589,5.575,5.5693,5.5318,5.5447,5.5615,5.6286,5.711,5.8332,6.034,6.2378,6.3359,6.3409,6.2101,6.013,5.8315,5.6702,5.6269,5.6237,5.5968,5.5916,5.5832,5.5847,5.5509,5.5426,5.5504,5.5506,5.5563,5.5601,5.5501,5.5531,5.5659,5.574,5.5674,5.547,5.5616,5.5748,5.5907,5.5743,5.5512,5.5628,5.5704,5.6087,5.6079,5.6001,5.5936,5.6065,5.6149,5.6127,5.5919,5.5893,5.6072,5.6136,5.623,5.6012,5.6092,5.6227,5.6422,5.6446,5.6311,5.6309,5.6423,5.6558,5.6658,5.6491,5.6413,5.6501,5.6634,5.6764,5.6733,5.6723,5.6758,5.7011,5.7071,5.7032,5.6985,5.7102,5.7228,5.7271,5.6998,5.6921,5.689,5.6833,5.6789,5.6567,5.6341,5.6221,5.6226,5.6175,5.6019,5.5876,5.5897,5.6007,5.6084,5.5825,5.5748,5.5836,5.5965,5.6,5.584,5.5712,5.5775,5.5789,5.5912,5.5815,5.5603,5.5642,5.5781,5.5891,5.5802,5.5655,5.5644,5.5819,5.5922,5.5821,5.5616,5.5662,5.58,5.585,5.5757,5.5649,5.5624,5.5608,5.5679,5.5687,5.5472,5.5398,5.5511,5.5611,5.571,5.5541,5.5589,5.5709,5.5836,5.5825,5.5672,5.5659,5.5687,5.5837,5.5956,5.5829,5.5886,5.5886,5.6035,5.604,5.5935,5.5659,5.5587,5.558,5.5617,5.5484,5.5145,5.5045,5.5082,5.5195,5.503,5.4827,5.4898,5.4919,5.5023,5.4941,5.4822,5.4879,5.5084,5.5011,5.4976,5.5402,5.6268,5.7535,5.9569,6.1494,6.2565,6.2784,6.2423,6.0679,5.8566,5.6683,5.6013,5.6091,5.5992,5.5964,5.5649,5.5634,5.5604,5.5662,5.557,5.546,5.5386,5.5485,5.5612,5.5584,5.5404,5.5465,5.5594,5.5769,5.5668,5.5618,5.5598,5.5736,5.5787,5.5859,5.5706,5.5688,5.5749,5.5965,5.5949,5.5829,5.5884,5.5935,5.6055,5.6135,5.6028,5.6025,5.6132,5.6316,5.6317,5.6361,5.6215,5.6425,5.6478,5.6639,5.6703,5.6619,5.6678,5.678,5.6894,5.6792,5.6739,5.6825,5.6938,5.7001,5.6877,5.6758,5.6855,5.6889,5.7042,5.6981,5.6886,5.6918,5.6971,5.6985,5.6881,5.6596,5.6449,5.6413,5.6414,5.6163,5.5953,5.5861,5.5987,5.5965,5.5862,5.5645,5.5665,5.5733,5.573,5.5829,5.5649,5.5647,5.5668,5.5839,5.5861,5.5727,5.5626,5.571,5.5898,5.5937,5.5893,5.585,5.5889,5.5994,5.604,5.5793,5.5796,5.5892,5.5985,5.606,5.5903,5.5769,5.5783,5.5843,5.5911,5.5848,5.5843,5.5944,5.6001,5.6014,5.5928,5.5762,5.5808,5.5916,5.5977,5.5919,5.5874,5.5957,5.6074,5.6185,5.6057,5.597,5.602,5.6069,5.626,5.6348,5.6303,5.6488,5.6698,5.6683,5.6633,5.6385,5.6262,5.6193,5.6219,5.6139,5.5854,5.57,5.5657,5.5656,5.5676,5.5526,5.5529,5.5719,5.5772,5.5705,5.5652,5.5617,5.5714,5.5845,5.5665,5.5486,5.6011,5.6434,5.7429,5.8805,6.091,6.285,6.3523,6.3716,6.2781,6.062,5.8554,5.7165,5.6976,5.6816,5.6422,5.6343,5.6154,5.6191,5.6017,5.5846,5.5741,5.5831,5.5907,5.6014,5.5877,5.5772,5.579,5.588,5.5907,5.5925,5.5751,5.5811,5.5883,5.5915,5.598,5.5924,5.5996,5.6165,5.6121,5.6116,5.5971,5.6056,5.6178,5.6274,5.6269,5.6171,5.6211,5.6369,5.6452,5.6462,5.6325,5.637,5.6483,5.6673,5.6664,5.6592,5.6728,5.6889,5.6946,5.6984,5.6879,5.6851,5.6932,5.7026,5.7075,5.7035,5.7084,5.7164,5.7267,5.7273,5.7166,5.7131,5.7289,5.7328,5.7305,5.7101,5.6983,5.694,5.6916,5.6894,5.658,5.6313,5.6288,5.626,5.6268,5.6151,5.5988,5.6048,5.6168,5.6201,5.6059,5.5947,5.5975,5.6103,5.6179,5.6083,5.6015,5.6103,5.6227,5.6308,5.6311,5.6188,5.6194,5.6326,5.6471,5.6428,5.631,5.6323,5.6445,5.6544,5.6501,5.6338,5.6374,5.6531,5.6595,5.6548,5.6509,5.641,5.6523,5.6456,5.6526,5.6459,5.6354,5.637,5.6462,5.6447,5.6251,5.6228,5.6421,5.65,5.6475,5.634,5.6305,5.6416,5.6466,5.6521,5.6358,5.6287,5.636,5.6507,5.6624,5.6434,5.6342,5.6357,5.6287,5.6165,5.5911,5.5715,5.5691,5.5666,5.5589,5.5481,5.5429,5.5423,5.5463,5.5525,5.5424,5.5282,5.5275,5.5366,5.5464,5.5386,5.5119,5.513,5.5564,5.6278,5.7209,5.87,6.0953,6.2737,6.3299,6.2863,6.108,6.002,5.8277,5.6605,5.6161,5.5803,5.5735,5.5448,5.5407,5.521,5.4894,5.478,5.4848,5.4845,5.4835,5.469,5.4784,5.4845,5.4975,5.4909,5.4804,5.4728,5.4727,5.4946,5.5029,5.4831,5.4824,5.482,5.5001,5.5051,5.495,5.502,5.5166,5.5287,5.5297,5.5155,5.5144,5.5265,5.5456,5.5517,5.5552,5.5379,5.549,5.5627,5.5688,5.5667,5.5619,5.5732,5.5901,5.5972,5.5975,5.5931,5.6,5.6271,5.6342,5.6209,5.6178,5.6296,5.6325,5.642,5.6433,5.6328,5.6324,5.6475,5.6569,5.6628,5.6381,5.6315,5.6239,5.6242,5.6111,5.5799,5.5729,5.5802,5.5804,5.5741,5.543,5.5435,5.5459,5.5611,5.5528,5.5419,5.5392,5.5456,5.5513,5.5573,5.5407,5.537,5.5485,5.5552,5.5505,5.5221,5.5238,5.5274,5.544,5.5485,5.5372,5.5124,5.526,5.5351,5.5398,5.5219,5.4974,5.5026,5.5072,5.5131,5.4936,5.4921,5.489,5.4933,5.4951,5.4707,5.4621,5.4656,5.4755,5.4835,5.4745,5.4753,5.4798,5.4888,5.4964,5.4978,5.4819,5.4819,5.4981,5.5154,5.5127,5.5096,5.5131,5.5246,5.5249,5.5204,5.4966,5.4996,5.4969,5.4992,5.4848,5.4584,5.4438,5.4547,5.4548,5.446,5.4301,5.4379,5.4549,5.4692,5.4504,5.4255,5.4196,5.425,5.4314,5.4158,5.4112,5.4786,5.5103,5.6148,5.7935,5.9792,6.1288,6.1937,6.1859,6.0386,5.8435,5.6351,5.5029,5.5062,5.4966,5.4667,5.4458,5.4337,5.4394,5.4324,5.4108,5.3948,5.3999,5.4105,5.4232,5.4094,5.4,5.4131,5.4346,5.4355,5.4314,5.4154,5.4274,5.435,5.4465,5.4366,5.4286,5.4357,5.4542,5.4574,5.4556,5.4455,5.4487,5.4616,5.4752,5.4665,5.4638,5.4715,5.4928,5.5052,5.5092,5.4996,5.5124,5.5258,5.5442,5.5398,5.5313,5.5317,5.5546,5.5631,5.5625,5.5511,5.5533,5.5679,5.589,5.5969,5.5916,5.5905,5.6051,5.6231,5.6374,5.6168,5.6172,5.6313,5.6439,5.643,5.6175,5.6145,5.6142,5.6124,5.6117,5.5937,5.5766,5.5823,5.5806,5.5865,5.5728,5.5619,5.5754,5.5866,5.5942,5.5862,5.5825,5.5871,5.6049,5.6131,5.6057,5.5923,5.6013,5.6222,5.6399,5.6378,5.6213,5.6231,5.6427,5.6591,5.6528,5.641,5.6443,5.6604,5.6667,5.6526,5.6283,5.6304,5.6358,5.6401,5.6393,5.6183,5.6152,5.6206,5.6345,5.6318,5.6192,5.6257,5.6372,5.652,5.6447,5.6347,5.6363,5.6547,5.6711,5.6684,5.6428,5.6532,5.6806,5.686,5.7053,5.6925,5.6812,5.6825,5.6946,5.687,5.6594,5.6505,5.6502,5.65,5.6404,5.6268,5.6196,5.6303,5.6365,5.6489,5.6373,5.6401,5.6431,5.6551,5.6664,5.6702,5.6561,5.6529,5.6704,5.7412,5.8166,5.9226,6.1429,6.3637,6.465,6.4764,6.4028,6.2092,6.0186,5.8531,5.7829,5.775,5.7572,5.7488,5.7453,5.7349,5.7026,5.7072,5.7175,5.7323,5.7208,5.7083,5.7088,5.728,5.7358,5.7445,5.7272,5.729,5.7462,5.7596,5.7477,5.7433,5.7379,5.7523,5.7757,5.7802,5.7655,5.7602,5.7811,5.7964,5.7982,5.7912,5.786,5.8044,5.8141,5.8211,5.8118,5.8144,5.8264,5.8376,5.8403,5.8418,5.8442,5.8526,5.8746,5.8951,5.8842,5.8797,5.8848,5.8939,5.9032,5.8961,5.8929,5.8978,5.9146,5.9243,5.9192,5.9089,5.9416,5.9484,5.9549,5.9499,5.9242,5.9182,5.9276,5.9282,5.9119,5.8907,5.885,5.8771,5.8752,5.8619,5.8462,5.8415,5.85,5.8577,5.8524,5.8365,5.8336,5.8403,5.848,5.8504,5.8351,5.8299,5.8405,5.847,5.8479,5.8338,5.8334,5.8577,5.8748,5.868,5.8436,5.8424,5.8471,5.8592,5.8598,5.8443,5.8357,5.8302,5.8413,5.8492,5.8396,5.8283,5.8414,5.8391,5.845,5.8317,5.8329,5.8463,5.8549,5.8574,5.8439,5.8329,5.8439,5.8611,5.8718,5.8757,5.8587,5.8629,5.8715,5.8849,5.8904,5.8746,5.8753,5.8869,5.9027,5.8996,5.9029,5.8981,5.9155,5.9164,5.9059,5.8775,5.8799,5.8812,5.8812,5.8662,5.8401,5.8319,5.8395,5.8474,5.841,5.8224,5.8192,5.8245,5.8283,5.8321,5.8182,5.815,5.8188,5.8173,5.8482,5.8976,5.9471,6.0695,6.2725,6.4899,6.6002,6.6145,6.5651,6.3859,6.1944,6.0166,5.9385,5.9377,5.9156,5.9149,5.8814,5.8623,5.862,5.8716,5.8786,5.8682,5.8524,5.8585,5.8762,5.8837,5.8721,5.8679,5.8735,5.8837,5.8869,5.8799,5.8715,5.8802,5.8923,5.8973,5.8896,5.8854,5.8902,5.9042,5.9142,5.9115,5.9073,5.9036,5.9147,5.9346,5.9306,5.9265,5.925,5.9381,5.9547,5.9514,5.9388,5.947,5.9606,5.9666,5.9625,5.9562,5.9623,5.9809,5.9895,5.9935,5.9806,5.9786,5.9839,5.9976,6.0087,5.9985,6.0001,6.0091,6.0195,6.0198,6.011,6.0074,6.0061,6.0029,5.9973,5.9658,5.9513,5.9525,5.9506,5.9463,5.9319,5.9112,5.9133,5.919,5.9224,5.9134,5.9039,5.9165,5.9271,5.9338,5.9118,5.901,5.9062,5.916,5.9153,5.9036,5.8931,5.8971,5.8964,5.9042,5.8944,5.8732,5.8688,5.8783,5.892,5.8835,5.8713,5.8773,5.8844,5.8976,5.8895,5.8792,5.8702,5.8813,5.8866,5.8881,5.8677,5.866,5.8781,5.882,5.8917,5.866,5.8688,5.876,5.8865,5.8848,5.8707,5.875,5.8965,5.9043,5.9015,5.8854,5.876,5.893,5.8974,5.9167,5.9091,5.9085,5.9209,5.94,5.9518,5.9348,5.9236,5.9212,5.9176,5.9087,5.8834,5.863,5.8548,5.8494,5.8445,5.8295,5.8151,5.8168,5.8289,5.8379,5.8252,5.8075,5.8166,5.8292,5.8287,5.8236,5.7992,5.8194,5.8871,5.9783,6.0909,6.2821,6.4988,6.5892,6.5945,6.4947,6.3813,6.1917,6.0175,5.9311,5.9303,5.8892,5.8739,5.8722,5.8589,5.8517,5.8234,5.8304,5.8335,5.846,5.843,5.8255,5.8251,5.8356,5.844,5.8462,5.827,5.8262,5.8346,5.8463,5.8503,5.8365,5.8368,5.8473,5.861,5.8597,5.8528,5.8576,5.8628,5.8795,5.883,5.8758,5.8663,5.8783,5.8905,5.8983,5.8921,5.8833,5.8797,5.8921,5.9017,5.8966,5.8914,5.9009,5.9159,5.9171,5.9078,5.913,5.9157,5.934,5.9414,5.9218,5.9094,5.9244,5.9387,5.9551,5.9548,5.9553,5.9643,5.976,5.9909,5.9809,5.9631,5.9614,5.9682,5.9722,5.9602,5.9403,5.9355,5.9321,5.9346,5.9115,5.8972,5.8926,5.9017,5.9135,5.9149,5.8924,5.8879,5.8921,5.8982,5.8991,5.8877,5.8839,5.8955,5.9061,5.9065,5.885,5.8849,5.8995,5.9043,5.9057,5.9006,5.8923,5.8958,5.9093,5.9141,5.9018,5.902,5.913,5.9234,5.9306,5.9149,5.9057,5.9078,5.9192,5.9185,5.902,5.8855,5.8985,5.9076,5.9201,5.9201,5.894,5.9005,5.9075,5.9207,5.9124,5.8949,5.8975,5.9062,5.9124,5.9146,5.9054,5.9,5.9046,5.9165,5.8942,5.8584,5.856,5.8555,5.8576,5.8454,5.8203,5.8141,5.8221,5.8164,5.8271,5.7978,5.8054,5.8155,5.8314,5.822,5.8065,5.8087,5.806,5.8134,5.8353,5.8912,5.9326,6.069,6.2788,6.4944,6.5743,6.5657,6.4773,6.293,6.1125,5.9261,5.8801,5.8833,5.8798,5.8697,5.8425,5.8287,5.8185,5.8315,5.83,5.815,5.7902,5.7891,5.801,5.82,5.8158,5.7977,5.7966,5.8124,5.8189,5.8124,5.8047,5.8112,5.8204,5.8147,5.8062,5.7995,5.8071,5.8089,5.8132,5.8219,5.7976,5.8112,5.8286,5.8296,5.8488,5.8409,5.8431,5.8558,5.8747,5.8745,5.8538,5.8677,5.8808,5.8931,5.885,5.869,5.8698,5.8798,5.8811,5.8848,5.8859,5.8791,5.8875,5.9024,5.9023,5.8899,5.8936,5.9029,5.9308,5.9394,5.9232,5.9102,5.9082,5.9152,5.9064,5.8707,5.8588,5.8497,5.8536,5.8521,5.839,5.8165,5.8122,5.8199,5.8203,5.8073,5.802,5.7917,5.7991,5.794,5.7876,5.7841,5.7964,5.811,5.8136,5.7953,5.7841,5.7836,5.7816,5.7986,5.7799,5.7657,5.7695,5.7944,5.7959,5.7877,5.7756,5.7782,5.7894,5.801,5.7852,5.7761,5.7715,5.7832,5.8078,5.8095,5.8012,5.799,5.811,5.8344,5.8501,5.8408,5.825,5.8455,5.8508,5.8502,5.8247,5.8361,5.8429,5.8534,5.8648,5.8434,5.8449,5.8427,5.8382,5.8328,5.8085,5.7861,5.7768,5.7718,5.7568,5.7261,5.715,5.7113,5.7179,5.7276,5.7088,5.6986,5.7109,5.7225,5.7253,5.6997,5.6872,5.6847,5.724,5.7993,5.8836,6.0115,6.2111,6.4035,6.4903,6.4876,6.3662,6.1775,5.9795,5.8195,5.782,5.7693,5.7646,5.7639,5.7592,5.7385,5.7262,5.7107,5.7202,5.7305,5.7259,5.7092,5.7074,5.7197,5.7409,5.7373,5.7241,5.7296,5.7477,5.7653,5.7641,5.7531,5.7565,5.7733,5.7783,5.7863,5.7765,5.7727,5.7787,5.798,5.8117,5.8076,5.8041,5.8203,5.8339,5.8451,5.8367,5.8367,5.8485,5.8586,5.8642,5.8505,5.8538,5.8713,5.8827,5.8943,5.8833,5.8709,5.8779,5.9045,5.9133,5.8995,5.9017,5.9086,5.9288,5.9326,5.9298,5.9266,5.9341,5.9436,5.9565,5.9333,5.9155,5.9169,5.9164,5.9208,5.9074,5.8831,5.8767,5.8719,5.8704,5.8658,5.8478,5.8493,5.8537,5.8624,5.8554,5.8338,5.8371,5.8586,5.8686,5.8707,5.8643,5.8657,5.8768,5.8939,5.8964,5.8819,5.8894,5.8975,5.9072,5.9129,5.8999,5.902,5.9085,5.9149,5.9225,5.903,5.8961,5.8998,5.908,5.9011,5.8987,5.8781,5.8839,5.8937,5.8989,5.8935,5.8782,5.8852,5.8902,5.9023,5.8928,5.881,5.8795,5.8867,5.8983,5.8964,5.8752,5.8881,5.8811,5.8805,5.8729,5.8442,5.836,5.8339,5.8415,5.8246,5.7958,5.7897,5.7912,5.7945,5.7869,5.7761,5.7724,5.79,5.8036,5.796,5.7926,5.8104,5.8141,5.8276,5.8189,5.8488,5.9136,6.0275,6.2295,6.4515,6.5908,6.6466,6.6228,6.4694,6.2634,6.0454,5.9219,5.9296,5.9185,5.8995,5.8711,5.8654,5.8647,5.8627,5.8704,5.8448,5.8399,5.8524,5.8584,5.8662,5.8598,5.8404,5.8491,5.8627,5.8738,5.8569,5.8491,5.86,5.8735,5.8862,5.8827,5.8732,5.8719,5.8871,5.8952,5.889,5.8811,5.8842,5.9056,5.9127,5.8984,5.8895,5.8957,5.9025,5.9139,5.914,5.9045,5.9154,5.9274,5.9353,5.9363,5.9241,5.925,5.9366,5.9468,5.9467,5.9301,5.9224,5.9314,5.9515,5.9434,5.9375,5.9478,5.9576,5.9699,5.9573,5.9472,5.9472,5.9491,5.9539,5.9439,5.9204,5.8888,5.8997,5.8997,5.8861,5.8686,5.8544,5.8609,5.8608,5.8641,5.8407,5.8316,5.8404,5.8476,5.8461,5.8354,5.829,5.8307,5.8419,5.8599,5.8429,5.8363,5.8416,5.8497,5.8563,5.8395,5.8241,5.828,5.8359,5.8479,5.8274,5.8181,5.8256,5.8349,5.8401,5.8299,5.8186,5.8116,5.8238,5.8348,5.8294,5.8097,5.8173,5.8236,5.8319,5.82,5.8081,5.8101,5.8217,5.8266,5.8181,5.8078,5.8196,5.8364,5.8527,5.8507,5.8331,5.832,5.8346,5.8519,5.8519,5.8464,5.8353,5.8561,5.8622,5.8723,5.8711,5.8655,5.8737,5.8716,5.8632,5.8423,5.8221,5.8288,5.8321,5.8254,5.8005,5.7872,5.789,5.793,5.8014,5.7795,5.7688,5.7698,5.7785,5.7855,5.7761,5.767,5.7518,5.7758,5.8416,5.9203,6.0538,6.1752,6.3938,6.5448,6.5697,6.5241,6.3433,6.1725,5.9956,5.8967,5.8764,5.8516,5.8458,5.8452,5.8227,5.8019,5.7934,5.8059,5.8092,5.7974,5.7858,5.7847,5.799,5.8109,5.8037,5.7936,5.7976,5.8078,5.8176,5.8186,5.8025,5.8058,5.8135,5.8192,5.811,5.8006,5.8063,5.8248,5.8378,5.8365,5.822,5.8285,5.8365,5.8435,5.8626,5.8467,5.8461,5.8603,5.8751,5.8747,5.86,5.8611,5.8649,5.883,5.8955,5.885,5.8844,5.898,5.9083,5.9186,5.9118,5.9023,5.911,5.9168,5.9283,5.9243,5.9274,5.9288,5.9571,5.9558,5.947,5.9381,5.9336,5.9361,5.9287,5.9021,5.8799,5.8832,5.8784,5.8724,5.8522,5.8364,5.8349,5.8396,5.8443,5.8294,5.814,5.8141,5.8203,5.8313,5.8256,5.8078,5.8137,5.8201,5.8344,5.838,5.8267,5.8243,5.8313,5.8416,5.8377,5.8252,5.8112,5.8178,5.8229,5.8288,5.8032,5.8055,5.811,5.8126,5.8139,5.7845,5.7863,5.8046,5.8084,5.8098,5.8,5.7755,5.792,5.7983,5.7998,5.7854,5.7798,5.7874,5.797,5.7942,5.7842,5.7791,5.783,5.7936,5.7995,5.7898,5.7888,5.7886,5.786,5.7981,5.7848,5.7684,5.7613,5.7713,5.7709,5.7622,5.7448,5.7489,5.7584,5.7757,5.7774,5.761,5.7695,5.7701,5.779,5.7645,5.7529,5.76,5.7652,5.7744,5.796,5.7767,5.7732,5.7817,5.7958,5.792,5.7497,5.7332,5.7337,5.7334,5.7268,5.7051,5.7019,5.7114,5.7158,5.7054,5.6862,5.6843,5.6861,5.7002,5.7063,5.7082,5.7041,5.7021,5.7003,5.7194,5.7728,5.8586,6.0074,6.2266,6.4091,6.4671,6.4597,6.3644,6.1886,5.9928,5.9019,5.8099,5.8002,5.7979,5.7835,5.7723,5.745,5.7492,5.7485,5.7453,5.7248,5.719,5.7221,5.7409,5.7433,5.7377,5.7187,5.7343,5.7439,5.7511,5.7421,5.7413,5.7409,5.7537,5.7593,5.7701,5.7412,5.7566,5.7643,5.7765,5.7685,5.764,5.7606,5.7778,5.7852,5.7768,5.7708,5.7701,5.7781,5.7833,5.7877,5.7713,5.7672,5.7863,5.8037,5.8179,5.803,5.7983,5.8073,5.8193,5.8304,5.8096,5.814,5.824,5.831,5.8309,5.815,5.8174,5.8243,5.8422,5.8533,5.8493,5.8344,5.8433,5.8535,5.8583,5.8405,5.8227,5.8146,5.8009,5.8041,5.7773,5.7601,5.7609,5.756,5.7612,5.7619,5.7404,5.7456,5.7478,5.7541,5.749,5.7399,5.7398,5.7498,5.7614,5.7551,5.735,5.7355,5.7432,5.7593,5.7477,5.7344,5.7344,5.7415,5.7415,5.7382,5.7312,5.7305,5.729,5.743,5.7458,5.7249,5.7293,5.7371,5.7433,5.7494,5.7173,5.724,5.7323,5.7313,5.7261,5.7149,5.7135,5.7185,5.7266,5.7288,5.7163,5.71,5.722,5.7351,5.733,5.7176,5.7125,5.7206,5.7287,5.7373,5.7197,5.7129,5.7204,5.7342,5.7438,5.7284,5.7288,5.7312,5.7534,5.7644,5.7579,5.7536,5.7666,5.772,5.7804,5.7782,5.7655,5.7604,5.7687,5.7761,5.7719,5.7654,5.7902,5.7983,5.8042,5.7938,5.7765,5.7721,5.7703,5.775,5.7514,5.7316,5.7142,5.7041,5.7115,5.7093,5.6772,5.6881,5.6956,5.69,5.6888,5.6693,5.6595,5.6779,5.6891,5.6845,5.6503,5.6665,5.7449,5.8278,5.9846,6.1692,6.3366,6.4231,6.427,6.3276,6.1377,5.9305,5.7747,5.7566,5.7512,5.7217,5.7157,5.7119,5.7119,5.7119,5.689,5.67,5.6667,5.6796,5.6869,5.6711,5.6592,5.6619,5.6708,5.6821,5.662,5.6501,5.6602,5.6752,5.6823,5.684,5.6694,5.6699,5.6793,5.6832,5.6858,5.6681,5.6682,5.6818,5.7083,5.7196,5.7027,5.7016,5.7108,5.7248,5.713,5.7014,5.7082,5.7136,5.728,5.7264,5.7147,5.7184,5.7266,5.7352,5.7482,5.7347,5.7307,5.7399,5.7495,5.7523,5.7424,5.743,5.7516,5.7659,5.7678,5.7574,5.7552,5.7623,5.7723,5.772,5.7552,5.7375,5.7359,5.7372,5.7353,5.7043,5.6835,5.6848,5.6857,5.6919,5.6712,5.6588,5.6608,5.6746,5.6789,5.652,5.6493,5.6692,5.6758,5.6838,5.6784,5.6677,5.6681,5.6836,5.6967,5.692,5.6851,5.6882,5.6927,5.6993,5.6911,5.6746,5.6851,5.6985,5.7163,5.7018,5.6888,5.6952,5.7048,5.704,5.7005,5.6924,5.6918,5.6962,5.7026,5.7064,5.688,5.6887,5.6918,5.7032,5.6998,5.6868,5.6924,5.6937,5.7015,5.7103,5.7046,5.6891,5.7009,5.7039,5.7135,5.6967,5.6989,5.7058,5.7259,5.7331,5.7352,5.7281,5.7333,5.7469,5.7476,5.7383,5.7334,5.7425,5.7522,5.7676,5.7571,5.7506,5.7563,5.7618,5.7681,5.7777,5.7499,5.7373,5.7421,5.7409,5.7272,5.7045,5.7069,5.7158,5.7204,5.7019,5.7059,5.7115,5.725,5.7253,5.7232,5.7079,5.7146,5.7258,5.7148,5.7119,5.7514,5.8483,5.9835,6.1924,6.3726,6.4675,6.4937,6.457,6.2933,6.085,5.8869,5.8138,5.8276,5.8189,5.8041,5.7819,5.7647,5.7609,5.7711,5.7587,5.7411,5.7388,5.747,5.7579,5.7609,5.7376,5.7322,5.7468,5.7625,5.7644,5.7514,5.7502,5.7576,5.767,5.773,5.7728,5.7626,5.7652,5.7788,5.7848,5.7828,5.7723,5.7832,5.7957,5.8027,5.7962,5.7843,5.801,5.8124,5.8308,5.8271,5.8272,5.8302,5.8481,5.8566,5.8566,5.8424,5.8513,5.8681,5.8831,5.8795,5.8617,5.8871,5.8985,5.9063,5.9045,5.8809,5.8897,5.9137,5.9214,5.9182,5.9036,5.8984,5.9117,5.9145,5.9068,5.8848,5.8647,5.861,5.8569,5.8387,5.8232,5.8114,5.8108,5.8058,5.7948,5.7655,5.7564,5.7563,5.7665,5.7727,5.7469,5.7367,5.7424,5.7525,5.761,5.7503,5.766,5.7726,5.7798,5.7885,5.7736,5.7699,5.7748,5.7807,5.7802,5.7681,5.7548,5.7658,5.7739,5.7813,5.7691,5.7611,5.7694,5.7757,5.78,5.7732,5.7637,5.7588,5.7647,5.768,5.7527,5.7419,5.7414,5.7508,5.7612,5.7529,5.7396,5.7422,5.7418,5.7601,5.7474,5.7379,5.7433,5.7513,5.7539,5.7537,5.7374,5.7327,5.7475,5.7531,5.753,5.7411,5.7442,5.7535,5.7611,5.781,5.7714,5.7581,5.7674,5.7768,5.7873,5.7754,5.7714,5.7749,5.7895,5.7966,5.7906,5.8092,5.81,5.82,5.8254,5.7966,5.7906,5.7943,5.7958,5.7978,5.776,5.753,5.7653,5.7747,5.7806,5.77,5.7599,5.7638,5.7744,5.7841,5.7741,5.7596,5.7508,5.7344,5.7571,5.808,5.8928,5.9566,6.1392,6.3659,6.4977,6.517,6.4808,6.3311,6.1397,5.9613,5.8389,5.8486,5.8328,5.8294,5.8054,5.7826,5.7691,5.7755,5.769,5.7598,5.7435,5.743,5.748,5.761,5.7592,5.7432,5.7393,5.7555,5.7553,5.7661,5.7623,5.7662,5.7714,5.7827,5.7864,5.7652,5.7677,5.7835,5.786,5.7915,5.7913,5.7836,5.7876,5.8024,5.8108,5.8097,5.8007,5.8113,5.8278,5.8405,5.8264,5.8247,5.8314,5.8534,5.8663,5.8629,5.8653,5.8754,5.8824,5.894,5.8863,5.8762,5.8803,5.8886,5.9,5.9021,5.8845,5.8944,5.9158,5.935,5.9287,5.9182,5.9191,5.927,5.9212,5.905,5.8891,5.8851,5.8827,5.8828,5.8727,5.8357,5.8225,5.815,5.8163,5.809,5.7879,5.7835,5.7845,5.7946,5.7922,5.7761,5.7806,5.7898,5.8067,5.8084,5.805,5.7981,5.8119,5.8219,5.8305,5.8165,5.8102,5.8259,5.8359,5.8359,5.8275,5.8192,5.8282,5.8307,5.8335,5.8139,5.8123,5.817,5.8214,5.8142,5.8042,5.7872,5.7862,5.7843,5.7992,5.7902,5.7754,5.7728,5.778,5.7782,5.7742,5.7575,5.7579,5.7619,5.7683,5.7554,5.7458,5.7445,5.7495,5.7591,5.7484,5.7365,5.7273,5.7341,5.7469,5.731,5.7131,5.7141,5.7248,5.7462,5.7404,5.7314,5.7324,5.7449,5.758,5.7426,5.7353,5.7272,5.7365,5.7568,5.7558,5.7513,5.7503,5.76,5.7771,5.7854,5.7617,5.745,5.7454,5.7504,5.7433,5.7162,5.7096,5.7129,5.7314,5.725,5.7036,5.6989,5.7061,5.7184,5.7307,5.7087,5.7003,5.7032,5.7003,5.6924,5.7295,5.7929,5.9128,6.0842,6.2963,6.4369,6.4674,6.4452,6.3004,6.1269,6.0192,5.8469,5.8008,5.8012,5.79,5.7815,5.7393,5.7456,5.7384,5.7475,5.74,5.7194,5.7066,5.7268,5.728,5.7345,5.714,5.723,5.7293,5.7364,5.7355,5.7314,5.7353,5.7563,5.7655,5.7705,5.7507,5.7523,5.7637,5.7787,5.7881,5.7787,5.7778,5.7915,5.8023,5.8142,5.8009,5.8042,5.8089,5.8299,5.8407,5.8286,5.82,5.8382,5.841,5.8544,5.8486,5.8556,5.8621,5.8746,5.8766,5.866,5.8657,5.8763,5.8961,5.897,5.8919,5.8988,5.9098,5.918,5.9333,5.9352,5.9134,5.9202,5.9327,5.9322,5.9259,5.9008,5.8871,5.8952,5.8809,5.856,5.8385,5.8391,5.8369,5.8362,5.8302,5.8132,5.8032,5.8034,5.8254,5.8155,5.8029,5.8007,5.8036,5.8128,5.8034,5.7883,5.792,5.7948,5.8168,5.8204,5.7955,5.8017,5.8074,5.8175,5.8357,5.8093,5.7986,5.8064,5.8231,5.8238,5.7996,5.7988,5.8094,5.817,5.8202,5.7986,5.7833,5.7902,5.8101,5.8059,5.7914,5.7875,5.7929,5.8143,5.817,5.7979,5.7896,5.7954,5.8102,5.8148,5.8034,5.7899,5.8004,5.8178,5.8315,5.8155,5.7966,5.8205,5.8308,5.8383,5.8201,5.8055,5.8052,5.8169,5.8416,5.8394,5.8371,5.8337,5.8525,5.8521,5.841,5.8063,5.803,5.802,5.8042,5.7919,5.7617,5.7638,5.7716,5.7799,5.7679,5.7568,5.7576,5.7593,5.7742,5.7704,5.7584,5.7598,5.754,5.7604,5.8207,5.8797,5.9854,6.1864,6.4004,6.5337,6.5556,6.5089,6.3472,6.1682,6.0753,5.8977,5.8535,5.8621,5.8647,5.8643,5.8338,5.8064,5.8035,5.816,5.8195,5.8043,5.7922,5.799,5.8117,5.819,5.8073,5.7989,5.8169,5.8294,5.835,5.8391,5.8195,5.8249,5.8432,5.8565,5.8507,5.8513,5.8642,5.8884,5.8889,5.8954,5.8773,5.8858,5.9136,5.9301,5.9266,5.9227,5.9327,5.9592,5.9709,5.9853,5.9717,5.9769,5.9921,6.0048,6.0157,6.0065,6.0158,6.034,6.0523,6.0505,6.0436,6.0524,6.0717,6.0946,6.1016,6.0964,6.1025,6.1219,6.1326,6.1499,6.1361,6.1304,6.145,6.1535,6.1546,6.138,6.1191,6.1241,6.1215,6.1252,6.1056,6.0937,6.0929,6.1062,6.1041,6.0975,6.0942,6.1023,6.1189,6.1336,6.1327,6.1232,6.1369,6.1601,6.1785,6.1652,6.1618,6.1697
