-5.0034,-4.9978,-4.9988,-4.9955,-4.9965,-4.9912,-4.99,-4.9842,-4.982,-4.9737,-4.9721,-4.9672,-4.9684,-4.969,-4.9693,-4.9643,-4.9617,-4.9579,-4.9551,-4.9541,-4.9515,-4.9492,-4.9493,-4.9483,-4.946,-4.946,-4.9426,-4.9496,-4.9642,-4.9748,-4.9905,-5.0015,-5.0081,-5.0082,-5.0102,-5.0202,-5.0087,-4.9783,-4.966,-4.9599,-4.9628,-4.9666,-4.9569,-4.9699,-4.9688,-4.9579,-4.9336,-4.9224,-4.917,-4.9186,-4.9089,-4.9017,-4.8955,-4.8907,-4.8837,-4.8883,-4.8893,-4.9455,-5.153,-5.4622,-5.6978,-6.0447,-6.267,-6.2517,-5.5606,-4.2769,-3.2632,-2.9356,-2.7745,-2.7213,-2.9559,-3.3531,-3.8309,-4.219,-4.5418,-4.738,-4.8636,-4.8979,-4.9281,-4.9434,-4.9661,-4.9707,-4.9894,-4.9939,-5.0063,-5.0172,-5.0237,-5.0249,-5.0368,-5.0405,-5.0495,-5.0524,-5.063,-5.0727,-5.0817,-5.0932,-5.0966,-5.0977,-5.1039,-5.1101,-5.12,-5.1286,-5.133,-5.142,-5.1433,-5.1443,-5.1486,-5.1471,-5.1463,-5.1469,-5.1445,-5.1459,-5.1388,-5.1366,-5.1327,-5.1314,-5.125,-5.1206,-5.1127,-5.1151,-5.1131,-5.1275,-5.1282,-5.1447,-5.153,-5.1592,-5.1619,-5.1529,-5.139,-5.1223,-5.1014,-5.0864,-5.0539,-5.0375,-5.0082,-4.9877,-4.9684,-4.9615,-4.9463,-4.9355,-4.9224,-4.9199,-4.9118,-4.907,-4.904,-4.9014,-4.9049,-4.9068,-4.9009,-4.9011,-4.9024,-4.9076,-4.9033,-4.8978,-4.8911,-4.8962,-4.8967,-4.9012,-4.8926,-4.8916,-4.8901,-4.8904,-4.8869,-4.8869,-4.8845,-4.8835,-4.8804,-4.877,-4.8689,-4.8659,-4.8663,-4.8695,-4.8663,-4.8608,-4.8589,-4.8541,-4.8497,-4.8481,-4.8449,-4.8444,-4.8416,-4.8386,-4.838,-4.8292,-4.8281,-4.8262,-4.8255,-4.8264,-4.8304,-4.8406,-4.853,-4.8656,-4.8787,-4.8831,-4.8815,-4.8897,-4.897,-4.8857,-4.853,-4.83,-4.8212,-4.8183,-4.8283,-4.8247,-4.828,-4.8343,-4.8403,-4.8266,-4.81,-4.7891,-4.7824,-4.776,-4.7796,-4.7783,-4.7748,-4.7658,-4.7654,-4.7631,-4.8228,-5.0223,-5.1793,-5.4162,-5.6575,-5.9449,-6.0169,-5.8356,-4.9438,-3.9387,-3.2918,-3.057,-2.9119,-2.9252,-3.2796,-3.6335,-4.0399,-4.3132,-4.5595,-4.6935,-4.7837,-4.773,-4.8215,-4.8125,-4.8553,-4.8487,-4.8776,-4.8692,-4.9001,-4.8887,-4.9141,-4.9048,-4.9264,-4.9204,-4.9469,-4.943,-4.9595,-4.9553,-4.9735,-4.9754,-4.9865,-4.9862,-5.002,-5.0025,-5.0149,-5.0161,-5.0257,-5.0262,-5.0347,-5.0352,-5.0462,-5.0418,-5.0449,-5.0451,-5.0468,-5.0448,-5.0385,-5.0316,-5.0272,-5.0227,-5.0204,-5.017,-5.0133,-5.0127,-5.0134,-5.0246,-5.0311,-5.041,-5.0428,-5.0435,-5.0324,-5.0255,-5.0021,-4.9791,-4.9504,-4.933,-4.9076,-4.8919,-4.8672,-4.864,-4.8437,-4.8359,-4.822,-4.8162,-4.8035,-4.8048,-4.7955,-4.797,-4.79,-4.795,-4.7874,-4.7961,-4.7899,-4.7932,-4.7873,-4.7932,-4.7908,-4.7945,-4.7881,-4.7938,-4.7852,-4.7889,-4.7856,-4.7869,-4.7827,-4.7888,-4.7809,-4.7845,-4.7754,-4.7798,-4.7734,-4.7734,-4.7671,-4.7675,-4.7588,-4.759,-4.7554,-4.7583,-4.7467,-4.75,-4.7441,-4.7463,-4.7401,-4.7401,-4.7335,-4.7356,-4.7288,-4.7332,-4.7284,-4.7319,-4.7306,-4.7414,-4.7493,-4.7675,-4.7807,-4.7933,-4.7985,-4.8037,-4.8042,-4.8076,-4.8038,-4.7703,-4.7482,-4.7386,-4.7348,-4.7464,-4.7424,-4.7527,-4.7608,-4.7514,-4.7285,-4.7178,-4.7098,-4.7012,-4.6944,-4.6926,-4.6893,-4.6902,-4.684,-4.6814,-4.6786,-4.7245,-4.9141,-5.2393,-5.503,-5.8536,-6.1005,-6.1004,-5.4069,-4.0445,-2.8218,-2.2889,-2.3064,-2.4815,-2.6642,-3.0513,-3.5605,-3.9911,-4.3433,-4.5457,-4.6741,-4.7031,-4.7459,-4.7522,-4.7794,-4.7779,-4.8017,-4.8001,-4.8217,-4.8171,-4.8356,-4.837,-4.8529,-4.8491,-4.8647,-4.8642,-4.8798,-4.8816,-4.8999,-4.9012,-4.9144,-4.9161,-4.9304,-4.9357,-4.9488,-4.9511,-4.9635,-4.9687,-4.9824,-4.9799,-4.9903,-4.9909,-5,-4.9979,-5.0025,-4.998,-4.9994,-4.9991,-4.9971,-4.9943,-4.9879,-4.9846,-4.9871,-4.9879,-4.9904,-4.9955,-5.0041,-5.0088,-5.0139,-5.0101,-4.9997,-4.9835,-4.9738,-4.9511,-4.9201,-4.8917,-4.8621,-4.8381,-4.8162,-4.7957,-4.7764,-4.764,-4.7521,-4.7431,-4.7333,-4.7263,-4.7179,-4.7135,-4.7104,-4.7096,-4.7035,-4.7043,-4.7026,-4.7016,-4.7019,-4.7043,-4.7017,-4.7044,-4.7032,-4.7073,-4.7032,-4.7051,-4.7001,-4.701,-4.7003,-4.6997,-4.6958,-4.6966,-4.6935,-4.6933,-4.6899,-4.6872,-4.6815,-4.6801,-4.6728,-4.6779,-4.6736,-4.6741,-4.6648,-4.6636,-4.6626,-4.6641,-4.6565,-4.6533,-4.6543,-4.6518,-4.6524,-4.6638,-4.6766,-4.6851,-4.6976,-4.7127,-4.7135,-4.7181,-4.7238,-4.7296,-4.705,-4.6644,-4.6472,-4.6502,-4.653,-4.656,-4.6542,-4.6693,-4.6626,-4.6404,-4.6173,-4.6081,-4.6046,-4.5992,-4.5918,-4.5877,-4.584,-4.5797,-4.5781,-4.5753,-4.5789,-4.6719,-4.9265,-5.2362,-5.4983,-5.856,-6.0034,-5.8892,-4.8481,-3.4653,-2.5048,-2.2559,-2.2383,-2.3447,-2.7318,-3.1287,-3.6461,-4.0288,-4.3313,-4.4928,-4.5863,-4.6005,-4.6438,-4.6459,-4.6778,-4.6732,-4.6972,-4.6916,-4.7129,-4.7079,-4.7277,-4.7197,-4.7407,-4.7383,-4.7552,-4.7549,-4.7752,-4.7735,-4.7908,-4.7929,-4.8069,-4.8056,-4.8203,-4.8226,-4.8355,-4.8382,-4.8453,-4.8504,-4.8594,-4.8625,-4.8657,-4.8662,-4.871,-4.8702,-4.8728,-4.8729,-4.8686,-4.8648,-4.8635,-4.8635,-4.8577,-4.8555,-4.8498,-4.8512,-4.8576,-4.8671,-4.8718,-4.8831,-4.8868,-4.8896,-4.8844,-4.8717,-4.8458,-4.8254,-4.793,-4.769,-4.738,-4.7152,-4.6958,-4.6838,-4.6673,-4.6572,-4.6394,-4.6312,-4.6244,-4.6225,-4.6134,-4.6103,-4.6053,-4.6102,-4.6095,-4.614,-4.6094,-4.6114,-4.607,-4.616,-4.6119,-4.6139,-4.6113,-4.6172,-4.6124,-4.6118,-4.6032,-4.6097,-4.6085,-4.6137,-4.6088,-4.6075,-4.601,-4.602,-4.5972,-4.5978,-4.5877,-4.588,-4.586,-4.5869,-4.5805,-4.5786,-4.5724,-4.5742,-4.5728,-4.5712,-4.5658,-4.5645,-4.573,-4.5883,-4.5927,-4.6079,-4.6135,-4.6241,-4.6243,-4.6336,-4.6406,-4.6337,-4.5869,-4.5663,-4.5622,-4.5678,-4.5762,-4.5714,-4.5772,-4.58,-4.5593,-4.5418,-4.5299,-4.5247,-4.5199,-4.5091,-4.5068,-4.5079,-4.5078,-4.5022,-4.5019,-4.4964,-4.5571,-4.7693,-5.067,-5.2889,-5.6133,-5.8527,-5.8014,-5.2065,-4.0075,-3.1388,-2.8279,-2.6314,-2.5002,-2.6413,-3.0219,-3.4378,-3.8157,-4.1199,-4.3192,-4.4573,-4.5089,-4.5364,-4.5625,-4.5714,-4.591,-4.5984,-4.6139,-4.6152,-4.6278,-4.6367,-4.6411,-4.6454,-4.6532,-4.658,-4.6701,-4.6756,-4.6873,-4.6867,-4.7,-4.696,-4.7098,-4.714,-4.7249,-4.7284,-4.7304,-4.7306,-4.7348,-4.7404,-4.7424,-4.741,-4.737,-4.731,-4.735,-4.7346,-4.7344,-4.7221,-4.7215,-4.7163,-4.7159,-4.7078,-4.7055,-4.6976,-4.6976,-4.7027,-4.7077,-4.7235,-4.7321,-4.7459,-4.7498,-4.755,-4.7524,-4.7412,-4.7268,-4.7023,-4.6864,-4.6644,-4.6387,-4.6209,-4.6007,-4.5861,-4.5748,-4.5599,-4.5507,-4.5445,-4.5433,-4.5353,-4.536,-4.5353,-4.5316,-4.5287,-4.5313,-4.532,-4.5334,-4.5329,-4.5314,-4.5301,-4.5293,-4.5291,-4.5269,-4.5242,-4.5206,-4.5194,-4.5196,-4.5199,-4.5191,-4.5141,-4.5095,-4.5106,-4.5073,-4.5041,-4.4979,-4.4957,-4.4944,-4.4944,-4.499,-4.5012,-4.5081,-4.5145,-4.525,-4.537,-4.5461,-4.5468,-4.5528,-4.566,-4.5617,-4.5444,-4.4968,-4.4731,-4.4735,-4.4843,-4.4828,-4.4747,-4.4876,-4.4919,-4.4836,-4.463,-4.4444,-4.4325,-4.4325,-4.4303,-4.425,-4.4188,-4.416,-4.4122,-4.4082,-4.4149,-4.4955,-4.7322,-5.0135,-5.2302,-5.5226,-5.7089,-5.559,-4.8743,-3.7953,-3.1167,-2.7367,-2.6146,-2.5932,-2.8026,-3.1962,-3.568,-3.899,-4.0185,-4.2155,-4.3672,-4.427,-4.449,-4.4756,-4.4872,-4.5016,-4.5071,-4.5214,-4.5292,-4.5447,-4.548,-4.5565,-4.559,-4.5705,-4.5807,-4.59,-4.5917,-4.6039,-4.6082,-4.6141,-4.6216,-4.6323,-4.6344,-4.6404,-4.6496,-4.6578,-4.6623,-4.6644,-4.6684,-4.6678,-4.6779,-4.6808,-4.6791,-4.6769,-4.6739,-4.6684,-4.6697,-4.6634,-4.6578,-4.6503,-4.6513,-4.6417,-4.6376,-4.6365,-4.6452,-4.6536,-4.6672,-4.6768,-4.6823,-4.6814,-4.676,-4.6618,-4.6437,-4.6195,-4.5972,-4.5719,-4.5632,-4.5417,-4.5186,-4.5035,-4.4929,-4.4792,-4.4663,-4.4585,-4.4516,-4.4497,-4.4511,-4.4477,-4.4448,-4.4441,-4.4499,-4.4481,-4.4491,-4.4449,-4.4475,-4.4473,-4.4521,-4.4487,-4.446,-4.445,-4.4465,-4.4463,-4.4421,-4.4418,-4.4411,-4.4401,-4.4386,-4.436,-4.4357,-4.4334,-4.4316,-4.4316,-4.4269,-4.4224,-4.4222,-4.4267,-4.4423,-4.4518,-4.463,-4.479,-4.4933,-4.4981,-4.5057,-4.5147,-4.5131,-4.4665,-4.4275,-4.4174,-4.4203,-4.4262,-4.4236,-4.4342,-4.4403,-4.4384,-4.4192,-4.3991,-4.3878,-4.378,-4.3709,-4.368,-4.3655,-4.3637,-4.3611,-4.3556,-4.3494,-4.3795,-4.5432,-4.8691,-5.1434,-5.4552,-5.7651,-5.7662,-5.6562,-4.6528,-3.299,-2.3507,-2.0118,-2.1051,-2.3104,-2.704,-3.1265,-3.5928,-3.9342,-4.1802,-4.3171,-4.3855,-4.4021,-4.4364,-4.4422,-4.4669,-4.4667,-4.4826,-4.483,-4.5002,-4.4999,-4.5151,-4.52,-4.5374,-4.5377,-4.5538,-4.553,-4.5681,-4.5736,-4.588,-4.59,-4.6041,-4.6083,-4.6237,-4.6279,-4.6388,-4.6427,-4.6504,-4.6567,-4.6658,-4.6685,-4.6763,-4.6794,-4.6833,-4.6827,-4.6804,-4.6783,-4.6771,-4.6729,-4.6696,-4.6666,-4.6628,-4.6635,-4.6645,-4.6721,-4.6786,-4.682,-4.6927,-4.6993,-4.7017,-4.6958,-4.6799,-4.6572,-4.6307,-4.6026,-4.5734,-4.5494,-4.5237,-4.5054,-4.4856,-4.4708,-4.4497,-4.4426,-4.4318,-4.4304,-4.4261,-4.4172,-4.4094,-4.4085,-4.4053,-4.4084,-4.4034,-4.4055,-4.4059,-4.4111,-4.4086,-4.4099,-4.4094,-4.4127,-4.4135,-4.4166,-4.4123,-4.4156,-4.4107,-4.4158,-4.4134,-4.4121,-4.4064,-4.4097,-4.4069,-4.405,-4.4007,-4.3999,-4.3949,-4.3974,-4.3926,-4.3965,-4.4015,-4.413,-4.4257,-4.4437,-4.4561,-4.4615,-4.4595,-4.4673,-4.4726,-4.4625,-4.4115,-4.3896,-4.3751,-4.3802,-4.3876,-4.384,-4.3924,-4.3962,-4.3809,-4.3565,-4.3402,-4.3305,-4.3266,-4.3244,-4.318,-4.3157,-4.313,-4.3115,-4.3083,-4.3058,-4.3186,-4.4481,-4.7472,-5.0579,-5.3714,-5.7124,-5.8066,-5.4315,-4.1209,-2.6965,-1.9379,-1.8159,-1.9862,-2.3563,-2.593,-2.998,-3.5128,-3.8696,-4.1383,-4.2629,-4.3401,-4.3432,-4.3874,-4.384,-4.4171,-4.4093,-4.4376,-4.4285,-4.4555,-4.4497,-4.472,-4.4652,-4.4902,-4.481,-4.5058,-4.5027,-4.5177,-4.5164,-4.5375,-4.5376,-4.5532,-4.5521,-4.568,-4.5676,-4.585,-4.5867,-4.5976,-4.6005,-4.611,-4.6106,-4.6196,-4.6156,-4.6199,-4.6182,-4.6208,-4.6164,-4.6149,-4.6102,-4.6083,-4.6026,-4.6013,-4.599,-4.6035,-4.6068,-4.6186,-4.6282,-4.6383,-4.6473,-4.6468,-4.642,-4.6248,-4.6038,-4.5881,-4.5637,-4.5377,-4.5163,-4.4832,-4.4647,-4.4414,-4.4281,-4.4138,-4.404,-4.3922,-4.3891,-4.3792,-4.3786,-4.3686,-4.3671,-4.3632,-4.3652,-4.361,-4.3676,-4.3643,-4.3681,-4.3661,-4.3732,-4.3695,-4.3737,-4.3722,-4.3797,-4.3746,-4.3789,-4.3727,-4.3756,-4.3708,-4.3761,-4.3686,-4.3689,-4.3634,-4.3673,-4.3649,-4.3657,-4.3593,-4.355,-4.3515,-4.3523,-4.346,-4.3441,-4.3376,-4.34,-4.3354,-4.339,-4.3305,-4.3294,-4.3277,-4.3285,-4.3216,-4.3236,-4.3193,-4.3198,-4.318,-4.3163,-4.3085,-4.3074,-4.312,-4.3234,-4.3418,-4.3577,-4.3736,-4.3847,-4.3894,-4.3918,-4.3873,-4.3861,-4.3617,-4.3433,-4.333,-4.3374,-4.3409,-4.3413,-4.3476,-4.3479,-4.3378,-4.3125,-4.3031,-4.2981,-4.2924,-4.2855,-4.2794,-4.2765,-4.2774,-4.2747,-4.2689,-4.2672,-4.2777,-4.3784,-4.6426,-4.8191,-5.0797,-5.4471,-5.7058,-5.7401,-5.0923,-3.7565,-2.5461,-2.0104,-1.9453,-2.0831,-2.4402,-2.8775,-3.3698,-3.7781,-4.0411,-4.1464,-4.2518,-4.315,-4.3424,-4.3635,-4.3626,-4.3914,-4.3941,-4.4202,-4.4197,-4.4357,-4.4338,-4.4556,-4.461,-4.4806,-4.4773,-4.4904,-4.4962,-4.5136,-4.5143,-4.5269,-4.5278,-4.5438,-4.5457,-4.5559,-4.5547,-4.5608,-4.5674,-4.5722,-4.5736,-4.5802,-4.5821,-4.5804,-4.5863,-4.5905,-4.5848,-4.5762,-4.5737,-4.5717,-4.5725,-4.5648,-4.5609,-4.5585,-4.5538,-4.5509,-4.5611,-4.5675,-4.5808,-4.5993,-4.6122,-4.6213,-4.6271,-4.6153,-4.6065,-4.5843,-4.5592,-4.5287,-4.5085,-4.4868,-4.4658,-4.4414,-4.436,-4.4158,-4.4099,-4.3955,-4.3918,-4.3808,-4.379,-4.3773,-4.3753,-4.3723,-4.3765,-4.3752,-4.3704,-4.3755,-4.3811,-4.3765,-4.3807,-4.3794,-4.3822,-4.3807,-4.3839,-4.3828,-4.3825,-4.3832,-4.3866,-4.3804,-4.3772,-4.3784,-4.3856,-4.3795,-4.3765,-4.3704,-4.3754,-4.3726,-4.3683,-4.3617,-4.3611,-4.356,-4.3524,-4.3469,-4.3489,-4.349,-4.3465,-4.3434,-4.3444,-4.3394,-4.336,-4.3308,-4.3306,-4.3312,-4.3338,-4.3312,-4.3307,-4.3285,-4.3247,-4.3254,-4.3225,-4.3216,-4.3226,-4.3198,-4.3204,-4.318,-4.3153,-4.3187,-4.3297,-4.3437,-4.3573,-4.3613,-4.3683,-4.3759,-4.3843,-4.3822,-4.3793,-4.3849,-4.3618,-4.3428,-4.3382,-4.3383,-4.34,-4.3385,-4.3442,-4.3473,-4.3376,-4.3216,-4.3174,-4.3071,-4.2994,-4.2933,-4.2899,-4.2889,-4.2871,-4.285,-4.285,-4.287,-4.3234,-4.3919,-4.634,-4.9159,-5.1426,-5.4576,-5.5869,-5.4429,-4.6219,-3.5394,-2.8463,-2.548,-2.4123,-2.4258,-2.705,-3.1036,-3.5126,-3.8257,-4.0492,-4.2125,-4.3018,-4.3195,-4.3499,-4.367,-4.386,-4.4032,-4.4182,-4.4276,-4.4385,-4.4472,-4.4614,-4.4701,-4.4777,-4.4806,-4.4903,-4.4988,-4.5072,-4.5135,-4.5205,-4.5284,-4.5323,-4.544,-4.5483,-4.5547,-4.5632,-4.5655,-4.5748,-4.58,-4.5819,-4.5851,-4.5859,-4.5917,-4.5924,-4.5927,-4.5896,-4.5886,-4.583,-4.5797,-4.5703,-4.5709,-4.562,-4.5578,-4.5529,-4.5498,-4.5496,-4.5555,-4.567,-4.5844,-4.5914,-4.6014,-4.5991,-4.5927,-4.58,-4.5616,-4.5385,-4.5181,-4.4941,-4.473,-4.4634,-4.4447,-4.4249,-4.4196,-4.4061,-4.3969,-4.3847,-4.3804,-4.377,-4.3785,-4.3753,-4.376,-4.3724,-4.3751,-4.3782,-4.3762,-4.3763,-4.3784,-4.3769,-4.378,-4.3802,-4.384,-4.3812,-4.3848,-4.3839,-4.3824,-4.3792,-4.3789,-4.3763,-4.3774,-4.3756,-4.3682,-4.3654,-4.3629,-4.3634,-4.3623,-4.3527,-4.3497,-4.3484,-4.3435,-4.3429,-4.3428,-4.338,-4.3349,-4.3342,-4.3327,-4.3311,-4.3274,-4.323,-4.3202,-4.3206,-4.3194,-4.3143,-4.3137,-4.3158,-4.3136,-4.3096,-4.3092,-4.309,-4.3096,-4.3096,-4.3075,-4.3044,-4.3051,-4.3099,-4.3171,-4.336,-4.35,-4.3631,-4.3742,-4.3822,-4.3787,-4.3757,-4.381,-4.3483,-4.3319,-4.3212,-4.32,-4.3296,-4.326,-4.3335,-4.3359,-4.3278,-4.3057,-4.2972,-4.2869,-4.2826,-4.2716,-4.2681,-4.2635,-4.2646,-4.2597,-4.2564,-4.2529,-4.2744,-4.4091,-4.5448,-4.8693,-5.1417,-5.4897,-5.6891,-5.6216,-4.7625,-3.3733,-2.2691,-1.854,-1.9343,-2.1107,-2.521,-2.93,-3.4358,-3.7996,-4.0672,-4.2074,-4.2885,-4.2899,-4.3335,-4.3388,-4.3665,-4.3682,-4.3933,-4.3934,-4.4137,-4.4095,-4.4295,-4.431,-4.4509,-4.4517,-4.4678,-4.4693,-4.4856,-4.4893,-4.5026,-4.5042,-4.5145,-4.5194,-4.5335,-4.5361,-4.5466,-4.5537,-4.5641,-4.5693,-4.5782,-4.5805,-4.5856,-4.59,-4.5932,-4.5934,-4.5902,-4.5914,-4.5864,-4.587,-4.5829,-4.5802,-4.5721,-4.5674,-4.5645,-4.5673,-4.5624,-4.5738,-4.5822,-4.5937,-4.5972,-4.598,-4.5885,-4.5786,-4.5562,-4.537,-4.5049,-4.4825,-4.4518,-4.4318,-4.417,-4.4018,-4.3766,-4.3642,-4.3494,-4.3454,-4.33,-4.3244,-4.3151,-4.3172,-4.3097,-4.3114,-4.3018,-4.3079,-4.3029,-4.3088,-4.3048,-4.3093,-4.3051,-4.3119,-4.3081,-4.3151,-4.3114,-4.3163,-4.316,-4.3197,-4.3158,-4.3155,-4.3103,-4.3115,-4.3059,-4.3079,-4.3003,-4.301,-4.2943,-4.2957,-4.2881,-4.2896,-4.2828,-4.2854,-4.2789,-4.2789,-4.2723,-4.2705,-4.2627,-4.2642,-4.2597,-4.2565,-4.2511,-4.2508,-4.2472,-4.2483,-4.241,-4.2427,-4.2397,-4.2433,-4.2378,-4.2347,-4.2319,-4.2371,-4.2314,-4.2349,-4.2322,-4.2284,-4.2281,-4.2297,-4.2323,-4.2387,-4.2564,-4.2725,-4.2849,-4.2942,-4.2995,-4.2987,-4.2944,-4.3017,-4.2801,-4.2644,-4.2586,-4.2464,-4.2578,-4.2578,-4.2617,-4.2629,-4.2548,-4.237,-4.2276,-4.2175,-4.2083,-4.2005,-4.1983,-4.1946,-4.1944,-4.1895,-4.1857,-4.1833,-4.1862,-4.2211,-4.392,-4.7217,-5.0033,-5.3548,-5.6242,-5.6809,-5.0412,-3.6583,-2.3177,-1.7492,-1.7412,-1.9207,-2.339,-2.7528,-3.2777,-3.6815,-3.9613,-4.0582,-4.1721,-4.2214,-4.2491,-4.267,-4.2849,-4.2981,-4.3108,-4.3217,-4.3306,-4.34,-4.3515,-4.3609,-4.3698,-4.3813,-4.3917,-4.4009,-4.4113,-4.4171,-4.4214,-4.4304,-4.4389,-4.4459,-4.455,-4.4621,-4.47,-4.48,-4.4898,-4.4954,-4.5009,-4.5057,-4.5154,-4.5184,-4.5188,-4.5204,-4.5185,-4.5187,-4.5173,-4.5139,-4.51,-4.5057,-4.5015,-4.4992,-4.4965,-4.4928,-4.4949,-4.502,-4.5121,-4.5205,-4.5274,-4.5319,-4.5287,-4.5236,-4.5083,-4.4848,-4.4567,-4.4323,-4.4162,-4.3937,-4.3688,-4.3478,-4.3324,-4.3175,-4.3067,-4.2951,-4.2813,-4.2766,-4.2693,-4.2678,-4.2638,-4.2602,-4.2592,-4.2594,-4.2566,-4.2613,-4.2621,-4.263,-4.2572,-4.2662,-4.267,-4.2661,-4.267,-4.2704,-4.2747,-4.2746,-4.2712,-4.2733,-4.2742,-4.2767,-4.2743,-4.2734,-4.2699,-4.2645,-4.2633,-4.2581,-4.2579,-4.259,-4.2543,-4.2521,-4.2521,-4.2468,-4.2377,-4.2356,-4.2373,-4.2345,-4.2279,-4.2228,-4.2241,-4.2236,-4.2208,-4.2196,-4.2139,-4.2144,-4.2138,-4.2129,-4.2092,-4.2094,-4.2035,-4.2058,-4.206,-4.2047,-4.2015,-4.1984,-4.1997,-4.2018,-4.2091,-4.2186,-4.2342,-4.2476,-4.2612,-4.2681,-4.2734,-4.2752,-4.2753,-4.278,-4.258,-4.2399,-4.238,-4.2529,-4.2499,-4.2361,-4.2247,-4.2292,-4.2172,-4.1959,-4.1864,-4.1792,-4.1724,-4.1687,-4.1677,-4.1628,-4.1552,-4.1515,-4.1539,-4.1527,-4.1648,-4.2677,-4.5272,-4.8099,-5.0596,-5.39,-5.5016,-5.3903,-4.4497,-3.2673,-2.497,-2.2079,-2.123,-2.2117,-2.5796,-2.9885,-3.4244,-3.5847,-3.8631,-4.038,-4.1494,-4.1803,-4.2067,-4.2262,-4.2456,-4.2519,-4.2628,-4.2732,-4.2909,-4.2929,-4.3019,-4.3106,-4.3198,-4.3218,-4.3348,-4.3426,-4.3439,-4.347,-4.3615,-4.3665,-4.3761,-4.3837,-4.3863,-4.3935,-4.4011,-4.4039,-4.4082,-4.4149,-4.4197,-4.4241,-4.4196,-4.4187,-4.4119,-4.4099,-4.4023,-4.4032,-4.3958,-4.3915,-4.3835,-4.3746,-4.3645,-4.3516,-4.3511,-4.3515,-4.3516,-4.3643,-4.3767,-4.3906,-4.4087,-4.4283,-4.4272,-4.4194,-4.4034,-4.3913,-4.3796,-4.3635,-4.3363,-4.3204,-4.2982,-4.2821,-4.2615,-4.2483,-4.2344,-4.2243,-4.2178,-4.2192,-4.2116,-4.2134,-4.2104,-4.2135,-4.2101,-4.2162,-4.213,-4.2174,-4.2185,-4.2248,-4.223,-4.2287,-4.2277,-4.2366,-4.2384,-4.2398,-4.2344,-4.2318,-4.2345,-4.2366,-4.2383,-4.24,-4.2388,-4.2406,-4.238,-4.2396,-4.2379,-4.2388,-4.239,-4.2338,-4.2351,-4.2355,-4.2372,-4.24,-4.2452,-4.2459,-4.2438,-4.2409,-4.2418,-4.2407,-4.2431,-4.2422,-4.247,-4.2521,-4.2597,-4.2666,-4.2697,-4.2676,-4.2594,-4.2525,-4.2531,-4.2585,-4.2699,-4.2864,-4.3024,-4.3252,-4.3364,-4.3422,-4.3508,-4.3627,-4.3741,-4.3635,-4.341,-4.3316,-4.3193,-4.3228,-4.3388,-4.3455,-4.3483,-4.3679,-4.376,-4.3659,-4.3542,-4.3445,-4.3465,-4.3454,-4.3499,-4.351,-4.3554,-4.3516,-4.3585,-4.3637,-4.425,-4.6329,-4.8051,-5.0744,-5.346,-5.6646,-5.7354,-5.5216,-4.4952,-3.3434,-2.6215,-2.4273,-2.4087,-2.5245,-2.9259,-3.3258,-3.7713,-4.0565,-4.309,-4.4343,-4.527,-4.5153,-4.5765,-4.5725,-4.6192,-4.6118,-4.6551,-4.6459,-4.6831,-4.6811,-4.7188,-4.7138,-4.7425,-4.7408,-4.7698,-4.7714,-4.8013,-4.8048,-4.8331,-4.8389,-4.8565,-4.8602,-4.8823,-4.8871,-4.9073,-4.9144,-4.9345,-4.9394,-4.9575,-4.962,-4.9773,-4.983,-4.9925,-4.9964,-5.0011,-5.0055,-5.008,-5.0106,-5.0069,-5.0099,-5.0087,-5.0104,-5.009,-5.0156,-5.0217,-5.0371,-5.0475,-5.068,-5.0743,-5.0883,-5.0854,-5.0823,-5.0605,-5.0496,-5.025,-5.0108,-4.9874,-4.9754,-4.9557,-4.9587,-4.9435,-4.9437,-4.9315,-4.9328,-4.9262,-4.933,-4.9267,-4.9341,-4.9295,-4.9391,-4.9385,-4.9507,-4.947,-4.9587,-4.957,-4.9746,-4.9726,-4.9822,-4.9793,-4.9903,-4.9892,-5.0005,-4.9996,-5.0072,-5.0073,-5.0182,-5.0175,-5.0225,-5.0193,-5.0248,-5.0253,-5.0333,-5.027,-5.0338,-5.0321,-5.0401,-5.0374,-5.0422,-5.0364,-5.0395,-5.0376,-5.0429,-5.0372,-5.0435,-5.0404,-5.0461,-5.0433,-5.0474,-5.044,-5.0475,-5.0484,-5.0567,-5.0547,-5.0607,-5.0578,-5.0666,-5.0691,-5.0805,-5.0929,-5.1136,-5.1338,-5.1491,-5.1595,-5.1642,-5.1672,-5.1734,-5.1536,-5.1333,-5.1227,-5.1061,-5.1128,-5.1296,-5.1277,-5.1378,-5.1436,-5.1412,-5.1256,-5.1104,-5.1037,-5.0978,-5.0935,-5.0927,-5.0937,-5.09,-5.0891,-5.0862,-5.0923,-5.1675,-5.3982,-5.7408,-6.0176,-6.392,-6.57,-6.488,-6.1152,-4.8051,-3.38,-2.69,-2.6392,-2.8072,-3.1779,-3.5908,-4.1072,-4.5544,-4.8514,-5.0513,-5.1296,-5.1744,-5.1959,-5.2188,-5.2314,-5.2506,-5.2599,-5.27,-5.2722,-5.2871,-5.2939,-5.3109,-5.3157,-5.3287,-5.3377,-5.3497,-5.3597,-5.3714,-5.3792,-5.3929,-5.4015,-5.411,-5.4219,-5.4282,-5.4384,-5.4488,-5.4561,-5.4653,-5.473,-5.4784,-5.4867,-5.4952,-5.5028,-5.5013,-5.5045,-5.5051,-5.5063,-5.5025,-5.5023,-5.4951,-5.4937,-5.4894,-5.4926,-5.4906,-5.4944,-5.4983,-5.5046,-5.5119,-5.5219,-5.5205,-5.521,-5.5075,-5.4916,-5.4658,-5.443,-5.4139,-5.39,-5.3639,-5.3447,-5.3183,-5.3072,-5.2911,-5.2829,-5.2733,-5.2678,-5.2609,-5.2579,-5.2542,-5.2525,-5.2425,-5.2458,-5.246,-5.252,-5.2485,-5.2508,-5.2487,-5.2578,-5.2604,-5.2618,-5.2605,-5.2643,-5.2663,-5.2713,-5.2703,-5.2726,-5.2681,-5.2674,-5.2666,-5.267,-5.267,-5.2665,-5.2646,-5.2642,-5.2622,-5.2587,-5.2539,-5.2519,-5.2489,-5.2497,-5.2447,-5.2418,-5.2403,-5.2396,-5.2371,-5.2347,-5.2305,-5.2257,-5.2245,-5.2242,-5.2208,-5.2184,-5.2185,-5.2191,-5.2177,-5.2203,-5.2182,-5.217,-5.2149,-5.2174,-5.2229,-5.2345,-5.2467,-5.2545,-5.273,-5.2806,-5.2869,-5.2908,-5.2973,-5.2997,-5.275,-5.2493,-5.2395,-5.2333,-5.2454,-5.2507,-5.2508,-5.2539,-5.2487,-5.2306,-5.2149,-5.2088,-5.2076,-5.1986,-5.1977,-5.1922,-5.191,-5.1824,-5.1836,-5.1789,-5.1986,-5.3333,-5.6339,-5.9149,-6.2119,-6.543,-6.6086,-6.6002,-5.7601,-4.4348,-3.4219,-2.9858,-2.9678,-3.0808,-3.457,-3.8896,-4.3686,-4.7153,-4.9748,-5.1228,-5.2045,-5.2211,-5.2562,-5.2619,-5.287,-5.2861,-5.3023,-5.2976,-5.3248,-5.3252,-5.3392,-5.3354,-5.3517,-5.3513,-5.362,-5.3696,-5.3865,-5.3882,-5.4051,-5.4078,-5.4231,-5.4204,-5.4323,-5.4338,-5.4431,-5.4449,-5.4534,-5.4561,-5.4621,-5.4581,-5.4629,-5.462,-5.4643,-5.4594,-5.4547,-5.4564,-5.4518,-5.4439,-5.4406,-5.4329,-5.4294,-5.4234,-5.4135,-5.4126,-5.4153,-5.4265,-5.4353,-5.4472,-5.4553,-5.4606,-5.4661,-5.4581,-5.4412,-5.4257,-5.4011,-5.3813,-5.3553,-5.3333,-5.3074,-5.2942,-5.2721,-5.2604,-5.2473,-5.2392,-5.2273,-5.2271,-5.2192,-5.2138,-5.2094,-5.2129,-5.2046,-5.2088,-5.205,-5.2117,-5.2055,-5.21,-5.2056,-5.2095,-5.2113,-5.2166,-5.2134,-5.2137,-5.2028,-5.2061,-5.2048,-5.2066,-5.1996,-5.2015,-5.1915,-5.1922,-5.189,-5.1915,-5.1855,-5.1817,-5.1725,-5.1733,-5.1682,-5.1703,-5.162,-5.1625,-5.1533,-5.1541,-5.1481,-5.1451,-5.1425,-5.1412,-5.1361,-5.1371,-5.1283,-5.1267,-5.1226,-5.1343,-5.1411,-5.1503,-5.1618,-5.1731,-5.1811,-5.1866,-5.1873,-5.1909,-5.1866,-5.1565,-5.1326,-5.1161,-5.1097,-5.116,-5.1186,-5.1157,-5.1219,-5.1309,-5.1205,-5.1064,-5.0976,-5.087,-5.0772,-5.068,-5.064,-5.0616,-5.0579,-5.058,-5.0543,-5.1012,-5.2827,-5.5868,-5.7062,-5.926,-6.2482,-6.3641,-6.2221,-5.3489,-4.2614,-3.5529,-3.2716,-3.1447,-3.182,-3.484,-3.8784,-4.2855,-4.5909,-4.8167,-4.9766,-5.0572,-5.0826,-5.108,-5.1132,-5.1345,-5.1468,-5.1618,-5.1644,-5.1738,-5.1809,-5.1919,-5.2017,-5.2106,-5.2119,-5.2195,-5.2261,-5.2372,-5.244,-5.2547,-5.2594,-5.264,-5.2756,-5.2806,-5.2897,-5.2941,-5.296,-5.3032,-5.3074,-5.3105,-5.3101,-5.3115,-5.3141,-5.3154,-5.3095,-5.3046,-5.3077,-5.3016,-5.3022,-5.2893,-5.2803,-5.2702,-5.2694,-5.2607,-5.2655,-5.2627,-5.2685,-5.2765,-5.2903,-5.2986,-5.3026,-5.2975,-5.287,-5.2734,-5.2571,-5.2283,-5.2051,-5.1785,-5.1609,-5.1419,-5.1259,-5.1147,-5.1016,-5.0885,-5.0837,-5.071,-5.067,-5.0578,-5.0605,-5.0575,-5.0593,-5.0573,-5.0591,-5.0586,-5.0621,-5.0575,-5.0595,-5.056,-5.0588,-5.0575,-5.0566,-5.0508,-5.0533,-5.051,-5.053,-5.05,-5.0455,-5.0421,-5.0428,-5.0368,-5.0346,-5.0324,-5.0314,-5.0285,-5.027,-5.0181,-5.0157,-5.0128,-5.0107,-5.0108,-5.0077,-5.0012,-4.9991,-4.9927,-4.9942,-4.9924,-4.9883,-4.9852,-4.9839,-4.9837,-4.9852,-4.9878,-5.0009,-5.0145,-5.0279,-5.0404,-5.0482,-5.0513,-5.0519,-5.0628,-5.0506,-5.0097,-4.9883,-4.9746,-4.9741,-4.9845,-4.9798,-4.9885,-4.996,-4.9895,-4.963,-4.9522,-4.9443,-4.9394,-4.9369,-4.9357,-4.9292,-4.928,-4.9231,-4.9241,-4.9234,-4.9915,-5.2117,-5.5409,-5.7917,-6.1506,-6.3448,-6.267,-5.4183,-4.1003,-3.0746,-2.6598,-2.6995,-2.8447,-3.2063,-3.6205,-4.0902,-4.2887,-4.5911,-4.8031,-4.9047,-4.9531,-4.9728,-4.9959,-5.0079,-5.0275,-5.0298,-5.0443,-5.0492,-5.062,-5.0682,-5.0815,-5.0851,-5.1005,-5.1047,-5.1182,-5.1184,-5.1284,-5.131,-5.1472,-5.1537,-5.1634,-5.169,-5.1833,-5.1902,-5.202,-5.2041,-5.2148,-5.2189,-5.2297,-5.232,-5.2377,-5.2366,-5.2414,-5.2404,-5.2444,-5.2395,-5.2384,-5.2312,-5.2279,-5.2214,-5.2232,-5.2172,-5.2214,-5.2229,-5.2317,-5.2384,-5.2464,-5.2502,-5.2508,-5.2419,-5.229,-5.2069,-5.1813,-5.167,-5.1421,-5.1157,-5.0908,-5.0681,-5.0517,-5.0326,-5.0228,-5.0078,-5.0006,-4.9881,-4.9848,-4.982,-4.9774,-4.9703,-4.9708,-4.9689,-4.9715,-4.9705,-4.9709,-4.9718,-4.9763,-4.9755,-4.978,-4.9748,-4.9769,-4.9777,-4.9781,-4.9795,-4.9779,-4.9799,-4.9786,-4.978,-4.9758,-4.9749,-4.9732,-4.9729,-4.9705,-4.9695,-4.965,-4.9621,-4.9622,-4.9594,-4.9565,-4.9541,-4.9532,-4.9494,-4.9511,-4.9468,-4.9428,-4.9413,-4.9367,-4.9381,-4.9369,-4.9318,-4.9296,-4.9309,-4.9281,-4.9299,-4.9268,-4.9276,-4.9326,-4.9517,-4.9668,-4.9831,-4.9932,-4.9965,-4.9998,-5.0043,-4.9967,-4.9701,-4.9483,-4.938,-4.9314,-4.9408,-4.9386,-4.9391,-4.9477,-4.9558,-4.94,-4.9152,-4.9045,-4.9005,-4.8922,-4.8898,-4.885,-4.8869,-4.8811,-4.881,-4.8761,-4.9012,-5.0525,-5.3782,-5.6667,-5.9957,-6.2989,-6.339,-6.2522,-5.2361,-3.8052,-2.7356,-2.4348,-2.5127,-2.7431,-3.1854,-3.638,-4.134,-4.4758,-4.7354,-4.8473,-4.9156,-4.928,-4.9665,-4.9693,-4.9998,-4.9889,-5.0124,-5.0086,-5.0322,-5.0313,-5.0482,-5.0466,-5.068,-5.0689,-5.0884,-5.0853,-5.1023,-5.1033,-5.1202,-5.124,-5.1369,-5.1396,-5.1534,-5.1589,-5.1678,-5.171,-5.1816,-5.1856,-5.1939,-5.1997,-5.205,-5.2056,-5.2116,-5.2081,-5.2114,-5.2099,-5.2071,-5.2049,-5.2003,-5.1984,-5.1918,-5.1896,-5.1887,-5.192,-5.1939,-5.2025,-5.205,-5.2155,-5.2244,-5.2297,-5.2214,-5.2048,-5.1811,-5.1587,-5.1286,-5.1034,-5.0742,-5.0547,-5.0301,-5.0125,-4.9931,-4.9826,-4.9715,-4.9709,-4.9578,-4.9563,-4.9448,-4.9464,-4.9381,-4.9425,-4.9427,-4.9444,-4.938,-4.9458,-4.9425,-4.9471,-4.943,-4.948,-4.9422,-4.9506,-4.9448,-4.9467,-4.9382,-4.9429,-4.9385,-4.9432,-4.9388,-4.9398,-4.9361,-4.9393,-4.9332,-4.933,-4.9295,-4.9288,-4.9215,-4.9241,-4.9172,-4.9142,-4.9049,-4.9057,-4.9051,-4.905,-4.8975,-4.8962,-4.8901,-4.8939,-4.8906,-4.8884,-4.8833,-4.8836,-4.88,-4.8817,-4.8793,-4.8833,-4.8908,-4.9043,-4.9112,-4.9268,-4.9374,-4.9376,-4.9416,-4.9501,-4.9543,-4.9425,-4.9083,-4.8902,-4.8807,-4.8862,-4.8942,-4.8846,-4.8903,-4.8975,-4.888,-4.8697,-4.8577,-4.8485,-4.8432,-4.8381,-4.8337,-4.8328,-4.8301,-4.829,-4.8252,-4.8222,-4.8756,-5.0852,-5.3954,-5.6397,-5.9909,-6.2213,-6.1853,-5.5103,-4.2328,-3.2421,-2.7672,-2.7093,-2.7784,-3.0772,-3.298,-3.7363,-4.1582,-4.4575,-4.6824,-4.7899,-4.8565,-4.8638,-4.9031,-4.899,-4.9261,-4.9247,-4.9522,-4.9486,-4.9689,-4.9567,-4.9781,-4.9756,-4.9991,-4.9928,-5.0135,-5.0077,-5.023,-5.0235,-5.0393,-5.0419,-5.0544,-5.0511,-5.0693,-5.0646,-5.077,-5.0719,-5.0841,-5.0864,-5.0926,-5.0888,-5.0877,-5.0821,-5.0885,-5.0862,-5.0887,-5.0791,-5.0768,-5.0685,-5.0674,-5.0527,-5.0481,-5.0437,-5.0438,-5.0411,-5.0474,-5.0558,-5.0688,-5.0848,-5.0973,-5.0918,-5.0923,-5.086,-5.0737,-5.0521,-5.0314,-5.0032,-4.9864,-4.9664,-4.9431,-4.9252,-4.9106,-4.9007,-4.8896,-4.8816,-4.872,-4.8676,-4.8696,-4.8686,-4.8686,-4.8683,-4.8604,-4.8646,-4.8629,-4.8674,-4.8664,-4.8685,-4.8651,-4.8693,-4.8636,-4.8627,-4.8559,-4.855,-4.8523,-4.8565,-4.8502,-4.8476,-4.8437,-4.8467,-4.8429,-4.8434,-4.8346,-4.833,-4.8253,-4.8298,-4.8198,-4.8191,-4.8155,-4.8198,-4.8132,-4.8116,-4.8072,-4.8053,-4.7994,-4.7959,-4.7942,-4.7956,-4.7921,-4.7967,-4.8,-4.8141,-4.8312,-4.8429,-4.8474,-4.8526,-4.8579,-4.8619,-4.8618,-4.8333,-4.7982,-4.7906,-4.7798,-4.7869,-4.7832,-4.7869,-4.8005,-4.7977,-4.7803,-4.7621,-4.7583,-4.7519,-4.7445,-4.7423,-4.736,-4.736,-4.7326,-4.73,-4.7226,-4.746,-4.8888,-5.1865,-5.4263,-5.6839,-5.9939,-6.0029,-5.7652,-4.7106,-3.6903,-3.3277,-2.8802,-2.8354,-2.8337,-3.0448,-3.4431,-3.8504,-4.1983,-4.4393,-4.6233,-4.7109,-4.7532,-4.7707,-4.7973,-4.8003,-4.8195,-4.8254,-4.8413,-4.8447,-4.8574,-4.8568,-4.8708,-4.873,-4.8904,-4.8931,-4.9024,-4.9027,-4.9155,-4.9207,-4.9308,-4.9331,-4.945,-4.9509,-4.9658,-4.9662,-4.9742,-4.9767,-4.9866,-4.9878,-4.9907,-4.9889,-4.9944,-4.993,-4.9976,-4.9993,-4.9958,-4.9907,-4.9886,-4.9827,-4.9797,-4.972,-4.9672,-4.9598,-4.9626,-4.9632,-4.9695,-4.9792,-4.9866,-4.9924,-4.995,-4.99,-4.9807,-4.9647,-4.9408,-4.9165,-4.8963,-4.8673,-4.8484,-4.8279,-4.8082,-4.7904,-4.776,-4.7682,-4.7606,-4.7535,-4.7474,-4.7443,-4.7427,-4.7418,-4.7416,-4.7394,-4.7401,-4.7412,-4.7399,-4.744,-4.7422,-4.739,-4.7379,-4.7406,-4.7401,-4.7382,-4.736,-4.7392,-4.7388,-4.7376,-4.7373,-4.7326,-4.7308,-4.7298,-4.7278,-4.7258,-4.7199,-4.717,-4.7127,-4.7174,-4.7123,-4.7074,-4.703,-4.7014,-4.6998,-4.695,-4.6892,-4.6902,-4.686,-4.6859,-4.6838,-4.6833,-4.6892,-4.7017,-4.7157,-4.7339,-4.7429,-4.754,-4.7562,-4.7606,-4.7674,-4.754,-4.7134,-4.6954,-4.6846,-4.6815,-4.6909,-4.6838,-4.692,-4.7015,-4.6979,-4.6773,-4.6574,-4.6508,-4.6434,-4.6395,-4.6358,-4.6313,-4.6283,-4.6244,-4.6209,-4.6195,-4.6797,-4.8949,-5.229,-5.4879,-5.8418,-6.0465,-6.0361,-5.7239,-4.4919,-3.1663,-2.3989,-2.2857,-2.3905,-2.6728,-3.0741,-3.548,-3.9922,-4.2914,-4.5147,-4.6034,-4.6574,-4.6696,-4.7004,-4.7035,-4.7289,-4.7239,-4.746,-4.7434,-4.7641,-4.7655,-4.7806,-4.7781,-4.796,-4.7989,-4.8128,-4.8146,-4.8278,-4.8314,-4.8458,-4.8496,-4.8614,-4.8635,-4.8773,-4.8802,-4.8876,-4.8911,-4.899,-4.9055,-4.9162,-4.921,-4.9249,-4.9271,-4.9295,-4.9323,-4.933,-4.9284,-4.9271,-4.925,-4.9213,-4.9201,-4.9148,-4.9126,-4.916,-4.9182,-4.9249,-4.9293,-4.9374,-4.9428,-4.9439,-4.9409,-4.9273,-4.9076,-4.8798,-4.8555,-4.8265,-4.7982,-4.77,-4.7502,-4.7284,-4.7151,-4.6979,-4.6872,-4.6781,-4.6712,-4.665,-4.6599,-4.6533,-4.6503,-4.6467,-4.6525,-4.6465,-4.647,-4.6438,-4.6462,-4.6476,-4.6517,-4.6492,-4.6528,-4.6495,-4.6529,-4.6479,-4.6501,-4.6486,-4.6487,-4.6481,-4.6494,-4.6459,-4.6439,-4.6392,-4.6374,-4.6351,-4.6331,-4.6285,-4.629,-4.6237,-4.6209,-4.6143,-4.6118,-4.6078,-4.6104,-4.6059,-4.6053,-4.5998,-4.6042,-4.6119,-4.6284,-4.6409,-4.6504,-4.6606,-4.6667,-4.6705,-4.6755,-4.6739,-4.638,-4.6095,-4.5994,-4.5982,-4.6078,-4.6012,-4.6092,-4.617,-4.6152,-4.5921,-4.5692,-4.5606,-4.5534,-4.5469,-4.5431,-4.5371,-4.5362,-4.534,-4.5304,-4.5247,-4.5491,-4.6927,-5.0091,-5.294,-5.6093,-5.9302,-5.9813,-5.9132,-4.9508,-3.5414,-2.4685,-2.1233,-2.174,-2.3835,-2.8165,-3.2559,-3.7498,-4.1029,-4.3598,-4.481,-4.5467,-4.5631,-4.5971,-4.5996,-4.6254,-4.6173,-4.6416,-4.6408,-4.6575,-4.6548,-4.6722,-4.6732,-4.6906,-4.6922,-4.7061,-4.7073,-4.7226,-4.7276,-4.7415,-4.7454,-4.7563,-4.7615,-4.7751,-4.7777,-4.7832,-4.7874,-4.7968,-4.8016,-4.8089,-4.8135,-4.8147,-4.8151,-4.8178,-4.8193,-4.819,-4.8147,-4.8086,-4.8095,-4.8043,-4.8016,-4.7935,-4.7928,-4.7892,-4.7963,-4.7978,-4.8074,-4.8128,-4.8273,-4.8318,-4.8364,-4.8232,-4.8102,-4.7862,-4.7662,-4.7381,-4.7115,-4.6826,-4.6641,-4.6404,-4.6245,-4.604,-4.599,-4.5882,-4.585,-4.5768,-4.5733,-4.5617,-4.561,-4.5521,-4.5586,-4.5517,-4.5587,-4.5548,-4.5619,-4.5582,-4.5643,-4.5624,-4.5661,-4.5629,-4.5663,-4.5585,-4.5591,-4.5572,-4.5591,-4.5548,-4.5572,-4.5577,-4.558,-4.5539,-4.5525,-4.5465,-4.5475,-4.5439,-4.5441,-4.5379,-4.5295,-4.5257,-4.522,-4.521,-4.522,-4.5175,-4.519,-4.5084,-4.5077,-4.5041,-4.5157,-4.5197,-4.5356,-4.5523,-4.5685,-4.5696,-4.5696,-4.5744,-4.5854,-4.5664,-4.5263,-4.5084,-4.5051,-4.5072,-4.5157,-4.513,-4.5229,-4.5325,-4.5164,-4.4914,-4.4807,-4.4676,-4.4546,-4.4519,-4.4553,-4.4557,-4.4485,-4.4421,-4.4383,-4.4455,-4.5332,-4.7779,-5.0749,-5.3144,-5.4961,-5.7931,-5.8241,-5.4223,-4.2024,-3.0753,-2.477,-2.3406,-2.3563,-2.5691,-3.0179,-3.4567,-3.8696,-4.1306,-4.3413,-4.4206,-4.4846,-4.4867,-4.5209,-4.5069,-4.536,-4.5345,-4.5612,-4.5485,-4.5703,-4.566,-4.5896,-4.5838,-4.603,-4.6029,-4.6235,-4.6245,-4.6359,-4.6334,-4.6441,-4.6487,-4.6666,-4.6643,-4.6714,-4.6691,-4.6803,-4.6807,-4.6876,-4.6902,-4.6917,-4.6861,-4.6876,-4.6901,-4.6889,-4.6851,-4.6818,-4.6801,-4.669,-4.6585,-4.6527,-4.6501,-4.6469,-4.6482,-4.6427,-4.6441,-4.6459,-4.6636,-4.6746,-4.6905,-4.7021,-4.7103,-4.7035,-4.7008,-4.6747,-4.6555,-4.6205,-4.6098,-4.5849,-4.5676,-4.5405,-4.5337,-4.5231,-4.5131,-4.4984,-4.4939,-4.4802,-4.4885,-4.4788,-4.48,-4.4725,-4.4789,-4.4737,-4.4855,-4.4789,-4.4803,-4.4704,-4.478,-4.4796,-4.4829,-4.4697,-4.4729,-4.4704,-4.4726,-4.4661,-4.4672,-4.465,-4.4642,-4.4622,-4.4636,-4.4537,-4.4551,-4.4486,-4.4547,-4.4442,-4.4446,-4.4358,-4.437,-4.4361,-4.437,-4.4281,-4.4304,-4.437,-4.4501,-4.4642,-4.4759,-4.4866,-4.4897,-4.4891,-4.4954,-4.5,-4.4858,-4.4362,-4.4193,-4.4139,-4.4193,-4.4195,-4.4232,-4.4333,-4.4373,-4.4277,-4.4078,-4.3936,-4.3848,-4.3789,-4.3733,-4.3689,-4.3626,-4.3561,-4.3593,-4.3576,-4.3606,-4.4495,-4.6934,-4.9742,-5.1841,-5.4646,-5.6323,-5.486,-5.2561,-4.2152,-3.3818,-2.8595,-2.7046,-2.5308,-2.5762,-3.0036,-3.3374,-3.7216,-3.9575,-4.1904,-4.2957,-4.3864,-4.3789,-4.4371,-4.4198,-4.4632,-4.4417,-4.4758,-4.4562,-4.4913,-4.4684,-4.5028,-4.4876,-4.5198,-4.5045,-4.533,-4.5222,-4.5479,-4.5336,-4.5568,-4.5458,-4.5664,-4.5606,-4.58,-4.5701,-4.5841,-4.5755,-4.5843,-4.5801,-4.5894,-4.5828,-4.5861,-4.581,-4.5826,-4.5778,-4.5793,-4.5693,-4.5637,-4.5546,-4.5475,-4.5408,-4.5348,-4.5349,-4.5344,-4.538,-4.542,-4.5492,-4.5608,-4.5754,-4.583,-4.5859,-4.5775,-4.5693,-4.5543,-4.5374,-4.5127,-4.4888,-4.4619,-4.449,-4.4322,-4.4203,-4.4012,-4.393,-4.3807,-4.3863,-4.377,-4.3782,-4.3703,-4.3768,-4.3716,-4.3774,-4.3722,-4.378,-4.375,-4.3835,-4.3781,-4.3802,-4.3723,-4.3772,-4.3667,-4.3744,-4.3661,-4.3712,-4.3643,-4.3654,-4.3599,-4.363,-4.3535,-4.3573,-4.3484,-4.3515,-4.3446,-4.3434,-4.3378,-4.3416,-4.3355,-4.3392,-4.3304,-4.3391,-4.3407,-4.3577,-4.3622,-4.3799,-4.3806,-4.4009,-4.4039,-4.4125,-4.414,-4.418,-4.3871,-4.3435,-4.3244,-4.3263,-4.3258,-4.3346,-4.3315,-4.3484,-4.3394,-4.3265,-4.3072,-4.2988,-4.2866,-4.2853,-4.2795,-4.2765,-4.2739,-4.2715,-4.2641,-4.2663,-4.2848,-4.4276,-4.7365,-5.013,-5.2865,-5.6009,-5.6075,-5.2748,-4.0888,-2.9015,-2.2156,-2.128,-2.146,-2.2469,-2.599,-2.9547,-3.4297,-3.7734,-4.045,-4.1907,-4.2875,-4.2994,-4.3441,-4.3386,-4.3717,-4.3637,-4.3924,-4.3876,-4.4083,-4.4023,-4.4257,-4.4151,-4.4395,-4.4349,-4.4527,-4.4509,-4.4724,-4.4692,-4.4836,-4.4837,-4.4985,-4.501,-4.5195,-4.5187,-4.5306,-4.5291,-4.5448,-4.5471,-4.556,-4.5522,-4.56,-4.5604,-4.568,-4.5649,-4.5685,-4.5646,-4.5639,-4.5615,-4.562,-4.5539,-4.5505,-4.5452,-4.5486,-4.554,-4.5583,-4.5638,-4.5745,-4.5813,-4.581,-4.5778,-4.5671,-4.5487,-4.5265,-4.501,-4.4754,-4.4534,-4.4232,-4.4023,-4.3818,-4.3658,-4.3506,-4.3415,-4.3287,-4.3232,-4.3142,-4.3126,-4.3056,-4.3067,-4.3028,-4.304,-4.2998,-4.3032,-4.3071,-4.3031,-4.3023,-4.3068,-4.303,-4.3081,-4.3053,-4.3047,-4.2985,-4.304,-4.3008,-4.3044,-4.2985,-4.3023,-4.2929,-4.2944,-4.2921,-4.2925,-4.287,-4.2834,-4.2806,-4.2837,-4.2805,-4.2744,-4.2684,-4.2767,-4.2788,-4.2968,-4.3094,-4.322,-4.3327,-4.344,-4.3437,-4.3551,-4.3504,-4.3383,-4.2849,-4.2659,-4.2584,-4.2648,-4.2697,-4.2673,-4.2776,-4.2745,-4.2533,-4.2301,-4.2245,-4.2137,-4.2,-4.19,-4.1868,-4.1871,-4.1876,-4.1857,-4.1825,-4.1835,-4.2209,-4.4027,-4.7296,-4.9957,-5.3436,-5.5988,-5.6119,-4.9585,-3.5938,-2.3666,-1.8747,-1.8769,-2.0066,-2.3936,-2.7892,-3.2748,-3.6805,-3.8336,-4.0414,-4.1546,-4.1944,-4.2303,-4.24,-4.2581,-4.265,-4.2828,-4.2822,-4.2981,-4.3,-4.3122,-4.3168,-4.3303,-4.3317,-4.339,-4.3469,-4.3628,-4.3648,-4.3752,-4.3767,-4.3819,-4.3854,-4.3975,-4.4,-4.4093,-4.4116,-4.4172,-4.4198,-4.428,-4.4301,-4.4288,-4.4314,-4.4323,-4.4318,-4.4278,-4.425,-4.4245,-4.421,-4.416,-4.409,-4.403,-4.4045,-4.3981,-4.4026,-4.409,-4.4185,-4.4328,-4.4494,-4.4585,-4.4675,-4.4627,-4.4474,-4.4269,-4.407,-4.3781,-4.3666,-4.3411,-4.3218,-4.302,-4.2834,-4.2604,-4.2509,-4.2345,-4.2287,-4.2215,-4.215,-4.2079,-4.2057,-4.1987,-4.2014,-4.1964,-4.1959,-4.1953,-4.2004,-4.1998,-4.1977,-4.1968,-4.1989,-4.1992,-4.1996,-4.1978,-4.2011,-4.1974,-4.1995,-4.201,-4.1977,-4.1924,-4.1949,-4.1933,-4.1929,-4.1893,-4.1867,-4.1827,-4.1852,-4.1859,-4.1929,-4.2037,-4.2159,-4.2302,-4.2457,-4.2496,-4.2526,-4.2582,-4.264,-4.2453,-4.1927,-4.1712,-4.1652,-4.1691,-4.1806,-4.1771,-4.1879,-4.1841,-4.1779,-4.1549,-4.1414,-4.1253,-4.1176,-4.1107,-4.1081,-4.1021,-4.0984,-4.0939,-4.0923,-4.093,-4.1328,-4.308,-4.6363,-4.8999,-5.2335,-5.5055,-5.5205,-5.3902,-4.3075,-2.954,-2.0648,-1.8423,-1.8639,-2.0777,-2.4884,-2.9281,-3.388,-3.7015,-3.9416,-4.0509,-4.1123,-4.1207,-4.1554,-4.1562,-4.1871,-4.1837,-4.2021,-4.1973,-4.2176,-4.2128,-4.2343,-4.2302,-4.2473,-4.2417,-4.2603,-4.259,-4.276,-4.2777,-4.2899,-4.2886,-4.3019,-4.3037,-4.3127,-4.3149,-4.3249,-4.3235,-4.3298,-4.3248,-4.3276,-4.3288,-4.3345,-4.3359,-4.3346,-4.3286,-4.325,-4.3232,-4.3201,-4.3122,-4.2996,-4.2929,-4.2864,-4.2893,-4.2917,-4.2988,-4.3023,-4.3201,-4.3329,-4.349,-4.3548,-4.3569,-4.3475,-4.3458,-4.3227,-4.3026,-4.2749,-4.2533,-4.2223,-4.2076,-4.1849,-4.1753,-4.1574,-4.151,-4.1395,-4.1392,-4.131,-4.1259,-4.117,-4.1176,-4.1082,-4.1141,-4.1114,-4.1144,-4.1057,-4.1083,-4.114,-4.1222,-4.1144,-4.1117,-4.1095,-4.1105,-4.1084,-4.1134,-4.1079,-4.1106,-4.107,-4.1078,-4.0993,-4.0999,-4.0918,-4.1002,-4.1033,-4.1225,-4.1282,-4.1473,-4.1532,-4.1613,-4.1686,-4.1765,-4.1787,-4.1768,-4.1382,-4.1096,-4.0853,-4.0832,-4.0887,-4.0897,-4.0839,-4.0932,-4.0924,-4.0725,-4.0468,-4.0356,-4.025,-4.0162,-4.0135,-4.0076,-4.0077,-4.0022,-3.9977,-3.9936,-3.9985,-4.021,-4.1681,-4.4513,-4.6894,-4.9491,-5.2515,-5.279,-5.0614,-3.9992,-3.0566,-2.4568,-2.2584,-2.0982,-2.1777,-2.6012,-2.9562,-3.3603,-3.6077,-3.8286,-3.8822,-3.9895,-3.9988,-4.0452,-4.0372,-4.0711,-4.0644,-4.0851,-4.0778,-4.1019,-4.0972,-4.1196,-4.1145,-4.1322,-4.1218,-4.14,-4.1414,-4.1607,-4.1542,-4.1646,-4.1597,-4.17,-4.1702,-4.1821,-4.179,-4.1798,-4.1742,-4.1805,-4.1806,-4.1793,-4.1729,-4.1748,-4.1691,-4.1666,-4.159,-4.1554,-4.1502,-4.1451,-4.1425,-4.1332,-4.1313,-4.1239,-4.1245,-4.1139,-4.1227,-4.1348,-4.1565,-4.1719,-4.1999,-4.2012,-4.2127,-4.2045,-4.2004,-4.1818,-4.1692,-4.1417,-4.1241,-4.1088,-4.1015,-4.0749,-4.0644,-4.0457,-4.0412,-4.0259,-4.0269,-4.0224,-4.0217,-4.0168,-4.0335,-4.0267,-4.0255,-4.0288,-4.0396,-4.0308,-4.0412,-4.0271,-4.0335,-4.0302,-4.0321,-4.0275,-4.0292,-4.0175,-4.0128,-3.9995,-4.0127,-4.0051,-4.0072,-3.9994,-4.0054,-4.0036,-4.0082,-4.0128,-4.0347,-4.0424,-4.0561,-4.0533,-4.0745,-4.0785,-4.0891,-4.0853,-4.0903,-4.0707,-4.0319,-4.0076,-4.0136,-4.0024,-4.0021,-4.0015,-4.0169,-4.0127,-3.993,-3.9758,-3.9647,-3.9594,-3.9643,-3.9533,-3.9465,-3.9384,-3.9386,-3.9376,-3.9318,-3.9274,-3.9582,-4.1114,-4.4095,-4.6349,-4.875,-5.1526,-5.1316,-4.883,-3.8829,-3.0749,-2.5567,-2.3776,-2.263,-2.1268,-2.3746,-2.7196,-3.1114,-3.3959,-3.6482,-3.7988,-3.9263,-3.9447,-3.9907,-3.9826,-4.0122,-4.004,-4.0298,-4.0252,-4.0523,-4.0429,-4.0607,-4.0536,-4.0731,-4.073,-4.0877,-4.0829,-4.0952,-4.0918,-4.1072,-4.1071,-4.1188,-4.1169,-4.1285,-4.1304,-4.1288,-4.1273,-4.1306,-4.1374,-4.1389,-4.1367,-4.132,-4.1329,-4.132,-4.1308,-4.1209,-4.1217,-4.1174,-4.1178,-4.1051,-4.1029,-4.0931,-4.0942,-4.0914,-4.1087,-4.1144,-4.1312,-4.1393,-4.1571,-4.1618,-4.1723,-4.1635,-4.1581,-4.1378,-4.1262,-4.0911,-4.0763,-4.0498,-4.0377,-4.0191,-4.0129,-3.9947,-3.9904,-3.9738,-3.9745,-3.9631,-3.9718,-3.9601,-3.9727,-3.9642,-3.9714,-3.9652,-3.9717,-3.9652,-3.9716,-3.9608,-3.9678,-3.9599,-3.9679,-3.9611,-3.9689,-3.9596,-3.9594,-3.9509,-3.9563,-3.945,-3.9478,-3.9409,-3.9433,-3.934,-3.9416,-3.9336,-3.9378,-3.9421,-3.954,-3.9609,-3.9791,-3.9897,-4.0024,-4.0009,-4.01,-4.0146,-4.012,-3.9577,-3.92,-3.9099,-3.9136,-3.9142,-3.918,-3.9225,-3.9359,-3.9336,-3.916,-3.8988,-3.889,-3.8796,-3.8712,-3.8657,-3.863,-3.8611,-3.8611,-3.8577,-3.8538,-3.8937,-4.0702,-4.4,-4.6566,-4.7849,-5.1148,-5.2284,-5.0452,-4.0197,-2.7752,-1.9667,-1.7515,-1.7571,-1.908,-2.2845,-2.6697,-3.1296,-3.4331,-3.6894,-3.8105,-3.8913,-3.8924,-3.9388,-3.9217,-3.9575,-3.9553,-3.9897,-3.9808,-4.0087,-3.993,-4.0192,-4.01,-4.0376,-4.0341,-4.0559,-4.0482,-4.0695,-4.0659,-4.0874,-4.0813,-4.0996,-4.0977,-4.1157,-4.1139,-4.1277,-4.1229,-4.1376,-4.1366,-4.1496,-4.1486,-4.1567,-4.1553,-4.1628,-4.157,-4.1626,-4.1547,-4.1568,-4.1518,-4.151,-4.1441,-4.1401,-4.1366,-4.1417,-4.1472,-4.1588,-4.1676,-4.1792,-4.1876,-4.1909,-4.1873,-4.1699,-4.1519,-4.1283,-4.1061,-4.0798,-4.0534,-4.0267,-4.0108,-3.9938,-3.9811,-3.9699,-3.9602,-3.9498,-3.9457,-3.9378,-3.9373,-3.9289,-3.9287,-3.9267,-3.9277,-3.9231,-3.9287,-3.9256,-3.9326,-3.9285,-3.9345,-3.9322,-3.9394,-3.9368,-3.941,-3.9372,-3.9406,-3.9365,-3.9378,-3.933,-3.9357,-3.9284,-3.9333,-3.9278,-3.9286,-3.9215,-3.9206,-3.9147,-3.9142,-3.9074,-3.9086,-3.905,-3.9082,-3.908,-3.922,-3.9327,-3.9529,-3.9624,-3.9822,-3.9837,-3.9891,-3.9895,-3.9869,-3.9406,-3.9164,-3.8989,-3.8998,-3.9055,-3.9056,-3.9125,-3.9232,-3.9083,-3.8945,-3.874,-3.8668,-3.8613,-3.8519,-3.8476,-3.846,-3.8457,-3.8434,-3.8372,-3.8341,-3.8452,-3.9579,-4.2458,-4.5744,-4.8748,-5.2292,-5.3463,-5.031,-3.764,-2.9748,-1.745,-1.2828,-1.4302,-1.6005,-2.0933,-2.4274,-3.0115,-3.3565,-3.6782,-3.7746,-3.8843,-3.8672,-3.9349,-3.9026,-3.9597,-3.9292,-3.9792,-3.9502,-3.9903,-3.9638,-4.0033,-3.9837,-4.0216,-4.0024,-4.0349,-4.0203,-4.0509,-4.0389,-4.0676,-4.0576,-4.0824,-4.0741,-4.0954,-4.0904,-4.109,-4.1043,-4.1214,-4.1177,-4.1313,-4.1277,-4.139,-4.1391,-4.1449,-4.1434,-4.1467,-4.1414,-4.1405,-4.1376,-4.1335,-4.1312,-4.1266,-4.1286,-4.1305,-4.1398,-4.1433,-4.1591,-4.1607,-4.1754,-4.1787,-4.1827,-4.1649,-4.157,-4.1272,-4.1092,-4.0764,-4.0541,-4.0199,-4.0062,-3.9765,-3.9661,-3.9401,-3.9369,-3.9186
