1.6832,1.6571,1.6499,1.6671,1.6954,1.682,1.6785,1.6769,1.6626,1.7026,1.6898,1.6486,1.6576,1.6713,1.6942,1.6978,1.6832,1.6222,1.6444,1.6937,1.6899,1.6507,1.6467,1.6663,1.6746,1.6661,1.6552,1.6496,1.6755,1.6799,1.6789,1.6746,1.635,1.6571,1.6819,1.7064,1.6944,1.6742,1.6764,1.7253,1.7457,1.7434,1.7179,1.7198,1.7477,1.7561,1.7344,1.7175,1.7407,1.7529,1.7662,1.7412,1.7208,1.721,1.7255,1.7271,1.7182,1.677,1.6389,1.6622,1.6684,1.6541,1.6363,1.6461,1.6502,1.6689,1.6452,1.6346,1.6235,1.631,1.6523,1.6463,1.6293,1.6184,1.6002,1.623,1.702,1.7762,1.8497,2.0539,2.319,2.5815,2.5709,2.3586,2.103,1.976,1.9376,1.7681,1.6381,1.6353,1.7159,1.7583,1.7427,1.68,1.6564,1.6863,1.6911,1.6739,1.6739,1.6567,1.6753,1.6958,1.7099,1.6631,1.6541,1.6647,1.6788,1.6776,1.6711,1.6668,1.6766,1.7148,1.7162,1.6839,1.6721,1.6823,1.7188,1.7112,1.6981,1.6853,1.6705,1.7181,1.7507,1.7152,1.6837,1.7256,1.7343,1.7501,1.7487,1.7528,1.7566,1.7581,1.8101,1.7834,1.7631,1.7705,1.814,1.8535,1.8441,1.8214,1.8383,1.8425,1.8694,1.8978,1.8784,1.8592,1.897,1.914,1.8959,1.8578,1.8215,1.8467,1.8578,1.86,1.7935,1.7295,1.7246,1.7563,1.7382,1.7176,1.6956,1.706,1.7217,1.7231,1.6911,1.6853,1.6831,1.7025,1.7002,1.6817,1.6775,1.686,1.6853,1.7081,1.6815,1.6567,1.693,1.7061,1.7157,1.701,1.6587,1.6661,1.7053,1.7329,1.7022,1.6794,1.6847,1.6871,1.7057,1.7129,1.6799,1.6729,1.6763,1.7175,1.7305,1.6859,1.6705,1.6784,1.7286,1.7086,1.6648,1.6607,1.6893,1.7026,1.7158,1.6718,1.6628,1.6686,1.6681,1.6947,1.666,1.6436,1.6495,1.6813,1.6916,1.6545,1.6488,1.6478,1.6762,1.6962,1.667,1.6339,1.6363,1.6749,1.6891,1.6719,1.6376,1.6458,1.6513,1.6748,1.6613,1.6292,1.6619,1.6532,1.6794,1.6826,1.6564,1.6346,1.6546,1.6731,1.6809,1.6473,1.638,1.6563,1.6624,1.6816,1.6573,1.6283,1.644,1.6681,1.6793,1.6539,1.6424,1.6419,1.6583,1.6682,1.6552,1.6583,1.6752,1.6608,1.6768,1.6515,1.6342,1.6335,1.6346,1.6797,1.6874,1.6508,1.6318,1.6513,1.6728,1.6578,1.6225,1.6502,1.6606,1.6757,1.664,1.6388,1.6675,1.6932,1.7271,1.7344,1.7032,1.6999,1.7107,1.7466,1.7465,1.7149,1.7086,1.7316,1.7404,1.7644,1.7221,1.6833,1.7109,1.7243,1.7288,1.6759,1.6487,1.6408,1.6538,1.6664,1.6524,1.6224,1.6085,1.646,1.6691,1.6581,1.6161,1.6146,1.6338,1.6409,1.6458,1.6154,1.6021,1.6068,1.6239,1.666,1.7421,1.8872,1.9797,2.2214,2.4865,2.6228,2.5099,2.2775,2.0257,1.8899,1.7347,1.6174,1.6586,1.7212,1.7145,1.6485,1.6407,1.6305,1.6657,1.6501,1.6315,1.6163,1.6225,1.6239,1.6517,1.6302,1.5989,1.6019,1.633,1.6513,1.631,1.6113,1.6134,1.6394,1.6493,1.6216,1.6206,1.6167,1.6476,1.6313,1.6349,1.6273,1.6274,1.6242,1.6615,1.6674,1.6469,1.6245,1.6449,1.6867,1.6951,1.6742,1.6857,1.7017,1.7008,1.7183,1.7123,1.7077,1.7341,1.7526,1.7582,1.7741,1.7583,1.7702,1.8113,1.8352,1.8031,1.8081,1.8397,1.8538,1.8551,1.8293,1.7947,1.7662,1.7793,1.7973,1.7566,1.7329,1.7018,1.7039,1.7321,1.7052,1.6607,1.6484,1.6517,1.6648,1.6469,1.6294,1.64,1.6248,1.6373,1.623,1.6026,1.5985,1.6202,1.6345,1.6368,1.6127,1.5982,1.6058,1.6143,1.6448,1.6309,1.6065,1.5973,1.6379,1.6332,1.6187,1.6119,1.6057,1.6132,1.6439,1.6121,1.6136,1.6149,1.6394,1.6506,1.6391,1.6196,1.6051,1.6008,1.6465,1.6499,1.6026,1.5976,1.625,1.6391,1.6361,1.6119,1.6003,1.5995,1.6338,1.6332,1.5944,1.6027,1.629,1.6077,1.6113,1.6151,1.6013,1.5867,1.6156,1.6491,1.5986,1.5764,1.594,1.6082,1.62,1.5839,1.5803,1.5974,1.6171,1.6091,1.5721,1.5824,1.5809,1.5833,1.6108,1.6054,1.6055,1.5854,1.5949,1.6167,1.5792,1.5792,1.5826,1.6046,1.6161,1.6095,1.5704,1.5558,1.5786,1.6006,1.5997,1.5783,1.5768,1.5791,1.6025,1.6085,1.5642,1.5652,1.5781,1.6064,1.5963,1.5953,1.5514,1.5653,1.6066,1.6105,1.5932,1.5866,1.5874,1.5931,1.6123,1.5964,1.5634,1.5675,1.5886,1.6049,1.5719,1.5434,1.5882,1.5991,1.6046,1.5889,1.5752,1.5911,1.5929,1.6163,1.6026,1.5699,1.5746,1.5879,1.6075,1.6281,1.615,1.6301,1.653,1.6783,1.666,1.6384,1.6365,1.6577,1.6835,1.7046,1.6634,1.6354,1.6417,1.6785,1.6718,1.6471,1.6294,1.604,1.6276,1.6227,1.5956,1.5526,1.5652,1.5862,1.5913,1.5607,1.5226,1.5354,1.5767,1.5967,1.5539,1.5507,1.5517,1.5572,1.555,1.5478,1.5528,1.5959,1.6876,1.8841,2.1211,2.292,2.5253,2.4707,2.3149,2.0264,1.8407,1.7182,1.5999,1.6255,1.6423,1.6555,1.602,1.6195,1.6351,1.6444,1.6049,1.5878,1.5923,1.6057,1.5995,1.5997,1.5775,1.5792,1.6188,1.6338,1.5908,1.572,1.592,1.6262,1.6447,1.61,1.583,1.5918,1.6158,1.6379,1.6129,1.6163,1.612,1.6108,1.6357,1.6391,1.6224,1.6039,1.6395,1.6833,1.6796,1.6255,1.6308,1.6623,1.6907,1.6932,1.6815,1.683,1.6737,1.7308,1.768,1.7393,1.7171,1.7421,1.7936,1.8129,1.7945,1.7786,1.7767,1.8125,1.8378,1.8204,1.7946,1.7844,1.8248,1.8258,1.7967,1.7599,1.73,1.7214,1.7203,1.6995,1.669,1.6568,1.656,1.6693,1.6425,1.6154,1.6213,1.6125,1.6261,1.6158,1.5972,1.5987,1.5993,1.6026,1.6136,1.6125,1.576,1.5898,1.6118,1.6412,1.5994,1.582,1.6092,1.636,1.6307,1.5951,1.5904,1.5898,1.6354,1.6392,1.5847,1.5847,1.6005,1.594,1.6187,1.6015,1.5921,1.6066,1.6136,1.6372,1.6241,1.5949,1.5859,1.6135,1.6387,1.6185,1.5868,1.5601,1.6132,1.6401,1.6271,1.5898,1.5716,1.6033,1.6343,1.5921,1.5768,1.5934,1.6067,1.6172,1.627,1.5801,1.5723,1.5973,1.6031,1.5995,1.5882,1.5999,1.5947,1.6162,1.6171,1.5795,1.571,1.5823,1.6145,1.5984,1.5813,1.5846,1.5778,1.5945,1.5943,1.6074,1.5681,1.5702,1.6127,1.6157,1.603,1.5605,1.5738,1.5917,1.6177,1.6097,1.5773,1.5702,1.5706,1.5778,1.6108,1.5847,1.5616,1.5632,1.5915,1.5966,1.571,1.5695,1.5878,1.6068,1.583,1.5528,1.5581,1.5733,1.584,1.5945,1.5877,1.5624,1.5805,1.6028,1.5783,1.5783,1.5873,1.5788,1.5976,1.6086,1.5801,1.5609,1.6022,1.6482,1.6678,1.6589,1.6378,1.6246,1.664,1.6878,1.6659,1.6317,1.6528,1.6842,1.689,1.6585,1.6289,1.6453,1.6388,1.6443,1.637,1.6217,1.591,1.5908,1.6017,1.6023,1.5674,1.5535,1.5665,1.5846,1.5791,1.5714,1.5365,1.5609,1.5876,1.5742,1.5384,1.5674,1.545,1.5798,1.6572,1.7124,1.8271,2.0527,2.1672,2.4399,2.5134,2.3188,2.0911,1.893,1.8637,1.7449,1.628,1.5874,1.6518,1.6484,1.6355,1.6137,1.6045,1.5953,1.6252,1.6037,1.5778,1.5956,1.6031,1.6112,1.6311,1.5996,1.5848,1.6014,1.6224,1.629,1.5952,1.5846,1.5726,1.609,1.6317,1.6055,1.5822,1.6062,1.6431,1.6267,1.614,1.6109,1.6052,1.631,1.6613,1.6672,1.6255,1.6214,1.6411,1.6707,1.653,1.6334,1.6624,1.7016,1.7478,1.7148,1.6817,1.6967,1.738,1.751,1.752,1.7341,1.7311,1.7601,1.7945,1.7949,1.7747,1.7633,1.7979,1.8071,1.804,1.7994,1.7651,1.761,1.7632,1.7695,1.7267,1.7042,1.7034,1.7118,1.7071,1.664,1.6237,1.613,1.6321,1.6613,1.6202,1.5909,1.5894,1.6133,1.6211,1.6129,1.5824,1.5771,1.6176,1.6293,1.6033,1.5991,1.5841,1.5951,1.6299,1.6293,1.5965,1.5806,1.6129,1.6249,1.6193,1.5776,1.566,1.6066,1.6404,1.6065,1.5983,1.5932,1.5938,1.6211,1.6262,1.6043,1.5829,1.582,1.6217,1.629,1.6104,1.5835,1.6027,1.6169,1.6205,1.5857,1.5799,1.5782,1.5974,1.5992,1.5664,1.5533,1.5712,1.5718,1.5898,1.6149,1.5615,1.5464,1.5724,1.6011,1.5843,1.5583,1.5614,1.5661,1.5895,1.5998,1.569,1.5594,1.5522,1.59,1.596,1.5504,1.5449,1.5457,1.5729,1.578,1.5696,1.5604,1.5504,1.5687,1.5781,1.5559,1.5565,1.5499,1.5736,1.5799,1.5705,1.5501,1.5597,1.5788,1.5865,1.5571,1.5308,1.5532,1.548,1.5828,1.5778,1.5479,1.538,1.5548,1.5829,1.577,1.5543,1.5531,1.5702,1.5867,1.5608,1.5817,1.5692,1.6144,1.6364,1.6142,1.6049,1.5994,1.6119,1.6442,1.6485,1.6065,1.6174,1.6482,1.6558,1.6573,1.6306,1.6088,1.6117,1.624,1.6317,1.5967,1.5743,1.5592,1.5584,1.5608,1.5464,1.5305,1.5175,1.5397,1.572,1.5433,1.5225,1.523,1.5444,1.5622,1.5431,1.5312,1.508,1.5154,1.5725,1.6286,1.7105,1.7957,2.0212,2.2815,2.5325,2.4583,2.2701,2.0248,1.8969,1.7744,1.6131,1.5553,1.562,1.6361,1.6182,1.5996,1.5861,1.6063,1.5963,1.6223,1.5981,1.5726,1.556,1.5903,1.5947,1.5896,1.5677,1.57,1.5762,1.5973,1.5786,1.569,1.5646,1.6158,1.6283,1.6074,1.585,1.5884,1.6267,1.6367,1.6185,1.5842,1.5934,1.6239,1.6308,1.6241,1.6134,1.6147,1.6188,1.662,1.6592,1.6444,1.6176,1.6466,1.6964,1.7117,1.6771,1.6883,1.7035,1.7315,1.7541,1.7303,1.716,1.7365,1.7682,1.796,1.7756,1.7605,1.76,1.7918,1.7996,1.7665,1.761,1.7538,1.7673,1.7453,1.7043,1.6855,1.6566,1.6729,1.6872,1.655,1.6159,1.6005,1.6114,1.6456,1.6161,1.575,1.5661,1.5912,1.6209,1.6099,1.5758,1.5489,1.5888,1.6114,1.6065,1.5709,1.5573,1.5543,1.6096,1.6223,1.5901,1.564,1.5929,1.613,1.6117,1.5742,1.5696,1.5668,1.6137,1.6266,1.5996,1.5716,1.5766,1.5913,1.6194,1.5978,1.5642,1.5573,1.5974,1.63,1.6204,1.5479,1.5694,1.6013,1.6214,1.5945,1.5483,1.5484,1.5943,1.5924,1.5832,1.5504,1.5408,1.5593,1.5853,1.592,1.5482,1.5387,1.5771,1.5989,1.5916,1.5497,1.5438,1.5428,1.5816,1.5998,1.5486,1.5259,1.5426,1.5719,1.5728,1.5548,1.5414,1.5286,1.5623,1.5917,1.5652,1.5515,1.5375,1.557,1.5843,1.5538,1.5263,1.5527,1.549,1.5832,1.581,1.5221,1.5289,1.5602,1.5645,1.5712,1.5421,1.5343,1.5485,1.5754,1.5758,1.5368,1.5241,1.5542,1.5629,1.5577,1.5647,1.5507,1.5448,1.584,1.5675,1.5209,1.5134,1.5377,1.5577,1.5972,1.5674,1.5401,1.5616,1.5901,1.6201,1.6062,1.6009,1.6135,1.6145,1.6369,1.6098,1.5994,1.6115,1.6628,1.6763,1.6272,1.5968,1.6157,1.6145,1.6191,1.6197,1.5699,1.5424,1.5529,1.5728,1.5534,1.527,1.5193,1.5323,1.5629,1.5579,1.5183,1.51,1.5348,1.5512,1.5612,1.5532,1.5249,1.4807,1.493,1.5426,1.617,1.6916,1.8797,2.1304,2.3953,2.5455,2.4012,2.1347,1.933,1.823,1.6726,1.5347,1.5624,1.6414,1.6694,1.6397,1.5884,1.5586,1.5794,1.6176,1.6103,1.5469,1.5497,1.551,1.583,1.6006,1.5768,1.5531,1.5852,1.5904,1.5783,1.5795,1.5784,1.5794,1.574,1.601,1.5895,1.5629,1.5885,1.6014,1.6061,1.5947,1.5705,1.5899,1.6234,1.6364,1.6313,1.6045,1.587,1.632,1.6716,1.6599,1.6291,1.6379,1.6405,1.6731,1.6693,1.6528,1.6745,1.7161,1.7438,1.7308,1.7197,1.7201,1.7398,1.786,1.7992,1.7632,1.7512,1.775,1.8251,1.8028,1.7804,1.7564,1.7357,1.7786,1.7406,1.6995,1.6716,1.6614,1.6586,1.6575,1.6208,1.5953,1.5828,1.597,1.6014,1.5936,1.5798,1.5896,1.5989,1.5971,1.5767,1.5593,1.5789,1.5875,1.5728,1.5648,1.5554,1.5593,1.5893,1.594,1.5573,1.551,1.5671,1.58,1.5956,1.5877,1.5612,1.5544,1.564,1.6069,1.6143,1.5833,1.573,1.5866,1.6085,1.5945,1.549,1.5679,1.5607,1.5758,1.5997,1.5755,1.5393,1.5757,1.6024,1.5917,1.5565,1.5486,1.5422,1.5749,1.6048,1.5884,1.566,1.5227,1.551,1.601,1.5678,1.5283,1.5298,1.5405,1.5872,1.5652,1.5342,1.5334,1.5611,1.565,1.5673,1.5423,1.521,1.5401,1.5708,1.5756,1.5512,1.5365,1.555,1.5714,1.562,1.5205,1.5143,1.5501,1.5532,1.5535,1.5283,1.5241,1.5402,1.5555,1.5623,1.5455,1.5389,1.5222,1.5367,1.568,1.5549,1.5371,1.5342,1.5551,1.5779,1.5461,1.53,1.5419,1.5461,1.5532,1.543,1.5286,1.5293,1.5195,1.57,1.5738,1.5482,1.5142,1.5426,1.5696,1.5618,1.5361,1.5073,1.5297,1.5745,1.5547,1.5388,1.5236,1.5331,1.5882,1.5887,1.5831,1.5734,1.5916,1.6081,1.6006,1.6131,1.6052,1.6004,1.6117,1.6211,1.6367,1.6306,1.6196,1.598,1.6394,1.6134,1.5744,1.5741,1.6033,1.6129,1.5609,1.5225,1.5141,1.5153,1.5629,1.5684,1.5337,1.5149,1.5305,1.5633,1.5315,1.5192,1.5181,1.5337,1.5267,1.5032,1.5238,1.5798,1.6889,1.7715,1.9695,2.1623,2.3867,2.4988,2.3795,2.1254,1.8975,1.7568,1.6111,1.5889,1.6072,1.63,1.5938,1.5873,1.6034,1.6117,1.576,1.5389,1.5409,1.5719,1.5887,1.58,1.5543,1.5486,1.5555,1.6137,1.6076,1.5544,1.5545,1.5647,1.5812,1.5692,1.5777,1.5926,1.5778,1.6059,1.5956,1.5845,1.5799,1.5824,1.5912,1.6163,1.5933,1.5937,1.5974,1.6349,1.6417,1.6206,1.6205,1.6223,1.6517,1.6962,1.666,1.6324,1.6795,1.7025,1.7222,1.7037,1.6948,1.7167,1.7568,1.7734,1.7744,1.7166,1.7396,1.7906,1.8344,1.7934,1.7448,1.7603,1.781,1.7881,1.7777,1.7416,1.6969,1.6886,1.6959,1.7153,1.6649,1.61,1.6226,1.6361,1.6393,1.59,1.5827,1.5812,1.5957,1.6153,1.5883,1.5602,1.5619,1.5876,1.5907,1.5464,1.555,1.5837,1.5909,1.5925,1.5772,1.572,1.5592,1.5871,1.6182,1.5558,1.5515,1.5735,1.5899,1.5894,1.5758,1.5629,1.5785,1.5946,1.6002,1.6061,1.5758,1.5753,1.5805,1.6051,1.5945,1.5618,1.5456,1.5607,1.5952,1.5941,1.5615,1.5519,1.5684,1.5942,1.5905,1.5538,1.5472,1.5745,1.5765,1.5681,1.5386,1.55,1.5484,1.5648,1.5925,1.5711,1.525,1.5098,1.5459,1.5986,1.5766,1.5434,1.5212,1.5579,1.573,1.536,1.5284,1.5248,1.5528,1.5813,1.5776,1.5033,1.5259,1.5406,1.5532,1.5517,1.5314,1.5168,1.5456,1.5767,1.5621,1.5229,1.5312,1.531,1.5462,1.5531,1.5093,1.5166,1.535,1.5551,1.5677,1.5285,1.4991,1.5383,1.5526,1.5561,1.5129,1.5065,1.5206,1.5573,1.5531,1.5314,1.5098,1.5181,1.5427,1.5437,1.5513,1.5523,1.5625,1.5834,1.5872,1.582,1.5607,1.5935,1.5981,1.6145,1.6336,1.6099,1.5926,1.6143,1.623,1.6058,1.5844,1.5708,1.5875,1.5802,1.5823,1.5437,1.5053,1.5158,1.5272,1.5289,1.5037,1.507,1.5096,1.5029,1.4975,1.5003,1.5007,1.4981,1.525,1.5313,1.501,1.4661,1.4658,1.5321,1.6431,1.736,1.9126,2.1278,2.4093,2.4649,2.2761,2.0005,1.826,1.7715,1.6655,1.5614,1.5127,1.5627,1.5967,1.6012,1.5509,1.5215,1.5271,1.5622,1.5572,1.5294,1.4986,1.5163,1.5589,1.5586,1.5489,1.5598,1.5233,1.5241,1.5602,1.5733,1.5327,1.505,1.5321,1.5594,1.5768,1.568,1.5246,1.5233,1.558,1.584,1.5515,1.5662,1.5613,1.5772,1.6173,1.5851,1.5574,1.5547,1.6261,1.6358,1.6088,1.5853,1.6161,1.6306,1.6671,1.686,1.6645,1.6409,1.6787,1.7011,1.7333,1.6991,1.6859,1.7193,1.7632,1.7602,1.7412,1.7454,1.7505,1.7618,1.7363,1.7143,1.7205,1.7035,1.6903,1.7012,1.6617,1.6153,1.6256,1.6308,1.6314,1.5921,1.5532,1.5544,1.5613,1.5945,1.5783,1.5498,1.5328,1.5426,1.5588,1.5529,1.5321,1.5281,1.5344,1.5597,1.5502,1.5324,1.5213,1.5284,1.5859,1.5787,1.5353,1.5192,1.5461,1.564,1.5671,1.5473,1.5364,1.5385,1.5422,1.5694,1.5441,1.5088,1.5519,1.5539,1.568,1.5238,1.5213,1.5457,1.574,1.5929,1.5427,1.517,1.534,1.5636,1.5557,1.5263,1.5284,1.5475,1.5259,1.5453,1.5308,1.5137,1.5039,1.5348,1.5529,1.5448,1.5113,1.5076,1.5308,1.5619,1.5637,1.5173,1.4879,1.526,1.5504,1.5283,1.5166,1.5168,1.5187,1.5315,1.5443,1.4985,1.4957,1.518,1.544,1.5384,1.5144,1.5082,1.508,1.5209,1.5281,1.5048,1.4908,1.5197,1.5472,1.5484,1.5193,1.5032,1.494,1.5176,1.5261,1.5249,1.4996,1.488,1.5082,1.5506,1.5186,1.5108,1.4761,1.491,1.5282,1.5216,1.4978,1.5164,1.5623,1.5865,1.5979,1.5652,1.5537,1.5677,1.6047,1.6139,1.5603,1.5647,1.5807,1.6068,1.6088,1.5888,1.5866,1.5806,1.5984,1.5665,1.5263,1.5295,1.5278,1.532,1.5267,1.5126,1.501,1.4923,1.5031,1.4953,1.4848,1.4908,1.5017,1.5017,1.5206,1.5033,1.4832,1.4512,1.4668,1.5112,1.5588,1.5874,1.6823,1.9206,2.1492,2.4204,2.4911,2.3124,2.0361,1.8816,1.7509,1.5945,1.5245,1.5614,1.5945,1.5672,1.5538,1.5417,1.5464,1.5582,1.5718,1.5279,1.5162,1.4822,1.5389,1.5618,1.5399,1.5141,1.5144,1.5318,1.5764,1.5566,1.5525,1.5355,1.527,1.5657,1.5642,1.5327,1.5288,1.5418,1.5993,1.5828,1.5471,1.5357,1.5526,1.5969,1.5968,1.5434,1.5482,1.5877,1.644,1.6182,1.6017,1.5939,1.6264,1.6548,1.6393,1.6644,1.6617,1.6537,1.6937,1.7101,1.6889,1.6951,1.7101,1.7438,1.7586,1.744,1.7367,1.737,1.754,1.7663,1.7461,1.7429,1.7228,1.7231,1.721,1.709,1.6511,1.6281,1.6322,1.6341,1.6022,1.5797,1.5712,1.5747,1.6011,1.5788,1.5319,1.5471,1.5508,1.5528,1.5409,1.5197,1.5227,1.5436,1.5592,1.5909,1.5258,1.522,1.5315,1.5402,1.5375,1.5294,1.5262,1.5373,1.556,1.5703,1.5398,1.5266,1.528,1.556,1.5791,1.5569,1.5109,1.52,1.5443,1.5648,1.5641,1.5384,1.5312,1.5438,1.551,1.5478,1.5592,1.5525,1.5405,1.5571,1.5411,1.5208,1.5532,1.5324,1.5457,1.5386,1.5252,1.5123,1.5164,1.5356,1.5474,1.5391,1.5173,1.5081,1.5396,1.5376,1.497,1.5079,1.5375,1.5416,1.5508,1.5116,1.5062,1.4986,1.5353,1.5441,1.525,1.5047,1.4922,1.5386,1.5589,1.525,1.4965,1.4888,1.5206,1.5489,1.5219,1.5146,1.4971,1.5024,1.5417,1.5209,1.4967,1.5012,1.5111,1.5295,1.5383,1.5083,1.5335,1.584,1.605,1.5909,1.563,1.5435,1.5728,1.6415,1.6203,1.5791,1.5718,1.5995,1.6236,1.6245,1.5806,1.5671,1.5613,1.5893,1.5796,1.5687,1.5163,1.5258,1.5516,1.5314,1.5022,1.5054,1.5144,1.5194,1.5482,1.5089,1.4887,1.4822,1.5009,1.5354,1.5229,1.4937,1.4525,1.4608,1.5303,1.5837,1.6445,1.8277,2.091,2.336,2.5034,2.3757,2.1717,1.936,1.8418,1.688,1.5243,1.5423,1.5975,1.6217,1.601,1.5737,1.5509,1.5503,1.5664,1.5808,1.5482,1.5282,1.5313,1.5313,1.5627,1.568,1.5683,1.5497,1.5609,1.5663,1.5373,1.5424,1.5604,1.568,1.5856,1.5965,1.5444,1.5363,1.5494,1.6053,1.5874,1.5629,1.5585,1.5938,1.6266,1.6108,1.5677,1.5771,1.6063,1.6622,1.6466,1.613,1.6132,1.612,1.6634,1.6903,1.6717,1.6617,1.6969,1.7186,1.7149,1.7299,1.7416,1.7515,1.7704,1.7744,1.7671,1.7648,1.7772,1.7952,1.7969,1.7743,1.7233,1.7183,1.7276,1.7254,1.6814,1.6701,1.6533,1.6486,1.6431,1.6364,1.6056,1.5819,1.5944,1.6009,1.6102,1.5742,1.5603,1.5727,1.5932,1.5865,1.5845,1.5565,1.5476,1.5752,1.5736,1.5641,1.5723,1.5427,1.577,1.5856,1.5741,1.576,1.5626,1.5869,1.5879,1.5585,1.57,1.5751,1.5921,1.5934,1.5779,1.533,1.573,1.6063,1.608,1.5797,1.5501,1.5454,1.5783,1.6012,1.5877,1.5584,1.5534,1.581,1.5875,1.5675,1.5534,1.5658,1.5872,1.5804,1.5877,1.5424,1.5347,1.5574,1.5809,1.5777,1.5367,1.5242,1.5401,1.5767,1.5695,1.5548,1.5249,1.5475,1.553,1.5759,1.5734,1.5333,1.5436,1.5681,1.5672,1.5597,1.5262,1.5361,1.5652,1.5847,1.5534,1.5467,1.5677,1.5958,1.6036,1.5929,1.5779,1.5823,1.6294,1.6372,1.6238,1.5951,1.6048,1.6363,1.6495,1.6391,1.5902,1.5756,1.5872,1.6149,1.6078,1.5552,1.5265,1.5345,1.5355,1.5379,1.5223,1.4933,1.4879,1.5043,1.542,1.5213,1.4814,1.4957,1.5233,1.5375,1.513,1.4815,1.4832,1.5067,1.5488,1.6051,1.6932,1.8846,2.1423,2.4154,2.4137,2.326,2.128,1.9154,1.8573,1.7157,1.5961,1.5096,1.54,1.5893,1.5944,1.5549,1.5427,1.5596,1.5629,1.5458,1.5307,1.5344,1.5356,1.5534,1.5538,1.5246,1.5477,1.5476,1.5466,1.5478,1.5434,1.55,1.5382,1.5523,1.557,1.5435,1.5185,1.5398,1.5706,1.5804,1.5535,1.5428,1.5736,1.5881,1.6042,1.5929,1.5792,1.5848,1.5752,1.6071,1.6128,1.5825,1.5588,1.619,1.6571,1.6636,1.6555,1.6619,1.6712,1.6947,1.7006,1.6872,1.6966,1.7118,1.7353,1.7468,1.7289,1.7125,1.7299,1.7208,1.7413,1.701,1.675,1.6795,1.6663,1.6646,1.6322,1.6073,1.5964,1.607,1.593,1.5406,1.5371,1.5307,1.5331,1.5474,1.5214,1.5035,1.493,1.5186,1.545,1.5248,1.5172,1.5248,1.5162,1.538,1.497,1.4886,1.4924,1.5052,1.5402,1.5304,1.5233,1.4954,1.5181,1.5239,1.5383,1.5072,1.5128,1.5249,1.528,1.5356,1.506,1.5305,1.5317,1.5519,1.5381,1.5237,1.5043,1.5086,1.5059,1.4993,1.5147,1.4934,1.4951,1.5132,1.5295,1.5034,1.4761,1.484,1.4991,1.494,1.5076,1.4715,1.4737,1.4921,1.5094,1.4744,1.4783,1.4717,1.4841,1.4879,1.4833,1.4748,1.4914,1.5198,1.5311,1.5389,1.5157,1.5059,1.4986,1.546,1.5441,1.5719,1.5477,1.527,1.5683,1.5581,1.5377,1.5228,1.5327,1.5377,1.5189,1.4535,1.4409,1.4414,1.4574,1.4582,1.451,1.4155,1.4264,1.4404,1.4374,1.4246,1.4107,1.4479,1.433,1.444,1.4263,1.3821,1.4205,1.4641,1.5786,1.6782,1.8549,2.1173,2.3515,2.3373,2.1381,1.8792,1.7669,1.7118,1.6003,1.479,1.4444,1.4183,1.4142,1.4986,1.504,1.4986,1.474,1.4516,1.4461,1.4895,1.4326,1.4164,1.4271,1.4298,1.4166,1.4248,1.3635,1.3673,1.3807,1.4046,1.4212,1.4003,1.4254,1.436,1.461,1.4144,1.4233,1.4224,1.3955,1.431,1.4153,1.4165,1.4155,1.4216,1.4349,1.4681,1.4132,1.4274,1.4362,1.4573,1.4567,1.4512,1.4625,1.496,1.481,1.5114,1.5049,1.5238,1.5339,1.5385,1.5668,1.5773,1.5587,1.5547,1.5413,1.6299,1.5896,1.5755,1.5817,1.571,1.5788,1.5403,1.5238,1.5385,1.5286,1.5176,1.4805,1.4148,1.4085,1.4324,1.4626,1.4198,1.4132,1.3888,1.3877,1.4248,1.424,1.3895,1.3731,1.3378,1.39,1.4083,1.4331,1.3843,1.3977,1.4257,1.4314,1.4127,1.4351,1.4254,1.4487,1.444,1.3973,1.3985,1.4228,1.4373,1.4896,1.4479,1.4452,1.4387,1.4509,1.4775,1.4749,1.4611,1.4731,1.4833,1.5043,1.4887,1.4708,1.4736,1.4592,1.4866,1.4659,1.4249,1.4273,1.4608,1.4757,1.4539,1.4151,1.4527,1.4729,1.479,1.4676,1.4933,1.4796,1.4839,1.5065,1.5045,1.4665,1.4451,1.4411,1.4719,1.4596,1.4463,1.4463,1.4497,1.4647,1.4401,1.4138,1.3776,1.3868,1.3539,1.3686,1.3666,1.3489,1.3002,1.276,1.2881,1.3262,1.3086,1.2971,1.3189,1.3413,1.3261,1.2897,1.262,1.258,1.2753,1.3184,1.3731,1.4766,1.6564,1.9305,2.2065,2.2112,2.0188,1.7481,1.5612,1.5083,1.3557,1.2518,1.2299,1.3031,1.335,1.2845,1.2768,1.2156,1.2573,1.2655,1.2434,1.2234,1.1926,1.2162,1.2281,1.2111,1.1918,1.2172,1.2173,1.2108,1.2076,1.1756,1.1649,1.1813,1.1928,1.2069,1.1713,1.1273,1.1506,1.1987,1.1978,1.1453,1.1709,1.214,1.2002,1.2105,1.1943,1.1932,1.2075,1.2172,1.2212,1.2136,1.2028,1.2036,1.2304,1.2546,1.2608,1.2366,1.2402,1.2684,1.3198,1.301,1.31,1.31,1.3293,1.3731,1.3702,1.3475,1.3582,1.3639,1.3627,1.3351,1.3186,1.2975,1.2946,1.2874,1.29,1.2557,1.2523,1.2293,1.2444,1.2256,1.1961,1.1978,1.199,1.2206,1.2304,1.1955,1.1737,1.1806,1.1984,1.2006,1.1884,1.1822,1.1958,1.2165,1.2066,1.1904,1.1912,1.2104,1.2043,1.2337,1.2227,1.2095,1.2161,1.2516,1.2656,1.227,1.2086,1.2202,1.2468,1.2635,1.2843,1.2548,1.2438,1.2655,1.2729,1.2598,1.2429,1.2474,1.2648,1.2642,1.2506,1.2378,1.2361,1.2671,1.3023,1.3028,1.2723,1.2844,1.273,1.2923,1.3171,1.3199,1.3147,1.303,1.3247,1.3246,1.3111,1.295,1.2863,1.2952,1.3124,1.2842,1.2403,1.2267,1.2449,1.2341,1.1997,1.1875,1.1624,1.1814,1.2097,1.2052,1.1781,1.1556,1.1629,1.1644,1.1525,1.1536,1.1595,1.1774,1.1949,1.1584,1.1641,1.1903,1.2981,1.4794,1.5813,1.8286,2.0778,2.1609,2.0458,1.803,1.5804,1.4854,1.3656,1.2427,1.2263,1.2187,1.2377,1.2574,1.2492,1.2076,1.1843,1.1722,1.1923,1.196,1.206,1.2032,1.1861,1.1863,1.2204,1.2541,1.2203,1.1884,1.1905,1.2023,1.2195,1.2073,1.1972,1.2267,1.2511,1.2503,1.2253,1.1917,1.1875,1.2074,1.2291,1.2617,1.247,1.2455,1.2378,1.2678,1.2756,1.2638,1.2792,1.3118,1.3284,1.3269,1.3153,1.3292,1.3252,1.3689,1.405,1.3942,1.3785,1.3928,1.4187,1.4342,1.4294,1.4329,1.4237,1.4581,1.4714,1.4473,1.4304,1.4175,1.4194,1.3997,1.3606,1.3233,1.3145,1.3304,1.3336,1.2936,1.268,1.2341,1.2569,1.2752,1.2482,1.2017,1.205,1.2146,1.2548,1.2622,1.2108,1.1728,1.211,1.243,1.2293,1.1956,1.1879,1.1903,1.2092,1.2033,1.1975,1.2086,1.2163,1.2037,1.2221,1.2145,1.1854,1.1858,1.2286,1.253,1.2088,1.1941,1.1889,1.2238,1.2337,1.2304,1.208,1.2049,1.1978,1.2254,1.2275,1.1687,1.1759,1.1994,1.183,1.1857,1.1872,1.2281,1.2703,1.2643,1.273,1.2694,1.2436,1.2843,1.3005,1.2812,1.2789,1.2593,1.2598,1.319,1.3108,1.2605,1.2915,1.2723,1.2294,1.2365,1.2399,1.2032,1.1871,1.2005,1.2098,1.1582,1.1566,1.1757,1.1783,1.1671,1.1145,1.0969,1.1265,1.1727,1.1696,1.1765,1.1799,1.1352,1.1336,1.1215,1.1422,1.1992,1.2447,1.4256,1.7125,1.959,2.1272,2.0722,1.9938,1.7618,1.5477,1.4249,1.2836,1.1693,1.1673,1.2104,1.1838,1.1629,1.1393,1.1577,1.1562,1.1805,1.1791,1.1705,1.1634,1.1586,1.1416,1.1612,1.1728,1.1742,1.1839,1.2018,1.1971,1.1827,1.1749,1.2121,1.2133,1.1876,1.1729,1.2005,1.21,1.206,1.1939,1.1944,1.1995,1.241,1.2517,1.2545,1.2112,1.1983,1.2379,1.2752,1.2603,1.2572,1.2887,1.3099,1.2989,1.3093,1.3588,1.3415,1.3462,1.3703,1.3905,1.3837,1.4112,1.4159,1.422,1.418,1.4153,1.4355,1.4426,1.4457,1.4247,1.3714,1.3804,1.3423,1.3415,1.3417,1.2906,1.2792,1.2487,1.2442,1.2503,1.2211,1.2126,1.2089,1.2088,1.2261,1.1924,1.1895,1.2126,1.2087,1.1999,1.1785,1.184,1.1785,1.1937,1.2197,1.2203,1.1668,1.1851,1.2044,1.2071,1.1978,1.2027,1.1944,1.1862,1.1993,1.191,1.1979,1.2386,1.2239,1.211,1.1963,1.1731,1.2003,1.2154,1.2023,1.193,1.2082,1.1826,1.1804,1.1869,1.192,1.1882,1.1841,1.1737,1.1772,1.1656,1.1674,1.1605,1.1601,1.1959,1.1873,1.174,1.2049,1.2102,1.2134,1.2186,1.2197,1.2234,1.2329,1.2526,1.2416,1.2387,1.228,1.2362,1.2485,1.2163,1.1996,1.2077,1.1998,1.1991,1.1699,1.1371,1.1048,1.0996,1.117,1.1151,1.1094,1.1017,1.1123,1.1001,1.0895,1.0746,1.0716,1.0713,1.0732,1.0741,1.0806,1.0656,1.033,1.0359,1.0887,1.1256,1.2077,1.3773,1.6496,1.9481,2.0928,2.0525,1.9037,1.6434,1.4815,1.3694,1.2162,1.1021,1.121,1.165,1.1631,1.1428,1.1123,1.107,1.1206,1.1048,1.0798,1.0784,1.0791,1.0896,1.0975,1.104,1.0737,1.0739,1.0779,1.0925,1.0965,1.0798,1.0833,1.0929,1.0958,1.0942,1.0812,1.0791,1.0963,1.1106,1.0942,1.0827,1.0899,1.0891,1.1039,1.1198,1.1174,1.1253,1.1072,1.1082,1.1224,1.1323,1.132,1.1512,1.1749,1.1793,1.1851,1.1909,1.2012,1.2175,1.2315,1.2383,1.2484,1.246,1.2812,1.3056,1.2853,1.2812,1.2838,1.2753,1.2806,1.2657,1.2364,1.2113,1.2004,1.194,1.1651,1.1278,1.0983,1.1102,1.1029,1.0947,1.0775,1.0592,1.0309,1.0618,1.0555,1.0434,1.0291,1.0346,1.0441,1.0426,1.0498,1.047,1.0567,1.0497,1.0571,1.058,1.0676,1.0772,1.0735,1.0814,1.0504,1.0358,1.0496,1.08,1.0964,1.0804,1.078,1.0902,1.0972,1.1001,1.0596,1.057,1.0675,1.0759,1.0731,1.0585,1.0701,1.0762,1.0918,1.0813,1.0669,1.0553,1.0869,1.1039,1.0762,1.0568,1.047,1.065,1.0611,1.0723,1.0674,1.0579,1.0615,1.0664,1.0805,1.0778,1.0865,1.1029,1.094,1.0923,1.1,1.1119,1.11,1.095,1.1005,1.1085,1.12,1.1079,1.137,1.1384,1.1546,1.1336,1.1393,1.1472,1.1658,1.1687,1.1494,1.1418,1.1498,1.167,1.1584,1.1257,1.1185,1.1059,1.1136,1.0964,1.0955,1.0514,1.0432,1.0514,1.0393,1.0326,1.0018,0.99671,1.0127,1.0163,1.0307,0.99711,0.97488,0.9804,1.0065,0.99648,0.97246,0.96535,0.94645,0.98899,1.0602,1.1242,1.2763,1.5144,1.8196,2.0103,1.9018,1.7148,1.5699,1.3822,1.2899,1.1651,1.0096,1.0032,1.0319,1.0838,1.0657,1.0352,1.0024,1.0082,0.99135,0.99218,0.97805,0.9753,0.98519,1,0.99846,0.99519,0.97015,0.97883,0.99107,1.0082,1.0061,1.0041,0.98519,0.99462,1.0044,0.99798,0.99678,1.006,1.021,1.0211,1.0292,1.0108,1.0114,1.0369,1.0432,1.0576,1.0404,1.0429,1.0523,1.0818,1.0756,1.0591,1.0869,1.1181,1.1193,1.1189,1.0972,1.1093,1.1321,1.1726,1.1705,1.165,1.1673,1.1777,1.2046,1.2073,1.2131,1.2017,1.2032,1.2016,1.2132,1.1728,1.176,1.1383,1.1289,1.1015,1.07,1.0355,1.0328,1.0219,1.0266,0.98449,0.97846,0.96014,0.97446,0.9911,0.95851,0.96906,0.95689,0.94987,0.96249,0.9558,0.95284,0.93725,0.97654,0.98468,0.95888,0.93933,0.92255,0.93999,0.96703,0.96957,0.9395,0.92763,0.92385,0.95023,0.96397,0.95366,0.94557,0.94975,0.97093,0.9769,0.9449,0.94368,0.9302,0.94867,0.95584,0.9586,0.93857,0.93786,0.93004,0.95336,0.93303,0.93352,0.92471,0.95229,0.9412,0.90874,0.91096,0.91448,0.90689,0.9331,0.92629,0.91839,0.92007,0.90331,0.88456,0.87449,0.88013,0.88422,0.92928,0.92183,0.9222,0.92818,0.93527,0.94115,0.97633,0.98359,0.95985,0.94188,0.95632,0.98184,0.97855,0.95745,0.95417,0.96121,0.97236,0.94872,0.92673,0.88235,0.8714,0.86243,0.86698,0.87285,0.84251,0.82608,0.82655,0.8394,0.81432,0.81353,0.80845,0.81509,0.82744,0.81198,0.80748,0.79952,0.77974,0.79018,0.81306,0.84891,0.92095,1.0624,1.3085,1.5774,1.7951,1.7222,1.5255,1.2709,1.1346,1.0134,0.88834,0.80984,0.8351,0.89193,0.85524,0.83082,0.81578,0.82765,0.81295,0.80624,0.78721,0.79189,0.7963,0.8222,0.80159,0.78981,0.77507,0.79366,0.80159,0.79101,0.76478,0.76891,0.77827,0.79483,0.77875,0.7713,0.76341,0.7753,0.78278,0.78696,0.77348,0.77363,0.77806,0.79946,0.80564,0.78751,0.78151,0.79656,0.81195,0.81505,0.8052,0.81278,0.82845,0.85018,0.85319,0.85025,0.86387,0.8704,0.89134,0.89066,0.89075,0.88682,0.91199,0.93464,0.95368,0.93661,0.93431,0.93867,0.94788,0.943,0.91459,0.89042,0.88412,0.87503,0.87793,0.8546,0.82289,0.80318,0.79931,0.79395,0.77978,0.75461,0.74303,0.7341,0.74655,0.7415,0.71812,0.70929,0.71934,0.72459,0.72342,0.69964,0.69453,0.69782,0.71067,0.7111,0.6989,0.68815,0.69449,0.71158,0.71977,0.70338,0.69207,0.69416,0.70918,0.71624,0.70295,0.69184,0.69777,0.70924,0.70873,0.69274,0.6846,0.67903,0.68791,0.69487,0.68856,0.67111,0.6668,0.67473,0.6846,0.67653,0.65503,0.64895,0.65337,0.66408,0.65462,0.6383,0.63339,0.64226,0.6492,0.64711,0.62763,0.61725,0.61726,0.62621,0.63129,0.61321,0.5971,0.60425,0.61499,0.61306,0.59005,0.5777,0.58042,0.59047,0.59882,0.58783,0.57804,0.59132,0.60227,0.6277,0.62866,0.62185,0.63134,0.64945,0.6678,0.67999,0.66041,0.63428,0.6371,0.662,0.66504,0.64248,0.63006,0.64074,0.6433,0.62181,0.5959,0.58345,0.57477,0.56779,0.54883,0.52258,0.50811,0.50774,0.51848,0.51561,0.49949,0.48806,0.4916,0.49858,0.50322,0.48228,0.47458,0.48029,0.48002,0.45946,0.46199,0.48193,0.53652,0.64517,0.85066,1.0979,1.3332,1.525,1.4435,1.2104,0.91475,0.76433,0.61985,0.51552,0.53748,0.56195,0.55866,0.53255,0.53356,0.52996,0.5287,0.50435,0.49733,0.49721,0.50258,0.5019,0.48402,0.48486,0.48545,0.48659,0.48252,0.46263,0.46306,0.46605,0.48131,0.4808,0.46922,0.46221,0.47023,0.47549,0.48488,0.47464,0.46518,0.46533,0.47872,0.48619,0.47828,0.47089,0.47452,0.48735,0.50223,0.49579,0.49196,0.49807,0.5172,0.52963,0.53339,0.53141,0.53642,0.55407,0.57469,0.58408,0.58415,0.5901,0.6011,0.62441,0.63553,0.62941,0.62961,0.64536,0.65568,0.64819,0.6196,0.60718,0.59452,0.59031,0.57309,0.55361,0.51877,0.49717,0.48642,0.47708,0.44961,0.42047,0.41021,0.40901,0.40745,0.38857,0.37476,0.37283,0.38231,0.39029,0.37649,0.36634,0.36897,0.37161,0.37862,0.37635,0.36512,0.35761,0.36616,0.3695,0.37173,0.35883,0.35467,0.36294,0.37404,0.36842,0.35058,0.34929,0.35697,0.36201,0.35798,0.34554,0.33612,0.33998,0.34921,0.36039,0.35014,0.33803,0.34031,0.34402,0.3473,0.32674,0.31835,0.32203,0.3329,0.33423,0.32015,0.31458,0.31541,0.32122,0.32457,0.30838,0.29992,0.30038,0.30379,0.31196,0.3075,0.29531,0.29395,0.29765,0.30887,0.30854,0.29417,0.28519,0.29013,0.30337,0.29517,0.27915,0.27335,0.28003,0.28862,0.28765,0.27198,0.26486,0.26615,0.27934,0.28145,0.26695,0.25456,0.25868,0.27038,0.27311,0.25776,0.24652,0.25187,0.26165,0.26578,0.2476,0.24364,0.24722,0.25075,0.25946,0.25357,0.23689,0.23355,0.24417,0.25648,0.25247,0.24575,0.26477,0.28797,0.30858,0.30802,0.29398,0.29798,0.31287,0.32132,0.30578,0.29962,0.31534,0.32026,0.33045,0.31249,0.28889,0.28515,0.28302,0.28477,0.27556,0.25119,0.22777,0.21901,0.21523,0.21763,0.20493,0.19367,0.19266,0.20148,0.20771,0.19232,0.18819,0.18278,0.19393,0.19821,0.18232,0.16413,0.1392,0.15943,0.21133,0.26519,0.36936,0.5921,0.84434,1.1299,1.2108,1.0784,0.79798,0.56833,0.45124,0.36336,0.2283,0.18132,0.24653,0.26328,0.26478,0.22382,0.21238,0.20041,0.2154,0.2071,0.19743,0.18584,0.19968,0.20333,0.21115,0.19507,0.19294,0.19539,0.20532,0.21012,0.21165,0.19557,0.19541,0.20557,0.21671,0.20206,0.19569,0.19656,0.21379,0.22301,0.21316,0.20634,0.2108,0.21961,0.23156,0.22301,0.21588,0.21699,0.22663,0.24761,0.25368,0.24243,0.25158,0.26726,0.28973,0.29729,0.29172,0.29797,0.31131,0.33648,0.35238,0.35232,0.35321,0.36665,0.38715,0.39593,0.39119,0.38764,0.39336,0.40331,0.40538,0.38511,0.35829,0.34312,0.33071,0.32068,0.28504,0.25564,0.234,0.23445,0.22499,0.20232,0.17996,0.17081,0.1678,0.17224,0.16261,0.14932,0.14275,0.1441,0.15269,0.15227,0.13464,0.1286,0.13422,0.14599,0.13974,0.12557,0.12391,0.12909,0.13585,0.14114,0.12159,0.11853,0.11739,0.13283,0.14135,0.12698,0.11541,0.12097,0.13034,0.13924,0.12629,0.11101,0.11023,0.12505,0.1307,0.11941,0.10503,0.11039,0.11559,0.12235,0.10966,0.10582,0.10337,0.10391,0.10633,0.1029,0.087046,0.088694,0.092654,0.10345,0.096481,0.08098,0.078882,0.090361,0.098605,0.093836,0.076922,0.073129,0.083872,0.09083,0.093961,0.080471,0.072955,0.074849,0.077777,0.079516,0.070935,0.058029,0.06175,0.072639,0.079944,0.072872,0.071396,0.073935,0.07699,0.075552,0.051826,0.043144,0.0524,0.06434,0.070034,0.066133,0.047518,0.044075,0.054754,0.05949,0.063626,0.044978,0.044734,0.051671,0.066843,0.058996,0.04609,0.044462,0.049945,0.056681,0.051218,0.04219,0.035636,0.041645,0.056652,0.065017,0.04675,0.040542,0.030101,0.038092,0.046077,0.036041,0.029387,0.034231,0.045734,0.057275,0.043626,0.030774,0.046972,0.049998,0.068333,0.068881,0.0716,0.087832,0.10553,0.11718,0.11526,0.097604,0.11594,0.11789,0.12371,0.12219,0.12218,0.12848,0.11916,0.1255,0.11486,0.087721,0.082805,0.075375,0.080884,0.071505,0.037531,0.011818,0.010153,0.010578,0.028739,0.008911,-0.0052117,0.00078133,0.0064405,0.0025445,-0.0048481,-0.0098233,-0.0090051,0.0045207,0.0015783,-0.037136,-0.044392,-0.00020789,0.036642,0.12085,0.25701,0.48329,0.72378,0.99525,0.99343,0.83038,0.51866,0.34528,0.23256,0.08915,0.025745,0.026676,0.079628,0.078373,0.080116,0.042708,0.038495,0.021488,0.034309,0.030491,0.038658,0.02378,0.032589,0.023638,0.046514,0.034912,0.030043,0.02038,0.039823,0.035435,0.047264,0.029515,0.024582,0.031133,0.039094,0.046558,0.048898,0.030031,0.033682,0.039614,0.063812,0.048617,0.044951,0.051835,0.065417,0.075895,0.078528,0.066452,0.07928,0.090771,0.10816,0.11084,0.10923,0.11868,0.13055,0.14149,0.15008,0.15107,0.15709,0.18542,0.20451,0.2177,0.21515,0.20842,0.22172,0.24139,0.24945,0.23884,0.23431,0.23936,0.24487,0.24034,0.20761,0.19452,0.18096,0.18364,0.16993,0.15439,0.10815,0.10533,0.085855,0.085326,0.061742,0.037335,0.032102,0.037118,0.038818,0.032095,0.017935,0.013719,0.02135,0.033214,0.015615,0.0089746,0.0045483,0.010571,0.019807,0.018279,0.00041347,0.0056044,0.0079066,0.025567,0.02541,0.014251,0.012984,0.017781,0.031518,0.03348,0.015101,0.010691,0.0076668,0.027695,0.021426,0.022284,0.0064589,0.015962,0.022213,0.029355,0.016376,0.0026081,0.0078736,0.020241,0.018664,0.0040005,-0.0075168,0.00029825,0.0082313,0.016657,0.0012382,-0.01083,-0.0077171,0.0029384,0.0058671,0.004772,-0.014383,-0.015953,-0.011688,-0.001824,0.0018042,-0.011907,-0.021893,-0.013745,-0.0075632,-0.0071364,-0.022059,-0.025485,-0.017717,0.0012088,-0.0017013,-0.024879,-0.029344,-0.031138,-0.018926,-0.012454,-0.023771,-0.034941,-0.032017,-0.020444,-0.015731,-0.026552,-0.036404,-0.033363,-0.023859,-0.018511,-0.023573,-0.038835,-0.038749,-0.02969,-0.019121,-0.034613,-0.038196,-0.045853,-0.025766,-0.026273,-0.024749,-0.04858,-0.047775,-0.035394,-0.024598,-0.018534,-0.016338,-0.010147,0.0031844,0.024699,0.030265,0.019229,0.025412,0.041119,0.037855,0.031161,0.024741,0.028945,0.036454,0.03587,0.034951,0.016773,0.0061342,-0.0086549,-0.0087456,-0.014916,-0.044053,-0.072096,-0.079265,-0.079281,-0.070941,-0.090524,-0.097958,-0.096151,-0.088191,-0.08254,-0.087659,-0.096896,-0.1034,-0.10463,-0.095581,-0.10427,-0.13685,-0.14119,-0.097134,-0.018988,0.079887,0.26146,0.51929,0.78768,0.93022,0.80191,0.5516,0.39235,0.25429,0.12695,0.0020424,-0.099836,-0.076963,-0.038034,-0.022816,-0.041256,-0.062725,-0.0719,-0.066334,-0.064213,-0.064195,-0.082661,-0.090385,-0.086865,-0.069798,-0.070637,-0.076695,-0.091159,-0.089047,-0.076976,-0.064054,-0.068476,-0.076745,-0.076757,-0.065665,-0.059452,-0.06492,-0.078074,-0.076151,-0.064726,-0.04847,-0.048977,-0.065256,-0.065085,-0.051548,-0.046635,-0.042239,-0.054729,-0.050606,-0.041013,-0.024283,-0.010812,-0.019,-0.017277,-0.0026488,0.018617,0.030963,0.02908,0.034296,0.051079,0.068965,0.085342,0.080702,0.086482,0.091238,0.10511,0.11522,0.11538,0.10813,0.11049,0.11213,0.1147,0.089464,0.065604,0.044854,0.032104,0.017622,-0.0047528,-0.036742,-0.045833,-0.053672,-0.057645,-0.088716,-0.10509,-0.11289,-0.10772,-0.1009,-0.1068,-0.12908,-0.14045,-0.13741,-0.12442,-0.12569,-0.13714,-0.14244,-0.13902,-0.12913,-0.12804,-0.14105,-0.14352,-0.13458,-0.12691,-0.12352,-0.13289,-0.14532,-0.14793,-0.13717,-0.12495,-0.13581,-0.14151,-0.1425,-0.1333,-0.12792,-0.13886,-0.14856,-0.15102,-0.1408,-0.13029,-0.14465,-0.15662,-0.15726,-0.14746,-0.14169,-0.14875,-0.16008,-0.16468,-0.15909,-0.15352,-0.15665,-0.17636,-0.18238,-0.17678,-0.16701,-0.16642,-0.18051,-0.18744,-0.17923,-0.17166,-0.17525,-0.1893,-0.19474,-0.19371,-0.18043,-0.17541,-0.18309,-0.19261,-0.19295,-0.18635,-0.1783,-0.19176,-0.20695,-0.2066,-0.19633,-0.18978,-0.20091,-0.21267,-0.21553,-0.20589,-0.19065,-0.20564,-0.21368,-0.21623,-0.21461,-0.20415,-0.21274,-0.22595,-0.22898,-0.21964,-0.21392,-0.21625,-0.23104,-0.23529,-0.22881,-0.21953,-0.22623,-0.23622,-0.238,-0.23779,-0.22801,-0.22504,-0.2357,-0.24383,-0.24595,-0.23992,-0.23253,-0.24392,-0.25052,-0.25224,-0.2481,-0.24011,-0.24841,-0.25219,-0.25036,-0.23346,-0.20968,-0.20478,-0.20317,-0.19546,-0.18873,-0.17879,-0.17604,-0.17723,-0.19047,-0.19035,-0.16758,-0.1598,-0.17025,-0.18412,-0.18574,-0.1774,-0.18912,-0.21304,-0.23213,-0.22983,-0.24005,-0.25509,-0.27937,-0.2834,-0.28364,-0.27376,-0.26802,-0.28773,-0.29665,-0.30056,-0.28683,-0.28277,-0.29587,-0.30417,-0.30129,-0.30538,-0.31705,-0.30209,-0.26072,-0.18499,-0.014454,0.23133,0.34936,0.5849,0.7363,0.6429,0.39854,0.11965,-0.017858,-0.17345,-0.26231,-0.24947,-0.20665,-0.21856,-0.23235,-0.24194,-0.23659,-0.25455,-0.26499,-0.2763,-0.26491,-0.26221,-0.2571,-0.27124,-0.27378,-0.27235,-0.26241,-0.26023,-0.27196,-0.27448,-0.26771,-0.2582,-0.25181,-0.26683,-0.2745,-0.269,-0.25236,-0.24625,-0.25382,-0.26338,-0.25523,-0.24973,-0.23703,-0.24138,-0.24885,-0.24685,-0.23262,-0.21679,-0.21732,-0.22613,-0.22281,-0.20838,-0.1901,-0.1868,-0.19224,-0.17964,-0.16039,-0.137,-0.1312,-0.13267,-0.13208,-0.11703,-0.098588,-0.078958,-0.08409,-0.081506,-0.070024,-0.05275,-0.04651,-0.062442,-0.071382,-0.079217,-0.076212,-0.090923,-0.11925,-0.14522,-0.16024,-0.16951,-0.18706,-0.2021,-0.23132,-0.24662,-0.25337,-0.2585,-0.27479,-0.29563,-0.29978,-0.29558,-0.28942,-0.2947,-0.31331,-0.31387,-0.30901,-0.29814,-0.30707,-0.32011,-0.3204,-0.31355,-0.30826,-0.30368,-0.31497,-0.32049,-0.31384,-0.30684,-0.30607,-0.31529,-0.32022,-0.31187,-0.30606,-0.29912,-0.31457,-0.32112,-0.32017,-0.30874,-0.3,-0.31204,-0.31742,-0.31623,-0.31387,-0.30418,-0.31757,-0.33344,-0.33293,-0.32422,-0.31877,-0.32629,-0.33349,-0.33577,-0.33083,-0.32049,-0.3333,-0.3454,-0.34974,-0.34423,-0.33571,-0.34043,-0.3497,-0.35502,-0.35286,-0.33583,-0.33973,-0.35301,-0.35456,-0.35096,-0.33992,-0.34442,-0.35935,-0.3686,-0.36257,-0.35275,-0.35323,-0.36031,-0.37116,-0.36671,-0.35861,-0.35823,-0.36772,-0.37976,-0.37874,-0.37076,-0.36316,-0.37014,-0.38352,-0.38539,-0.37528,-0.36805,-0.37546,-0.3876,-0.38861,-0.3786,-0.37302,-0.3806,-0.38857,-0.3872,-0.38681,-0.37496,-0.37448,-0.39262,-0.39364,-0.38443,-0.37472,-0.37662,-0.38743,-0.39335,-0.39045,-0.38253,-0.38519,-0.39933,-0.4,-0.39515,-0.39107,-0.38324,-0.39761,-0.40332,-0.40169,-0.39538,-0.37855,-0.38964,-0.39136,-0.38091,-0.34877,-0.33462,-0.33675,-0.33659,-0.33478,-0.32256,-0.30035,-0.31896,-0.33123,-0.31734,-0.30456,-0.29945,-0.3053,-0.33214,-0.33561,-0.33003,-0.33653,-0.34533,-0.37609,-0.39198,-0.40514,-0.40728,-0.41195,-0.42342,-0.42983,-0.42649,-0.41953,-0.42249,-0.43616,-0.44132,-0.43764,-0.42778,-0.42461,-0.43309,-0.44593,-0.47121,-0.46189,-0.41805,-0.36911,-0.27687,-0.071983,0.1821,0.44364,0.60469,0.50016,0.26202,-0.0010043,-0.12043,-0.26744,-0.4011,-0.39496,-0.3734,-0.33288,-0.3487,-0.37177,-0.38715,-0.38719,-0.38435,-0.38841,-0.40459,-0.40363,-0.39978,-0.39126,-0.39638,-0.40853,-0.4089,-0.39805,-0.38494,-0.38845,-0.39803
