6.901,6.8998,6.9066,6.9134,6.9168,6.9102,6.9159,6.9238,6.9119,6.9014,6.9119,6.933,6.9211,6.9151,6.9149,6.9119,6.9227,6.9172,6.9265,6.9201,6.9213,6.9201,6.9267,6.9273,6.9229,6.9202,6.925,6.9313,6.9363,6.9221,6.9238,6.9457,6.9405,6.9183,6.9139,6.9155,6.9201,6.9234,6.9307,6.9278,6.9266,6.9228,6.9279,6.9308,6.9316,6.9249,6.9291,6.9257,6.9301,6.9343,6.9328,6.9356,6.9274,6.9277,6.9311,6.9474,6.93,6.9233,6.9177,6.9406,6.9341,6.9193,6.9229,6.9293,6.9306,6.9314,6.9306,6.928,6.9314,6.9332,6.9308,6.9241,6.926,6.9255,6.9385,6.9444,6.9296,6.9264,6.925,6.9288,6.931,6.9459,6.9362,6.9241,6.9287,6.9366,6.931,6.9404,6.9327,6.9251,6.9348,6.9367,6.9405,6.9392,6.939,6.9418,6.9601,6.9489,6.947,6.9557,6.9989,7.026,7.0261,7.0007,7.005,6.9848,6.9718,6.9662,6.9555,6.9483,6.9257,6.9261,6.9227,6.9328,6.9235,6.9175,6.9222,6.92,6.9169,6.9207,6.9253,6.9262,6.9219,6.9157,6.9175,6.8757,6.8062,6.7971,6.8234,6.9309,7.1841,7.3898,7.724,7.7522,7.3118,6.8454,6.5935,6.6784,6.7012,6.7495,6.7849,6.7898,6.832,6.9031,6.9563,6.9588,6.9537,6.9607,6.9528,6.9541,6.9579,6.9849,6.9775,6.9708,6.9709,6.9794,6.9906,6.9928,6.9969,7.0067,7.0111,7.0099,7.0181,7.0242,7.0267,7.0359,7.049,7.0524,7.0518,7.0553,7.0561,7.0776,7.1091,7.1021,7.099,7.1073,7.1206,7.1359,7.1453,7.151,7.1606,7.1761,7.1915,7.2082,7.2269,7.227,7.2437,7.2563,7.2654,7.2734,7.282,7.293,7.2992,7.3054,7.3129,7.3182,7.2943,7.2753,7.254,7.2219,7.1905,7.1635,7.1394,7.1109,7.084,7.061,7.046,7.0282,7.0299,7.0087,6.9847,6.9794,6.9757,6.9754,6.9698,6.9552,6.9498,6.9594,6.9737,6.9524,6.9376,6.9403,6.9482,6.9515,6.9521,6.9443,6.9407,6.943,6.9458,6.9558,6.9564,6.9564,6.9685,6.9633,6.9568,6.9602,6.9616,6.9582,6.9658,6.9859,6.9746,6.9624,6.9657,6.9726,6.9711,6.9688,6.9685,6.9671,6.9729,6.9773,6.9755,6.9695,6.9675,6.9698,6.9768,6.9758,6.9821,6.9676,6.9565,6.986,6.9825,6.9642,6.9658,6.9707,6.9727,6.9718,6.97,6.9686,6.9667,6.971,6.9737,6.9762,6.9731,6.969,6.9748,6.9792,6.9812,6.9723,6.9834,6.9861,6.9933,6.9704,6.9661,6.9719,6.9788,6.9838,6.978,6.9716,6.9739,6.9776,6.9777,6.9768,6.9703,6.9713,6.9765,6.9791,6.9783,6.9708,6.9737,6.9746,6.984,6.996,6.9763,6.9671,6.9677,6.9713,6.9794,6.9726,6.966,6.9736,6.9769,6.98,6.9748,6.968,6.9728,6.9729,6.9779,6.9833,6.9736,6.9717,6.9729,6.9696,6.9821,6.9918,6.985,6.9757,6.9907,6.9983,6.9804,6.9781,6.9983,7.0035,6.9947,6.995,7.0253,7.0729,7.0805,7.0593,7.0341,7.0171,7.0142,7.0221,7.0172,7.0091,6.9804,6.9682,6.9832,6.98,6.9637,6.9602,6.9758,6.9703,6.9646,6.9659,6.9617,6.9631,6.9654,6.9709,6.9538,6.8923,6.8262,6.8263,6.8305,6.9049,7.0797,7.427,7.7412,7.7692,7.4441,6.9313,6.7514,6.8057,6.8149,6.8518,6.8705,6.876,6.9246,7.0001,7.0034,6.9844,6.9848,6.9839,6.9922,6.9931,6.994,6.9947,6.9976,6.997,7.0152,7.0338,7.0167,7.0118,7.03,7.0322,7.0409,7.0434,7.059,7.0476,7.051,7.0593,7.0595,7.0641,7.0692,7.0845,7.0928,7.0992,7.106,7.1153,7.1259,7.1332,7.1407,7.1674,7.1599,7.1743,7.1835,7.1912,7.2062,7.2193,7.2421,7.2614,7.2558,7.2543,7.2722,7.2903,7.2992,7.3055,7.3149,7.3152,7.3166,7.331,7.3282,7.2862,7.2637,7.2385,7.213,7.191,7.1549,7.1351,7.1105,7.098,7.0815,7.0699,7.0388,7.0208,7.0179,7.0046,7.0005,6.9868,6.987,6.9792,6.994,6.9907,6.9707,6.966,6.9722,6.9726,6.9716,6.9666,6.9699,6.9697,6.9705,6.9796,6.9679,6.9564,6.9672,6.9683,6.9665,6.9573,6.9604,6.9682,6.9924,6.9739,6.9659,6.9665,6.9684,6.9721,6.9759,6.9723,6.9717,6.9754,6.9811,6.9809,6.9781,6.9754,6.9758,6.9917,6.9758,6.971,6.9674,6.969,6.9875,6.9876,6.9694,6.9684,6.9753,6.9796,6.9769,6.9736,6.9726,6.9731,6.9772,6.9827,6.9768,6.9715,6.9722,6.9734,6.9775,6.9735,6.9731,6.9784,6.9731,6.9764,6.9713,6.9665,6.9723,6.9734,6.9786,6.9811,6.9678,6.9792,6.9806,6.9702,6.9691,6.9659,6.9648,6.9666,6.9777,6.9742,6.9646,6.9673,6.9661,6.965,6.9684,6.9647,6.9677,6.9693,6.9719,6.9699,6.9649,6.9633,6.9708,6.9687,6.9659,6.9772,6.9672,6.9597,6.9579,6.9615,6.9628,6.959,6.9641,6.9682,6.9664,6.9638,6.9632,6.9622,6.9617,6.9631,6.9677,6.9608,6.9617,6.9648,6.9817,6.9834,6.958,6.9645,6.9669,6.9644,6.967,6.9719,6.9802,6.9773,6.979,7.008,7.0292,7.0595,7.0566,7.0342,7.0117,7.0186,7.0264,6.9948,6.9853,6.9783,6.9455,6.9482,6.9665,6.972,6.9719,6.9533,6.9452,6.9419,6.9348,6.9338,6.944,6.9329,6.9503,6.9523,6.9306,6.8612,6.8001,6.7999,6.8412,6.9841,7.2925,7.6422,7.7389,7.4995,7.0414,6.7481,6.779,6.8066,6.7985,6.8542,6.835,6.8668,6.9129,6.9716,6.9975,6.9655,6.9673,6.9543,6.9602,6.9663,6.9737,6.9769,6.9746,6.9736,6.9945,6.9838,6.9793,6.9819,6.9814,6.9854,7.0113,7.0185,7.0019,6.9991,7.0078,7.0194,7.0205,7.0249,7.0301,7.0427,7.0561,7.0574,7.0543,7.067,7.0744,7.0976,7.0911,7.0837,7.1037,7.1296,7.1251,7.137,7.1522,7.1632,7.1776,7.1823,7.1948,7.2194,7.2388,7.2532,7.2627,7.2459,7.2424,7.242,7.2489,7.249,7.2428,7.2319,7.2028,7.1792,7.152,7.1252,7.104,7.0693,7.0384,7.0103,6.998,7.0109,6.9805,6.9458,6.9579,6.9359,6.923,6.92,6.9169,6.9139,6.9174,6.9189,6.9169,6.913,6.9083,6.9096,6.9084,6.9231,6.9145,6.9001,6.9042,6.9093,6.9146,6.9026,6.9108,6.9055,6.9145,6.9016,6.8942,6.9029,6.9122,6.9148,6.9015,6.916,6.9342,6.9108,6.9087,6.9137,6.9049,6.9072,6.9115,6.9341,6.9105,6.9,6.9014,6.9072,6.9108,6.9159,6.9112,6.9087,6.9023,6.9138,6.9413,6.9247,6.9027,6.8983,6.9024,6.9134,6.9116,6.9027,6.9107,6.9145,6.9014,6.904,6.897,6.9009,6.9182,6.9276,6.9044,6.9005,6.8967,6.8999,6.9053,6.9045,6.9134,6.913,6.8977,6.9056,6.9019,6.9009,6.9073,6.9169,6.8965,6.8917,6.9108,6.8918,6.8867,6.8876,6.9014,6.8991,6.891,6.8923,6.8959,6.8931,6.9033,6.8988,6.8975,6.8814,6.8879,6.8912,6.8901,6.8858,6.8946,6.89,6.8797,6.883,6.8788,6.8878,6.8913,6.8972,6.8826,6.8788,6.8772,6.8819,6.8881,6.8859,6.877,6.8775,6.8749,6.8804,6.8712,6.868,6.8921,6.8758,6.8702,6.8805,6.877,6.8724,6.874,6.8872,6.8794,6.8861,6.8878,6.882,6.8968,6.9381,6.9633,6.9583,6.9434,6.9262,6.9048,6.8987,6.9143,6.9035,6.8897,6.865,6.8439,6.8463,6.8615,6.8512,6.8461,6.8464,6.84,6.8414,6.8437,6.8458,6.8444,6.8381,6.8329,6.8138,6.732,6.704,6.717,6.7209,6.8127,7.0598,7.4438,7.6394,7.478,7.0537,6.6758,6.6571,6.6838,6.6799,6.752,6.7221,6.7626,6.821,6.8635,6.869,6.8533,6.8411,6.8485,6.8643,6.8679,6.8601,6.8551,6.8609,6.8631,6.8766,6.8782,6.8901,6.8877,6.8806,6.8835,6.8988,6.9009,6.9088,6.9131,6.9193,6.9199,6.9297,6.932,6.9357,6.9362,6.9596,6.974,6.9667,6.9671,6.9753,6.9875,6.9999,7.0123,7.0197,7.0327,7.0503,7.0697,7.0673,7.0726,7.0865,7.1005,7.1128,7.1236,7.1362,7.1416,7.1454,7.1653,7.1954,7.1697,7.1675,7.1667,7.1554,7.1412,7.1133,7.0879,7.0689,7.0374,7.0045,6.968,6.9423,6.9426,6.922,6.905,6.888,6.8698,6.8567,6.8502,6.84,6.8489,6.8411,6.8306,6.8261,6.8239,6.822,6.8184,6.8207,6.8191,6.8148,6.8129,6.808,6.809,6.8147,6.8164,6.822,6.8172,6.7947,6.8117,6.8267,6.8113,6.8132,6.8146,6.8165,6.8211,6.8247,6.8195,6.815,6.8169,6.8235,6.8288,6.8253,6.8184,6.821,6.8243,6.827,6.8264,6.8157,6.8161,6.8249,6.8276,6.8302,6.8245,6.8257,6.8154,6.8188,6.8173,6.8109,6.8163,6.8178,6.8179,6.8226,6.8188,6.8126,6.8165,6.8188,6.8235,6.8186,6.8213,6.8203,6.8242,6.824,6.8214,6.8209,6.8228,6.8319,6.8309,6.8224,6.8236,6.8231,6.8287,6.8257,6.8248,6.8237,6.8256,6.8263,6.8308,6.8228,6.8286,6.8108,6.8033,6.815,6.8401,6.8275,6.8072,6.81,6.8158,6.8191,6.8142,6.8155,6.816,6.828,6.8261,6.8205,6.8105,6.8156,6.8246,6.8209,6.8239,6.8144,6.8137,6.8211,6.8171,6.8143,6.8125,6.819,6.8167,6.8245,6.8281,6.8336,6.8275,6.8253,6.8267,6.8432,6.8341,6.8366,6.8548,6.8881,6.9163,6.9131,6.8915,6.8773,6.8633,6.8772,6.8627,6.8324,6.8298,6.8179,6.8148,6.8115,6.8112,6.8146,6.8174,6.815,6.807,6.8077,6.8112,6.8171,6.8141,6.8109,6.8104,6.7892,6.7221,6.6812,6.7026,6.759,6.8107,7.0608,7.4682,7.647,7.4259,6.952,6.5502,6.5348,6.6224,6.625,6.6794,6.6775,6.7093,6.7742,6.8425,6.8528,6.8498,6.8537,6.856,6.8435,6.8484,6.8734,6.8747,6.8682,6.8745,6.8694,6.8775,6.884,6.8944,6.8973,6.9008,6.9046,6.9131,6.9268,6.9235,6.9274,6.9333,6.942,6.9544,6.9611,6.9678,6.9694,6.9784,6.9962,6.9995,7.0083,7.0125,7.0335,7.0609,7.0636,7.0582,7.0644,7.0898,7.1096,7.1273,7.1336,7.1446,7.1617,7.1704,7.1816,7.1942,7.1969,7.2117,7.2196,7.226,7.2258,7.2144,7.2054,7.1865,7.1622,7.1281,7.1159,7.0775,7.0398,7.0153,7.001,6.9794,6.9628,6.944,6.9246,6.92,6.9067,6.8996,6.8867,6.8843,6.8837,6.8766,6.8732,6.8721,6.8723,6.8695,6.863,6.8543,6.8656,6.8872,6.867,6.8649,6.8633,6.8739,6.8716,6.865,6.8695,6.8709,6.8798,6.8768,6.8813,6.8777,6.8784,6.8816,6.8844,6.8904,6.8881,6.8735,6.8762,6.8998,6.9015,6.8858,6.8809,6.8784,6.8857,6.9037,6.8926,6.8823,6.8867,6.8886,6.8874,6.8917,6.8969,6.8967,6.9178,6.9164,6.9254,6.9309,6.9302,6.9327,6.926,6.9098,6.9124,6.9171,6.9127,6.9121,6.8929,6.9025,6.8908,6.8825,6.8886,6.8852,6.885,6.8916,6.8856,6.8911,6.8893,6.8873,6.9097,6.8991,6.8947,6.8959,6.8937,6.8486,6.7848,6.7723,6.7883,6.8776,7.1354,7.5315,7.7508,7.59,7.0691,6.6047,6.5378,6.614,6.6402,6.7118,6.7574,6.7471,6.78,6.8551,6.9363,6.9481,6.9432,6.9385,6.9514,6.9483,6.9464,6.9492,6.9596,6.9702,6.9904,6.9713,6.9721,6.976,6.984,6.983,6.9834,6.9917,7.019,7.0096,7.0131,7.0231,7.0258,7.0293,7.0407,7.0558,7.065,7.0718,7.0762,7.0914,7.1054,7.1171,7.1368,7.143,7.1472,7.159,7.1668,7.1922,7.218,7.2211,7.2306,7.255,7.2678,7.2754,7.2864,7.312,7.3207,7.3286,7.3225,7.3215,7.3058,7.2927,7.261,7.2242,7.1763,7.1656,7.1508,7.1044,7.0594,7.0333,7.0227,7.0159,6.9768,6.9575,6.9433,6.9394,6.9359,6.9363,6.9264,6.9244,6.9199,6.9197,6.9228,6.9147,6.9099,6.9106,6.91,6.9166,6.9066,6.8957,6.8935,6.9109,6.9304,6.906,6.899,6.9037,6.906,6.9155,6.9125,6.9182,6.9181,6.9271,6.9245,6.9268,6.9196,6.9227,6.9258,6.934,6.9367,6.9269,6.942,6.9243,6.9262,6.9483,6.9325,6.9228,6.9263,6.94,6.9352,6.9232,6.9258,6.9314,6.9359,6.9339,6.9362,6.9287,6.9279,6.9345,6.9386,6.9349,6.9346,6.9298,6.9384,6.9584,6.9406,6.9233,6.9261,6.9359,6.9372,6.9336,6.9403,6.9412,6.9435,6.9437,6.9473,6.9424,6.9437,6.9401,6.9458,6.9471,6.9429,6.9397,6.9497,6.9451,6.945,6.9452,6.9423,6.9535,6.9409,6.9403,6.9467,6.9413,6.9438,6.9485,6.9542,6.9456,6.9474,6.9496,6.9473,6.9567,6.9563,6.942,6.945,6.946,6.9494,6.9382,6.9487,6.961,6.9583,6.9478,6.944,6.9401,6.9464,6.9472,6.9566,6.9588,6.9555,6.9444,6.9502,6.954,6.9533,6.9511,6.9457,6.9557,6.9566,6.9496,6.9482,6.966,6.9614,6.9517,6.9497,6.9547,6.9597,6.947,6.9508,6.9576,6.9653,6.9644,6.9626,6.9619,6.9789,6.9796,6.9679,6.9761,7.0119,7.047,7.0486,7.0295,7.0082,6.9953,6.9896,7.012,7.0003,6.9759,6.9608,6.9508,6.9445,6.9371,6.9377,6.9409,6.9465,6.9506,6.942,6.9406,6.9407,6.9467,6.9458,6.9387,6.923,6.8598,6.8135,6.8095,6.8558,6.9919,7.2788,7.6605,7.8059,7.5631,7.1114,6.7527,6.7632,6.8032,6.7959,6.842,6.821,6.8755,6.9448,6.9792,6.9739,6.9724,6.9684,6.975,6.9788,6.9745,6.9701,6.9975,6.9923,6.9879,6.982,6.9932,7.0002,7.0071,7.0253,7.0187,7.0152,7.0295,7.0359,7.03,7.0401,7.0424,7.0433,7.055,7.0622,7.0709,7.0752,7.0734,7.0879,7.1155,7.1103,7.1054,7.1131,7.1309,7.1442,7.1549,7.1554,7.1838,7.1908,7.1862,7.2058,7.2076,7.2175,7.2307,7.2481,7.2574,7.2658,7.2673,7.283,7.3014,7.2871,7.2826,7.2758,7.2637,7.2456,7.2199,7.1955,7.1758,7.1636,7.1264,7.1129,7.0794,7.0566,7.0456,7.0334,7.0202,7.0136,6.995,6.9938,7.0064,6.9835,6.9672,6.9724,6.9682,6.9738,6.9736,6.9759,6.9693,6.9641,6.9669,6.9809,6.9776,6.9646,6.964,6.963,6.9692,6.9755,6.9695,6.9697,6.9685,6.9704,6.993,6.987,6.9725,6.9706,6.9738,6.9792,6.9856,6.9786,6.977,6.989,6.9899,6.9868,6.9839,6.9857,6.9886,6.9957,6.9911,6.9853,6.9918,6.9952,6.9886,6.9818,6.9743,6.9736,6.9775,6.9834,6.9821,6.9804,6.9902,6.9759,6.9749,6.9808,6.9775,6.9754,6.9745,6.9846,6.9894,6.9825,6.9719,6.9777,6.9824,6.9826,6.9745,6.9769,6.9955,6.9855,6.973,6.9691,6.9817,6.9833,6.973,6.9766,6.977,6.9784,6.9766,6.979,6.9821,6.9779,6.9748,6.9707,6.9737,6.9787,6.9766,6.9777,6.9739,6.9771,6.989,6.9878,6.9645,6.9614,6.9661,6.9691,6.9756,6.9694,6.9668,6.9752,6.978,6.9736,6.9733,6.9732,6.9769,6.9801,6.9874,6.9937,6.9817,6.9712,6.9984,7.0195,7.0069,6.9802,7.0033,7.0521,7.0718,7.0513,7.0241,7.0098,7.01,7.0138,7.0015,6.9939,6.9727,6.961,6.9605,6.9589,6.9571,6.9616,6.9548,6.9663,6.9687,6.9522,6.9452,6.9488,6.972,6.9639,6.9428,6.8905,6.8237,6.8125,6.8298,6.9248,7.0203,7.3341,7.699,7.7768,7.5101,7.0192,6.7568,6.7956,6.8378,6.8413,6.8632,6.848,6.9144,6.9754,6.9883,6.9842,6.9764,6.9667,6.9738,6.9734,6.9793,6.9826,6.9875,6.9887,7,6.9953,6.9969,7.0008,7.0103,7.0087,7.0182,7.0405,7.0262,7.0307,7.0357,7.0395,7.0446,7.0516,7.0699,7.0791,7.0722,7.067,7.0805,7.086,7.1053,7.1157,7.1169,7.1274,7.145,7.1551,7.1713,7.1742,7.1877,7.2179,7.2368,7.2361,7.2371,7.2499,7.2606,7.2748,7.2919,7.2974,7.3085,7.3124,7.3281,7.3064,7.288,7.275,7.2551,7.2333,7.2008,7.1711,7.1373,7.1142,7.0942,7.07,7.0495,7.0449,7.0312,7.0095,6.9927,6.989,6.9699,6.9697,6.9674,6.9684,6.9699,6.972,6.953,6.9496,6.9557,6.9576,6.9461,6.9469,6.9538,6.9522,6.9511,6.9533,6.9476,6.9573,6.9495,6.9569,6.969,6.948,6.9415,6.9521,6.9521,6.9549,6.9527,6.9616,6.9653,6.955,6.9458,6.9472,6.9548,6.961,6.9574,6.9609,6.9538,6.9559,6.9608,6.9614,6.9527,6.9641,6.9721,6.9605,6.9576,6.9563,6.9542,6.958,6.9594,6.9633,6.968,6.9637,6.966,6.9773,6.967,6.9558,6.9575,6.9581,6.9636,6.9679,6.9681,6.9641,6.9674,6.9667,6.9666,6.9734,6.9924,6.979,6.9658,6.965,6.9767,6.9779,6.972,6.9677,6.9705,6.9755,6.9761,6.9731,6.9748,6.9654,6.965,6.9781,6.9706,6.9651,6.9663,6.9727,6.9699,6.9672,6.9621,6.9596,6.972,6.9887,6.9856,6.9635,6.9537,6.9705,6.9722,6.9682,6.9663,6.9688,6.9697,6.9746,6.9669,6.977,6.9916,6.9778,6.9768,6.9834,6.9928,6.9869,6.9848,6.9953,7.0285,7.0557,7.0636,7.0491,7.0519,7.0169,6.9956,7.0033,6.993,6.9905,6.9636,6.954,6.95,6.9577,6.9589,6.9594,6.9586,6.9564,6.9499,6.9549,6.9482,6.9453,6.9441,6.942,6.9353,6.8956,6.8226,6.7985,6.8163,6.9319,7.2014,7.574,7.7598,7.5732,7.1309,6.7621,6.7599,6.7781,6.7766,6.8258,6.8398,6.8589,6.9102,6.9651,6.9769,6.9714,6.9701,6.9604,6.9643,6.986,6.9814,6.9757,6.9715,6.9804,6.9874,6.9899,6.9947,6.9968,6.9952,7.0006,7.0098,7.0164,7.0167,7.0151,7.0258,7.0322,7.0452,7.0511,7.055,7.044,7.0684,7.0861,7.0813,7.0805,7.102,7.1064,7.1068,7.1161,7.1329,7.138,7.1557,7.1717,7.189,7.1948,7.2124,7.225,7.2421,7.2581,7.2694,7.2806,7.2901,7.3073,7.3176,7.3103,7.2993,7.3006,7.3112,7.2805,7.2425,7.208,7.1836,7.1582,7.1287,7.0994,7.072,7.0516,7.0346,7.0147,6.9932,6.9769,6.9782,6.976,6.9638,6.9577,6.9478,6.9421,6.9413,6.9445,6.941,6.9536,6.9467,6.9287,6.9321,6.9272,6.9215,6.9253,6.923,6.933,6.9336,6.9322,6.9254,6.9302,6.9323,6.9378,6.9353,6.9319,6.9313,6.9357,6.9394,6.9424,6.9329,6.934,6.9492,6.9656,6.9447,6.9442,6.9379,6.9322,6.9355,6.9358,6.9352,6.9373,6.9385,6.9411,6.9479,6.9416,6.9352,6.9351,6.9377,6.9394,6.9322,6.9394,6.9553,6.958,6.9622,6.9548,6.9708,6.9798,6.9831,6.982,6.9504,6.9497,6.955,6.9645,6.9723,6.9713,6.944,6.9307,6.9417,6.9401,6.9327,6.9297,6.9276,6.9334,6.9372,6.9411,6.9311,6.9272,6.9328,6.9308,6.9278,6.9167,6.9289,6.9331,6.8279,6.7916,6.7962,6.8805,7.126,7.5155,7.7711,7.6445,7.1589,6.7027,6.6111,6.6786,6.6961,6.7474,6.7896,6.8015,6.8403,6.8993,6.9649,6.9569,6.9815,6.983,6.975,6.9603,6.9824,6.9753,6.9769,6.9747,6.9857,6.9862,6.995,6.9951,7.0065,7.0021,7.0097,7.0175,7.027,7.0297,7.0311,7.0331,7.0421,7.0515,7.0605,7.0537,7.066,7.0913,7.103,7.1076,7.1139,7.1261,7.1374,7.1625,7.1654,7.1709,7.1925,7.2,7.2185,7.2356,7.2534,7.2657,7.2797,7.2963,7.3191,7.3223,7.3299,7.341,7.3441,7.3456,7.3267,7.2913,7.2678,7.2614,7.2098,7.168,7.1461,7.1141,7.09,7.0642,7.0358,7.0169,6.9973,6.9891,6.9783,6.9759,6.9489,6.9378,6.9431,6.9476,6.9407,6.9341,6.9273,6.9319,6.9294,6.9311,6.9274,6.9172,6.9214,6.9266,6.9208,6.9114,6.9221,6.9413,6.9256,6.9201,6.9197,6.9239,6.9246,6.9321,6.9326,6.9431,6.948,6.93,6.9339,6.9378,6.9459,6.9401,6.933,6.9404,6.9454,6.9492,6.9467,6.9475,6.9538,6.9535,6.9541,6.9364,6.9438,6.9705,6.9502,6.9396,6.9341,6.9403,6.9389,6.9455,6.9485,6.9489,6.9423,6.9558,6.9508,6.9407,6.9427,6.9456,6.9463,6.9464,6.9471,6.9531,6.9502,6.946,6.95,6.9561,6.9478,6.9471,6.9435,6.942,6.9551,6.967,6.9469,6.9429,6.949,6.9439,6.9588,6.9506,6.9488,6.9663,6.9637,6.9547,6.9577,6.9498,6.9535,6.9566,6.9673,6.9625,6.9579,6.9589,6.9589,6.9573,6.958,6.9459,6.9584,6.9813,6.9746,6.9614,6.9579,6.9609,6.9635,6.9584,6.9645,6.9596,6.9582,6.9624,6.9628,6.9679,6.9685,6.9703,6.9649,6.9687,6.9677,6.9694,6.9573,6.956,6.9689,6.9642,6.9629,6.9609,6.9675,6.9693,6.9737,6.9738,6.9757,6.9733,6.9686,6.9674,7.0077,7.0003,6.9846,6.9911,7.0293,7.0636,7.0563,7.033,7.0227,7.0087,7.0092,7.003,6.9952,6.9973,6.9645,6.9544,6.955,6.9552,6.9581,6.9615,6.9608,6.9554,6.9586,6.9663,6.9611,6.9608,6.9466,6.9544,6.9474,6.857,6.8262,6.8392,6.9126,7.11,7.487,7.7981,7.8264,7.5748,7.1065,6.7347,6.7401,6.7878,6.7887,6.8402,6.82,6.8725,6.9347,6.991,6.9777,6.9807,7.0018,6.9893,6.981,6.9873,6.9942,6.9971,7.0028,7.0031,7.003,7.0195,7.0156,7.017,7.0183,7.0223,7.0261,7.0399,7.0477,7.0523,7.0541,7.0635,7.0752,7.0799,7.0789,7.0794,7.0902,7.1226,7.1169,7.1108,7.114,7.1282,7.1417,7.1557,7.1674,7.168,7.182,7.2013,7.223,7.2213,7.2326,7.2437,7.2594,7.2707,7.2841,7.2894,7.298,7.3059,7.3149,7.3147,7.3105,7.3263,7.311,7.2898,7.2665,7.2402,7.211,7.1813,7.16,7.1338,7.1287,7.0895,7.0653,7.0519,7.0434,7.0356,7.0227,7.0142,7.0142,7.013,7.012,7.0151,7.015,7.0229,7.0238,7.0104,6.9828,6.9646,6.9686,6.9712,6.977,6.9744,6.9931,6.9781,6.9798,6.9859,6.9905,6.9824,6.9873,6.9954,6.9957,6.9936,6.9951,6.9946,7.0067,7.028,7.0026,6.9925,6.9934,7.0043,7.0071,7.0007,7.0008,7.0007,7.0038,7.0062,7.0045,7.0124,6.9971,6.9948,7.0009,7.0068,7.0063,7.0015,7.0057,7.0006,7.0039,7.0168,7.0037,7.0017,7.0072,7.0097,7.0098,7.0011,7.0034,7.0132,7.0162,7.0114,7.0144,7.0185,7.0228,7.0061,7.0036,7.0029,7.0117,7.0177,7.0084,7.0155,7.0316,7.0139,7.0147,7.0175,7.0167,7.0105,7.0113,7.0174,7.0252,7.0238,7.0081,7.0112,7.0112,7.0282,7.0234,7.0102,7.0096,7.0149,7.0199,7.0213,7.0046,7.0098,7.0338,7.0294,7.0159,7.0132,7.0101,7.0151,7.0178,7.0161,7.0166,7.0111,7.0212,7.0349,7.0332,7.027,7.0364,7.0374,7.0378,7.0391,7.0392,7.0725,7.0948,7.1243,7.1046,7.0898,7.0839,7.0597,7.0551,7.0499,7.0459,7.0207,7.0037,7.0091,7.007,7.0094,7.0021,7.0022,7.008,7.0281,7.0152,7.0033,7.003,7.0109,7.0109,7.0015,6.9725,6.9015,6.8629,6.8658,6.9454,7.1325,7.4951,7.7987,7.8009,7.4475,6.9725,6.8137,6.8564,6.864,6.8991,6.9292,6.9014,6.9554,7.0201,7.0374,7.0321,7.0132,7.0223,7.0417,7.0353,7.0354,7.0337,7.0355,7.0456,7.0516,7.0573,7.0499,7.0523,7.061,7.0672,7.0743,7.0705,7.0777,7.0816,7.0923,7.0996,7.0976,7.103,7.1242,7.1231,7.1204,7.1337,7.1338,7.1377,7.1587,7.1899,7.1787,7.1825,7.1833,7.2037,7.2144,7.2276,7.2399,7.2531,7.2719,7.288,7.3017,7.3109,7.3223,7.3347,7.3547,7.3769,7.3617,7.3618,7.3661,7.361,7.3598,7.3565,7.3169,7.284,7.2617,7.2366,7.213,7.1692,7.1489,7.1283,7.1072,7.0851,7.0705,7.0514,7.0462,7.0409,7.034,7.0263,7.0122,7.0293,7.0225,7.0121,7.0029,6.9933,7.005,7.0248,7.0096,6.9954,6.992,6.993,7.0037,6.9982,7.0036,6.9915,6.9949,6.9995,7.0027,6.9988,6.9925,6.9964,7.004,7.0035,7.0038,7.0013,7.0149,7.0138,7.0034,6.9992,7.0171,7.0115,7.0069,7.0107,7.0104,7.0111,7.0147,7.0222,7.0237,7.0228,7.0101,7.0106,7.0168,7.0225,7.0208,7.018,7.0162,7.0162,7.0205,7.0202,7.0156,7.027,7.0095,7.01,7.0362,7.0135,7.0111,7.0113,7.0154,7.0186,7.0182,7.0136,7.0168,7.0272,7.0233,7.0209,7.0148,7.0182,7.0217,7.0264,7.02,7.018,7.021,7.0258,7.0272,7.0385,7.0151,7.0199,7.0281,7.0205,7.0198,7.016,7.0125,7.0191,7.028,7.0192,7.0142,7.0134,7.0154,7.0189,7.0165,7.0181,7.013,7.0139,7.0182,7.0138,7.0104,7.003,7.017,7.0287,7.0281,7.0282,7.0083,7.0013,7.0077,7.0142,7.0289,7.0245,7.0185,7.0145,7.0269,7.0428,7.0303,7.0208,7.0522,7.0939,7.1172,7.0919,7.0826,7.0701,7.0558,7.0525,7.0466,7.0593,7.0421,7.0117,6.9915,6.9863,6.99,6.9952,7.0038,7.0077,6.9991,6.9883,6.9927,7.0012,6.9981,7.0011,6.9978,6.9857,6.9212,6.8651,6.8568,6.8834,6.9994,7.2921,7.6885,7.8138,7.6124,7.1813,6.8224,6.8403,6.866,6.8604,6.9158,6.8953,6.941,6.9702,7.0227,7.0326,7.0216,7.0274,7.0211,7.028,7.0233,7.0314,7.0397,7.0416,7.0393,7.0463,7.0423,7.0605,7.0664,7.0631,7.0606,7.0763,7.0685,7.0772,7.077,7.0845,7.0937,7.1061,7.1113,7.1161,7.1167,7.1266,7.1361,7.1518,7.1545,7.1625,7.1703,7.1902,7.2029,7.2059,7.2117,7.2184,7.2282,7.2605,7.2786,7.2869,7.2886,7.297,7.3164,7.3361,7.3409,7.3551,7.3672,7.3752,7.3852,7.3733,7.3665,7.3523,7.3356,7.3116,7.2724,7.252,7.2253,7.198,7.1759,7.1431,7.1091,7.1024,7.0901,7.0671,7.0554,7.0385,7.0489,7.0327,7.0214,7.0182,7.0076,7.01,7.0194,7.0147,7.0117,7.0049,6.9996,7.001,7.0072,7.0102,7.0033,6.9997,7.0004,7.0061,6.9991,7.0018,7.0187,7.0083,7.0024,7.0036,7.0024,7.0049,7.0186,7.0098,7.0078,7.0013,7.0033,7.0061,7.0086,7.0105,7.0148,7.0072,7.0118,7.0171,7.0214,7.0202,7.0133,7.0085,7.018,7.0193,7.0068,7.009,7.0234,7.0282,7.0175,7.0097,7.0132,7.0097,7.0256,7.0166,7.01,7.0068,7.011,7.0123,7.0213,7.0161,7.0139,7.0125,7.0157,7.0161,7.0161,7.0191,7.0178,7.0174,7.0115,7.0169,7.033,7.0147,7.0062,7.0136,7.0165,7.0157,7.0061,7.0046,7.0081,7.0283,7.0095,7.0047,7.0071,7.0106,7.0063,7.0064,7.0055,6.9992,6.9994,7.0025,7.0066,6.9999,7.0027,7.0021,7.0057,7.0059,6.9998,7.0199,7.0155,7.0025,7.0025,6.9969,7.0011,6.9981,7.0005,7.0135,7.0081,6.9975,7.0048,6.9991,7.0043,7.0101,7.0013,7.0003,6.9962,7.0096,7.0265,7.0133,7.0154,7.042,7.0754,7.0909,7.0844,7.082,7.061,7.0397,7.0364,7.0253,7.0141,7.003,6.9852,6.9857,6.9774,6.9815,6.9888,6.981,6.9756,6.9753,6.9704,6.9675,6.9739,6.9774,6.9669,6.9673,6.9595,6.9066,6.8476,6.8395,6.842,6.9704,7.2576,7.6329,7.8148,7.5803,7.1101,6.7192,6.7154,6.785,6.7904,6.8477,6.8299,6.8637,6.8943,6.9785,6.9945,6.9744,6.9814,6.9826,6.995,6.991,6.9942,6.9971,6.9992,7.0067,7.0031,7.0068,7.0224,7.0231,7.0208,7.0118,7.0307,7.045,7.0593,7.0526,7.0456,7.0459,7.0546,7.0647,7.072,7.075,7.0864,7.0974,7.1195,7.1105,7.1135,7.1264,7.1404,7.1489,7.1594,7.1685,7.1747,7.1947,7.2099,7.2324,7.24,7.2544,7.2635,7.2719,7.2934,7.3218,7.3175,7.3198,7.328,7.3341,7.3288,7.321,7.3147,7.2874,7.2576,7.228,7.2207,7.1818,7.1463,7.1258,7.0962,7.0648,7.0445,7.0355,7.0177,7.0092,6.9909,6.98,6.9739,6.9629,6.9751,6.9655,6.9464,6.9504,6.9535,6.946,6.9417,6.9397,6.9403,6.9449,6.9456,6.9379,6.94,6.9379,6.9404,6.9551,6.9507,6.9389,6.9382,6.943,6.9443,6.9412,6.9404,6.9482,6.9502,6.9544,6.9551,6.9547,6.9463,6.942,6.9628,6.9749,6.9484,6.9406,6.9512,6.9513,6.9545,6.9476,6.9564,6.9554,6.9661,6.9778,6.9738,6.977,7.0015,7.0056,6.9845,6.964,6.9632,6.965,6.9719,6.9796,6.975,6.9373,6.9304,6.9593,6.9481,6.9342,6.9232,6.9348,6.9365,6.9429,6.9363,6.9309,6.9336,6.9359,6.9381,6.9422,6.9318,6.9307,6.9046,6.8548,6.8155,6.8092,6.8709,7.0697,7.4429,7.7732,7.7476,7.2668,6.7891,6.5887,6.6012,6.6662,6.7038,6.7695,6.7855,6.8141,6.8849,6.9576,6.98,6.9781,6.9758,6.9743,6.9723,6.989,6.986,6.9863,6.9886,6.9904,6.9951,6.9959,6.9999,7.0057,6.9986,7.0057,7.0354,7.0269,7.0241,7.0228,7.0315,7.0451,7.0558,7.0633,7.0713,7.0783,7.0906,7.1047,7.1169,7.1195,7.1229,7.1396,7.1699,7.1708,7.1742,7.1876,7.2033,7.225,7.2401,7.2576,7.2886,7.2998,7.3094,7.3233,7.3337,7.3469,7.3542,7.3621,7.3559,7.3357,7.3222,7.2964,7.2659,7.236,7.1881,7.1561,7.1201,7.0997,7.0715,7.0408,7.0105,6.9975,6.9819,6.9746,6.957,6.9557,6.9581,6.941,6.9421,6.9412,6.9375,6.9263,6.9309,6.9302,6.923,6.9206,6.917,6.918,6.9191,6.9196,6.9138,6.9102,6.9239,6.9144,6.9171,6.9225,6.9198,6.9153,6.9166,6.9361,6.9491,6.9196,6.9157,6.9273,6.9355,6.9401,6.9301,6.9254,6.9321,6.9384,6.9365,6.9407,6.9407,6.9409,6.9422,6.9413,6.9339,6.932,6.9526,6.951,6.9438,6.9445,6.9343,6.9287,6.9345,6.9507,6.958,6.9417,6.9354,6.9374,6.9384,6.9388,6.9396,6.9464,6.9438,6.95,6.943,6.9425,6.9431,6.9466,6.9465,6.951,6.9445,6.9406,6.9453,6.9672,6.952,6.9387,6.9351,6.9491,6.97,6.9509,6.9405,6.9363,6.948,6.9533,6.9554,6.956,6.9539,6.9482,6.9457,6.9504,6.9507,6.9456,6.9472,6.9514,6.9542,6.9504,6.9472,6.9497,6.9518,6.9505,6.9546,6.9527,6.948,6.9478,6.9477,6.9516,6.9623,6.9604,6.9495,6.9451,6.9507,6.9476,6.9506,6.9498,6.957,6.9536,6.9472,6.9498,6.9506,6.9525,6.9612,6.9574,6.9535,6.9456,6.9526,6.9592,6.9528,6.9518,6.954,6.9536,6.9577,6.9531,6.9522,6.9646,6.9824,6.9675,6.9558,6.9757,6.9764,6.9718,6.9832,7.0201,7.0337,7.0511,7.0336,7.0078,7.001,7.0052,6.9873,6.9789,6.9759,6.9613,6.9429,6.9399,6.9457,6.9483,6.949,6.9411,6.9526,6.9386,6.9432,6.9478,6.9422,6.9438,6.9399,6.9353,6.8807,6.8144,6.8024,6.8444,6.9754,7.2412,7.6104,7.7839,7.6097,7.1592,6.767,6.7532,6.7943,6.7869,6.8099,6.824,6.8432,6.909,6.9659,6.9686,6.9757,6.9709,6.9657,6.9655,6.9692,6.9697,6.9759,6.991,6.9927,6.9791,6.9858,6.99,6.9975,6.9941,6.9957,7.0081,7.0108,7.0163,7.0166,7.0239,7.0346,7.0559,7.0492,7.0402,7.0479,7.0622,7.0783,7.0777,7.0846,7.091,7.0997,7.1116,7.1221,7.1239,7.1266,7.1522,7.1795,7.1795,7.1886,7.2006,7.2122,7.2404,7.2496,7.2547,7.2679,7.2841,7.3131,7.3034,7.2971,7.3033,7.3035,7.3003,7.2938,7.2757,7.2443,7.2142,7.1884,7.1644,7.136,7.1085,7.0768,7.0687,7.0658,7.0351,7.0068,6.9967,6.9908,6.9922,6.9823,6.9662,6.9677,6.9699,6.9727,6.981,6.9589,6.9585,6.9572,6.9608,6.956,6.959,6.9541,6.9581,6.9643,6.9609,6.9522,6.9746,6.9737,6.9609,6.963,6.9643,6.9628,6.9639,6.9646,6.9713,6.975,6.9683,6.968,6.9723,6.9823,6.9815,6.965,6.9648,6.9699,6.972,6.9782,6.9745,6.974,6.9665,6.9813,6.9942,6.9835,6.9688,6.9691,6.9787,6.9824,6.9717,6.9737,6.9698,6.978,6.978,6.9725,6.9691,6.9696,6.9794,6.9902,6.9733,6.9676,6.968,6.9722,6.9777,6.9711,6.9737,6.9692,6.966,6.9855,6.9968,6.9715,6.9653,6.9711,6.9793,6.9805,6.9704,6.9701,6.9789,6.9769,6.9815,6.9738,6.9695,6.9713,6.9757,6.9897,6.9751,6.9653,6.9711,6.978,6.9737,6.9713,6.9731,6.971,6.9688,6.9887,6.9866,6.969,6.9681,6.9763,6.9759,6.9722,6.9692,6.9659,6.9667,6.9766,6.9762,6.9691,6.979,6.9672,6.9638,6.9728,6.9806,6.9786,6.9749,6.9827,6.9982,6.9868,6.9744,6.9971,7.0614,7.0832,7.0719,7.0464,7.019,7.0127,7.0047,7.0102,7.0003,6.9957,6.9716,6.9655,6.9592,6.956,6.9559,6.953,6.9496,6.9489,6.947,6.9556,6.9547,6.9506,6.9398,6.9547,6.9516,6.9064,6.8316,6.803,6.8026,6.8843,7.0817,7.4357,7.7323,7.7163,7.3701,6.8942,6.7596,6.8008,6.7951,6.8404,6.8773,6.8347,6.8803,6.9471,6.9711,6.9722,6.9678,6.9654,6.9571,6.9622,6.9892,6.9842,6.9825,6.9742,6.9777,6.9871,6.995,6.9971,6.9959,7.0069,7.0118,7.0115,7.0184,7.0382,7.021,7.017,7.0284,7.0453,7.0546,7.0513,7.0585,7.0693,7.0785,7.0841,7.104,7.1105,7.1111,7.1197,7.1367,7.142,7.1462,7.1646,7.1766,7.1996,7.2089,7.2189,7.231,7.2529,7.2701,7.2791,7.2909,7.285,7.3019,7.309,7.3086,7.2975,7.2821,7.2697,7.2628,7.2593,7.2013,7.166,7.1436,7.1307,7.0929,7.0625,7.042,7.0267,7.0097,6.9981,6.9833,6.9735,6.9725,6.9744,6.9715,6.9449,6.9434,6.9433,6.9433,6.9457,6.9407,6.932,6.9511,6.9617,6.9389,6.9334,6.9344,6.9384,6.9418,6.945,6.9423,6.9365,6.9365,6.9406,6.9453,6.9417,6.9409,6.9424,6.9471,6.9583,6.9455,6.9369,6.9324,6.94,6.9668,6.9465,6.94,6.9435,6.9521,6.9554,6.9601,6.9581,6.9504,6.9535,6.9587,6.9567,6.9563,6.9496,6.9535,6.9586,6.9578,6.9554,6.9742,6.9493,6.9391,6.9487,6.963,6.9574,6.9493,6.9504,6.9514,6.9608,6.9527,6.96,6.9685,6.9697,6.9625,6.9609,6.9593,6.9652,6.9678,6.9768,6.9651,6.9585,6.9612,6.9684,6.9698,6.9638,6.9542,6.9711,6.9792,6.9677,6.9551,6.9518,6.9537,6.9615,6.9635,6.9627,6.9626,6.9618,6.9658,6.9705,6.965,6.9593,6.962,6.9688,6.97,6.9678,6.9634,6.9597,6.9672,6.9871,6.9741,6.9512,6.9497,6.9525,6.9575,6.9639,6.9576,6.9591,6.964,6.9692,6.9653,6.956,6.9585,6.9626,6.9656,6.9667,6.9647,6.9629,6.9752,6.9716,6.9691,6.9676,6.9714,6.9799,6.9994,6.9911,7.0318,7.0491,7.0484,7.0434,7.0191,7.0038,6.9954,7.0053,6.9928,6.9835,6.959,6.9464,6.9471,6.9493,6.9493,6.9544,6.9482,6.9489,6.9512,6.9537,6.948,6.9354,6.949,6.9591,6.9498,6.9034,6.8311,6.7913,6.8007,6.897,7.1069,7.4756,7.7485,7.7608,7.5097,7.0412,6.7495,6.7764,6.806,6.8171,6.8634,6.8419,6.8862,6.9523,6.9835,6.9719,6.9584,6.9714,6.9691,6.958,6.959,6.9722,6.9715,6.9814,6.9836,6.9816,6.983,6.9856,6.9924,7,7.0061,7.0073,7.0131,7.0151,7.0232,7.0322,7.0428,7.0333,7.0381,7.0499,7.0541,7.077,7.0888,7.0792,7.0801,7.0919,7.1069,7.1149,7.1199,7.1395,7.1618,7.1635,7.1774,7.1867,7.2033,7.2185,7.2388,7.2559,7.2631,7.2705,7.2874,7.2922,7.302,7.3014,7.306,7.3063,7.3027,7.3054,7.275,7.2303,7.1957,7.1763,7.1427,7.1092,7.094,7.0552,7.0324,7.0305,6.9937,6.9815,6.9754,6.9683,6.9549,6.9532,6.9427,6.9392,6.9363,6.9396,6.9336,6.9211,6.9338,6.9454,6.9261,6.9185,6.9138,6.9108,6.9232,6.9278,6.9361,6.9277,6.9102,6.9064,6.9199,6.922,6.9179,6.9177,6.9181,6.9266,6.93,6.9274,6.9184,6.9222,6.9258,6.9417,6.9393,6.9237,6.9288,6.927,6.9275,6.9262,6.9288,6.9264,6.9378,6.9446,6.9456,6.9254,6.9215,6.9323,6.9341,6.9312,6.928,6.9331,6.9415,6.9474,6.954,6.965,6.9684,6.9659,6.9605,6.9711,6.9589,6.9491,6.9541,6.965,6.9711,6.9778,6.9556,6.9334,6.9338,6.9343,6.9385,6.9363,6.9208,6.9311,6.9329,6.9289,6.9212,6.9164,6.9227,6.9275,6.945,6.9393,6.9232,6.925,6.8851,6.8121,6.7938,6.8036,6.9057,7.1501,7.5447,7.7634,7.6071,7.1177,6.68,6.624,6.6844,6.6842,6.7293,6.8072,6.7846,6.8329,6.9128,6.9644,6.9691,6.9639,6.9606,6.9791,6.9855,6.9732,6.977,6.9772,6.9775,6.9787,6.9969,7.0046,7.0007,6.9946,6.9952,7.005,7.0159,7.0232,7.0192,7.0319,7.0371,7.0468,7.0702,7.0555,7.059,7.0698,7.0847,7.0917,7.0958,7.1007,7.1246,7.1464,7.1515,7.1492,7.1614,7.1874,7.2009,7.2239,7.2319,7.2483,7.2624,7.2847,7.2981,7.3049,7.3235,7.3294,7.344,7.3481,7.3388,7.3209,7.3125,7.2888,7.2552,7.2215,7.1802,7.1582,7.1143,7.0854,7.0658,7.0176,7.0019,6.9868,6.9724,6.9656,6.9524,6.9401,6.9394,6.9381,6.938,6.9271,6.9234,6.9177,6.9228,6.9235,6.9123,6.9083,6.909,6.9155,6.9208,6.9137,6.911,6.903,6.9086,6.9087,6.9304,6.9301,6.9023,6.9057,6.9137,6.914,6.9146,6.918,6.9201,6.9227,6.9228,6.9161,6.9147,6.9264,6.9289,6.935,6.9244,6.9268,6.9336,6.9282,6.9303,6.9224,6.9229,6.926,6.926,6.928,6.9434,6.9336,6.9273,6.9355,6.9271,6.9231,6.9222,6.925,6.9313,6.9305,6.927,6.9256,6.9289,6.9322,6.9302,6.9303,6.9185,6.9204,6.9247,6.93,6.9292,6.9218,6.9158,6.9306,6.952,6.9295,6.9228,6.9232,6.9203,6.9284,6.9367,6.9292,6.9222,6.9236,6.9261,6.926,6.9164,6.9226,6.9244,6.9314,6.9333,6.9302,6.9229,6.9289,6.9298,6.9335,6.9291,6.9299,6.9244,6.9345,6.932,6.9244,6.9254,6.9513,6.94,6.923,6.9226,6.9249,6.9205,6.9273,6.9297,6.9427,6.9274,6.9202,6.9311,6.9308,6.9315,6.9284,6.9235,6.9204,6.9289,6.9266,6.9278,6.9235,6.9304,6.9288,6.928,6.9255,6.9187,6.9265,6.9429,6.9282,6.9262,6.9265,6.9336,6.9294,6.9509,6.9614,6.9448,6.9403,6.9537,6.9912,7.0161,7.0097,6.9937,6.9822,6.9722,6.9621,6.9699,6.9505,6.9423,6.9239,6.9169,6.9083,6.9121,6.9113,6.9096,6.9172,6.925,6.9051,6.9072,6.9023,6.9106,6.924,6.9114,6.8944,6.8473,6.7855,6.7839,6.7993,6.9024,7.1775,7.5674,7.7633,7.5687,7.1109,6.6819,6.6577,6.7138,6.7261,6.798,6.7817,6.7914,6.8267,6.8924,6.9378,6.9291,6.9353,6.9367,6.9325,6.9278,6.9509,6.9441,6.9423,6.938,6.949,6.9527,6.9623,6.9628,6.9651,6.9645,6.9757,6.9758,6.981,6.9864,7.0103,7.0058,7.0034,7.004,7.0114,7.012,7.0234,7.0357,7.0487,7.0532,7.0561,7.065,7.0816,7.0898,7.1004,7.1197,7.1138,7.1152,7.1367,7.1492,7.1547,7.1668,7.1802,7.1946,7.2096,7.2244,7.2175,7.2278,7.2623,7.259,7.2452,7.2354,7.2301,7.2201,7.2085,7.1781,7.1664,7.1345,7.1081,7.0885,7.0618,7.0419,7.0041,6.9893,6.9709,6.9562,6.9431,6.9379,6.9259,6.9233,6.9304,6.9211,6.9026,6.9056,6.9097,6.9112,6.8972,6.8959,6.9018,6.9009,6.9004,6.9049,6.9041,6.9143,6.8939,6.895,6.8963,6.898,6.9061,6.9136,6.9149,6.905,6.9129,6.9298,6.9255,6.9129,6.9118,6.9123,6.9123,6.9181,6.9206,6.9251,6.916,6.9131,6.92,6.9212,6.9257,6.9166,6.9303,6.9196,6.9109,6.9141,6.9153,6.9167,6.9112,6.9156,6.9205,6.9333,6.9121,6.9097,6.9176,6.9164,6.9094,6.9136,6.9107,6.9117,6.9164,6.9155,6.9157,6.914,6.9192,6.9139,6.9261,6.9318,6.9113,6.9134,6.9158,6.9138,6.9178,6.9324,6.9208,6.9159,6.9128,6.9137,6.9144,6.9168,6.9188,6.916,6.9131,6.9139,6.9188,6.9202,6.9198,6.9125,6.9096,6.9161,6.9245,6.917,6.9147,6.9152,6.9155,6.9273,6.9266,6.902,6.9059,6.905,6.9193,6.9282,6.9097,6.9073,6.9133,6.9154,6.9149,6.9247,6.9207,6.9177,6.9194,6.9327,6.9418,6.9256,6.9363,6.967,7.0115,7.0229,6.9892,6.9707,6.96,6.9566,6.9634,6.9586,6.9309,6.9193,6.8958,6.898,6.9189,6.8994,6.9007,6.8993,6.9111,6.894,6.8952,6.9012,6.9062,6.9026,6.8952,6.8853,6.8396,6.7751,6.7594,6.7742,6.8115,6.9596,7.2925,7.6415,7.7145,7.4281,6.9562,6.6822,6.7179,6.748,6.7567,6.8094,6.8079,6.8484,6.9181,6.9269,6.9234,6.9224,6.9166,6.9228,6.92,6.9212,6.9245,6.9323,6.9368,6.9417,6.9434,6.943,6.9474,6.9559,6.9596,6.9589,6.9759,6.971,6.9734,6.982,6.9863,6.9842,6.9806,6.9986,7.023,7.0136,7.0179,7.0236,7.0339,7.0503,7.0479,7.0595,7.0742,7.0862,7.0966,7.1088,7.1173,7.1385,7.1539,7.1622,7.166,7.18,7.1915,7.2199,7.2137,7.2249,7.2342,7.2433,7.2485,7.2487,7.2599,7.2458,7.2153,7.1947,7.1715,7.1419,7.1099,7.0781,7.0573,7.0316,7.0043,6.9937,6.9796,6.9657,6.9437,6.9297,6.9162,6.9114,6.9221,6.9004,6.8918,6.8863,6.8897,6.8912,6.895,6.8842,6.8772,6.8893,6.8912,6.8788,6.8818,6.8727,6.8745,6.8778,6.8819,6.8803,6.8796,6.8795,6.8744,6.877,6.8816,6.8803,6.8809,6.8788,6.8825,6.8911,6.8932,6.8754,6.8757,6.8851,6.8894,6.883,6.8771,6.8969,6.9011,6.8836,6.8818,6.8847,6.8783,6.8884,6.8943,6.8921,6.8873,6.8765,6.8794,6.8878,6.8859,6.8866,6.888,6.8837,6.8731,6.8857,6.8834,6.8833,6.8864,6.8784,6.8836,6.9009,6.8827,6.8797,6.8846,6.8897,6.8898,6.8848,6.883,6.8866,6.8924,6.8871,6.8842,6.8853,6.8831,6.9011,6.8902,6.8679,6.8791,6.8809,6.885,6.8889,6.8775,6.8708,6.8751,6.8983,6.8908,6.8762,6.8731,6.8807,6.8833,6.8808,6.878,6.8705,6.8727,6.8777,6.8839,6.8814,6.8747,6.8685,6.8702,6.8693,6.8793,6.8737,6.8632,6.8659,6.8764,6.8661,6.8667,6.8701,6.8795,6.8976,6.8852,6.871,6.8855,6.8856,6.8923,6.9128,6.9496,6.9776,6.9542,6.9386,6.9271,6.9039,6.9032,6.9018,6.8995,6.8828,6.857,6.8647,6.8585,6.8545,6.8571,6.8462,6.8602,6.8672,6.8543,6.8499,6.8518,6.8514,6.8496,6.8498,6.8309,6.7459,6.7028,6.7027,6.7788,6.9424,7.2832,7.476,7.6468,7.5042,7.0485,6.6872,6.6664,6.7203,6.6887,6.765,6.7269,6.7877,6.8478,6.888,6.8675,6.8684,6.8605,6.8667,6.8685,6.8789,6.8745,6.8773,6.8709,6.8823,6.8887,6.8947,6.8886,6.8988,6.9042,6.9126,6.9152,6.9229,6.9245,6.9232,6.9248,6.94,6.9408,6.9486,6.9517,6.9624,6.9682,6.9734,6.9752,7.0046,7.0075,7.0118,7.0202,7.0303,7.0401,7.0561,7.0773,7.0913,7.0915,7.1025,7.1246,7.1526,7.1582,7.1544,7.1724,7.1796,7.1972,7.2054,7.2151,7.2061,7.2167,7.2309,7.2012,7.1736,7.146,7.1199,7.097,7.061,7.0457,7.0081,6.9667,6.9396,6.9367,6.9366,6.9401,6.9161,6.8945,6.903,6.8646,6.8331,6.8372,6.8352,6.852,6.8444,6.8473,6.8391,6.847,6.8454,6.8535,6.8432,6.8471,6.8454,6.8552,6.8534,6.8591,6.8543,6.8601,6.8521,6.8547,6.8524,6.8567,6.8497,6.86,6.8739,6.8783,6.8559,6.8462,6.8548,6.8606,6.8633,6.8634,6.857,6.8628,6.8636,6.8637,6.8624,6.8641,6.859,6.863,6.8619,6.8594,6.8562,6.8548,6.8556,6.8566,6.8559,6.8504,6.8501,6.8642,6.8699,6.8515,6.8479,6.844,6.8497,6.8595,6.8643,6.8394,6.8417,6.8493,6.8508,6.847,6.8402,6.8436,6.85,6.8529,6.8488,6.8443,6.8389,6.8472,6.85,6.8436,6.8441,6.8328,6.8434,6.8623,6.8483,6.8344,6.8357,6.8394,6.848,6.864,6.8552,6.8305,6.8371,6.8402,6.8488,6.8388,6.8341,6.8332,6.839,6.8402,6.8415,6.8329,6.8349,6.8343,6.8319,6.8388,6.8558,6.8378,6.8446,6.8443,6.8376,6.8367,6.8644,6.8577,6.8424,6.8566,6.8843,6.9254,6.9322,6.9249,6.9005,6.8833,6.8711,6.8729,6.8663,6.8582,6.8273,6.8179,6.8412,6.8316,6.8165,6.8112,6.8146,6.8174,6.83,6.8282,6.8102,6.8063,6.8055,6.8211,6.8257,6.7962,6.7212,6.6807,6.6894,6.7563,6.9408,7.2952,7.6042,7.614,7.1726,6.691,6.5,6.579
