8.9651,8.953,8.9664,8.97,8.9671,8.9638,8.9609,8.9571,8.9592,8.9618,8.9619,8.9668,8.9601,8.9625,8.9773,8.9781,8.9774,8.9733,8.9716,8.9768,8.9708,8.9692,8.9712,8.988,8.9775,8.9799,8.9752,8.9687,8.9817,8.9819,8.9796,8.9747,8.9795,8.9793,8.9722,8.969,8.9723,8.9759,8.9792,8.9629,8.9613,8.946,8.949,8.9547,8.973,8.9639,8.9449,8.9444,8.9358,8.9345,8.9341,8.9345,8.9386,8.9428,8.9439,8.9438,8.9416,8.9467,8.9637,8.9674,8.9532,8.9369,8.9303,8.9421,8.9433,8.939,8.9301,8.9281,8.927,8.9344,8.9354,8.9277,8.9249,8.9271,8.9275,8.9253,8.9169,8.9195,8.9218,8.923,8.9224,8.9215,8.9182,8.927,8.9411,8.9442,8.9262,8.9075,8.9125,8.9116,8.9159,8.9165,8.9104,8.9075,8.9144,8.9235,8.9242,8.9241,8.9166,8.9202,8.9301,8.9301,8.9109,8.9094,8.914,8.9254,8.9325,8.9307,8.9276,8.9363,8.9497,8.9452,8.9486,8.9551,8.95,8.9615,8.9661,8.9901,9.0092,9.0095,8.9936,8.9885,8.9868,8.9769,8.9576,8.9576,8.9409,8.9309,8.9393,8.934,8.9436,8.9355,8.9167,8.9094,8.9182,8.9203,8.902,8.7955,8.6271,8.5583,8.6341,8.8689,9.2431,9.6901,10.21,10.529,10.629,10.302,9.7115,9.1912,9.1146,9.036,8.985,8.9725,8.9313,8.9787,8.9691,8.9926,8.9692,8.9762,8.9613,8.9686,8.9596,8.9743,8.9623,8.9733,8.9716,8.9773,8.9755,8.9811,8.9758,8.9866,8.9851,8.987,8.9723,8.9889,9.0015,9.0136,9.015,9.0285,9.0369,9.0518,9.0501,9.0479,9.0547,9.0893,9.1174,9.1184,9.1107,9.1217,9.1328,9.1606,9.167,9.1955,9.2083,9.2303,9.2525,9.2755,9.3054,9.3231,9.3411,9.3743,9.3998,9.4129,9.4284,9.4478,9.4722,9.4737,9.4794,9.4912,9.4961,9.4766,9.4466,9.4015,9.3672,9.3361,9.3068,9.2707,9.2225,9.1806,9.1407,9.1087,9.0892,9.0552,9.0253,8.9959,8.9778,8.9724,8.967,8.9596,8.9523,8.9381,8.9474,8.932,8.9198,8.9244,8.9247,8.9277,8.9315,8.9263,8.9222,8.9195,8.9288,8.9214,8.9275,8.9248,8.9347,8.9371,8.9446,8.9399,8.9373,8.9343,8.9423,8.9437,8.9388,8.9346,8.947,8.9547,8.9552,8.9504,8.9474,8.9414,8.9414,8.9479,8.9464,8.9388,8.9415,8.9462,8.9515,8.9455,8.933,8.9226,8.932,8.9304,8.9324,8.9239,8.912,8.9111,8.917,8.9067,8.8998,8.9003,8.9079,8.9151,8.9125,8.9062,8.9071,8.9105,8.9182,8.9081,8.9085,8.9025,8.9003,8.9137,8.915,8.9144,8.9112,8.9101,8.9094,8.911,8.903,8.8996,8.8965,8.9006,8.8942,8.8945,8.8905,8.8913,8.906,8.909,8.9087,8.9083,8.9157,8.9256,8.9179,8.9061,8.9025,8.8962,8.9041,8.9026,8.8991,8.9039,8.9104,8.9212,8.9209,8.9137,8.909,8.9133,8.9254,8.9256,8.9107,8.9054,8.9086,8.9081,8.9097,8.9072,8.896,8.8944,8.8982,8.9031,8.8963,8.8983,8.9028,8.9196,8.9225,8.9222,8.9142,8.9197,8.9369,8.9363,8.9313,8.9543,8.9728,8.9687,8.9628,8.9754,8.9734,8.9574,8.9376,8.9167,8.8872,8.8793,8.8884,8.8995,8.9041,8.8951,8.8869,8.88,8.8814,8.8861,8.8656,8.7563,8.5896,8.5386,8.615,8.872,9.2687,9.7634,10.296,10.604,10.639,10.287,9.6534,9.1842,9.0424,9.0132,8.9696,8.9324,8.9238,8.9382,8.9399,8.9353,8.9143,8.9167,8.9244,8.9366,8.9253,8.9269,8.9267,8.9305,8.9414,8.9386,8.9481,8.9557,8.9622,8.9684,8.9488,8.9543,8.9529,8.9673,8.98,8.9837,8.9887,9.0013,9.0058,9.01,9.0098,9.0162,9.0315,9.0513,9.061,9.0839,9.0965,9.1166,9.139,9.1442,9.1478,9.1641,9.1819,9.2195,9.2475,9.258,9.2854,9.3212,9.3351,9.3461,9.3721,9.3866,9.3993,9.4158,9.4351,9.4599,9.4728,9.4645,9.4629,9.444,9.4306,9.3962,9.3783,9.3523,9.3216,9.2694,9.2181,9.1768,9.1386,9.0971,9.0697,9.0475,9.0102,8.9894,8.9895,8.9808,8.9602,8.9446,8.9514,8.948,8.9419,8.9384,8.9252,8.9329,8.9369,8.9397,8.934,8.9164,8.9195,8.927,8.9358,8.939,8.9499,8.9481,8.9404,8.9391,8.9394,8.9412,8.9427,8.946,8.9575,8.9611,8.9659,8.9646,8.9667,8.9626,8.9615,8.9595,8.9731,8.9783,8.9781,8.96,8.9479,8.9647,8.9791,8.974,8.9601,8.9566,8.9573,8.9557,8.9505,8.949,8.9546,8.9509,8.9463,8.9505,8.9522,8.942,8.9491,8.9536,8.9581,8.9489,8.9453,8.9446,8.9415,8.9499,8.9557,8.9613,8.9613,8.9461,8.947,8.9459,8.9413,8.9491,8.9593,8.9635,8.9577,8.9432,8.9421,8.9465,8.956,8.9711,8.9725,8.9691,8.9629,8.962,8.9573,8.9525,8.9452,8.9602,8.9787,9,8.9912,8.966,8.9544,8.9629,8.9642,8.9601,8.9561,8.9547,8.9702,8.9876,8.9766,8.9563,8.9584,8.9726,8.9756,8.978,8.9659,8.9558,8.9689,8.9969,8.994,8.9683,8.9509,8.9501,8.9627,8.9637,8.9723,8.9718,8.9774,8.9877,8.9889,8.9906,8.9919,8.9949,9.013,9.0483,9.0554,9.0372,9.0161,9.0324,9.0428,9.0163,8.9972,8.9877,8.9845,8.9738,8.9638,8.979,8.9675,8.965,8.9625,8.9533,8.9567,8.9523,8.9397,8.8345,8.6557,8.5924,8.6559,8.918,9.3349,9.8329,10.393,10.71,10.788,10.461,9.8142,9.2986,9.1431,9.1047,9.0636,9.0419,9.0299,9.0386,9.0375,9.0353,9.0231,9.0157,9.0127,9.0233,9.0275,9.0285,9.0056,9.0142,9.025,9.0333,9.0373,9.0347,9.0487,9.0689,9.0727,9.0649,9.0597,9.0624,9.0653,9.079,9.083,9.0877,9.102,9.1267,9.1476,9.1453,9.1441,9.1516,9.165,9.1876,9.1986,9.2051,9.2126,9.2368,9.2568,9.284,9.2906,9.3033,9.3196,9.3462,9.3881,9.4024,9.417,9.4405,9.4678,9.4951,9.5154,9.5278,9.5427,9.5591,9.5692,9.5596,9.5435,9.5302,9.5186,9.508,9.4728,9.4344,9.3923,9.3481,9.3091,9.2737,9.2271,9.1904,9.1631,9.1381,9.1131,9.0813,9.0632,9.0489,9.0438,9.0392,9.027,9.015,9.0181,9.0217,9.0282,9.0215,9.0034,8.9989,9.0076,9.0194,9.0023,8.9921,8.9964,9.0023,9.0116,9.0152,9.018,9.0221,9.0356,9.0425,9.0325,9.0249,9.0213,9.0227,9.0367,9.0328,9.0344,9.0309,9.0336,9.035,9.0304,9.0226,9.0208,9.026,9.0309,9.0243,9.0159,9.0157,9.0157,9.0148,9.0117,9.0061,9.0076,9.0166,9.0263,9.0143,8.9933,8.9991,9.005,9.0075,9.0006,8.9933,8.9817,8.9921,8.9918,8.995,8.9915,8.9811,8.9899,9.001,8.9934,8.9859,8.9859,8.988,9.0013,9.0069,9.0074,8.9979,8.9811,8.9859,8.9967,8.9908,8.995,8.994,8.9944,8.9941,8.9798,8.9718,8.975,8.9803,8.9885,8.9911,8.9789,8.9687,8.9739,8.9817,8.9732,8.9625,8.9633,8.9671,8.9817,8.9795,8.9776,8.9716,8.967,8.9525,8.9489,8.9473,8.9468,8.9557,8.9665,8.9695,8.9682,8.9656,8.9674,8.9723,8.9632,8.9492,8.9464,8.9527,8.9573,8.9475,8.9457,8.9479,8.9584,8.9712,8.9769,8.9847,8.9833,8.9798,8.9977,9.0238,9.0224,9.0205,9.0091,9.0181,9.0081,8.9862,8.9718,8.9615,8.96,8.9507,8.9465,8.9377,8.9306,8.9389,8.9392,8.9458,8.9389,8.9284,8.9036,8.7685,8.5975,8.5507,8.671,8.9977,9.4114,9.8982,10.366,10.637,10.593,10.214,9.5559,9.1583,9.0677,9.0384,9.0239,8.9661,8.9901,8.9872,8.9989,9.0085,9.0095,8.9784,8.9718,8.9729,8.9881,8.9896,8.9906,8.9948,8.9958,9.0056,9.009,9.0021,9.0119,9.0153,9.0355,9.0409,9.0393,9.0385,9.0479,9.0633,9.0736,9.0731,9.0879,9.0889,9.0962,9.1187,9.1203,9.1202,9.1364,9.154,9.174,9.1874,9.2103,9.2338,9.2639,9.2862,9.3035,9.3118,9.3258,9.3596,9.3926,9.4236,9.4403,9.4545,9.4814,9.5036,9.5234,9.5402,9.5345,9.5529,9.5602,9.5584,9.5457,9.5377,9.5242,9.4881,9.4649,9.4301,9.3804,9.3526,9.3153,9.2637,9.1986,9.1616,9.1347,9.1207,9.1006,9.0751,9.0656,9.0479,9.0309,9.0247,9.0106,9.0044,9.0118,9.0158,9.0097,9.0089,9.0009,9.0183,9.0324,9.033,9.0244,9.0215,9.0139,9.0325,9.0247,9.0213,9.0161,9.0345,9.041,9.0415,9.0338,9.0251,9.0316,9.0319,9.0334,9.0226,9.0212,9.0293,9.0328,9.0403,9.0336,9.0252,9.0296,9.0222,9.02,9.0081,9.0039,9.0064,9.0109,9.0131,9.0109,9.0068,8.996,8.9937,9.0027,8.9978,8.99,8.9886,8.99,9.0013,8.9919,8.9872,8.9886,8.9971,8.9988,9.004,9,8.9985,8.9972,8.9865,8.9857,8.9845,8.9903,8.9961,9.0025,9.0053,8.9888,8.9745,8.9819,8.9969,9.001,8.9954,8.9862,8.981,8.9875,8.9829,8.989,8.9963,9.0023,8.9922,8.9882,8.9881,8.9861,8.993,8.9976,8.9997,8.9865,8.981,8.991,9.0004,8.9939,8.9916,8.988,9.0042,9.0175,9.015,8.9981,8.9847,8.9768,8.9887,9.0052,9.0005,8.9999,8.9967,9.0102,9.0037,9.0059,8.9877,8.9933,9.0054,9.0135,8.9968,9.0035,9.0166,9.0329,9.0309,9.0267,9.0354,9.0557,9.0725,9.0732,9.0506,9.0502,9.0468,9.0452,9.0345,9.014,9.0066,8.9897,8.9877,8.9995,8.9939,8.9795,8.9781,8.9705,8.9748,8.9794,8.936,8.7727,8.6361,8.6271,8.6772,8.9189,9.3098,9.7728,10.28,10.581,10.667,10.337,9.7449,9.2312,9.1089,9.0586,9.0338,9.0176,9.0147,9.0374,9.0189,9.0249,9.0179,9.0425,9.0337,9.04,9.0356,9.0449,9.0345,9.0558,9.0376,9.0364,9.038,9.0681,9.0668,9.0658,9.0601,9.0699,9.0775,9.0846,9.0844,9.0906,9.1018,9.1193,9.1251,9.1227,9.1221,9.1413,9.1584,9.1813,9.1813,9.1854,9.1919,9.2205,9.2453,9.2671,9.2783,9.2957,9.3147,9.3462,9.3573,9.3818,9.4099,9.4341,9.4684,9.4954,9.5126,9.5297,9.5411,9.5577,9.5653,9.5703,9.5732,9.5747,9.5719,9.5615,9.5431,9.5085,9.4733,9.4305,9.381,9.3384,9.2965,9.2733,9.2479,9.2166,9.1847,9.1515,9.1406,9.1119,9.0939,9.0834,9.0694,9.0586,9.052,9.0397,9.0381,9.0291,9.0368,9.0362,9.0485,9.0446,9.046,9.0366,9.03,9.0349,9.0549,9.0469,9.0396,9.0387,9.0535,9.0446,9.0481,9.0496,9.0552,9.0624,9.0622,9.0416,9.0602,9.0674,9.0708,9.0598,9.0613,9.0513,9.0495,9.0567,9.0573,9.0544,9.0579,9.0519,9.0419,9.0256,9.0167,9.0145,9.0243,9.0341,9.0346,9.0326,9.0278,9.0235,9.0299,9.0257,9.0197,9.0061,9.0139,9.0213,9.0217,9.0046,9.0009,9.0225,9.0357,9.0347,9.0119,8.9913,8.9957,9.0041,9.003,8.9978,9.0063,9.0151,9.0107,9.0158,9.0172,9.0151,9.0073,9.0205,9.0292,9.0216,9.0149,9.0073,9.013,9.0298,9.0195,8.9989,8.9952,8.9959,9.0085,9.0086,8.9926,8.9948,9.0045,9.0085,9.0031,8.982,8.9819,8.9901,8.9962,9.0054,9.0123,9.0179,9.0165,9.0015,8.9977,8.9902,8.986,8.9907,8.9967,9.0072,9.008,9.0098,9.0078,9.0087,9.0125,9.0154,9.0072,9.013,9.0071,9.0189,9.0181,9.0135,9.0195,9.0314,9.0344,9.0482,9.0443,9.0353,9.0533,9.086,9.0836,9.0723,9.0614,9.082,9.0702,9.0615,9.0486,9.0307,9.0195,9.0224,9.0075,9.0064,9.0023,9.0119,9.0149,9.0128,9.0146,9.0059,8.9533,8.7804,8.632,8.607,8.6789,8.9481,9.3531,9.8259,10.336,10.642,10.71,10.397,9.7889,9.2881,9.16,9.1243,9.0857,9.0449,9.0399,9.0564,9.0578,9.0706,9.0444,9.048,9.0348,9.0505,9.0449,9.0548,9.0502,9.0602,9.0502,9.0561,9.0706,9.0862,9.0873,9.1024,9.1057,9.106,9.0927,9.0998,9.1033,9.1232,9.1368,9.1416,9.1379,9.1501,9.1612,9.1808,9.1803,9.1959,9.1981,9.2189,9.2303,9.2286,9.2363,9.2653,9.299,9.3289,9.3537,9.3551,9.3759,9.4088,9.4254,9.4401,9.4602,9.4746,9.5147,9.5426,9.5571,9.5533,9.5623,9.5812,9.5974,9.5937,9.5891,9.5752,9.5704,9.5455,9.5167,9.4618,9.4226,9.3678,9.3495,9.3126,9.2714,9.24,9.2175,9.1936,9.1581,9.125,9.1035,9.0844,9.0753,9.0671,9.058,9.0506,9.0593,9.0636,9.0642,9.0547,9.05,9.0487,9.0472,9.0541,9.0573,9.0576,9.0598,9.0574,9.0638,9.066,9.0702,9.064,9.069,9.0613,9.056,9.0492,9.0541,9.0526,9.0553,9.049,9.0544,9.056,9.0685,9.0806,9.0784,9.0652,9.0592,9.0708,9.0798,9.0821,9.0645,9.0669,9.0712,9.0636,9.0538,9.0467,9.0518,9.0579,9.0681,9.0678,9.0603,9.0505,9.0525,9.0399,9.0327,9.0334,9.0399,9.0506,9.0612,9.0516,9.0327,9.0277,9.0316,9.039,9.0389,9.0323,9.0393,9.0513,9.0672,9.0629,9.0544,9.0506,9.0454,9.0442,9.0429,9.0399,9.0313,9.0375,9.0343,9.0468,9.0472,9.058,9.0493,9.046,9.0388,9.0287,9.0233,9.0254,9.0371,9.043,9.0399,9.0316,9.0279,9.0262,9.04,9.0475,9.0355,9.033,9.0286,9.0308,9.0336,9.0255,9.0289,9.0286,9.0244,9.0156,9.0177,9.0169,9.0165,9.0215,9.0262,9.0203,9.0202,9.0273,9.0309,9.0284,9.0305,9.0309,9.03,9.0536,9.0625,9.067,9.0572,9.0442,9.0397,9.0447,9.0446,9.0596,9.0976,9.1097,9.1156,9.0895,9.0755,9.0888,9.0986,9.0809,9.0518,9.0453,9.0398,9.0395,9.0383,9.0273,9.0182,9.024,9.0314,9.0338,9.0239,9.009,8.9287,8.8351,8.7003,8.6713,8.7726,9.1139,9.5236,10.064,10.522,10.784,10.678,10.24,9.5866,9.2571,9.1727,9.1209,9.1095,9.0728,9.1027,9.0784,9.0983,9.0737,9.0877,9.0766,9.092,9.0664,9.0839,9.0713,9.0802,9.0601,9.0801,9.0768,9.0986,9.0837,9.0924,9.0984,9.1201,9.1228,9.1373,9.1349,9.1407,9.1479,9.164,9.1455,9.1676,9.1803,9.1871,9.2015,9.2142,9.2209,9.2391,9.2528,9.2631,9.27,9.2806,9.2977,9.323,9.3531,9.3807,9.3945,9.408,9.428,9.4605,9.4968,9.506,9.5277,9.5451,9.5742,9.5969,9.6108,9.6221,9.6431,9.6466,9.6603,9.63,9.5928,9.573,9.5528,9.5118,9.4917,9.4371,9.3916,9.3514,9.3186,9.281,9.2532,9.2221,9.1973,9.1747,9.1513,9.1243,9.1168,9.1098,9.118,9.1029,9.0918,9.0776,9.0794,9.0776,9.0759,9.0689,9.0738,9.0779,9.0818,9.0779,9.0742,9.0682,9.0779,9.079,9.0893,9.0919,9.0936,9.0866,9.0956,9.1052,9.1182,9.0983,9.082,9.0776,9.1012,9.0964,9.0928,9.093,9.0994,9.1007,9.1017,9.0989,9.0867,9.0848,9.0945,9.0988,9.0934,9.0954,9.1001,9.1135,9.1075,9.0918,9.0772,9.0719,9.08,9.0819,9.0787,9.0775,9.0763,9.0759,9.0717,9.0684,9.0776,9.0872,9.0847,9.0652,9.0529,9.0495,9.0534,9.0786,9.076,9.0669,9.0602,9.0491,9.0484,9.0514,9.0448,9.0426,9.0419,9.06,9.0604,9.0546,9.0449,9.0522,9.0509,9.052,9.0486,9.0381,9.0382,9.0421,9.049,9.0572,9.0566,9.0506,9.046,9.0499,9.048,9.0461,9.0488,9.0605,9.0662,9.0544,9.0511,9.0587,9.0515,9.0639,9.0626,9.0611,9.0679,9.0773,9.0687,9.0634,9.0474,9.05,9.0626,9.0757,9.0743,9.0715,9.0619,9.0592,9.0635,9.0747,9.0674,9.0672,9.074,9.0771,9.0609,9.0532,9.061,9.0697,9.0772,9.0794,9.0854,9.0923,9.1035,9.0991,9.0891,9.1063,9.1304,9.1489,9.1428,9.1213,9.1209,9.1074,9.0989,9.0965,9.082,9.0554,9.0464,9.0573,9.063,9.0582,9.0439,9.0413,9.0412,9.0546,9.0639,9.0249,8.8974,8.7265,8.6901,8.7906,9.0824,9.4858,9.9927,10.513,10.814,10.815,10.434,9.7769,9.4777,9.287,9.1916,9.1803,9.1076,9.1395,9.1217,9.1287,9.1087,9.1083,9.104,9.1104,9.0969,9.1019,9.0935,9.0996,9.1048,9.1224,9.1159,9.1105,9.1049,9.122,9.1136,9.1214,9.1279,9.1401,9.1545,9.1612,9.1499,9.1478,9.1456,9.1721,9.1892,9.2056,9.1956,9.1997,9.224,9.2371,9.24,9.2496,9.266,9.2933,9.31,9.3128,9.3293,9.344,9.3697,9.3995,9.4151,9.4368,9.467,9.496,9.5251,9.5335,9.5598,9.5773,9.5985,9.6027,9.6109,9.6139,9.6226,9.6336,9.62,9.591,9.5642,9.5323,9.4946,9.4522,9.3992,9.3614,9.3251,9.2897,9.2607,9.2161,9.1745,9.1473,9.129,9.1143,9.1055,9.0941,9.0932,9.0905,9.0848,9.0761,9.0606,9.0438,9.0449,9.0432,9.0594,9.0507,9.0518,9.05,9.0615,9.066,9.0667,9.0628,9.0694,9.0631,9.0686,9.0584,9.0675,9.0641,9.073,9.0797,9.0726,9.0664,9.0618,9.0711,9.0679,9.0571,9.0663,9.0728,9.0829,9.0797,9.0761,9.0611,9.0655,9.0713,9.0789,9.0778,9.0701,9.0571,9.0568,9.062,9.0536,9.055,9.0448,9.0519,9.0494,9.0455,9.0361,9.0386,9.0404,9.0395,9.034,9.0355,9.0448,9.0396,9.0506,9.0445,9.0352,9.0399,9.0487,9.0544,9.0581,9.059,9.0392,9.0281,9.0495,9.041,9.0427,9.0413,9.0393,9.0349,9.0421,9.0366,9.0485,9.0508,9.0497,9.0553,9.046,9.041,9.0477,9.054,9.0583,9.0571,9.0542,9.0655,9.075,9.0683,9.0581,9.0453,9.0494,9.0694,9.0613,9.048,9.0437,9.0591,9.0604,9.051,9.0389,9.0355,9.036,9.0534,9.054,9.0544,9.0415,9.0416,9.0466,9.0656,9.0525,9.0484,9.0489,9.0459,9.0518,9.0552,9.049,9.051,9.045,9.0506,9.0549,9.0601,9.0577,9.0591,9.0607,9.0709,9.069,9.0659,9.0747,9.0797,9.0856,9.1146,9.1268,9.1325,9.1191,9.1134,9.1199,9.1076,9.1019,9.0876,9.0737,9.0655,9.058,9.0555,9.068,9.0689,9.0566,9.0444,9.0433,9.0462,9.0396,8.9596,8.7868,8.6924,8.7473,8.8197,9.128,9.5291,10.045,10.489,10.756,10.652,10.216,9.5768,9.2598,9.194,9.1329,9.1258,9.0661,9.1059,9.0957,9.1247,9.0958,9.1023,9.1059,9.1329,9.1228,9.1132,9.0927,9.1151,9.1169,9.1385,9.1303,9.1445,9.1469,9.163,9.1636,9.1899,9.1693,9.1758,9.1653,9.1711,9.1823,9.1949,9.2139,9.2233,9.2298,9.2304,9.2327,9.2591,9.2714,9.2695,9.2821,9.2932,9.3159,9.3337,9.3654,9.3898,9.4049,9.4332,9.4599,9.4893,9.5057,9.5307,9.5458,9.5804,9.6072,9.6198,9.6237,9.6352,9.6662,9.6818,9.6866,9.6769,9.6808,9.6772,9.6665,9.6373,9.613,9.5751,9.5368,9.4883,9.4385,9.39,9.3788,9.3497,9.3239,9.269,9.2432,9.2254,9.2107,9.1981,9.1802,9.1573,9.1497,9.1532,9.1578,9.1414,9.1433,9.1464,9.1378,9.1255,9.1321,9.1269,9.1311,9.1335,9.1366,9.1405,9.1488,9.1445,9.1538,9.1593,9.1728,9.1692,9.1676,9.1601,9.1692,9.1662,9.1691,9.1556,9.1543,9.159,9.1783,9.176,9.1713,9.1582,9.1678,9.1788,9.1692,9.1621,9.1672,9.1699,9.164,9.1433,9.1325,9.1336,9.1468,9.1445,9.1561,9.1514,9.1423,9.1392,9.1266,9.1205,9.1184,9.1223,9.1236,9.1314,9.133,9.1253,9.1206,9.1321,9.1341,9.1324,9.1337,9.1218,9.1189,9.1124,9.1059,9.1086,9.1109,9.1143,9.1283,9.1213,9.1144,9.1046,9.1013,9.113,9.1166,9.1118,9.1162,9.1221,9.1267,9.1279,9.1228,9.1068,9.1118,9.1282,9.1433,9.1325,9.1228,9.1122,9.1063,9.1243,9.117,9.1133,9.1034,9.1008,9.1105,9.1146,9.1069,9.1017,9.1043,9.1128,9.1083,9.1118,9.1148,9.121,9.1186,9.1137,9.111,9.1154,9.1312,9.1282,9.104,9.0996,9.0884,9.1015,9.1007,9.1062,9.1124,9.128,9.1353,9.1399,9.1329,9.1219,9.1357,9.1826,9.2031,9.1939,9.1743,9.1813,9.1833,9.185,9.1632,9.1492,9.1139,9.0898,9.0852,9.0953,9.08,9.0901,9.093,9.1019,9.1026,9.1031,9.0821,8.9478,8.781,8.7302,8.8186,8.9398,9.3191,9.7551,10.272,10.626,10.822,10.599,10.066,9.4577,9.254,9.1933,9.1344,9.14,9.1079,9.1511,9.1228,9.1564,9.1347,9.1577,9.1309,9.1483,9.1257,9.1613,9.1598,9.1774,9.144,9.1672,9.1635,9.1813,9.1697,9.1943,9.189,9.2068,9.21,9.2058,9.1828,9.1935,9.2071,9.2303,9.219,9.2251,9.2222,9.2346,9.2501,9.269,9.2677,9.2911,9.3194,9.3294,9.3355,9.3494,9.3538,9.3818,9.4077,9.4291,9.4507,9.4737,9.5054,9.5186,9.5413,9.564,9.5771,9.5943,9.6182,9.6446,9.6582,9.6619,9.675,9.6673,9.6742,9.6608,9.6424,9.6118,9.5842,9.5438,9.5038,9.4654,9.4383,9.4115,9.3815,9.3314,9.2908,9.2609,9.2565,9.2172,9.1997,9.1718,9.1754,9.1731,9.182,9.1418,9.14,9.1308,9.1465,9.1474,9.143,9.1194,9.1311,9.1283,9.1464,9.1571,9.1464,9.1328,9.1478,9.1527,9.1608,9.1456,9.1428,9.1435,9.1593,9.1596,9.1563,9.1461,9.1485,9.1632,9.1731,9.1643,9.1621,9.1584,9.1614,9.164,9.1576,9.1493,9.1609,9.1667,9.1712,9.1713,9.1607,9.1654,9.1658,9.154,9.138,9.1286,9.1413,9.148,9.1369,9.1222,9.1198,9.1255,9.135,9.1315,9.1191,9.1192,9.1309,9.1294,9.1304,9.1243,9.1198,9.1187,9.1312,9.1314,9.1236,9.1239,9.1168,9.1202,9.1156,9.1138,9.1243,9.1218,9.1239,9.1183,9.1182,9.1104,9.1132,9.1259,9.1313,9.122,9.1056,9.1063,9.1239,9.1324,9.1345,9.1173,9.1179,9.1167,9.1207,9.1195,9.12,9.1216,9.1337,9.145,9.1384,9.1279,9.1223,9.1384,9.1451,9.136,9.1285,9.1353,9.1286,9.1445,9.1467,9.1369,9.12,9.1284,9.1357,9.1401,9.1393,9.1333,9.1313,9.1402,9.146,9.1474,9.137,9.1315,9.1289,9.1393,9.138,9.1386,9.1304,9.1482,9.1602,9.172,9.1617,9.1604,9.1567,9.1595,9.1781,9.2093,9.2114,9.2072,9.1959,9.2081,9.1975,9.1822,9.1673,9.156,9.1402,9.1253,9.1316,9.1416,9.148,9.1493,9.1453,9.1372,9.1311,9.1309,9.0898,8.9525,8.806,8.7831,8.8885,9.2369,9.6371,10.194,10.661,10.94,10.851,10.411,9.7342,9.3787,9.2963,9.2476,9.216,9.1822,9.2163,9.2076,9.2289,9.2108,9.2078,9.1843,9.1991,9.1947,9.2074,9.186,9.1856,9.1861,9.2074,9.1947,9.2097,9.205,9.2176,9.2221,9.2261,9.2151,9.2303,9.2301,9.2466,9.2302,9.2477,9.2492,9.2713,9.2853,9.2993,9.3002,9.3047,9.3178,9.3265,9.3387,9.3526,9.3649,9.3799,9.3905,9.3965,9.4157,9.4474,9.4728,9.5084,9.5218,9.5429,9.5677,9.5926,9.6225,9.6483,9.6556,9.6721,9.6979,9.7293,9.7299,9.7278,9.7279,9.7298,9.7237,9.7112,9.6861,9.6361,9.6034,9.5654,9.5307,9.4878,9.4444,9.4055,9.3803,9.3473,9.3165,9.281,9.2485,9.2303,9.2326,9.2169,9.2169,9.1953,9.1917,9.185,9.1844,9.1782,9.1853,9.1819,9.1736,9.1542,9.1588,9.1657,9.1779,9.1724,9.1566,9.1514,9.1538,9.1637,9.1754,9.1736,9.1818,9.1858,9.1894,9.1893,9.1886,9.1863,9.1774,9.1705,9.1845,9.187,9.1893,9.1881,9.1996,9.2085,9.2035,9.1908,9.1865,9.191,9.1942,9.1862,9.1807,9.1765,9.1823,9.2014,9.2183,9.2131,9.1892,9.1747,9.1867,9.1852,9.1782,9.172,9.1872,9.1898,9.1795,9.1684,9.163,9.1737,9.1892,9.1918,9.1789,9.1711,9.1683,9.1664,9.1744,9.1725,9.1735,9.1806,9.1813,9.1844,9.1796,9.1833,9.1686,9.1569,9.158,9.1566,9.1595,9.1548,9.1516,9.1584,9.1623,9.164,9.1495,9.1501,9.1489,9.1513,9.1541,9.156,9.1509,9.164,9.16,9.1524,9.1491,9.15,9.1568,9.1566,9.1499,9.1542,9.1579,9.1604,9.1586,9.1501,9.1387,9.1443,9.1509,9.1559,9.1576,9.1611,9.1687,9.1681,9.1633,9.1617,9.1607,9.1574,9.1679,9.1664,9.1493,9.1497,9.1637,9.1733,9.1707,9.1582,9.1437,9.1487,9.1508,9.1574,9.1629,9.1739,9.1755,9.1839,9.183,9.1753,9.2087,9.2452,9.2472,9.2292,9.2274,9.2229,9.2042,9.2011,9.1934,9.1757,9.1587,9.1568,9.1619,9.1788,9.1643,9.1474,9.1397,9.1408,9.15,9.1396,9.0408,8.8599,8.7931,8.8554,9.0731,9.485,9.9546,10.265,10.707,10.979,10.83,10.409,9.7112,9.4103,9.3081,9.2726,9.2239,9.2124,9.2267,9.2416,9.2278,9.2138,9.1982,9.19,9.1946,9.188,9.2003,9.2026,9.2154,9.2138,9.2224,9.209,9.2028,9.2018,9.2125,9.2158,9.2333,9.2375,9.2416,9.2373,9.2498,9.2609,9.2747,9.2743,9.2862,9.2831,9.2981,9.2951,9.3153,9.3196,9.3279,9.3339,9.3574,9.3754,9.3962,9.4082,9.4206,9.4262,9.4589,9.4844,9.5099,9.5369,9.5528,9.577,9.6142,9.6333,9.6409,9.6578,9.6659,9.692,9.7009,9.7025,9.7119,9.7212,9.7291,9.7088,9.6661,9.6315,9.6065,9.5708,9.5332,9.4825,9.4388,9.3965,9.3635,9.3286,9.3066,9.2691,9.2497,9.2358,9.2249,9.2106,9.1887,9.1691,9.164,9.1741,9.1632,9.1553,9.157,9.1674,9.1698,9.1623,9.1502,9.1526,9.1601,9.1634,9.1564,9.1627,9.1569,9.1541,9.1567,9.1542,9.1506,9.1583,9.1594,9.1781,9.176,9.1682,9.1708,9.1739,9.176,9.1693,9.1609,9.1658,9.168,9.1782,9.1835,9.166,9.1624,9.174,9.1716,9.1737,9.162,9.1591,9.147,9.1617,9.1619,9.1491,9.1425,9.1461,9.1567,9.1504,9.145,9.1447,9.1468,9.1474,9.1454,9.1398,9.1343,9.1321,9.1369,9.1327,9.1282,9.1204,9.1211,9.1378,9.1489,9.1355,9.1207,9.1129,9.1308,9.1268,9.1112,9.1104,9.1174,9.1196,9.1247,9.1269,9.1194,9.1256,9.1344,9.1307,9.116,9.0926,9.0943,9.1082,9.1211,9.118,9.0954,9.0943,9.0974,9.1138,9.1143,9.1076,9.1031,9.0969,9.1043,9.1087,9.0933,9.0875,9.0905,9.1059,9.1149,9.1131,9.1067,9.1099,9.0948,9.1044,9.0914,9.086,9.0913,9.1057,9.1131,9.0885,9.0821,9.0812,9.0937,9.0976,9.0954,9.0866,9.0955,9.1237,9.1278,9.1133,9.1087,9.1071,9.1196,9.1433,9.1716,9.1693,9.1474,9.1464,9.164,9.1564,9.1422,9.1096,9.0924,9.0834,9.0822,9.0775,9.087,9.0894,9.0932,9.0744,9.0752,9.0778,9.0679,9.024,8.8489,8.7207,8.744,8.935,9.3237,9.521,9.9844,10.46,10.725,10.729,10.334,9.7161,9.272,9.1933,9.1434,9.1428,9.0897,9.1106,9.119,9.15,9.149,9.1409,9.1239,9.125,9.1277,9.123,9.1288,9.1376,9.1517,9.1783,9.1705,9.1724,9.1634,9.1752,9.187,9.1852,9.1751,9.1848,9.195,9.2045,9.2196,9.2305,9.2348,9.2422,9.2504,9.2598,9.2586,9.266,9.2787,9.3031,9.3281,9.3351,9.343,9.3676,9.3837,9.4048,9.4244,9.4436,9.4803,9.4969,9.5285,9.5437,9.5664,9.5796,9.6097,9.6386,9.6445,9.6525,9.6729,9.6991,9.7111,9.708,9.7057,9.7016,9.7033,9.688,9.6472,9.5956,9.5555,9.5168,9.4854,9.4413,9.3944,9.3774,9.342,9.3183,9.2824,9.2399,9.2031,9.1885,9.1824,9.1784,9.1793,9.1666,9.1685,9.1604,9.161,9.1546,9.1475,9.1527,9.1655,9.1583,9.1574,9.149,9.1532,9.1555,9.1573,9.1575,9.1611,9.1605,9.1621,9.1777,9.182,9.1644,9.17,9.1719,9.1739,9.1696,9.1723,9.1687,9.1803,9.1804,9.182,9.1822,9.1737,9.1761,9.1763,9.1738,9.1645,9.1691,9.1585,9.1625,9.1602,9.1509,9.1472,9.1439,9.1529,9.1525,9.1405,9.1383,9.1515,9.1459,9.1382,9.1389,9.1365,9.1426,9.1468,9.1476,9.1399,9.1361,9.1406,9.148,9.1484,9.1309,9.1251,9.142,9.1435,9.1429,9.1386,9.1371,9.1298,9.1341,9.1339,9.1298,9.1293,9.1415,9.1433,9.129,9.1215,9.1246,9.1331,9.1479,9.1398,9.1355,9.1262,9.124,9.1194,9.1253,9.1239,9.1259,9.1326,9.1381,9.149,9.1377,9.1209,9.1092,9.1171,9.1239,9.1235,9.1182,9.1072,9.103,9.116,9.1249,9.1255,9.1344,9.1314,9.1214,9.1097,9.1099,9.1095,9.1234,9.1262,9.1448,9.1545,9.144,9.1533,9.1546,9.1516,9.1646,9.187,9.1927,9.1848,9.1764,9.1669,9.154,9.152,9.1465,9.1392,9.1306,9.128,9.1259,9.1286,9.1282,9.1134,9.1095,9.1165,9.1302,9.1238,9.0411,8.8641,8.7695,8.7959,8.9824,9.36,9.7988,10.325,10.654,10.831,10.549,10.294,9.6764,9.2924,9.2338,9.1709,9.1915,9.1266,9.178,9.1513,9.1762,9.1536,9.1665,9.1561,9.1846,9.1514,9.1558,9.1323,9.1581,9.1574,9.1764,9.1624,9.1822,9.1826,9.2065,9.1936,9.1897,9.1809,9.2095,9.2214,9.2336,9.2275,9.2407,9.2476,9.2754,9.2777,9.2842,9.2732,9.2943,9.3134,9.3226,9.3239,9.3289,9.3616,9.3902,9.4181,9.4242,9.4337,9.462,9.4818,9.5124,9.531,9.5585,9.5881,9.6184,9.6401,9.6485,9.6715,9.6992,9.711,9.7204,9.7232,9.7127,9.7121,9.7062,9.704,9.6821,9.6566,9.6131,9.5682,9.5267,9.4932,9.4362,9.3947,9.3481,9.3267,9.2947,9.2701,9.24,9.2352,9.2181,9.2067,9.1956,9.1894,9.1835,9.1921,9.1855,9.1725,9.1511,9.1606,9.1611,9.1652,9.155,9.1591,9.1645,9.1813,9.1667,9.1646,9.143,9.1544,9.1671,9.181,9.1816,9.1746,9.1848,9.2064,9.2049,9.188,9.1842,9.1831,9.1931,9.1945,9.1941,9.1936,9.1846,9.1852,9.1843,9.18,9.1763,9.187,9.1799,9.183,9.1733,9.1661,9.1662,9.18,9.1775,9.1833,9.1722,9.1618,9.1619,9.1638,9.1543,9.1614,9.1621,9.1684,9.1613,9.1544,9.1505,9.1512,9.1573,9.1672,9.157,9.1491,9.144,9.1462,9.1655,9.1685,9.153,9.1567,9.1588,9.164,9.1757,9.1663,9.1656,9.1735,9.174,9.1625,9.1585,9.1504,9.1544,9.1651,9.1707,9.168,9.1631,9.1624,9.1696,9.1729,9.1664,9.1683,9.1737,9.1786,9.1706,9.1555,9.1507,9.1611,9.1831,9.187,9.1913,9.1844,9.1749,9.1578,9.172,9.1641,9.157,9.1555,9.1703,9.1776,9.1738,9.1616,9.1667,9.1773,9.1844,9.1757,9.1779,9.1809,9.2023,9.2025,9.2044,9.2038,9.1917,9.2189,9.2507,9.2515,9.2465,9.2361,9.243,9.2332,9.2134,9.1914,9.1809,9.1809,9.1887,9.186,9.1736,9.1647,9.1681,9.1646,9.179,9.1835,9.1543,9.1053,8.9631,8.8389,8.822,8.9304,9.2794,9.6867,10.224,10.653,10.919,10.795,10.366,9.7119,9.3805,9.2847,9.2466,9.2662,9.2074,9.2215,9.1959,9.2098,9.1981,9.2134,9.1933,9.2064,9.1974,9.209,9.2029,9.2178,9.2115,9.2206,9.2186,9.2508,9.2316,9.2399,9.2425,9.2566,9.2523,9.2557,9.2457,9.2573,9.2627,9.2724,9.2742,9.2882,9.3068,9.3173,9.3302,9.3493,9.3478,9.3635,9.3796,9.3875,9.3951,9.4022,9.4234,9.4469,9.4852,9.5088,9.5256,9.535,9.5541,9.5966,9.6257,9.6434,9.6681,9.6921,9.7153,9.7292,9.7426,9.7632,9.7811,9.7848,9.7893,9.7806,9.7579,9.7325,9.7162,9.6893,9.6508,9.6032,9.5731,9.523,9.4948,9.4455,9.4021,9.3742,9.3745,9.3566,9.3221,9.2837,9.2678,9.2697,9.2722,9.259,9.2531,9.2506,9.2454,9.2416,9.235,9.2112,9.2137,9.2314,9.2469,9.2521,9.2359,9.2329,9.2349,9.2442,9.25,9.2362,9.2436,9.2636,9.2733,9.2678,9.2596,9.2547,9.2546,9.2669,9.2622,9.2545,9.255,9.2545,9.2631,9.262,9.2559,9.2645,9.2717,9.272,9.2616,9.2412,9.2439,9.2526,9.2652,9.2711,9.2631,9.2399,9.2362,9.2514,9.2611,9.2513,9.2334,9.23,9.2296,9.2341,9.2372,9.2353,9.2326,9.2437,9.2487,9.2468,9.2381,9.2372,9.2392,9.2297,9.2238,9.2221,9.2318,9.2431,9.2506,9.2483,9.2392,9.2331,9.2264,9.2461,9.2532,9.2377,9.2309,9.2415,9.2504,9.243,9.2374,9.2428,9.2463,9.2509,9.2514,9.2317,9.2316,9.2378,9.249,9.2457,9.244,9.2541,9.2502,9.2589,9.2536,9.2498,9.252,9.2588,9.2654,9.2661,9.2632,9.2601,9.2613,9.2678,9.2548,9.2484,9.2505,9.2654,9.2828,9.2747,9.2551,9.2514,9.289,9.307,9.3048,9.2955,9.2779,9.2925,9.3284,9.336,9.3331,9.3169,9.3223,9.3357,9.3153,9.2946,9.2794,9.273,9.2782,9.2824,9.2775,9.267,9.2628,9.2751,9.2605,9.2532,9.2278,9.1712,8.9986,8.9314,8.8829,8.9565,9.2543,9.6569,10.185,10.676,10.965,10.942,10.569,9.9385,9.5162,9.3937,9.3682,9.3293,9.2958,9.3083,9.3136,9.3198,9.3343,9.3362,9.3271,9.313,9.3185,9.3359,9.3553,9.3669,9.3739,9.3522,9.3585,9.3617,9.3722,9.3711,9.3632,9.3782,9.3931,9.418,9.4225,9.4182,9.41,9.4189,9.4305,9.4333,9.4383,9.4456,9.4506,9.4739,9.4836,9.5069,9.5091,9.5174,9.5416,9.5451,9.5684,9.5914,9.62,9.6522,9.6845,9.7127,9.7321,9.7525,9.7669,9.7814,9.8133,9.8422,9.866,9.8799,9.9085,9.9296,9.9352,9.9276,9.921,9.9237,9.9115,9.8958,9.8649,9.8314,9.7925,9.7537,9.7263,9.6815,9.6335,9.5995,9.5587,9.5353,9.5185,9.5145,9.4966,9.456,9.4339,9.4393,9.4456,9.4264,9.4123,9.4054,9.4171,9.4441,9.4408,9.4344,9.4156,9.412,9.4172,9.4173,9.4115,9.4103,9.4238,9.4324,9.4352,9.4278,9.4323,9.4359,9.4486,9.4495,9.4421,9.4591,9.4641,9.4734,9.485,9.4773,9.4765,9.4858,9.4821,9.4709,9.4686,9.47,9.4708,9.485,9.4799,9.4779,9.4708,9.4606,9.4654,9.4771,9.475,9.4754,9.471,9.4699,9.4721,9.4777,9.4813,9.4972,9.4906,9.4764,9.4603,9.4551,9.4571,9.4687,9.4892,9.4847,9.476,9.4782,9.4914,9.4965,9.481,9.4759,9.4864,9.4886,9.4978,9.5065,9.5029,9.4934,9.4949,9.492,9.508,9.4994,9.4917,9.4827,9.4813,9.4878,9.4893,9.4889,9.4976,9.5094,9.4994,9.4976,9.4979,9.4935,9.4966,9.5077,9.4986,9.4918,9.5073,9.5128,9.5237,9.5212,9.5234,9.5101,9.5231,9.529,9.5306,9.531,9.5283,9.5601,9.5841,9.5891,9.5951,9.5846,9.582,9.5687,9.547,9.521,9.4991,9.5111,9.518,9.5207,9.5124,9.495,9.5051,9.501,9.505,9.5026,9.488,9.4335,9.2686,9.1255,9.1221,9.1703,9.4344,9.826,10.294,10.555,11.036,11.123,10.742,10.188,9.6902,9.5875,9.5024,9.5204,9.4756,9.4924,9.4933,9.519,9.521,9.5283,9.5112,9.5026,9.4887,9.4978,9.4982,9.4969,9.4832,9.5012,9.5075,9.5215,9.5196,9.5314,9.5248,9.5329,9.5258,9.5329,9.5316,9.537,9.5574,9.567,9.5693,9.5701,9.5773,9.5895,9.6017,9.6001,9.5948,9.6061,9.621,9.6531,9.6837,9.6899,9.7061,9.7306,9.7561,9.7685,9.7817,9.7986,9.825,9.8659,9.8815,9.9042,9.926,9.9432,9.9728,9.9889,10.006,10.007,10.034,10.034,10.047,10.033,10.005,9.9721,9.9208,9.8746,9.8229,9.7852,9.7394,9.7182,9.6866,9.643,9.5972,9.5649,9.5472,9.5294,9.5067,9.4735,9.4719,9.4703,9.4771,9.4651,9.4456,9.4358,9.4361,9.4296,9.4209,9.4114,9.4032,9.4062,9.4098,9.4141,9.4117,9.3992,9.406,9.4138,9.4082,9.4104,9.4184,9.4278,9.422,9.4195,9.4196,9.4233,9.4286,9.4452,9.4502,9.4199,9.4172,9.4298,9.4368,9.428,9.4181,9.4115,9.4162,9.428,9.4224,9.4056,9.3998,9.3858,9.3946,9.3971,9.397,9.3967,9.3934,9.4136,9.4032,9.3831,9.3777,9.3663,9.3762,9.3811,9.386,9.3788,9.378,9.3676,9.3654,9.3577,9.359,9.3614,9.3601,9.3641,9.3609,9.3557,9.3639,9.3674,9.3704,9.3699,9.3651,9.3727,9.3798,9.3971,9.3809,9.3609,9.3478,9.3564,9.3684,9.3833,9.3794,9.3998,9.3986,9.3909,9.3752,9.358,9.3527,9.3623,9.3748,9.374,9.3723,9.3724,9.379,9.389,9.3995,9.3852,9.3802,9.3899,9.3993,9.403,9.4086,9.4078,9.4404,9.4575,9.464,9.4585,9.4449,9.4469,9.4343,9.4226,9.4024,9.3809,9.3713,9.3728,9.3658,9.3639,9.3555,9.3591,9.3611,9.3622,9.344,9.3353,9.2897,9.1456,9.018,8.998,9.1341,9.5191,9.7364,10.212,10.744,11.013,11.077,10.722,10.12,9.6268,9.496,9.4437,9.4205,9.3802,9.4097,9.4018,9.4087,9.4044,9.4003,9.388,9.3825,9.3898,9.3888,9.386,9.3932,9.4001,9.4017,9.4056,9.4015,9.4036,9.3936,9.398,9.4057,9.4211,9.4329,9.4239,9.418,9.4209,9.4509,9.4685,9.466,9.4668,9.469,9.4893,9.5161,9.5175,9.5206,9.532,9.5484,9.5665,9.5846,9.6012,9.6248,9.652,9.6892,9.7045,9.7113,9.7502,9.7845,9.8102,9.8371,9.8536,9.8779,9.9031,9.9191,9.9285,9.9319,9.946,9.9705,9.9817,9.9614,9.9254,9.892,9.8641,9.8196,9.772,9.7316,9.6971,9.6603,9.6202,9.5669,9.5495,9.5206,9.4881,9.4744,9.449,9.4251,9.4221,9.4218,9.4213,9.4134,9.3931,9.3883,9.3753,9.4008,9.4043,9.3858,9.3694,9.3643,9.3703,9.3793,9.3772,9.3741,9.3698,9.3698,9.3782,9.382,9.3832,9.3768,9.39,9.4015,9.3921,9.3811,9.3733,9.3694,9.3683,9.3746,9.3901,9.3846,9.3875,9.3858,9.3834,9.3825,9.3816,9.3815,9.3726,9.3667,9.3623,9.3726,9.3772,9.3742,9.3701,9.3563,9.3532,9.3556,9.3749,9.3688,9.3608,9.3597,9.3572,9.3549,9.3579,9.3503,9.3423,9.3323,9.3407,9.3417,9.3335,9.3367,9.3364,9.3449,9.349,9.3391,9.3405,9.3431,9.3514,9.3595,9.3573,9.3538,9.3543,9.3563,9.3405,9.3227,9.3245,9.3363,9.3439,9.3528,9.3389,9.3273,9.3396,9.3469,9.351,9.3391,9.3352,9.3342,9.3452,9.3421,9.3398,9.3517,9.3481,9.3488,9.3446,9.3451,9.3356,9.3294,9.3303,9.337,9.3357,9.329,9.3231,9.3283,9.3255,9.3291,9.3312,9.3243,9.3351,9.3495,9.3486,9.342,9.3329,9.3278,9.3419,9.3403,9.3388,9.3388,9.3421,9.3473,9.3405,9.3433,9.3419,9.3382,9.3408,9.3567,9.3505,9.3467,9.3494,9.3897,9.4025,9.398,9.3989,9.385,9.3953,9.3881,9.3732,9.3379,9.3358,9.3399,9.3368,9.3202,9.3179,9.3211,9.3176,9.3236,9.3185,9.3227,9.2685,9.1196,9.0309,8.9509,8.9827,9.2053,9.6138,10.083,10.646,10.984,11.107,10.833,10.245,9.6843,9.4942,9.4703,9.4174,9.3997,9.3706,9.3935,9.3823,9.3985,9.3732,9.3838,9.346,9.3592,9.3474,9.3796,9.369,9.3926,9.3718,9.3836,9.3697,9.3791,9.3712,9.394,9.4038,9.4201,9.409,9.4183,9.428,9.4387,9.436,9.4464,9.4466,9.4508,9.4506,9.4704,9.4815,9.4966,9.5117,9.5322,9.5336,9.5387,9.5447,9.5614,9.5976,9.6195,9.6436,9.6556,9.6801,9.6954,9.7302,9.7484,9.7573,9.7892,9.826,9.8521,9.8681,9.8822,9.887,9.9044,9.9243,9.919,9.9175,9.8925,9.8718,9.8583,9.839,9.7959,9.7486,9.7249,9.6891,9.644,9.6226,9.5708,9.5309,9.4833,9.465,9.4422,9.4423,9.4324,9.4185,9.402,9.3874,9.3721,9.3729,9.3681,9.3739,9.3684,9.3732,9.3708,9.3765,9.3699,9.369,9.37,9.3742,9.378,9.3829,9.3725,9.3692,9.3617,9.364,9.3684,9.3809,9.3709,9.3738,9.3785,9.3907,9.3897,9.3904,9.3804,9.3791,9.3699,9.375,9.3615,9.3715,9.3823,9.3956,9.3909,9.373,9.3693,9.3689,9.3609,9.3747,9.367,9.3619,9.3604,9.3707,9.369,9.3624,9.3652,9.3717,9.371,9.3754,9.3561,9.3392,9.3427,9.3498,9.3619,9.3552,9.3555,9.3659,9.3757,9.3653,9.3562,9.3415,9.3372,9.3504,9.3604,9.3563,9.3393,9.332,9.3449,9.3479,9.3445,9.3293,9.3225,9.3224,9.328,9.3229,9.3272,9.3259,9.326,9.3324,9.3364,9.3261,9.326,9.323,9.3252,9.3244,9.321,9.3093,9.3202,9.3228,9.3366,9.3279,9.3158,9.3177,9.3164,9.3162,9.3169,9.3192,9.3197,9.3216,9.3246,9.3251,9.3255,9.3256,9.3247,9.3192,9.3126,9.3151,9.319,9.3271,9.3206,9.3164,9.3004,9.3147,9.3256,9.3289,9.3268,9.3185,9.3252,9.3316,9.3541,9.3544,9.3429,9.3436,9.3538,9.3585,9.3603,9.3903,9.418,9.3968,9.3835,9.3881,9.3845,9.3621,9.3503,9.3415,9.3367,9.3253,9.334,9.3393,9.3426,9.3212,9.3143,9.3074,9.3119,9.3197,9.3249,9.2465,9.0557,8.9551,8.9827,9.1551,9.5551,9.9941,10.583,10.959,11.144,10.889,10.337,9.7414,9.5355,9.4886,9.4422,9.3981,9.3655,9.3868,9.3739,9.3955,9.3716,9.3824,9.366,9.3794,9.3471,9.3588,9.336,9.3653,9.3562,9.3906,9.3746,9.388,9.3645,9.3906,9.3848,9.3933,9.3844,9.4035,9.4019,9.4189,9.4023,9.4065,9.4077,9.4236,9.4234,9.4378,9.4411,9.458,9.4681,9.485,9.4913,9.5025,9.5147,9.529,9.5542,9.5703,9.5881,9.6132,9.6536,9.6773,9.6845,9.7017,9.737,9.7573,9.7914,9.8163,9.8288,9.8505,9.8655,9.8702,9.8744,9.8861,9.8897,9.8826,9.8766,9.836,9.7986,9.7556,9.7277,9.6969,9.6566,9.6132,9.58,9.5367,9.507,9.462,9.4273,9.3909,9.3732,9.3627,9.3573,9.3457,9.3493,9.3373,9.335,9.3211,9.3147,9.3115,9.319,9.3283,9.3274,9.3165,9.3211,9.3241,9.3394,9.3376,9.3255,9.3082,9.3061,9.3112,9.321,9.3122,9.3198,9.3164,9.3302,9.3413,9.3387,9.3409,9.3473,9.3379,9.3365,9.3349,9.3383,9.3334,9.3443,9.3518,9.344,9.3314,9.3291,9.3294,9.3191,9.3153,9.3144,9.3041,9.3166,9.3162,9.32,9.3132,9.3066,9.3002,9.306,9.317,9.3194,9.3022,9.2946,9.2951,9.2955,9.2885,9.2946,9.2998,9.2995,9.2954,9.282,9.2875,9.2916,9.3022,9.2905,9.2768,9.2728,9.2746,9.2862,9.2935,9.2775,9.2721,9.2646,9.2683,9.2708,9.2706,9.2684,9.2623,9.2618,9.2712,9.2641,9.2782,9.2874,9.2893,9.2864,9.2781,9.2742,9.2872,9.2844,9.2892,9.2917,9.2952,9.2896,9.3059,9.311,9.2872,9.2763,9.2701,9.2744,9.2876,9.2782,9.2831,9.2998,9.3101,9.3143,9.3231,9.3035,9.2919,9.3101,9.3315,9.3171,9.3101,9.2834,9.2932,9.2997,9.3071,9.3168,9.3165,9.3181,9.3101,9.3092,9.3085,9.2922,9.2961,9.3245,9.3264,9.3253,9.3238,9.3235,9.3352,9.3446,9.3282,9.3389,9.3574,9.4001,9.4203,9.3918,9.3632,9.3738,9.3953,9.3894,9.3599,9.342,9.3406,9.336,9.3138,9.3035,9.3004,9.3121,9.3249,9.3195,9.3108,9.3084,9.2922,9.191,9.0282,8.9518,8.9682,9.0877,9.4608,9.8665,10.402,10.802,11.05,10.898,10.455,9.8048,9.5203,9.4485,9.3931,9.3712,9.3189,9.3713,9.3409,9.3753,9.3595,9.3699,9.3497,9.3693,9.3627,9.3708,9.3514,9.3685,9.3629,9.3875,9.3853,9.4062,9.3854,9.3818,9.3747,9.399,9.4079,9.4302,9.4226,9.4425,9.4489,9.4573,9.4501,9.4689,9.4882,9.5047,9.5067,9.5169,9.5187,9.5262,9.5468,9.5697,9.5908,9.6147,9.6332,9.6512,9.6693,9.6706,9.7076,9.7485,9.7894,9.8091,9.8155,9.8233,9.8349,9.8577,9.8858,9.9158,9.9303,9.9472,9.9617,9.9555,9.9514,9.9299,9.9131,9.9032,9.8735,9.8232,9.7772,9.7452,9.715,9.6986,9.6604,9.6058,9.5555,9.5354,9.5076,9.5008,9.4831,9.4495,9.4452,9.4417,9.4277,9.4233,9.4321,9.4259,9.4192,9.4064,9.4156,9.408,9.4186,9.4158,9.419,9.4047,9.402,9.389,9.42,9.4263,9.4281,9.423,9.434,9.4313,9.4343,9.429,9.441,9.4466,9.4666,9.4584,9.453,9.4472,9.4493,9.4672,9.4742,9.4646,9.4481,9.4537,9.4627,9.4649,9.4591,9.4487,9.4327,9.4415,9.4539,9.4461,9.4427,9.4475,9.4666,9.4564,9.4638,9.4548,9.4608,9.4542,9.4522,9.4502,9.4597,9.4628,9.4653,9.4835,9.4792,9.4759,9.473,9.4768,9.4756,9.4633,9.4593,9.4562,9.4664,9.4907,9.4982,9.4856,9.4523,9.4493,9.4648,9.4736,9.4763,9.4791,9.5006,9.5152,9.5104
