8.1299,8.1143,8.1099,8.0928,8.0787,8.0702,8.0693,8.068,8.0671,8.0666,8.0587,8.0521,8.051,8.0509,8.0526,8.053,8.0441,8.0581,8.0534,8.0477,8.0474,8.043,8.0361,8.036,8.0311,8.0364,7.967,7.8469,7.8125,7.86,8.0971,8.4096,8.6625,8.9647,8.7984,8.2449,7.9657,7.8706,7.9193,7.9921,8.0435,8.1065,8.1029,8.098,8.0863,8.08,8.0829,8.0728,8.0757,8.0841,8.0876,8.0923,8.0879,8.0826,8.0915,8.1038,8.1002,8.1099,8.1123,8.12,8.1223,8.1271,8.1312,8.146,8.1439,8.1514,8.1523,8.1593,8.1647,8.1712,8.1833,8.1864,8.1999,8.2114,8.2239,8.2421,8.2472,8.2634,8.2831,8.301,8.3289,8.3417,8.3642,8.3784,8.3992,8.4219,8.4329,8.451,8.4767,8.5011,8.5207,8.5315,8.5417,8.5479,8.5446,8.537,8.5131,8.4798,8.4346,8.3818,8.343,8.298,8.2497,8.2128,8.1842,8.1668,8.1476,8.1261,8.1117,8.0936,8.0838,8.0773,8.0748,8.0618,8.0569,8.0561,8.0483,8.0482,8.0496,8.0429,8.0419,8.0445,8.0429,8.0413,8.0404,8.0404,8.0488,8.0438,8.0441,8.0469,8.0485,8.0482,8.0422,8.042,8.0489,8.0484,8.0513,8.0451,8.0485,8.0536,8.0496,8.0494,8.0422,8.0398,8.0478,8.0502,8.0522,8.0479,8.0414,8.0397,8.038,8.0357,8.0485,8.0445,8.0419,8.0453,8.0428,8.0425,8.0421,8.0332,8.0443,8.036,8.0339,8.0366,8.0327,8.0385,8.0386,8.0411,8.0459,8.0466,8.0457,8.0481,8.0309,8.0349,8.0645,8.1131,8.1147,8.0922,8.0954,8.0766,8.079,8.077,8.0599,8.0517,8.0385,8.0301,8.026,8.023,8.0222,8.0235,8.0165,8.01,8.0088,8.0078,8.0048,8.0101,8.0132,8.0089,8.0088,8.0088,8.0086,8.0003,8.0082,8.012,8.0024,7.9315,7.8091,7.7745,7.9357,8.215,8.4843,8.8167,8.9958,8.6377,8.2461,8.1039,8.0782,8.0926,8.0794,8.1262,8.1307,8.1184,8.0923,8.0774,8.07,8.0673,8.0661,8.0603,8.0672,8.0599,8.0718,8.0751,8.0798,8.0834,8.0844,8.0891,8.0891,8.1015,8.1034,8.1103,8.1049,8.1143,8.1163,8.1304,8.1363,8.1511,8.1475,8.1569,8.1647,8.1804,8.192,8.1998,8.209,8.2247,8.2381,8.2539,8.2691,8.2852,8.2993,8.3212,8.335,8.3527,8.375,8.3968,8.4222,8.4446,8.4574,8.4824,8.4969,8.5125,8.531,8.54,8.5379,8.5233,8.5089,8.4848,8.4364,8.4128,8.3772,8.3284,8.2859,8.2423,8.2176,8.1844,8.1566,8.1368,8.123,8.1108,8.0975,8.0897,8.0837,8.0862,8.0793,8.0682,8.0774,8.0685,8.0731,8.063,8.0637,8.0642,8.0689,8.0638,8.0636,8.0605,8.0632,8.0617,8.0668,8.0608,8.0671,8.0659,8.0716,8.067,8.0685,8.071,8.0684,8.0653,8.0741,8.0713,8.0681,8.0683,8.0651,8.0685,8.0649,8.0669,8.0698,8.065,8.0635,8.0643,8.0641,8.0739,8.0704,8.0658,8.0761,8.0569,8.0598,8.0657,8.0645,8.0676,8.0702,8.0667,8.0714,8.0718,8.0662,8.0704,8.0659,8.0699,8.0685,8.0662,8.0705,8.0704,8.065,8.0684,8.0665,8.0671,8.0667,8.0711,8.0688,8.0736,8.0634,8.0775,8.0809,8.0779,8.0861,8.0816,8.0845,8.0881,8.069,8.0697,8.0933,8.143,8.1618,8.1429,8.1347,8.137,8.1266,8.1056,8.0988,8.1006,8.0722,8.0593,8.0673,8.0726,8.0752,8.0579,8.0524,8.053,8.0616,8.0648,8.0635,8.0532,8.0575,8.0522,8.0527,8.059,8.0562,8.0566,8.0533,8.0527,8.0535,8.0091,7.8919,7.8246,7.9248,8.1799,8.439,8.6825,9.003,8.8143,8.3603,8.1714,8.1533,8.1709,8.137,8.1575,8.179,8.173,8.1505,8.1357,8.1223,8.1251,8.1169,8.1239,8.12,8.1305,8.1255,8.1318,8.1444,8.1497,8.1499,8.1478,8.1469,8.1452,8.1292,8.1266,8.1337,8.1648,8.2035,8.2268,8.2265,8.2278,8.2408,8.2443,8.2478,8.2547,8.2638,8.2726,8.2794,8.294,8.3028,8.304,8.3276,8.3483,8.3618,8.3769,8.4058,8.4266,8.443,8.4654,8.4959,8.5149,8.531,8.5559,8.5754,8.5933,8.6173,8.627,8.6268,8.6322,8.6347,8.6189,8.5913,8.5594,8.5164,8.4665,8.4245,8.3849,8.3401,8.3141,8.283,8.2514,8.2398,8.2216,8.2206,8.2002,8.1896,8.1801,8.1752,8.1775,8.1737,8.1761,8.1768,8.1792,8.1698,8.1696,8.1744,8.1725,8.1651,8.1768,8.1748,8.1661,8.163,8.1639,8.1632,8.161,8.1613,8.1573,8.1669,8.1698,8.1694,8.1652,8.1727,8.1698,8.1686,8.1662,8.1559,8.1609,8.1645,8.1725,8.1639,8.1647,8.174,8.1742,8.1614,8.166,8.1736,8.1736,8.1661,8.1593,8.1698,8.167,8.1645,8.1638,8.1666,8.1578,8.1641,8.1642,8.1661,8.1702,8.1659,8.1626,8.1692,8.1681,8.1613,8.1655,8.1709,8.1659,8.1651,8.1696,8.1642,8.1674,8.1674,8.1734,8.1788,8.1733,8.1801,8.1687,8.1697,8.1882,8.2338,8.2685,8.244,8.2347,8.2228,8.2182,8.2215,8.207,8.1973,8.1748,8.1739,8.1775,8.1724,8.1725,8.171,8.1611,8.1657,8.1667,8.1694,8.1679,8.1569,8.1595,8.1583,8.1607,8.1763,8.1752,8.1626,8.1678,8.1699,8.1611,8.1554,8.075,7.9801,8.0198,8.2403,8.5122,8.7106,9.0055,8.9407,8.4252,8.1397,8.0423,8.0704,8.1309,8.1485,8.2287,8.2646,8.2599,8.241,8.2315,8.2241,8.2209,8.2266,8.2233,8.2328,8.2334,8.2319,8.2266,8.2368,8.2451,8.2501,8.2506,8.2581,8.2635,8.2748,8.278,8.2824,8.2829,8.2842,8.299,8.3075,8.3223,8.3153,8.317,8.3413,8.3474,8.3604,8.377,8.373,8.3964,8.4121,8.4185,8.4252,8.4603,8.4761,8.4854,8.5096,8.5423,8.5543,8.5835,8.603,8.6138,8.638,8.6524,8.6714,8.6906,8.7099,8.7118,8.7152,8.7088,8.6865,8.6793,8.64,8.6014,8.551,8.5015,8.456,8.4291,8.3914,8.3582,8.3299,8.3052,8.286,8.2776,8.2661,8.2544,8.2547,8.2536,8.2462,8.2466,8.245,8.2397,8.2377,8.2309,8.2359,8.2318,8.2363,8.2315,8.2287,8.2322,8.2301,8.2276,8.2304,8.2305,8.238,8.2458,8.2295,8.2348,8.2402,8.2371,8.2416,8.2406,8.2398,8.2351,8.242,8.24,8.24,8.2431,8.2364,8.2385,8.2379,8.238,8.2414,8.2436,8.2434,8.2421,8.2449,8.2346,8.2312,8.2405,8.2306,8.2362,8.238,8.2365,8.2317,8.2336,8.2348,8.23,8.2369,8.2328,8.2345,8.2358,8.2492,8.2492,8.2529,8.2462,8.2512,8.2463,8.2396,8.2489,8.2829,8.3312,8.3239,8.3001,8.2881,8.2808,8.2689,8.2705,8.2622,8.255,8.2508,8.234,8.2429,8.244,8.2327,8.2267,8.2372,8.2282,8.2272,8.2295,8.225,8.237,8.2431,8.2333,8.2368,8.2294,8.2301,8.2299,8.2287,8.2237,8.1916,8.0895,8.0303,8.1365,8.4033,8.653,8.7533,9.0422,9.0628,8.5736,8.2239,8.1018,8.1343,8.1932,8.2289,8.298,8.316,8.3129,8.2969,8.2905,8.2951,8.2933,8.2964,8.2931,8.2972,8.2951,8.3024,8.3069,8.31,8.3137,8.3153,8.3306,8.3287,8.3276,8.3376,8.337,8.352,8.3506,8.372,8.3684,8.3669,8.3775,8.3908,8.3946,8.4011,8.4112,8.4235,8.4353,8.4415,8.4592,8.4719,8.496,8.5134,8.5249,8.5454,8.5672,8.5871,8.604,8.6139,8.6406,8.6753,8.6793,8.7026,8.715,8.735,8.7521,8.763,8.7696,8.7782,8.7678,8.7404,8.7117,8.6632,8.63,8.5876,8.5527,8.5038,8.4789,8.4442,8.4196,8.392,8.3785,8.3754,8.359,8.3534,8.3425,8.3361,8.3316,8.3231,8.3272,8.3268,8.3202,8.3169,8.3265,8.3244,8.3212,8.3192,8.3206,8.3188,8.3143,8.3138,8.3208,8.3193,8.3207,8.3143,8.3183,8.3175,8.3154,8.3216,8.3186,8.3213,8.32,8.324,8.3213,8.3253,8.3193,8.3268,8.3247,8.3249,8.3245,8.3196,8.3158,8.3205,8.3231,8.3121,8.3138,8.3254,8.3188,8.3106,8.3142,8.3175,8.3203,8.303,8.315,8.3146,8.3183,8.3148,8.3151,8.3149,8.3162,8.3147,8.3165,8.319,8.3364,8.3326,8.3336,8.3316,8.3197,8.323,8.3434,8.3863,8.3982,8.3818,8.3772,8.36,8.353,8.3479,8.3319,8.3252,8.3194,8.3168,8.3052,8.3067,8.3058,8.2961,8.2949,8.3023,8.2964,8.2924,8.2939,8.2936,8.2867,8.2876,8.3037,8.2985,8.3005,8.2987,8.2935,8.2963,8.2836,8.2078,8.09,8.0852,8.2418,8.5281,8.7596,9.0736,9.2225,8.8353,8.4833,8.3556,8.3563,8.3657,8.3553,8.4028,8.4022,8.3801,8.3638,8.3476,8.3446,8.339,8.34,8.3433,8.3396,8.3506,8.3478,8.3474,8.3506,8.363,8.3625,8.3645,8.3727,8.3747,8.3799,8.3811,8.3811,8.3917,8.3992,8.4015,8.4165,8.4144,8.4316,8.433,8.4375,8.4523,8.4534,8.4682,8.4775,8.4972,8.5088,8.5235,8.5383,8.5506,8.565,8.5809,8.5913,8.618,8.6339,8.6536,8.673,8.6926,8.7083,8.7313,8.7544,8.7675,8.7727,8.7856,8.7889,8.7775,8.7585,8.7307,8.6952,8.6592,8.6028,8.5852,8.5452,8.5018,8.4658,8.4307,8.4041,8.384,8.3665,8.3479,8.3354,8.3321,8.319,8.3123,8.3216,8.3187,8.3127,8.3062,8.3062,8.3148,8.3151,8.3062,8.3054,8.2959,8.307,8.3044,8.3101,8.3064,8.3063,8.3022,8.3004,8.3023,8.3018,8.3159,8.3045,8.3045,8.301,8.303,8.3004,8.2964,8.3063,8.3099,8.3125,8.3116,8.3169,8.3039,8.3125,8.3016,8.314,8.3186,8.309,8.3102,8.2941,8.3044,8.2993,8.3061,8.3148,8.314,8.3112,8.2922,8.283,8.2871,8.2934,8.2839,8.2964,8.2891,8.2829,8.2886,8.2845,8.2838,8.2855,8.2712,8.2845,8.2825,8.2879,8.2874,8.2808,8.2805,8.2701,8.2639,8.2881,8.3451,8.3644,8.3472,8.328,8.3116,8.3017,8.3006,8.29,8.2772,8.2683,8.2672,8.2643,8.2668,8.2647,8.2626,8.2589,8.2577,8.2606,8.2634,8.2561,8.2492,8.2432,8.2437,8.2434,8.246,8.2473,8.2538,8.2539,8.2474,8.2058,8.0665,7.9592,8.0203,8.2632,8.5868,8.7254,9.0719,9.2498,8.8454,8.4836,8.3327,8.3253,8.3197,8.3196,8.354,8.346,8.3115,8.2911,8.2789,8.274,8.2687,8.2752,8.2663,8.2735,8.2719,8.2719,8.2752,8.2847,8.2848,8.2933,8.2919,8.2891,8.297,8.2966,8.3022,8.3091,8.3138,8.3223,8.3252,8.328,8.3321,8.3412,8.3474,8.3561,8.3671,8.3753,8.3809,8.3949,8.4057,8.4221,8.4366,8.4517,8.4689,8.4916,8.5104,8.527,8.5466,8.5652,8.586,8.604,8.6234,8.6452,8.6617,8.6789,8.6948,8.7068,8.7218,8.7244,8.7193,8.7015,8.6693,8.6321,8.5892,8.542,8.4943,8.4472,8.4084,8.3734,8.3468,8.3135,8.2902,8.2731,8.2633,8.2498,8.2421,8.2293,8.2288,8.2214,8.2165,8.2179,8.216,8.2154,8.2101,8.1974,8.2013,8.1965,8.2004,8.1979,8.1937,8.1918,8.1907,8.1853,8.1843,8.187,8.1869,8.1854,8.1803,8.1773,8.1792,8.1756,8.1769,8.1712,8.1644,8.171,8.1663,8.1654,8.1641,8.1651,8.1687,8.1642,8.1621,8.1543,8.1592,8.1613,8.1593,8.1585,8.1581,8.1555,8.154,8.1584,8.1599,8.1562,8.1504,8.1468,8.1465,8.1475,8.151,8.1468,8.1528,8.1593,8.1635,8.1494,8.1528,8.1449,8.1416,8.1688,8.2104,8.2237,8.2003,8.1967,8.1858,8.1809,8.1642,8.144,8.132,8.1299,8.118,8.1142,8.1129,8.1079,8.1109,8.1102,8.1038,8.1029,8.0988,8.095,8.0957,8.094,8.0891,8.089,8.0863,8.0923,8.0881,8.0828,8.078,8.0135,7.8741,7.8287,7.8683,8.0932,8.4061,8.6888,9.0356,8.9305,8.3913,8.0845,7.9772,7.9999,8.0645,8.1008,8.1593,8.158,8.1457,8.1276,8.1221,8.1192,8.1204,8.1222,8.1214,8.1171,8.1189,8.1236,8.1346,8.1374,8.1369,8.1363,8.1424,8.142,8.1479,8.1465,8.1475,8.1582,8.1634,8.1678,8.1762,8.1768,8.187,8.1903,8.1969,8.2076,8.2159,8.2267,8.243,8.2528,8.2629,8.2815,8.2867,8.3029,8.3235,8.3429,8.3614,8.3803,8.3997,8.4279,8.4416,8.4546,8.474,8.4912,8.5113,8.5357,8.5497,8.5614,8.5623,8.5586,8.5462,8.5229,8.4836,8.4433,8.3949,8.3494,8.3008,8.2641,8.2259,8.2077,8.1865,8.1613,8.1361,8.1207,8.1072,8.0946,8.088,8.0836,8.0795,8.0704,8.0661,8.066,8.0658,8.0645,8.0642,8.0597,8.0588,8.0599,8.0595,8.0576,8.059,8.0576,8.055,8.0532,8.0553,8.0543,8.0541,8.0582,8.0566,8.0543,8.0546,8.0527,8.0523,8.054,8.0557,8.0591,8.0564,8.0511,8.0493,8.0508,8.0512,8.0462,8.0436,8.039,8.0448,8.044,8.0468,8.0395,8.0413,8.0399,8.0416,8.0393,8.0391,8.0379,8.0381,8.0353,8.034,8.0411,8.0466,8.0511,8.0527,8.0547,8.0439,8.0442,8.0754,8.117,8.1192,8.1045,8.0893,8.0775,8.0771,8.0622,8.0486,8.0359,8.0332,8.0316,8.0295,8.0279,8.0246,8.021,8.0183,8.0178,8.013,8.0084,8.0069,8.0089,8.0098,8.0118,8.0111,8.0087,8.0083,8.0077,8.0052,8.001,7.916,7.842,7.7418,7.7834,8.0267,8.3345,8.638,9.0146,8.9142,8.3883,8.1346,8.037,8.0644,8.0595,8.0976,8.1126,8.107,8.0907,8.0726,8.0578,8.0532,8.0531,8.0551,8.0608,8.0599,8.0652,8.0661,8.0682,8.0711,8.0729,8.0774,8.0809,8.0827,8.0918,8.0916,8.0996,8.1072,8.1134,8.1193,8.1224,8.1279,8.1305,8.1392,8.1494,8.1572,8.1713,8.1805,8.1929,8.2024,8.2197,8.2306,8.25,8.2671,8.2864,8.3014,8.3155,8.3333,8.3543,8.3653,8.39,8.4067,8.4275,8.4492,8.4664,8.4848,8.5023,8.5171,8.5161,8.5172,8.5069,8.4802,8.441,8.3959,8.354,8.3103,8.269,8.2267,8.2083,8.1784,8.1501,8.1257,8.1109,8.0926,8.0829,8.0783,8.0692,8.0678,8.0606,8.0611,8.0587,8.0549,8.0516,8.0482,8.0469,8.048,8.0484,8.0498,8.0442,8.0461,8.0452,8.0426,8.0422,8.0443,8.0429,8.0462,8.0404,8.0447,8.0441,8.045,8.0434,8.0448,8.0466,8.0439,8.044,8.0449,8.0463,8.0449,8.0458,8.0469,8.0467,8.0466,8.0458,8.0472,8.0462,8.0449,8.0489,8.0487,8.0443,8.0395,8.0421,8.045,8.0427,8.0415,8.0428,8.0422,8.0462,8.0447,8.0427,8.0437,8.0416,8.0553,8.0612,8.057,8.0571,8.0506,8.0457,8.0669,8.1072,8.131,8.1221,8.1081,8.0957,8.0878,8.0852,8.0723,8.0641,8.0495,8.0469,8.04,8.0374,8.0328,8.0314,8.0314,8.0297,8.0297,8.033,8.0308,8.0355,8.0318,8.031,8.0358,8.0311,8.0307,8.0326,8.0311,8.0305,8.0251,7.9674,7.8246,7.7434,7.8485,8.1092,8.4364,8.7827,9.1095,8.8764,8.4029,8.1994,8.1482,8.1516,8.1139,8.1694,8.1694,8.1482,8.1232,8.0989,8.0948,8.0888,8.0914,8.0877,8.0954,8.0971,8.0994,8.1016,8.1067,8.1092,8.1165,8.1184,8.1218,8.1239,8.132,8.1312,8.1415,8.1442,8.1492,8.1548,8.1625,8.1671,8.1799,8.1906,8.1975,8.2052,8.2188,8.2269,8.2379,8.2486,8.2631,8.2753,8.2925,8.3145,8.3227,8.3358,8.3577,8.3812,8.3997,8.4161,8.4385,8.4664,8.4874,8.5106,8.5286,8.5439,8.5619,8.5748,8.5795,8.5736,8.5575,8.5293,8.4958,8.4735,8.4305,8.3886,8.3458,8.3042,8.2699,8.2396,8.2105,8.1889,8.1721,8.1571,8.1469,8.1378,8.1307,8.1255,8.1197,8.1162,8.1141,8.1129,8.1163,8.1139,8.1115,8.1059,8.1064,8.1059,8.1065,8.1058,8.1033,8.102,8.1037,8.1056,8.1062,8.1081,8.105,8.1058,8.1096,8.1075,8.1078,8.1078,8.1065,8.1088,8.11,8.1092,8.1097,8.1098,8.1131,8.1112,8.1125,8.1129,8.1139,8.1134,8.116,8.1124,8.1129,8.1126,8.1135,8.1148,8.1115,8.1097,8.1119,8.1135,8.1133,8.1149,8.1113,8.112,8.1095,8.1149,8.1078,8.1107,8.1082,8.1082,8.1156,8.1248,8.1235,8.1264,8.1215,8.1132,8.1136,8.1356,8.1818,8.1929,8.1824,8.1687,8.1584,8.1506,8.1413,8.133,8.1155,8.1066,8.1016,8.0976,8.0968,8.0934,8.0921,8.0889,8.0902,8.0907,8.0854,8.088,8.0856,8.0863,8.0873,8.0871,8.0938,8.0897,8.0876,8.0902,8.091,8.069,7.9443,7.8157,7.8345,8.0442,8.3702,8.6789,8.8977,9.1748,8.9027,8.4445,8.2607,8.2081,8.2208,8.1792,8.2334,8.2109,8.1922,8.1618,8.1543,8.1407,8.1428,8.1398,8.1422,8.1391,8.1449,8.1386,8.1404,8.142,8.1521,8.1487,8.1553,8.156,8.1643,8.1641,8.1723,8.1743,8.1805,8.1854,8.196,8.2016,8.2079,8.2153,8.2233,8.2324,8.2387,8.2489,8.258,8.2662,8.277,8.2954,8.3104,8.324,8.3442,8.3609,8.3792,8.3989,8.4184,8.4415,8.467,8.488,8.5096,8.5299,8.5493,8.5623,8.5783,8.5963,8.6066,8.6118,8.6044,8.5926,8.5616,8.5251,8.479,8.4342,8.3839,8.3458,8.3083,8.2715,8.2408,8.2213,8.1974,8.1857,8.1764,8.1663,8.1531,8.1532,8.1459,8.1404,8.1391,8.1401,8.1378,8.1374,8.132,8.1324,8.1285,8.132,8.124,8.1223,8.1229,8.1222,8.119,8.1203,8.1206,8.1206,8.1209,8.1214,8.1216,8.1251,8.1214,8.1222,8.1228,8.1214,8.1183,8.1216,8.1185,8.126,8.1247,8.1236,8.1202,8.1252,8.1249,8.1259,8.1271,8.1248,8.1229,8.1253,8.1261,8.1254,8.1257,8.1209,8.1233,8.123,8.1247,8.1201,8.1258,8.1231,8.1249,8.1227,8.1182,8.1171,8.1201,8.1212,8.1161,8.116,8.1143,8.116,8.1191,8.1161,8.1149,8.1164,8.1188,8.1269,8.1323,8.1278,8.131,8.1224,8.11,8.1327,8.1469,8.1957,8.1981,8.1848,8.1805,8.167,8.1588,8.1497,8.1464,8.1274,8.1253,8.1157,8.1158,8.1146,8.1155,8.1116,8.1127,8.1059,8.1123,8.11,8.1103,8.1042,8.1031,8.1025,8.1068,8.1066,8.1072,8.1042,8.108,8.1097,8.0977,8.0018,7.8572,7.8243,7.991,8.2958,8.6053,9.0186,9.1784,9.032,8.5589,8.3084,8.2615,8.2369,8.2118,8.241,8.2543,8.2069,8.205,8.1673,8.1797,8.1566,8.1735,8.1608,8.1745,8.1635,8.1805,8.1666,8.1831,8.1753,8.1929,8.1818,8.1977,8.188,8.2044,8.1995,8.2125,8.2109,8.2236,8.2252,8.2388,8.2392,8.2481,8.2518,8.2697,8.275,8.2906,8.292,8.3038,8.3153,8.3301,8.3477,8.3608,8.3766,8.3972,8.4162,8.4398,8.4566,8.4754,8.4996,8.5233,8.5423,8.5627,8.5859,8.6043,8.6247,8.6343,8.6516,8.6559,8.6591,8.6505,8.6297,8.5921,8.5541,8.5077,8.4658,8.423,8.3835,8.3415,8.3135,8.2832,8.2631,8.2413,8.2303,8.2162,8.2165,8.2046,8.2052,8.1974,8.1923,8.1892,8.1943,8.1889,8.1892,8.185,8.1901,8.1877,8.1877,8.1846,8.1813,8.1759,8.185,8.1775,8.1823,8.1794,8.1836,8.1836,8.1879,8.1818,8.183,8.1815,8.184,8.1838,8.1818,8.1782,8.1843,8.1807,8.184,8.1827,8.1852,8.1831,8.1894,8.1891,8.1928,8.1867,8.187,8.1907,8.1945,8.1891,8.186,8.1827,8.1907,8.1941,8.1977,8.1922,8.1928,8.1877,8.19,8.1915,8.1896,8.1888,8.1935,8.1926,8.1917,8.1918,8.192,8.1893,8.1896,8.1902,8.1917,8.1955,8.193,8.2007,8.2047,8.202,8.2054,8.1958,8.1882,8.2025,8.2511,8.2811,8.2727,8.2608,8.254,8.2508,8.2382,8.2286,8.2174,8.2029,8.1966,8.193,8.1933,8.1933,8.1889,8.1876,8.1826,8.1802,8.1793,8.1828,8.172,8.1764,8.1736,8.1779,8.1787,8.1794,8.1767,8.1786,8.1795,8.1839,8.1703,8.0782,7.9382,7.9045,8.0642,8.3752,8.6764,9.0588,9.2041,8.8034,8.4193,8.3129,8.2324,8.245,8.2375,8.2833,8.2986,8.2757,8.2613,8.2403,8.237,8.2303,8.2362,8.2318,8.2376,8.2334,8.2366,8.2425,8.2503,8.2514,8.2536,8.2522,8.2618,8.2614,8.274,8.2788,8.2788,8.2809,8.2855,8.2982,8.3065,8.3112,8.3205,8.3255,8.3383,8.346,8.3576,8.3714,8.3831,8.3881,8.4072,8.4196,8.4372,8.4486,8.4663,8.4849,8.5103,8.5339,8.55,8.5737,8.6009,8.6206,8.6415,8.6595,8.6812,8.7002,8.7188,8.7292,8.7299,8.7294,8.7195,8.7007,8.6644,8.6145,8.5617,8.5166,8.469,8.4333,8.3894,8.3592,8.3359,8.315,8.2961,8.2795,8.266,8.2548,8.2544,8.2485,8.24,8.2333,8.226,8.2274,8.2265,8.2266,8.2225,8.2218,8.2192,8.2177,8.2167,8.2148,8.2134,8.2135,8.2151,8.2099,8.2103,8.2081,8.2038,8.2075,8.2116,8.2171,8.2177,8.2185,8.2163,8.219,8.2163,8.2174,8.2109,8.2169,8.2115,8.2108,8.2087,8.2132,8.2106,8.2127,8.2101,8.2056,8.2021,8.2055,8.2082,8.2056,8.2035,8.2039,8.1986,8.2022,8.2006,8.2018,8.2061,8.2026,8.1994,8.1993,8.1978,8.1946,8.2006,8.2064,8.2039,8.1988,8.1978,8.2001,8.1925,8.1968,8.2015,8.2039,8.203,8.1988,8.2068,8.1959,8.1857,8.2016,8.2471,8.2761,8.2604,8.2482,8.2439,8.2384,8.2308,8.2195,8.2192,8.1903,8.1896,8.1859,8.1834,8.1824,8.1797,8.1745,8.176,8.1713,8.1693,8.1753,8.1694,8.1707,8.1708,8.1671,8.1675,8.1673,8.1674,8.1726,8.1686,8.1603,8.1522,8.0701,7.9421,7.9168,7.9791,8.2317,8.6802,9.0296,9.1183,8.6949,8.2571,8.1016,8.0787,8.1332,8.1541,8.2104,8.2511,8.251,8.237,8.2199,8.2076,8.212,8.2113,8.2091,8.2063,8.2126,8.2163,8.2199,8.2217,8.2231,8.2283,8.2375,8.242,8.2468,8.2489,8.2527,8.2617,8.2647,8.2677,8.2757,8.2887,8.2992,8.3085,8.3111,8.3153,8.3272,8.3395,8.3525,8.3662,8.3779,8.3914,8.4102,8.4146,8.4318,8.4501,8.4691,8.4885,8.5062,8.5343,8.5549,8.5782,8.6012,8.6207,8.6425,8.6559,8.6749,8.697,8.7055,8.7075,8.7026,8.68,8.6681,8.6371,8.5928,8.5456,8.4937,8.45,8.4079,8.3778,8.3468,8.3213,8.3008,8.2829,8.2654,8.2538,8.246,8.2388,8.2379,8.2348,8.234,8.2278,8.2225,8.2229,8.2225,8.2174,8.2164,8.2146,8.215,8.213,8.2123,8.2096,8.211,8.2117,8.2131,8.213,8.2107,8.2155,8.2218,8.2238,8.2231,8.2212,8.2207,8.2212,8.22,8.2252,8.2257,8.2289,8.2252,8.2259,8.223,8.2257,8.2192,8.2235,8.2228,8.2212,8.2135,8.2173,8.2104,8.2123,8.215,8.2135,8.2129,8.2144,8.2117,8.21,8.2091,8.2081,8.2022,8.2063,8.2062,8.2013,8.2037,8.2041,8.2074,8.2053,8.2053,8.2038,8.2055,8.206,8.2103,8.2132,8.216,8.213,8.2161,8.211,8.2002,8.2023,8.2445,8.2816,8.2751,8.2614,8.2555,8.2445,8.2382,8.2332,8.2287,8.2205,8.205,8.1983,8.2017,8.1958,8.1942,8.188,8.1859,8.1854,8.1855,8.1794,8.1748,8.1762,8.1767,8.1722,8.1771,8.1748,8.1767,8.1754,8.1763,8.176,8.172,8.1191,7.9817,7.8904,7.9789,8.2295,8.5597,8.8991,9.2559,9.0626,8.5681,8.3534,8.2928,8.2914,8.2414,8.2954,8.2887,8.2708,8.2612,8.2364,8.225,8.22,8.2203,8.2168,8.2199,8.2208,8.2198,8.2224,8.2249,8.2216,8.2277,8.228,8.2352,8.2334,8.2388,8.2431,8.248,8.2545,8.2585,8.2646,8.2682,8.2755,8.2808,8.2889,8.3008,8.3091,8.3151,8.3224,8.3404,8.3486,8.3638,8.3759,8.3925,8.4101,8.4291,8.4472,8.453,8.4773,8.4866,8.5092,8.5424,8.5638,8.5857,8.6053,8.6252,8.6457,8.659,8.6722,8.6782,8.6739,8.6608,8.6329,8.5995,8.5518,8.5074,8.4822,8.4408,8.3931,8.3598,8.324,8.2976,8.2776,8.2573,8.242,8.2364,8.2265,8.2173,8.2089,8.2111,8.2031,8.203,8.201,8.1993,8.1907,8.1938,8.1929,8.1883,8.1867,8.188,8.1842,8.1843,8.1825,8.178,8.1792,8.1797,8.1849,8.1844,8.1814,8.1767,8.18,8.1816,8.1816,8.1826,8.1801,8.1796,8.1821,8.1825,8.1857,8.1793,8.1828,8.1847,8.184,8.1821,8.1782,8.1801,8.1808,8.179,8.1754,8.1768,8.1765,8.1737,8.1734,8.1702,8.1744,8.1731,8.1748,8.1711,8.1742,8.1715,8.1693,8.173,8.1719,8.1733,8.1745,8.1708,8.171,8.1709,8.1714,8.1695,8.1687,8.1687,8.1681,8.1683,8.1662,8.1652,8.16,8.1648,8.1645,8.166,8.1619,8.1667,8.1667,8.1672,8.1673,8.1532,8.151,8.1795,8.2322,8.2351,8.2155,8.207,8.2046,8.1982,8.1884,8.1758,8.1688,8.1551,8.1527,8.1476,8.1427,8.1395,8.1374,8.1383,8.1351,8.1318,8.1287,8.1279,8.13,8.1318,8.1285,8.1302,8.1277,8.1311,8.133,8.1284,8.126,8.1274,8.1113,7.9983,7.8604,7.8495,8.041,8.3651,8.6864,9.1296,9.1982,8.7575,8.4558,8.3422,8.3154,8.2898,8.2319,8.2758,8.2637,8.2287,8.2056,8.1828,8.1823,8.1754,8.1778,8.1766,8.177,8.1771,8.1837,8.1803,8.1839,8.1816,8.1897,8.1918,8.1943,8.1991,8.2032,8.2082,8.2181,8.2185,8.2235,8.2301,8.2416,8.2456,8.2537,8.2596,8.2667,8.277,8.2907,8.2978,8.3105,8.3236,8.3305,8.3456,8.3631,8.3771,8.3945,8.414,8.4389,8.4583,8.4808,8.5013,8.521,8.5477,8.5639,8.5833,8.6064,8.6248,8.644,8.6537,8.6574,8.6537,8.6403,8.6197,8.5902,8.5492,8.4977,8.4514,8.4112,8.37,8.3353,8.3019,8.2728,8.2488,8.231,8.2169,8.2038,8.1928,8.1839,8.1823,8.1801,8.1757,8.1723,8.1727,8.1704,8.1688,8.1679,8.1691,8.1664,8.1688,8.1638,8.1617,8.1581,8.1591,8.1561,8.1586,8.1557,8.1569,8.1558,8.1556,8.1571,8.1562,8.1506,8.1548,8.1567,8.1583,8.1545,8.1557,8.1549,8.1554,8.1555,8.1592,8.1555,8.1564,8.1597,8.1596,8.1571,8.154,8.1577,8.1541,8.1587,8.1574,8.158,8.1566,8.1574,8.1598,8.1592,8.1563,8.1586,8.158,8.158,8.1562,8.1532,8.1544,8.1538,8.1547,8.1566,8.1568,8.1556,8.154,8.154,8.1561,8.1524,8.1498,8.1493,8.1503,8.1518,8.1532,8.1499,8.149,8.1516,8.149,8.15,8.1504,8.1555,8.1566,8.1582,8.1607,8.1567,8.1468,8.1468,8.1797,8.2301,8.2339,8.2143,8.2109,8.2021,8.1942,8.1869,8.1787,8.163,8.1581,8.1561,8.1494,8.1479,8.1461,8.1499,8.1449,8.1461,8.145,8.1439,8.1409,8.1422,8.144,8.1417,8.1398,8.1426,8.142,8.1441,8.1415,8.1398,8.1349,8.0552,7.9054,7.8469,7.8917,8.1084,8.4489,8.7701,9.1908,9.1421,8.6622,8.4026,8.3155,8.2893,8.2343,8.2744,8.2733,8.249,8.2248,8.2006,8.1938,8.1878,8.1906,8.1862,8.1886,8.1833,8.1892,8.1906,8.1963,8.1917,8.2001,8.2017,8.211,8.2086,8.2171,8.2193,8.2285,8.2333,8.2403,8.2405,8.2513,8.2556,8.2621,8.2677,8.2777,8.2833,8.2993,8.3061,8.3197,8.3309,8.3436,8.3596,8.374,8.3893,8.4081,8.4239,8.4473,8.4703,8.4882,8.5093,8.5293,8.5434,8.5661,8.5866,8.6062,8.627,8.6453,8.6642,8.6727,8.6753,8.6652,8.6484,8.6224,8.5867,8.5406,8.4956,8.4455,8.4031,8.3662,8.3304,8.3116,8.2885,8.2643,8.2461,8.2315,8.2233,8.2092,8.2041,8.1984,8.1993,8.1915,8.1897,8.1898,8.1888,8.187,8.1838,8.1819,8.1815,8.1802,8.1837,8.177,8.1768,8.1777,8.1758,8.1714,8.176,8.1752,8.1787,8.1769,8.1764,8.1749,8.1723,8.1743,8.176,8.1747,8.1782,8.1739,8.1811,8.1792,8.1781,8.1788,8.179,8.1759,8.1825,8.1833,8.1787,8.1731,8.1745,8.1766,8.1794,8.1778,8.1756,8.1759,8.1779,8.1769,8.175,8.176,8.1731,8.1731,8.1722,8.17,8.1698,8.1752,8.1762,8.1811,8.1749,8.1719,8.1705,8.1747,8.1722,8.1761,8.1727,8.1755,8.1753,8.1749,8.1752,8.1745,8.1732,8.1697,8.1671,8.1693,8.1679,8.1719,8.1748,8.1767,8.1806,8.1801,8.1769,8.1755,8.1736,8.1676,8.1836,8.2244,8.2467,8.2388,8.2259,8.2213,8.2068,8.2021,8.1912,8.1863,8.1681,8.164,8.1602,8.1574,8.1618,8.154,8.1466,8.1457,8.1468,8.1467,8.1461,8.1426,8.1422,8.1417,8.1475,8.1449,8.1437,8.1438,8.147,8.1463,8.1439,8.1296,8.0268,7.8907,7.8847,8.0708,8.3847,8.6746,9.0702,9.1523,8.6969,8.3531,8.2067,8.1846,8.213,8.1952,8.252,8.2532,8.2306,8.2179,8.2028,8.1915,8.18,8.1842,8.1847,8.1876,8.1878,8.1878,8.1873,8.1974,8.1997,8.2077,8.2044,8.2103,8.2154,8.2199,8.226,8.2363,8.2386,8.2447,8.2451,8.2486,8.2554,8.2672,8.2809,8.2961,8.3032,8.3138,8.3208,8.3358,8.3517,8.3554,8.3742,8.3882,8.4055,8.4276,8.4405,8.4639,8.4824,8.5018,8.5249,8.5489,8.5678,8.5861,8.6092,8.6341,8.6533,8.667,8.6761,8.6787,8.6788,8.6735,8.6554,8.6205,8.578,8.534,8.4939,8.4453,8.3982,8.3559,8.3245,8.2948,8.2707,8.2463,8.2288,8.2154,8.2094,8.204,8.1943,8.1904,8.1947,8.1898,8.1856,8.1825,8.1756,8.1734,8.1772,8.174,8.172,8.1681,8.1661,8.1717,8.1725,8.1661,8.1595,8.1615,8.1676,8.1673,8.1658,8.163,8.1665,8.1663,8.1699,8.1673,8.1698,8.1672,8.1668,8.1678,8.1736,8.169,8.1623,8.1614,8.1682,8.1625,8.1604,8.1567,8.1493,8.154,8.1508,8.1497,8.1501,8.1536,8.1541,8.1517,8.148,8.1491,8.1465,8.1477,8.1439,8.1395,8.1427,8.1455,8.1508,8.1432,8.1364,8.1368,8.1359,8.1421,8.1404,8.1395,8.1409,8.1412,8.1415,8.1365,8.1351,8.1359,8.1399,8.1485,8.1492,8.1543,8.1482,8.1379,8.1327,8.1582,8.2006,8.2242,8.2146,8.1972,8.1936,8.1746,8.1705,8.1582,8.1433,8.1351,8.1378,8.1352,8.1263,8.1244,8.1247,8.1247,8.1243,8.1247,8.1251,8.1167,8.1128,8.116,8.1085,8.1109,8.1082,8.1085,8.106,8.1051,8.1083,8.1087,8.0778,7.9595,7.8614,7.9233,8.1724,8.4901,8.7743,9.0939,8.9096,8.3561,8.1766,8.0186,7.9789,8.0532,8.0996,8.1817,8.1929,8.1852,8.1657,8.1627,8.1552,8.1595,8.156,8.1631,8.1577,8.1687,8.1679,8.1675,8.17,8.1739,8.1785,8.1831,8.1785,8.1861,8.1882,8.1953,8.1997,8.2067,8.2083,8.222,8.2281,8.2412,8.2417,8.2508,8.2584,8.2736,8.2827,8.2974,8.3032,8.3159,8.3223,8.3425,8.3616,8.3798,8.3965,8.4174,8.4381,8.4587,8.485,8.5033,8.5277,8.546,8.5667,8.5836,8.6056,8.6213,8.6363,8.6379,8.6458,8.6374,8.6271,8.5988,8.562,8.5153,8.4695,8.4178,8.3716,8.3307,8.2956,8.265,8.2399,8.2238,8.2083,8.1999,8.1792,8.1686,8.1728,8.1611,8.1578,8.1581,8.1541,8.1468,8.1416,8.1374,8.1358,8.1324,8.129,8.1306,8.1337,8.1318,8.1273,8.1269,8.1349,8.1326,8.1313,8.1283,8.1339,8.1364,8.1391,8.1427,8.1412,8.1437,8.1484,8.1455,8.1469,8.1457,8.1454,8.1443,8.1463,8.1435,8.1468,8.1453,8.1503,8.1493,8.1517,8.1457,8.1447,8.1427,8.1451,8.1374,8.1408,8.1401,8.1431,8.1432,8.1426,8.1412,8.1394,8.1435,8.1453,8.141,8.1389,8.1383,8.144,8.1442,8.1438,8.1443,8.14,8.1439,8.1421,8.1425,8.1485,8.1494,8.1544,8.1528,8.1563,8.1455,8.1381,8.148,8.1888,8.2215,8.2069,8.1974,8.1877,8.1851,8.1809,8.1709,8.163,8.1501,8.1428,8.1434,8.1394,8.1345,8.1335,8.131,8.1278,8.1264,8.1245,8.1227,8.1212,8.1256,8.121,8.1196,8.1194,8.123,8.1275,8.1247,8.1213,8.1193,8.1105,8.0241,7.8845,7.8431,7.9964,8.2928,8.5995,8.9999,9.2025,8.8433,8.4509,8.2905,8.249,8.2524,8.1959,8.2402,8.241,8.2249,8.2018,8.1823,8.1762,8.1731,8.1729,8.1695,8.1743,8.1735,8.1823,8.1778,8.1844,8.19,8.1904,8.1953,8.1991,8.2011,8.1996,8.2069,8.2149,8.2127,8.2205,8.2284,8.2368,8.2425,8.2507,8.2579,8.2666,8.2734,8.2882,8.2993,8.3089,8.3206,8.3333,8.3406,8.3582,8.3763,8.391,8.4098,8.4308,8.4524,8.4734,8.4968,8.5169,8.5382,8.5615,8.5814,8.6019,8.6167,8.6335,8.6458,8.6505,8.6457,8.6365,8.6204,8.5861,8.5481,8.5014,8.4584,8.4078,8.3683,8.3335,8.3017,8.2698,8.2491,8.2287,8.2197,8.2083,8.1973,8.189,8.1856,8.1812,8.1814,8.1779,8.1742,8.1706,8.1751,8.1723,8.1687,8.1677,8.1692,8.1686,8.1688,8.1669,8.1645,8.1671,8.1643,8.1646,8.1619,8.161,8.1597,8.16,8.164,8.1616,8.1581,8.1601,8.1578,8.1616,8.1589,8.1593,8.163,8.1634,8.1638,8.166,8.1637,8.1655,8.1667,8.1653,8.1645,8.163,8.1622,8.1616,8.1651,8.1676,8.1642,8.1641,8.1628,8.1629,8.1607,8.1573,8.1585,8.1597,8.1574,8.1553,8.1571,8.1573,8.154,8.159,8.1583,8.1573,8.1548,8.1544,8.155,8.1562,8.1553,8.1549,8.162,8.1656,8.1677,8.1685,8.1562,8.1498,8.1623,8.2019,8.2401,8.2268,8.2147,8.209,8.1992,8.197,8.187,8.1789,8.1675,8.1603,8.1556,8.1536,8.148,8.1469,8.1479,8.1455,8.1419,8.1391,8.1409,8.1426,8.1409,8.1397,8.1388,8.136,8.1343,8.1409,8.1373,8.1371,8.1334,8.1225,8.0198,7.8769,7.8647,8.0412,8.3559,8.6664,9.0858,9.2099,8.7954,8.4596,8.3212,8.2885,8.2487,8.2235,8.2744,8.2662,8.2398,8.2143,8.1954,8.1909,8.1897,8.188,8.1848,8.1872,8.1899,8.1924,8.1941,8.198,8.2021,8.2051,8.2095,8.2138,8.2151,8.222,8.2263,8.2318,8.2363,8.2429,8.2481,8.2559,8.2635,8.2723,8.2778,8.2845,8.2936,8.3035,8.3162,8.3253,8.3355,8.3505,8.3622,8.3731,8.3944,8.4066,8.4259,8.4499,8.4685,8.4895,8.5138,8.5362,8.5574,8.5811,8.6017,8.6189,8.6351,8.6541,8.6665,8.6726,8.6662,8.6496,8.6377,8.6015,8.5616,8.5165,8.4685,8.4253,8.3862,8.3491,8.3153,8.2864,8.2605,8.2436,8.2285,8.2113,8.2013,8.1969,8.1918,8.1894,8.1858,8.1794,8.1796,8.1779,8.1784,8.1733,8.172,8.1721,8.1671,8.1684,8.1661,8.1615,8.1637,8.1623,8.1599,8.1603,8.1569,8.1584,8.1582,8.1569,8.1552,8.158,8.1562,8.1557,8.1573,8.1536,8.1529,8.1532,8.157,8.1594,8.1545,8.1548,8.1566,8.1537,8.1589,8.1548,8.1569,8.1552,8.1539,8.1519,8.1544,8.1474,8.1473,8.1452,8.1448,8.1455,8.1448,8.1444,8.1457,8.144,8.1473,8.1444,8.1429,8.1436,8.1452,8.1464,8.1407,8.139,8.139,8.1406,8.1439,8.1389,8.141,8.1451,8.1464,8.1514,8.1449,8.1323,8.1313,8.16,8.2061,8.2123,8.1917,8.1865,8.1786,8.1711,8.1569,8.1535,8.1473,8.1303,8.1288,8.1251,8.1177,8.1126,8.1086,8.1098,8.105,8.1103,8.1017,8.1065,8.1045,8.104,8.0998,8.0964,8.0965,8.1016,8.1007,8.0983,8.0934,8.0908,8.0307,7.8935,7.8257,7.9461,8.2296,8.5354,8.8809,9.1487,8.8457,8.3786,8.1827,8.1334,8.1508,8.1347,8.1986,8.2015,8.188,8.1638,8.1406,8.1345,8.1296,8.1339,8.1319,8.1317,8.1319,8.1398,8.1367,8.1422,8.1366,8.1416,8.1444,8.1563,8.156,8.1631,8.1631,8.1699,8.1722,8.1768,8.1866,8.1927,8.1962,8.2036,8.2111,8.2167,8.2257,8.2408,8.2518,8.2672,8.273,8.2857,8.3027,8.3222,8.3387,8.3526,8.3627,8.3809,8.4014,8.4253,8.4449,8.466,8.4904,8.5111,8.537,8.5521,8.5776,8.5955,8.6045,8.6064,8.6056,8.594,8.5692,8.5371,8.488,8.4619,8.4143,8.3656,8.3271,8.2875,8.2583,8.217,8.1933,8.167,8.163,8.1455,8.1354,8.1203,8.1171,8.1084,8.1065,8.1016,8.1006,8.0974,8.0955,8.0917,8.0919,8.0951,8.0944,8.0966,8.0938,8.0901,8.0893,8.0887,8.0845,8.0848,8.0854,8.088,8.0865,8.0836,8.0905,8.0946,8.0893,8.0858,8.0883,8.0838,8.0847,8.0836,8.0826,8.0827,8.0784,8.0779,8.0827,8.0791,8.0755,8.0721,8.0687,8.0709,8.0699,8.0682,8.0651,8.0673,8.0675,8.0657,8.0612,8.0594,8.0551,8.0572,8.0562,8.0558,8.0586,8.0606,8.0597,8.0506,8.0516,8.0526,8.0537,8.0508,8.0484,8.0546,8.0566,8.0579,8.0624,8.0601,8.0516,8.0431,8.0636,8.103,8.1302,8.1136,8.1089,8.101,8.0851,8.0819,8.0662,8.0559,8.0443,8.0434,8.0345,8.0358,8.0342,8.0336,8.0331,8.0329,8.0298,8.0297,8.0274,8.027,8.0232,8.0133,8.0192,8.0228,8.0286,8.0226,8.0187,8.0166,8.013,7.9563,7.8234,7.7665,7.8041,8.0289,8.3457,8.628,8.9778,8.8994,8.3712,8.0431,7.915,7.9336,7.9911,8.034,8.0967,8.1056,8.0942,8.0774,8.0634,8.0602,8.0638,8.0625,8.0645,8.0649,8.0697,8.0741,8.0722,8.0724,8.0774,8.0806,8.0873,8.0924,8.1019,8.104,8.1102,8.1144,8.1208,8.1248,8.1323,8.143,8.1496,8.1537,8.1607,8.1715,8.1816,8.1934,8.2086,8.2186,8.2279,8.2421,8.2582,8.2785,8.2933,8.3114,8.3294,8.3527,8.3784,8.4001,8.4175,8.4292,8.4519,8.4776,8.4952,8.5143,8.5291,8.5437,8.5592,8.557,8.5508,8.5335,8.5034,8.4641,8.4145,8.3635,8.3197,8.2772,8.244,8.2125,8.1951,8.1711,8.1497,8.128,8.1156,8.1098,8.0961,8.0927,8.0881,8.0849,8.0783,8.0761,8.0742,8.071,8.0678,8.0693,8.0658,8.0647,8.0672,8.0662,8.0623,8.0606,8.0606,8.066,8.0649,8.0605,8.0603,8.0654,8.0663,8.0638,8.0606,8.0622,8.0585,8.0663,8.0711,8.0659,8.0597,8.0654,8.0652,8.0669,8.0636,8.0661,8.063,8.0676,8.0681,8.0725,8.0656,8.0664,8.0646,8.0638,8.0658,8.0653,8.0668,8.0627,8.0651,8.0618,8.0574,8.0591,8.0644,8.0635,8.0643,8.0632,8.0624,8.0617,8.0628,8.0614,8.0626,8.0636,8.0618,8.0622,8.0657,8.0668,8.0688,8.0711,8.0764,8.0628,8.0597,8.0618,8.0943,8.1424,8.1369,8.1208,8.1153,8.1057,8.1012,8.0947,8.0863,8.0696,8.0614,8.0577,8.0589,8.0552,8.0573,8.048,8.0527,8.0465,8.0489,8.0479,8.043,8.0452,8.0476,8.0477,8.0446,8.0455,8.0468,8.0532,8.0486,8.044,8.0279,7.9208,7.7911,7.7828,7.973,8.2908,8.5937,8.6044,9.1213,8.9422,8.4118,8.2325,8.147,8.174,8.0948,8.1814,8.1498,8.1596,8.1164,8.1192,8.0916,8.1075,8.0872,8.1085,8.0897,8.106,8.093,8.1121,8.1038,8.1162,8.1071,8.1248,8.1164,8.1345,8.1288,8.1371,8.1392,8.1528,8.1468,8.1616,8.164,8.1782,8.1799,8.1914,8.1965,8.2055,8.2114,8.2268,8.237,8.2497,8.2584,8.2713,8.2893,8.3087,8.3262,8.3425,8.3598,8.382,8.4051,8.423,8.4485,8.4724,8.4893,8.5109,8.5264,8.5393,8.5577,8.5679,8.5815,8.5796,8.569,8.5388,8.5102,8.4638,8.4242,8.3739,8.3357,8.2892,8.2593,8.221,8.1984,8.1709,8.1569,8.1418,8.1407,8.125,8.1237,8.1118,8.1117,8.1069,8.1096,8.0976,8.0991,8.0936,8.0997,8.0956,8.1025,8.0934,8.0993,8.0911,8.0899,8.0865,8.0897,8.0873,8.0949,8.0865,8.0877,8.0862,8.0937,8.0886,8.0889,8.0903,8.0907,8.0858,8.0943,8.0879,8.0933,8.0887,8.0934,8.0955,8.0958,8.0922,8.0935,8.0912,8.0923,8.0945,8.0954,8.0893,8.0904,8.087,8.0932,8.091,8.092,8.0908,8.0892,8.088,8.0883,8.0871,8.087,8.0882,8.0889,8.0882,8.0881,8.0879,8.0913,8.0885,8.0899,8.0885,8.0879,8.0865,8.0908,8.0869,8.0857,8.0853,8.0848,8.0866,8.0887,8.0894,8.0894,8.0934,8.0944,8.0991,8.0981,8.0895,8.0787,8.0928,8.1267,8.1726,8.156,8.1433,8.1357,8.1272,8.1258,8.1122,8.1016,8.0884,8.0852,8.0874,8.0786,8.0771,8.0764,8.0806,8.0756,8.0759,8.0729,8.0718,8.0714,8.0738,8.0719,8.0726,8.0697,8.0756,8.0767,8.0759,8.0716,8.0743,8.0475,7.9264,7.8459,7.7847,7.8966,8.1873,8.5089,8.9026,9.1916,8.9217,8.4714,8.2899,8.2359,8.224,8.1678,8.2187,8.2,8.1749,8.1437,8.1358,8.1231,8.1281,8.1253,8.1272,8.1288,8.1309,8.131,8.1389,8.138,8.1438,8.1432,8.1529,8.1543,8.1603,8.1594,8.1675,8.1711,8.1783,8.1821,8.1859,8.1893,8.1986,8.2044,8.2119,8.2211,8.2317,8.2448,8.2566,8.2659,8.2799,8.2891,8.3005,8.3261,8.3389,8.3574,8.3774,8.3947,8.4162,8.4357,8.4483,8.4652,8.4904,8.5179,8.5382,8.556,8.5798,8.5959,8.6096,8.6156,8.6196,8.6085,8.5853,8.5534,8.5105,8.4653,8.4201,8.3773,8.3344,8.3144,8.2787,8.2487,8.225,8.2032,8.1862,8.1711,8.1584,8.1486,8.1452,8.1394,8.1354,8.1334,8.1305,8.1316,8.1316,8.1269,8.1259,8.1261,8.126,8.1222,8.1233,8.1199,8.1174,8.1186,8.1176,8.1183,8.1144,8.1162,8.1169,8.1185,8.1144,8.1165,8.1121,8.1172,8.1178,8.1196,8.1131,8.1152,8.1142,8.1199,8.1161,8.1192,8.1159,8.1183,8.1162,8.1201,8.1155,8.1216,8.1207,8.121,8.119,8.1204,8.1155,8.1135,8.116,8.1159,8.1147,8.1145,8.1164,8.117,8.1161,8.1152,8.1144,8.1124,8.1116,8.1137,8.1115,8.1161,8.1104,8.1097,8.1101,8.11,8.106,8.11,8.1089,8.1097,8.1092,8.1097,8.1054,8.1101,8.1118,8.1094,8.1055,8.1065,8.1086,8.108,8.1112,8.1143,8.1149,8.1158,8.1209,8.1116,8.0994,8.1123,8.1482,8.1766,8.1915,8.1738,8.1604,8.1539,8.1491,8.1401,8.1309,8.116,8.1072,8.1059,8.1023,8.1008,8.0975,8.0935,8.0938,8.0957,8.0906,8.0874,8.088,8.0914,8.091,8.0918,8.089,8.0918,8.0909,8.096,8.0958,8.0916,8.087,8.0166,7.8676,7.7985,7.915,8.1961,8.5231,8.9079,9.2103,9.13,8.6723,8.3852,8.2882,8.2559,8.2115,8.2276,8.2453,8.2142,8.1945,8.165,8.157,8.149,8.1527,8.1459,8.1546,8.1497,8.1596,8.1552,8.1685,8.1649,8.1749,8.168,8.1834,8.1807,8.191,8.189,8.1964,8.196,8.2077,8.2083,8.2215,8.2176,8.2345,8.2388,8.2494,8.2586,8.2702,8.2721,8.2917,8.2988,8.3149,8.321,8.3399,8.3548,8.3727,8.3877,8.4078,8.4279,8.4468,8.4711,8.4945,8.513,8.5349,8.5551,8.578,8.5983,8.6044,8.622,8.6375,8.646,8.6405,8.6279,8.6019,8.5722,8.5297,8.4866,8.4361,8.3941,8.3564,8.3194,8.2925,8.2614,8.2361,8.2212,8.2047,8.1999,8.1945,8.1853,8.1813,8.1772,8.1726,8.1688,8.1664,8.1608,8.1578,8.1575,8.1562,8.1541,8.1536,8.1564,8.1579,8.1517,8.1523,8.1545,8.1497,8.154,8.1515,8.1497,8.1487,8.1532,8.1527,8.1531,8.1484,8.149,8.1492,8.1531,8.1498,8.1559,8.1507,8.1543,8.1565,8.1569,8.1551,8.1588,8.1556,8.1585,8.1578,8.1608,8.1577,8.1617,8.1592,8.1569,8.1543,8.154,8.1531,8.1583,8.1549,8.1539,8.1511,8.1542,8.1523,8.1569,8.1518,8.1487,8.149,8.1492,8.1473,8.1485,8.1467,8.1489,8.147,8.1512,8.1448,8.1458,8.1475,8.1532,8.1492,8.1492,8.1457,8.144,8.1465,8.1454,8.1491,8.1458,8.1444,8.1468,8.1466,8.1477,8.1496,8.1522,8.1543,8.1554,8.1522,8.1393,8.1407,8.1644,8.2152,8.2289,8.2089,8.2017,8.1976,8.1889,8.1851,8.1695,8.1595,8.1467,8.1446,8.139,8.1386,8.1321,8.135,8.135,8.132,8.1292,8.1241,8.1215,8.1244,8.1274,8.1275,8.1218,8.1231,8.1226,8.1283,8.1294,8.1224,8.1278,8.0963,7.9699,7.8509,7.8884,8.1127,8.4447,8.7589,9.1575,9.0782,8.568,8.301,8.1977,8.1982,8.1941,8.1962,8.2501,8.2437,8.2135,8.1932,8.173,8.1666,8.164,8.1658,8.1639,8.1624,8.1638,8.1723,8.1714,8.1826,8.1843,8.1915,8.1897,8.1929,8.1918,8.193,8.2038,8.212,8.2122,8.2115,8.2155,8.2255,8.237,8.2486,8.2586,8.2694,8.2742,8.2836,8.2947,8.3066,8.3197,8.3309,8.3373,8.358,8.3664,8.3896,8.404,8.4279,8.4529,8.4742,8.4956,8.5136,8.54,8.5616,8.5802,8.5997,8.6196,8.6388,8.6519,8.6559,8.6526,8.6451,8.6261,8.5968,8.5578,8.5166
