-1.8641,-1.8731,-1.8956,-1.8955,-1.8831,-1.8625,-1.8551,-1.8594,-1.8575,-1.869,-1.8521,-1.8434,-1.8231,-1.8444,-1.8516,-1.8246,-1.8177,-1.8434,-1.8477,-1.8282,-1.8301,-1.839,-1.8473,-1.8652,-1.9017,-1.9416,-1.9412,-1.9281,-1.9073,-1.9046,-1.8874,-1.8483,-1.797,-1.7892,-1.8172,-1.8291,-1.8573,-1.8536,-1.8346,-1.8475,-1.853,-1.7979,-1.7605,-1.7617,-1.7832,-1.7932,-1.8113,-1.792,-1.7627,-1.7507,-1.8003,-1.9832,-2.2867,-2.5281,-2.8223,-3.1349,-3.1379,-2.8016,-1.5804,-0.49858,0.06175,0.1855,0.20676,0.040968,-0.19357,-0.57311,-1.0623,-1.3898,-1.6368,-1.739,-1.8543,-1.8421,-1.8653,-1.8521,-1.9155,-1.9039,-1.9134,-1.8613,-1.9173,-1.9599,-2.0471,-1.9838,-1.9571,-1.9296,-1.9521,-1.9259,-1.9569,-1.9664,-1.9884,-1.9775,-2.0017,-2.0067,-2.0446,-2.0398,-2.037,-2.0298,-2.061,-2.0842,-2.0852,-2.054,-2.1015,-2.1212,-2.1009,-2.0679,-2.0279,-2.039,-2.0538,-2.0638,-2.0339,-2.018,-2.0208,-2.0374,-2.0627,-2.1091,-2.1094,-2.0879,-2.0805,-2.0867,-2.1104,-2.0929,-2.0497,-2.0503,-2.0304,-2.0207,-1.9908,-1.973,-1.9349,-1.9323,-1.9229,-1.8988,-1.8442,-1.8277,-1.8236,-1.8507,-1.8564,-1.8493,-1.8123,-1.8179,-1.8292,-1.8524,-1.8493,-1.8454,-1.8147,-1.8199,-1.8392,-1.8638,-1.8637,-1.8454,-1.8116,-1.81,-1.8166,-1.8372,-1.8342,-1.8266,-1.8071,-1.8227,-1.8361,-1.8409,-1.8138,-1.8078,-1.7924,-1.8212,-1.8299,-1.8226,-1.8143,-1.824,-1.8231,-1.819,-1.7866,-1.7724,-1.7662,-1.7889,-1.7878,-1.8026,-1.799,-1.8172,-1.8247,-1.8485,-1.853,-1.862,-1.8718,-1.8963,-1.8862,-1.8409,-1.8325,-1.8241,-1.8355,-1.8356,-1.8088,-1.8062,-1.7765,-1.7601,-1.7501,-1.7597,-1.7472,-1.7398,-1.7327,-1.7356,-1.736,-1.7422,-1.7563,-1.7563,-1.7633,-1.8285,-2.0458,-2.3419,-2.5744,-2.9847,-3.2364,-3.2268,-2.3099,-0.81422,0.36461,0.70032,0.60984,0.36248,-0.091713,-0.27452,-0.78713,-1.202,-1.5103,-1.6807,-1.7359,-1.7632,-1.8161,-1.8512,-1.8778,-1.86,-1.849,-1.838,-1.8546,-1.887,-1.9199,-1.9058,-1.9234,-1.9437,-1.9664,-1.9832,-1.9807,-1.9565,-1.9489,-1.9218,-1.912,-1.9261,-1.9608,-1.9803,-2.0025,-2.0108,-2.009,-2.0253,-2.0358,-2.0233,-2.0228,-2.0536,-2.0946,-2.1028,-2.093,-2.0301,-2.0082,-2.0279,-2.0808,-2.1053,-2.0395,-2.005,-1.9798,-2.021,-2.0828,-2.0604,-2.0592,-2.0478,-2.0616,-2.1005,-2.0951,-2.0354,-2.0148,-1.9807,-1.9684,-1.9752,-1.9249,-1.8811,-1.8743,-1.8747,-1.8432,-1.8308,-1.8364,-1.8383,-1.8034,-1.7708,-1.7672,-1.7858,-1.8103,-1.8386,-1.8433,-1.8267,-1.8017,-1.7869,-1.7821,-1.797,-1.8055,-1.8053,-1.8115,-1.8156,-1.8189,-1.8145,-1.8099,-1.8031,-1.8184,-1.8397,-1.8598,-1.8363,-1.7929,-1.7726,-1.7866,-1.7873,-1.7909,-1.8039,-1.805,-1.7969,-1.7908,-1.7945,-1.8029,-1.8102,-1.8198,-1.8237,-1.8103,-1.8248,-1.8375,-1.8375,-1.8314,-1.8464,-1.8766,-1.8706,-1.8636,-1.8527,-1.8364,-1.8025,-1.8029,-1.8133,-1.8271,-1.844,-1.8408,-1.8418,-1.8196,-1.7975,-1.817,-1.8139,-1.7888,-1.7679,-1.7577,-1.7865,-1.8018,-1.8029,-1.7842,-1.7837,-1.7686,-1.8114,-2.0129,-2.3414,-2.625,-3.0573,-3.2991,-3.2707,-2.348,-0.89349,0.22182,0.5526,0.50398,0.27267,-0.15161,-0.57275,-0.83775,-1.2173,-1.5517,-1.7252,-1.8515,-1.8494,-1.8907,-1.8558,-1.8987,-1.8971,-1.9358,-1.9127,-1.961,-1.9804,-2.0164,-1.9803,-1.9821,-1.9861,-2.0242,-2.0146,-2.0298,-2.0309,-2.0552,-2.032,-2.0344,-2.0348,-2.0611,-2.0769,-2.1051,-2.1012,-2.1172,-2.1118,-2.1249,-2.1275,-2.1335,-2.1388,-2.1567,-2.1954,-2.2079,-2.1739,-2.1421,-2.1258,-2.1326,-2.1376,-2.1281,-2.119,-2.1203,-2.1314,-2.1454,-2.1688,-2.1867,-2.2046,-2.2127,-2.2103,-2.1886,-2.1631,-2.1414,-2.1331,-2.1094,-2.0919,-2.0683,-2.0489,-2.036,-2.0213,-1.9943,-1.9883,-1.9786,-1.9965,-1.9838,-1.9609,-1.9321,-1.9428,-1.9603,-1.9823,-1.9849,-1.9694,-1.9549,-1.9653,-1.9695,-1.9964,-2.0126,-2.0042,-1.9782,-1.9654,-1.9651,-1.9967,-2.0021,-2.0006,-1.9766,-1.9951,-2.0025,-2.0018,-1.9666,-1.9655,-1.9683,-1.9777,-1.9878,-1.9971,-1.9769,-1.9791,-1.9646,-1.9754,-1.9738,-1.9721,-1.9602,-1.9615,-1.968,-1.9742,-1.9638,-1.9698,-1.9676,-1.9893,-1.9958,-2.0109,-2.027,-2.0411,-2.0471,-2.0562,-2.054,-2.0629,-2.0376,-1.9995,-1.9803,-1.9915,-2.0147,-2.02,-2.0182,-2.0214,-1.9839,-1.9631,-1.9578,-1.9549,-1.9565,-1.954,-1.9531,-1.9589,-1.9588,-1.9555,-1.9573,-1.9581,-1.9692,-2.0607,-2.3127,-2.5831,-2.8639,-3.2448,-3.3726,-3.2557,-2.2456,-0.99711,-0.23701,0.062596,0.13288,0.088807,-0.23719,-0.65867,-1.1294,-1.4722,-1.7501,-1.9024,-1.9915,-2.0057,-2.0606,-2.0729,-2.1037,-2.0836,-2.1017,-2.091,-2.1143,-2.1019,-2.1258,-2.1232,-2.1395,-2.1309,-2.15,-2.1457,-2.1887,-2.2063,-2.2436,-2.2517,-2.2526,-2.2223,-2.2239,-2.2168,-2.2338,-2.2414,-2.2511,-2.2479,-2.252,-2.2519,-2.2684,-2.2718,-2.2819,-2.2792,-2.2759,-2.2804,-2.2921,-2.2714,-2.2386,-2.2281,-2.2365,-2.2496,-2.2539,-2.2623,-2.2724,-2.2807,-2.2909,-2.3059,-2.3248,-2.3366,-2.3383,-2.3298,-2.3141,-2.2984,-2.2821,-2.2741,-2.2496,-2.229,-2.1988,-2.1857,-2.171,-2.1827,-2.1839,-2.1799,-2.1632,-2.1556,-2.1539,-2.1623,-2.1692,-2.179,-2.1936,-2.2087,-2.2089,-2.2076,-2.2055,-2.2095,-2.2137,-2.2279,-2.2304,-2.2381,-2.2442,-2.2461,-2.2429,-2.2428,-2.2438,-2.2528,-2.2539,-2.2581,-2.2583,-2.2856,-2.3053,-2.2939,-2.2668,-2.2568,-2.262,-2.2705,-2.2728,-2.2849,-2.2827,-2.2927,-2.2938,-2.3002,-2.3041,-2.3247,-2.3445,-2.3666,-2.3838,-2.3986,-2.4048,-2.4181,-2.4142,-2.4291,-2.4262,-2.4146,-2.4032,-2.4018,-2.3986,-2.3949,-2.3844,-2.4066,-2.433,-2.4359,-2.4153,-2.4086,-2.4123,-2.425,-2.4354,-2.4366,-2.4197,-2.4174,-2.4161,-2.4179,-2.4325,-2.4814,-2.6734,-3.0004,-3.2452,-3.5594,-3.8432,-3.7907,-3.3596,-2.1693,-1.2659,-0.76215,-0.60709,-0.60323,-0.66029,-1.042,-1.4344,-1.8274,-2.1362,-2.3751,-2.5212,-2.6348,-2.6718,-2.6978,-2.679,-2.6768,-2.6763,-2.7236,-2.7371,-2.7732,-2.7994,-2.8305,-2.8227,-2.8316,-2.834,-2.8444,-2.8517,-2.8752,-2.8874,-2.9196,-2.929,-2.9472,-2.9486,-2.9697,-2.994,-3.0315,-3.0671,-3.0691,-3.03,-3.024,-3.0345,-3.0601,-3.0705,-3.0981,-3.1171,-3.0982,-3.074,-3.0602,-3.0625,-3.0792,-3.0875,-3.0948,-3.1059,-3.1153,-3.1224,-3.1171,-3.1333,-3.1519,-3.1851,-3.2075,-3.2164,-3.2234,-3.2381,-3.1856,-3.1217,-3.0958,-3.0792,-3.0794,-3.1072,-3.0948,-3.0633,-3.0236,-3.0276,-3.0304,-3.0462,-3.0426,-3.0513,-3.0622,-3.0934,-3.0894,-3.084,-3.0573,-3.046,-3.0583,-3.1004,-3.1317,-3.1416,-3.1171,-3.0915,-3.0973,-3.1095,-3.1009,-3.1198,-3.1249,-3.1463,-3.1613,-3.1656,-3.1477,-3.1358,-3.1562,-3.2175,-3.2084,-3.1721,-3.1309,-3.138,-3.1509,-3.1734,-3.227,-3.2238,-3.1913,-3.1769,-3.2075,-3.2325,-3.2368,-3.2418,-3.2533,-3.2936,-3.332,-3.3453,-3.3505,-3.3458,-3.3317,-3.3026,-3.2885,-3.312,-3.3226,-3.3186,-3.3084,-3.3308,-3.3178,-3.2854,-3.2712,-3.3008,-3.3037,-3.2912,-3.284,-3.2993,-3.3053,-3.3105,-3.3088,-3.3104,-3.3234,-3.4136,-3.6589,-3.9729,-4.2446,-4.6374,-4.8182,-4.728,-3.7383,-2.35,-1.4302,-1.1138,-1.1619,-1.3588,-1.7884,-1.9995,-2.4945,-2.8949,-3.183,-3.3664,-3.4476,-3.4838,-3.5082,-3.5313,-3.5551,-3.5723,-3.5885,-3.6113,-3.6235,-3.6382,-3.6452,-3.6632,-3.6795,-3.6755,-3.6821,-3.6861,-3.6983,-3.7077,-3.7209,-3.7325,-3.7533,-3.7709,-3.7815,-3.7891,-3.7993,-3.814,-3.8265,-3.8394,-3.8409,-3.8491,-3.8611,-3.8715,-3.8848,-3.911,-3.9196,-3.905,-3.8808,-3.8809,-3.8663,-3.8539,-3.8498,-3.861,-3.8717,-3.8804,-3.8946,-3.9096,-3.9259,-3.941,-3.9544,-3.9457,-3.9211,-3.8861,-3.8653,-3.8547,-3.8334,-3.8095,-3.791,-3.7727,-3.7533,-3.7376,-3.7279,-3.7158,-3.7109,-3.7064,-3.6996,-3.6964,-3.6988,-3.7031,-3.7102,-3.7064,-3.7071,-3.7078,-3.7201,-3.7282,-3.7258,-3.7187,-3.7254,-3.7234,-3.7187,-3.7112,-3.7248,-3.7332,-3.7413,-3.7434,-3.7423,-3.7343,-3.7275,-3.731,-3.767,-3.7695,-3.7409,-3.7271,-3.7201,-3.7773,-3.7873,-3.752,-3.7187,-3.7018,-3.7045,-3.711,-3.7113,-3.7162,-3.7298,-3.7429,-3.7568,-3.7797,-3.8282,-3.8307,-3.8066,-3.7905,-3.7926,-3.8025,-3.7825,-3.7506,-3.7277,-3.7225,-3.732,-3.7336,-3.7519,-3.7617,-3.7475,-3.7208,-3.7006,-3.6895,-3.6784,-3.6747,-3.6742,-3.6762,-3.6735,-3.6731,-3.6715,-3.6687,-3.6752,-3.7908,-4.0668,-4.3648,-4.6599,-5.0516,-5.1943,-4.9534,-3.7312,-2.277,-1.7365,-1.3382,-1.3825,-1.7109,-2.1351,-2.6577,-3.0997,-3.2926,-3.5143,-3.6673,-3.6977,-3.7408,-3.7497,-3.7802,-3.7745,-3.7971,-3.7978,-3.8237,-3.8186,-3.8383,-3.8336,-3.8593,-3.8631,-3.8762,-3.8637,-3.875,-3.8739,-3.9012,-3.913,-3.9377,-3.9308,-3.936,-3.9259,-3.9461,-3.9455,-3.9599,-3.962,-3.9697,-3.9622,-3.9655,-3.9691,-3.976,-3.9804,-3.9847,-3.9797,-3.9804,-3.9686,-3.9679,-3.96,-3.9532,-3.9459,-3.9616,-3.9778,-3.9643,-3.9454,-3.9554,-3.9682,-3.9842,-3.9837,-3.9756,-3.9548,-3.9282,-3.9047,-3.8894,-3.8793,-3.8442,-3.8191,-3.7936,-3.7779,-3.7691,-3.7496,-3.7336,-3.7094,-3.6836,-3.682,-3.6865,-3.6806,-3.663,-3.6593,-3.6649,-3.6828,-3.6879,-3.6867,-3.677,-3.6696,-3.6618,-3.6745,-3.6737,-3.6691,-3.6661,-3.6597,-3.6454,-3.6466,-3.6668,-3.6904,-3.6869,-3.6664,-3.6418,-3.6279,-3.6327,-3.6274,-3.6281,-3.6368,-3.6309,-3.6169,-3.596,-3.5974,-3.605,-3.6085,-3.5987,-3.5892,-3.5802,-3.5893,-3.5814,-3.5901,-3.5873,-3.6012,-3.6037,-3.6275,-3.6515,-3.6751,-3.6703,-3.661,-3.636,-3.6208,-3.5967,-3.5877,-3.5875,-3.6087,-3.6059,-3.5809,-3.5752,-3.5922,-3.5965,-3.5798,-3.5468,-3.5152,-3.4874,-3.4928,-3.4964,-3.5034,-3.5246,-3.5144,-3.4749,-3.4652,-3.5074,-3.6865,-3.9081,-4.1267,-4.3388,-4.7336,-4.9421,-4.8394,-3.7632,-2.3253,-1.3928,-1.1332,-1.174,-1.4179,-1.688,-2.1041,-2.6422,-2.9915,-3.2705,-3.384,-3.4808,-3.4896,-3.5591,-3.5586,-3.5983,-3.5656,-3.6079,-3.5857,-3.6152,-3.5819,-3.6119,-3.6031,-3.6189,-3.6011,-3.6221,-3.6301,-3.6706,-3.6524,-3.641,-3.6343,-3.6667,-3.6788,-3.6907,-3.6845,-3.6997,-3.6908,-3.721,-3.7297,-3.7207,-3.6961,-3.7056,-3.712,-3.7183,-3.7035,-3.69,-3.6723,-3.6731,-3.6718,-3.6761,-3.6875,-3.6833,-3.6713,-3.6626,-3.6864,-3.7045,-3.7149,-3.7109,-3.7092,-3.7073,-3.7029,-3.6819,-3.6788,-3.6506,-3.6255,-3.5916,-3.5802,-3.56,-3.539,-3.5082,-3.492,-3.4681,-3.4427,-3.4177,-3.4149,-3.426,-3.4155,-3.3886,-3.4006,-3.3992,-3.404,-3.394,-3.3962,-3.3951,-3.3957,-3.3894,-3.3907,-3.3817,-3.3735,-3.3505,-3.3547,-3.3655,-3.3828,-3.3749,-3.3646,-3.3567,-3.3667,-3.3719,-3.3938,-3.3765,-3.3518,-3.3377,-3.3354,-3.3168,-3.3356,-3.3315,-3.3439,-3.3157,-3.3059,-3.3084,-3.3322,-3.3453,-3.3576,-3.3551,-3.3667,-3.3809,-3.3885,-3.3753,-3.345,-3.3232,-3.3249,-3.3244,-3.3163,-3.2986,-3.2961,-3.299,-3.2836,-3.2573,-3.2523,-3.2307,-3.2118,-3.2099,-3.2214,-3.2188,-3.2273,-3.2239,-3.2227,-3.2156,-3.2426,-3.3146,-3.5709,-3.8544,-4.0674,-4.3769,-4.5229,-4.4303,-3.6833,-2.5647,-1.8242,-1.426,-1.228,-1.2793,-1.6296,-2.0614,-2.4582,-2.7535,-2.9763,-3.1077,-3.1363,-3.1607,-3.1836,-3.2153,-3.2416,-3.2565,-3.2616,-3.2628,-3.2857,-3.2985,-3.2802,-3.2832,-3.3011,-3.3329,-3.3517,-3.3179,-3.2894,-3.3052,-3.3073,-3.3111,-3.3136,-3.3364,-3.3573,-3.3672,-3.3607,-3.3675,-3.3724,-3.3541,-3.3513,-3.3897,-3.3732,-3.3288,-3.2987,-3.3011,-3.3067,-3.3034,-3.3008,-3.29,-3.2904,-3.3158,-3.3041,-3.2738,-3.2491,-3.2556,-3.2983,-3.3291,-3.3198,-3.2988,-3.3063,-3.3318,-3.3473,-3.3421,-3.3024,-3.2654,-3.2359,-3.218,-3.2046,-3.2102,-3.1928,-3.1542,-3.1139,-3.1089,-3.1363,-3.1375,-3.1323,-3.1143,-3.0868,-3.0908,-3.0998,-3.115,-3.0892,-3.0766,-3.0915,-3.0846,-3.0729,-3.0694,-3.0593,-3.0679,-3.0706,-3.0951,-3.09,-3.0757,-3.0741,-3.0732,-3.0503,-3.0413,-3.0235,-3.0194,-3.0104,-3.0279,-3.0382,-3.0263,-3.0227,-3.0294,-3.0499,-3.0689,-3.0599,-3.055,-3.0625,-3.0929,-3.1153,-3.1173,-3.109,-3.1041,-3.1092,-3.0905,-3.0518,-3.0235,-3.0212,-3.041,-3.045,-3.0402,-3.0292,-3.0162,-3.0041,-3.0041,-3.0007,-2.9805,-2.9557,-2.9465,-2.9704,-2.9954,-2.9939,-2.9782,-2.9638,-2.9601,-3.0883,-3.3876,-3.6548,-3.9217,-4.263,-4.3171,-4.0642,-2.9278,-2.2933,-1.5364,-1.0688,-1.0149,-1.0233,-1.3689,-1.6923,-2.1257,-2.4245,-2.7201,-2.8548,-2.9876,-2.9797,-3.0246,-3.0151,-3.0564,-3.0296,-3.0564,-3.0418,-3.074,-3.0559,-3.0954,-3.087,-3.0992,-3.0849,-3.118,-3.109,-3.138,-3.1223,-3.1305,-3.1286,-3.1611,-3.1584,-3.1715,-3.1577,-3.1741,-3.1744,-3.1902,-3.189,-3.2041,-3.2002,-3.1935,-3.1883,-3.1958,-3.1951,-3.1824,-3.1784,-3.1747,-3.1722,-3.1687,-3.1662,-3.1611,-3.1535,-3.1304,-3.1261,-3.1296,-3.1613,-3.17,-3.187,-3.1842,-3.1922,-3.1819,-3.1847,-3.1457,-3.1252,-3.1065,-3.0958,-3.0516,-3.0191,-2.9807,-2.9873,-2.9838,-2.9815,-2.9405,-2.93,-2.9266,-2.9407,-2.9494,-2.9503,-2.9394,-2.9621,-2.9646,-2.9552,-2.9243,-2.9305,-2.9327,-2.9452,-2.9378,-2.9528,-2.9597,-2.9585,-2.9383,-2.931,-2.9219,-2.9327,-2.9218,-2.9326,-2.9292,-2.9412,-2.933,-2.9283,-2.9255,-2.9343,-2.9093,-2.9089,-2.8994,-2.9222,-2.9398,-2.9768,-2.9927,-2.9945,-2.9754,-2.9901,-2.9952,-3.003,-2.951,-2.8947,-2.8722,-2.89,-2.9121,-2.9106,-2.9208,-2.9277,-2.9014,-2.8947,-2.8829,-2.9016,-2.8752,-2.8825,-2.8475,-2.8459,-2.8425,-2.8192,-2.8163,-2.8116,-2.8305,-2.9529,-3.2129,-3.501,-3.7594,-4.1521,-4.3248,-4.1787,-3.075,-1.6917,-0.83932,-0.55239,-0.61698,-0.83369,-1.2669,-1.7184,-2.1649,-2.4681,-2.6126,-2.7592,-2.8684,-2.8826,-2.9425,-2.9327,-2.9692,-2.9421,-2.9778,-2.9562,-2.9783,-2.9628,-2.9923,-2.9761,-3.0262,-3.0093,-3.0151,-2.9988,-3.037,-3.0417,-3.0714,-3.0645,-3.0694,-3.0453,-3.0671,-3.0883,-3.1038,-3.0995,-3.1331,-3.1307,-3.127,-3.1079,-3.1339,-3.119,-3.1088,-3.1017,-3.1051,-3.1076,-3.1198,-3.1263,-3.13,-3.1136,-3.0985,-3.0902,-3.0786,-3.0915,-3.1283,-3.1467,-3.1565,-3.1462,-3.1369,-3.1298,-3.1219,-3.1064,-3.0974,-3.0778,-3.0388,-3.0109,-2.9712,-2.9486,-2.9331,-2.937,-2.9318,-2.9181,-2.8898,-2.8703,-2.8614,-2.8638,-2.8668,-2.8755,-2.8702,-2.8784,-2.8995,-2.9012,-2.888,-2.8896,-2.8865,-2.8741,-2.8612,-2.8716,-2.8653,-2.879,-2.8811,-2.8806,-2.8765,-2.8892,-2.8994,-2.8883,-2.882,-2.8974,-2.8766,-2.8652,-2.8532,-2.8513,-2.8513,-2.8609,-2.8667,-2.8591,-2.8495,-2.8598,-2.862,-2.883,-2.9006,-2.9094,-2.9132,-2.9321,-2.9435,-2.9395,-2.9027,-2.8495,-2.8524,-2.8482,-2.8448,-2.857,-2.854,-2.8633,-2.8598,-2.8567,-2.8355,-2.8475,-2.8383,-2.8045,-2.7658,-2.7739,-2.7786,-2.7693,-2.7744,-2.773,-2.7617,-2.7882,-2.9392,-3.2618,-3.561,-3.7207,-4.1305,-4.3181,-4.2018,-3.0976,-1.56,-0.563,-0.3043,-0.39762,-0.70129,-1.1947,-1.6467,-2.1272,-2.429,-2.6827,-2.7769,-2.8369,-2.8064,-2.8196,-2.8089,-2.8574,-2.8507,-2.8697,-2.79,-2.7771,-2.7681,-2.8054,-2.8279,-2.8717,-2.8851,-2.937,-2.9415,-2.9449,-2.9481,-2.9573,-2.97,-3.0196,-2.9969,-2.9766,-2.9668,-2.9882,-3.0078,-3.0301,-3.0317,-3.0359,-3.038,-3.0547,-3.0698,-3.0444,-3.0293,-3.0259,-3.0204,-3.0221,-3.0074,-2.993,-2.9991,-3.0171,-3.0395,-3.046,-3.0341,-3.0253,-3.0364,-3.0422,-3.049,-3.0013,-2.9665,-2.9345,-2.9166,-2.9113,-2.897,-2.9026,-2.9104,-2.8736,-2.834,-2.7943,-2.7877,-2.7653,-2.7681,-2.7642,-2.7761,-2.7749,-2.789,-2.7757,-2.7768,-2.7636,-2.7613,-2.7467,-2.7541,-2.7394,-2.7517,-2.747,-2.7585,-2.7596,-2.7643,-2.7632,-2.7668,-2.7693,-2.777,-2.7649,-2.7557,-2.7481,-2.7648,-2.7557,-2.7467,-2.7222,-2.7101,-2.6958,-2.7007,-2.6893,-2.7056,-2.6993,-2.7003,-2.6912,-2.6827,-2.6734,-2.6705,-2.6433,-2.6562,-2.6986,-2.7311,-2.7273,-2.7209,-2.7213,-2.7497,-2.7671,-2.7827,-2.7742,-2.7563,-2.7202,-2.7015,-2.6893,-2.6864,-2.6814,-2.6913,-2.6944,-2.6991,-2.6747,-2.6678,-2.6819,-2.6691,-2.6409,-2.6148,-2.616,-2.637,-2.6469,-2.6397,-2.6224,-2.6049,-2.6566,-2.8612,-3.1851,-3.4612,-3.8641,-4.0201,-4.0999,-3.8335,-2.5769,-1.2191,-0.47612,-0.34725,-0.39568,-0.66089,-1.0925,-1.5867,-2.0232,-2.3169,-2.5167,-2.617,-2.6576,-2.6698,-2.6868,-2.6922,-2.7053,-2.7051,-2.7212,-2.7259,-2.7292,-2.7236,-2.742,-2.758,-2.7778,-2.7686,-2.7685,-2.7611,-2.7848,-2.8034,-2.8195,-2.8088,-2.8102,-2.8302,-2.8489,-2.8491,-2.8613,-2.8507,-2.8572,-2.8627,-2.8519,-2.8394,-2.8369,-2.8385,-2.8501,-2.8405,-2.8377,-2.8365,-2.8421,-2.8269,-2.8215,-2.8172,-2.8119,-2.8165,-2.8393,-2.8743,-2.8901,-2.8549,-2.8444,-2.8483,-2.8595,-2.8756,-2.8909,-2.8492,-2.8046,-2.7764,-2.7459,-2.7228,-2.7046,-2.6982,-2.7021,-2.6777,-2.6481,-2.6326,-2.647,-2.6625,-2.6257,-2.5768,-2.5742,-2.5984,-2.6015,-2.5904,-2.5866,-2.6003,-2.6125,-2.6054,-2.6154,-2.6106,-2.606,-2.5973,-2.6164,-2.6195,-2.6192,-2.6243,-2.6157,-2.6099,-2.594,-2.5772,-2.5726,-2.584,-2.605,-2.6128,-2.5916,-2.5766,-2.5653,-2.5598,-2.558,-2.5787,-2.5918,-2.5764,-2.5706,-2.5609,-2.5615,-2.556,-2.5649,-2.5533,-2.5317,-2.5319,-2.5529,-2.5852,-2.5972,-2.5977,-2.5872,-2.5885,-2.6021,-2.6281,-2.6409,-2.6583,-2.6376,-2.6084,-2.582,-2.5625,-2.5435,-2.5507,-2.5661,-2.5899,-2.6101,-2.5842,-2.5571,-2.5407,-2.538,-2.5382,-2.5499,-2.5513,-2.5435,-2.558,-2.5861,-2.5683,-2.5438,-2.6134,-2.698,-2.9687,-3.2312,-3.5044,-3.8498,-3.8891,-3.7128,-2.6534,-1.5983,-0.97181,-0.70923,-0.59986,-0.73319,-1.2214,-1.6302,-1.9851,-2.2398,-2.4384,-2.5545,-2.6142,-2.6352,-2.6834,-2.6762,-2.719,-2.7214,-2.7692,-2.7461,-2.7761,-2.7726,-2.8315,-2.8278,-2.8124,-2.7815,-2.8098,-2.8358,-2.8659,-2.8626,-2.8847,-2.8773,-2.8941,-2.9004,-2.9336,-2.9408,-2.9591,-2.9483,-2.9486,-2.9773,-2.9749,-2.9534,-2.949,-2.9533,-2.9585,-2.9657,-2.9837,-2.9867,-2.9842,-2.9774,-2.9712,-2.9742,-2.9724,-2.9768,-2.9686,-2.9736,-3.0051,-3.0209,-3.043,-3.0434,-3.0486,-3.0838,-3.0945,-3.0483,-3.0049,-3.0076,-3.0154,-2.9901,-2.949,-2.9462,-2.9414,-2.9366,-2.9195,-2.9172,-2.9053,-2.9142,-2.8957,-2.9079,-2.8955,-2.8967,-2.8885,-2.8984,-2.9188,-2.9476,-2.9417,-2.933,-2.9326,-2.938,-2.9353,-2.9339,-2.9406,-2.9878,-2.9804,-2.9475,-2.9248,-2.9224,-2.9431,-2.9607,-2.9763,-2.9636,-2.9495,-2.9525,-2.964,-2.9633,-2.9521,-2.9506,-2.9627,-2.9744,-2.9719,-2.9617,-2.9807,-2.9837,-2.9477,-2.9517,-2.9606,-2.9733,-2.9774,-2.9929,-2.9713,-2.9767,-3.0015,-3.0546,-3.0548,-3.0686,-3.0586,-3.0687,-3.0846,-3.0903,-3.071,-3.0457,-3.0326,-3.0076,-3.0037,-3.0099,-3.0314,-3.0646,-3.0694,-3.048,-3.0148,-3.0061,-3.004,-2.9949,-2.9994,-3.008,-3.0115,-3.0302,-3.033,-3.0262,-3.0081,-3.0873,-3.3349,-3.6541,-3.9297,-4.325,-4.4844,-4.3853,-3.3636,-2.0094,-1.1292,-0.82389,-0.86219,-1.0541,-1.4784,-1.9294,-2.3766,-2.5486,-2.8265,-2.9873,-3.0804,-3.1132,-3.1475,-3.1679,-3.1893,-3.2021,-3.2357,-3.2491,-3.2422,-3.2413,-3.2537,-3.2564,-3.2622,-3.282,-3.3017,-3.2986,-3.3042,-3.3055,-3.3247,-3.3359,-3.3588,-3.376,-3.3915,-3.3807,-3.3865,-3.423,-3.4449,-3.422,-3.4041,-3.4172,-3.4495,-3.4538,-3.4501,-3.4438,-3.4241,-3.4147,-3.4196,-3.4382,-3.4474,-3.4409,-3.4355,-3.4283,-3.4463,-3.4399,-3.4574,-3.4748,-3.515,-3.534,-3.4981,-3.4633,-3.454,-3.4574,-3.4597,-3.4446,-3.424,-3.3768,-3.3557,-3.3351,-3.3025,-3.2809,-3.269,-3.2708,-3.2639,-3.2726,-3.2572,-3.2445,-3.2507,-3.2663,-3.2671,-3.2591,-3.2472,-3.2522,-3.25,-3.2434,-3.2599,-3.2724,-3.278,-3.2595,-3.2664,-3.2713,-3.2565,-3.2533,-3.2559,-3.2664,-3.2668,-3.2807,-3.2869,-3.3018,-3.2665,-3.2368,-3.2338,-3.2588,-3.2711,-3.2741,-3.2596,-3.2419,-3.2322,-3.2444,-3.2547,-3.2488,-3.264,-3.2526,-3.2328,-3.2157,-3.1982,-3.217,-3.2288,-3.2331,-3.2159,-3.211,-3.2216,-3.2596,-3.2831,-3.3332,-3.3689,-3.3464,-3.2854,-3.2749,-3.2819,-3.2625,-3.2429,-3.2257,-3.2378,-3.281,-3.302,-3.298,-3.2701,-3.213,-3.1929,-3.2083,-3.2183,-3.2185,-3.2108,-3.2117,-3.2003,-3.1899,-3.1843,-3.1936,-3.184,-3.2005,-3.3593,-3.6966,-4.0047,-4.3534,-4.6553,-4.7195,-4.2151,-2.8502,-1.4439,-0.82357,-0.77527,-0.83987,-1.1197,-1.5641,-2.0448,-2.4896,-2.8374,-3.0908,-3.2188,-3.2497,-3.2544,-3.2569,-3.2707,-3.2919,-3.3167,-3.3233,-3.331,-3.3388,-3.3483,-3.3526,-3.362,-3.3687,-3.3805,-3.3942,-3.4293,-3.4455,-3.4243,-3.4092,-3.4073,-3.4252,-3.4476,-3.4605,-3.4846,-3.5164,-3.5484,-3.5556,-3.4998,-3.454,-3.4547,-3.4659,-3.498,-3.5091,-3.4962,-3.5001,-3.503,-3.493,-3.4982,-3.5028,-3.5159,-3.5124,-3.514,-3.4952,-3.4722,-3.4729,-3.4837,-3.4995,-3.5327,-3.5456,-3.5482,-3.5301,-3.4933,-3.4618,-3.4272,-3.4138,-3.4233,-3.391,-3.336,-3.2854,-3.286,-3.2944,-3.2786,-3.2552,-3.2436,-3.2477,-3.2416,-3.2429,-3.2412,-3.2264,-3.2044,-3.2049,-3.2425,-3.2794,-3.2583,-3.2181,-3.201,-3.2122,-3.2192,-3.2258,-3.2214,-3.2331,-3.2578,-3.2488,-3.2242,-3.2405,-3.2397,-3.238,-3.2238,-3.2012,-3.2089,-3.221,-3.2252,-3.2176,-3.1827,-3.1487,-3.1478,-3.1724,-3.1845,-3.1762,-3.1706,-3.1567,-3.1465,-3.1575,-3.1848,-3.2068,-3.2068,-3.1669,-3.1216,-3.0964,-3.1,-3.1095,-3.1219,-3.1606,-3.1854,-3.1821,-3.1789,-3.1782,-3.1801,-3.1844,-3.1954,-3.2511,-3.253,-3.1764,-3.1125,-3.0829,-3.0873,-3.1371,-3.1717,-3.1705,-3.125,-3.0964,-3.0958,-3.0955,-3.0874,-3.0703,-3.07,-3.0968,-3.119,-3.0737,-3.0331,-3.0173,-3.0273,-3.1043,-3.3248,-3.4944,-3.753,-4.0347,-4.3917,-4.5381,-4.2619,-3.0263,-1.5868,-0.81302,-0.63316,-0.73791,-1.0439,-1.5646,-2.0917,-2.5353,-2.7558,-2.9282,-2.988,-3.0612,-3.0625,-3.1441,-3.1562,-3.1683,-3.1256,-3.1305,-3.1361,-3.1791,-3.1671,-3.1708,-3.1629,-3.19,-3.2035,-3.2253,-3.2392,-3.239,-3.2177,-3.2247,-3.2291,-3.2398,-3.2461,-3.2674,-3.2932,-3.3014,-3.2791,-3.2724,-3.2705,-3.2904,-3.3228,-3.3578,-3.3296,-3.2834,-3.2552,-3.2538,-3.2622,-3.266,-3.2709,-3.2725,-3.2774,-3.2871,-3.2891,-3.2692,-3.2668,-3.2663,-3.2827,-3.3165,-3.378,-3.3623,-3.3003,-3.2449,-3.251,-3.2669,-3.26,-3.2155,-3.1723,-3.1351,-3.1073,-3.0927,-3.0806,-3.0565,-3.0576,-3.0667,-3.0837,-3.0667,-3.0461,-3.0289,-3.0377,-3.0339,-3.028,-3.0068,-3.0013,-2.9836,-3.0124,-3.0524,-3.0469,-2.9924,-2.9772,-2.982,-2.9956,-3.0091,-3.0348,-3.0302,-3.0159,-3.0166,-3.0414,-3.0138,-2.9867,-2.9991,-3.017,-2.9817,-2.9576,-2.9533,-2.9612,-2.9541,-2.9685,-2.9798,-2.9953,-2.9741,-2.9319,-2.9239,-2.9458,-2.9482,-2.9432,-2.9432,-2.9283,-2.9108,-2.9016,-2.8976,-2.9043,-2.921,-2.942,-2.9446,-2.9416,-2.9488,-2.955,-2.9802,-3.0164,-3.0212,-3.0172,-2.9841,-2.9228,-2.9004,-2.9056,-2.9014,-2.9316,-2.9415,-2.9505,-2.9524,-2.9372,-2.9058,-2.8882,-2.8984,-2.8855,-2.8789,-2.8711,-2.8485,-2.8517,-2.8651,-2.8444,-2.8145,-2.8256,-2.9407,-3.1871,-3.4587,-3.7102,-4.0644,-4.207,-4.1176,-3.2749,-2.0982,-1.3601,-1.014,-0.84223,-0.83991,-1.0702,-1.5115,-1.9532,-2.2679,-2.5211,-2.7046,-2.848,-2.8748,-2.8793,-2.8778,-2.8966,-2.9244,-2.9384,-2.9339,-2.9537,-2.963,-2.9722,-2.9651,-2.9752,-2.9716,-2.9951,-3.0084,-3.0058,-3.0012,-3.0153,-3.0213,-3.0364,-3.0322,-3.0374,-3.0416,-3.0261,-3.015,-3.0494,-3.0679,-3.0868,-3.0667,-3.0532,-3.0436,-3.0356,-3.0555,-3.0661,-3.0679,-3.0428,-3.0249,-3.0159,-2.9947,-2.9675,-2.975,-3,-3.0052,-2.9919,-3.0013,-3.03,-3.0602,-3.0713,-3.0772,-3.0754,-3.0484,-3.0255,-3.0001,-2.9787,-2.9617,-2.9275,-2.9013,-2.8803,-2.8783,-2.8636,-2.8496,-2.8405,-2.8482,-2.8422,-2.8384,-2.8098,-2.8133,-2.8287,-2.8328,-2.8176,-2.8135,-2.826,-2.8314,-2.8069,-2.7912,-2.7764,-2.787,-2.8202,-2.8377,-2.8362,-2.8322,-2.8105,-2.7896,-2.7716,-2.7692,-2.7731,-2.7898,-2.7876,-2.7972,-2.7867,-2.7758,-2.7605,-2.747,-2.7385,-2.7582,-2.7657,-2.7788,-2.7899,-2.7776,-2.7415,-2.7291,-2.7239,-2.7322,-2.7357,-2.748,-2.7596,-2.7681,-2.7719,-2.7672,-2.7759,-2.7947,-2.7961,-2.7972,-2.8081,-2.8033,-2.7595,-2.7328,-2.724,-2.7345,-2.7379,-2.7262,-2.7306,-2.7685,-2.7721,-2.7345,-2.7157,-2.6865,-2.6691,-2.6928,-2.7095,-2.694,-2.6674,-2.6586,-2.6579,-2.6546,-2.6962,-2.8915,-3.2135,-3.4459,-3.7851,-4.0799,-4.0521,-3.532,-2.2412,-1.6336,-0.90929,-0.59838,-0.59152,-0.69851,-1.1365,-1.5402,-1.995,-2.273,-2.538,-2.6327,-2.7203,-2.7056,-2.76,-2.7318,-2.7842,-2.7563,-2.8387,-2.8255,-2.8292,-2.7898,-2.8102,-2.7827,-2.8094,-2.7992,-2.8348,-2.8321,-2.8758,-2.8651,-2.8821,-2.8735,-2.9024,-2.9045,-2.9154,-2.9001,-2.9297,-2.9454,-2.9779,-2.9591,-2.9533,-2.9279,-2.9133,-2.9205,-2.9464,-2.9452,-2.942,-2.9125,-2.9046,-2.9164,-2.927,-2.9232,-2.9086,-2.909,-2.9203,-2.9426,-2.9587,-2.9714,-2.9471,-2.9411,-2.9357,-2.9348,-2.94,-2.9056,-2.8718,-2.8391,-2.8199,-2.851,-2.8317,-2.7754,-2.696,-2.6777,-2.6837,-2.7139,-2.7211,-2.7055,-2.6568,-2.6426,-2.6388,-2.6613,-2.6801,-2.7094,-2.6909,-2.6781,-2.6526,-2.652,-2.6553,-2.664,-2.6593,-2.6615,-2.6658,-2.6824,-2.6547,-2.6576,-2.6591,-2.67,-2.659,-2.6572,-2.6379,-2.6337,-2.6395,-2.6754,-2.6672,-2.6381,-2.6247,-2.636,-2.6335,-2.6173,-2.6,-2.6104,-2.6092,-2.6245,-2.6217,-2.6174,-2.6022,-2.6126,-2.6197,-2.629,-2.6042,-2.6079,-2.6091,-2.6276,-2.6411,-2.6634,-2.6719,-2.6858,-2.6854,-2.6858,-2.6499,-2.6329,-2.6138,-2.6008,-2.6144,-2.6017,-2.5847,-2.5849,-2.5844,-2.5731,-2.5693,-2.5912,-2.5913,-2.5682,-2.5477,-2.5231,-2.5186,-2.5246,-2.5243,-2.5299,-2.5445,-2.6339,-2.8874,-3.1895,-3.4967,-3.9277,-4.0622,-4.0543,-3.3108,-1.8822,-0.67006,-0.18192,-0.17875,-0.34829,-0.74823,-1.192,-1.688,-2.066,-2.345,-2.4914,-2.5504,-2.5623,-2.5993,-2.6055,-2.6348,-2.6328,-2.6599,-2.6603,-2.651,-2.6372,-2.6535,-2.6777,-2.7087,-2.7143,-2.7119,-2.6923,-2.7087,-2.7113,-2.7282,-2.7369,-2.7779,-2.7896,-2.7888,-2.7751,-2.7702,-2.7832,-2.7974,-2.8071,-2.8267,-2.8068,-2.809,-2.8052,-2.8093,-2.8107,-2.8261,-2.8471,-2.8399,-2.8321,-2.8306,-2.819,-2.8306,-2.8134,-2.798,-2.8106,-2.8242,-2.8339,-2.853,-2.8542,-2.8393,-2.8319,-2.8279,-2.8089,-2.7896,-2.7611,-2.7193,-2.6967,-2.6748,-2.64,-2.6271,-2.6159,-2.6067,-2.596,-2.5802,-2.5816,-2.5815,-2.5543,-2.5385,-2.5425,-2.5388,-2.551,-2.5501,-2.5443,-2.5409,-2.5403,-2.5468,-2.531,-2.5306,-2.552,-2.5589,-2.5676,-2.5691,-2.5473,-2.5298,-2.5306,-2.5548,-2.5624,-2.5384,-2.5228,-2.5102,-2.5166,-2.5191,-2.5243,-2.5199,-2.5292,-2.5221,-2.5131,-2.5029,-2.4932,-2.4847,-2.4815,-2.5022,-2.5101,-2.5284,-2.5228,-2.4894,-2.4698,-2.4732,-2.4711,-2.4801,-2.4825,-2.5066,-2.5377,-2.5399,-2.5482,-2.5463,-2.557,-2.5748,-2.5558,-2.5273,-2.5075,-2.4909,-2.4698,-2.4805,-2.4981,-2.5051,-2.5222,-2.4934,-2.4613,-2.4519,-2.46,-2.4459,-2.4439,-2.4495,-2.4559,-2.445,-2.4351,-2.4174,-2.4158,-2.4448,-2.5148,-2.7825,-3.1023,-3.3944,-3.7742,-3.9116,-3.7298,-2.5562,-1.0991,-0.21587,-0.022717,-0.12679,-0.41183,-0.87818,-1.3871,-1.8313,-2.1277,-2.3457,-2.4087,-2.445,-2.4431,-2.4867,-2.5078,-2.5453,-2.5394,-2.5476,-2.5345,-2.5652,-2.5618,-2.5803,-2.5723,-2.5761,-2.5769,-2.5936,-2.6014,-2.6334,-2.6443,-2.6569,-2.6552,-2.666,-2.6718,-2.6764,-2.6611,-2.6552,-2.6633,-2.6896,-2.6958,-2.6925,-2.6895,-2.7084,-2.7116,-2.716,-2.7267,-2.7333,-2.7419,-2.7426,-2.7264,-2.7179,-2.6958,-2.6831,-2.6896,-2.6984,-2.6988,-2.7102,-2.723,-2.7371,-2.7421,-2.7516,-2.7423,-2.7154,-2.6908,-2.6493,-2.627,-2.6,-2.5879,-2.5805,-2.5667,-2.5508,-2.5229,-2.4927,-2.4806,-2.4708,-2.4722,-2.461,-2.454,-2.4526,-2.4486,-2.4288,-2.4344,-2.445,-2.4648,-2.463,-2.4558,-2.4431,-2.4505,-2.4579,-2.4688,-2.4563,-2.4564,-2.4413,-2.4435,-2.4448,-2.4421,-2.4433,-2.4527,-2.4553,-2.4438,-2.4165,-2.4118,-2.4289,-2.4402,-2.4427,-2.4489,-2.428,-2.414,-2.413,-2.4159,-2.3912,-2.3785,-2.374,-2.3888,-2.405,-2.4272,-2.4324,-2.4151,-2.3903,-2.4035,-2.4313,-2.4533,-2.4652,-2.4716,-2.4706,-2.4643,-2.438,-2.4206,-2.4309,-2.4279,-2.4288,-2.4351,-2.4021,-2.3937,-2.3964,-2.3768,-2.3548,-2.3445,-2.3467,-2.361,-2.3795,-2.3745,-2.3547,-2.3375,-2.3237,-2.3316,-2.3378,-2.3889,-2.5595,-2.8481,-3.0857,-3.4308,-3.7427,-3.7195,-3.2325,-1.9701,-0.91034,-0.37916,-0.23686,-0.28434,-0.55088,-1.0379,-1.5354,-1.8921,-2.0653,-2.1405,-2.2696,-2.3764,-2.3818,-2.3859,-2.3847,-2.4181,-2.4142,-2.4711,-2.4811,-2.4644,-2.4355,-2.4428,-2.4652,-2.5059,-2.5166,-2.5034,-2.5272,-2.5618,-2.5511,-2.5198,-2.4845,-2.5221,-2.5462,-2.5515,-2.5481,-2.5575,-2.5732,-2.5921,-2.5772,-2.5646,-2.5618,-2.5715,-2.5681,-2.582,-2.5869,-2.611,-2.5864,-2.5738,-2.5433,-2.5129,-2.5064,-2.5036,-2.5163,-2.5427,-2.5886,-2.614,-2.5992,-2.5574,-2.5477,-2.5755,-2.6332,-2.6368,-2.5508,-2.4762,-2.4585,-2.4445,-2.4428,-2.4315,-2.4214,-2.3917,-2.3781,-2.3635,-2.3508,-2.3392,-2.3347,-2.3301,-2.3429,-2.3442,-2.3578,-2.3246,-2.2999,-2.2416,-2.1673,-2.1623,-2.2076,-2.2142,-2.2466,-2.26,-2.2803,-2.2882,-2.2921,-2.2858,-2.29,-2.2915,-2.3003,-2.2965,-2.3085,-2.2993,-2.2987,-2.2998,-2.3074,-2.303,-2.2901,-2.278,-2.284,-2.2875,-2.2923,-2.2869,-2.2942,-2.3061,-2.3044,-2.2939,-2.2963,-2.3275,-2.337,-2.3561,-2.4065,-2.4035,-2.3648,-2.3096,-2.2801,-2.2598,-2.2547,-2.2627,-2.2685,-2.2697,-2.2774,-2.3001,-2.3208,-2.2926,-2.2648,-2.2825,-2.27,-2.2665,-2.2394,-2.1962,-2.1769,-2.1831,-2.2121,-2.2261,-2.2563,-2.4255,-2.7093,-2.8279,-3.0627,-3.4132,-3.5502,-3.4653,-2.6056,-1.5003,-0.80919,-0.45095,-0.26443,-0.34453,-0.72321,-1.1304,-1.488,-1.7676,-1.9996,-2.1678,-2.244,-2.2859,-2.3039,-2.3202,-2.3342,-2.3369,-2.3712,-2.3706,-2.3496,-2.326,-2.3267,-2.3497,-2.3855,-2.4092,-2.4442,-2.4529,-2.462,-2.4559,-2.4476,-2.4561,-2.4272,-2.4098,-2.4159,-2.4329,-2.4603,-2.4732,-2.4804,-2.4864,-2.4941,-2.5016,-2.5191,-2.5287,-2.5468,-2.5205,-2.4825,-2.4515,-2.4669,-2.5039,-2.5095,-2.4974,-2.4811,-2.4626,-2.444,-2.4482,-2.4604,-2.4821,-2.4846,-2.5057,-2.5075,-2.5096,-2.494,-2.5169,-2.5381,-2.484,-2.4096,-2.3625,-2.3377,-2.3238,-2.3104,-2.3251,-2.3279,-2.3061,-2.2906,-2.2826,-2.2731,-2.2974,-2.2938,-2.2832,-2.275,-2.287,-2.2774,-2.2648,-2.2374,-2.2401,-2.2399,-2.2641,-2.268,-2.2779,-2.2731,-2.2725,-2.265,-2.271,-2.2638,-2.2752,-2.2561,-2.241,-2.2485,-2.263,-2.2561,-2.2303,-2.2191,-2.2208,-2.2396,-2.2483,-2.2478,-2.2342,-2.219,-2.2146,-2.2264,-2.2638,-2.2816,-2.2639,-2.2743,-2.2917,-2.3059,-2.2901,-2.2945,-2.3125,-2.2701,-2.2358,-2.2164,-2.2297,-2.2468,-2.2468,-2.2573,-2.285,-2.2775,-2.2306,-2.1889,-2.1801,-2.1848,-2.1762,-2.2033,-2.2057,-2.2161,-2.2129,-2.184,-2.1752,-2.234,-2.4703,-2.7971,-3.0396,-3.4093,-3.6117,-3.5521,-2.6884,-1.9702,-0.83425,-0.099231,-0.015187,-0.024385,-0.33668,-0.72097,-1.2595,-1.6028,-1.9241,-2.0887,-2.2288,-2.2269,-2.2633,-2.2316,-2.2775,-2.2671,-2.3096,-2.2911,-2.3263,-2.3156,-2.3285,-2.3051,-2.3437,-2.3451,-2.3741,-2.3718,-2.4006,-2.3862,-2.412,-2.4003,-2.4104,-2.3996,-2.4109,-2.424,-2.4585,-2.4648,-2.4669,-2.4642,-2.4663,-2.4582,-2.4613,-2.4663,-2.4731,-2.472,-2.4744,-2.4802,-2.4737,-2.4716,-2.4709,-2.4739,-2.4643,-2.4698,-2.467,-2.4829,-2.4855,-2.5002,-2.4978,-2.5138,-2.5085,-2.5132,-2.4921,-2.4835,-2.4921,-2.4835,-2.4152,-2.3844,-2.3461,-2.3158,-2.2769,-2.2884,-2.282,-2.2695,-2.2289,-2.2196,-2.2048,-2.2147,-2.2089,-2.2182,-2.213,-2.2273,-2.2243,-2.2519,-2.2731,-2.2631,-2.2268,-2.226,-2.2075,-2.2016,-2.1852,-2.199,-2.2096,-2.2352,-2.2302,-2.2286,-2.217,-2.2118,-2.2089,-2.2106,-2.2039,-2.2197,-2.2011,-2.1989,-2.1873,-2.1946,-2.1949,-2.1993,-2.1955,-2.2041,-2.1984,-2.2168,-2.2234,-2.2282,-2.2355,-2.245,-2.2449,-2.2594,-2.2605,-2.2596,-2.219,-2.1957,-2.1806,-2.1921,-2.1931,-2.2074,-2.2197,-2.2381,-2.2267,-2.1856,-2.1555,-2.1438,-2.1565,-2.1585,-2.1569,-2.13,-2.1074,-2.103,-2.1291,-2.1532,-2.1763,-2.3311,-2.6541,-2.9401,-3.3152,-3.5957,-3.6217,-2.9375,-1.5078,-0.21533,0.27879,0.28208,0.071067,-0.13996,-0.5713,-1.0997,-1.5109,-1.8377,-2.0192,-2.1401,-2.1653,-2.2024,-2.2391,-2.2797,-2.2449,-2.2316,-2.2186,-2.2277,-2.2321,-2.2582,-2.2669,-2.2851,-2.292,-2.3029,-2.3056,-2.3241,-2.326,-2.3424,-2.348,-2.3658,-2.3639,-2.3737,-2.3796,-2.3866,-2.3925,-2.3981,-2.4025,-2.4106,-2.4318,-2.4494,-2.4468,-2.4388,-2.4469,-2.4569,-2.4475,-2.4362,-2.4488,-2.458,-2.4531,-2.413,-2.3957,-2.411,-2.4454,-2.4326,-2.4361,-2.4449,-2.4674,-2.4668,-2.4717,-2.4531,-2.4321,-2.4037,-2.3692,-2.3171,-2.3038,-2.2789,-2.2651,-2.2333,-2.2232,-2.2193,-2.2203,-2.1937,-2.1843,-2.1672,-2.1606,-2.1464,-2.1572,-2.1646,-2.1673,-2.1554,-2.1533,-2.1356,-2.1435,-2.1437,-2.1773,-2.1754,-2.1775,-2.1562,-2.1552,-2.1652,-2.1623,-2.1508,-2.1554,-2.1414,-2.1459,-2.1451,-2.1483,-2.141,-2.1407,-2.139,-2.1477,-2.1443,-2.1328,-2.1194,-2.1214,-2.1244,-2.1566,-2.1741,-2.1845,-2.1923,-2.1966,-2.1984,-2.1974,-2.1951,-2.1888,-2.1582,-2.1363,-2.1186,-2.1206,-2.1249,-2.1292,-2.1453,-2.146,-2.1241,-2.0957,-2.0802,-2.0788,-2.0826,-2.098,-2.0983,-2.08,-2.0492,-2.0327,-2.035,-2.0366,-2.1111,-2.336,-2.5061,-2.7501,-3.0492,-3.3896,-3.4985,-3.2359,-2.0393,-0.795,-0.12529,0.11104,0.088657,-0.14536,-0.63839,-1.0772,-1.4874,-1.7382,-1.946,-2.021,-2.0948,-2.0843,-2.1454,-2.1463,-2.1751,-2.1649,-2.1836,-2.1544,-2.184,-2.1752,-2.203,-2.2012,-2.2207,-2.1934,-2.2152,-2.2106,-2.2376,-2.236,-2.2564,-2.2573,-2.2738,-2.2734,-2.2915,-2.2807,-2.2905,-2.2934,-2.3292,-2.343,-2.341,-2.3143,-2.3081,-2.3276,-2.315,-2.2929,-2.2851,-2.2891,-2.2858,-2.2772,-2.2663,-2.2579,-2.2632,-2.261,-2.2874,-2.3057,-2.3304,-2.3584,-2.3478,-2.3242,-2.308,-2.2981,-2.285,-2.2748,-2.2549,-2.2268,-2.2049,-2.1918,-2.193,-2.1667,-2.1377,-2.1318,-2.101,-2.0863,-2.0886,-2.099,-2.1205,-2.126,-2.0986,-2.0733,-2.0564,-2.0463,-2.0431,-2.0507,-2.0472,-2.0628,-2.0815,-2.0868,-2.0685,-2.0699,-2.0722,-2.0826,-2.0712,-2.0667,-2.0536,-2.0508,-2.0438,-2.0426,-2.0513,-2.0675,-2.0725,-2.0729,-2.0464,-2.0283,-2.0312,-2.0626,-2.0911,-2.1213,-2.1091,-2.1049,-2.0899,-2.1057,-2.0955,-2.0886,-2.0223,-2.0177,-2.0321,-2.046,-2.0371,-2.0165,-2.0115,-2.023,-2.0149,-2.0157,-1.9995,-2.0034,-2.0043,-2.0089,-2.0028,-1.9803,-1.9523,-1.9258,-1.9197,-1.9497,-2.0207,-2.2239,-2.5201,-2.7444,-3.0418,-3.303,-3.2518,-2.7459,-1.5646,-0.73698,-0.23619,-0.038831,-0.045846,-0.12579,-0.54865,-0.92016,-1.2945,-1.5943,-1.7909,-1.9307,-1.9949,-2.0114,-2.0334,-2.0446,-2.0646,-2.0591,-2.0715,-2.0757,-2.0946,-2.0972,-2.0889,-2.0802,-2.093,-2.1019,-2.1383,-2.1536,-2.1765,-2.1731,-2.1647,-2.1411,-2.1471,-2.1668,-2.2334,-2.2406,-2.2103,-2.172,-2.1693,-2.1755,-2.1872,-2.2025,-2.2183,-2.2201,-2.2111,-2.2,-2.1734,-2.1675,-2.169,-2.1782,-2.1941,-2.1997,-2.1601,-2.1197,-2.1296,-2.1445,-2.1701,-2.1913,-2.2156,-2.2448,-2.2426,-2.2259,-2.2223,-2.1916,-2.1728,-2.1598,-2.1339,-2.109,-2.1127,-2.0977,-2.097,-2.0779,-2.0299,-1.9882,-1.9747,-1.9865,-2.0003,-2.0057,-2.0105,-2.0171,-2.0144,-2.0104,-2.0085,-2.0134,-2.0166,-2.0202,-2.0236,-2.0225,-2.0244,-2.0328,-2.0349,-2.0438,-2.0572,-2.0437,-2.0491,-2.0202,-1.9834,-1.9693,-1.9649,-1.9881,-2.0085,-2.0272,-2.0183,-2.0245,-2.0315,-2.0365,-2.0378,-2.0529,-2.0685,-2.064,-2.0567,-2.0584,-2.0539,-2.0082,-1.9737,-1.9735,-1.9799,-2.0035,-2.0226,-2.0516,-2.0437,-2.0239,-1.9809,-1.9595,-1.9428,-1.9363,-1.9342,-1.9458,-1.9604,-1.9649,-1.9426,-1.9374,-1.9531,-1.9997,-2.1616,-2.456,-2.6984,-3.0096,-3.3149,-3.3334,-3.227,-2.2685,-1.0158,-0.20019,0.14721,0.19889,0.023941,-0.4152,-0.85111,-1.2444,-1.5408,-1.7764,-1.9069,-1.9705,-1.9925,-2.0289,-2.0346,-2.0706,-2.0756,-2.1037,-2.0995,-2.0964,-2.0805,-2.1008,-2.1131,-2.1308,-2.1325,-2.1265,-2.1233,-2.1513,-2.1648,-2.1776,-2.1757,-2.2027,-2.1952,-2.1854,-2.188,-2.2068,-2.2465,-2.2577,-2.2348,-2.2157,-2.1974,-2.2117,-2.2045,-2.2116,-2.2101,-2.2321,-2.2554,-2.2436,-2.2293,-2.199,-2.1934,-2.2017,-2.2287,-2.2394,-2.2486,-2.2494,-2.2342,-2.2368,-2.2586,-2.2638,-2.2665,-2.2343,-2.22,-2.1869,-2.1484,-2.1267,-2.1356,-2.0996,-2.0652,-2.0402,-2.0276,-2.0441,-2.0489,-2.0429,-2.0303,-2.0042,-2.0041,-2.0101,-2.0135,-1.9979,-1.9922,-1.9985,-2.0133,-2.0017,-1.9962,-2.0005,-2.0304,-2.0441,-2.0374,-2.0225,-2.0077,-1.9929,-1.9954,-1.9966,-2.0037,-2.0037,-2.0048,-2.0218,-2.0086,-1.9958,-1.9982,-2.0124,-1.9937,-1.9657,-1.9609,-1.9725,-1.9923,-1.9998,-2.0281,-2.0427,-2.0651,-2.0711,-2.0729,-2.077,-2.1012,-2.0733,-2.0154,-1.9633,-1.955,-1.9741,-2.007,-2.0115,-2.0075,-1.9847,-1.9752,-1.9581,-1.9538,-1.9479,-1.9487,-1.9304,-1.9201,-1.9283,-1.9303,-1.9316,-1.9199,-1.9238,-1.9755,-2.1857,-2.5219,-2.7971,-2.9773,-3.4052,-3.4117,-2.5162,-1.0879,0.087828,0.43608,0.40869,0.16671,-0.25573,-0.46454,-0.92189,-1.3639,-1.6534,-1.8618,-1.9256,-1.9775,-1.9885,-2.0315,-2.0329,-2.0665,-2.0758,-2.1113,-2.0858,-2.0752,-2.0591,-2.0843,-2.0845,-2.1035,-2.1087,-2.141,-2.1447,-2.1583,-2.1584,-2.1641,-2.1548,-2.1662,-2.1821,-2.2005,-2.2247,-2.2219,-2.2011,-2.1974,-2.2109,-2.2287,-2.2258,-2.2217,-2.2215,-2.225,-2.2279,-2.2446,-2.2404,-2.2348,-2.2245,-2.2257,-2.2367,-2.2248,-2.1981,-2.2058,-2.2204,-2.2311,-2.2463,-2.246,-2.2515,-2.2446,-2.2405,-2.2313,-2.2253,-2.1815,-2.151,-2.1217,-2.1226,-2.0981,-2.0654,-2.0393,-2.0145,-1.9991,-1.9974,-1.9904,-1.988,-1.9705,-1.9748,-1.9679,-1.9745,-1.9898,-2.0184,-2.0172,-1.9982,-1.9503,-1.9596,-1.9761,-1.9924,-2.0015,-2.006,-1.9743,-1.9702,-1.9797,-1.9821,-1.9771,-1.9711,-1.9646,-1.9652,-1.9739,-1.9887,-1.9875,-1.9949,-1.9799,-1.9713,-1.958,-1.9566,-1.9873,-1.9959,-1.95,-1.9192,-1.9142,-1.9323,-1.9435,-1.9542,-1.9356,-1.922,-1.8938,-1.9185,-1.9405,-1.9441,-1.9388,-1.9299,-1.9338,-1.9357,-1.9391,-1.9546,-1.966,-1.9837,-1.99,-1.9981,-2.014,-1.9979,-1.9509,-1.9321,-1.9213,-1.9487,-1.9618,-1.9474,-1.9492,-1.9472,-1.9352,-1.898,-1.8928,-1.9049,-1.9021,-1.902,-1.8845,-1.8887,-1.8815,-1.8786,-1.8688,-1.8761,-1.9105,-2.0594,-2.3767,-2.6622,-3.0634,-3.3687,-3.4035,-3.2501,-2.1123,-0.588,0.41765,0.60882,0.50622,0.21275,-0.27765,-0.77338,-1.265,-1.5722,-1.7974,-1.8646,-1.9238,-1.9299,-1.9763,-1.9777,-2.0057,-1.9938,-2.0016,-2.0254,-2.0495,-2.0221,-2.0375,-2.0393,-2.0663,-2.0556,-2.074,-2.0789,-2.0995,-2.1103,-2.1502,-2.1625,-2.1796,-2.1521,-2.1418,-2.1315,-2.1552,-2.1675,-2.2162,-2.2152,-2.2128,-2.2116,-2.22,-2.2274,-2.2282,-2.2335,-2.2514,-2.2522,-2.2725,-2.2583,-2.2381,-2.2242,-2.2243,-2.2401,-2.2681,-2.2741,-2.2776,-2.2943,-2.3022,-2.3237,-2.3386,-2.3467,-2.3303,-2.3106,-2.2783,-2.2612,-2.237,-2.2275,-2.2216,-2.234,-2.2164,-2.1813,-2.146,-2.1487,-2.1427,-2.1443,-2.1339,-2.1421,-2.1502,-2.1552,-2.1604,-2.1714,-2.1782,-2.1928,-2.2041,-2.2132,-2.2185,-2.2375,-2.2434,-2.2535,-2.2714,-2.2832,-2.289,-2.3047,-2.3079,-2.3177,-2.3227,-2.3344,-2.334,-2.3457,-2.3557,-2.3618,-2.3666,-2.3739,-2.3789,-2.381,-2.3897,-2.4052,-2.4146,-2.4327,-2.4348,-2.4451,-2.4491,-2.4496,-2.4459,-2.468,-2.466,-2.4734,-2.4801,-2.5089,-2.5025,-2.4837,-2.4778,-2.4946,-2.5236,-2.5403,-2.549,-2.5717,-2.5893,-2.6049,-2.5988,-2.6265,-2.6481,-2.6348,-2.6015,-2.5845,-2.6132,-2.6491,-2.6732,-2.6725,-2.6776,-2.6961,-2.749,-2.7876,-2.7974,-2.801,-2.806,-2.8107,-2.8219,-2.8385,-2.8371,-2.8237,-2.8267,-2.8572,-2.8959,-2.9074,-2.9039,-2.8971,-2.904,-2.8908,-2.8835,-2.8849,-2.8915,-2.9218,-2.9378,-2.9381,-2.9395,-2.9422,-2.9586,-2.9583,-2.9681,-3.0522,-3.2775,-3.5732,-3.8648,-4.2927,-4.5184,-4.4318,-3.5049,-2.2045,-1.3524,-1.0334,-0.96262,-1.1028,-1.5262,-1.9884,-2.4291,-2.7548,-3.0168,-3.1023,-3.2145,-3.2304,-3.2505,-3.2631,-3.2802,-3.3,-3.3487,-3.3653,-3.3846,-3.403,-3.422,-3.4383,-3.4886,-3.5244,-3.513,-3.507,-3.5009,-3.4959,-3.5225,-3.5405,-3.5774,-3.6055,-3.6106,-3.6083,-3.6489,-3.6823,-3.6882,-3.6838,-3.662,-3.6607,-3.6787,-3.7121,-3.732,-3.7314,-3.7265,-3.7185,-3.7223,-3.7293,-3.7464,-3.7781,-3.8039,-3.7903,-3.7686,-3.749,-3.7437,-3.7746,-3.8431,-3.876,-3.8672,-3.8565,-3.845,-3.8569,-3.8576,-3.8506,-3.8462,-3.8276,-3.8291,-3.8238,-3.7836,-3.7365,-3.7116,-3.7223,-3.7462,-3.772,-3.751,-3.7212,-3.7208,-3.7321,-3.734,-3.7672,-3.7945,-3.7839,-3.7489,-3.7398,-3.7492,-3.7764,-3.7979,-3.8265,-3.8043,-3.7809,-3.7776,-3.8077,-3.859,-3.8862,-3.8449,-3.7923,-3.7795,-3.8033,-3.8197,-3.8356,-3.8456,-3.8466,-3.8509,-3.8582,-3.8641,-3.8648,-3.8677,-3.8671,-3.871,-3.8802,-3.8831,-3.8891,-3.8889,-3.893,-3.8965,-3.898,-3.9049,-3.9074,-3.9147,-3.9235,-3.9248,-3.9235,-3.9258,-3.9348,-3.9364,-3.9432,-3.9444,-3.9521,-3.9636,-3.9896,-4.0053,-4.0181,-4.0371,-4.0493,-4.0533,-4.0616,-4.0736,-4.0672,-4.0683,-4.0613,-4.0697,-4.0895,-4.073,-4.0655,-4.0532,-4.0557,-4.0348,-4.0225,-4.0291,-4.0303,-4.0325,-4.0378,-4.0505,-4.0746,-4.0875,-4.083,-4.1,-4.1095,-4.2014,-4.4639,-4.7642,-5.0541,-5.2582,-5.5125,-5.4752,-4.8752,-3.605,-2.5686,-2.1166,-2.0758,-2.175,-2.4479,-2.8847,-3.2948,-3.6826,-3.9461,-4.161,-4.2394,-4.3047,-4.2925,-4.3172,-4.31,-4.3378,-4.3415,-4.3785,-4.3928,-4.4161,-4.3957,-4.4151,-4.4297,-4.4771,-4.5139,-4.552,-4.5145,-4.5002,-4.4964,-4.5281,-4.5446,-4.5619,-4.5815,-4.6031,-4.6052,-4.5985,-4.5932,-4.6129,-4.6408,-4.6723,-4.6639,-4.6605,-4.6463,-4.6558,-4.6547,-4.6636,-4.6683,-4.6854,-4.6872,-4.6817,-4.6633,-4.6483,-4.6469,-4.6436,-4.6621,-4.6923,-4.6998,-4.6984,-4.7085,-4.718,-4.7296,-4.7129,-4.691,-4.6661,-4.6666,-4.6412,-4.6099,-4.5789,-4.5577,-4.537,-4.5328,-4.5291,-4.5339,-4.5275,-4.5342,-4.523,-4.5096,-4.506,-4.5285,-4.5606,-4.5668,-4.529,-4.5155,-4.5093,-4.5428,-4.5557,-4.5511,-4.5382,-4.538,-4.5449,-4.5543,-4.5569,-4.5606,-4.5621,-4.5832,-4.577,-4.5684,-4.5611,-4.5697,-4.5785,-4.5876,-4.5689,-4.5683,-4.5683,-4.5741,-4.5813,-4.5716,-4.5589,-4.5672,-4.5635,-4.5693,-4.5705,-4.5614,-4.5537,-4.5675,-4.565,-4.5726,-4.5676,-4.5696,-4.5659,-4.5734,-4.5794,-4.5755,-4.5661,-4.5831,-4.605,-4.6084,-4.6325,-4.6503,-4.6578,-4.6663,-4.6619,-4.6516,-4.6432,-4.6226,-4.6156,-4.6117,-4.6146,-4.6131,-4.6109,-4.6297,-4.623,-4.5939,-4.5727,-4.5656,-4.5721,-4.5761,-4.5778,-4.5762,-4.5729,-4.5664,-4.5579,-4.5577,-4.5633,-4.5902,-4.7579,-5.0784,-5.3569,-5.7374,-6.0398,-6.101,-5.4668,-4.053,-2.6987,-2.1977,-2.21,-2.388,-2.5781,-2.9738,-3.4805,-3.9231,-4.2841,-4.4675,-4.5958,-4.6282,-4.6706,-4.6719,-4.7159,-4.7179,-4.7469,-4.7419,-4.755,-4.7313,-4.7446,-4.7503,-4.7996,-4.7936,-4.8176,-4.8185,-4.8208,-4.8072,-4.8206,-4.8249
