-23.569,-23.575,-23.566,-23.562,-23.544,-23.532,-23.534,-23.516,-23.512,-23.517,-23.526,-23.518,-23.512,-23.498,-23.496,-23.503,-23.507,-23.505,-23.509,-23.532,-23.55,-23.569,-23.588,-23.597,-23.594,-23.602,-23.603,-23.611,-23.614,-23.605,-23.607,-23.613,-23.613,-23.615,-23.618,-23.627,-23.648,-23.626,-23.593,-23.526,-23.396,-23.206,-22.986,-22.867,-23.091,-23.334,-23.757,-23.992,-23.998,-24.003,-23.988,-23.973,-23.9,-23.799,-23.673,-23.616,-23.576,-23.579,-23.558,-23.565,-23.542,-23.561,-23.549,-23.557,-23.537,-23.537,-23.526,-23.53,-23.52,-23.515,-23.497,-23.502,-23.499,-23.495,-23.475,-23.472,-23.456,-23.46,-23.446,-23.437,-23.429,-23.412,-23.407,-23.403,-23.39,-23.372,-23.349,-23.338,-23.328,-23.314,-23.297,-23.276,-23.268,-23.262,-23.256,-23.236,-23.226,-23.222,-23.229,-23.227,-23.228,-23.246,-23.28,-23.31,-23.327,-23.359,-23.392,-23.414,-23.444,-23.475,-23.5,-23.513,-23.531,-23.549,-23.561,-23.57,-23.575,-23.579,-23.587,-23.597,-23.607,-23.59,-23.588,-23.595,-23.607,-23.61,-23.606,-23.604,-23.599,-23.604,-23.618,-23.615,-23.607,-23.608,-23.61,-23.607,-23.602,-23.6,-23.604,-23.607,-23.605,-23.595,-23.598,-23.593,-23.592,-23.599,-23.604,-23.596,-23.594,-23.592,-23.602,-23.599,-23.595,-23.603,-23.605,-23.613,-23.619,-23.601,-23.605,-23.602,-23.616,-23.616,-23.617,-23.612,-23.618,-23.623,-23.635,-23.63,-23.627,-23.624,-23.629,-23.628,-23.631,-23.623,-23.63,-23.639,-23.637,-23.639,-23.627,-23.633,-23.641,-23.644,-23.64,-23.625,-23.614,-23.595,-23.58,-23.583,-23.595,-23.588,-23.582,-23.572,-23.572,-23.574,-23.58,-23.584,-23.581,-23.599,-23.614,-23.625,-23.64,-23.654,-23.676,-23.675,-23.667,-23.671,-23.675,-23.677,-23.681,-23.681,-23.679,-23.681,-23.685,-23.693,-23.705,-23.716,-23.696,-23.667,-23.587,-23.438,-23.344,-23.154,-23.019,-23.174,-23.603,-23.946,-24.051,-24.036,-24.025,-24.039,-23.99,-23.956,-23.869,-23.77,-23.685,-23.653,-23.64,-23.649,-23.638,-23.626,-23.616,-23.611,-23.618,-23.616,-23.607,-23.597,-23.583,-23.592,-23.583,-23.585,-23.566,-23.558,-23.552,-23.555,-23.543,-23.53,-23.519,-23.518,-23.502,-23.501,-23.484,-23.478,-23.463,-23.458,-23.442,-23.423,-23.395,-23.388,-23.377,-23.364,-23.348,-23.332,-23.315,-23.309,-23.3,-23.292,-23.285,-23.286,-23.304,-23.31,-23.328,-23.345,-23.377,-23.409,-23.438,-23.461,-23.491,-23.507,-23.536,-23.554,-23.573,-23.587,-23.598,-23.61,-23.618,-23.629,-23.629,-23.632,-23.634,-23.642,-23.64,-23.644,-23.64,-23.644,-23.649,-23.65,-23.648,-23.645,-23.649,-23.646,-23.651,-23.641,-23.636,-23.639,-23.642,-23.632,-23.637,-23.636,-23.63,-23.635,-23.636,-23.63,-23.622,-23.623,-23.625,-23.623,-23.626,-23.618,-23.615,-23.62,-23.628,-23.618,-23.615,-23.614,-23.625,-23.625,-23.625,-23.622,-23.619,-23.623,-23.629,-23.633,-23.629,-23.63,-23.631,-23.636,-23.641,-23.634,-23.628,-23.629,-23.637,-23.639,-23.64,-23.633,-23.634,-23.636,-23.642,-23.64,-23.636,-23.635,-23.633,-23.637,-23.63,-23.607,-23.593,-23.581,-23.584,-23.59,-23.584,-23.568,-23.561,-23.564,-23.568,-23.576,-23.572,-23.572,-23.577,-23.59,-23.609,-23.61,-23.628,-23.652,-23.662,-23.659,-23.656,-23.654,-23.66,-23.668,-23.667,-23.663,-23.663,-23.668,-23.676,-23.687,-23.693,-23.683,-23.663,-23.626,-23.525,-23.362,-23.144,-22.98,-23.041,-23.468,-23.858,-24.018,-24.021,-24.024,-24.033,-23.992,-23.935,-23.822,-23.729,-23.653,-23.635,-23.607,-23.604,-23.601,-23.599,-23.591,-23.586,-23.575,-23.568,-23.569,-23.564,-23.551,-23.549,-23.541,-23.541,-23.527,-23.517,-23.511,-23.508,-23.503,-23.499,-23.486,-23.474,-23.456,-23.452,-23.444,-23.428,-23.407,-23.395,-23.391,-23.375,-23.351,-23.33,-23.315,-23.299,-23.291,-23.27,-23.259,-23.246,-23.242,-23.233,-23.23,-23.22,-23.222,-23.236,-23.256,-23.276,-23.305,-23.331,-23.374,-23.407,-23.434,-23.455,-23.483,-23.502,-23.523,-23.533,-23.537,-23.548,-23.556,-23.568,-23.578,-23.569,-23.575,-23.577,-23.586,-23.583,-23.582,-23.582,-23.586,-23.59,-23.591,-23.585,-23.59,-23.601,-23.605,-23.594,-23.58,-23.578,-23.586,-23.583,-23.585,-23.584,-23.572,-23.572,-23.581,-23.58,-23.571,-23.555,-23.547,-23.549,-23.56,-23.557,-23.559,-23.558,-23.564,-23.571,-23.566,-23.566,-23.56,-23.568,-23.576,-23.574,-23.571,-23.569,-23.567,-23.571,-23.568,-23.57,-23.566,-23.571,-23.577,-23.586,-23.588,-23.578,-23.571,-23.572,-23.572,-23.574,-23.563,-23.57,-23.57,-23.582,-23.581,-23.572,-23.576,-23.584,-23.587,-23.578,-23.591,-23.585,-23.573,-23.558,-23.529,-23.529,-23.516,-23.51,-23.514,-23.532,-23.519,-23.5,-23.489,-23.503,-23.515,-23.514,-23.504,-23.504,-23.53,-23.553,-23.573,-23.585,-23.595,-23.607,-23.603,-23.597,-23.604,-23.606,-23.61,-23.611,-23.615,-23.609,-23.615,-23.617,-23.635,-23.642,-23.625,-23.592,-23.571,-23.483,-23.314,-23.056,-22.851,-22.856,-23.259,-23.739,-23.878,-24.013,-24.003,-24.034,-23.997,-23.925,-23.812,-23.666,-23.621,-23.579,-23.602,-23.591,-23.571,-23.529,-23.522,-23.518,-23.538,-23.546,-23.548,-23.526,-23.507,-23.48,-23.47,-23.485,-23.569,-23.525,-23.469,-23.429,-23.458,-23.52,-23.457,-23.432,-23.394,-23.39,-23.465,-23.6,-23.501,-23.365,-23.277,-23.231,-23.25,-23.281,-23.291,-23.253,-23.23,-23.227,-23.244,-23.248,-23.224,-23.208,-23.24,-23.243,-23.216,-23.175,-23.165,-23.184,-23.224,-23.276,-23.321,-23.333,-23.369,-23.415,-23.434,-23.452,-23.467,-23.481,-23.499,-23.532,-23.54,-23.512,-23.53,-23.54,-23.552,-23.6,-23.606,-23.557,-23.569,-23.545,-23.534,-23.55,-23.551,-23.554,-23.552,-23.546,-23.541,-23.548,-23.547,-23.545,-23.542,-23.534,-23.548,-23.547,-23.532,-23.537,-23.525,-23.541,-23.537,-23.544,-23.533,-23.54,-23.523,-23.567,-23.558,-23.539,-23.57,-23.541,-23.508,-23.508,-23.516,-23.527,-23.527,-23.526,-23.539,-23.535,-23.538,-23.549,-23.564,-23.565,-23.596,-23.645,-23.624,-23.561,-23.532,-23.544,-23.56,-23.566,-23.582,-23.586,-23.601,-23.592,-23.586,-23.57,-23.578,-23.614,-23.612,-23.64,-23.644,-23.59,-23.588,-23.558,-23.558,-23.54,-23.526,-23.591,-23.641,-23.587,-23.509,-23.476,-23.479,-23.512,-23.508,-23.523,-23.553,-23.578,-23.591,-23.596,-23.602,-23.639,-23.658,-23.671,-23.71,-23.785,-23.777,-23.652,-23.598,-23.595,-23.623,-23.648,-23.664,-23.706,-23.671,-23.664,-23.635,-23.583,-23.458,-23.379,-23.183,-22.998,-23.027,-23.452,-23.88,-24.064,-24.106,-24.102,-24.11,-24.073,-24.042,-23.913,-23.797,-23.696,-23.668,-23.682,-23.763,-23.713,-23.641,-23.613,-23.581,-23.581,-23.593,-23.585,-23.598,-23.573,-23.562,-23.548,-23.563,-23.544,-23.528,-23.515,-23.507,-23.509,-23.502,-23.487,-23.479,-23.483,-23.471,-23.458,-23.443,-23.416,-23.405,-23.384,-23.371,-23.36,-23.333,-23.324,-23.353,-23.326,-23.273,-23.234,-23.232,-23.25,-23.227,-23.219,-23.19,-23.2,-23.19,-23.213,-23.235,-23.259,-23.306,-23.32,-23.332,-23.346,-23.363,-23.391,-23.438,-23.505,-23.478,-23.446,-23.436,-23.443,-23.452,-23.472,-23.45,-23.443,-23.447,-23.455,-23.446,-23.445,-23.437,-23.432,-23.444,-23.448,-23.44,-23.415,-23.411,-23.424,-23.44,-23.46,-23.448,-23.458,-23.42,-23.381,-23.392,-23.45,-23.401,-23.362,-23.377,-23.384,-23.399,-23.366,-23.358,-23.388,-23.386,-23.355,-23.335,-23.321,-23.337,-23.343,-23.346,-23.346,-23.348,-23.35,-23.36,-23.34,-23.344,-23.336,-23.341,-23.335,-23.338,-23.324,-23.326,-23.326,-23.329,-23.327,-23.326,-23.317,-23.327,-23.334,-23.327,-23.317,-23.297,-23.292,-23.285,-23.305,-23.294,-23.271,-23.258,-23.24,-23.22,-23.208,-23.213,-23.218,-23.22,-23.208,-23.208,-23.215,-23.251,-23.275,-23.281,-23.291,-23.29,-23.283,-23.293,-23.307,-23.316,-23.309,-23.291,-23.287,-23.309,-23.295,-23.284,-23.284,-23.291,-23.298,-23.28,-23.237,-23.186,-23.053,-22.859,-22.661,-22.608,-22.743,-23.194,-23.531,-23.64,-23.619,-23.598,-23.622,-23.608,-23.586,-23.498,-23.376,-23.245,-23.193,-23.187,-23.196,-23.186,-23.183,-23.172,-23.181,-23.17,-23.172,-23.14,-23.129,-23.136,-23.135,-23.114,-23.102,-23.083,-23.087,-23.081,-23.058,-23.031,-23.043,-23.036,-23.042,-22.993,-22.982,-22.971,-22.969,-22.948,-22.934,-22.908,-22.905,-22.89,-22.86,-22.839,-22.814,-22.796,-22.788,-22.781,-22.763,-22.734,-22.722,-22.738,-22.732,-22.74,-22.758,-22.761,-22.773,-22.808,-22.849,-22.865,-22.883,-22.901,-22.929,-22.939,-22.951,-22.971,-22.976,-23.001,-23.001,-22.986,-22.958,-22.973,-22.996,-23,-23.021,-23.008,-22.985,-22.995,-23.002,-22.992,-22.983,-22.977,-22.993,-23.005,-23.016,-22.993,-22.985,-22.981,-22.998,-22.999,-22.978,-22.967,-22.953,-22.953,-22.953,-22.946,-22.928,-22.922,-22.912,-22.912,-22.902,-22.899,-22.892,-22.892,-22.895,-22.881,-22.866,-22.873,-22.873,-22.893,-22.874,-22.871,-22.875,-22.873,-22.877,-22.885,-22.868,-22.873,-22.882,-22.88,-22.884,-22.873,-22.872,-22.872,-22.873,-22.876,-22.874,-22.87,-22.867,-22.862,-22.853,-22.826,-22.804,-22.797,-22.771,-22.797,-22.789,-22.774,-22.752,-22.741,-22.745,-22.754,-22.751,-22.758,-22.765,-22.79,-22.831,-22.833,-22.839,-22.875,-22.894,-22.896,-22.894,-22.882,-22.879,-22.88,-22.872,-22.869,-22.873,-22.864,-22.857,-22.876,-22.863,-22.873,-22.845,-22.807,-22.701,-22.521,-22.291,-22.117,-22.135,-22.528,-22.782,-23.078,-23.228,-23.208,-23.23,-23.15,-23.11,-22.967,-22.879,-22.804,-22.766,-22.737,-22.732,-22.72,-22.734,-22.715,-22.707,-22.696,-22.696,-22.684,-22.677,-22.672,-22.66,-22.654,-22.651,-22.631,-22.602,-22.588,-22.595,-22.591,-22.618,-22.584,-22.585,-22.585,-22.573,-22.547,-22.539,-22.507,-22.507,-22.486,-22.486,-22.471,-22.45,-22.423,-22.404,-22.372,-22.36,-22.36,-22.355,-22.345,-22.352,-22.33,-22.324,-22.309,-22.317,-22.362,-22.378,-22.398,-22.407,-22.44,-22.489,-22.526,-22.555,-22.575,-22.599,-22.628,-22.647,-22.649,-22.655,-22.667,-22.68,-22.695,-22.687,-22.676,-22.67,-22.678,-22.685,-22.675,-22.664,-22.655,-22.658,-22.683,-22.669,-22.679,-22.666,-22.67,-22.672,-22.667,-22.657,-22.654,-22.667,-22.681,-22.663,-22.654,-22.65,-22.65,-22.655,-22.656,-22.649,-22.64,-22.637,-22.648,-22.648,-22.639,-22.64,-22.647,-22.638,-22.65,-22.654,-22.643,-22.648,-22.659,-22.642,-22.636,-22.632,-22.631,-22.637,-22.642,-22.637,-22.623,-22.619,-22.624,-22.634,-22.625,-22.615,-22.622,-22.619,-22.643,-22.623,-22.62,-22.606,-22.589,-22.575,-22.556,-22.543,-22.565,-22.563,-22.55,-22.547,-22.538,-22.551,-22.547,-22.534,-22.539,-22.54,-22.547,-22.559,-22.592,-22.611,-22.629,-22.649,-22.63,-22.642,-22.655,-22.65,-22.646,-22.641,-22.645,-22.646,-22.642,-22.635,-22.652,-22.657,-22.667,-22.64,-22.575,-22.477,-22.282,-22.054,-21.886,-21.968,-22.382,-22.799,-23.017,-23.047,-23.053,-23.054,-23.015,-23.004,-22.888,-22.745,-22.711,-22.71,-22.669,-22.624,-22.602,-22.577,-22.578,-22.577,-22.591,-22.622,-22.625,-22.645,-22.697,-22.695,-22.614,-22.56,-22.518,-22.561,-22.639,-22.668,-22.604,-22.609,-22.522,-22.487,-22.472,-22.463,-22.48,-22.489,-22.492,-22.436,-22.407,-22.425,-22.452,-22.437,-22.477,-22.51,-22.526,-22.604,-22.563,-22.379,-22.241,-22.144,-22.153,-22.202,-22.262,-22.321,-22.335,-22.364,-22.382,-22.445,-22.504,-22.543,-22.551,-22.599,-22.682,-22.774,-22.789,-22.802,-22.838,-22.811,-22.781,-22.747,-22.753,-22.822,-22.801,-22.777,-22.758,-22.729,-22.743,-22.717,-22.699,-22.694,-22.695,-22.702,-22.749,-22.784,-22.788,-22.746,-22.733,-22.724,-22.773,-22.771,-22.736,-22.765,-22.777,-22.783,-22.747,-22.71,-22.723,-22.73,-22.714,-22.7,-22.673,-22.745,-22.767,-22.763,-22.762,-22.717,-22.705,-22.725,-22.748,-22.719,-22.742,-22.752,-22.767,-22.768,-22.776,-22.772,-22.746,-22.729,-22.727,-22.777,-22.8,-22.807,-22.763,-22.656,-22.626,-22.7,-22.705,-22.759,-22.789,-22.784,-22.749,-22.748,-22.737,-22.74,-22.746,-22.745,-22.77,-22.722,-22.719,-22.71,-22.689,-22.686,-22.712,-22.708,-22.661,-22.71,-22.772,-22.764,-22.889,-22.993,-22.959,-22.795,-22.721,-22.719,-22.766,-22.804,-22.853,-22.848,-22.786,-22.761,-22.738,-22.647,-22.485,-22.32,-22.232,-22.452,-22.957,-23.296,-23.224,-23.137,-23.131,-23.106,-23.066,-22.975,-22.981,-22.901,-22.79,-22.784,-22.758,-22.778,-22.751,-22.79,-22.732,-22.745,-22.759,-22.71,-22.672,-22.636,-22.672,-22.676,-22.73,-22.857,-22.834,-22.762,-22.686,-22.597,-22.568,-22.573,-22.629,-22.722,-22.68,-22.538,-22.522,-22.484,-22.503,-22.571,-22.615,-22.605,-22.577,-22.544,-22.548,-22.494,-22.526,-22.483,-22.531,-22.498,-22.384,-22.24,-22.24,-22.372,-22.361,-22.302,-22.492,-22.609,-22.645,-22.668,-22.637,-22.668,-22.683,-22.71,-22.724,-22.714,-22.664,-22.621,-22.599,-22.64,-22.637,-22.635,-22.533,-22.455,-22.544,-22.778,-22.828,-22.827,-22.777,-22.82,-22.956,-22.99,-22.823,-22.597,-22.59,-22.764,-22.735,-22.743,-22.734,-22.684,-22.676,-22.664,-22.707,-22.728,-22.718,-22.683,-22.66,-22.73,-22.775,-22.869,-22.776,-22.612,-22.613,-22.781,-22.8,-22.822,-22.814,-22.754,-22.755,-22.729,-22.733,-22.729,-22.742,-22.742,-22.761,-22.749,-22.765,-22.749,-22.746,-22.774,-22.774,-22.847,-22.797,-22.707,-22.704,-22.653,-22.549,-22.533,-22.816,-22.926,-22.925,-22.854,-22.755,-22.655,-22.616,-22.648,-22.744,-22.807,-22.82,-22.801,-22.784,-22.809,-22.829,-22.825,-22.84,-22.84,-22.869,-22.831,-22.704,-22.679,-22.819,-22.912,-23.015,-23.082,-23.086,-22.904,-22.816,-22.84,-22.749,-22.648,-22.494,-22.372,-22.341,-22.706,-23.056,-23.263,-23.28,-23.204,-23.266,-23.296,-23.261,-23.155,-23.068,-22.959,-22.897,-22.824,-22.799,-22.794,-22.84,-22.869,-22.82,-22.801,-22.792,-22.677,-22.763,-22.831,-22.863,-22.814,-22.724,-22.733,-22.699,-22.661,-22.642,-22.649,-22.653,-22.643,-22.641,-22.623,-22.495,-22.433,-22.478,-22.632,-22.773,-22.736,-22.624,-22.617,-22.724,-22.75,-22.695,-22.627,-22.556,-22.468,-22.432,-22.492,-22.521,-22.406,-22.362,-22.563,-22.688,-22.691,-22.655,-22.595,-22.595,-22.738,-22.772,-22.817,-22.849,-22.834,-22.778,-22.781,-22.77,-22.771,-22.763,-22.775,-22.892,-22.963,-22.907,-22.884,-22.82,-22.79,-22.825,-22.873,-22.918,-22.98,-22.991,-22.942,-22.801,-22.799,-23.008,-23.086,-22.997,-22.901,-22.813,-22.777,-22.847,-22.887,-22.874,-22.843,-22.836,-22.857,-22.872,-22.892,-22.969,-23.002,-22.943,-22.878,-22.824,-22.845,-22.862,-22.877,-22.964,-23.05,-23.051,-22.934,-22.843,-22.753,-22.655,-22.882,-23.188,-23.153,-22.969,-22.882,-22.908,-22.915,-22.924,-22.96,-22.967,-22.937,-22.926,-22.923,-22.997,-23.107,-23.011,-22.833,-22.842,-22.891,-22.984,-22.995,-22.955,-22.924,-22.932,-22.95,-22.96,-22.991,-23.058,-23.118,-23.213,-23.61,-23.367,-23.111,-23.088,-23.043,-23.037,-22.925,-22.913,-22.886,-22.918,-22.882,-22.866,-22.847,-22.92,-22.937,-22.948,-22.854,-22.797,-22.874,-22.986,-22.982,-22.94,-22.829,-22.767,-22.608,-22.415,-22.287,-22.354,-22.725,-23.064,-23.361,-23.597,-23.51,-23.328,-23.227,-23.149,-23.07,-22.97,-22.918,-22.855,-22.881,-22.97,-22.936,-22.829,-22.774,-22.85,-22.911,-23.04,-23.003,-22.947,-22.884,-22.926,-23.077,-23.024,-22.889,-22.827,-22.772,-22.776,-22.801,-22.795,-22.81,-22.791,-22.794,-22.756,-22.69,-22.639,-22.725,-22.796,-22.825,-22.771,-22.719,-22.697,-22.661,-22.651,-22.652,-22.657,-22.658,-22.63,-22.609,-22.548,-22.517,-22.503,-22.502,-22.538,-22.575,-22.581,-22.623,-22.616,-22.647,-22.689,-22.676,-22.598,-22.646,-22.823,-22.992,-22.884,-22.821,-22.805,-22.804,-22.817,-22.87,-22.912,-22.861,-22.837,-22.82,-22.826,-22.817,-22.784,-22.758,-22.784,-22.821,-22.875,-22.878,-22.875,-22.871,-22.911,-22.919,-22.846,-22.777,-22.767,-22.784,-22.776,-22.811,-22.82,-22.786,-22.804,-22.819,-22.813,-22.827,-22.844,-22.834,-22.832,-22.831,-22.813,-22.776,-22.864,-22.876,-22.89,-22.878,-22.885,-22.868,-22.817,-22.89,-22.917,-22.908,-22.845,-22.877,-22.937,-22.968,-22.971,-22.984,-23.074,-23.02,-22.922,-22.889,-22.896,-22.913,-22.938,-22.943,-22.894,-22.851,-22.844,-22.912,-22.908,-22.907,-22.898,-22.925,-22.911,-22.9,-22.891,-22.894,-22.925,-22.945,-22.961,-22.981,-23.062,-23.059,-23.062,-23.05,-23.001,-22.96,-22.955,-23.013,-23.039,-23.016,-22.98,-23.051,-23.084,-23.067,-23.071,-23.072,-23.059,-22.971,-22.842,-22.704,-22.47,-22.322,-22.475,-22.976,-23.385,-23.523,-23.546,-23.538,-23.486,-23.394,-23.312,-23.186,-23.115,-23.06,-23.058,-23.013,-22.995,-22.997,-23.088,-23.111,-23.069,-23.067,-23.036,-22.984,-22.935,-22.87,-22.919,-22.962,-23.027,-23.018,-22.996,-22.974,-22.968,-22.968,-22.917,-22.856,-22.85,-22.879,-22.853,-22.908,-22.995,-22.989,-22.961,-22.963,-22.897,-22.837,-22.773,-22.767,-22.779,-22.77,-22.761,-22.744,-22.728,-22.714,-22.717,-22.7,-22.714,-22.675,-22.697,-22.749,-22.809,-22.855,-22.874,-22.893,-22.949,-22.971,-23.019,-22.998,-22.993,-23.016,-23.034,-23.053,-23.052,-23.067,-23.083,-23.089,-23.061,-23.057,-23.078,-23.14,-23.148,-23.157,-23.177,-23.229,-23.175,-23.104,-23.046,-23.043,-23.084,-23.143,-23.149,-23.145,-23.107,-23.095,-23.094,-23.13,-23.161,-23.163,-23.156,-23.144,-23.141,-23.138,-23.139,-23.146,-23.167,-23.132,-23.103,-23.097,-23.095,-23.163,-23.212,-23.223,-23.198,-23.188,-23.194,-23.203,-23.154,-23.133,-23.162,-23.199,-23.23,-23.191,-23.193,-23.187,-23.207,-23.221,-23.19,-23.17,-23.183,-23.147,-23.128,-23.148,-23.198,-23.179,-23.175,-23.198,-23.184,-23.158,-23.151,-23.153,-23.161,-23.16,-23.145,-23.08,-23.11,-23.215,-23.254,-23.26,-23.176,-23.133,-23.197,-23.302,-23.329,-23.307,-23.286,-23.279,-23.287,-23.291,-23.311,-23.315,-23.334,-23.304,-23.294,-23.26,-23.23,-23.179,-23.066,-22.899,-22.72,-22.662,-22.768,-23.232,-23.607,-23.726,-23.701,-23.696,-23.694,-23.656,-23.623,-23.522,-23.415,-23.333,-23.303,-23.264,-23.259,-23.263,-23.259,-23.245,-23.271,-23.294,-23.348,-23.265,-23.201,-23.193,-23.212,-23.219,-23.185,-23.149,-23.133,-23.18,-23.205,-23.181,-23.104,-23.041,-23.049,-23.192,-23.228,-23.194,-23.172,-23.14,-23.117,-23.097,-23.082,-23.079,-23.056,-23.063,-23.033,-23.021,-23.037,-23.038,-22.996,-22.965,-22.967,-22.978,-22.982,-22.989,-23.001,-23.013,-23.038,-23.049,-23.073,-23.098,-23.121,-23.164,-23.181,-23.162,-23.203,-23.27,-23.307,-23.316,-23.323,-23.316,-23.311,-23.303,-23.297,-23.309,-23.315,-23.334,-23.336,-23.346,-23.332,-23.338,-23.326,-23.323,-23.336,-23.335,-23.317,-23.316,-23.351,-23.404,-23.371,-23.334,-23.336,-23.341,-23.333,-23.327,-23.327,-23.333,-23.34,-23.351,-23.35,-23.342,-23.337,-23.355,-23.339,-23.362,-23.374,-23.349,-23.362,-23.337,-23.351,-23.38,-23.375,-23.39,-23.403,-23.378,-23.384,-23.375,-23.374,-23.398,-23.405,-23.369,-23.388,-23.36,-23.365,-23.326,-23.348,-23.347,-23.296,-23.241,-23.311,-23.372,-23.401,-23.361,-23.327,-23.361,-23.397,-23.411,-23.425,-23.427,-23.434,-23.456,-23.461,-23.453,-23.447,-23.439,-23.444,-23.46,-23.442,-23.463,-23.457,-23.476,-23.476,-23.494,-23.503,-23.508,-23.467,-23.425,-23.298,-23.169,-22.992,-22.882,-23.057,-23.506,-23.81,-23.865,-23.869,-23.899,-23.961,-23.855,-23.755,-23.663,-23.546,-23.48,-23.46,-23.447,-23.45,-23.455,-23.441,-23.437,-23.44,-23.472,-23.449,-23.446,-23.435,-23.41,-23.378,-23.365,-23.371,-23.381,-23.374,-23.381,-23.387,-23.384,-23.362,-23.336,-23.331,-23.335,-23.326,-23.316,-23.299,-23.277,-23.253,-23.276,-23.311,-23.31,-23.281,-23.251,-23.233,-23.227,-23.245,-23.241,-23.231,-23.22,-23.179,-23.17,-23.167,-23.18,-23.22,-23.24,-23.265,-23.285,-23.324,-23.351,-23.377,-23.396,-23.422,-23.448,-23.482,-23.404,-23.375,-23.458,-23.55,-23.649,-23.617,-23.593,-23.579,-23.545,-23.551,-23.554,-23.565,-23.567,-23.578,-23.577,-23.58,-23.563,-23.581,-23.579,-23.588,-23.627,-23.626,-23.592,-23.569,-23.542,-23.552,-23.566,-23.572,-23.564,-23.575,-23.581,-23.567,-23.535,-23.51,-23.505,-23.453,-23.496,-23.641,-23.698,-23.662,-23.643,-23.656,-23.655,-23.624,-23.611,-23.616,-23.628,-23.625,-23.608,-23.601,-23.609,-23.633,-23.617,-23.6,-23.584,-23.568,-23.543,-23.534,-23.581,-23.581,-23.585,-23.578,-23.593,-23.595,-23.593,-23.619,-23.636,-23.607,-23.593,-23.609,-23.625,-23.671,-23.705,-23.682,-23.667,-23.675,-23.689,-23.713,-23.703,-23.69,-23.676,-23.685,-23.687,-23.677,-23.653,-23.699,-23.759,-23.739,-23.667,-23.549,-23.375,-23.183,-23.06,-23.125,-23.566,-23.985,-24.155,-24.167,-24.152,-24.13,-24.1,-24.035,-23.924,-23.81,-23.73,-23.687,-23.671,-23.682,-23.669,-23.67,-23.647,-23.662,-23.644,-23.635,-23.64,-23.633,-23.631,-23.621,-23.584,-23.517,-23.524,-23.615,-23.644,-23.632,-23.597,-23.576,-23.578,-23.565,-23.532,-23.504,-23.464,-23.481,-23.49,-23.479,-23.5,-23.512,-23.504,-23.467,-23.436,-23.419,-23.401,-23.386,-23.379,-23.361,-23.359,-23.353,-23.349,-23.351,-23.357,-23.372,-23.392,-23.405,-23.437,-23.498,-23.549,-23.563,-23.552,-23.565,-23.615,-23.631,-23.648,-23.651,-23.66,-23.686,-23.703,-23.709,-23.714,-23.728,-23.744,-23.745,-23.738,-23.729,-23.745,-23.726,-23.726,-23.72,-23.716,-23.717,-23.73,-23.746,-23.739,-23.712,-23.651,-23.652,-23.721,-23.748,-23.733,-23.717,-23.714,-23.707,-23.711,-23.718,-23.714,-23.708,-23.724,-23.726,-23.718,-23.72,-23.718,-23.717,-23.731,-23.732,-23.75,-23.748,-23.743,-23.742,-23.746,-23.745,-23.75,-23.778,-23.789,-23.766,-23.733,-23.707,-23.691,-23.679,-23.691,-23.709,-23.716,-23.699,-23.682,-23.694,-23.705,-23.699,-23.7,-23.706,-23.712,-23.726,-23.743,-23.769,-23.796,-23.805,-23.798,-23.797,-23.812,-23.827,-23.816,-23.831,-23.82,-23.817,-23.816,-23.828,-23.823,-23.812,-23.82,-23.838,-23.814,-23.772,-23.661,-23.506,-23.293,-23.147,-23.189,-23.623,-24.061,-24.272,-24.297,-24.282,-24.279,-24.222,-24.161,-24.021,-23.909,-23.834,-23.805,-23.77,-23.756,-23.794,-23.813,-23.795,-23.785,-23.783,-23.77,-23.748,-23.749,-23.744,-23.74,-23.734,-23.723,-23.719,-23.709,-23.696,-23.707,-23.692,-23.698,-23.71,-23.697,-23.671,-23.631,-23.609,-23.606,-23.597,-23.602,-23.594,-23.57,-23.558,-23.554,-23.544,-23.526,-23.511,-23.482,-23.473,-23.472,-23.46,-23.455,-23.449,-23.444,-23.453,-23.457,-23.468,-23.498,-23.513,-23.539,-23.574,-23.619,-23.632,-23.656,-23.682,-23.703,-23.724,-23.735,-23.748,-23.76,-23.758,-23.771,-23.778,-23.774,-23.793,-23.796,-23.789,-23.779,-23.773,-23.785,-23.795,-23.804,-23.786,-23.799,-23.78,-23.769,-23.758,-23.748,-23.748,-23.751,-23.768,-23.767,-23.759,-23.744,-23.75,-23.763,-23.766,-23.75,-23.746,-23.751,-23.757,-23.76,-23.764,-23.751,-23.752,-23.758,-23.777,-23.773,-23.772,-23.768,-23.768,-23.777,-23.782,-23.78,-23.776,-23.785,-23.785,-23.773,-23.738,-23.728,-23.732,-23.729,-23.733,-23.735,-23.727,-23.712,-23.709,-23.718,-23.721,-23.719,-23.722,-23.733,-23.756,-23.767,-23.774,-23.789,-23.82,-23.821,-23.821,-23.817,-23.826,-23.824,-23.828,-23.842,-23.836,-23.837,-23.84,-23.842,-23.862,-23.855,-23.852,-23.824,-23.799,-23.727,-23.579,-23.374,-23.2,-23.201,-23.314,-23.771,-24.146,-24.284,-24.303,-24.295,-24.259,-24.182,-24.101,-23.957,-23.887,-23.858,-23.834,-23.826,-23.828,-23.815,-23.798,-23.779,-23.782,-23.782,-23.793,-23.782,-23.777,-23.766,-23.769,-23.76,-23.763,-23.751,-23.748,-23.728,-23.733,-23.728,-23.716,-23.697,-23.698,-23.687,-23.694,-23.676,-23.664,-23.658,-23.67,-23.642,-23.629,-23.606,-23.591,-23.58,-23.577,-23.569,-23.547,-23.54,-23.539,-23.538,-23.518,-23.511,-23.515,-23.54,-23.56,-23.578,-23.601,-23.619,-23.639,-23.683,-23.705,-23.743,-23.75,-23.777,-23.803,-23.824,-23.828,-23.84,-23.843,-23.867,-23.872,-23.877,-23.861,-23.867,-23.886,-23.885,-23.885,-23.882,-23.878,-23.882,-23.886,-23.882,-23.875,-23.866,-23.868,-23.875,-23.877,-23.871,-23.865,-23.864,-23.865,-23.863,-23.86,-23.871,-23.866,-23.873,-23.87,-23.867,-23.868,-23.871,-23.871,-23.88,-23.86,-23.867,-23.877,-23.89,-23.891,-23.878,-23.891,-23.89,-23.893,-23.898,-23.895,-23.885,-23.866,-23.861,-23.855,-23.837,-23.838,-23.854,-23.852,-23.842,-23.818,-23.826,-23.836,-23.832,-23.828,-23.834,-23.839,-23.855,-23.889,-23.913,-23.923,-23.935,-23.931,-23.93,-23.93,-23.946,-23.941,-23.936,-23.935,-23.939,-23.936,-23.933,-23.939,-23.957,-23.959,-23.934,-23.904,-23.852,-23.749,-23.606,-23.424,-23.303,-23.327,-23.741,-24.173,-24.391,-24.422,-24.406,-24.356,-24.277,-24.236,-24.151,-24.047,-23.926,-23.9,-23.884,-23.87,-23.853,-23.848,-23.838,-23.842,-23.831,-23.829,-23.806,-23.807,-23.793,-23.782,-23.779,-23.767,-23.758,-23.755,-23.745,-23.726,-23.706,-23.709,-23.697,-23.684,-23.671,-23.655,-23.637,-23.636,-23.627,-23.612,-23.586,-23.572,-23.569,-23.564,-23.547,-23.538,-23.516,-23.514,-23.494,-23.493,-23.473,-23.464,-23.465,-23.47,-23.474,-23.473,-23.478,-23.496,-23.523,-23.547,-23.572,-23.59,-23.608,-23.632,-23.658,-23.676,-23.667,-23.689,-23.705,-23.711,-23.708,-23.717,-23.713,-23.723,-23.719,-23.715,-23.712,-23.719,-23.711,-23.712,-23.706,-23.695,-23.685,-23.694,-23.698,-23.693,-23.681,-23.675,-23.672,-23.672,-23.67,-23.656,-23.645,-23.655,-23.649,-23.65,-23.646,-23.639,-23.64,-23.639,-23.629,-23.629,-23.623,-23.617,-23.624,-23.618,-23.63,-23.618,-23.624,-23.625,-23.613,-23.593,-23.575,-23.555,-23.549,-23.548,-23.561,-23.563,-23.55,-23.526,-23.528,-23.527,-23.536,-23.509,-23.524,-23.528,-23.548,-23.563,-23.566,-23.582,-23.598,-23.592,-23.591,-23.589,-23.588,-23.588,-23.601,-23.588,-23.584,-23.577,-23.588,-23.585,-23.585,-23.588,-23.586,-23.536,-23.503,-23.422,-23.287,-23.122,-22.98,-23.023,-23.457,-23.827,-23.922,-23.978,-23.96,-23.916,-23.878,-23.846,-23.8,-23.71,-23.609,-23.534,-23.487,-23.467,-23.453,-23.451,-23.41,-23.427,-23.429,-23.416,-23.393,-23.385,-23.389,-23.384,-23.396,-23.387,-23.385,-23.356,-23.322,-23.317,-23.317,-23.315,-23.34,-23.359,-23.349,-23.295,-23.247,-23.218,-23.218,-23.215,-23.201,-23.195,-23.166,-23.153,-23.088,-23.123,-23.173,-23.145,-23.109,-23.095,-23.092,-23.084,-23.073,-23.068,-23.074,-23.092,-23.109,-23.149,-23.164,-23.161,-23.176,-23.176,-23.191,-23.222,-23.246,-23.265,-23.279,-23.297,-23.296,-23.316,-23.319,-23.324,-23.326,-23.325,-23.336,-23.345,-23.351,-23.343,-23.341,-23.344,-23.347,-23.347,-23.352,-23.343,-23.349,-23.346,-23.343,-23.327,-23.318,-23.317,-23.304,-23.329,-23.334,-23.325,-23.317,-23.321,-23.327,-23.323,-23.321,-23.329,-23.328,-23.323,-23.33,-23.339,-23.339,-23.345,-23.344,-23.339,-23.369,-23.362,-23.319,-23.289,-23.289,-23.285,-23.275,-23.281,-23.288,-23.283,-23.263,-23.265,-23.28,-23.296,-23.299,-23.306,-23.3,-23.299,-23.329,-23.345,-23.361,-23.371,-23.374,-23.393,-23.38,-23.393,-23.383,-23.38,-23.392,-23.393,-23.396,-23.424,-23.399,-23.388,-23.388,-23.381,-23.353,-23.309,-23.221,-23.074,-22.904,-22.75,-22.806,-23.24,-23.65,-23.813,-23.838,-23.829,-23.783,-23.708,-23.674,-23.575,-23.464,-23.378,-23.341,-23.326,-23.327,-23.302,-23.306,-23.294,-23.297,-23.295,-23.286,-23.272,-23.274,-23.257,-23.257,-23.256,-23.254,-23.258,-23.271,-23.246,-23.253,-23.235,-23.228,-23.2,-23.176,-23.164,-23.142,-23.143,-23.13,-23.124,-23.124,-23.096,-23.092,-23.075,-23.072,-23.056,-23.044,-23.038,-23.019,-23.02,-23.008,-22.998,-22.985,-22.984,-22.98,-22.999,-23.009,-23.02,-23.034,-23.066,-23.101,-23.114,-23.132,-23.155,-23.18,-23.209,-23.221,-23.228,-23.227,-23.233,-23.251,-23.255,-23.25,-23.256,-23.262,-23.274,-23.273,-23.277,-23.263,-23.284,-23.303,-23.299,-23.288,-23.258,-23.242,-23.238,-23.267,-23.271,-23.257,-23.237,-23.239,-23.253,-23.249,-23.25,-23.253,-23.258,-23.262,-23.259,-23.253,-23.26,-23.264,-23.273,-23.27,-23.266,-23.264,-23.265,-23.276,-23.285,-23.28,-23.266,-23.251,-23.249,-23.241,-23.235,-23.246,-23.266,-23.229,-23.205,-23.196,-23.212,-23.224,-23.235,-23.24,-23.24,-23.246,-23.256,-23.29,-23.305,-23.328,-23.329,-23.325,-23.337,-23.34,-23.348,-23.347,-23.355,-23.359,-23.365,-23.355,-23.351,-23.367,-23.393,-23.381,-23.336,-23.303,-23.22,-23.093,-22.915,-22.734,-22.686,-22.979,-23.441,-23.712,-23.774,-23.767,-23.761,-23.73,-23.667,-23.627,-23.508,-23.368,-23.336,-23.329,-23.327,-23.319,-23.312,-23.304,-23.297,-23.298,-23.306,-23.299,-23.288,-23.274,-23.284,-23.272,-23.247,-23.234,-23.233,-23.235,-23.236,-23.216,-23.212,-23.215,-23.208,-23.201,-23.183,-23.18,-23.163,-23.155,-23.15,-23.13,-23.113,-23.112,-23.094,-23.089,-23.066,-23.055,-23.046,-23.042,-23.038,-23.028,-23.033,-23.027,-23.022,-23.046,-23.067,-23.079,-23.103,-23.134,-23.17,-23.188,-23.208,-23.228,-23.248,-23.285,-23.303,-23.313,-23.311,-23.325,-23.341,-23.355,-23.358,-23.359,-23.358,-23.367,-23.388,-23.389,-23.381,-23.38,-23.371,-23.388,-23.391,-23.396,-23.41,-23.401,-23.391,-23.365,-23.37,-23.382,-23.401,-23.378,-23.367,-23.357,-23.346,-23.361,-23.37,-23.368,-23.362,-23.371,-23.371,-23.379,-23.381,-23.375,-23.372,-23.378,-23.387,-23.389,-23.377,-23.36,-23.355,-23.363,-23.361,-23.338,-23.322,-23.325,-23.325,-23.317,-23.315,-23.326,-23.348,-23.35,-23.341,-23.334,-23.348,-23.385,-23.437,-23.451,-23.45,-23.436,-23.428,-23.446,-23.455,-23.473,-23.469,-23.46,-23.444,-23.459,-23.467,-23.481,-23.478,-23.487,-23.486,-23.483,-23.439,-23.334,-23.166,-22.943,-22.796,-22.806,-22.943,-23.423,-23.777,-23.919,-23.935,-23.912,-23.881,-23.807,-23.719,-23.588,-23.499,-23.443,-23.451,-23.441,-23.438,-23.417,-23.428,-23.433,-23.448,-23.43,-23.44,-23.418,-23.417,-23.39,-23.409,-23.391,-23.392,-23.393,-23.387,-23.374,-23.378,-23.354,-23.312,-23.312,-23.317,-23.297,-23.286,-23.274,-23.275,-23.273,-23.258,-23.245,-23.243,-23.251,-23.249,-23.233,-23.215,-23.178,-23.174,-23.182,-23.195,-23.176,-23.166,-23.168,-23.169,-23.192,-23.218,-23.246,-23.262,-23.306,-23.343,-23.356,-23.373,-23.409,-23.441,-23.465,-23.481,-23.471,-23.488,-23.505,-23.519,-23.529,-23.529,-23.533,-23.532,-23.548,-23.537,-23.533,-23.533,-23.546,-23.554,-23.553,-23.541,-23.545,-23.552,-23.558,-23.561,-23.557,-23.546,-23.549,-23.542,-23.544,-23.548,-23.565,-23.595,-23.585,-23.552,-23.539,-23.532,-23.545,-23.555,-23.562,-23.558,-23.567,-23.567,-23.569,-23.567,-23.567,-23.572,-23.579,-23.587,-23.588,-23.554,-23.534,-23.522,-23.522,-23.509,-23.515,-23.53,-23.52,-23.501,-23.485,-23.493,-23.501,-23.498,-23.533,-23.534,-23.546,-23.556,-23.595,-23.632,-23.639,-23.591,-23.597,-23.613,-23.6,-23.604,-23.614,-23.599,-23.605,-23.615,-23.624,-23.643,-23.654,-23.669,-23.658,-23.632,-23.584,-23.49,-23.331,-23.125,-22.993,-23.009,-23.42,-23.849,-24.063,-24.101,-24.112,-24.132,-24.099,-24.025,-23.885,-23.775,-23.692,-23.687,-23.652,-23.641,-23.64,-23.616,-23.587,-23.593,-23.597,-23.609,-23.611,-23.603,-23.591,-23.592,-23.593,-23.598,-23.583,-23.583,-23.581,-23.607,-23.598,-23.575,-23.529,-23.527,-23.565,-23.592,-23.53,-23.535,-23.486,-23.463,-23.445,-23.442,-23.44,-23.439,-23.412,-23.4,-23.392,-23.384,-23.389,-23.388,-23.374,-23.37,-23.366,-23.425,-23.384,-23.368,-23.38,-23.388,-23.432,-23.447,-23.489,-23.488,-23.527,-23.553,-23.578,-23.6,-23.636,-23.643,-23.651,-23.664,-23.686,-23.692,-23.698,-23.692,-23.691,-23.695,-23.703,-23.703,-23.695,-23.699,-23.705,-23.701,-23.712,-23.7,-23.695,-23.7,-23.711,-23.72,-23.724,-23.706,-23.7,-23.71,-23.727,-23.72,-23.725,-23.737,-23.727,-23.729,-23.74,-23.723,-23.726,-23.733,-23.74,-23.753,-23.727,-23.723,-23.729,-23.738,-23.733,-23.722,-23.733,-23.731,-23.747,-23.758,-23.768,-23.767,-23.755,-23.756,-23.735,-23.713,-23.699,-23.685,-23.697,-23.71,-23.707,-23.682,-23.687,-23.677,-23.693,-23.705,-23.703,-23.704,-23.727,-23.744,-23.76,-23.768,-23.783,-23.803,-23.808,-23.807,-23.817,-23.797,-23.8,-23.798,-23.814,-23.8,-23.808,-23.8,-23.801,-23.833,-23.828,-23.793,-23.743,-23.673,-23.538,-23.336,-23.155,-23.118,-23.229,-23.712,-24.113,-24.26,-24.253,-24.244,-24.219,-24.147,-24.057,-23.918,-23.848,-23.796,-23.771,-23.757,-23.757,-23.756,-23.756,-23.74,-23.735,-23.725,-23.757,-23.75,-23.74,-23.724,-23.737,-23.726,-23.693,-23.671,-23.663,-23.661,-23.659,-23.663,-23.661,-23.651,-23.637,-23.638,-23.622,-23.615,-23.602,-23.605,-23.595,-23.595,-23.588,-23.577,-23.548,-23.539,-23.54,-23.569,-23.581,-23.552,-23.503,-23.46,-23.452,-23.471,-23.487,-23.5,-23.518,-23.546,-23.559,-23.57,-23.596,-23.62,-23.652,-23.686,-23.713,-23.724,-23.742,-23.753,-23.772,-23.79,-23.793,-23.806,-23.807,-23.825,-23.822,-23.824,-23.844,-23.854,-23.863,-23.856,-23.855,-23.846,-23.841,-23.838,-23.818,-23.82,-23.824,-23.846,-23.841,-23.844,-23.832,-23.834,-23.847,-23.857,-23.86,-23.852,-23.844,-23.851,-23.856,-23.858,-23.86,-23.852,-23.862,-23.88,-23.887,-23.874,-23.877,-23.875,-23.882,-23.894,-23.9,-23.895,-23.886,-23.899,-23.903,-23.902,-23.871,-23.865,-23.852,-23.839,-23.858,-23.863,-23.855,-23.84,-23.829,-23.852,-23.849,-23.855,-23.858,-23.876,-23.891,-23.902,-23.915,-23.924,-23.947,-23.968,-23.97,-23.958,-23.953,-23.972,-23.975,-23.972,-23.974,-23.955,-23.964,-23.971,-23.981,-23.981,-23.973,-23.953,-23.913,-23.811,-23.67,-23.493,-23.394,-23.403,-23.78,-24.2,-24.414,-24.431,-24.43,-24.409,-24.333,-24.279,-24.224,-24.123,-24.027,-23.979,-23.96,-23.953,-23.942,-23.956,-23.944,-23.936,-23.93,-23.932,-23.935,-23.916,-23.9,-23.907,-23.909,-23.895,-23.886,-23.874,-23.87,-23.876,-23.861,-23.866,-23.845,-23.838,-23.835,-23.834,-23.822,-23.816,-23.806,-23.792,-23.777,-23.779,-23.761,-23.756,-23.747,-23.742,-23.737,-23.724,-23.705,-23.705,-23.709,-23.715,-23.707,-23.7,-23.721,-23.739,-23.766,-23.772,-23.772,-23.803,-23.83,-23.861,-23.889,-23.906,-23.925,-23.946,-23.964,-23.98,-23.991,-23.992,-24.003,-24.005,-24.014,-24.022,-24.028,-24.041,-24.048,-24.048,-24.043,-24.051,-24.048,-24.047,-24.037,-24.038,-24.038,-24.036,-24.049,-24.063,-24.053,-24.037,-24.052,-24.059,-24.063,-24.058,-24.049,-24.043,-24.039,-24.038,-24.041,-24.048,-24.05,-24.058,-24.055,-24.058,-24.059,-24.057,-24.074,-24.073,-24.071,-24.069,-24.078,-24.081,-24.099,-24.102,-24.082,-24.046,-24.051,-24.043,-24.028,-24.027,-24.035,-24.028,-24.022,-24.014,-24.022,-24.031,-24.029,-24.041,-24.041,-24.038,-24.064,-24.091,-24.119,-24.13,-24.135,-24.129,-24.126,-24.142,-24.138,-24.141,-24.141,-24.149,-24.143,-24.149,-24.154,-24.15,-24.156,-24.149,-24.124,-24.086,-23.981,-23.855,-23.679,-23.552,-23.605,-23.802,-24.26,-24.536,-24.581,-24.575,-24.541,-24.522,-24.464,-24.413,-24.302,-24.196,-24.131,-24.114,-24.098,-24.104,-24.101,-24.085,-24.071,-24.062,-24.064,-24.07,-24.054,-24.045,-24.043,-24.055,-24.042,-24.027,-24.022,-24.029,-24.039,-24.018,-23.996,-23.978,-23.97,-23.972,-23.959,-23.947,-23.942,-23.939,-23.934,-23.927,-23.913,-23.895,-23.887,-23.888,-23.883,-23.868,-23.832,-23.842,-23.848,-23.838,-23.82,-23.81,-23.807,-23.822,-23.844,-23.858,-23.87,-23.882,-23.915,-23.953,-23.978,-23.998,-24.015,-24.041,-24.067,-24.08,-24.09,-24.089,-24.101,-24.119,-24.125,-24.123,-24.127,-24.127,-24.141,-24.141,-24.141,-24.138,-24.14,-24.146,-24.153,-24.137,-24.124,-24.12,-24.133,-24.133,-24.13,-24.117,-24.12,-24.13,-24.132,-24.135,-24.126,-24.122,-24.13,-24.137,-24.137,-24.154,-24.163,-24.143,-24.12,-24.109,-24.116,-24.124,-24.133,-24.146,-24.15,-24.149,-24.143,-24.145,-24.15,-24.157,-24.153,-24.161,-24.19,-24.194,-24.189,-24.166,-24.118,-24.123,-24.112,-24.091,-24.078,-24.115,-24.104,-24.072,-24.069,-24.09,-24.1,-24.095,-24.117,-24.111,-24.119,-24.139,-24.18,-24.186,-24.195,-24.195,-24.196,-24.217,-24.228,-24.199,-24.189,-24.186,-24.185,-24.211,-24.2,-24.199,-24.21,-24.223,-24.224,-24.193,-24.147,-24.032,-23.949,-23.768,-23.63,-23.61,-23.977,-24.408,-24.617,-24.644,-24.63,-24.636,-24.582,-24.529,-24.426,-24.331,-24.235,-24.199,-24.19,-24.208,-24.195,-24.169,-24.148,-24.157,-24.158,-24.171,-24.171,-24.152,-24.102,-24.095,-24.09,-24.098,-24.081,-24.083,-24.074,-24.078,-24.077,-24.078,-24.056,-24.044,-24.052,-24.042,-24.024,-24.006,-23.986,-24.001,-24.001,-23.977,-23.968,-23.948,-23.923,-23.907,-23.892,-23.889,-23.876,-23.875,-23.871,-23.874,-23.862,-23.861,-23.876,-23.886,-23.889,-23.909,-23.938,-23.97,-24.011,-24.039,-24.052,-24.083,-24.126,-24.146,-24.16,-24.174,-24.179,-24.214,-24.212,-24.188,-24.177,-24.182,-24.189,-24.184,-24.194,-24.212,-24.22,-24.21,-24.202,-24.212,-24.204,-24.214,-24.214,-24.214,-24.219,-24.212,-24.217,-24.211,-24.24,-24.233,-24.224,-24.209,-24.2,-24.204,-24.215,-24.224,-24.227,-24.22,-24.223,-24.219,-24.217,-24.223,-24.222,-24.224,-24.224,-24.237,-24.243,-24.24,-24.243,-24.255,-24.294,-24.287,-24.25,-24.224,-24.235,-24.264,-24.268,-24.245,-24.241,-24.239,-24.236,-24.221,-24.191,-24.17,-24.186,-24.203,-24.222,-24.202,-24.173,-24.169,-24.169,-24.18,-24.18,-24.187,-24.198,-24.21,-24.239,-24.238,-24.259,-24.262,-24.278,-24.287,-24.287,-24.282,-24.312,-24.305,-24.294,-24.286,-24.298,-24.308,-24.322,-24.343,-24.334,-24.272,-24.204,-24.097,-23.982,-23.768,-23.612,-23.671,-24.123,-24.578,-24.759,-24.769,-24.76,-24.726,-24.659,-24.569,-24.432,-24.403,-24.313,-24.271,-24.27,-24.272,-24.248,-24.236,-24.231,-24.241,-24.224,-24.222,-24.204,-24.201,-24.191,-24.196,-24.181,-24.187,-24.168,-24.165,-24.169,-24.172,-24.153,-24.147,-24.131,-24.142,-24.117,-24.104,-24.097,-24.087,-24.072,-24.06,-24.041,-24.018,-23.996,-24,-23.971,-23.95,-23.952,-23.935,-23.918,-23.907,-23.905,-23.88,-23.883,-23.894,-23.908,-23.95,-23.946,-23.962,-23.992,-24.007,-24.045,-24.108,-24.119,-24.127,-24.145,-24.158,-24.195,-24.217,-24.222,-24.234,-24.236,-24.229,-24.252,-24.265,-24.271,-24.278,-24.268,-24.258,-24.249,-24.244,-24.248,-24.254,-24.286,-24.284,-24.289,-24.278,-24.289,-24.281,-24.285,-24.286,-24.259,-24.266,-24.249,-24.261,-24.283,-24.286,-24.292,-24.269,-24.287,-24.281,-24.269,-24.251,-24.25,-24.253,-24.267,-24.266,-24.265,-24.26,-24.261,-24.298,-24.281,-24.272,-24.266,-24.266,-24.278,-24.284,-24.294,-24.292,-24.309,-24.329,-24.32,-24.316,-24.275,-24.26,-24.274,-24.268,-24.262,-24.239,-24.228,-24.215,-24.23,-24.255,-24.237,-24.228,-24.209,-24.221,-24.233,-24.234,-24.238,-24.244,-24.268,-24.293,-24.299,-24.328,-24.364,-24.373,-24.37,-24.322,-24.298,-24.312,-24.335,-24.346,-24.343,-24.348,-24.335,-24.336,-24.352,-24.371,-24.345,-24.313,-24.273,-24.17,-23.995,-23.778,-23.679,-23.708,-24.098,-24.554,-24.781,-24.819,-24.814,-24.789,-24.745,-24.653,-24.513,-24.411,-24.348,-24.328,-24.309,-24.308,-24.301,-24.311,-24.301,-24.277,-24.273,-24.276,-24.286,-24.286,-24.278,-24.275,-24.247,-24.243,-24.244,-24.24,-24.228,-24.228,-24.24,-24.244,-24.216,-24.186,-24.155,-24.145,-24.147,-24.153,-24.131,-24.125,-24.123,-24.111,-24.102,-24.089,-24.084,-24.066,-24.053,-24.035,-24.028,-24.017,-24.027,-24.047,-24.045,-23.998,-23.969,-24.008,-24.043,-24.07,-24.093,-24.109,-24.127,-24.172,-24.194,-24.225,-24.246,-24.268,-24.284,-24.313,-24.324,-24.31,-24.327,-24.343,-24.355,-24.367,-24.367,-24.363,-24.371,-24.365,-24.373,-24.379,-24.367,-24.346,-24.359,-24.357,-24.355,-24.358,-24.355,-24.356,-24.364,-24.364,-24.367,-24.373,-24.387,-24.373,-24.366,-24.358,-24.368,-24.375,-24.387,-24.386,-24.372,-24.389,-24.385,-24.377,-24.381,-24.407,-24.398,-24.386,-24.38,-24.377,-24.396,-24.408,-24.405,-24.409,-24.405,-24.397,-24.418,-24.402,-24.403,-24.431,-24.429,-24.414,-24.409,-24.409,-24.394,-24.393,-24.382,-24.367,-24.358,-24.367,-24.356,-24.345,-24.349,-24.36,-24.376,-24.38,-24.369,-24.384,-24.399,-24.412,-24.428,-24.437,-24.463,-24.452,-24.462,-24.461,-24.46,-24.476,-24.495,-24.487,-24.473,-24.454,-24.459,-24.469,-24.475,-24.477,-24.449,-24.41,-24.355,-24.234,-24.084,-23.938,-23.916,-24.288,-24.716,-24.929,-24.939,-24.91,-24.883,-24.831,-24.78,-24.707,-24.613,-24.553,-24.502,-24.474,-24.463,-24.407,-24.401,-24.401,-24.412,-24.392,-24.389,-24.364,-24.381,-24.38,-24.384,-24.366,-24.348,-24.343,-24.35,-24.349,-24.354,-24.348,-24.317,-24.316,-24.314,-24.311,-24.299,-24.286,-24.281,-24.247,-24.226,-24.225,-24.216,-24.222,-24.191,-24.188,-24.158,-24.172,-24.178,-24.159,-24.149,-24.137,-24.127,-24.13,-24.152,-24.149,-24.149,-24.175,-24.211,-24.25,-24.287,-24.296,-24.288,-24.315,-24.336,-24.373,-24.372,-24.386,-24.406,-24.432,-24.436,-24.433,-24.434,-24.443,-24.458,-24.482,-24.494,-24.477,-24.477,-24.465,-24.468,-24.46,-24.513,-24.557,-24.517,-24.455,-24.43,-24.438,-24.451,-24.453,-24.471,-24.477,-24.467,-24.466,-24.458,-24.476,-24.468,-24.479,-24.476,-24.478,-24.497,-24.526,-24.52,-24.493,-24.479,-24.487,-24.498,-24.484,-24.485,-24.489,-24.501,-24.494,-24.49,-24.487,-24.493,-24.504,-24.515,-24.514,-24.509,-24.513,-24.528,-24.532,-24.509,-24.478,-24.47,-24.46,-24.48,-24.479,-24.466,-24.457,-24.449,-24.481,-24.493,-24.468,-24.458,-24.459,-24.475,-24.501,-24.522,-24.537,-24.552,-24.573,-24.592,-24.592,-24.596,-24.567,-24.567,-24.561,-24.563,-24.593,-24.597,-24.619,-24.588,-24.578,-24.556,-24.538,-24.516,-24.428,-24.303,-24.125,-24.006,-24.122,-24.582,-24.924,-25.012,-24.978,-24.962,-24.962,-24.931,-24.899,-24.822,-24.722,-24.612,-24.572,-24.554,-24.558,-24.529,-24.531,-24.524,-24.517,-24.494,-24.476,-24.463,-24.476,-24.473,-24.468,-24.464,-24.461,-24.452,-24.468,-24.447,-24.438,-24.409,-24.408,-24.41,-24.393,-24.382,-24.359,-24.365,-24.354,-24.349,-24.325,-24.315,-24.317,-24.299,-24.29
