6.1257,6.1156,6.1136,6.1148,6.1061,6.1073,6.1,6.1026,6.1004,6.1048,6.101,6.1039,6.1067,6.1112,6.1104,6.1094,6.1078,6.112,6.1125,6.1094,6.1087,6.1038,6.1013,6.1001,6.0952,6.095,6.0912,6.0815,6.0794,6.0833,6.0744,6.0639,6.0647,6.0618,6.0626,6.0676,6.0673,6.0711,6.0701,6.0659,6.0601,6.0554,6.064,6.0628,6.0655,6.0718,6.072,6.0728,6.0842,6.0852,6.0816,6.076,6.0632,6.037,6.0265,6.0154,6.0025,5.9905,5.9778,5.9677,5.9651,5.9626,5.9527,5.948,5.9489,5.9457,5.9405,5.9424,5.9406,5.9376,5.9421,5.9246,5.9287,5.9839,6.0635,6.2102,6.43,6.6545,6.7146,6.747,6.7187,6.5405,6.3251,6.1227,6.0026,5.9963,5.9709,5.9422,5.9283,5.9214,5.9087,5.9027,5.8996,5.8954,5.8918,5.8877,5.8856,5.8854,5.882,5.8786,5.8803,5.8806,5.8829,5.8789,5.8739,5.8771,5.8827,5.8792,5.8818,5.8774,5.8824,5.8795,5.8825,5.8818,5.8872,5.8888,5.8923,5.8888,5.8915,5.8934,5.8953,5.9036,5.902,5.9027,5.9065,5.8987,5.9089,5.9107,5.9088,5.9088,5.9132,5.9047,5.9016,5.9017,5.9003,5.8982,5.8999,5.8993,5.8983,5.8969,5.9012,5.9023,5.9102,5.9143,5.9071,5.9079,5.9069,5.8934,5.8923,5.8802,5.8648,5.8582,5.8461,5.8404,5.8314,5.8224,5.8213,5.8261,5.8193,5.8223,5.8219,5.8212,5.8255,5.819,5.8146,5.8192,5.8162,5.817,5.815,5.8159,5.812,5.8062,5.8092,5.811,5.8061,5.8065,5.8048,5.8047,5.8043,5.8077,5.8017,5.7977,5.7973,5.7903,5.7899,5.7902,5.7954,5.8049,5.8008,5.806,5.807,5.8005,5.7997,5.8019,5.8037,5.8034,5.807,5.8097,5.8192,5.8296,5.823,5.8096,5.8077,5.8,5.785,5.7714,5.7588,5.7536,5.7413,5.7275,5.7235,5.7247,5.7166,5.717,5.7144,5.7141,5.705,5.7095,5.7065,5.7044,5.7056,5.6978,5.6882,5.7165,5.7846,5.8803,6.0547,6.2884,6.4703,6.5212,6.5098,6.4206,6.2156,6.0053,5.8367,5.7817,5.7817,5.7548,5.7401,5.7253,5.7273,5.7092,5.7016,5.6995,5.702,5.7024,5.7017,5.6956,5.7075,5.7075,5.7082,5.711,5.7063,5.7108,5.7136,5.7126,5.7133,5.7074,5.7102,5.7158,5.7188,5.7161,5.72,5.7268,5.7273,5.7221,5.7327,5.7293,5.7312,5.7329,5.7371,5.7429,5.7428,5.7438,5.7499,5.7544,5.7557,5.7545,5.7594,5.7537,5.7584,5.7636,5.7615,5.7589,5.7558,5.7614,5.7608,5.767,5.7636,5.768,5.7718,5.7719,5.7773,5.782,5.7864,5.7897,5.7894,5.7825,5.7728,5.762,5.7611,5.7594,5.7458,5.7328,5.731,5.7251,5.7199,5.7291,5.7349,5.7241,5.7236,5.7201,5.7201,5.7231,5.7189,5.7262,5.7222,5.7234,5.7187,5.7189,5.7206,5.7241,5.7293,5.7282,5.725,5.7195,5.7242,5.7222,5.7212,5.7227,5.7244,5.7268,5.7199,5.7204,5.7085,5.7088,5.7017,5.7043,5.7159,5.7212,5.7093,5.7143,5.7097,5.7129,5.7081,5.7154,5.7155,5.7207,5.7278,5.732,5.7522,5.7498,5.743,5.7463,5.7314,5.7095,5.6984,5.6899,5.6849,5.6712,5.6573,5.6521,5.6515,5.6531,5.6493,5.6533,5.6425,5.6442,5.6415,5.6499,5.6466,5.6482,5.6564,5.6363,5.6491,5.7092,5.792,5.935,6.1492,6.3455,6.4382,6.4497,6.3643,6.2606,6.0733,5.8531,5.7234,5.7228,5.7182,5.7052,5.6984,5.6805,5.6796,5.6669,5.6746,5.6679,5.6725,5.6664,5.6742,5.673,5.6786,5.6771,5.6828,5.6787,5.6868,5.6834,5.6864,5.6857,5.6865,5.6881,5.6952,5.6919,5.7004,5.7018,5.7047,5.7068,5.7049,5.7044,5.712,5.7119,5.7182,5.7156,5.7213,5.723,5.7241,5.7237,5.7291,5.7303,5.7344,5.7392,5.7473,5.7441,5.7518,5.7492,5.7502,5.7541,5.7502,5.7525,5.7499,5.7565,5.7604,5.7612,5.7604,5.7722,5.7797,5.7796,5.7831,5.7815,5.7771,5.7688,5.766,5.7594,5.7492,5.7386,5.732,5.7249,5.717,5.7152,5.7109,5.7087,5.7094,5.7121,5.7132,5.7059,5.7094,5.7133,5.7131,5.7222,5.7173,5.7189,5.7252,5.7222,5.7224,5.7261,5.7188,5.7222,5.7245,5.7194,5.7179,5.7172,5.7187,5.7172,5.711,5.7133,5.7154,5.7129,5.709,5.7036,5.7022,5.7018,5.6963,5.6944,5.694,5.6931,5.69,5.6861,5.6894,5.6939,5.6952,5.7058,5.705,5.7049,5.705,5.7048,5.7042,5.7063,5.7101,5.7103,5.712,5.7256,5.7346,5.7362,5.738,5.7338,5.7193,5.6993,5.6958,5.6931,5.6817,5.6685,5.6604,5.6481,5.6528,5.6572,5.6485,5.6526,5.6459,5.6484,5.6471,5.644,5.64,5.6495,5.6432,5.6324,5.6586,5.7213,5.761,5.8957,6.1153,6.3449,6.454,6.4675,6.4022,6.1966,5.985,5.8106,5.7456,5.73,5.7016,5.6843,5.6724,5.6631,5.6578,5.6491,5.6414,5.6453,5.645,5.6442,5.6412,5.6369,5.6403,5.6394,5.6411,5.6481,5.6461,5.6397,5.6401,5.6495,5.6522,5.6591,5.6566,5.6618,5.6659,5.6674,5.67,5.6685,5.6681,5.6689,5.6776,5.6783,5.6797,5.6825,5.683,5.6885,5.6948,5.6948,5.6973,5.6969,5.6997,5.6998,5.7021,5.7048,5.7062,5.7017,5.7041,5.7041,5.7018,5.71,5.7067,5.7124,5.716,5.7134,5.7148,5.717,5.7201,5.7213,5.7197,5.7234,5.7156,5.7099,5.701,5.6917,5.6864,5.6745,5.6714,5.6614,5.6591,5.6534,5.6481,5.6456,5.6476,5.6469,5.641,5.6437,5.6451,5.6469,5.6464,5.6462,5.6494,5.6484,5.6522,5.6496,5.6459,5.6442,5.6476,5.6459,5.6497,5.6423,5.6388,5.6385,5.6338,5.6307,5.6299,5.6277,5.6253,5.6232,5.6244,5.6252,5.6259,5.6248,5.6252,5.6212,5.6136,5.6126,5.6136,5.6105,5.6161,5.6056,5.6065,5.6009,5.6028,5.6027,5.5996,5.5942,5.5979,5.5969,5.5959,5.5915,5.5935,5.5916,5.5911,5.5882,5.589,5.584,5.5827,5.5945,5.6012,5.6111,5.6062,5.6063,5.6031,5.6042,5.6064,5.6051,5.6039,5.6099,5.6176,5.6275,5.6322,5.6297,5.624,5.6237,5.6197,5.6036,5.5838,5.5857,5.5788,5.5617,5.5506,5.5437,5.5444,5.5416,5.5377,5.5351,5.5334,5.5307,5.5344,5.5375,5.5332,5.544,5.5288,5.5093,5.526,5.5736,5.6609,5.7887,6.0099,6.2329,6.3137,6.3167,6.2483,6.0441,5.8351,5.6801,5.6227,5.6054,5.5873,5.572,5.5586,5.5466,5.5341,5.5385,5.5292,5.5363,5.5268,5.5292,5.525,5.5349,5.5347,5.538,5.5254,5.5349,5.539,5.5401,5.5422,5.5423,5.5469,5.5479,5.5516,5.5596,5.5526,5.5518,5.557,5.5528,5.5604,5.56,5.5563,5.5574,5.5685,5.5721,5.5738,5.5743,5.5761,5.5796,5.5806,5.5794,5.5803,5.5846,5.5906,5.5946,5.5987,5.5998,5.5914,5.5967,5.5995,5.593,5.6043,5.6065,5.6064,5.6141,5.614,5.6168,5.6266,5.6304,5.6318,5.6338,5.6312,5.6253,5.6205,5.6126,5.6077,5.5915,5.5877,5.5833,5.5756,5.5688,5.5681,5.5575,5.5624,5.5691,5.5622,5.5591,5.5579,5.5617,5.5612,5.5637,5.5634,5.5694,5.5691,5.571,5.5713,5.5706,5.5697,5.5754,5.5784,5.5712,5.5702,5.5709,5.5756,5.5779,5.5766,5.5746,5.575,5.5763,5.5746,5.5704,5.5645,5.5589,5.5664,5.5655,5.5656,5.5644,5.563,5.562,5.5582,5.5576,5.5568,5.5584,5.5533,5.5554,5.5539,5.5563,5.5515,5.5418,5.5426,5.5501,5.5518,5.5484,5.5507,5.552,5.5554,5.562,5.5568,5.5566,5.5561,5.5645,5.5775,5.574,5.5704,5.5718,5.5728,5.5789,5.5814,5.5829,5.5844,5.5933,5.6024,5.6176,5.6117,5.609,5.6084,5.6067,5.5901,5.5802,5.5698,5.5664,5.5638,5.5507,5.5461,5.5504,5.5411,5.5384,5.5383,5.5364,5.5334,5.5345,5.5413,5.5408,5.5426,5.5331,5.5244,5.539,5.5726,5.6858,5.8549,6.0649,6.2392,6.2869,6.2782,6.2252,6.0483,5.8546,5.6771,5.5732,5.5928,5.5774,5.5738,5.5622,5.5594,5.5404,5.5384,5.5362,5.5441,5.5367,5.5405,5.5366,5.5477,5.549,5.5525,5.5518,5.551,5.5526,5.5591,5.5617,5.5693,5.5632,5.5696,5.5725,5.5728,5.5757,5.5772,5.5762,5.5857,5.5898,5.5865,5.5894,5.5888,5.5912,5.5948,5.5972,5.5948,5.6009,5.6101,5.6169,5.6175,5.6175,5.6214,5.6262,5.6278,5.6308,5.6244,5.626,5.6303,5.6332,5.6302,5.6299,5.6306,5.6326,5.6358,5.646,5.6447,5.6517,5.6586,5.6581,5.655,5.6566,5.6481,5.6433,5.6389,5.6314,5.6198,5.6096,5.6024,5.5957,5.5974,5.5882,5.5857,5.5814,5.5781,5.5806,5.5743,5.5741,5.5718,5.5794,5.5816,5.5792,5.575,5.5776,5.5782,5.581,5.5819,5.5866,5.5823,5.586,5.587,5.5841,5.5856,5.5854,5.5837,5.5849,5.5869,5.5855,5.5789,5.5854,5.5848,5.5859,5.5867,5.5881,5.581,5.5817,5.5814,5.5727,5.5689,5.572,5.5758,5.577,5.5786,5.5796,5.5798,5.5745,5.5771,5.5808,5.5777,5.5815,5.5814,5.5831,5.5842,5.5815,5.5807,5.5773,5.5777,5.5779,5.5817,5.5862,5.5999,5.6038,5.6021,5.593,5.5983,5.6074,5.5962,5.6003,5.6083,5.6136,5.6181,5.6286,5.633,5.635,5.6324,5.6266,5.6153,5.6088,5.5938,5.5869,5.5747,5.5564,5.5567,5.5502,5.5491,5.544,5.5451,5.5489,5.5497,5.5475,5.5503,5.553,5.5552,5.5403,5.5237,5.5524,5.5875,5.673,5.8018,6.0082,6.2237,6.318,6.3294,6.2715,6.0821,5.8742,5.705,5.6315,5.6252,5.5926,5.5815,5.5669,5.5592,5.5533,5.5512,5.5481,5.5446,5.5435,5.5436,5.5432,5.548,5.5439,5.5491,5.5544,5.552,5.5463,5.5498,5.5495,5.5603,5.558,5.5505,5.5589,5.5624,5.5616,5.5645,5.567,5.5695,5.5677,5.5735,5.5731,5.5758,5.5813,5.5868,5.5903,5.5972,5.5939,5.6026,5.605,5.6109,5.6209,5.6184,5.6184,5.6219,5.6239,5.6239,5.623,5.6304,5.6291,5.6293,5.6331,5.6288,5.625,5.63,5.6362,5.6434,5.6431,5.6461,5.6486,5.6511,5.6493,5.6439,5.6354,5.6293,5.618,5.615,5.6105,5.592,5.583,5.5815,5.579,5.5706,5.5677,5.566,5.5564,5.558,5.561,5.5523,5.557,5.5571,5.5584,5.5575,5.558,5.5518,5.5558,5.5588,5.5585,5.5599,5.5537,5.5579,5.5607,5.5541,5.5527,5.5481,5.543,5.5415,5.5491,5.5483,5.5459,5.5443,5.5452,5.542,5.5382,5.5365,5.5336,5.5304,5.5275,5.5317,5.5353,5.5286,5.5315,5.5277,5.5268,5.5246,5.5209,5.5148,5.5138,5.5215,5.5127,5.5122,5.5104,5.5125,5.5127,5.5104,5.51,5.507,5.5116,5.5052,5.5027,5.5042,5.498,5.498,5.5005,5.4988,5.4999,5.4976,5.5038,5.5164,5.5193,5.5147,5.5154,5.5096,5.5131,5.5141,5.5152,5.5153,5.5223,5.5338,5.5437,5.5545,5.5466,5.5486,5.5446,5.5365,5.5134,5.5048,5.5009,5.4905,5.4728,5.4684,5.4652,5.4556,5.458,5.4609,5.4507,5.4485,5.4493,5.4516,5.4552,5.4533,5.4427,5.428,5.426,5.4661,5.5412,5.6572,5.8564,6.0787,6.1711,6.223,6.2181,6.1127,5.9326,5.7194,5.5697,5.5374,5.521,5.4998,5.4946,5.4778,5.4707,5.4542,5.4568,5.4563,5.4633,5.4561,5.4578,5.4518,5.4632,5.4639,5.4681,5.4654,5.4716,5.4716,5.473,5.4717,5.4743,5.4717,5.4745,5.4737,5.4782,5.4719,5.4774,5.4794,5.4856,5.4835,5.4866,5.4865,5.4917,5.4904,5.5013,5.5012,5.5114,5.5161,5.5193,5.5254,5.5304,5.534,5.5317,5.5429,5.537,5.5458,5.5469,5.5537,5.5534,5.5563,5.56,5.5515,5.5554,5.5623,5.5606,5.5629,5.562,5.5626,5.5664,5.5648,5.565,5.56,5.5579,5.556,5.5514,5.5444,5.5313,5.519,5.5149,5.5184,5.5055,5.5045,5.4972,5.4981,5.498,5.495,5.4938,5.5004,5.4952,5.4975,5.4984,5.4989,5.4979,5.5002,5.5011,5.5072,5.5064,5.511,5.5101,5.508,5.5044,5.5033,5.5046,5.509,5.5055,5.5065,5.5076,5.511,5.5068,5.5083,5.5019,5.5048,5.5041,5.5016,5.5062,5.5008,5.4998,5.5021,5.4991,5.4992,5.4963,5.4886,5.4916,5.4872,5.4921,5.4982,5.4951,5.4958,5.4847,5.4874,5.4919,5.4933,5.4949,5.4897,5.4854,5.4884,5.4909,5.4952,5.497,5.4994,5.5014,5.5199,5.5165,5.5202,5.5169,5.5192,5.5241,5.519,5.5223,5.5222,5.5334,5.5514,5.5595,5.5488,5.5476,5.553,5.5476,5.5339,5.5272,5.5066,5.5007,5.49,5.4799,5.475,5.4707,5.4752,5.4704,5.4721,5.4695,5.4675,5.4671,5.4733,5.4741,5.473,5.4659,5.4575,5.4895,5.5501,5.638,5.7964,6.0032,6.1705,6.2332,6.2151,6.0868,5.9151,5.7155,5.549,5.5368,5.5297,5.5217,5.5093,5.5044,5.4938,5.4839,5.4765,5.4763,5.4794,5.4777,5.4745,5.4795,5.4787,5.4891,5.4909,5.4826,5.4849,5.4861,5.4921,5.494,5.4937,5.5,5.5078,5.5079,5.5053,5.5075,5.5171,5.5203,5.5156,5.5251,5.5233,5.5274,5.5324,5.5407,5.5449,5.545,5.5457,5.5446,5.5558,5.5631,5.5654,5.5685,5.5705,5.5774,5.5772,5.585,5.5866,5.5868,5.5876,5.5903,5.5917,5.5944,5.5934,5.5959,5.5971,5.602,5.6014,5.6056,5.614,5.6083,5.609,5.6072,5.6016,5.5957,5.5896,5.5832,5.5669,5.5588,5.5535,5.5388,5.5305,5.5252,5.5225,5.523,5.521,5.5172,5.5169,5.5154,5.5136,5.5115,5.5157,5.5159,5.5212,5.5186,5.5235,5.5262,5.524,5.5281,5.528,5.5286,5.5277,5.53,5.5251,5.5206,5.5277,5.5294,5.5276,5.5265,5.5355,5.5316,5.5257,5.5294,5.5237,5.5161,5.5171,5.5139,5.5189,5.5162,5.5118,5.5069,5.5151,5.5144,5.5114,5.5111,5.5077,5.512,5.5117,5.5098,5.5117,5.5155,5.5138,5.5135,5.5106,5.5067,5.5053,5.5038,5.5091,5.5033,5.5003,5.5009,5.5024,5.5129,5.5222,5.5226,5.5193,5.5201,5.521,5.5219,5.5164,5.5163,5.5245,5.529,5.539,5.549,5.552,5.5485,5.5508,5.5433,5.5398,5.5214,5.5078,5.5055,5.4953,5.4811,5.4747,5.469,5.4635,5.4659,5.4636,5.4608,5.4602,5.4626,5.4648,5.4607,5.4523,5.4493,5.4328,5.4495,5.5021,5.5916,5.7263,5.9411,6.16,6.2296,6.224,6.2086,6.0515,5.8529,5.6572,5.5451,5.5384,5.5071,5.4979,5.4857,5.4762,5.4682,5.4618,5.4607,5.4613,5.4579,5.4582,5.4578,5.4583,5.4585,5.4515,5.4562,5.4587,5.4672,5.4676,5.466,5.4686,5.4653,5.4676,5.4713,5.4722,5.476,5.4784,5.4844,5.4821,5.4828,5.4859,5.4909,5.4952,5.4984,5.5009,5.4994,5.5064,5.5098,5.5142,5.5142,5.5202,5.5212,5.5244,5.5285,5.5346,5.5349,5.5337,5.5383,5.5374,5.5394,5.535,5.5382,5.5365,5.5388,5.5388,5.5402,5.5407,5.5413,5.5493,5.5486,5.5497,5.5537,5.5498,5.5436,5.5403,5.5294,5.5242,5.5185,5.5071,5.498,5.4899,5.4848,5.482,5.4766,5.4734,5.4685,5.4684,5.4591,5.4667,5.4698,5.4664,5.4691,5.4674,5.4674,5.4703,5.4727,5.4715,5.4677,5.4716,5.4705,5.4737,5.4732,5.4609,5.4638,5.4656,5.4605,5.4608,5.4593,5.4568,5.4592,5.4528,5.4587,5.454,5.4461,5.4508,5.447,5.4489,5.4439,5.4434,5.4462,5.444,5.4427,5.4398,5.4391,5.4321,5.4332,5.4344,5.4343,5.4315,5.4261,5.4302,5.4359,5.4261,5.4228,5.4238,5.423,5.422,5.4207,5.421,5.4183,5.418,5.4238,5.4137,5.4138,5.413,5.4223,5.4432,5.44,5.4364,5.4316,5.4329,5.4323,5.4346,5.4316,5.4421,5.4497,5.4637,5.4785,5.48,5.466,5.4633,5.4656,5.4541,5.4419,5.4358,5.4256,5.4121,5.404,5.3914,5.3967,5.3892,5.3892,5.3843,5.3807,5.3788,5.378,5.3867,5.3829,5.3798,5.3716,5.3597,5.3781,5.4375,5.5401,5.6964,5.9114,6.1013,6.1568,6.1258,6.0168,5.8303,5.6226,5.482,5.4709,5.4485,5.4313,5.4297,5.4104,5.4009,5.393,5.3894,5.3899,5.3827,5.3792,5.3808,5.3817,5.3823,5.3845,5.3948,5.3932,5.3893,5.3994,5.3998,5.399,5.4019,5.4035,5.4081,5.4069,5.4058,5.4083,5.4127,5.4188,5.4252,5.4216,5.4282,5.4261,5.4312,5.4328,5.4442,5.4461,5.4516,5.4505,5.4543,5.4615,5.4687,5.4711,5.472,5.4797,5.4853,5.4875,5.4867,5.493,5.4982,5.5045,5.5061,5.5051,5.5082,5.515,5.5173,5.5285,5.5312,5.5353,5.5397,5.5421,5.5473,5.5485,5.5327,5.533,5.5334,5.5208,5.5098,5.5043,5.4917,5.4833,5.4801,5.4763,5.4708,5.4757,5.4739,5.4714,5.4745,5.4667,5.4702,5.4817,5.4794,5.4818,5.4768,5.4762,5.4794,5.4776,5.4789,5.4841,5.4909,5.4935,5.4934,5.491,5.4909,5.4846,5.4878,5.4917,5.4894,5.4864,5.4832,5.4838,5.4904,5.4845,5.4807,5.4742,5.473,5.4746,5.4825,5.4756,5.4739,5.469,5.4736,5.4748,5.4672,5.4676,5.4776,5.4821,5.4806,5.4771,5.4741,5.4804,5.4823,5.481,5.4818,5.4833,5.4853,5.493,5.5107,5.5114,5.5113,5.5087,5.5112,5.5052,5.5068,5.5063,5.514,5.5262,5.5298,5.542,5.5409,5.5352,5.5279,5.5189,5.513,5.4984,5.4874,5.4837,5.469,5.4634,5.4556,5.4579,5.4641,5.4639,5.4564,5.4565,5.4527,5.4508,5.4516,5.4613,5.4583,5.4489,5.4416,5.4703,5.5287,5.6223,5.7733,5.972,6.1453,6.2108,6.1968,6.0776,5.9011,5.7,5.5389,5.5229,5.5248,5.5109,5.4991,5.4908,5.4805,5.4803,5.4683,5.4673,5.473,5.479,5.4724,5.4751,5.4742,5.4764,5.4832,5.4845,5.4855,5.4846,5.4813,5.4847,5.4872,5.4855,5.496,5.4944,5.4933,5.5028,5.5137,5.5116,5.5168,5.5208,5.5224,5.5184,5.5217,5.5265,5.5312,5.5349,5.5357,5.5463,5.547,5.5485,5.5565,5.5656,5.5628,5.5709,5.5693,5.5768,5.5812,5.5724,5.5754,5.5788,5.5819,5.5753,5.5801,5.5818,5.5889,5.5914,5.5937,5.5943,5.5969,5.6003,5.6031,5.6031,5.598,5.5887,5.5869,5.5822,5.5731,5.5545,5.5438,5.5405,5.5379,5.5355,5.5303,5.5273,5.5263,5.5299,5.5285,5.5252,5.5265,5.5263,5.53,5.5317,5.535,5.539,5.5419,5.5432,5.5434,5.5412,5.5413,5.5452,5.5488,5.549,5.543,5.5403,5.5453,5.5432,5.546,5.5441,5.5444,5.5391,5.5414,5.541,5.5435,5.535,5.5334,5.5326,5.5271,5.5286,5.53,5.524,5.5293,5.5326,5.5275,5.5233,5.5234,5.5189,5.5185,5.5258,5.5381,5.5308,5.5282,5.5277,5.5274,5.5361,5.5295,5.5293,5.5356,5.546,5.5512,5.5589,5.5611,5.554,5.5503,5.5475,5.5376,5.5222,5.5121,5.5098,5.4959,5.4785,5.4657,5.4637,5.4647,5.468,5.4637,5.4597,5.4601,5.4616,5.4575,5.4599,5.4606,5.4527,5.4414,5.4462,5.4948,5.5789,5.6941,5.9054,6.1274,6.23,6.2415,6.1956,6.0125,5.8169,5.6351,5.5509,5.5509,5.5253,5.5145,5.4961,5.4853,5.4803,5.4807,5.4705,5.4713,5.4728,5.466,5.4668,5.4762,5.475,5.4656,5.467,5.4723,5.4709,5.4765,5.4761,5.479,5.4807,5.4849,5.4826,5.4849,5.4904,5.4894,5.4895,5.4944,5.4951,5.4929,5.4962,5.4952,5.499,5.5032,5.5061,5.5119,5.5196,5.5283,5.5258,5.5275,5.5293,5.5373,5.5412,5.5439,5.5421,5.5438,5.5457,5.5467,5.5433,5.5438,5.5439,5.5424,5.5425,5.5509,5.5516,5.5503,5.5604,5.5611,5.5618,5.5593,5.5594,5.5553,5.5542,5.5452,5.5331,5.5241,5.5169,5.508,5.498,5.4915,5.4836,5.4791,5.4778,5.4786,5.4788,5.4733,5.4753,5.481,5.4793,5.4776,5.479,5.4781,5.4763,5.4829,5.4831,5.4801,5.483,5.4804,5.4807,5.4819,5.4795,5.4722,5.4747,5.4676,5.4749,5.4687,5.471,5.4622,5.4616,5.4658,5.4607,5.4638,5.4641,5.4625,5.4587,5.4623,5.4515,5.4537,5.4509,5.4509,5.4532,5.4509,5.4556,5.4523,5.4513,5.4407,5.4391,5.4403,5.4468,5.4538,5.4617,5.4558,5.4572,5.4529,5.4563,5.4579,5.4575,5.4593,5.4753,5.4841,5.4959,5.5088,5.497,5.5002,5.499,5.4867,5.4659,5.4534,5.4481,5.4478,5.4338,5.4202,5.4193,5.41,5.4114,5.4119,5.4114,5.4129,5.4108,5.4147,5.4178,5.4154,5.4103,5.3997,5.3929,5.4439,5.5173,5.574,5.7031,5.9323,6.1319,6.1942,6.1737,6.0689,5.8643,5.6686,5.5249,5.4976,5.4735,5.4518,5.4395,5.4276,5.4168,5.4151,5.4114,5.4117,5.4101,5.4032,5.4028,5.3991,5.4057,5.4118,5.412,5.4113,5.4099,5.414,5.4167,5.42,5.4219,5.4187,5.4246,5.4293,5.4292,5.4355,5.4375,5.4368,5.4434,5.4434,5.4485,5.4506,5.4531,5.4623,5.4615,5.4614,5.4662,5.4698,5.4749,5.4782,5.4805,5.484,5.4915,5.4975,5.5009,5.5024,5.5023,5.508,5.5127,5.5115,5.5132,5.5146,5.5131,5.5174,5.5239,5.5291,5.5258,5.5339,5.5392,5.543,5.5382,5.5333,5.5327,5.5292,5.5185,5.5121,5.5013,5.4909,5.4844,5.4757,5.4705,5.4667,5.4671,5.4597,5.4636,5.4619,5.457,5.4577,5.4721,5.4641,5.4641,5.466,5.4648,5.4596,5.4708,5.4727,5.4671,5.4649,5.4689,5.4688,5.4639,5.4646,5.4631,5.4621,5.4658,5.462,5.4571,5.4613,5.4542,5.4578,5.4633,5.4594,5.4527,5.4488,5.452,5.4498,5.4461,5.4433,5.4432,5.448,5.4427,5.4391,5.4422,5.4354,5.4412,5.439,5.4437,5.4504,5.4594,5.465,5.4663,5.4665,5.4684,5.4693,5.4646,5.4716,5.4745,5.4767,5.4838,5.4945,5.5032,5.5052,5.498,5.4894,5.471,5.4558,5.4494,5.4423,5.4321,5.4165,5.4153,5.4194,5.4161,5.412,5.4079,5.4112,5.4081,5.4094,5.4168,5.4246,5.4249,5.4184,5.398,5.4254,5.4844,5.5716,5.7312,5.9431,6.1164,6.1815,6.1651,6.1271,5.9462,5.7558,5.5669,5.4621,5.4829,5.4712,5.4598,5.4428,5.4386,5.4353,5.4331,5.4291,5.4264,5.4256,5.43,5.4258,5.4256,5.4254,5.4299,5.4256,5.4307,5.431,5.4333,5.4361,5.4367,5.4378,5.4427,5.4397,5.446,5.4507,5.4528,5.4536,5.4568,5.4607,5.4712,5.4685,5.4736,5.4783,5.4791,5.479,5.4842,5.4896,5.4901,5.4943,5.4988,5.4992,5.5056,5.5007,5.5013,5.5032,5.5078,5.5091,5.5078,5.5121,5.5123,5.5174,5.5171,5.5178,5.5141,5.5176,5.5239,5.5371,5.5375,5.5452,5.5407,5.5477,5.5441,5.5317,5.518,5.5106,5.499,5.4982,5.4889,5.4784,5.4764,5.4731,5.4689,5.4703,5.4654,5.4579,5.4633,5.4634,5.4639,5.4644,5.4656,5.4646,5.4695,5.4736,5.4723,5.4722,5.48,5.4831,5.4841,5.4855,5.4831,5.4828,5.4909,5.4943,5.4935,5.4877,5.4924,5.4909,5.4883,5.4892,5.4835,5.4838,5.4904,5.481,5.4764,5.4785,5.4721,5.4777,5.4766,5.475,5.4673,5.4661,5.4656,5.4673,5.4655,5.4631,5.4603,5.4691,5.4706,5.4712,5.4805,5.479,5.4785,5.4857,5.4794,5.4834,5.4815,5.4808,5.4867,5.4857,5.4939,5.5012,5.5154,5.5116,5.5135,5.5071,5.4942,5.477,5.4703,5.464,5.4542,5.4382,5.4249,5.4221,5.4213,5.4177,5.4179,5.4147,5.4121,5.4159,5.419,5.4178,5.4155,5.4194,5.4139,5.396,5.4205,5.4901,5.5948,5.7614,5.9924,6.1671,6.2091,6.1916,6.0592,5.8611,5.6536,5.5731,5.5125,5.495,5.4772,5.4549,5.4475,5.4364,5.4354,5.4245,5.4328,5.4219,5.4199,5.4165,5.4236,5.4175,5.4222,5.4168,5.4251,5.4167,5.4215,5.4242,5.428,5.428,5.435,5.4352,5.4455,5.4472,5.4493,5.4514,5.453,5.453,5.4548,5.4556,5.4608,5.4614,5.4666,5.4643,5.4756,5.4813,5.48,5.4885,5.4914,5.4912,5.4942,5.5019,5.5049,5.5092,5.51,5.5104,5.516,5.5224,5.5219,5.5176,5.5235,5.5262,5.5294,5.5315,5.5336,5.5392,5.5405,5.5461,5.5488,5.5466,5.5517,5.5442,5.5371,5.5246,5.514,5.5084,5.4935,5.4839,5.4763,5.4729,5.4707,5.4629,5.4606,5.4593,5.4537,5.4587,5.4561,5.4627,5.4632,5.4623,5.463,5.4644,5.4638,5.4667,5.472,5.4693,5.4689,5.4774,5.4728,5.4753,5.4727,5.4724,5.4725,5.4691,5.4702,5.4663,5.4665,5.4679,5.469,5.4632,5.4586,5.4637,5.4579,5.461,5.4521,5.4475,5.4456,5.4407,5.4418,5.4363,5.4368,5.4362,5.435,5.4366,5.4395,5.4356,5.4328,5.4349,5.4281,5.4273,5.425,5.424,5.431,5.4273,5.4192,5.418,5.4174,5.4159,5.4205,5.4301,5.4309,5.4312,5.432,5.4384,5.4285,5.4347,5.4294,5.4317,5.4397,5.4556,5.4626,5.475,5.4779,5.4709,5.4687,5.4642,5.457,5.4429,5.4346,5.4287,5.4211,5.4019,5.3926,5.3892,5.3874,5.3857,5.3844,5.3847,5.3829,5.3771,5.3819,5.3798,5.3792,5.3726,5.3592,5.374,5.4262,5.5216,5.5903,5.784,6.0104,6.1299,6.1529,6.1152,5.9495,5.75,5.5619,5.4601,5.4539,5.4216,5.4114,5.3958,5.3885,5.3768,5.3897,5.3772,5.3799,5.3757,5.3778,5.3791,5.3832,5.3793,5.3801,5.3765,5.3822,5.3826,5.383,5.3851,5.3868,5.3866,5.3922,5.3862,5.3858,5.3899,5.3937,5.3947,5.3985,5.3984,5.4029,5.4075,5.4143,5.4133,5.4183,5.4178,5.422,5.4356,5.4398,5.4418,5.4473,5.4496,5.4626,5.4607,5.4599,5.4592,5.4675,5.4633,5.4671,5.4676,5.4708,5.4726,5.4736,5.48,5.4832,5.4818,5.4911,5.5013,5.5079,5.5075,5.5098,5.5112,5.5048,5.507,5.4983,5.4943,5.4841,5.4788,5.4693,5.4669,5.4573,5.4498,5.4398,5.4424,5.4415,5.4404,5.4369,5.4395,5.4461,5.4484,5.4486,5.4516,5.4588,5.4528,5.46,5.4557,5.4534,5.4565,5.4565,5.4541,5.4527,5.4559,5.4495,5.4543,5.4498,5.4518,5.4477,5.4501,5.4499,5.4479,5.4423,5.4359,5.438,5.4376,5.4385,5.4425,5.4365,5.4416,5.4367,5.4374,5.4277,5.4324,5.4362,5.4312,5.4318,5.4334,5.4324,5.4327,5.4285,5.4347,5.4296,5.4293,5.4322,5.4345,5.4327,5.4404,5.4376,5.4353,5.4467,5.4636,5.4585,5.4644,5.4629,5.4656,5.4693,5.4637,5.4669,5.4707,5.4834,5.4955,5.5066,5.5029,5.5024,5.4971,5.492,5.4845,5.4752,5.4654,5.4598,5.4399,5.4341,5.4286,5.4233,5.4295,5.4266,5.4246,5.4253,5.4207,5.4186,5.4261,5.4338,5.4324,5.4254,5.4092,5.4293,5.4844,5.5771,5.7306,5.9392,6.1135,6.188,6.1742,6.0699,5.8904,5.6913,5.5253,5.4963,5.4965,5.4843,5.4757,5.4654,5.4606,5.4544,5.4527,5.4494,5.4477,5.4477,5.4521,5.4503,5.4488,5.4541,5.453,5.4575,5.4606,5.4578,5.4598,5.4662,5.4713,5.468,5.4739,5.4778,5.4782,5.4784,5.483,5.4907,5.4911,5.4981,5.5041,5.5048,5.5098,5.5158,5.5162,5.523,5.5258,5.5224,5.5292,5.5331,5.5369,5.5362,5.5368,5.5378,5.5402,5.5441,5.5507,5.5504,5.5484,5.551,5.5526,5.5525,5.5561,5.5536,5.5614,5.568,5.5706,5.5724,5.5772,5.578,5.5788,5.5799,5.5757,5.5733,5.5647,5.561,5.5529,5.5473,5.5335,5.529,5.5207,5.5155,5.5084,5.5099,5.5095,5.5082,5.5092,5.5024,5.501,5.5017,5.508,5.5136,5.5156,5.5201,5.5219,5.5191,5.5212,5.5225,5.5218,5.5196,5.5209,5.5242,5.5266,5.5232,5.5199,5.5199,5.5204,5.5206,5.5171,5.5157,5.516,5.5138,5.5148,5.5146,5.506,5.5045,5.5097,5.5125,5.505,5.5058,5.5039,5.509,5.505,5.5053,5.5026,5.4994,5.5083,5.5034,5.5036,5.4988,5.4994,5.4957,5.5015,5.509,5.5143,5.5201,5.5192,5.5172,5.5143,5.5111,5.5078,5.5133,5.5284,5.5342,5.5431,5.5491,5.5404,5.5434,5.5412,5.5309,5.5108,5.5006,5.4924,5.4833,5.4702,5.4554,5.4547,5.4502,5.4553,5.4511,5.4455,5.4426,5.4443,5.4443,5.4482,5.4459,5.4468,5.4426,5.4253,5.4494,5.5088,5.6128,5.7603,5.9869,6.1772,6.2244,6.2175,6.1043,5.9129,5.7072,5.5546,5.5325,5.5076,5.4852,5.4777,5.4577,5.4597,5.4513,5.4497,5.4361,5.4363,5.4375,5.4342,5.4378,5.4393,5.435,5.4432,5.4452,5.4457,5.443,5.4455,5.4442,5.4426,5.4485,5.4512,5.4512,5.4525,5.4513,5.4494,5.4525,5.4571,5.4573,5.4563,5.4564,5.4581,5.4651,5.4729,5.473,5.4766,5.4823,5.4805,5.4843,5.4894,5.4947,5.4945,5.4987,5.5026,5.5007,5.5052,5.5043,5.5096,5.5097,5.5069,5.5087,5.5079,5.5138,5.5141,5.5136,5.5207,5.5236,5.5281,5.5292,5.5281,5.525,5.5238,5.5243,5.5158,5.5065,5.4987,5.4883,5.4818,5.4738,5.4658,5.4622,5.4518,5.4554,5.4492,5.4493,5.4492,5.4511,5.4521,5.4529,5.4538,5.4578,5.4557,5.4615,5.461,5.4607,5.4579,5.4615,5.4592,5.4641,5.4589,5.4624,5.46,5.4654,5.4639,5.4612,5.4569,5.4591,5.4591,5.4582,5.4649,5.4616,5.4583,5.4564,5.4584,5.4563,5.4591,5.4486,5.4522,5.4503,5.4544,5.4487,5.4474,5.4434,5.4458,5.4401,5.4419,5.4383,5.435,5.4348,5.4334,5.4309,5.4275,5.4266,5.4273,5.43,5.4283,5.4388,5.4448,5.4435,5.4466,5.4394,5.4461,5.4455,5.4525,5.4556,5.4613,5.4666,5.473,5.4917,5.4895,5.4863,5.4768,5.4737,5.4594,5.4551,5.4447,5.4351,5.4237,5.4103,5.4056,5.4045,5.3977,5.4006,5.4006,5.3981,5.3961,5.3949,5.3994,5.3963,5.4075,5.3946,5.3729,5.3943,5.4506,5.5543,5.7062,5.9319,6.1286,6.181,6.1615,6.055,5.8581,5.6495,5.5033,5.4828,5.4756,5.4483,5.4296,5.4185,5.4092,5.3979,5.3944,5.3935,5.3937,5.3962,5.4012,5.4006,5.401,5.4049,5.4026,5.4015,5.4047,5.4051,5.409,5.4086,5.4101,5.4092,5.4105,5.4088,5.4202,5.4205,5.4225,5.4233,5.4299,5.4289,5.4325,5.4447,5.4395,5.4433,5.4523,5.4629,5.4677,5.4685,5.4699,5.4727,5.4768,5.4777,5.4732,5.4756,5.4823,5.4731,5.4855,5.4807,5.476,5.4824,5.484,5.4882,5.4832,5.4844,5.4858,5.4884,5.4943,5.5018,5.5069,5.5071,5.5091,5.5115,5.5016,5.493,5.4854,5.4763,5.4714,5.4575,5.4489,5.4407,5.434,5.4246,5.4161,5.4173,5.4148,5.4137,5.417,5.4198,5.4156,5.4181,5.4207,5.4156,5.4153,5.4171,5.4181,5.4202,5.4189,5.4175,5.4131,5.4151,5.4156,5.4189,5.4142,5.4181,5.412,5.412,5.4116,5.4183,5.4161,5.4153,5.414,5.415,5.4137,5.4091,5.4077,5.4085,5.4062,5.3963,5.3994,5.4007,5.3985,5.3934,5.3953,5.3996,5.4002,5.3925,5.3924,5.3964,5.3988,5.3925,5.3982,5.3978,5.3945,5.402,5.3985,5.3904,5.3981,5.4087,5.4112,5.4143,5.4129,5.409,5.4081,5.4101,5.4144,5.4171,5.4155,5.4277,5.4375,5.452,5.4445,5.4444,5.4455,5.4345,5.4223,5.4118,5.4017,5.3909,5.383,5.3726,5.3698,5.3739,5.3736,5.3705,5.3762,5.3755,5.382,5.3787,5.3842,5.3886,5.3893,5.3794,5.388,5.4342,5.4961,5.614,5.803,6.0088,6.1387,6.1632,6.1123,6.0254,5.8595,5.6604,5.5114,5.48,5.48,5.4614,5.4506,5.4381,5.4416,5.4332,5.4333,5.4271,5.4297,5.4247,5.4374,5.4394,5.4451,5.4424,5.4466,5.4452,5.4445,5.4437,5.4544,5.459,5.4653,5.4619,5.4652,5.4654,5.4729,5.4773,5.4761,5.4827,5.4928,5.4899,5.4955,5.4935,5.4963,5.5003,5.5023,5.5083,5.5097,5.5122,5.5213,5.5254,5.5225,5.5268,5.5252,5.5342,5.5362,5.5375,5.5348,5.5448,5.5464,5.5458,5.5494,5.5509,5.5522,5.5555,5.5586,5.5621,5.5655,5.5727,5.5747,5.5836,5.5867,5.5823,5.5775,5.5716,5.5622,5.5557,5.5427,5.5307,5.5221,5.5209,5.5159,5.5036,5.5008,5.4965,5.4939,5.5027,5.4987,5.5006,5.5025,5.509,5.5068,5.5077,5.5166,5.5199,5.5235,5.5283,5.523,5.5242,5.5276,5.5382,5.5452,5.5443,5.5422,5.5443,5.5476,5.551,5.5529,5.5504,5.5466,5.5425,5.5489,5.5559,5.557,5.5568,5.5485,5.5515,5.5423,5.5473,5.5466,5.5435,5.5436,5.5421,5.5516,5.543,5.5347,5.5366,5.5371,5.5357,5.5347,5.5366,5.5473,5.5574,5.554,5.5591,5.5552,5.5574,5.5564,5.5552,5.5573,5.5613,5.5712,5.5738,5.584,5.5869,5.5806,5.5796,5.5731,5.5597,5.5473,5.5355,5.5272,5.5184,5.5101,5.5021,5.5,5.5011,5.5001,5.4984,5.498,5.4976,5.4986,5.5043,5.5041,5.5047,5.493,5.4818,5.5096,5.5732,5.6657,5.8232,6.0296,6.2098,6.2641,6.2433,6.1178,5.9343,5.7282,5.6382,5.5746,5.5595,5.5523,5.5321,5.5331,5.5125,5.5134,5.5024,5.5027,5.4948,5.5044,5.4989,5.497,5.493,5.5049,5.4991,5.5039,5.497,5.5024,5.5046,5.5116,5.5029,5.5072,5.5088,5.5188,5.5206,5.5234,5.5207,5.5273,5.5286,5.5393,5.5338,5.546,5.5415,5.5494,5.5546,5.5554,5.5567,5.5644,5.564,5.5698,5.5722,5.5752,5.5738,5.5804,5.584,5.5893,5.5865,5.5903,5.5955,5.5958,5.5922,5.5915,5.5941,5.5993,5.6069,5.6057,5.6036,5.6069,5.6083,5.6078,5.6169,5.6112,5.6045,5.5941,5.5873,5.5767,5.5711,5.5607,5.5546,5.5483,5.5392,5.5317,5.5283,5.5239,5.5255,5.5178,5.5144,5.5166,5.521,5.5175,5.521,5.5182,5.5189,5.5165,5.5172,5.5184,5.5211,5.5205,5.5198,5.516,5.5186,5.5145,5.5078,5.5086,5.5092,5.5105,5.5018,5.4936,5.4967,5.4904,5.4867,5.4833,5.4835,5.478,5.4817,5.4727,5.4688,5.4688,5.4557,5.4488,5.4429,5.4381,5.4348,5.4301,5.4283,5.4301,5.4384,5.4252,5.424,5.4204,5.4201,5.4271,5.4407,5.4372,5.4314,5.4347,5.4318,5.4351,5.4361,5.431,5.4467,5.4545,5.4566,5.4702,5.4767,5.4734,5.471,5.4601,5.4442,5.4205,5.4091,5.4028,5.384,5.3723,5.3635,5.3588,5.3571,5.3546,5.3519,5.3425,5.3455,5.3473,5.344,5.3458,5.3438,5.341,5.3213,5.3239,5.3848,5.4671,5.5941,5.8174,6.0381,6.1188,6.1126,6.0335,5.835,5.6305,5.4744,5.4227,5.4227,5.3934,5.376,5.3656,5.3535,5.3417,5.341,5.3352,5.3359,5.3286,5.3274,5.3246,5.3388,5.3405,5.3367,5.3364,5.3326,5.3396,5.337,5.339,5.3391,5.3362,5.3412,5.3458,5.3407,5.3433,5.3448,5.3461,5.3467,5.3487,5.345,5.3529,5.363,5.3646,5.3709,5.3711,5.3726,5.3775,5.3809,5.3859,5.3853,5.3943,5.3953,5.4046,5.4026,5.4027,5.4026,5.4015,5.3997,5.4006,5.3934,5.3949,5.397,5.3996,5.4042,5.4012,5.4014,5.4053,5.4071,5.4101,5.4055,5.4059,5.4051,5.3982,5.3918,5.3802,5.3691,5.3588,5.3484,5.341,5.3329,5.322,5.3151,5.306,5.3058,5.3013,5.2937,5.2855,5.2831,5.2856,5.2757,5.276,5.2704,5.2662,5.2744,5.2659,5.2617,5.2706,5.2709,5.266,5.259,5.262,5.2613,5.2595,5.2586,5.2613,5.2592,5.2528,5.2529,5.2598,5.2573,5.2582,5.2517,5.2514,5.2454,5.2515,5.2417,5.2263,5.2218,5.2181,5.2129,5.2172,5.2096,5.2028,5.1969,5.1971,5.194,5.1871,5.1939,5.1907,5.1899,5.1953,5.1916,5.1925,5.1907,5.1906,5.1953,5.2023,5.207,5.2095,5.226,5.2169,5.2135,5.2101,5.1989,5.1796,5.1684,5.1669,5.1527,5.1426,5.1312,5.1281,5.1322,5.1257,5.1274,5.1286,5.1293,5.1173,5.1178,5.1118,5.1194,5.1272,5.1185,5.1015,5.1212,5.1753,5.2572,5.421,5.6267,5.7938,5.8485,5.8191,5.6787,5.4932,5.3013,5.1404,5.1273,5.1168,5.1009,5.0817,5.0753,5.0725,5.0582,5.0511,5.0478,5.0423,5.0453,5.0444,5.0524,5.0464,5.0478,5.0582,5.0535,5.0481,5.0529,5.0559,5.0584,5.059,5.0559,5.0626,5.0668,5.0672,5.0661,5.0643,5.0658,5.0675,5.0693,5.0671,5.0638,5.0611,5.0556,5.0576,5.0594,5.0521,5.0535,5.0502,5.0441,5.0471,5.0421,5.0466,5.0464,5.0448,5.0476,5.0464,5.0455,5.0499,5.0465,5.0552,5.057,5.0599,5.0674,5.0718,5.0795,5.084,5.0833,5.0831,5.0882,5.0834,5.0815,5.079,5.0763,5.0654,5.0564,5.043,5.0261,5.0173,5.0027,4.9974,4.995,4.9921,4.983,4.9769,4.9769,4.974,4.9716,4.9702,4.9694,4.9689,4.9647,4.9613,4.9617,4.9655,4.9618,4.9647,4.9676,4.9628,4.9533,4.9533,4.9534,4.954,4.9542,4.951,4.9525,4.9511,4.9544,4.9512,4.954,4.9498,4.9479,4.9511,4.9458,4.9441,4.9357,4.9331,4.9315,4.9364,4.9402,4.9441,4.9474,4.9481,4.9527,4.9516,4.9562,4.9535,4.9583,4.9602,4.9597,4.9716,4.975,4.9915,4.9878,4.986,4.9786,4.9683,4.9606,4.95,4.9426,4.9385,4.9163,4.9084,4.911,4.9092,4.9044,4.9057,4.9001,4.9046,4.9103,4.9071,4.8979,4.9063,4.9089,4.9055,4.8928,4.9103,4.9652,5.0477,5.1945,5.394,5.5914,5.6669,5.6637,5.5751,5.3798,5.1664,5.0701,4.9622,4.9531,4.9456,4.9285,4.9185,4.9023,4.907,4.8974,4.8958,4.886,4.8968,4.888,4.8904,4.8861,4.8949,4.8973,4.9038,4.9018,4.9049,4.9013,4.9067,4.903,4.9058,4.8999,4.9078,4.9075,4.9024,4.9093,4.9097,4.9105,4.9136,4.9191,4.9196,4.9209,4.927,4.9243,4.929,4.9322,4.9391,4.9402,4.9433,4.9383,4.9388,4.9332,4.9289,4.9294,4.9249,4.925,4.9224,4.9175,4.9171,4.9182,4.9208,4.9184,4.9204,4.9228,4.9248,4.925,4.9258,4.9324,4.9239,4.9276,4.9248,4.9157,4.9026,4.8983,4.8816,4.8777,4.8655,4.8575,4.8458,4.8466,4.8385,4.8419,4.8322,4.8278,4.8268,4.8276,4.8291,4.8291,4.8312,4.8262,4.8339,4.835,4.8307,4.8245,4.8298,4.825,4.8232,4.8207,4.8148,4.8177,4.8117,4.8117,4.8116,4.8076,4.7979,4.8052,4.8037,4.7942,4.7897,4.7883,4.7803,4.7796,4.7809,4.7715,4.7703,4.7638,4.7515,4.7508,4.7438,4.7421,4.7424,4.7371,4.7355,4.732,4.7388,4.745,4.7384,4.7363,4.7305,4.7283,4.728,4.7285,4.7316,4.7394,4.7391,4.7533,4.757,4.7504,4.7511,4.74,4.7268,4.7139,4.7029,4.6912,4.6783,4.6624,4.6469,4.6412,4.635,4.6268,4.6252,4.625,4.6229,4.6169,4.6143,4.6121,4.6136,4.6074,4.592,4.573,4.5845,4.6362,4.7316,4.8596,5.0781,5.3048,5.3877,5.3872,5.3187,5.1119,4.8986,4.7244,4.6672,4.6523,4.6207,4.6001,4.5876,4.5794,4.5711,4.5686,4.5574,4.5522,4.5489,4.5507,4.5477,4.5463,4.5423,4.5443,4.5473,4.5455,4.5479,4.5531,4.5528,4.558,4.5615,4.5629,4.5593,4.5684,4.5696,4.5656,4.5704,4.5708,4.5746,4.5786,4.5823,4.5823,4.5839,4.5948,4.5993,4.6013,4.6039,4.603,4.6091,4.6149,4.6197,4.6218,4.6219,4.6271,4.6216,4.6245,4.6209,4.6153,4.6197,4.6181,4.6161,4.6133,4.6138,4.6197,4.6147,4.6201,4.629,4.6306,4.6367,4.6312,4.6266,4.6181,4.6113,4.6028,4.5888,4.5761,4.565,4.5596,4.548,4.5449,4.5328,4.5233,4.5227,4.5198,4.5144,4.517,4.5198,4.5188,4.5207,4.5167,4.5221,4.5211,4.5227,4.5228,4.5246,4.5231,4.5228,4.5205,4.5184,4.5201,4.5178,4.5164,4.5146,4.5117,4.5046,4.4922,4.4909,4.4858,4.4757,4.4695,4.4691,4.4605,4.4534,4.4545,4.4486,4.4417,4.44,4.4374,4.434,4.4333,4.4272,4.4273,4.4194,4.4201,4.4194,4.4217,4.4344,4.4363,4.4339,4.4325,4.4292,4.4298,4.4243,4.4178,4.4265,4.4407,4.4492,4.4655,4.4712,4.4591,4.4591,4.4572,4.4486,4.4226,4.4249,4.4171,4.4013,4.3858,4.3774,4.3697,4.3667,4.3591,4.3582,4.3568,4.3508,4.3475,4.349,4.3479,4.3378,4.3369,4.3254,4.3333,4.3768,4.449,4.577,4.7745,4.9895,5.0714,5.1224,5.1089,4.9621,4.7774,4.5758,4.4286,4.4139,4.3951,4.3713,4.3645,4.3443,4.3469,4.3374,4.3376,4.3264,4.3385,4.3413,4.3373,4.3298,4.341,4.3474,4.3476,4.3367,4.3436,4.3378,4.3358,4.3408,4.3514,4.3433,4.3521,4.3553,4.3489,4.3446,4.3496,4.3448,4.3477,4.346,4.3495,4.3476,4.3551,4.3495,4.3556,4.3572,4.3608,4.3618,4.37,4.3713,4.3725,4.3804,4.3766,4.3819,4.3844,4.3892,4.3994,4.395,4.4003,4.4091,4.4098,4.4112,4.4147,4.4178,4.4176,4.4269,4.4262,4.4244,4.421,4.4295,4.4221,4.4092,4.4033,4.4016,4.3926,4.3808,4.3731,4.3624,4.3499,4.351,4.3502,4.342,4.3338,4.3267,4.3268,4.3244,4.3239,4.3241,4.3176,4.3229,4.3216,4.3205,4.3141,4.316,4.3182,4.3254,4.3302,4.328,4.3215,4.3204,4.3137,4.319,4.3271,4.3309,4.3247,4.3267,4.3171,4.3239,4.3227,4.3232,4.3229,4.3168,4.3101,4.3071,4.3027,4.3061,4.3019,4.3082,4.3029,4.3022,4.305,4.2996,4.3005,4.3025,4.316,4.3156,4.319,4.3232,4.3179,4.3219,4.3222,4.3186,4.3231,4.3397,4.3392,4.3577,4.3621,4.3629,4.3572,4.3526,4.3427,4.3292,4.3185,4.3092,4.3051,4.2938,4.2869,4.2869,4.2808,4.2719,4.2787,4.2822,4.2819,4.2828,4.2884,4.2826,4.2828,4.2908,4.2784,4.2622,4.2848,4.3556,4.462,4.6198,4.8333,5.0079,5.0698,5.0644,4.9403,4.7457,4.5321,4.3733,4.358,4.3421,4.3415,4.3185,4.3047,4.3009,4.2964,4.2944,4.2955,4.2978,4.2985,4.2996,4.2963,4.3014,4.3009,4.3051,4.3103,4.3128,4.3094,4.3125,4.3166,4.3164,4.3168,4.321,4.3274,4.3324,4.3359,4.3376,4.3386,4.3386,4.3444,4.3521,4.3541,4.3544,4.3566,4.3675,4.3756,4.3773,4.3764,4.3754,4.3769,4.3867,4.3904,4.3924,4.393,4.3952,4.4006,4.4025,4.4085,4.4087,4.4113,4.4121,4.4152,4.4109,4.4134,4.4184,4.4265,4.424,4.4245,4.4296,4.4349,4.4323,4.434,4.4256,4.4159,4.4085,4.397,4.3927,4.3798,4.3673,4.3589,4.356,4.3537,4.3455,4.3427,4.3413,4.3434,4.3411,4.3385,4.3375,4.3419,4.3411,4.3446,4.347,4.3506,4.3487,4.3519,4.3543,4.3582,4.3531,4.3555,4.3549,4.3596,4.36,4.357,4.3534,4.3563,4.3523,4.3538,4.3521,4.3512,4.3477,4.3487,4.3458,4.3447,4.3399,4.3427,4.3376,4.3317,4.3342,4.3249,4.3245,4.3189,4.3198,4.3163,4.3154,4.3062,4.3141,4.3267,4.3301,4.3264,4.3292,4.3217,4.3235,4.3245,4.3234,4.324,4.334,4.3404,4.3496,4.3641,4.362,4.3612,4.3631,4.3548,4.3455,4.338,4.3289,4.3262,4.3193,4.3056,4.305,4.3008,4.3006,4.2969,4.2962,4.2944,4.2911,4.2968,4.2985,4.2973,4.3015,4.2822,4.2693,4.3093,4.3421,4.4222,4.5533,4.7694,5.0074,5.0969,5.1049,5.0392,4.8364,4.6254,4.4574,4.3875,4.373,4.3388,4.3347,4.3174,4.3087,4.2974,4.2957,4.2877,4.2887,4.2886,4.2903,4.2876,4.2928,4.292,4.295,4.2933,4.2967,4.2946,4.3015,4.2958,4.3033,4.308,4.309,4.3058,4.3115,4.309,4.3109,4.3133,4.3213,4.327,4.3209,4.3275,4.3276,4.3325,4.3383,4.3398,4.3472,4.3534,4.3513,4.3546,4.3552,4.3587,4.3645,4.3685,4.3668,4.3677,4.3715,4.3668,4.374,4.3692,4.3738,4.3682,4.3684,4.3711,4.3718,4.3749,4.3808,4.388,4.3925,4.3977,4.3921,4.3978,4.3884,4.384,4.3736,4.3627,4.3513,4.3428,4.3306,4.3358,4.3281,4.3201,4.3104,4.3177,4.3186,4.3147,4.3161,4.3128,4.3118,4.3116,4.3083,4.3133,4.3151,4.3128,4.3143,4.3115,4.3113,4.3128,4.3094,4.3113,4.3122,4.3047,4.3036,4.3038,4.3018,4.3099,4.303,4.3059,4.3091,4.308,4.3017,4.3012,4.2963,4.2912,4.2938,4.3,4.291,4.2928,4.2842,4.2887,4.2872,4.2864,4.2909,4.2883,4.2866,4.2912,4.288,4.2867,4.2875,4.2914,4.293,4.2973,4.3056,4.3073,4.3068,4.3085,4.3065,4.3133,4.3074,4.3062,4.3114,4.3202,4.3261,4.3407,4.3466,4.3419,4.3393,4.328,4.3234,4.3106
