6.8218,6.8312,6.8282,6.8158,6.8165,6.8284,6.8275,6.8288,6.8177,6.8132,6.8183,6.8244,6.7986,6.7053,6.6641,6.6743,6.7375,6.9099,7.2579,7.6253,7.693,7.4141,6.9192,6.6566,6.6795,6.6929,6.6909,6.7388,6.71,6.745,6.81,6.8591,6.8691,6.8474,6.8354,6.8356,6.8493,6.8552,6.8586,6.8443,6.8547,6.8648,6.8764,6.866,6.8698,6.8659,6.876,6.8857,6.8923,6.8813,6.8864,6.896,6.9129,6.9179,6.9079,6.9064,6.9236,6.934,6.9429,6.9407,6.9464,6.9571,6.9764,6.9832,6.9866,6.9871,7.0008,7.02,7.0347,7.0353,7.0459,7.0596,7.0821,7.0946,7.0973,7.0999,7.1098,7.1327,7.1446,7.1428,7.1446,7.1501,7.1599,7.1604,7.1536,7.1348,7.1162,7.0995,7.083,7.0574,7.0239,7.0008,6.9827,6.9624,6.9478,6.9199,6.9005,6.896,6.8891,6.8796,6.8578,6.8554,6.8589,6.8616,6.8601,6.8483,6.8403,6.8438,6.8473,6.8544,6.8406,6.8425,6.8415,6.8424,6.8481,6.8377,6.8349,6.8376,6.848,6.8502,6.8428,6.8317,6.8323,6.844,6.8522,6.851,6.8409,6.8421,6.85,6.858,6.8556,6.8444,6.8443,6.8545,6.8598,6.8612,6.8485,6.846,6.8555,6.8595,6.8532,6.8429,6.8405,6.8424,6.8519,6.8574,6.8462,6.8371,6.8394,6.8489,6.8515,6.841,6.8358,6.8398,6.8463,6.8502,6.8444,6.8334,6.8378,6.8456,6.8489,6.8476,6.8327,6.8339,6.8471,6.8513,6.8459,6.837,6.8374,6.8471,6.8508,6.8504,6.8393,6.8376,6.8457,6.8527,6.8429,6.8384,6.8333,6.8402,6.841,6.8471,6.8371,6.8302,6.837,6.8411,6.842,6.8358,6.8309,6.8345,6.8413,6.8433,6.8356,6.8311,6.835,6.8421,6.8469,6.8372,6.8342,6.8375,6.8424,6.8425,6.8397,6.8302,6.833,6.8403,6.8468,6.8405,6.8309,6.8325,6.8413,6.8496,6.8498,6.837,6.8412,6.8504,6.8653,6.8616,6.8436,6.8501,6.8879,6.9229,6.943,6.937,6.9009,6.8827,6.8839,6.8832,6.8633,6.8515,6.833,6.8315,6.8315,6.8217,6.8202,6.827,6.8322,6.8304,6.8221,6.819,6.8221,6.8277,6.8311,6.8237,6.8008,6.7318,6.682,6.6875,6.7037,6.8233,7.1266,7.5327,7.6957,7.4767,7.0089,6.6684,6.68,6.6992,6.6863,6.7087,6.7056,6.7366,6.8004,6.8692,6.8564,6.8408,6.8517,6.8574,6.8599,6.851,6.8546,6.8615,6.8769,6.8743,6.868,6.866,6.8799,6.8833,6.8843,6.8826,6.8841,6.8839,6.8967,6.9087,6.9031,6.8991,6.9076,6.9227,6.9334,6.9262,6.9293,6.9373,6.9545,6.9672,6.9668,6.9688,6.9762,6.9961,7.0161,7.0251,7.0245,7.0344,7.0599,7.0775,7.0925,7.0908,7.1041,7.1207,7.1412,7.1454,7.1472,7.1519,7.1617,7.1739,7.1693,7.1572,7.146,7.1287,7.1164,7.0947,7.0622,7.0245,7.0021,6.9839,6.9653,6.9348,6.9093,6.8986,6.89,6.8822,6.8628,6.8451,6.8459,6.8487,6.8489,6.8422,6.8268,6.8248,6.8314,6.8374,6.8351,6.8259,6.8251,6.8307,6.844,6.8339,6.8205,6.8197,6.83,6.8387,6.8308,6.8254,6.8253,6.8311,6.8343,6.8391,6.83,6.8282,6.8326,6.8389,6.8447,6.8375,6.8303,6.8413,6.8471,6.8487,6.8406,6.8359,6.8408,6.8509,6.8496,6.8425,6.8389,6.8391,6.8428,6.8514,6.8439,6.839,6.8377,6.8427,6.8488,6.8473,6.8353,6.8408,6.848,6.8565,6.8452,6.8365,6.839,6.8496,6.8533,6.8487,6.8453,6.8442,6.8499,6.8574,6.8621,6.8483,6.842,6.8498,6.8612,6.8638,6.8541,6.8486,6.8528,6.862,6.8674,6.856,6.8468,6.8535,6.863,6.8663,6.8581,6.8491,6.8538,6.8619,6.8619,6.8616,6.8494,6.8494,6.8618,6.8628,6.8539,6.847,6.8462,6.8548,6.8635,6.8549,6.8435,6.8508,6.8631,6.8672,6.8667,6.8599,6.8512,6.8683,6.8764,6.8703,6.8791,6.9137,6.9408,6.9559,6.9294,6.9063,6.8887,6.8905,6.8936,6.8817,6.8552,6.829,6.8361,6.8413,6.8426,6.8321,6.8205,6.8217,6.8321,6.8357,6.8254,6.8154,6.8207,6.8225,6.8197,6.7756,6.6928,6.6663,6.679,6.7582,6.9445,7.1127,7.5074,7.6833,7.4305,6.9682,6.5979,6.6125,6.6438,6.6571,6.7066,6.6817,6.7182,6.7996,6.8435,6.844,6.8203,6.8171,6.822,6.8376,6.8376,6.8399,6.824,6.8357,6.8453,6.8484,6.8459,6.8466,6.8483,6.8679,6.8689,6.8719,6.8658,6.8748,6.8839,6.8869,6.8821,6.8837,6.8935,6.9124,6.9155,6.9207,6.9181,6.9233,6.9431,6.953,6.9579,6.9649,6.9753,6.9923,7.0136,7.0187,7.0203,7.0311,7.0555,7.0738,7.0827,7.088,7.0977,7.1025,7.1239,7.1341,7.1357,7.1362,7.1393,7.1415,7.1351,7.1075,7.0803,7.0521,7.0283,7.0027,6.9681,6.9319,6.9137,6.8957,6.8777,6.8482,6.8363,6.8246,6.82,6.8171,6.8005,6.7836,6.7719,6.7735,6.7767,6.7784,6.7615,6.7561,6.7645,6.7616,6.7605,6.7455,6.7509,6.7578,6.7594,6.7572,6.7536,6.7507,6.7593,6.7646,6.768,6.7543,6.7531,6.7587,6.7638,6.7647,6.7606,6.7585,6.7648,6.7721,6.7711,6.76,6.7562,6.7598,6.7699,6.7711,6.7645,6.7546,6.7577,6.7672,6.7716,6.7639,6.7549,6.7534,6.7632,6.765,6.7553,6.7425,6.7465,6.7624,6.7617,6.7534,6.7416,6.7397,6.7459,6.7541,6.7575,6.7537,6.7565,6.7689,6.7731,6.7764,6.7767,6.7817,6.7689,6.7763,6.7814,6.7751,6.7753,6.7821,6.771,6.7515,6.7416,6.7343,6.7411,6.7467,6.752,6.7465,6.7374,6.7396,6.746,6.7478,6.7418,6.7275,6.7341,6.7464,6.7336,6.6573,6.6058,6.6077,6.6539,6.8204,7.156,7.3868,7.6195,7.505,6.9673,6.4985,6.3795,6.4674,6.4783,6.5627,6.5897,6.5899,6.6416,6.7331,6.7749,6.7812,6.7552,6.7671,6.7739,6.7843,6.7868,6.7831,6.7728,6.7838,6.7907,6.8069,6.7989,6.8007,6.7982,6.8225,6.8249,6.825,6.8162,6.8307,6.856,6.862,6.8518,6.8583,6.8652,6.8757,6.8906,6.8975,6.8983,6.9055,6.9243,6.9279,6.9443,6.9504,6.9595,6.9808,7.0045,7.018,7.0241,7.0309,7.0538,7.0787,7.0927,7.0894,7.0985,7.1122,7.1299,7.1355,7.1281,7.1177,7.1182,7.1092,7.0861,7.0408,6.9973,6.9747,6.9479,6.9197,6.8841,6.8492,6.8315,6.8213,6.8031,6.7771,6.7735,6.7613,6.7591,6.76,6.751,6.7333,6.7283,6.7281,6.732,6.7315,6.7219,6.7246,6.7292,6.7352,6.7256,6.7192,6.7262,6.737,6.7423,6.7424,6.7334,6.7282,6.7418,6.7463,6.7423,6.7381,6.7383,6.7444,6.7581,6.7545,6.7453,6.7458,6.7507,6.7511,6.7543,6.7479,6.7447,6.7485,6.7535,6.757,6.7538,6.7461,6.7446,6.7552,6.7579,6.7535,6.7472,6.7509,6.7613,6.7585,6.7518,6.7402,6.746,6.7581,6.7648,6.7518,6.7474,6.7531,6.7558,6.7664,6.7697,6.7506,6.7475,6.7544,6.7699,6.7696,6.7596,6.7561,6.7691,6.7695,6.7724,6.7605,6.7594,6.7709,6.781,6.778,6.7621,6.7606,6.7651,6.7771,6.7814,6.7769,6.7666,6.7691,6.7789,6.7807,6.7793,6.7716,6.7776,6.783,6.7822,6.7792,6.773,6.7738,6.7803,6.7878,6.781,6.7759,6.774,6.7857,6.7884,6.7947,6.7811,6.7819,6.7956,6.806,6.8081,6.7955,6.795,6.8106,6.8298,6.8239,6.8155,6.8385,6.8727,6.8949,6.8988,6.8747,6.8521,6.8383,6.8525,6.8538,6.8248,6.8082,6.7954,6.8046,6.8005,6.7952,6.7881,6.7936,6.8015,6.802,6.7955,6.788,6.7926,6.7954,6.8039,6.7893,6.7251,6.6663,6.6731,6.7087,6.8404,7.133,7.5546,7.7307,7.4743,6.9902,6.5756,6.567,6.6144,6.6402,6.6818,6.659,6.6687,6.7285,6.8136,6.8574,6.8427,6.8337,6.845,6.8511,6.8584,6.8568,6.8584,6.8679,6.884,6.8828,6.8812,6.88,6.8883,6.9032,6.9069,6.9027,6.9043,6.9064,6.9192,6.9368,6.9309,6.9304,6.9422,6.9529,6.9714,6.9711,6.9655,6.9769,6.994,7.0096,7.0145,7.0148,7.029,7.0481,7.06,7.0651,7.0701,7.0815,7.0982,7.1212,7.1346,7.1407,7.1486,7.1656,7.1785,7.1956,7.1885,7.1815,7.1969,7.2075,7.2034,7.1791,7.1637,7.1514,7.1431,7.1146,7.0878,7.0524,7.0305,7.0172,7.0131,6.989,6.9594,6.9532,6.9348,6.9379,6.927,6.9161,6.9256,6.938,6.9239,6.9143,6.9042,6.9029,6.9206,6.9232,6.9269,6.9264,6.9298,6.9439,6.9496,6.9559,6.9455,6.9516,6.9642,6.9797,6.9856,6.9669,6.9894,6.9889,6.987,6.989,6.9733,6.9543,6.9682,6.9737,6.9754,6.9786,6.9551,6.9547,6.9365,6.9333,6.9306,6.9247,6.9273,6.9197,6.9141,6.895,6.8856,6.8797,6.8862,6.8788,6.8804,6.8587,6.8521,6.8516,6.8521,6.8494,6.8355,6.8216,6.8229,6.8248,6.8256,6.81,6.8024,6.8072,6.8142,6.8048,6.7898,6.7839,6.7913,6.7942,6.7986,6.7918,6.7789,6.7822,6.7925,6.7938,6.7849,6.7799,6.7805,6.7979,6.8068,6.8047,6.796,6.799,6.8136,6.8353,6.8282,6.8155,6.8261,6.8651,6.8974,6.9036,6.8764,6.8591,6.8515,6.8569,6.8533,6.8299,6.817,6.8083,6.8117,6.8107,6.8007,6.8047,6.8135,6.8188,6.8168,6.8104,6.8069,6.816,6.8223,6.8243,6.8164,6.7943,6.7325,6.6982,6.7048,6.7448,6.909,7.2662,7.6625,7.7486,7.3805,6.8796,6.5765,6.6048,6.6236,6.6195,6.6644,6.6728,6.7071,6.7718,6.8489,6.8548,6.8513,6.861,6.8682,6.8632,6.8548,6.8503,6.8772,6.8854,6.892,6.883,6.8891,6.9012,6.9064,6.9144,6.9102,6.9079,6.9222,6.9368,6.9564,6.95,6.9463,6.9533,6.9662,6.9751,6.9753,6.9794,6.9951,7.0147,7.0214,7.023,7.0293,7.0393,7.0556,7.071,7.0769,7.079,7.0962,7.1214,7.1291,7.1409,7.1413,7.1572,7.1695,7.1902,7.2031,7.2072,7.2142,7.2254,7.2272,7.2104,7.1806,7.1646,7.1497,7.142,7.1219,7.0761,7.0512,7.0264,7.0155,7.0039,6.9744,6.9565,6.9492,6.9437,6.9299,6.9171,6.911,6.9092,6.9065,6.9074,6.9008,6.8885,6.8889,6.8954,6.8944,6.8856,6.8752,6.8765,6.882,6.8856,6.8769,6.8683,6.8716,6.8804,6.8875,6.8821,6.874,6.8755,6.8846,6.8914,6.8901,6.8798,6.8811,6.8924,6.8969,6.9009,6.8905,6.8885,6.8934,6.9081,6.9089,6.8957,6.8985,6.9029,6.9112,6.9092,6.8972,6.8955,6.8984,6.9063,6.9067,6.8995,6.8961,6.8981,6.908,6.9096,6.9027,6.8963,6.8976,6.908,6.914,6.9063,6.8997,6.9059,6.9103,6.9162,6.9094,6.9015,6.9026,6.9105,6.9215,6.9157,6.9074,6.904,6.9137,6.9163,6.921,6.9193,6.9275,6.9378,6.9365,6.9422,6.9405,6.9336,6.9425,6.9822,7.0241,7.0231,7.002,6.9873,6.9775,6.9657,6.9578,6.9516,6.9508,6.9455,6.93,6.9155,6.9093,6.9087,6.921,6.9213,6.9042,6.8993,6.9069,6.9138,6.9223,6.9132,6.8999,6.8981,6.8794,6.8034,6.7518,6.7557,6.8176,6.9782,7.34,7.712,7.7717,7.4901,7.0355,6.8168,6.8086,6.7758,6.7839,6.8187,6.8194,6.8726,6.9296,6.9467,6.9454,6.9444,6.9486,6.9379,6.9408,6.9494,6.9624,6.9665,6.9598,6.9538,6.9693,6.9753,6.9801,6.9766,6.9746,6.9803,6.9889,6.9983,6.9992,6.9939,7.0033,7.0159,7.0315,7.0278,7.0216,7.0345,7.0498,7.0612,7.0627,7.0646,7.0798,7.0946,7.1139,7.1214,7.1216,7.1311,7.1486,7.1703,7.1886,7.1895,7.1993,7.2226,7.2424,7.258,7.2636,7.2625,7.275,7.2915,7.2902,7.2785,7.2666,7.2643,7.2415,7.2307,7.1977,7.1579,7.1265,7.1106,7.0967,7.0591,7.0261,7.0152,7.0025,6.9937,6.9782,6.9557,6.9593,6.9614,6.9556,6.9465,6.9392,6.937,6.9427,6.9461,6.9452,6.9309,6.9255,6.9329,6.9412,6.9374,6.9257,6.9245,6.9272,6.9371,6.9301,6.9289,6.9257,6.9295,6.9376,6.9321,6.9239,6.9287,6.9264,6.9316,6.9324,6.9303,6.9277,6.9313,6.9337,6.9414,6.9368,6.9311,6.9347,6.9361,6.9503,6.936,6.9243,6.9309,6.938,6.9397,6.9298,6.9251,6.9205,6.9329,6.9401,6.9346,6.9215,6.9225,6.9316,6.9387,6.9344,6.9216,6.9156,6.9279,6.9358,6.9273,6.9204,6.9222,6.9255,6.9327,6.9324,6.9203,6.9113,6.921,6.9257,6.9333,6.9271,6.9138,6.9234,6.9416,6.9417,6.9268,6.9271,6.9355,6.9504,6.9429,6.9534,6.9939,7.0177,7.0094,6.9995,6.976,6.951,6.9474,6.9563,6.9504,6.9354,6.9017,6.8974,6.9038,6.9054,6.9043,6.8932,6.8907,6.9004,6.9077,6.9005,6.8916,6.8861,6.8909,6.9038,6.8954,6.8318,6.7564,6.7466,6.7715,6.8709,7.1109,7.5037,7.7547,7.6275,7.2098,6.7885,6.7351,6.7503,6.7331,6.7911,6.7699,6.786,6.8524,6.9237,6.9317,6.921,6.9123,6.9108,6.9253,6.9305,6.9369,6.9165,6.9251,6.9437,6.9552,6.9487,6.9407,6.9441,6.9671,6.9743,6.974,6.9636,6.9621,6.9732,6.9834,6.9868,6.9865,6.9888,7.0017,7.015,7.0229,7.0274,7.0313,7.0434,7.0605,7.0733,7.0753,7.0858,7.1028,7.1208,7.1335,7.1409,7.143,7.1598,7.1843,7.1938,7.2104,7.2101,7.2272,7.2421,7.2632,7.259,7.2576,7.2517,7.259,7.2538,7.2222,7.189,7.1566,7.1487,7.1232,7.0943,7.0477,7.0333,7.0141,6.9947,6.9725,6.9487,6.9276,6.9284,6.9288,6.9215,6.9055,6.8966,6.903,6.9101,6.9009,6.8853,6.8828,6.8774,6.8911,6.8963,6.8842,6.8743,6.8707,6.8771,6.8883,6.8722,6.8581,6.8658,6.8753,6.8865,6.8752,6.8642,6.8656,6.8758,6.883,6.8736,6.8695,6.8682,6.8742,6.8843,6.8843,6.8783,6.8663,6.8755,6.8821,6.8826,6.8673,6.8691,6.8745,6.8781,6.8764,6.8624,6.8634,6.8712,6.8757,6.879,6.8599,6.862,6.8613,6.8679,6.8759,6.8613,6.8521,6.8543,6.8668,6.8667,6.8559,6.8495,6.8655,6.8705,6.8679,6.8577,6.8507,6.864,6.8763,6.8879,6.8744,6.8703,6.8766,6.8916,6.8897,6.8957,6.9337,6.9535,6.9588,6.9425,6.9258,6.9041,6.9035,6.9085,6.9025,6.8845,6.847,6.8435,6.8521,6.8598,6.8617,6.8521,6.8439,6.8527,6.8581,6.8668,6.8517,6.8431,6.8541,6.8567,6.8402,6.7471,6.6942,6.7058,6.7608,6.9161,7.2506,7.459,7.6835,7.5646,7.1233,6.7333,6.655,6.6834,6.6567,6.7358,6.7075,6.763,6.8226,6.8833,6.8748,6.869,6.862,6.8658,6.8675,6.8792,6.8763,6.8771,6.8689,6.8766,6.8898,6.9027,6.8993,6.8914,6.8975,6.9164,6.9166,6.9106,6.919,6.9304,6.9407,6.9486,6.9422,6.9521,6.9632,6.9694,6.9838,6.9855,6.984,6.9902,7.0163,7.0226,7.0309,7.0346,7.0465,7.0677,7.0814,7.0968,7.0972,7.1073,7.1301,7.1498,7.1623,7.1654,7.17,7.1903,7.2071,7.2138,7.2089,7.1969,7.1947,7.1931,7.1648,7.1162,7.0937,7.064,7.0437,7.011,6.9687,6.9356,6.923,6.912,6.8891,6.8643,6.8546,6.845,6.8465,6.8482,6.8288,6.8135,6.8133,6.8164,6.8161,6.8039,6.7919,6.8036,6.8074,6.8099,6.801,6.7817,6.7882,6.7882,6.7963,6.7888,6.782,6.7733,6.7785,6.7896,6.7842,6.7711,6.7714,6.7708,6.7835,6.7805,6.7632,6.7583,6.772,6.7759,6.7758,6.7625,6.7599,6.7615,6.7712,6.7785,6.7729,6.7626,6.7617,6.7689,6.7766,6.7597,6.7491,6.7494,6.7637,6.7608,6.7617,6.7556,6.7536,6.7538,6.7614,6.7552,6.7522,6.7602,6.7689,6.7753,6.7719,6.7684,6.7711,6.776,6.7876,6.8133,6.8401,6.8571,6.8399,6.839,6.8203,6.8084,6.8021,6.7936,6.7712,6.7572,6.7366,6.7365,6.7441,6.7436,6.7447,6.727,6.7261,6.7257,6.7362,6.7399,6.733,6.7223,6.728,6.7339,6.7194,6.651,6.5921,6.5939,6.6205,6.764,6.8981,7.2754,7.601,7.5481,7.0698,6.5633,6.3967,6.4553,6.4802,6.5354,6.5702,6.5594,6.6201,6.6975,6.7742,6.7565,6.7537,6.7413,6.7611,6.7591,6.7776,6.7572,6.765,6.7653,6.7824,6.7868,6.7911,6.7825,6.7951,6.8039,6.8178,6.8052,6.8103,6.8225,6.8357,6.8427,6.8336,6.8395,6.8585,6.8685,6.8859,6.885,6.8815,6.8945,6.9106,6.9291,6.9351,6.9409,6.9569,6.9782,6.9929,7.0034,7.0064,7.0273,7.0537,7.0707,7.0794,7.0898,7.0916,7.1067,7.1196,7.1312,7.1213,7.1254,7.1234,7.1197,7.085,7.0493,7.0142,6.9928,6.9711,6.9417,6.8988,6.8753,6.857,6.8495,6.8237,6.808,6.7941,6.7906,6.7894,6.7885,6.7787,6.7631,6.7526,6.7714,6.7693,6.7629,6.7548,6.7589,6.7684,6.7707,6.762,6.7632,6.7628,6.7725,6.7793,6.7797,6.7703,6.7729,6.7772,6.7946,6.7865,6.7831,6.7783,6.7841,6.7927,6.7908,6.7818,6.7835,6.7943,6.803,6.8034,6.7937,6.7938,6.8003,6.8109,6.8023,6.7994,6.7924,6.7991,6.8026,6.8078,6.8029,6.7956,6.7948,6.8078,6.8078,6.7975,6.7917,6.8008,6.8113,6.8163,6.8095,6.8113,6.8096,6.8232,6.8334,6.8373,6.8228,6.8378,6.871,6.922,6.9344,6.9131,6.9112,6.91,6.9125,6.9046,6.8751,6.8493,6.8406,6.8334,6.8317,6.8232,6.8178,6.8173,6.833,6.8329,6.8258,6.8198,6.8173,6.8314,6.8366,6.8227,6.8187,6.8143,6.7868,6.713,6.6784,6.6769,6.7686,7.0091,7.4223,7.6185,7.7179,7.4131,6.9211,6.6391,6.626,6.6408,6.6457,6.7213,6.7001,6.7642,6.8089,6.8775,6.8782,6.89,6.8685,6.8724,6.8629,6.8863,6.8764,6.8942,6.8838,6.8963,6.8927,6.9145,6.9079,6.912,6.9077,6.9179,6.925,6.9342,6.924,6.9347,6.9413,6.9609,6.9631,6.9633,6.9609,6.9729,6.9848,7.0051,7.0053,7.0118,7.0213,7.0394,7.0534,7.061,7.067,7.0795,7.106,7.1221,7.1292,7.1368,7.1435,7.1687,7.1897,7.1958,7.1991,7.1996,7.2135,7.2281,7.2268,7.215,7.2014,7.1879,7.17,7.1401,7.0996,7.066,7.0461,7.0238,7.0031,6.9682,6.9485,6.9368,6.9349,6.9204,6.9117,6.8945,6.8924,6.8937,6.8907,6.8766,6.8682,6.8669,6.8769,6.8751,6.8714,6.8616,6.862,6.8632,6.8738,6.8647,6.86,6.8587,6.8713,6.8736,6.876,6.8594,6.8588,6.8615,6.8779,6.8801,6.8667,6.8602,6.8717,6.879,6.8773,6.8693,6.8681,6.8736,6.8855,6.8816,6.8736,6.8624,6.8735,6.8802,6.8886,6.874,6.8675,6.8691,6.881,6.8857,6.8799,6.859,6.8674,6.8718,6.879,6.8702,6.861,6.8621,6.8777,6.8808,6.8696,6.8614,6.8665,6.874,6.8801,6.8785,6.8672,6.8666,6.8768,6.8792,6.8798,6.8684,6.8664,6.8763,6.8822,6.8754,6.862,6.8632,6.8711,6.8781,6.8756,6.8714,6.861,6.8655,6.8751,6.8784,6.8785,6.8694,6.87,6.8843,6.8943,6.8892,6.87,6.8854,6.9422,6.9779,6.955,6.9331,6.919,6.9106,6.9107,6.9122,6.8939,6.8821,6.8724,6.8601,6.8576,6.8468,6.8475,6.8507,6.8577,6.8566,6.8409,6.8422,6.8479,6.8559,6.8482,6.8388,6.8235,6.8019,6.7251,6.7016,6.6988,6.7739,6.9882,7.378,7.6906,7.64,7.2566,6.8043,6.7064,6.7296,6.7044,6.7283,6.7291,6.77,6.8313,6.875,6.8747,6.8681,6.8766,6.8761,6.8789,6.8616,6.8765,6.8855,6.8926,6.8898,6.8857,6.8897,6.9032,6.9064,6.9118,6.9011,6.9072,6.9156,6.9257,6.927,6.9224,6.9253,6.9362,6.9487,6.9531,6.954,6.9525,6.9715,6.9821,6.9914,6.9942,7.0031,7.0177,7.0305,7.0429,7.0453,7.0529,7.0719,7.0916,7.1014,7.1072,7.1147,7.1262,7.1509,7.1588,7.1733,7.1722,7.1895,7.2007,7.214,7.2045,7.1858,7.1793,7.1705,7.1401,7.1043,7.0695,7.0418,7.0325,7.0157,6.9894,6.9575,6.9307,6.922,6.9109,6.9008,6.883,6.8704,6.8685,6.8705,6.8626,6.8481,6.8433,6.8492,6.8552,6.8571,6.8428,6.8398,6.8355,6.853,6.8506,6.8426,6.8361,6.8392,6.8492,6.8533,6.8429,6.8373,6.8409,6.8519,6.8549,6.8482,6.8403,6.845,6.8554,6.8579,6.851,6.8448,6.8443,6.8494,6.8538,6.855,6.844,6.8345,6.8464,6.8587,6.8574,6.8414,6.8404,6.8478,6.8553,6.8491,6.8395,6.8346,6.8396,6.8498,6.8495,6.837,6.834,6.8403,6.8469,6.8444,6.8338,6.8262,6.833,6.8383,6.8384,6.8357,6.8275,6.8292,6.8441,6.8448,6.8344,6.8297,6.8371,6.8387,6.8461,6.8428,6.8332,6.8296,6.8425,6.8446,6.8426,6.8347,6.8324,6.833,6.8449,6.8367,6.8298,6.8282,6.8323,6.8422,6.8387,6.8302,6.8247,6.8284,6.8455,6.8576,6.8438,6.8316,6.851,6.8683,6.8579,6.8495,6.8752,6.927,6.9549,6.9326,6.8994,6.8785,6.878,6.8846,6.8829,6.861,6.8597,6.8254,6.8267,6.8324,6.8299,6.8206,6.8177,6.8313,6.8299,6.8296,6.8141,6.821,6.825,6.8308,6.8171,6.76,6.6904,6.6755,6.6799,6.7129,6.8397,7.1546,7.5495,7.6695,7.3958,6.9291,6.6459,6.682,6.7032,6.7063,6.7298,6.7159,6.7798,6.8543,6.8676,6.8505,6.8409,6.8508,6.8586,6.8594,6.859,6.8575,6.8622,6.8731,6.8793,6.8802,6.8701,6.8754,6.8832,6.8999,6.8936,6.8899,6.8992,6.9105,6.919,6.9195,6.9152,6.9241,6.9354,6.9471,6.9558,6.9498,6.9581,6.9689,6.9901,6.9961,6.9976,7.009,7.0227,7.0386,7.0508,7.053,7.0629,7.0816,7.1055,7.1174,7.1214,7.1207,7.1318,7.1583,7.1765,7.1748,7.1772,7.1828,7.1967,7.1976,7.1783,7.1558,7.1328,7.1157,7.0939,7.0584,7.0249,6.9965,6.9834,6.9647,6.9528,6.9185,6.9016,6.8935,6.8968,6.8814,6.8596,6.8503,6.8545,6.8594,6.8566,6.8437,6.8396,6.8495,6.8524,6.853,6.8388,6.841,6.8447,6.856,6.8593,6.8424,6.8395,6.844,6.8505,6.8591,6.8463,6.8492,6.8521,6.8585,6.8631,6.855,6.8483,6.8569,6.8651,6.8709,6.857,6.8559,6.8629,6.8629,6.8697,6.8698,6.8621,6.8625,6.8659,6.8658,6.862,6.8525,6.8503,6.8608,6.8697,6.8642,6.851,6.8456,6.8514,6.8617,6.8517,6.8451,6.8431,6.8493,6.8583,6.8536,6.8474,6.8434,6.847,6.8568,6.8584,6.853,6.8498,6.8469,6.8571,6.8582,6.8451,6.8398,6.8498,6.8576,6.8561,6.8504,6.844,6.8483,6.8514,6.8601,6.85,6.8436,6.8409,6.8444,6.8514,6.8383,6.836,6.8363,6.8453,6.8507,6.8404,6.833,6.8389,6.8421,6.8508,6.8504,6.8328,6.8253,6.8334,6.8417,6.841,6.8303,6.8207,6.8333,6.8439,6.852,6.839,6.8278,6.8421,6.8676,6.8593,6.8413,6.8514,6.9022,6.9261,6.939,6.9136,6.8806,6.8705,6.8758,6.8759,6.849,6.832,6.8098,6.8131,6.8164,6.8144,6.7999,6.8006,6.8151,6.8232,6.8075,6.7926,6.7939,6.801,6.8034,6.8071,6.7949,6.7183,6.6568,6.6607,6.6847,6.7904,7.0709,7.4857,7.67,7.4216,6.945,6.5887,6.6017,6.6424,6.656,6.6722,6.6669,6.6858,6.738,6.8231,6.8286,6.82,6.8124,6.8209,6.8283,6.8245,6.8123,6.8269,6.8337,6.8506,6.8418,6.8358,6.838,6.8525,6.8594,6.865,6.8534,6.8574,6.866,6.8844,6.8831,6.8757,6.8814,6.898,6.9097,6.9125,6.9094,6.9141,6.9301,6.9492,6.9524,6.9529,6.9642,6.9756,6.9885,6.9997,6.9989,7.0068,7.0273,7.0439,7.0659,7.0621,7.0733,7.0824,7.1057,7.1252,7.1218,7.1176,7.1348,7.1419,7.1495,7.1245,7.1149,7.1032,7.0908,7.0698,7.0373,6.9993,6.9731,6.9538,6.9367,6.9127,6.8854,6.8644,6.8565,6.8467,6.841,6.8132,6.8032,6.8091,6.8159,6.8101,6.7917,6.7929,6.7942,6.7985,6.7998,6.7877,6.7816,6.7868,6.8053,6.8004,6.7914,6.79,6.8015,6.815,6.8117,6.8048,6.7986,6.8057,6.8068,6.818,6.8198,6.8037,6.8046,6.8204,6.823,6.8173,6.8063,6.806,6.8142,6.8237,6.8212,6.8048,6.8045,6.8131,6.8215,6.8163,6.808,6.8059,6.8233,6.8242,6.821,6.8136,6.8052,6.8172,6.822,6.8206,6.8125,6.8092,6.8105,6.8227,6.8262,6.8157,6.8075,6.8126,6.8209,6.826,6.8109,6.8071,6.8114,6.8215,6.8263,6.8226,6.8171,6.8148,6.8193,6.8233,6.8181,6.8102,6.8132,6.8215,6.8364,6.8255,6.8149,6.8183,6.8227,6.834,6.8259,6.8159,6.8139,6.8215,6.8324,6.8331,6.822,6.8207,6.83,6.8429,6.8394,6.8263,6.8183,6.8348,6.862,6.8629,6.846,6.8639,6.8963,6.9283,6.9171,6.9019,6.8831,6.8691,6.8755,6.869,6.8513,6.8204,6.8144,6.8265,6.8369,6.8215,6.819,6.8176,6.8266,6.8319,6.8218,6.8165,6.8208,6.8289,6.833,6.8308,6.7958,6.7251,6.7042,6.7143,6.7648,6.939,7.3042,7.6735,7.6839,7.2192,6.7015,6.4756,6.5521,6.5976,6.6426,6.6811,6.6745,6.7054,6.7655,6.8519,6.867,6.8691,6.867,6.8793,6.8781,6.8828,6.8725,6.8914,6.8991,6.9124,6.9015,6.9036,6.9034,6.9256,6.9273,6.9271,6.9195,6.9273,6.9373,6.96,6.9566,6.9517,6.9616,6.9799,6.9946,6.9966,6.9912,7.0062,7.0159,7.0363,7.0373,7.0353,7.0407,7.0642,7.0867,7.0936,7.0942,7.1035,7.1169,7.1335,7.1497,7.1575,7.1616,7.1772,7.2004,7.2112,7.2067,7.2104,7.221,7.2242,7.2267,7.2046,7.1836,7.1624,7.1426,7.1278,7.1006,7.0566,7.0337,7.0172,7.0027,6.972,6.9519,6.9315,6.9251,6.9207,6.9087,6.8914,6.8902,6.8914,6.8933,6.8877,6.8781,6.8733,6.8825,6.8838,6.8897,6.8705,6.8691,6.8787,6.8886,6.8881,6.8772,6.8751,6.8857,6.8927,6.9001,6.8898,6.8833,6.8899,6.9008,6.9005,6.895,6.8915,6.8943,6.9021,6.9119,6.9033,6.8969,6.8981,6.9074,6.9131,6.9093,6.896,6.9024,6.904,6.9115,6.9053,6.8932,6.8936,6.903,6.9065,6.9012,6.8939,6.8949,6.8976,6.9072,6.907,6.8963,6.8921,6.9029,6.9091,6.9084,6.8974,6.8969,6.9057,6.9129,6.9144,6.9008,6.8963,6.9113,6.9165,6.9227,6.9148,6.8991,6.9052,6.9134,6.9214,6.9087,6.906,6.9091,6.9204,6.9241,6.9159,6.9056,6.9055,6.918,6.9247,6.9228,6.9095,6.9163,6.925,6.9292,6.9259,6.9142,6.9111,6.9226,6.932,6.9288,6.9138,6.9125,6.9241,6.9388,6.9396,6.9258,6.9273,6.9514,6.9549,6.9459,6.9452,6.985,7.0071,7.0306,7.0151,6.9813,6.9657,6.9581,6.9734,6.9626,6.9463,6.9175,6.9141,6.9166,6.923,6.9139,6.9075,6.9116,6.922,6.9177,6.9103,6.9019,6.9039,6.91,6.9217,6.9018,6.8308,6.7574,6.7652,6.7885,6.9115,7.189,7.5949,7.7901,7.5886,7.1328,6.7583,6.7552,6.7841,6.77,6.793,6.7869,6.8092,6.8685,6.9508,6.9583,6.9409,6.9327,6.9353,6.9456,6.9538,6.946,6.9445,6.9524,6.966,6.9726,6.9639,6.9599,6.9707,6.9843,6.9889,6.9858,6.9846,6.9844,6.9927,7.0058,7.0042,6.9983,7.0045,7.0167,7.0325,7.0334,7.0328,7.0397,7.0411,7.0696,7.0748,7.0724,7.0875,7.1035,7.1171,7.1251,7.1289,7.1327,7.154,7.1625,7.183,7.1774,7.1916,7.2062,7.2245,7.2334,7.2321,7.2274,7.239,7.2512,7.2347,7.2131,7.1995,7.1791,7.1598,7.1407,7.1057,7.0702,7.0462,7.0293,7.0175,6.991,6.9639,6.9518,6.9481,6.9443,6.9296,6.917,6.9097,6.9147,6.9173,6.9095,6.8997,6.8972,6.9025,6.9122,6.9093,6.9003,6.8904,6.9036,6.906,6.9107,6.8951,6.8989,6.9001,6.9166,6.9126,6.8993,6.8931,6.9054,6.9118,6.9162,6.9068,6.9006,6.9015,6.9152,6.9181,6.9125,6.9045,6.9094,6.9135,6.9202,6.9142,6.9078,6.9108,6.9152,6.9189,6.914,6.9014,6.9074,6.9106,6.9154,6.9139,6.9019,6.8992,6.9088,6.9164,6.9139,6.9021,6.8999,6.9106,6.9178,6.915,6.9048,6.9014,6.911,6.9218,6.9202,6.905,6.9017,6.9096,6.9156,6.9227,6.9132,6.9074,6.9093,6.9196,6.9218,6.914,6.9057,6.9121,6.9186,6.9232,6.9173,6.9076,6.9097,6.9206,6.9249,6.9121,6.9098,6.9112,6.9119,6.9211,6.9199,6.9048,6.9051,6.9141,6.9245,6.916,6.9071,6.9084,6.9158,6.9213,6.919,6.9094,6.9085,6.9182,6.9216,6.9241,6.9139,6.9127,6.9117,6.9224,6.9255,6.9133,6.9095,6.9198,6.936,6.9352,6.9209,6.9222,6.9407,6.9422,6.9385,6.9554,6.9877,7.0246,7.0212,7.0013,6.983,6.9592,6.9568,6.9648,6.9554,6.9408,6.9015,6.8991,6.9046,6.9177,6.9118,6.9007,6.9014,6.9061,6.9168,6.9082,6.8934,6.8949,6.9013,6.909,6.8746,6.7827,6.744,6.7549,6.8305,7.0176,7.3755,7.7089,7.7087,7.3552,6.8834,6.7203,6.7536,6.7564,6.7961,6.7986,6.8088,6.8426,6.9039,6.9478,6.9447,6.9336,6.9172,6.9248,6.9364,6.9483,6.9417,6.9367,6.9401,6.9536,6.9628,6.959,6.9518,6.9583,6.9704,6.984,6.9794,6.9697,6.9682,6.9852,6.994,7.0067,6.9955,6.9951,7.0136,7.0276,7.0342,7.031,7.0389,7.0579,7.0736,7.0814,7.0776,7.0846,7.1057,7.1145,7.1293,7.1337,7.1373,7.1548,7.1541,7.1884,7.1902,7.1932,7.2107,7.2297,7.2416,7.2388,7.235,7.2399,7.2493,7.2419,7.2211,7.1905,7.1742,7.1641,7.1447,7.1113,7.0807,7.0499,7.0397,7.0234,7.0058,6.9743,6.962,6.9599,6.9548,6.9399,6.9277,6.9197,6.9241,6.923,6.9275,6.9096,6.91,6.9148,6.9198,6.9176,6.9159,6.9035,6.9111,6.9204,6.9226,6.911,6.9028,6.9133,6.9208,6.9248,6.916,6.9129,6.9168,6.9304,6.9283,6.9224,6.9094,6.9212,6.9291,6.931,6.9295,6.9154,6.9155,6.9291,6.934,6.9257,6.9195,6.9173,6.9268,6.9306,6.9255,6.9149,6.9154,6.922,6.9274,6.9247,6.9163,6.9098,6.917,6.9193,6.9278,6.9123,6.9097,6.9151,6.9257,6.9305,6.9162,6.9108,6.9155,6.928,6.9318,6.9165,6.9139,6.9175,6.9233,6.937,6.9285,6.9187,6.9223,6.9276,6.9339,6.932,6.922,6.9192,6.9249,6.9343,6.9393,6.9241,6.9199,6.9296,6.9293,6.9261,6.915,6.9154,6.9201,6.9297,6.931,6.9169,6.9113,6.9204,6.9252,6.9265,6.921,6.9154,6.915,6.9235,6.9261,6.9132,6.9098,6.919,6.9225,6.9278,6.9239,6.9104,6.914,6.9205,6.9218,6.9153,6.9059,6.9138,6.9251,6.9275,6.9149,6.9101,6.9253,6.9264,6.927,6.9509,6.9747,7.0044,6.9921,6.9838,6.9704,6.9398,6.9399,6.9461,6.9393,6.9196,6.8873,6.8788,6.8859,6.8962,6.896,6.8764,6.8795,6.8823,6.8907,6.882,6.8675,6.8744,6.8756,6.88,6.8517,6.7624,6.7209,6.7256,6.8012,7.0089,7.3836,7.6913,7.6713,7.2727,6.796,6.6465,6.6949,6.689,6.7461,6.7613,6.7575,6.8112,6.8435,6.9068,6.9049,6.8931,6.8824,6.8871,6.8964,6.9088,6.9073,6.9018,6.9024,6.9166,6.9257,6.9236,6.914,6.9258,6.9364,6.9448,6.944,6.9388,6.9342,6.9423,6.9563,6.9678,6.9694,6.9671,6.9723,6.9891,7.0003,7.0011,6.9999,7.0171,7.0305,7.0443,7.045,7.048,7.0654,7.0856,7.1009,7.1048,7.105,7.1198,7.1359,7.1546,7.1575,7.163,7.1642,7.1826,7.1987,7.2073,7.1989,7.2015,7.2118,7.2064,7.1924,7.1548,7.1313,7.1123,7.1047,7.0758,7.0438,7.0137,6.9994,6.9858,6.9651,6.9389,6.9247,6.9178,6.917,6.9064,6.8874,6.8757,6.8813,6.8844,6.8852,6.8676,6.8681,6.8714,6.8739,6.8809,6.8815,6.8694,6.8615,6.874,6.8859,6.8823,6.8692,6.8728,6.8791,6.8849,6.8843,6.8705,6.8728,6.8798,6.889,6.8767,6.8741,6.8744,6.8801,6.8918,6.8877,6.8753,6.8716,6.8723,6.8806,6.8864,6.8788,6.8702,6.873,6.8851,6.8835,6.8662,6.8647,6.8691,6.876,6.8788,6.8739,6.8628,6.861,6.873,6.8744,6.8686,6.8637,6.8631,6.8689,6.8771,6.8686,6.8575,6.8635,6.8744,6.8801,6.8687,6.8664,6.872,6.8762,6.8821,6.8793,6.8695,6.8716,6.8791,6.8854,6.8845,6.8736,6.8706,6.8796,6.8841,6.8906,6.8747,6.8735,6.8837,6.8871,6.8886,6.8746,6.8737,6.8738,6.8887,6.8915,6.8883,6.8835,6.8744,6.8808,6.8856,6.8812,6.8737,6.8784,6.8828,6.8845,6.8778,6.8772,6.8859,6.8915,6.8996,6.8907,6.8871,6.8814,6.8925,6.9125,6.9092,6.8946,6.9099,6.9471,6.9806,6.9793,6.9583,6.9387,6.9273,6.9355,6.9293,6.9039,6.8881,6.8822,6.8876,6.882,6.877,6.8723,6.8713,6.8847,6.886,6.879,6.8759,6.877,6.8779,6.879,6.8685,6.8253,6.7575,6.7483,6.7585,6.8338,7.06,7.4738,7.7476,7.747,7.3825,6.8841,6.574,6.6089,6.6683,6.6951,6.7457,6.7314,6.7877,6.8537,6.9246,6.9051,6.9082,6.9101,6.9203,6.9098,6.9139,6.9097,6.9218,6.9306,6.9441,6.9313,6.9361,6.9412,6.9587,6.9585,6.9558,6.9473,6.9662,6.975,6.9886,6.9757,6.9857,6.9971,7.0121,7.0192,7.017,7.0181,7.0255,7.0368,7.057,7.0586,7.0553,7.0696,7.0873,7.1037,7.1032,7.1095,7.1197,7.1495,7.1645,7.1669,7.171,7.1836,7.1995,7.2167,7.2268,7.2249,7.2261,7.2368,7.2508,7.2479,7.2222,7.2102,7.1944,7.1776,7.1517,7.1119,7.0812,7.0603,7.0438,7.0244,6.9938,6.9719,6.9632,6.9599,6.9461,6.9338,6.9152,6.9148,6.9186,6.9186,6.9069,6.8976,6.9021,6.9068,6.9083,6.902,6.8917,6.9015,6.9046,6.9116,6.9059,6.8965,6.9012,6.9085,6.9162,6.917,6.9033,6.9046,6.9132,6.9249,6.9205,6.9116,6.9055,6.9179,6.9221,6.9197,6.9079,6.9134,6.913,6.9263,6.9216,6.9165,6.9099,6.9136,6.916,6.9252,6.921,6.915,6.915,6.9232,6.9256,6.9135,6.9038,6.9095,6.9164,6.9199,6.9113,6.9035,6.9079,6.9186,6.918,6.9144,6.9085,6.908,6.9181,6.9245,6.9188,6.9109,6.9075,6.9165,6.9302,6.9251,6.9103,6.9082,6.9161,6.9222,6.9243,6.9136,6.9075,6.9205,6.9299,6.9305,6.9178,6.9077,6.9137,6.9233,6.9289,6.9199,6.9127,6.9164,6.9275,6.9288,6.9208,6.9105,6.9162,6.9309,6.9291,6.9168,6.9121,6.9159,6.9212,6.9316,6.9262,6.9172,6.9184,6.9312,6.9404,6.9341,6.9245,6.941,6.949,6.9463,6.9482,6.9759,7.0098,7.0143,7.002,6.9824,6.9572,6.9514,6.9629,6.958,6.9496,6.9144,6.9067,6.9041,6.9144,6.9185,6.9077,6.8977,6.9027,6.9118,6.9137,6.9024,6.8983,6.9032,6.9055,6.8575,6.774,6.7527,6.7552,6.8039,6.961,7.2841,7.6678,7.7713,7.4775,6.9991,6.7084,6.7191,6.7412,6.7564,6.8108,6.7962,6.8402,6.9085,6.9512,6.9467,6.9439,6.9261,6.931,6.9355,6.9507,6.9524,6.9452,6.9455,6.957,6.9662,6.9759,6.965,6.9662,6.9742,6.9869,6.9912,6.9839,6.9872,6.9967,7.0146,7.0225,7.0196,7.0157,7.0232,7.041,7.0526,7.0528,7.0531,7.07,7.0845,7.0982,7.1009,7.0996,7.1145,7.135,7.1499,7.1559,7.1596,7.1756,7.1861,7.2043,7.2123,7.2142,7.2234,7.2354,7.2523,7.2524,7.2545,7.2523,7.2543,7.2517,7.2402,7.2041,7.1779,7.1615,7.142,7.1143,7.0795,7.0644,7.0477,7.0328,7.02,6.9976,6.977,6.9642,6.9707,6.9573,6.9468,6.9309,6.9347,6.9369,6.9376,6.9301,6.9196,6.9222,6.9278,6.9344,6.9317,6.9197,6.9204,6.9262,6.932,6.9321,6.9206,6.9208,6.9304,6.9333,6.9408,6.9232,6.9231,6.9308,6.9436,6.9395,6.9237,6.9288,6.9352,6.9369,6.9391,6.9295,6.9279,6.9288,6.939,6.942,6.9323,6.9251,6.9266,6.9325,6.9323,6.9237,6.9176,6.9207,6.9273,6.9297,6.9157,6.9157,6.9174,6.9212,6.9283,6.9239,6.9119,6.9076,6.9207,6.9257,6.9223,6.9148,6.9103,6.9165,6.9271,6.9213,6.9114,6.9124,6.9221,6.9303,6.9254,6.9114,6.9114,6.9172,6.9281,6.9245,6.9167,6.9101,6.915,6.9229,6.925,6.9147,6.9062,6.9101,6.9197,6.9201,6.9062,6.9065,6.9088,6.9168,6.9231,6.9147,6.9035,6.9041,6.9109,6.9196,6.91,6.9004,6.9008,6.9116,6.9193,6.9115,6.9037,6.9108,6.9221,6.9197,6.9213,6.9233,6.9208,6.9242,6.947,6.9672,6.9912,6.9965,6.9812,6.9734,6.958,6.9426,6.9416,6.9321,6.9232,6.9003,6.8852,6.879,6.89,6.8972,6.8946,6.8837,6.8759,6.8862,6.8904,6.8946,6.8827,6.8755,6.8693,6.8394,6.7662,6.7324,6.7268,6.8134,7.0431,7.4413,7.7185,7.6414,7.2411,6.7981,6.7092,6.7388,6.7159,6.728,6.7822,6.7868,6.8414,6.8998,6.9122,6.9176,6.9141,6.9176,6.9013,6.9092,6.917,6.9299,6.9262,6.9252,6.9268,6.9357,6.9369,6.9484,6.9435,6.9389,6.9437,6.9599,6.967,6.9627,6.9569,6.9709,6.9855,6.9893,6.9856,6.9855,6.9972,7.0144,7.0263,7.031,7.0322,7.0453,7.0609,7.0752,7.0807,7.0827,7.0888,7.1114,7.1321,7.141,7.1449,7.1589,7.1713,7.1842,7.197,7.1988,7.2049,7.2209,7.2311,7.2237,7.2249,7.2169,7.2133,7.209,7.192,7.1602,7.1207,7.1002,7.0797,7.0572,7.0273,6.9937,6.9813,6.9679,6.9556,6.9359,6.9157,6.9065,6.9147,6.9083,6.8908,6.8833,6.8825,6.8869,6.887,6.8833,6.8748,6.878,6.8801,6.888,6.8779,6.8665,6.8762,6.8841,6.8939,6.8846,6.8754,6.8791,6.8881,6.8938,6.8895,6.8799,6.8805,6.8863,6.896,6.8976,6.8896,6.8838,6.8923,6.9047,6.8978,6.8849,6.8835,6.8873,6.894,6.8982,6.8849,6.88,6.8833,6.8931,6.8932,6.8823,6.874,6.8748,6.8851,6.8862,6.8814,6.8727,6.8746,6.8858,6.8858,6.8764,6.8689,6.8667,6.8788,6.8858,6.8814,6.8677,6.8727,6.8833,6.8884,6.8864,6.878,6.8751,6.8807,6.8823,6.882,6.8727,6.8723,6.8775,6.889,6.8836,6.8721,6.8687,6.8774,6.8901,6.8842,6.8721,6.8686,6.8699,6.8778,6.8876,6.8797,6.862,6.8685,6.879,6.8831,6.8755,6.8659,6.8696,6.8783,6.8832,6.8739,6.8689,6.8802,6.8846,6.8873,6.88,6.8879,6.8904,6.8865,6.8976,6.9303,6.9604,6.958,6.9501,6.9397,6.9223,6.9065,6.9043,6.8965,6.8921,6.8622,6.8503,6.8476,6.8542,6.863,6.8625,6.8607,6.8487,6.8501,6.861,6.8617,6.8515,6.8453,6.8474,6.8202,6.7458,6.7034,6.7021,6.7788,6.9856,7.3712,7.6748,7.6424,7.2473,6.7844,6.6643,6.675,6.6872,6.687,6.7579,6.7537,6.7976,6.8576,6.8858,6.8984,6.8899,6.8928,6.8739,6.8841,6.8903,6.9092,6.9026,6.8976,6.8967,6.9065,6.9165,6.9322,6.9177,6.9247,6.9281,6.9444,6.94,6.9365,6.9334,6.9509,6.9655,6.9777,6.9655,6.9706,6.981,6.9969,7.008,7.0036,7.0077,7.0213,7.0414,7.054,7.0604,7.062,7.0744,7.0943,7.114,7.1217,7.1184,7.1321,7.1504,7.1711,7.175,7.1758,7.1876,7.2061,7.2206,7.2177,7.2103,7.2036,7.1968,7.1964,7.1679,7.1302,7.1005,7.0786,7.0565,7.0354,6.9923,6.9645,6.9532,6.9413,6.9296,6.8999,6.8851,6.8789,6.8831,6.877,6.8715,6.8536,6.8489,6.8553,6.859,6.8505,6.8407,6.8371,6.8456,6.8478,6.8534,6.8356,6.8384,6.843,6.8511,6.8439,6.8308,6.8353,6.8439,6.849,6.8499,6.8368,6.8417,6.8465,6.8544,6.8486,6.8354,6.8334,6.8441,6.8535,6.8503,6.8321,6.8317,6.8309,6.8398,6.8448,6.8348,6.822,6.826,6.8372,6.8404,6.8322,6.8226,6.8217,6.8314,6.8303,6.8207,6.8124,6.8151,6.8284,6.8304,6.821,6.8073,6.806,6.8198,6.8317,6.816,6.8082,6.8069,6.817,6.8222,6.8249,6.8105,6.809,6.8168,6.8234,6.8184,6.8033,6.8059,6.8191,6.8234,6.8221,6.8072,6.8072,6.8134,6.8189,6.8199,6.8105,6.8057,6.8128,6.8223,6.815,6.8101,6.8039,6.8062,6.8103,6.8203,6.8038,6.7962,6.8057,6.8182,6.8198,6.8078,6.8086,6.8139,6.8195,6.8227,6.8164,6.8173,6.8214,6.8237,6.8468,6.8791,6.8878,6.8868,6.8823,6.8694,6.8567,6.8445,6.8387,6.8286,6.8155,6.8056,6.7918,6.7891,6.8002,6.805,6.8085,6.7913,6.7897,6.7929,6.8054,6.8046,6.7915,6.7964,6.79,6.7413,6.6809,6.6704,6.6869,6.8272,7.1476,7.5676,7.6998,7.5983,7.1142,6.6348,6.5027,6.5564,6.565,6.6025,6.6638,6.6532,6.7172,6.7659,6.8365,6.8297,6.8454,6.8197,6.8273,6.8154,6.8335,6.8399,6.8545,6.839,6.8412,6.8472,6.8693,6.8678,6.8664,6.8583,6.8723,6.8814,6.8936,6.8786,6.894,6.9052,6.9161,6.9205,6.9188,6.9169,6.9325,6.9538,6.9632,6.9568,6.9548,6.9659,6.9851,7.0012,7.0126,7.015,7.028,7.0471,7.0558,7.07,7.073,7.0863,7.1063,7.118,7.13,7.1284,7.1408,7.1549,7.1693,7.1734,7.1587,7.1496,7.1444,7.1349,7.1095,7.0719,7.0342,7.0131,6.9922,6.9729,6.9322,6.9106,6.8919,6.882,6.8613,6.8428,6.8362,6.8244,6.8291,6.8238,6.8081,6.8002,6.801,6.8074,6.8084,6.8064,6.7917,6.8003,6.8027,6.8117,6.7972,6.7996,6.8011,6.819,6.8251,6.8145,6.8042,6.8069,6.8092,6.8226,6.8234,6.8156,6.8097,6.8253,6.8278,6.8314,6.815,6.8175,6.8215,6.8269,6.8206,6.8175,6.8102,6.8235,6.8259,6.8321,6.8154,6.808,6.8129,6.8247,6.8258,6.8215,6.8097,6.8111,6.817,6.8285,6.815,6.8106,6.8154,6.8193,6.8249,6.8137,6.8054,6.8176,6.8194,6.8246,6.8254,6.8133,6.8155,6.8258,6.8301,6.8242,6.8129,6.8136,6.8243,6.8322,6.8327,6.8299,6.8328,6.8369,6.8471,6.8539,6.8433,6.8385,6.8491,6.8905,6.9141,6.9142,6.9027,6.8959,6.8877,6.8785,6.867,6.8543,6.8432,6.8321,6.8377,6.8273,6.8237,6.8212,6.8321,6.8359,6.8262,6.8222,6.8245,6.8306,6.8363,6.8298,6.8226,6.8031,6.7567,6.7211,6.72,6.7506,6.9271,7.2819,7.6775,7.728,7.2796,6.7672,6.4908,6.5331,6.5883,6.5806,6.6447,6.6701,6.7014,6.7564,6.8302,6.8678,6.8785,6.8762,6.881,6.8659,6.8777,6.8831,6.8979,6.8964,6.8951,6.8946,6.9079,6.9097,6.9244,6.9187,6.9212,6.9242,6.9402,6.9514,6.9545,6.9401,6.9562,6.9716,6.9825,6.9879,6.9855,6.9928,7.0134,7.0226,7.0279,7.0318,7.0399,7.0523,7.0771,7.0876,7.0889,7.0999,7.1198,7.1381,7.1531,7.1563,7.1686,7.1885,7.21,7.2182,7.2146,7.224,7.2389,7.2495,7.2447,7.2181,7.2121,7.2012,7.1847,7.1572,7.1094,7.0711,7.0453,7.0362,7.0095,6.9789,6.9531,6.9378,6.9269,6.9229,6.904,6.8875,6.8857,6.8877,6.8883,6.8858,6.8693,6.8686,6.8725,6.8808,6.878,6.8622,6.8639,6.871,6.8762,6.8785,6.8708,6.8694,6.8749,6.8883,6.8859,6.8746,6.873,6.8855,6.889,6.8912,6.8851,6.8868,6.8875,6.8944,6.8988,6.8878,6.8818,6.8889,6.8987,6.903,6.8925,6.8881,6.8964,6.8963,6.9004,6.8919,6.8848,6.8917,6.8986,6.9002,6.8916,6.8812,6.8798,6.8898,6.8982,6.8955,6.8808,6.8823,6.888,6.8984,6.894,6.882,6.8837,6.8896,6.8965,6.8962,6.8842,6.8836,6.8874,6.8945,6.8975,6.8918,6.8815,6.8862,6.8991,6.9028,6.8873,6.8865,6.8907,6.8969,6.9012,6.8916,6.8853,6.8954,6.902,6.9044,6.9033,6.8992,6.9011,6.9105,6.9163,6.9187,6.9176,6.9102,6.9269,6.969,6.981,6.9832,6.9746,6.9598,6.9468,6.9453,6.9317,6.9196,6.9155,6.9074,6.8918,6.8837,6.8794,6.8923,6.8976,6.8959,6.8837,6.8819,6.8919,6.8936,6.8949,6.8817,6.8773,6.8355,6.7674,6.7481,6.7444,6.8384,7.0874,7.2895,7.6788,7.794,7.4873,7.0095,6.698,6.7297,6.7311,6.7349,6.7822,6.7883,6.8394,6.9106,6.9247,6.9294,6.928,6.9363,6.9272,6.9256,6.924,6.943,6.9426,6.9571,6.9398,6.9473,6.9534,6.9709,6.967,6.9676,6.9619,6.9711,6.9826,6.9879,6.9824,6.9873,7.0004,7.013,7.016,7.0151,7.0181
