8.6357,8.6299,8.6264,8.625,8.624,8.6229,8.624,8.6246,8.6223,8.6229,8.6163,8.6146,8.6181,8.6171,8.6112,8.6178,8.6278,8.6403,8.6377,8.6348,8.6379,8.6433,8.6464,8.6457,8.6428,8.6454,8.6579,8.6537,8.6694,8.6697,8.6718,8.6774,8.6638,8.6581,8.6456,8.6308,8.6274,8.6159,8.6128,8.6016,8.5956,8.6015,8.603,8.6012,8.5985,8.6025,8.6035,8.6116,8.6089,8.6099,8.6131,8.5979,8.5907,8.6178,8.7254,8.8575,9.0704,9.2984,9.393,9.3969,9.3374,9.1458,8.9452,8.8492,8.7246,8.7072,8.6942,8.6691,8.6636,8.6447,8.645,8.6416,8.6426,8.6405,8.6465,8.6444,8.6495,8.6458,8.6424,8.647,8.6597,8.6575,8.6639,8.6599,8.6698,8.6734,8.6698,8.6694,8.6805,8.683,8.6872,8.6827,8.6902,8.6951,8.6978,8.6904,8.7015,8.7051,8.7113,8.7095,8.7238,8.7213,8.7257,8.7305,8.7303,8.7335,8.7408,8.7443,8.7463,8.7555,8.7596,8.7644,8.7621,8.7651,8.7663,8.7751,8.7783,8.7793,8.7821,8.7817,8.7859,8.7996,8.8054,8.8038,8.8052,8.8022,8.8066,8.7992,8.8001,8.786,8.7775,8.768,8.7564,8.7464,8.7441,8.7407,8.7353,8.7314,8.7277,8.7251,8.7233,8.7186,8.727,8.7227,8.7234,8.72,8.7262,8.737,8.7318,8.7495,8.7393,8.7454,8.7461,8.7469,8.747,8.7443,8.7428,8.738,8.7407,8.7383,8.7338,8.7319,8.7345,8.7365,8.7304,8.739,8.7294,8.7327,8.7206,8.7173,8.716,8.7138,8.7159,8.7195,8.7115,8.7186,8.7117,8.7129,8.7154,8.7144,8.7151,8.7185,8.7217,8.7284,8.7279,8.7327,8.7346,8.7289,8.7361,8.736,8.7377,8.7476,8.7527,8.7634,8.7653,8.7659,8.7664,8.7623,8.7447,8.7338,8.7269,8.7095,8.7097,8.6995,8.6822,8.6694,8.672,8.6734,8.6644,8.6688,8.6611,8.6665,8.6668,8.6655,8.6627,8.6659,8.6569,8.6445,8.6508,8.7067,8.79,8.919,9.1263,9.3241,9.4155,9.4213,9.3435,9.1623,8.9572,8.7759,8.7045,8.7093,8.6974,8.6931,8.6877,8.6787,8.67,8.6611,8.6653,8.6592,8.6602,8.6554,8.6605,8.6669,8.6655,8.6698,8.6788,8.6785,8.6826,8.6883,8.6801,8.688,8.6846,8.6882,8.6842,8.684,8.6869,8.6874,8.6942,8.6938,8.6972,8.692,8.6934,8.6936,8.7004,8.7033,8.7019,8.7044,8.7107,8.7112,8.7169,8.7204,8.721,8.7201,8.728,8.7236,8.7318,8.732,8.738,8.743,8.7476,8.7482,8.7521,8.758,8.7582,8.7627,8.7573,8.7652,8.7706,8.7734,8.7771,8.7707,8.7743,8.7708,8.7634,8.7544,8.7481,8.7414,8.7287,8.7229,8.7105,8.7087,8.7103,8.7017,8.6984,8.702,8.7009,8.6973,8.6954,8.6944,8.6982,8.7019,8.6942,8.6931,8.6945,8.7035,8.707,8.7073,8.7138,8.7118,8.7121,8.7111,8.7069,8.707,8.7077,8.7111,8.7034,8.706,8.705,8.7018,8.7007,8.7049,8.7063,8.7088,8.7072,8.7026,8.7022,8.7016,8.6989,8.7008,8.701,8.6944,8.6982,8.6888,8.6892,8.6857,8.6834,8.6882,8.6916,8.6953,8.691,8.6946,8.6977,8.7003,8.6993,8.7019,8.702,8.7107,8.7124,8.7205,8.7336,8.7292,8.7348,8.731,8.7236,8.7031,8.7001,8.6881,8.6841,8.6759,8.6663,8.6547,8.6547,8.6546,8.6511,8.6574,8.6506,8.6512,8.6482,8.6489,8.6496,8.6517,8.6448,8.6246,8.6511,8.7149,8.8255,8.9004,9.106,9.3194,9.4177,9.4316,9.3648,9.1902,8.9774,8.7981,8.7215,8.7224,8.6944,8.6843,8.6692,8.6666,8.6524,8.6505,8.641,8.6472,8.6386,8.6464,8.6363,8.6429,8.636,8.6433,8.6454,8.6507,8.6504,8.6505,8.6497,8.6563,8.6551,8.6566,8.6556,8.651,8.6578,8.6632,8.6654,8.67,8.6707,8.6751,8.6754,8.6787,8.6827,8.6931,8.693,8.6936,8.7017,8.7022,8.7063,8.7062,8.714,8.7185,8.7233,8.7298,8.7338,8.7287,8.7327,8.7356,8.7403,8.7436,8.7465,8.7455,8.7527,8.7523,8.7536,8.7663,8.7668,8.7634,8.7765,8.7722,8.7611,8.7593,8.7491,8.743,8.737,8.7329,8.7248,8.7229,8.7103,8.7051,8.7047,8.6969,8.7073,8.7058,8.711,8.7111,8.7042,8.7062,8.7059,8.7082,8.7096,8.7192,8.7147,8.7152,8.721,8.7147,8.7145,8.7164,8.7125,8.7142,8.7138,8.7137,8.7205,8.7157,8.7101,8.709,8.7142,8.7108,8.7111,8.7126,8.711,8.7034,8.7087,8.7066,8.7028,8.7083,8.6967,8.6951,8.6965,8.6923,8.6894,8.684,8.6838,8.6832,8.6798,8.6739,8.6712,8.6696,8.6712,8.6647,8.6673,8.6617,8.665,8.681,8.6888,8.6818,8.6868,8.6881,8.6886,8.6935,8.6829,8.6869,8.6899,8.6944,8.7137,8.7254,8.7279,8.727,8.7227,8.7144,8.7048,8.7009,8.6925,8.684,8.6717,8.666,8.6629,8.6572,8.6575,8.6553,8.65,8.6482,8.6476,8.6506,8.6539,8.6497,8.6531,8.6344,8.6305,8.6744,8.755,8.8016,8.9392,9.1662,9.3643,9.4287,9.4246,9.3342,9.134,8.934,8.7765,8.7518,8.7227,8.705,8.6936,8.6869,8.6849,8.6693,8.6664,8.6632,8.6611,8.6677,8.6615,8.6651,8.6617,8.6638,8.6656,8.6681,8.6688,8.669,8.6703,8.668,8.6718,8.6778,8.6793,8.6776,8.6803,8.6849,8.6887,8.693,8.699,8.6947,8.6985,8.6994,8.6983,8.7081,8.7055,8.7079,8.7125,8.7169,8.7235,8.7297,8.733,8.7369,8.7399,8.7436,8.7462,8.7467,8.7454,8.7528,8.7543,8.7576,8.7649,8.762,8.7655,8.7683,8.7745,8.7752,8.7761,8.7786,8.7792,8.7826,8.7856,8.7757,8.7698,8.7676,8.764,8.7576,8.7432,8.7382,8.7269,8.7134,8.7114,8.7053,8.7016,8.7011,8.698,8.6966,8.6977,8.7003,8.6951,8.6994,8.6985,8.6967,8.708,8.7056,8.7076,8.7052,8.7077,8.7046,8.7112,8.7071,8.7151,8.706,8.7083,8.7111,8.7029,8.7039,8.7082,8.7057,8.7079,8.7056,8.7056,8.7018,8.6977,8.6988,8.6947,8.6973,8.6976,8.702,8.6957,8.6997,8.6973,8.6932,8.7033,8.6946,8.6984,8.6992,8.6924,8.6961,8.6944,8.6899,8.6819,8.686,8.6855,8.6923,8.6917,8.7089,8.7098,8.7118,8.7084,8.7151,8.7066,8.7114,8.717,8.7248,8.7305,8.7433,8.7539,8.7582,8.7511,8.7485,8.7431,8.7333,8.7209,8.7122,8.7015,8.6916,8.6771,8.6627,8.6704,8.6661,8.6659,8.6619,8.6585,8.6664,8.672,8.6614,8.6606,8.6629,8.6477,8.6464,8.663,8.711,8.7976,8.9458,9.1483,9.3303,9.4035,9.3983,9.2908,9.1177,8.928,8.7593,8.7242,8.7236,8.7185,8.7036,8.7084,8.6968,8.689,8.6916,8.6887,8.6903,8.6952,8.6834,8.6971,8.6941,8.6966,8.6981,8.6941,8.6952,8.6938,8.6962,8.6916,8.6906,8.6947,8.6951,8.698,8.6983,8.6959,8.6978,8.6958,8.6974,8.7008,8.6978,8.6992,8.7098,8.7064,8.7113,8.7099,8.7185,8.7241,8.729,8.7325,8.738,8.7463,8.7513,8.7465,8.7516,8.7583,8.7663,8.7676,8.7625,8.7749,8.7754,8.7732,8.7727,8.7756,8.7764,8.7868,8.7843,8.7919,8.7894,8.7866,8.7853,8.7813,8.7678,8.7596,8.7606,8.7522,8.7455,8.7318,8.7201,8.7166,8.6921,8.6941,8.6919,8.6913,8.6916,8.6879,8.6797,8.6828,8.6832,8.6815,8.6836,8.6807,8.681,8.6824,8.6868,8.6886,8.6873,8.6776,8.6851,8.683,8.6814,8.6799,8.6795,8.6804,8.6781,8.6707,8.6748,8.6697,8.6716,8.6664,8.659,8.6661,8.665,8.6565,8.6524,8.6481,8.6478,8.6449,8.6391,8.6323,8.6299,8.6257,8.6206,8.6192,8.6129,8.6027,8.6003,8.6048,8.6053,8.5945,8.5981,8.6046,8.6108,8.608,8.6094,8.6045,8.6055,8.6072,8.6075,8.6049,8.6097,8.6179,8.6237,8.6334,8.6293,8.6311,8.6241,8.6143,8.6039,8.5863,8.5833,8.5786,8.5696,8.5541,8.5539,8.5562,8.5525,8.5543,8.5549,8.5494,8.5537,8.5513,8.5521,8.5501,8.5506,8.5368,8.5179,8.5635,8.6267,8.678,8.8222,9.029,9.2068,9.2922,9.3,9.223,9.0498,8.8426,8.6589,8.6045,8.6088,8.6043,8.5954,8.5821,8.5722,8.5704,8.5655,8.5641,8.5639,8.5677,8.568,8.5674,8.5668,8.5803,8.5771,8.5757,8.5761,8.5871,8.5882,8.5845,8.5848,8.5863,8.5929,8.5957,8.5997,8.6045,8.6187,8.6196,8.6153,8.6231,8.6283,8.6339,8.6355,8.6489,8.6541,8.6575,8.6587,8.6628,8.6663,8.6669,8.6765,8.6731,8.6787,8.6891,8.6926,8.6925,8.6953,8.698,8.697,8.6983,8.7006,8.699,8.7054,8.7067,8.707,8.7083,8.7181,8.7183,8.7222,8.7248,8.7264,8.7188,8.7177,8.7063,8.6937,8.6935,8.6838,8.6748,8.6714,8.6627,8.6582,8.6522,8.6451,8.6527,8.6496,8.6456,8.6436,8.6519,8.6473,8.6478,8.6511,8.6535,8.6538,8.6479,8.6494,8.6517,8.6494,8.6509,8.6543,8.6542,8.655,8.6563,8.6528,8.6532,8.6542,8.6454,8.6523,8.6452,8.6501,8.6457,8.643,8.6417,8.6377,8.6386,8.6386,8.6316,8.6352,8.6297,8.6277,8.6275,8.6247,8.6229,8.6207,8.6218,8.612,8.6209,8.6134,8.6148,8.6202,8.6188,8.6186,8.6138,8.6129,8.6122,8.6196,8.6212,8.6147,8.6158,8.614,8.6198,8.6259,8.6393,8.6281,8.6294,8.6298,8.6338,8.628,8.6249,8.6296,8.643,8.6491,8.6652,8.6673,8.6588,8.664,8.664,8.6568,8.6328,8.6336,8.6208,8.6106,8.5956,8.5897,8.5848,8.5837,8.5852,8.5795,8.581,8.5791,8.5815,8.5842,8.586,8.5876,8.5914,8.5779,8.5642,8.6039,8.6771,8.7967,8.9937,9.2002,9.3439,9.3707,9.3419,9.1916,8.9975,8.8056,8.6963,8.697,8.6638,8.6526,8.6441,8.6303,8.6286,8.6202,8.6138,8.6124,8.6141,8.6125,8.6089,8.6042,8.6094,8.6152,8.616,8.6168,8.6196,8.6224,8.6191,8.6276,8.6247,8.625,8.6255,8.6295,8.6346,8.6411,8.6437,8.6497,8.6544,8.6529,8.6551,8.6576,8.6582,8.6664,8.6651,8.6738,8.6752,8.6786,8.6853,8.6802,8.6819,8.6927,8.7022,8.7024,8.7106,8.7135,8.7111,8.7123,8.7138,8.717,8.7211,8.7281,8.7301,8.7329,8.7344,8.7411,8.7493,8.7497,8.7484,8.7525,8.7512,8.7533,8.7466,8.7382,8.7348,8.7194,8.7116,8.7063,8.6951,8.6878,8.6833,8.6811,8.679,8.6813,8.6777,8.6757,8.6745,8.6739,8.6778,8.6757,8.6851,8.6824,8.6825,8.6853,8.6912,8.6879,8.6855,8.688,8.6881,8.6932,8.6949,8.6876,8.6885,8.6909,8.6918,8.6918,8.6898,8.6912,8.6816,8.6855,8.6901,8.6818,8.6781,8.6812,8.6817,8.6777,8.675,8.6727,8.6725,8.6684,8.6698,8.6681,8.6646,8.664,8.6611,8.6589,8.6559,8.6538,8.6551,8.6594,8.6602,8.6488,8.6551,8.6559,8.654,8.6553,8.6518,8.6557,8.6522,8.6528,8.6533,8.6492,8.6506,8.665,8.6713,8.676,8.6827,8.6806,8.6771,8.6766,8.6796,8.6819,8.6796,8.6816,8.6854,8.6937,8.705,8.7141,8.7098,8.7091,8.7109,8.6899,8.6726,8.671,8.6601,8.6532,8.6398,8.6267,8.6269,8.6223,8.6246,8.6171,8.6198,8.6243,8.6237,8.6222,8.6216,8.6204,8.617,8.6009,8.6159,8.6671,8.7047,8.814,8.9881,9.2041,9.3642,9.3998,9.3758,9.2481,9.0615,8.8584,8.7224,8.7133,8.6935,8.679,8.669,8.6651,8.6561,8.6468,8.6475,8.6414,8.6372,8.6381,8.6397,8.6407,8.645,8.6426,8.6449,8.6444,8.6494,8.6518,8.6552,8.66,8.661,8.6623,8.6629,8.669,8.6696,8.6735,8.6722,8.6753,8.6792,8.6797,8.6831,8.6845,8.6873,8.6953,8.7087,8.7097,8.711,8.7133,8.7216,8.728,8.7276,8.732,8.7355,8.7453,8.7468,8.7479,8.7534,8.7608,8.7572,8.7576,8.768,8.7694,8.768,8.775,8.7787,8.7826,8.7816,8.786,8.7926,8.7842,8.7879,8.7813,8.7799,8.7576,8.7565,8.7508,8.7436,8.7345,8.7209,8.7117,8.7106,8.7063,8.6999,8.6942,8.6916,8.6979,8.6983,8.6955,8.703,8.7063,8.7051,8.7073,8.7076,8.7093,8.7115,8.7096,8.7141,8.7123,8.7245,8.7165,8.7238,8.7214,8.7173,8.7219,8.7232,8.7181,8.7041,8.7186,8.7062,8.7191,8.7198,8.7091,8.7153,8.715,8.7024,8.7114,8.7056,8.708,8.708,8.7072,8.7063,8.7033,8.7107,8.7103,8.7135,8.7102,8.7084,8.706,8.708,8.706,8.7054,8.7,8.702,8.6975,8.695,8.6969,8.6991,8.6954,8.6807,8.682,8.6891,8.6958,8.7026,8.7059,8.709,8.7037,8.7065,8.6975,8.6958,8.6991,8.7011,8.7036,8.7164,8.7248,8.7275,8.7294,8.7258,8.717,8.7063,8.6914,8.6822,8.681,8.675,8.6653,8.6548,8.6602,8.6555,8.6589,8.6544,8.654,8.6482,8.6441,8.6446,8.6489,8.6512,8.6332,8.6244,8.6617,8.7289,8.8362,9.012,9.2146,9.353,9.3973,9.3727,9.2218,9.046,8.8481,8.7041,8.6989,8.6999,8.6997,8.6868,8.6699,8.653,8.6488,8.6516,8.6538,8.645,8.6449,8.6441,8.6509,8.6541,8.654,8.6564,8.6528,8.6541,8.6619,8.662,8.6581,8.6554,8.6539,8.652,8.6554,8.6595,8.665,8.6634,8.6626,8.6597,8.6667,8.6718,8.6679,8.6715,8.679,8.6741,8.6802,8.6835,8.6874,8.6879,8.6968,8.6943,8.7065,8.7092,8.7062,8.7169,8.7184,8.7168,8.7184,8.7231,8.7231,8.7217,8.7265,8.7309,8.7281,8.7331,8.7364,8.742,8.7333,8.7361,8.7394,8.7393,8.7345,8.7295,8.7144,8.7116,8.6962,8.6837,8.6751,8.6642,8.6606,8.6489,8.6454,8.6388,8.6413,8.6371,8.6322,8.6329,8.6362,8.6398,8.6325,8.6361,8.6451,8.6427,8.6463,8.6385,8.6464,8.6448,8.6463,8.6523,8.6475,8.6547,8.6456,8.6507,8.6516,8.6479,8.6517,8.6582,8.6528,8.6477,8.656,8.6605,8.658,8.6572,8.6564,8.6619,8.6533,8.6518,8.6528,8.6581,8.6519,8.6562,8.6515,8.6493,8.6467,8.6453,8.6503,8.6512,8.6444,8.6496,8.642,8.6415,8.6462,8.6494,8.6509,8.6571,8.6661,8.6653,8.6676,8.6657,8.6746,8.6715,8.6753,8.6775,8.6757,8.6878,8.6968,8.7065,8.7013,8.7005,8.7037,8.6888,8.6806,8.6718,8.6646,8.6632,8.6461,8.6461,8.6411,8.6388,8.6349,8.6395,8.6342,8.634,8.6357,8.6343,8.6368,8.6277,8.6291,8.6115,8.6104,8.6616,8.7399,8.8573,9.0493,9.2531,9.3733,9.3963,9.3549,9.1901,8.9983,8.8062,8.7303,8.7138,8.696,8.6908,8.6785,8.6744,8.6662,8.6541,8.6566,8.6572,8.6531,8.6534,8.6538,8.6617,8.6567,8.6609,8.6613,8.6669,8.6639,8.6648,8.6618,8.6759,8.6681,8.6763,8.6753,8.6768,8.6817,8.6823,8.6948,8.6949,8.6952,8.701,8.7035,8.7065,8.7131,8.7161,8.7245,8.7293,8.7269,8.7365,8.739,8.7441,8.7514,8.755,8.7616,8.7627,8.7628,8.7649,8.7721,8.7708,8.7709,8.7716,8.7745,8.775,8.7726,8.7712,8.7804,8.7836,8.7911,8.7908,8.7886,8.794,8.7889,8.7861,8.78,8.7753,8.764,8.7538,8.7394,8.7304,8.723,8.7154,8.708,8.7076,8.7073,8.7128,8.7121,8.7072,8.7079,8.7108,8.7021,8.7081,8.7121,8.7109,8.7131,8.7132,8.7141,8.7113,8.7143,8.712,8.7168,8.7138,8.7127,8.7098,8.7136,8.7072,8.7083,8.7053,8.6994,8.6986,8.7048,8.6996,8.7021,8.7003,8.7018,8.6973,8.6962,8.6961,8.7003,8.6892,8.684,8.6832,8.6871,8.683,8.6832,8.6866,8.6857,8.6789,8.6809,8.6803,8.6764,8.6813,8.6733,8.6752,8.6752,8.6738,8.6683,8.6658,8.6691,8.6696,8.681,8.6943,8.6925,8.6897,8.6971,8.6863,8.6942,8.6924,8.6881,8.6947,8.6997,8.7027,8.7166,8.723,8.7175,8.7183,8.7168,8.7026,8.6909,8.6884,8.6696,8.6661,8.6605,8.6578,8.6505,8.6518,8.6526,8.6491,8.6507,8.6502,8.6503,8.6472,8.6506,8.6533,8.6535,8.6312,8.6508,8.7127,8.804,8.9487,9.1589,9.3602,9.4057,9.4298,9.4056,9.2454,9.0443,8.8514,8.7505,8.7415,8.7145,8.701,8.69,8.6795,8.6744,8.6703,8.6646,8.6697,8.6648,8.6665,8.6707,8.6705,8.6672,8.668,8.6768,8.684,8.6739,8.6734,8.6786,8.6786,8.6817,8.6828,8.6928,8.6927,8.692,8.6899,8.698,8.7015,8.704,8.7082,8.709,8.713,8.7206,8.7276,8.7322,8.7288,8.7382,8.7447,8.7468,8.7491,8.7615,8.7638,8.7607,8.7679,8.7685,8.775,8.778,8.7805,8.7754,8.7757,8.7823,8.7869,8.7884,8.7958,8.7937,8.8011,8.8039,8.8062,8.8088,8.8064,8.8099,8.809,8.8008,8.7923,8.7827,8.7735,8.7644,8.7594,8.7491,8.7395,8.7394,8.7336,8.733,8.731,8.724,8.7203,8.7226,8.7228,8.7304,8.7319,8.7239,8.7241,8.7277,8.732,8.7248,8.7243,8.728,8.7296,8.7222,8.7257,8.7305,8.7295,8.7249,8.7191,8.7197,8.72,8.7232,8.716,8.7143,8.7136,8.7125,8.7132,8.713,8.7115,8.7154,8.7081,8.7068,8.7069,8.7045,8.7054,8.7055,8.6965,8.7033,8.7069,8.7074,8.706,8.7036,8.7125,8.7094,8.7092,8.7087,8.7058,8.7083,8.7172,8.7267,8.7267,8.723,8.7222,8.7221,8.7285,8.7256,8.7276,8.7349,8.7447,8.745,8.7623,8.7704,8.7686,8.7715,8.7591,8.7527,8.7339,8.7204,8.7174,8.7161,8.7064,8.7043,8.6928,8.6929,8.6895,8.6951,8.6953,8.7014,8.7023,8.706,8.7096,8.7108,8.7056,8.6994,8.7282,8.7796,8.8776,9.0448,9.1548,9.345,9.4483,9.453,9.39,9.2097,9.0247,8.8369,8.7684,8.765,8.7643,8.7483,8.7454,8.7353,8.7309,8.7245,8.7246,8.7165,8.7252,8.7183,8.7315,8.7286,8.726,8.7324,8.7413,8.73,8.7335,8.7309,8.7336,8.7393,8.7377,8.7408,8.7407,8.7347,8.7387,8.7373,8.7398,8.7469,8.7371,8.7453,8.7479,8.7511,8.7601,8.7565,8.7632,8.7673,8.7655,8.7768,8.7759,8.7826,8.7868,8.7902,8.7943,8.7967,8.8091,8.8161,8.8125,8.8143,8.8108,8.807,8.8135,8.8175,8.8233,8.8179,8.8181,8.8234,8.821,8.8289,8.8279,8.8259,8.8127,8.8071,8.7915,8.7864,8.7751,8.7643,8.7466,8.7402,8.7338,8.726,8.72,8.7139,8.7143,8.7078,8.7091,8.7015,8.7053,8.6985,8.7049,8.7027,8.6996,8.698,8.6949,8.6957,8.6939,8.6954,8.6938,8.6919,8.6868,8.6846,8.6916,8.6859,8.6871,8.6801,8.6769,8.6823,8.6795,8.6735,8.6699,8.6676,8.6632,8.6589,8.6488,8.6489,8.6399,8.6389,8.6309,8.6302,8.6262,8.6255,8.6272,8.6204,8.6164,8.6205,8.6144,8.6231,8.6329,8.6374,8.6375,8.631,8.6351,8.6355,8.6385,8.6352,8.6337,8.6339,8.6433,8.6508,8.6579,8.66,8.6576,8.6602,8.6419,8.6291,8.613,8.6108,8.6064,8.6023,8.5867,8.581,8.5805,8.5808,8.5821,8.5847,8.5886,8.5887,8.5928,8.5969,8.6021,8.6008,8.5916,8.5798,8.611,8.67,8.7776,8.9395,9.1537,9.3146,9.373,9.3604,9.235,9.0542,8.9366,8.7595,8.6673,8.6759,8.6606,8.6614,8.6515,8.6492,8.6373,8.6385,8.6328,8.6315,8.6283,8.6336,8.6337,8.6411,8.6402,8.6461,8.6493,8.653,8.647,8.6532,8.6602,8.6669,8.6695,8.6785,8.6771,8.6832,8.6902,8.6973,8.6983,8.7102,8.7099,8.7176,8.7266,8.7306,8.7366,8.7432,8.743,8.7471,8.7556,8.7532,8.7613,8.7649,8.774,8.7737,8.7758,8.7832,8.7863,8.7933,8.7886,8.7931,8.7956,8.7944,8.7974,8.7916,8.7972,8.8004,8.8024,8.8078,8.8161,8.8204,8.817,8.8081,8.8071,8.7981,8.792,8.7817,8.7754,8.7687,8.7607,8.739,8.7392,8.7443,8.7379,8.7296,8.7264,8.7261,8.7287,8.7319,8.7275,8.7256,8.7331,8.7292,8.7358,8.7353,8.7413,8.7478,8.747,8.7487,8.7513,8.7475,8.7544,8.751,8.7541,8.7525,8.755,8.7493,8.755,8.7455,8.7435,8.7486,8.7452,8.7474,8.7463,8.7447,8.7412,8.7448,8.7426,8.7409,8.7426,8.7412,8.7404,8.7394,8.7438,8.738,8.7337,8.729,8.7269,8.7266,8.724,8.7239,8.7226,8.7235,8.7276,8.732,8.7419,8.7416,8.7448,8.7376,8.7422,8.7471,8.7392,8.7387,8.7397,8.7456,8.7518,8.7645,8.7687,8.7624,8.7671,8.7663,8.7501,8.7315,8.7244,8.7221,8.7149,8.7031,8.6995,8.697,8.6965,8.6959,8.6919,8.6926,8.6968,8.6983,8.6979,8.7004,8.7012,8.6978,8.6774,8.6802,8.7314,8.8232,8.9499,9.1608,9.3763,9.474,9.4844,9.4357,9.2446,9.0449,8.9418,8.8078,8.7848,8.7689,8.7451,8.7373,8.7215,8.719,8.7068,8.7076,8.6934,8.698,8.689,8.6989,8.7003,8.6944,8.6905,8.6936,8.6934,8.7014,8.692,8.6979,8.6928,8.7016,8.7011,8.7072,8.7019,8.7146,8.7163,8.7207,8.7195,8.7203,8.7187,8.7252,8.7289,8.7239,8.7193,8.7229,8.7226,8.7282,8.7306,8.7291,8.7286,8.7286,8.7338,8.7363,8.7349,8.7355,8.7424,8.7434,8.7398,8.7463,8.7422,8.744,8.7452,8.7448,8.7497,8.7448,8.7531,8.7558,8.7579,8.7618,8.7628,8.7636,8.7633,8.7602,8.7565,8.7456,8.7379,8.7295,8.7183,8.7121,8.7023,8.7004,8.6935,8.686,8.6879,8.6903,8.687,8.6895,8.6892,8.6886,8.6939,8.6889,8.6931,8.6897,8.689,8.6934,8.7047,8.7012,8.7008,8.7031,8.7057,8.7036,8.7029,8.6998,8.7041,8.7053,8.7051,8.7023,8.7016,8.6988,8.7043,8.6971,8.696,8.6977,8.701,8.6954,8.6962,8.6907,8.6958,8.6938,8.6902,8.6928,8.6929,8.6955,8.6915,8.688,8.6886,8.6831,8.6871,8.6885,8.6848,8.6847,8.6829,8.6878,8.6859,8.6943,8.6897,8.6938,8.6832,8.6894,8.6941,8.6931,8.6925,8.7069,8.7128,8.7062,8.7073,8.7006,8.7031,8.7074,8.7029,8.7024,8.7179,8.7251,8.7388,8.7362,8.7374,8.7421,8.7353,8.7155,8.7087,8.7003,8.6889,8.6727,8.662,8.6476,8.6525,8.6514,8.6388,8.6478,8.6481,8.647,8.6466,8.6453,8.6409,8.6494,8.6392,8.6162,8.6452,8.6757,8.7567,8.8807,9.0906,9.3033,9.4009,9.425,9.3766,9.1974,8.9927,8.8224,8.741,8.7377,8.7148,8.7071,8.6961,8.6899,8.6781,8.6769,8.6715,8.6767,8.6787,8.6845,8.691,8.6934,8.6905,8.6934,8.6928,8.7023,8.7013,8.7004,8.7012,8.7102,8.7111,8.7109,8.7117,8.7141,8.7194,8.7182,8.7174,8.7198,8.7247,8.7301,8.7323,8.7346,8.7383,8.7435,8.7466,8.7511,8.7525,8.7546,8.7627,8.7689,8.7732,8.7762,8.7763,8.7852,8.7886,8.7891,8.7905,8.7919,8.7986,8.8049,8.8069,8.8049,8.8172,8.8183,8.8244,8.8293,8.8339,8.8491,8.8545,8.8583,8.8513,8.8467,8.8434,8.8419,8.8366,8.8293,8.8195,8.8009,8.7872,8.7819,8.7768,8.7762,8.7673,8.77,8.7563,8.7633,8.7615,8.7594,8.7612,8.7575,8.7638,8.7646,8.7685,8.7683,8.7659,8.7675,8.7701,8.7753,8.7816,8.7822,8.7866,8.7815,8.7836,8.7788,8.7837,8.776,8.7774,8.7724,8.774,8.776,8.7779,8.7714,8.7709,8.7675,8.7738,8.7632,8.7637,8.7605,8.7534,8.7535,8.7532,8.754,8.7514,8.753,8.7497,8.7485,8.7471,8.743,8.7468,8.7461,8.7456,8.7419,8.7346,8.7376,8.7374,8.7393,8.7457,8.7547,8.7678,8.7673,8.7653,8.7668,8.7693,8.7751,8.7654,8.7679,8.7734,8.7834,8.7953,8.8021,8.8011,8.7977,8.7997,8.7929,8.7814,8.7757,8.7617,8.7563,8.7454,8.7346,8.7251,8.7303,8.7291,8.7214,8.7162,8.7186,8.7217,8.7193,8.7242,8.7216,8.7159,8.7108,8.6867,8.7105,8.7689,8.8524,9.0015,9.2038,9.3875,9.4647,9.4596,9.3602,9.1861,8.9801,8.8096,8.7638,8.7624,8.7546,8.7535,8.7419,8.7302,8.7322,8.7223,8.7196,8.7176,8.719,8.7245,8.7252,8.7252,8.7313,8.7337,8.7252,8.7333,8.7346,8.733,8.7277,8.7352,8.7377,8.7359,8.7348,8.7339,8.7425,8.746,8.743,8.75,8.7498,8.753,8.7571,8.7558,8.7629,8.7651,8.7649,8.7689,8.7763,8.7762,8.7867,8.7874,8.7912,8.7902,8.7993,8.8094,8.8169,8.816,8.8195,8.8207,8.8234,8.8252,8.8251,8.8279,8.8325,8.8398,8.8412,8.8442,8.8486,8.8566,8.8594,8.856,8.8535,8.8503,8.8403,8.8293,8.8208,8.8146,8.8013,8.7955,8.7792,8.7793,8.7751,8.7736,8.7731,8.7699,8.7702,8.7705,8.7676,8.7658,8.7679,8.7672,8.7724,8.7685,8.774,8.7804,8.7831,8.7838,8.7842,8.785,8.7877,8.786,8.7905,8.7884,8.7983,8.7925,8.7898,8.7922,8.7887,8.7981,8.8016,8.8049,8.7936,8.7918,8.789,8.7899,8.79,8.7923,8.7926,8.789,8.7896,8.7872,8.7876,8.7889,8.7872,8.7885,8.7839,8.7778,8.7806,8.7754,8.7783,8.7772,8.7775,8.7765,8.7874,8.7996,8.7946,8.7996,8.7974,8.8044,8.807,8.8075,8.8092,8.8136,8.8176,8.8199,8.8279,8.8353,8.8254,8.8345,8.824,8.8072,8.8007,8.7889,8.7803,8.761,8.7628,8.7585,8.7515,8.7551,8.7546,8.7561,8.7465,8.7446,8.7481,8.7503,8.748,8.7512,8.7503,8.7278,8.7393,8.7971,8.8857,9.0153,9.2267,9.4351,9.5187,9.5291,9.4729,9.2866,9.0791,8.904,8.8347,8.8255,8.8066,8.8044,8.7872,8.7757,8.7709,8.7637,8.761,8.7558,8.7557,8.7599,8.7529,8.753,8.7584,8.7556,8.7562,8.7618,8.7527,8.7573,8.7619,8.7651,8.7645,8.7698,8.7738,8.7722,8.7786,8.7823,8.7801,8.7823,8.7871,8.7936,8.7956,8.7982,8.804,8.8073,8.8113,8.8162,8.8227,8.8274,8.8313,8.8348,8.8406,8.8461,8.8447,8.855,8.8543,8.8594,8.8636,8.8713,8.8705,8.8743,8.8751,8.8768,8.8844,8.88,8.8865,8.897,8.8995,8.9005,8.9033,8.9003,8.9034,8.8973,8.8897,8.886,8.878,8.8666,8.8589,8.8494,8.8447,8.8378,8.8323,8.8255,8.825,8.8235,8.8202,8.8128,8.8165,8.816,8.8118,8.8147,8.8142,8.8157,8.8199,8.8228,8.8204,8.8101,8.8163,8.8137,8.8138,8.8133,8.8053,8.8128,8.8053,8.8009,8.8057,8.8001,8.8007,8.802,8.8042,8.8053,8.7963,8.7944,8.7966,8.7929,8.7933,8.7917,8.7948,8.7937,8.7917,8.7925,8.7918,8.7904,8.7921,8.7922,8.7907,8.7916,8.7909,8.7863,8.7837,8.7816,8.7793,8.7782,8.7798,8.7814,8.7866,8.7806,8.782,8.7779,8.7845,8.7983,8.8077,8.8005,8.7991,8.8065,8.8066,8.808,8.8052,8.8062,8.8131,8.82,8.8333,8.8432,8.8445,8.8412,8.8366,8.8331,8.8151,8.8062,8.7944,8.7845,8.7685,8.7632,8.7606,8.7605,8.7592,8.7577,8.7623,8.7542,8.7602,8.7566,8.7606,8.7682,8.7647,8.7414,8.744,8.792,8.8686,8.9859,9.1809,9.4003,9.5293,9.5614,9.552,9.4582,9.263,9.0591,8.8946,8.8655,8.8374,8.8186,8.8118,8.7958,8.789,8.7813,8.7824,8.7691,8.7753,8.7778,8.7728,8.7713,8.7702,8.7736,8.7758,8.779,8.784,8.7876,8.7904,8.7907,8.7888,8.7936,8.798,8.8014,8.8062,8.8102,8.8092,8.8149,8.8168,8.8216,8.8249,8.8217,8.8201,8.8266,8.8356,8.8372,8.8426,8.8486,8.8509,8.8518,8.8624,8.8656,8.8692,8.8751,8.883,8.8817,8.8863,8.8869,8.8883,8.8917,8.8892,8.8949,8.9014,8.8982,8.9068,8.916,8.9182,8.9212,8.923,8.9306,8.92,8.9199,8.9136,8.91,8.9011,8.8908,8.889,8.8761,8.8718,8.8647,8.8509,8.8498,8.845,8.8419,8.8421,8.8443,8.8414,8.8453,8.8411,8.8445,8.8455,8.8436,8.8541,8.8506,8.8522,8.8542,8.8515,8.8535,8.847,8.8512,8.8532,8.849,8.8505,8.8559,8.8547,8.8482,8.8431,8.8458,8.8461,8.8507,8.8567,8.8414,8.8399,8.8427,8.8375,8.8398,8.8307,8.8262,8.8313,8.828,8.8246,8.8312,8.8312,8.8299,8.8286,8.8293,8.8283,8.8218,8.8218,8.8211,8.8178,8.8165,8.8208,8.8173,8.8263,8.8265,8.8261,8.8361,8.8443,8.8489,8.8496,8.8528,8.85,8.8493,8.8508,8.8526,8.8578,8.8657,8.8743,8.8832,8.8896,8.8837,8.8854,8.8786,8.8676,8.8522,8.8465,8.8406,8.836,8.8245,8.8192,8.821,8.8127,8.8057,8.8062,8.8052,8.809,8.8065,8.8094,8.8135,8.8196,8.8143,8.8001,8.8107,8.8574,8.9487,9.0128,9.1938,9.4109,9.5431,9.5918,9.5436,9.4007,9.2178,9.0297,8.903,8.9035,8.8767,8.8702,8.8561,8.8476,8.8302,8.8401,8.83,8.8363,8.841,8.8363,8.8367,8.8338,8.8361,8.8405,8.8445,8.8389,8.8396,8.8365,8.8495,8.8511,8.8547,8.8593,8.8506,8.8478,8.8603,8.8585,8.8566,8.8616,8.8622,8.8647,8.8691,8.8706,8.8783,8.8805,8.885,8.8881,8.9015,8.8957,8.9101,8.9137,8.914,8.9216,8.9214,8.9304,8.9381,8.9413,8.9394,8.9442,8.9364,8.9428,8.9444,8.9463,8.9367,8.9416,8.9414,8.946,8.9463,8.9461,8.9443,8.9467,8.9474,8.9466,8.9427,8.9382,8.9212,8.9132,8.9061,8.8941,8.8852,8.8823,8.8726,8.8584,8.8614,8.8554,8.8628,8.8571,8.8626,8.8635,8.8668,8.8665,8.8686,8.8693,8.8735,8.871,8.8801,8.8715,8.8789,8.8783,8.8855,8.892,8.8875,8.8853,8.8944,8.8916,8.8925,8.8911,8.8874,8.8867,8.8877,8.8927,8.8812,8.8728,8.8725,8.8734,8.8769,8.8718,8.8708,8.8688,8.8612,8.8614,8.8599,8.8547,8.8605,8.8578,8.8513,8.8541,8.8542,8.8504,8.8588,8.8696,8.8751,8.8711,8.8724,8.8723,8.8686,8.8659,8.867,8.8687,8.8686,8.8736,8.8781,8.8833,8.8919,8.8857,8.8814,8.875,8.8586,8.8491,8.835,8.8284,8.8225,8.817,8.8058,8.8045,8.8026,8.7928,8.7995,8.7939,8.795,8.7995,8.7985,8.7983,8.803,8.7959,8.7749,8.8036,8.8696,8.9614,9.1222,9.336,9.5126,9.559,9.5825,9.5522,9.3826,9.2939,8.995,8.8702,8.8896,8.8623,8.8643,8.8419,8.8468,8.8311,8.8333,8.8194,8.8348,8.8259,8.8396,8.834,8.8428,8.8274,8.8345,8.8385,8.8448,8.8476,8.8528,8.855,8.86,8.8576,8.859,8.8663,8.8738,8.8716,8.8799,8.8851,8.8927,8.8955,8.9043,8.9069,8.9057,8.9137,8.9243,8.9284,8.9341,8.9323,8.9391,8.9443,8.9499,8.9624,8.9632,8.9661,8.9726,8.9778,8.9779,8.9806,8.9812,8.9841,8.9831,8.9837,8.9796,8.9814,8.9764,8.9766,8.9843,8.99,8.9924,8.9924,8.9838,8.9845,8.9821,8.9705,8.9587,8.9538,8.9436,8.931,8.9238,8.9197,8.9137,8.9078,8.905,8.9016,8.895,8.9018,8.8978,8.8953,8.89,8.8915,8.8976,8.8956,8.8947,8.8956,8.896,8.9003,8.8929,8.8964,8.8989,8.901,8.9005,8.8968,8.8996,8.8984,8.8995,8.8942,8.8976,8.8993,8.8932,8.8981,8.8871,8.8913,8.8901,8.8869,8.8892,8.8902,8.8823,8.8828,8.8817,8.8755,8.8668,8.8712,8.8691,8.8664,8.8631,8.8654,8.8616,8.861,8.8659,8.8642,8.8605,8.8647,8.8728,8.8742,8.8673,8.8725,8.8735,8.8784,8.874,8.8746,8.8762,8.8843,8.8872,8.9049,8.9074,8.9078,8.9054,8.8971,8.8877,8.8756,8.8684,8.8604,8.8521,8.8431,8.8344,8.8358,8.8407,8.8309,8.829,8.8338,8.8358,8.8328,8.8326,8.8299,8.8322,8.8323,8.8071,8.8172,8.8769,8.9716,9.1159,9.335,9.5604,9.6336,9.6489,9.6231,9.4693,9.263,9.0643,8.9363,8.9308,8.9024,8.8871,8.8746,8.8634,8.8588,8.8524,8.8517,8.8489,8.8529,8.8546,8.8548,8.8547,8.854,8.8516,8.8534,8.8607,8.8625,8.8608,8.8639,8.867,8.8675,8.8694,8.8775,8.8748,8.8837,8.8896,8.8843,8.8896,8.8894,8.8984,8.8965,8.8985,8.9014,8.9097,8.9142,8.9185,8.925,8.9277,8.9256,8.937,8.9423,8.9496,8.9548,8.9582,8.9562,8.9634,8.9628,8.975,8.9742,8.9751,8.9754,8.9721,8.9699,8.9741,8.9855,8.9849,8.9919,8.9945,8.9933,8.9894,8.9925,8.9849,8.9769,8.9647,8.9607,8.9497,8.9423,8.9307,8.9274,8.9245,8.9194,8.9106,8.9086,8.9074,8.9086,8.9107,8.9057,8.9117,8.9118,8.9149,8.9139,8.9179,8.915,8.911,8.9073,8.9122,8.9058,8.9065,8.9023,8.9052,8.9038,8.8995,8.8931,8.8972,8.8951,8.8927,8.8949,8.8888,8.8829,8.885,8.8838,8.8815,8.8815,8.8758,8.8701,8.8687,8.8747,8.8686,8.8671,8.8627,8.8671,8.8648,8.8625,8.8611,8.8614,8.8529,8.853,8.8537,8.8531,8.854,8.858,8.8513,8.8532,8.8568,8.8684,8.8685,8.8754,8.8772,8.8742,8.8743,8.8735,8.8745,8.8752,8.8794,8.8882,8.9001,8.9004,8.8966,8.9046,8.9022,8.8924,8.8825,8.8714,8.8632,8.8492,8.8435,8.8385,8.8426,8.8334,8.8289,8.8362,8.832,8.8353,8.8394,8.8314,8.8439,8.8465,8.8411,8.827,8.8276,8.8829,8.9657,9.0833,9.291,9.5166,9.5989,9.6389,9.633,9.5196,9.3214,9.1092,8.9691,8.9489,8.9291,8.9083,8.9034,8.8881,8.8869,8.8756,8.8753,8.8735,8.8765,8.8751,8.8771,8.8698,8.8808,8.8797,8.8847,8.8788,8.8838,8.8813,8.886,8.8845,8.8853,8.8881,8.8867,8.8881,8.8849,8.8891,8.8899,8.8968,8.897,8.8953,8.902,8.9032,8.9087,8.9153,8.9186,8.9192,8.9206,8.9213,8.9346,8.9362,8.9421,8.9474,8.9481,8.9511,8.9516,8.9593,8.9557,8.9593,8.964,8.9663,8.9632,8.9665,8.9655,8.969,8.9791,8.9801,8.9855,8.9877,8.9848,8.9906,8.9917,8.9847,8.9741,8.9734,8.9623,8.9581,8.9535,8.9415,8.9362,8.9326,8.9301,8.9258,8.9239,8.9208,8.9233,8.9177,8.9192,8.9219,8.9192,8.9221,8.9229,8.9323,8.936,8.9341,8.9288,8.9408,8.9384,8.9404,8.9401,8.9454,8.9364,8.9397,8.9409,8.9378,8.9424,8.9356,8.9331,8.9343,8.9366,8.9376,8.9312,8.9308,8.9305,8.9308,8.9239,8.9195,8.9176,8.9192,8.915,8.9108,8.9064,8.9057,8.9061,8.9109,8.9074,8.9058,8.9032,8.9066,8.9041,8.8959,8.8961,8.8907,8.9048,8.9052,8.917,8.9181,8.9176,8.9196,8.9233,8.9223,8.9208,8.9225,8.9209,8.9341,8.946,8.9584,8.9672,8.9681,8.9634,8.9583,8.9434,8.9321,8.9296,8.9179,8.9168,8.9091,8.899,8.8943,8.8989,8.8913,8.8928,8.8935,8.9017,8.8976,8.8925,8.8992,8.9046,8.8946,8.8837,8.8909,8.9413,9.0206,9.1482,9.2526,9.4648,9.6338,9.6716,9.6466,9.4856,9.3038,9.0941,8.968,8.958,8.952,8.9355,8.9313,8.9109,8.9163,8.91,8.9112,8.9019,8.9077,8.9099,8.9124,8.9066,8.9101,8.911,8.918,8.9159,8.9177,8.9171,8.9219,8.9195,8.922,8.9287,8.9254,8.9341,8.9311,8.9295,8.9328,8.9323,8.931,8.9331,8.9392,8.9429,8.9455,8.9444,8.9416,8.9447,8.9474,8.9545,8.9599,8.9599,8.9636,8.9754,8.9794,8.9822,8.9835,8.9897,8.993,9.0019,8.9977,9.0041,9.0002,9.0118,9.0097,9.0142,9.0164,9.0196,9.0315,9.0455,9.0476,9.0512,9.0432,9.0441,9.0341,9.028,9.0134,8.996,8.9871,8.9797,8.9669,8.9521,8.9477,8.939,8.9382,8.9301,8.9301,8.923,8.9303,8.9232,8.9331,8.9307,8.9297,8.9347,8.9339,8.9321,8.9409,8.9371,8.926,8.9319,8.9328,8.9351,8.9368,8.9308,8.937,8.938,8.9277,8.9385,8.9372,8.9302,8.9261,8.9263,8.9251,8.9227,8.9153,8.9166,8.9167,8.9159,8.9148,8.9095,8.9057,8.9116,8.9081,8.9077,8.9087,8.9044,8.9039,8.9105,8.9208,8.915,8.9095,8.9072,8.9198,8.9223,8.9149,8.9197,8.9148,8.9239,8.9255,8.9417,8.9454,8.941,8.9333,8.9247,8.9113,8.8936,8.8881,8.8834,8.8664,8.8578,8.8502,8.8497,8.8431,8.8425,8.8384,8.8373,8.8369,8.8412,8.8313,8.829,8.8361,8.8298,8.8101,8.8258,8.8981,8.9843,9.1393,9.3527,9.5347,9.6111,9.6137,9.5129,9.329,9.1141,9.0164,8.9068,8.8924,8.9022,8.8876,8.8846,8.8684,8.8697,8.8614,8.8639,8.8639,8.8698,8.8638,8.8763,8.8783,8.8881,8.8817,8.8931,8.8948,8.8951,8.8939,8.9022,8.8979,8.9058,8.9096,8.9152,8.9166,8.9294,8.9333,8.9421,8.9407,8.9449,8.9525,8.9537,8.9587,8.9705,8.9783,8.9842,8.9862,8.994,9.0015,9.0041,9.012,9.0233,9.0264,9.0328,9.0391,9.0445,9.0455,9.0481,9.0508,9.0464,9.0539,9.048,9.0529,9.0473,9.052,9.0546,9.061,9.0606,9.0664,9.0646,9.062,9.0604,9.0587,9.0503,9.0358,9.0236,9.0221,9.007,8.9992,8.9908,8.986,8.9768,8.9777,8.9719,8.9738,8.9692,8.9794,8.9669,8.971,8.9773,8.9766,8.9774,8.98,8.9837,8.9823,8.9893,8.99,8.9958,8.9928,8.9981,8.9966,8.997,8.9932,8.9964,9.001,8.9978,8.9991,9.0001,8.9942,8.9932,8.9908,8.9962,8.9937,8.9891,8.9944,8.984,8.9795,8.9794,8.9771,8.9783,8.9803,8.9687,8.9687,8.9679,8.9669,8.9654,8.9684,8.973,8.9816,8.9761,8.9724,8.9699,8.9707,8.9606,8.9601,8.9607,8.9683,8.9728,8.9796,8.9888,8.987,8.9894,8.9842,8.9826,8.9616,8.9517,8.9479,8.9383,8.9292,8.9215,8.9132,8.9134,8.9046,8.9106,8.9111,8.9103,8.9107,8.9195,8.9143,8.9134,8.9161,8.9055,8.8813,8.9088,8.9742,9.0814,9.2443,9.4713,9.6836,9.7449,9.7338,9.625,9.4105,9.1941,9.039,9.011,8.9852,8.9643,8.9597,8.9441,8.9408,8.9329,8.9319,8.9211,8.9255,8.9149,8.9191,8.9202,8.9227,8.9233,8.9273,8.937,8.9307,8.9305,8.9271,8.93,8.9349,8.9342,8.9438,8.9448,8.9477,8.9551,8.956,8.9555,8.9606,8.9682,8.9694,8.9722,8.9823,8.9815,8.9891,8.9915,8.9983,9.0012,9.0072,9.018,9.0136,9.0209,9.0221,9.0241,9.0272,9.0302,9.039,9.0444,9.0412,9.0448,9.045,9.0476,9.0483,9.0551,9.05,9.0558,9.0601,9.062,9.0673,9.0585,9.0622,9.0622,9.0603,9.0502,9.045,9.0331,9.0246,9.0134,8.9999,8.9963,8.9857,8.9826,8.9803,8.9796,8.9837,8.9886,8.9885,8.9889,8.9801,8.9825,8.9841,8.9892,8.9867,8.9871,8.9871,8.9899,8.9896,8.9915,8.9906,8.9851,8.9827,8.9815,8.9806,8.9741,8.979,8.9753,8.9778,8.9802,8.9714,8.9688,8.9709,8.9715,8.9671,8.9609,8.9595,8.9611,8.961,8.9579,8.953,8.9586,8.9605,8.9573,8.9617,8.9571,8.9529,8.9505,8.9544,8.9538,8.9555,8.9714,8.9724,8.9738,8.9732,8.9773,8.9836,8.9796,8.9828,8.9863,8.9962,9.0025,9.0194,9.01,9.0122,9.0108,9.0054,8.9902,8.9774,8.9719,8.9663,8.9617,8.9513,8.9472,8.9423,8.9443,8.9412,8.9437,8.9385,8.9403,8.9445,8.9443,8.9483,8.9427,8.9319,8.9246,8.9708,9.0457,9.0982,9.2374,9.4563,9.6672,9.7419,9.7407,9.6451,9.4501,9.2441,9.0779,9.0324,9.0228,9.0066,9.0006,8.9857,8.9852,8.9818,8.9821,8.9757,8.9779,8.9745,8.9823,8.9865,8.9866,8.9911,8.9932,8.9918,8.9971,8.9986,9.0014,9.0045,9.0047,9.0023,9.0048,9.0109,9.0149,9.0181,9.0068,9.0136,9.0169,9.0221,9.0262,9.0251,9.0295,9.0346,9.0334,9.042,9.0394,9.0541,9.0536,9.0666,9.0687,9.0711,9.0843,9.0906,9.09,9.0908,9.0908,9.0987,9.0962,9.1032,9.1057,9.1053,9.1102,9.11,9.1127,9.114,9.1167,9.121,9.1211,9.1164,9.1126,9.1058,9.0997,9.0927,9.078,9.0741,9.0636,9.0508,9.041,9.0317,9.0247,9.0165,9.0174,9.0169,9.0134,9.0078,9.0074,9.0186,9.0164,9.0188,9.0154,9.0178,9.02,9.0249,9.0205,9.0111,9.0207,9.022,9.0282,9.0203,9.025,9.0246,9.0286,9.0262,9.014,9.0157,9.0144,9.0139,9.0114,9.0032,9.0024,9.0026,9.0011,8.9971,9.0006,8.9986,8.9954,8.9864,8.9838,8.9798,8.9779,8.9736,8.9764,8.9751,8.984,8.9981,8.9962,8.995,8.9921,8.992,8.9869,8.9912,8.9949,8.9965,9.0036,9.0019,9.0111,9.0078,9.0077,9.0043,8.9905,8.9712,8.9633,8.9543,8.9481,8.9415,8.9277,8.9168,8.9191,8.9163,8.9073,8.91,8.9044,8.9,8.9021,8.8993,8.8937,8.8948,8.8908,8.8838,8.9005,8.953,9.0465,9.2115,9.4274,9.6063,9.6798,9.6787,9.5696,9.3769,9.1563,9.1491,8.9887,8.9337,8.9495,8.9221,8.9285,8.9051,8.9122,8.8939,8.9016,8.8897,8.9075,8.8972,8.9124,8.902,8.9117,8.9133,8.9163,8.9132,8.9178,8.9123,8.9279,8.9232,8.9242,8.9251,8.9361,8.9305,8.9448,8.9418,8.9515,8.9519,8.9516,8.9579,8.9645,8.9685,8.9733,8.9731,8.9828,8.9788,8.9967,9.0053,8.999,9.004,9.0049,9.017,9.0305,9.0305,9.0383,9.038,9.0475,9.0445,9.046,9.0498,9.0477,9.049,9.0474,9.0502,9.0546,9.0549,9.0557,9.0608,9.0639,9.0618,9.0591,9.0449,9.0372,9.0332,9.0175,9.0088,9.0008,8.997,8.9817,8.9776,8.9671,8.9652,8.9665,8.9664,8.9652,8.963,8.9566,8.9581,8.9555,8.9611,8.9597,8.9603,8.9582,8.9609,8.9618,8.9618,8.9603,8.9635,8.9605,8.9597,8.9564,8.9597,8.9604,8.9589,8.9554,8.9574,8.9557,8.9582,8.951,8.9519,8.9452,8.9445,8.9486,8.9433,8.9357,8.9373,8.9301,8.9358,8.9251,8.9267,8.9229,8.9271,8.9263,8.9236,8.9229,8.9274,8.9371,8.9374,8.9336,8.9308,8.9278,8.9381,8.9321,8.9274,8.9312,8.941,8.9431,8.9584,8.962,8.9604,8.9599,8.9563,8.9479,8.9324,8.9209,8.9165,8.9088,8.8939,8.8886,8.8872,8.884,8.8826,8.8825,8.8827,8.8826,8.883,8.8829,8.885,8.8836,8.8779,8.8582,8.8494,8.9044,8.9824,9.0975,9.3102,9.5471,9.6839,9.7188,9.6861,9.5073,9.2829,9.0857,8.9809,8.9756,8.9424,8.9216,8.9103,8.9043,8.9006,8.895,8.8884,8.8861,8.8834,8.8871,8.8816,8.8806,8.8797,8.8828,8.8825,8.8862,8.8834,8.8885,8.8872,8.8945,8.8903,8.8957,8.8963,8.8962,8.8956,8.9078,8.9017,8.9082,8.9122,8.9096,8.9161,8.9246,8.9234,8.9231,8.9311,8.9352,8.9407,8.948,8.9514,8.9585,8.9664,8.9675,8.9678,8.9707,8.9827,8.9829,8.9841,8.9913,8.9987,8.9995,8.9966,9.0048,9.004,9.0073,9.0089,9.0129,9.0239,9.0227,9.0236,9.0194,9.0153,9.0156,9.0087,8.9947,8.9851,8.9782,8.9672,8.9605,8.9551,8.9464,8.9449,8.9422,8.9415,8.9388,8.9344,8.9416,8.9332,8.9394,8.9398,8.9446,8.9425,8.9429,8.9474,8.9478,8.9506,8.9526,8.9516,8.9544,8.955,8.951,8.9487,8.9511,8.9562,8.9509,8.9528,8.9455,8.9383,8.9357,8.9395,8.941,8.9336,8.9308,8.9285,8.927,8.9301,8.9273,8.9266,8.9211,8.9199,8.9137,8.9141,8.9078,8.9063,8.9153,8.9098,8.9082,8.9039,8.9017,8.9044,8.9016,8.9047,8.9081,8.9093,8.9114,8.927,8.9243,8.9243,8.9256,8.9222,8.9291,8.9246,8.926,8.9292,8.9378,8.9454,8.9542,8.9635,8.959,8.9576,8.9483,8.9392,8.9161,8.9069,8.9032,8.8916,8.8838,8.8776,8.8743,8.8762,8.8716,8.8712,8.8722,8.8688,8.8733,8.8815,8.8837,8.8778,8.8739,8.8459,8.8599,8.9249,9.014,9.1556,9.3779,9.5953,9.6733,9.6804,9.602,9.3997,9.1725,9.0072,8.9634,8.9475,8.9231,8.9132,8.905,8.8982,8.8889,8.89,8.8856,8.8824,8.8808,8.8852,8.8852,8.8821,8.8829,8.8884,8.8926,8.8988,8.8955,8.8964,8.8974,8.9026,8.9066,8.9096,8.9155,8.9186,8.9168,8.9171,8.9171,8.922,8.9198,8.9269,8.9234,8.928,8.9287,8.931,8.9379,8.934,8.9414,8.9469,8.9472,8.95,8.9537,8.9568,8.958,8.9571,8.9669,8.9715,8.9696,8.9713,8.9688,8.9741,8.981,8.9786,8.9769,8.9762,8.9862,8.9848,8.9911,8.9949,8.9901,8.9908,8.9917,8.99,8.9788,8.9695,8.9622,8.9574,8.9468,8.9368,8.9246,8.9254,8.9178,8.9123,8.9098,8.9049,8.901,8.8999,8.9044,8.9057,8.9093,8.9079,8.9164,8.9146,8.9146,8.9194,8.9223,8.9239,8.9239,8.9124,8.9136,8.9104,8.9126,8.9138,8.9111,8.9087,8.9097,8.9076,8.9113,8.9124,8.9089,8.9116,8.9079,8.9103,8.9146,8.9059,8.9031,8.9046,8.9019,8.8979,8.9013,8.8965,8.8927,8.8859,8.8895,8.8887
