12.698,12.69,12.728,12.839,13.054,13.278,13.499,13.559,13.25,13.103,12.974,12.676,12.536,12.518,12.518,12.57,12.674,12.745,12.768,12.765,12.778,12.792,12.803,12.786,12.777,12.784,12.793,12.801,12.793,12.789,12.795,12.806,12.821,12.819,12.813,12.821,12.835,12.851,12.853,12.848,12.845,12.859,12.881,12.884,12.878,12.886,12.903,12.936,12.946,12.949,12.975,13.002,13.019,13.047,13.057,13.062,13.086,13.115,13.13,13.135,13.139,13.145,13.163,13.171,13.148,13.121,13.109,13.095,13.068,13.015,12.968,12.945,12.919,12.897,12.859,12.808,12.779,12.763,12.765,12.735,12.71,12.7,12.706,12.709,12.695,12.674,12.668,12.672,12.683,12.678,12.666,12.658,12.659,12.669,12.668,12.653,12.643,12.646,12.658,12.659,12.635,12.635,12.647,12.663,12.664,12.647,12.641,12.654,12.673,12.678,12.662,12.652,12.651,12.664,12.676,12.66,12.651,12.652,12.669,12.686,12.674,12.671,12.668,12.686,12.701,12.695,12.683,12.685,12.692,12.704,12.707,12.69,12.682,12.699,12.711,12.708,12.702,12.694,12.7,12.713,12.716,12.691,12.689,12.696,12.708,12.708,12.693,12.692,12.688,12.708,12.71,12.703,12.69,12.694,12.712,12.722,12.709,12.694,12.693,12.713,12.721,12.71,12.701,12.705,12.718,12.725,12.719,12.701,12.702,12.706,12.723,12.717,12.7,12.702,12.709,12.717,12.709,12.694,12.683,12.694,12.708,12.697,12.681,12.681,12.691,12.698,12.695,12.68,12.669,12.679,12.693,12.693,12.682,12.674,12.677,12.693,12.698,12.683,12.672,12.679,12.691,12.699,12.696,12.694,12.699,12.722,12.737,12.721,12.715,12.727,12.74,12.761,12.778,12.76,12.755,12.768,12.766,12.742,12.716,12.715,12.717,12.692,12.658,12.635,12.633,12.642,12.648,12.645,12.624,12.623,12.626,12.63,12.635,12.62,12.608,12.617,12.621,12.604,12.565,12.548,12.638,12.821,13.056,13.157,13.351,13.448,13.152,12.998,12.854,12.578,12.436,12.447,12.467,12.523,12.586,12.643,12.69,12.704,12.697,12.692,12.702,12.724,12.734,12.725,12.724,12.718,12.74,12.76,12.765,12.754,12.761,12.78,12.805,12.801,12.794,12.802,12.824,12.836,12.848,12.834,12.846,12.857,12.88,12.898,12.899,12.91,12.934,12.971,12.999,13.008,13.018,13.052,13.071,13.101,13.115,13.123,13.16,13.187,13.205,13.192,13.188,13.195,13.203,13.209,13.178,13.146,13.119,13.092,13.063,13.012,12.969,12.935,12.922,12.901,12.87,12.829,12.81,12.806,12.811,12.802,12.766,12.765,12.766,12.776,12.776,12.756,12.748,12.75,12.769,12.765,12.745,12.734,12.738,12.747,12.742,12.732,12.725,12.732,12.735,12.743,12.731,12.719,12.722,12.739,12.746,12.739,12.725,12.726,12.738,12.75,12.735,12.722,12.724,12.735,12.74,12.737,12.725,12.726,12.743,12.76,12.759,12.736,12.74,12.756,12.775,12.767,12.75,12.751,12.758,12.767,12.773,12.754,12.752,12.762,12.774,12.771,12.762,12.753,12.757,12.774,12.774,12.759,12.75,12.751,12.767,12.77,12.757,12.745,12.749,12.769,12.767,12.757,12.747,12.754,12.765,12.771,12.762,12.751,12.747,12.76,12.773,12.773,12.746,12.749,12.748,12.766,12.757,12.744,12.741,12.753,12.759,12.748,12.736,12.738,12.743,12.753,12.755,12.736,12.731,12.736,12.744,12.748,12.731,12.722,12.729,12.74,12.742,12.722,12.719,12.719,12.731,12.72,12.707,12.703,12.703,12.715,12.721,12.709,12.697,12.695,12.71,12.718,12.706,12.691,12.695,12.705,12.709,12.701,12.689,12.698,12.721,12.738,12.742,12.733,12.723,12.737,12.765,12.765,12.776,12.796,12.795,12.801,12.793,12.77,12.754,12.752,12.768,12.755,12.705,12.68,12.686,12.7,12.697,12.686,12.68,12.683,12.696,12.706,12.694,12.684,12.689,12.703,12.711,12.689,12.674,12.653,12.661,12.714,12.847,13.07,13.282,13.408,13.564,13.316,13.082,12.96,12.764,12.588,12.552,12.553,12.588,12.694,12.76,12.803,12.787,12.81,12.816,12.846,12.832,12.826,12.814,12.836,12.845,12.859,12.844,12.85,12.864,12.887,12.895,12.899,12.894,12.919,12.931,12.948,12.931,12.939,12.952,12.981,12.989,12.992,12.99,13.009,13.036,13.073,13.075,13.085,13.11,13.145,13.175,13.184,13.191,13.207,13.237,13.264,13.262,13.257,13.265,13.28,13.292,13.28,13.255,13.235,13.224,13.207,13.17,13.116,13.076,13.047,13.029,12.988,12.94,12.909,12.891,12.879,12.852,12.815,12.802,12.797,12.801,12.795,12.777,12.754,12.761,12.766,12.772,12.749,12.739,12.735,12.75,12.747,12.734,12.716,12.725,12.733,12.733,12.716,12.712,12.709,12.719,12.73,12.731,12.713,12.712,12.72,12.733,12.725,12.713,12.706,12.715,12.725,12.713,12.695,12.7,12.709,12.728,12.725,12.709,12.703,12.713,12.722,12.727,12.715,12.707,12.717,12.73,12.73,12.712,12.703,12.715,12.728,12.728,12.711,12.703,12.712,12.718,12.725,12.715,12.701,12.706,12.715,12.728,12.715,12.705,12.704,12.717,12.728,12.715,12.703,12.708,12.721,12.729,12.713,12.704,12.702,12.71,12.724,12.72,12.703,12.698,12.712,12.724,12.721,12.707,12.708,12.716,12.734,12.735,12.719,12.72,12.728,12.742,12.741,12.731,12.723,12.727,12.746,12.756,12.739,12.731,12.741,12.748,12.761,12.742,12.738,12.74,12.752,12.755,12.741,12.737,12.741,12.751,12.759,12.751,12.738,12.731,12.744,12.752,12.75,12.725,12.73,12.735,12.748,12.74,12.723,12.718,12.73,12.74,12.738,12.729,12.73,12.754,12.764,12.755,12.738,12.744,12.754,12.793,12.809,12.774,12.761,12.756,12.76,12.749,12.729,12.71,12.704,12.678,12.668,12.644,12.629,12.627,12.639,12.643,12.626,12.608,12.611,12.618,12.63,12.615,12.598,12.601,12.602,12.589,12.552,12.529,12.61,12.802,13.033,13.241,13.336,13.39,13.096,12.922,12.809,12.52,12.405,12.418,12.438,12.479,12.545,12.591,12.64,12.662,12.677,12.656,12.66,12.668,12.681,12.672,12.67,12.652,12.67,12.674,12.691,12.675,12.686,12.699,12.728,12.737,12.741,12.743,12.759,12.78,12.792,12.789,12.785,12.796,12.811,12.832,12.835,12.845,12.863,12.895,12.931,12.95,12.956,12.969,13.002,13.034,13.051,13.052,13.066,13.087,13.108,13.105,13.094,13.09,13.093,13.104,13.088,13.06,13.019,12.997,12.968,12.934,12.879,12.84,12.814,12.795,12.764,12.726,12.691,12.683,12.684,12.676,12.662,12.641,12.631,12.642,12.645,12.63,12.61,12.609,12.61,12.623,12.605,12.596,12.587,12.596,12.602,12.583,12.565,12.565,12.581,12.592,12.588,12.58,12.57,12.585,12.599,12.598,12.577,12.577,12.583,12.602,12.595,12.58,12.567,12.582,12.589,12.592,12.579,12.572,12.577,12.598,12.601,12.586,12.574,12.581,12.594,12.602,12.587,12.578,12.582,12.59,12.59,12.58,12.566,12.571,12.586,12.598,12.578,12.572,12.568,12.575,12.593,12.588,12.58,12.578,12.585,12.594,12.595,12.583,12.582,12.6,12.614,12.61,12.599,12.595,12.604,12.623,12.627,12.611,12.606,12.611,12.634,12.635,12.624,12.618,12.622,12.643,12.652,12.638,12.637,12.648,12.671,12.675,12.669,12.664,12.679,12.685,12.7,12.697,12.684,12.684,12.708,12.721,12.708,12.703,12.705,12.719,12.738,12.742,12.741,12.749,12.775,12.799,12.781,12.771,12.781,12.802,12.825,12.857,12.844,12.823,12.839,12.853,12.849,12.823,12.814,12.806,12.805,12.776,12.758,12.749,12.768,12.781,12.781,12.763,12.762,12.769,12.786,12.79,12.778,12.772,12.779,12.792,12.795,12.754,12.724,12.764,12.924,13.164,13.373,13.56,13.571,13.3,13.112,13.034,12.842,12.707,12.758,12.755,12.706,12.747,12.805,12.876,12.917,12.936,12.932,12.935,12.944,12.953,12.949,12.936,12.944,12.959,12.972,12.98,12.981,12.98,12.981,13.022,13.043,13.031,13.031,13.04,13.055,13.061,13.052,13.046,13.059,13.079,13.098,13.094,13.105,13.111,13.141,13.171,13.183,13.194,13.213,13.244,13.283,13.299,13.307,13.323,13.349,13.374,13.377,13.367,13.371,13.382,13.384,13.355,13.334,13.31,13.286,13.265,13.231,13.182,13.139,13.115,13.096,13.078,13.033,13.017,13.009,13.016,13.001,12.977,12.967,12.975,12.987,12.989,12.971,12.959,12.96,12.968,12.976,12.964,12.949,12.951,12.954,12.958,12.934,12.919,12.92,12.933,12.939,12.93,12.932,12.938,12.945,12.96,12.955,12.937,12.936,12.943,12.96,12.958,12.941,12.939,12.95,12.963,12.953,12.945,12.942,12.96,12.968,12.961,12.946,12.943,12.956,12.97,12.977,12.963,12.957,12.964,12.983,12.989,12.974,12.967,12.972,12.993,12.996,12.983,12.972,12.977,12.988,12.983,12.975,12.971,12.968,12.983,12.994,12.981,12.972,12.97,12.982,12.992,12.982,12.969,12.965,12.975,12.988,12.974,12.959,12.96,12.978,12.983,12.981,12.967,12.957,12.962,12.977,12.977,12.962,12.952,12.966,12.982,12.977,12.96,12.952,12.966,12.973,12.971,12.949,12.951,12.951,12.958,12.971,12.956,12.943,12.944,12.957,12.966,12.95,12.945,12.942,12.962,12.975,12.964,12.964,12.98,13.008,13.006,12.991,12.985,12.991,13.002,13.029,13.044,13.017,13.008,13.015,13.019,13.005,12.979,12.966,12.963,12.942,12.918,12.903,12.903,12.912,12.917,12.915,12.899,12.898,12.897,12.92,12.918,12.905,12.899,12.9,12.901,12.886,12.848,12.875,13.021,13.256,13.48,13.677,13.72,13.436,13.306,13.247,13.026,12.767,12.714,12.747,12.799,12.891,12.929,12.972,12.993,13.015,12.999,12.994,12.988,13.005,13.007,13.005,12.985,13.001,13.002,13.024,13.031,13.024,13.025,13.053,13.075,13.089,13.079,13.08,13.096,13.115,13.123,13.117,13.116,13.139,13.16,13.175,13.167,13.176,13.193,13.232,13.262,13.27,13.279,13.305,13.336,13.364,13.372,13.375,13.394,13.415,13.43,13.425,13.411,13.409,13.408,13.396,13.378,13.336,13.294,13.266,13.24,13.199,13.145,13.11,13.089,13.072,13.05,13.009,12.991,12.984,12.983,12.966,12.945,12.934,12.935,12.943,12.944,12.92,12.906,12.906,12.921,12.917,12.9,12.886,12.889,12.898,12.903,12.886,12.874,12.876,12.888,12.887,12.876,12.869,12.871,12.885,12.898,12.892,12.885,12.878,12.891,12.903,12.896,12.879,12.876,12.884,12.897,12.888,12.875,12.876,12.894,12.903,12.897,12.888,12.878,12.884,12.902,12.902,12.886,12.875,12.886,12.899,12.904,12.889,12.881,12.886,12.898,12.897,12.886,12.874,12.888,12.896,12.9,12.889,12.875,12.875,12.892,12.897,12.889,12.879,12.885,12.895,12.901,12.888,12.875,12.87,12.885,12.885,12.877,12.868,12.871,12.879,12.885,12.883,12.867,12.863,12.872,12.889,12.884,12.865,12.863,12.87,12.875,12.878,12.86,12.854,12.869,12.878,12.874,12.858,12.854,12.859,12.868,12.873,12.859,12.844,12.841,12.858,12.859,12.846,12.835,12.834,12.854,12.858,12.837,12.825,12.828,12.842,12.841,12.831,12.812,12.807,12.816,12.826,12.816,12.798,12.801,12.818,12.828,12.824,12.824,12.827,12.827,12.844,12.843,12.833,12.845,12.877,12.877,12.871,12.85,12.838,12.836,12.837,12.832,12.805,12.772,12.747,12.752,12.749,12.73,12.728,12.729,12.745,12.742,12.726,12.714,12.72,12.729,12.737,12.72,12.703,12.684,12.67,12.668,12.72,12.858,13.096,13.318,13.518,13.457,13.152,13.004,12.884,12.611,12.514,12.519,12.515,12.591,12.678,12.744,12.747,12.764,12.784,12.805,12.803,12.793,12.786,12.802,12.813,12.814,12.8,12.804,12.816,12.844,12.847,12.84,12.838,12.853,12.873,12.885,12.876,12.873,12.883,12.907,12.923,12.915,12.923,12.941,12.97,12.995,13.001,13.013,13.044,13.072,13.09,13.106,13.114,13.13,13.165,13.197,13.201,13.192,13.206,13.217,13.232,13.22,13.206,13.19,13.182,13.172,13.132,13.083,13.047,13.03,13.01,12.975,12.927,12.889,12.871,12.859,12.843,12.803,12.791,12.787,12.789,12.778,12.756,12.741,12.738,12.746,12.743,12.718,12.713,12.703,12.709,12.72,12.7,12.68,12.677,12.685,12.692,12.677,12.661,12.665,12.677,12.682,12.676,12.671,12.675,12.686,12.697,12.696,12.683,12.678,12.683,12.698,12.699,12.683,12.679,12.69,12.709,12.709,12.693,12.695,12.708,12.724,12.726,12.713,12.714,12.723,12.729,12.742,12.724,12.711,12.716,12.733,12.739,12.723,12.712,12.715,12.728,12.732,12.716,12.703,12.708,12.72,12.722,12.71,12.699,12.703,12.713,12.73,12.721,12.712,12.704,12.718,12.737,12.731,12.71,12.709,12.718,12.736,12.728,12.715,12.72,12.731,12.739,12.736,12.723,12.715,12.721,12.735,12.736,12.722,12.719,12.727,12.742,12.744,12.727,12.717,12.729,12.745,12.748,12.732,12.723,12.736,12.748,12.754,12.75,12.739,12.741,12.749,12.759,12.753,12.743,12.741,12.756,12.77,12.757,12.751,12.752,12.766,12.773,12.766,12.755,12.757,12.765,12.785,12.787,12.767,12.759,12.769,12.793,12.804,12.787,12.791,12.812,12.825,12.811,12.801,12.807,12.82,12.859,12.859,12.83,12.822,12.823,12.826,12.826,12.804,12.786,12.78,12.761,12.751,12.732,12.72,12.729,12.737,12.747,12.732,12.723,12.728,12.742,12.748,12.735,12.727,12.731,12.739,12.741,12.704,12.678,12.743,12.934,13.173,13.382,13.551,13.441,13.173,13.045,12.893,12.619,12.557,12.58,12.608,12.657,12.706,12.765,12.79,12.83,12.831,12.824,12.815,12.836,12.847,12.855,12.83,12.833,12.838,12.858,12.86,12.853,12.854,12.872,12.879,12.908,12.902,12.894,12.9,12.915,12.932,12.933,12.919,12.931,12.959,12.985,12.994,12.994,13.016,13.05,13.079,13.096,13.103,13.111,13.138,13.178,13.194,13.199,13.213,13.23,13.252,13.266,13.254,13.247,13.247,13.255,13.233,13.188,13.151,13.124,13.095,13.052,13.024,12.976,12.94,12.917,12.898,12.853,12.816,12.794,12.791,12.78,12.758,12.734,12.729,12.73,12.734,12.709,12.691,12.687,12.691,12.692,12.68,12.655,12.643,12.641,12.65,12.641,12.624,12.612,12.617,12.628,12.626,12.614,12.613,12.624,12.638,12.631,12.617,12.617,12.624,12.642,12.639,12.625,12.615,12.616,12.625,12.635,12.62,12.61,12.624,12.64,12.644,12.627,12.617,12.629,12.641,12.647,12.637,12.63,12.633,12.643,12.656,12.647,12.64,12.632,12.648,12.658,12.645,12.625,12.629,12.636,12.646,12.629,12.611,12.604,12.61,12.623,12.616,12.592,12.58,12.588,12.597,12.592,12.574,12.565,12.572,12.581,12.581,12.563,12.559,12.57,12.584,12.58,12.565,12.56,12.568,12.573,12.584,12.572,12.556,12.555,12.568,12.575,12.553,12.543,12.547,12.56,12.564,12.552,12.538,12.542,12.555,12.562,12.545,12.538,12.536,12.547,12.564,12.561,12.547,12.545,12.555,12.569,12.569,12.558,12.551,12.572,12.584,12.583,12.573,12.576,12.599,12.622,12.628,12.62,12.606,12.618,12.644,12.654,12.658,12.672,12.671,12.678,12.688,12.669,12.655,12.653,12.662,12.65,12.607,12.582,12.583,12.598,12.604,12.597,12.581,12.583,12.601,12.613,12.605,12.588,12.588,12.598,12.611,12.593,12.558,12.537,12.56,12.677,12.877,13.077,13.301,13.433,13.349,13.052,12.87,12.746,12.496,12.447,12.46,12.448,12.516,12.586,12.653,12.672,12.669,12.671,12.683,12.699,12.698,12.686,12.681,12.684,12.692,12.701,12.693,12.683,12.687,12.712,12.73,12.725,12.728,12.745,12.762,12.785,12.774,12.774,12.782,12.801,12.818,12.82,12.82,12.83,12.851,12.887,12.901,12.908,12.93,12.962,12.998,13.013,13.017,13.023,13.051,13.085,13.089,13.082,13.085,13.106,13.116,13.119,13.096,13.068,13.04,13.019,12.989,12.947,12.908,12.878,12.85,12.825,12.775,12.741,12.72,12.709,12.698,12.67,12.66,12.653,12.658,12.66,12.645,12.623,12.62,12.632,12.644,12.636,12.619,12.617,12.625,12.626,12.612,12.589,12.592,12.598,12.603,12.586,12.576,12.577,12.59,12.605,12.61,12.587,12.579,12.584,12.604,12.601,12.581,12.573,12.578,12.588,12.584,12.558,12.548,12.561,12.571,12.572,12.559,12.546,12.552,12.569,12.58,12.565,12.556,12.557,12.568,12.576,12.563,12.548,12.552,12.567,12.574,12.56,12.55,12.561,12.584,12.591,12.586,12.57,12.571,12.582,12.598,12.602,12.591,12.59,12.597,12.613,12.609,12.6,12.591,12.603,12.616,12.615,12.604,12.599,12.606,12.621,12.633,12.618,12.609,12.619,12.632,12.638,12.626,12.618,12.626,12.648,12.66,12.645,12.638,12.649,12.668,12.676,12.665,12.658,12.662,12.684,12.706,12.701,12.702,12.72,12.739,12.751,12.751,12.755,12.758,12.79,12.827,12.805,12.784,12.793,12.799,12.803,12.796,12.771,12.748,12.735,12.728,12.724,12.704,12.703,12.709,12.727,12.729,12.71,12.707,12.712,12.728,12.733,12.713,12.707,12.709,12.704,12.686,12.664,12.72,12.9,13.153,13.385,13.522,13.407,13.137,12.954,12.807,12.639,12.665,12.677,12.622,12.666,12.719,12.771,12.77,12.825,12.86,12.869,12.86,12.848,12.857,12.869,12.874,12.863,12.869,12.888,12.909,12.913,12.905,12.914,12.936,12.961,12.96,12.944,12.946,12.953,12.973,12.985,12.978,12.983,12.993,13.022,13.044,13.041,13.056,13.084,13.124,13.156,13.161,13.174,13.201,13.232,13.253,13.255,13.248,13.256,13.278,13.295,13.286,13.275,13.273,13.268,13.261,13.228,13.185,13.152,13.124,13.1,13.056,13.008,12.98,12.956,12.949,12.93,12.888,12.867,12.858,12.862,12.851,12.83,12.816,12.817,12.825,12.82,12.808,12.794,12.802,12.813,12.806,12.786,12.77,12.769,12.777,12.777,12.757,12.743,12.742,12.753,12.772,12.762,12.759,12.763,12.777,12.782,12.771,12.759,12.764,12.776,12.781,12.767,12.763,12.759,12.769,12.781,12.769,12.754,12.748,12.76,12.768,12.764,12.747,12.743,12.751,12.758,12.75,12.735,12.722,12.726,12.739,12.743,12.723,12.714,12.72,12.731,12.732,12.719,12.706,12.707,12.72,12.722,12.706,12.697,12.703,12.711,12.716,12.7,12.689,12.692,12.699,12.708,12.697,12.682,12.686,12.697,12.712,12.709,12.698,12.697,12.711,12.72,12.71,12.696,12.696,12.705,12.711,12.703,12.691,12.69,12.698,12.709,12.71,12.691,12.686,12.693,12.702,12.708,12.689,12.697,12.716,12.736,12.753,12.74,12.736,12.751,12.771,12.78,12.777,12.787,12.783,12.79,12.799,12.785,12.762,12.754,12.768,12.759,12.725,12.684,12.678,12.686,12.695,12.685,12.671,12.674,12.685,12.696,12.694,12.686,12.682,12.687,12.701,12.693,12.654,12.627,12.628,12.724,12.912,13.118,13.332,13.508,13.349,13.133,12.982,12.76,12.598,12.493,12.503,12.523,12.599,12.675,12.739,12.773,12.769,12.769,12.768,12.783,12.788,12.774,12.767,12.776,12.797,12.812,12.799,12.801,12.8,12.818,12.844,12.87,12.863,12.866,12.891,12.907,12.912,12.907,12.915,12.933,12.956,12.955,12.961,12.973,13.003,13.038,13.049,13.053,13.071,13.105,13.139,13.163,13.164,13.18,13.207,13.234,13.25,13.242,13.247,13.255,13.269,13.263,13.232,13.2,13.179,13.157,13.14,13.093,13.043,13.008,12.99,12.968,12.927,12.892,12.875,12.876,12.873,12.852,12.829,12.822,12.83,12.838,12.816,12.802,12.801,12.806,12.816,12.815,12.794,12.79,12.79,12.799,12.794,12.776,12.769,12.777,12.791,12.787,12.769,12.769,12.78,12.804,12.807,12.794,12.792,12.804,12.823,12.83,12.822,12.811,12.816,12.833,12.841,12.828,12.828,12.838,12.856,12.868,12.855,12.849,12.859,12.875,12.879,12.873,12.865,12.861,12.869,12.884,12.882,12.869,12.867,12.882,12.893,12.893,12.877,12.878,12.893,12.901,12.899,12.88,12.88,12.889,12.899,12.9,12.887,12.881,12.889,12.906,12.906,12.889,12.883,12.884,12.897,12.898,12.876,12.87,12.879,12.886,12.886,12.871,12.87,12.87,12.881,12.89,12.884,12.865,12.869,12.881,12.888,12.879,12.865,12.868,12.88,12.89,12.877,12.873,12.874,12.884,12.899,12.886,12.878,12.873,12.882,12.894,12.888,12.872,12.866,12.877,12.891,12.888,12.867,12.868,12.876,12.891,12.891,12.876,12.868,12.882,12.896,12.9,12.9,12.894,12.909,12.94,12.946,12.923,12.927,12.938,12.954,12.988,12.982,12.959,12.962,12.975,12.968,12.944,12.937,12.928,12.925,12.913,12.879,12.862,12.852,12.864,12.875,12.875,12.853,12.853,12.863,12.876,12.87,12.852,12.85,12.856,12.862,12.833,12.797,12.807,12.903,13.114,13.344,13.543,13.685,13.48,13.274,13.134,12.899,12.684,12.65,12.683,12.726,12.8,12.848,12.904,12.915,12.931,12.919,12.916,12.906,12.932,12.933,12.934,12.91,12.908,12.916,12.933,12.929,12.923,12.929,12.953,12.97,12.969,12.959,12.97,12.987,13.007,13.001,12.986,12.989,13.003,13.022,13.036,13.024,13.034,13.054,13.094,13.109,13.111,13.128,13.144,13.177,13.196,13.196,13.202,13.225,13.231,13.245,13.238,13.222,13.223,13.219,13.209,13.17,13.126,13.092,13.064,13.04,12.98,12.934,12.893,12.879,12.855,12.817,12.783,12.772,12.763,12.762,12.745,12.72,12.711,12.711,12.72,12.708,12.682,12.68,12.689,12.695,12.683,12.667,12.656,12.665,12.674,12.665,12.653,12.647,12.643,12.655,12.66,12.646,12.64,12.65,12.661,12.665,12.652,12.651,12.654,12.675,12.674,12.654,12.646,12.651,12.666,12.673,12.656,12.651,12.655,12.66,12.679,12.674,12.654,12.663,12.667,12.679,12.661,12.656,12.66,12.675,12.683,12.673,12.657,12.659,12.665,12.682,12.681,12.656,12.653,12.659,12.667,12.665,12.647,12.639,12.643,12.657,12.647,12.633,12.624,12.629,12.645,12.638,12.619,12.613,12.615,12.624,12.631,12.615,12.598,12.598,12.606,12.606,12.597,12.577,12.577,12.59,12.591,12.574,12.57,12.571,12.582,12.582,12.577,12.555,12.55,12.559,12.567,12.559,12.54,12.536,12.542,12.557,12.553,12.533,12.534,12.54,12.557,12.548,12.529,12.531,12.541,12.55,12.55,12.532,12.528,12.532,12.543,12.546,12.523,12.513,12.515,12.532,12.535,12.517,12.504,12.509,12.527,12.527,12.518,12.522,12.531,12.556,12.576,12.557,12.552,12.564,12.597,12.636,12.625,12.596,12.593,12.595,12.592,12.573,12.56,12.552,12.533,12.519,12.506,12.501,12.485,12.49,12.512,12.509,12.488,12.49,12.499,12.51,12.516,12.499,12.494,12.499,12.507,12.48,12.441,12.452,12.576,12.801,12.923,13.118,13.299,13.209,12.953,12.795,12.654,12.476,12.325,12.325,12.375,12.434,12.501,12.536,12.584,12.594,12.603,12.583,12.603,12.602,12.632,12.618,12.61,12.599,12.621,12.63,12.638,12.619,12.634,12.653,12.678,12.678,12.672,12.677,12.702,12.713,12.718,12.708,12.716,12.718,12.748,12.765,12.766,12.769,12.796,12.829,12.861,12.873,12.885,12.917,12.949,12.977,12.981,12.994,13.015,13.041,13.055,13.046,13.044,13.048,13.046,13.054,13.025,12.99,12.958,12.935,12.911,12.866,12.819,12.788,12.765,12.747,12.713,12.679,12.657,12.656,12.654,12.646,12.616,12.609,12.606,12.617,12.611,12.587,12.576,12.589,12.598,12.597,12.574,12.568,12.566,12.575,12.574,12.553,12.54,12.55,12.556,12.567,12.553,12.545,12.551,12.568,12.574,12.562,12.549,12.555,12.566,12.575,12.559,12.548,12.549,12.563,12.572,12.564,12.55,12.554,12.559,12.573,12.564,12.558,12.555,12.562,12.573,12.569,12.551,12.547,12.558,12.575,12.565,12.552,12.549,12.557,12.567,12.557,12.55,12.542,12.542,12.559,12.56,12.543,12.535,12.534,12.546,12.551,12.532,12.522,12.528,12.542,12.548,12.535,12.517,12.528,12.544,12.551,12.539,12.527,12.523,12.537,12.551,12.542,12.526,12.528,12.543,12.553,12.544,12.527,12.528,12.542,12.55,12.539,12.524,12.513,12.518,12.536,12.533,12.516,12.506,12.515,12.531,12.527,12.512,12.506,12.511,12.523,12.524,12.503,12.501,12.506,12.524,12.519,12.502,12.495,12.498,12.51,12.515,12.495,12.482,12.481,12.5,12.509,12.503,12.501,12.517,12.542,12.544,12.53,12.539,12.549,12.591,12.606,12.591,12.563,12.557,12.555,12.566,12.548,12.525,12.506,12.49,12.483,12.476,12.459,12.459,12.461,12.478,12.48,12.457,12.456,12.464,12.469,12.475,12.459,12.447,12.443,12.443,12.422,12.387,12.414,12.563,12.696,13.029,13.237,13.195,12.922,12.733,12.619,12.38,12.345,12.358,12.363,12.351,12.412,12.445,12.513,12.541,12.576,12.573,12.564,12.564,12.584,12.59,12.587,12.579,12.587,12.605,12.631,12.623,12.619,12.618,12.64,12.662,12.673,12.668,12.665,12.676,12.701,12.714,12.702,12.703,12.728,12.753,12.761,12.771,12.777,12.81,12.841,12.862,12.866,12.877,12.904,12.938,12.967,12.972,12.975,12.984,13.017,13.037,13.032,13.021,13.015,13.027,13.011,12.984,12.945,12.917,12.885,12.87,12.831,12.782,12.754,12.731,12.718,12.688,12.649,12.637,12.627,12.633,12.62,12.601,12.591,12.6,12.613,12.602,12.584,12.58,12.582,12.589,12.597,12.579,12.568,12.572,12.588,12.595,12.577,12.571,12.575,12.585,12.594,12.587,12.576,12.592,12.61,12.614,12.605,12.601,12.599,12.615,12.627,12.622,12.607,12.605,12.618,12.63,12.625,12.614,12.613,12.624,12.633,12.626,12.613,12.612,12.622,12.635,12.633,12.615,12.61,12.619,12.626,12.628,12.613,12.606,12.613,12.628,12.626,12.612,12.604,12.613,12.628,12.628,12.606,12.596,12.61,12.616,12.626,12.612,12.604,12.607,12.621,12.633,12.623,12.612,12.61,12.62,12.634,12.622,12.612,12.611,12.628,12.632,12.622,12.605,12.604,12.611,12.62,12.614,12.596,12.589,12.594,12.607,12.61,12.597,12.598,12.617,12.644,12.649,12.623,12.615,12.642,12.66,12.682,12.691,12.678,12.665,12.681,12.685,12.662,12.636,12.632,12.635,12.621,12.572,12.553,12.556,12.565,12.574,12.548,12.539,12.546,12.558,12.564,12.556,12.54,12.534,12.544,12.555,12.532,12.488,12.458,12.509,12.661,12.887,13.088,13.29,13.337,13.071,12.881,12.731,12.462,12.402,12.428,12.412,12.383,12.45,12.518,12.578,12.599,12.59,12.59,12.59,12.6,12.591,12.577,12.57,12.588,12.601,12.604,12.594,12.602,12.605,12.627,12.646,12.646,12.636,12.641,12.652,12.666,12.656,12.651,12.658,12.677,12.701,12.703,12.703,12.723,12.748,12.779,12.783,12.793,12.806,12.842,12.881,12.897,12.902,12.921,12.951,12.985,12.999,12.996,12.998,13.011,13.022,13.009,12.978,12.951,12.928,12.917,12.895,12.843,12.794,12.764,12.744,12.72,12.682,12.646,12.639,12.643,12.632,12.616,12.603,12.601,12.611,12.611,12.595,12.588,12.594,12.6,12.61,12.604,12.587,12.584,12.591,12.597,12.584,12.568,12.565,12.572,12.578,12.569,12.563,12.573,12.587,12.607,12.605,12.593,12.592,12.599,12.617,12.621,12.608,12.604,12.612,12.623,12.624,12.606,12.602,12.607,12.622,12.625,12.612,12.606,12.616,12.634,12.638,12.629,12.622,12.618,12.632,12.642,12.639,12.626,12.628,12.637,12.649,12.643,12.63,12.638,12.649,12.656,12.644,12.629,12.636,12.642,12.651,12.648,12.631,12.621,12.631,12.639,12.636,12.621,12.619,12.624,12.64,12.636,12.621,12.618,12.632,12.642,12.64,12.631,12.63,12.633,12.645,12.652,12.639,12.631,12.633,12.645,12.654,12.64,12.626,12.63,12.644,12.649,12.635,12.623,12.627,12.644,12.647,12.633,12.622,12.626,12.638,12.652,12.646,12.627,12.626,12.638,12.653,12.651,12.653,12.661,12.689,12.7,12.685,12.681,12.69,12.705,12.744,12.756,12.73,12.72,12.723,12.732,12.722,12.702,12.692,12.686,12.679,12.655,12.627,12.616,12.623,12.638,12.638,12.625,12.622,12.628,12.635,12.651,12.634,12.622,12.622,12.627,12.616,12.588,12.566,12.649,12.839,13.077,13.284,13.447,13.306,13.09,12.961,12.751,12.478,12.421,12.446,12.469,12.561,12.606,12.671,12.692,12.721,12.722,12.711,12.699,12.717,12.737,12.733,12.714,12.719,12.732,12.759,12.762,12.757,12.755,12.778,12.802,12.817,12.811,12.809,12.823,12.844,12.857,12.848,12.848,12.86,12.885,12.911,12.91,12.914,12.936,12.975,12.992,13.006,13.015,13.035,13.067,13.097,13.108,13.115,13.129,13.149,13.179,13.179,13.168,13.166,13.168,13.166,13.142,13.097,13.058,13.045,13.024,12.982,12.934,12.888,12.866,12.846,12.826,12.786,12.763,12.754,12.757,12.754,12.727,12.713,12.717,12.725,12.722,12.704,12.7,12.691,12.706,12.714,12.697,12.685,12.683,12.686,12.693,12.683,12.674,12.666,12.674,12.684,12.679,12.668,12.671,12.689,12.696,12.685,12.679,12.679,12.686,12.697,12.694,12.679,12.672,12.674,12.689,12.688,12.677,12.67,12.683,12.697,12.696,12.678,12.676,12.685,12.696,12.696,12.684,12.671,12.674,12.69,12.698,12.687,12.669,12.675,12.688,12.696,12.678,12.666,12.665,12.674,12.68,12.659,12.644,12.648,12.652,12.665,12.657,12.637,12.632,12.645,12.662,12.65,12.631,12.63,12.636,12.646,12.642,12.619,12.615,12.632,12.638,12.628,12.615,12.615,12.622,12.634,12.638,12.623,12.614,12.615,12.633,12.643,12.623,12.616,12.622,12.641,12.642,12.631,12.624,12.629,12.641,12.647,12.639,12.622,12.616,12.631,12.644,12.634,12.621,12.623,12.636,12.65,12.64,12.628,12.626,12.643,12.653,12.643,12.626,12.625,12.64,12.647,12.65,12.638,12.634,12.657,12.687,12.683,12.655,12.662,12.679,12.708,12.74,12.714,12.694,12.695,12.695,12.678,12.644,12.634,12.629,12.625,12.599,12.567,12.547,12.548,12.558,12.557,12.546,12.531,12.532,12.543,12.547,12.53,12.52,12.525,12.536,12.53,12.492,12.475,12.47,12.562,12.763,12.987,13.185,13.346,13.194,12.969,12.825,12.633,12.391,12.348,12.384,12.405,12.492,12.544,12.601,12.621,12.638,12.62,12.622,12.628,12.648,12.648,12.641,12.626,12.642,12.661,12.678,12.664,12.674,12.688,12.718,12.726,12.725,12.717,12.739,12.743,12.766,12.767,12.762,12.77,12.792,12.811,12.822,12.82,12.835,12.873,12.906,12.912,12.927,12.952,12.987,13.023,13.034,13.041,13.051,13.071,13.1,13.109,13.103,13.101,13.101,13.118,13.103,13.067,13.038,13.019,12.993,12.958,12.901,12.864,12.84,12.825,12.796,12.775,12.738,12.716,12.717,12.711,12.684,12.664,12.658,12.67,12.67,12.654,12.644,12.643,12.653,12.665,12.644,12.632,12.634,12.647,12.654,12.649,12.634,12.626,12.638,12.65,12.646,12.64,12.638,12.655,12.667,12.66,12.652,12.653,12.669,12.682,12.676,12.663,12.654,12.667,12.676,12.678,12.663,12.659,12.669,12.686,12.692,12.68,12.677,12.683,12.704,12.703,12.684,12.674,12.678,12.694,12.702,12.682,12.672,12.677,12.69,12.702,12.687,12.679,12.674,12.685,12.693,12.683,12.668,12.667,12.68,12.69,12.684,12.669,12.672,12.682,12.692,12.68,12.669,12.666,12.671,12.688,12.686,12.669,12.659,12.673,12.686,12.684,12.669,12.66,12.666,12.68,12.677,12.664,12.656,12.667,12.679,12.68,12.666,12.654,12.655,12.669,12.674,12.666,12.655,12.658,12.673,12.684,12.672,12.661,12.663,12.676,12.688,12.675,12.666,12.673,12.677,12.69,12.688,12.669,12.67,12.678,12.696,12.695,12.678,12.673,12.688,12.705,12.697,12.681,12.678,12.689,12.701,12.698,12.683,12.678,12.682,12.697,12.707,12.697,12.694,12.706,12.729,12.75,12.736,12.72,12.746,12.764,12.8,12.808,12.784,12.775,12.79,12.784,12.772,12.747,12.742,12.746,12.734,12.699,12.675,12.676,12.682,12.697,12.688,12.674,12.675,12.687,12.703,12.693,12.686,12.689,12.696,12.702,12.697,12.663,12.63,12.643,12.76,12.968,13.17,13.391,13.528,13.292,13.096,12.953,12.719,12.544,12.537,12.545,12.569,12.66,12.683,12.755,12.786,12.791,12.779,12.785,12.796,12.812,12.8,12.793,12.792,12.814,12.823,12.822,12.813,12.832,12.858,12.877,12.874,12.871,12.877,12.896,12.911,12.919,12.908,12.914,12.931,12.957,12.964,12.962,12.971,13,13.031,13.048,13.049,13.063,13.093,13.128,13.146,13.148,13.162,13.179,13.207,13.227,13.217,13.206,13.216,13.23,13.23,13.198,13.172,13.143,13.129,13.101,13.049,13.004,12.979,12.968,12.941,12.901,12.857,12.835,12.833,12.828,12.808,12.785,12.771,12.778,12.793,12.775,12.759,12.753,12.768,12.765,12.757,12.742,12.742,12.736,12.75,12.748,12.735,12.721,12.724,12.731,12.739,12.719,12.716,12.728,12.747,12.753,12.733,12.723,12.732,12.747,12.748,12.732,12.728,12.728,12.74,12.75,12.736,12.72,12.723,12.749,12.75,12.739,12.726,12.727,12.737,12.741,12.73,12.717,12.71,12.719,12.729,12.723,12.704,12.704,12.716,12.732,12.728,12.71,12.715,12.717,12.731,12.726,12.707,12.702,12.711,12.725,12.717,12.7,12.702,12.716,12.725,12.726,12.714,12.692,12.701,12.711,12.718,12.698,12.69,12.694,12.699,12.705,12.69,12.683,12.691,12.698,12.705,12.693,12.683,12.683,12.695,12.71,12.697,12.686,12.685,12.699,12.718,12.715,12.69,12.691,12.697,12.714,12.706,12.695,12.69,12.699,12.713,12.702,12.689,12.694,12.695,12.713,12.717,12.699,12.685,12.694,12.712,12.718,12.71,12.707,12.716,12.739,12.75,12.751,12.735,12.748,12.776,12.789,12.793,12.813,12.8,12.808,12.824,12.814,12.788,12.779,12.789,12.794,12.763,12.732,12.736,12.748,12.759,12.748,12.739,12.747,12.754,12.77,12.777,12.755,12.747,12.765,12.765,12.772,12.755,12.717,12.712,12.773,12.928,13.149,13.371,13.558,13.535,13.252,13.043,12.967,12.788,12.705,12.757,12.707,12.657,12.716,12.791,12.853,12.863,12.875,12.892,12.906,12.918,12.898,12.889,12.891,12.915,12.925,12.922,12.905,12.917,12.933,12.959,12.96,12.954,12.961,12.982,12.99,12.993,12.984,12.985,13.006,13.029,13.029,13.026,13.033,13.07,13.088,13.108,13.114,13.128,13.153,13.197,13.22,13.221,13.239,13.261,13.291,13.307,13.299,13.301,13.317,13.336,13.334,13.312,13.291,13.28,13.265,13.243,13.203,13.156,13.129,13.107,13.085,13.041,13.002,12.981,12.978,12.977,12.946,12.924,12.918,12.928,12.939,12.922,12.915,12.912,12.919,12.933,12.929,12.916,12.908,12.917,12.926,12.917,12.896,12.887,12.887,12.9,12.899,12.889,12.891,12.901,12.926,12.924,12.91,12.9,12.907,12.918,12.929,12.917,12.903,12.906,12.919,12.932,12.913,12.901,12.91,12.918,12.924,12.911,12.899,12.896,12.911,12.916,12.912,12.896,12.894,12.902,12.916,12.908,12.89,12.887,12.893,12.908,12.902,12.882,12.88,12.883,12.897,12.895,12.876,12.873,12.879,12.895,12.899,12.884,12.873,12.883,12.896,12.901,12.882,12.877,12.887,12.897,12.904,12.887,12.879,12.886,12.898,12.901,12.885,12.882,12.88,12.89,12.9,12.889,12.873,12.875,12.888,12.901,12.889,12.882,12.882,12.895,12.91,12.902,12.887,12.889,12.903,12.91,12.908,12.891,12.891,12.894,12.908,12.906,12.89,12.886,12.902,12.927,12.94,12.928,12.94,12.959,12.96,12.961,12.957,12.954,12.979,13.004,13.019,12.995,12.977,12.979,12.984,12.984,12.968,12.947,12.933,12.919,12.908,12.894,12.879,12.885,12.892,12.904,12.893,12.885,12.88,12.892,12.903,12.899,12.884,12.883,12.875,12.867,12.844,12.886,13.031,13.271,13.495,13.686,13.66,13.381,13.254,13.122,12.794,12.705,12.689,12.696,12.78,12.86,12.911,12.925,12.952,12.962,12.969,12.945,12.937,12.941,12.957,12.955,12.942,12.936,12.949,12.965,12.98,12.966,12.97,12.981,13.004,13.021,13.012,13,13.015,13.026,13.046,13.041,13.04,13.051,13.071,13.096,13.106,13.108,13.134,13.148,13.185,13.206,13.212,13.23,13.258,13.292,13.311,13.31,13.318,13.335,13.356,13.358,13.345,13.333,13.334,13.333,13.305,13.255,13.232,13.206,13.176,13.149,13.095,13.05,13.028,13.012,12.992,12.958,12.928,12.923,12.927,12.923,12.902,12.884,12.882,12.887,12.889,12.884,12.861,12.854,12.861,12.876,12.861,12.842,12.835,12.838,12.848,12.843,12.824,12.822,12.828,12.84,12.834,12.821,12.825,12.833,12.836,12.843,12.827,12.816,12.823,12.832,12.835,12.816,12.793,12.796,12.812,12.815,12.801,12.796,12.806,12.822,12.823,12.809,12.799,12.801,12.815,12.821,12.809,12.799,12.795,12.805,12.812,12.803,12.79,12.791,12.8,12.806,12.792,12.778,12.77,12.778,12.785,12.776,12.761,12.755,12.765,12.773,12.77,12.757,12.751,12.755,12.764,12.765,12.753,12.749,12.751,12.765,12.766,12.751,12.745,12.75,12.763,12.761,12.751,12.743,12.743,12.758,12.764,12.749,12.74,12.736,12.757,12.764,12.751,12.738,12.743,12.756,12.761,12.742,12.733,12.738,12.75,12.76,12.759,12.744,12.738,12.746,12.761,12.758,12.74,12.741,12.745,12.756,12.755,12.735,12.73,12.74,12.751,12.746,12.722,12.718,12.719,12.726,12.735,12.722,12.715,12.729,12.749,12.768,12.768,12.755,12.754,12.777,12.786,12.778,12.799,12.811,12.811,12.814,12.794,12.782,12.772,12.772,12.783,12.758,12.718,12.69,12.695,12.702,12.691,12.678,12.672,12.679,12.693,12.685,12.668,12.669,12.683,12.692,12.685,12.665,12.643,12.623,12.644,12.736,12.908,13.128,13.353,13.524,13.328,13.096,12.958,12.768,12.559,12.521,12.517,12.548,12.651,12.675,12.748,12.751,12.756,12.759,12.778,12.783,12.779,12.773,12.774,12.785,12.804,12.795,12.791,12.804,12.827,12.847,12.85,12.847,12.851,12.861,12.882,12.882,12.87,12.873,12.888,12.903,12.91,12.901,12.913,12.938,12.969,12.982,12.987,13,13.031,13.065,13.081,13.081,13.091,13.115,13.139,13.161,13.159,13.16,13.173,13.189,13.194,13.172,13.158,13.144,13.133,13.115,13.063,13.015,12.987,12.966,12.957,12.918,12.869,12.842,12.836,12.826,12.797,12.768,12.756,12.764,12.76,12.75,12.727,12.728,12.731,12.744,12.734,12.716,12.714,12.72,12.731,12.73,12.707,12.699,12.709,12.72,12.716,12.696,12.693,12.705,12.726,12.728,12.708,12.711,12.722,12.736,12.74,12.725,12.718,12.72,12.729,12.743,12.731,12.717,12.718,12.73,12.747,12.739,12.727,12.733,12.753,12.764,12.752,12.741,12.744,12.765,12.769,12.77,12.753,12.748,12.759,12.774,12.767,12.754,12.754,12.761,12.771,12.769,12.75,12.749,12.753,12.772,12.77,12.749,12.744,12.755,12.779,12.778,12.758,12.75,12.759,12.767,12.774,12.755,12.741,12.75,12.763,12.768,12.747,12.735,12.737,12.751,12.751,12.73,12.718,12.719,12.729,12.741,12.731,12.713,12.711,12.72,12.733,12.724,12.703,12.705,12.719,12.729,12.72,12.7,12.701,12.708,12.718,12.709,12.692,12.684,12.694,12.704,12.705,12.685,12.678,12.685,12.695,12.697,12.688,12.682,12.687,12.702,12.698,12.679,12.664,12.676,12.693,12.687,12.681,12.67,12.675,12.695,12.713,12.715,12.713,12.709,12.715,12.735,12.732,12.745,12.775,12.783,12.784,12.761,12.752,12.743,12.739,12.749,12.739,12.702,12.666,12.67,12.674,12.669,12.652,12.649,12.658,12.671,12.666,12.646,12.641,12.656,12.666,12.66,12.64,12.624,12.613,12.606,12.623,12.718,12.908,13.129,13.363,13.494,13.222,13.014,12.895,12.681,12.508,12.474,12.474,12.524,12.62,12.684,12.706,12.704,12.724,12.724,12.752,12.739,12.732,12.727,12.748,12.752,12.758,12.74,12.748,12.763,12.795,12.787,12.79,12.795,12.815,12.83,12.836,12.824,12.826,12.838,12.862,12.87,12.862
