16.51,16.496,16.5,16.492,16.492,16.494,16.499,16.506,16.533,16.526,16.499,16.488,16.503,16.518,16.536,16.55,16.539,16.553,16.564,16.581,16.576,16.57,16.571,16.584,16.592,16.604,16.597,16.609,16.634,16.653,16.672,16.68,16.684,16.702,16.73,16.751,16.756,16.765,16.801,16.824,16.847,16.865,16.868,16.872,16.899,16.923,16.93,16.916,16.916,16.904,16.883,16.813,16.761,16.728,16.693,16.65,16.615,16.59,16.576,16.572,16.57,16.545,16.53,16.519,16.51,16.522,16.522,16.519,16.526,16.513,16.498,16.496,16.506,16.493,16.487,16.494,16.491,16.488,16.498,16.503,16.504,16.513,16.5,16.501,16.511,16.517,16.518,16.494,16.484,16.509,16.506,16.495,16.493,16.504,16.498,16.485,16.486,16.474,16.457,16.448,16.463,16.475,16.466,16.452,16.453,16.465,16.447,16.457,16.458,16.459,16.43,16.427,16.417,16.42,16.439,16.452,16.466,16.472,16.467,16.453,16.445,16.46,16.472,16.495,16.521,16.545,16.519,16.498,16.471,16.459,16.424,16.411,16.4,16.377,16.379,16.386,16.401,16.396,16.402,16.38,16.383,16.376,16.39,16.374,16.337,16.382,16.516,16.802,17.176,17.544,17.672,17.67,17.56,16.978,16.428,16.295,16.334,16.393,16.45,16.472,16.471,16.483,16.464,16.453,16.443,16.443,16.443,16.451,16.462,16.464,16.464,16.463,16.451,16.448,16.456,16.458,16.475,16.488,16.488,16.508,16.512,16.505,16.515,16.515,16.521,16.516,16.534,16.564,16.57,16.557,16.571,16.6,16.62,16.633,16.645,16.619,16.617,16.646,16.682,16.7,16.699,16.709,16.738,16.758,16.783,16.805,16.815,16.825,16.857,16.854,16.827,16.818,16.808,16.799,16.782,16.724,16.677,16.614,16.604,16.575,16.53,16.512,16.502,16.498,16.49,16.483,16.471,16.448,16.427,16.421,16.43,16.432,16.45,16.461,16.452,16.429,16.414,16.423,16.437,16.445,16.435,16.44,16.454,16.445,16.446,16.454,16.471,16.48,16.457,16.46,16.454,16.461,16.459,16.454,16.446,16.461,16.472,16.458,16.44,16.436,16.445,16.454,16.451,16.456,16.439,16.453,16.442,16.438,16.441,16.436,16.418,16.44,16.445,16.449,16.447,16.449,16.451,16.457,16.486,16.505,16.52,16.501,16.514,16.556,16.56,16.533,16.51,16.5,16.478,16.436,16.424,16.417,16.429,16.449,16.452,16.422,16.423,16.42,16.426,16.429,16.425,16.408,16.395,16.393,16.436,16.593,16.873,17.274,17.603,17.724,17.741,17.674,17.324,16.714,16.372,16.409,16.485,16.547,16.564,16.55,16.513,16.484,16.479,16.483,16.492,16.495,16.482,16.474,16.483,16.487,16.497,16.499,16.504,16.492,16.504,16.524,16.514,16.515,16.519,16.548,16.564,16.557,16.542,16.544,16.573,16.586,16.561,16.563,16.573,16.575,16.598,16.629,16.645,16.641,16.666,16.675,16.695,16.705,16.714,16.729,16.775,16.795,16.786,16.791,16.816,16.847,16.86,16.861,16.86,16.852,16.841,16.829,16.811,16.767,16.716,16.68,16.632,16.582,16.547,16.526,16.514,16.504,16.498,16.481,16.476,16.472,16.479,16.455,16.447,16.452,16.47,16.463,16.433,16.448,16.446,16.441,16.44,16.447,16.449,16.452,16.454,16.46,16.466,16.478,16.469,16.477,16.471,16.475,16.474,16.468,16.473,16.456,16.46,16.46,16.459,16.47,16.476,16.485,16.496,16.5,16.477,16.476,16.48,16.485,16.471,16.445,16.45,16.481,16.487,16.484,16.477,16.472,16.483,16.496,16.496,16.504,16.527,16.556,16.551,16.549,16.548,16.562,16.578,16.599,16.606,16.6,16.564,16.552,16.536,16.514,16.477,16.464,16.462,16.46,16.431,16.417,16.437,16.441,16.451,16.434,16.431,16.425,16.433,16.4,16.39,16.435,16.614,16.94,17.381,17.647,17.726,17.711,17.496,16.911,16.456,16.378,16.449,16.527,16.563,16.557,16.517,16.503,16.475,16.47,16.471,16.474,16.482,16.494,16.496,16.48,16.477,16.5,16.508,16.497,16.489,16.516,16.51,16.5,16.501,16.524,16.535,16.552,16.558,16.563,16.553,16.554,16.559,16.586,16.599,16.604,16.608,16.621,16.638,16.648,16.649,16.653,16.678,16.711,16.741,16.754,16.758,16.782,16.797,16.814,16.838,16.852,16.862,16.853,16.878,16.885,16.876,16.842,16.812,16.787,16.782,16.728,16.68,16.631,16.577,16.55,16.527,16.525,16.513,16.51,16.503,16.497,16.471,16.455,16.468,16.478,16.482,16.46,16.461,16.456,16.469,16.478,16.477,16.472,16.474,16.467,16.487,16.486,16.479,16.469,16.483,16.491,16.464,16.462,16.469,16.47,16.475,16.472,16.465,16.486,16.506,16.504,16.496,16.485,16.478,16.475,16.477,16.475,16.465,16.458,16.452,16.46,16.463,16.456,16.458,16.472,16.474,16.469,16.463,16.452,16.447,16.462,16.454,16.454,16.465,16.47,16.487,16.501,16.475,16.463,16.475,16.493,16.519,16.511,16.502,16.529,16.545,16.539,16.513,16.494,16.488,16.455,16.433,16.405,16.408,16.415,16.439,16.448,16.421,16.401,16.396,16.41,16.416,16.414,16.406,16.384,16.383,16.487,16.717,17.072,17.48,17.66,17.702,17.623,17.471,16.892,16.398,16.364,16.413,16.488,16.486,16.482,16.454,16.459,16.446,16.461,16.455,16.442,16.419,16.433,16.432,16.439,16.443,16.457,16.449,16.448,16.432,16.466,16.47,16.473,16.466,16.471,16.464,16.48,16.473,16.481,16.494,16.501,16.522,16.535,16.531,16.532,16.533,16.558,16.57,16.574,16.586,16.605,16.618,16.64,16.653,16.687,16.707,16.702,16.705,16.736,16.748,16.755,16.77,16.802,16.804,16.801,16.804,16.783,16.745,16.711,16.687,16.658,16.621,16.57,16.532,16.483,16.472,16.448,16.439,16.419,16.406,16.395,16.404,16.395,16.395,16.394,16.402,16.394,16.379,16.358,16.378,16.365,16.357,16.357,16.37,16.36,16.354,16.358,16.385,16.405,16.401,16.378,16.369,16.369,16.367,16.371,16.359,16.344,16.355,16.358,16.364,16.364,16.365,16.37,16.365,16.368,16.361,16.371,16.372,16.366,16.368,16.353,16.341,16.34,16.349,16.35,16.351,16.341,16.351,16.358,16.347,16.335,16.345,16.351,16.356,16.351,16.342,16.364,16.369,16.387,16.38,16.384,16.39,16.394,16.425,16.454,16.452,16.417,16.386,16.365,16.343,16.328,16.318,16.333,16.332,16.313,16.319,16.317,16.319,16.331,16.31,16.275,16.275,16.3,16.303,16.314,16.367,16.553,16.889,17.299,17.542,17.57,17.489,17.217,16.601,16.225,16.265,16.291,16.357,16.399,16.382,16.378,16.376,16.356,16.381,16.387,16.375,16.372,16.356,16.369,16.374,16.364,16.353,16.354,16.383,16.382,16.392,16.382,16.4,16.405,16.41,16.4,16.424,16.435,16.435,16.433,16.446,16.449,16.454,16.468,16.496,16.506,16.494,16.505,16.527,16.561,16.576,16.586,16.577,16.596,16.603,16.62,16.633,16.647,16.673,16.69,16.735,16.742,16.736,16.746,16.741,16.734,16.725,16.698,16.649,16.603,16.574,16.552,16.52,16.501,16.477,16.445,16.402,16.38,16.386,16.406,16.397,16.366,16.364,16.362,16.354,16.346,16.337,16.355,16.373,16.371,16.346,16.343,16.337,16.351,16.34,16.35,16.372,16.383,16.381,16.36,16.355,16.352,16.36,16.372,16.379,16.382,16.358,16.358,16.351,16.361,16.383,16.385,16.382,16.374,16.367,16.368,16.368,16.375,16.355,16.35,16.334,16.344,16.34,16.336,16.338,16.358,16.384,16.366,16.344,16.319,16.307,16.315,16.322,16.315,16.314,16.321,16.361,16.355,16.355,16.363,16.38,16.382,16.378,16.374,16.392,16.439,16.454,16.43,16.385,16.373,16.375,16.365,16.327,16.317,16.32,16.308,16.301,16.3,16.297,16.299,16.318,16.327,16.313,16.302,16.29,16.277,16.273,16.355,16.576,16.938,17.168,17.476,17.575,17.564,17.45,16.856,16.343,16.249,16.298,16.352,16.388,16.377,16.372,16.357,16.382,16.376,16.366,16.354,16.368,16.361,16.374,16.377,16.411,16.377,16.359,16.363,16.39,16.394,16.405,16.393,16.395,16.398,16.418,16.433,16.454,16.461,16.48,16.469,16.455,16.436,16.447,16.472,16.481,16.481,16.501,16.517,16.536,16.57,16.583,16.602,16.624,16.625,16.631,16.645,16.66,16.682,16.693,16.707,16.73,16.741,16.753,16.766,16.776,16.767,16.736,16.684,16.636,16.621,16.568,16.54,16.516,16.465,16.406,16.402,16.385,16.377,16.362,16.368,16.366,16.372,16.361,16.365,16.358,16.364,16.361,16.348,16.339,16.356,16.347,16.343,16.341,16.346,16.355,16.353,16.345,16.335,16.334,16.345,16.349,16.383,16.381,16.359,16.346,16.343,16.346,16.348,16.35,16.358,16.358,16.361,16.364,16.353,16.35,16.35,16.356,16.349,16.355,16.345,16.346,16.345,16.347,16.351,16.367,16.364,16.336,16.328,16.323,16.318,16.327,16.333,16.321,16.311,16.322,16.315,16.306,16.29,16.288,16.311,16.334,16.336,16.33,16.331,16.321,16.315,16.324,16.328,16.342,16.362,16.378,16.38,16.369,16.334,16.311,16.269,16.26,16.246,16.228,16.222,16.256,16.283,16.277,16.234,16.218,16.252,16.254,16.233,16.179,16.176,16.223,16.358,16.627,17.02,17.349,17.432,17.51,17.467,17.17,16.575,16.196,16.173,16.257,16.323,16.314,16.327,16.309,16.304,16.275,16.288,16.287,16.301,16.309,16.322,16.318,16.321,16.304,16.295,16.272,16.289,16.311,16.341,16.355,16.35,16.334,16.339,16.336,16.355,16.374,16.386,16.375,16.372,16.389,16.407,16.41,16.413,16.436,16.453,16.471,16.478,16.52,16.538,16.537,16.535,16.531,16.553,16.59,16.61,16.621,16.645,16.673,16.693,16.705,16.715,16.708,16.711,16.715,16.691,16.671,16.629,16.582,16.537,16.502,16.465,16.433,16.411,16.395,16.371,16.36,16.328,16.314,16.316,16.314,16.305,16.303,16.295,16.283,16.271,16.285,16.299,16.304,16.292,16.272,16.266,16.261,16.262,16.269,16.278,16.297,16.282,16.281,16.286,16.289,16.284,16.277,16.282,16.276,16.291,16.291,16.29,16.293,16.314,16.308,16.298,16.296,16.271,16.255,16.255,16.26,16.273,16.287,16.294,16.288,16.282,16.277,16.264,16.253,16.261,16.277,16.271,16.266,16.278,16.274,16.26,16.263,16.248,16.249,16.249,16.237,16.249,16.257,16.256,16.251,16.289,16.335,16.323,16.272,16.258,16.275,16.299,16.304,16.303,16.324,16.34,16.346,16.336,16.314,16.3,16.273,16.259,16.244,16.235,16.235,16.248,16.261,16.246,16.239,16.232,16.221,16.215,16.212,16.208,16.198,16.189,16.251,16.405,16.701,17.108,17.404,17.457,17.514,17.456,17.079,16.519,16.204,16.201,16.295,16.321,16.308,16.295,16.291,16.289,16.266,16.276,16.279,16.276,16.268,16.276,16.277,16.295,16.298,16.301,16.261,16.266,16.298,16.329,16.329,16.312,16.303,16.31,16.335,16.342,16.35,16.353,16.38,16.403,16.411,16.406,16.401,16.413,16.418,16.408,16.422,16.446,16.464,16.489,16.516,16.537,16.54,16.564,16.579,16.614,16.633,16.642,16.659,16.693,16.713,16.726,16.716,16.718,16.701,16.681,16.656,16.623,16.606,16.559,16.515,16.482,16.445,16.416,16.405,16.37,16.332,16.308,16.31,16.291,16.3,16.296,16.275,16.268,16.288,16.304,16.302,16.267,16.249,16.254,16.255,16.257,16.252,16.245,16.249,16.262,16.28,16.268,16.254,16.249,16.239,16.253,16.253,16.248,16.255,16.278,16.274,16.252,16.243,16.224,16.235,16.238,16.246,16.238,16.238,16.251,16.233,16.217,16.213,16.219,16.229,16.232,16.225,16.227,16.222,16.211,16.214,16.218,16.212,16.202,16.201,16.207,16.224,16.232,16.247,16.259,16.267,16.278,16.274,16.275,16.287,16.296,16.305,16.297,16.288,16.297,16.301,16.285,16.24,16.22,16.218,16.247,16.226,16.213,16.203,16.214,16.243,16.259,16.231,16.228,16.236,16.232,16.209,16.215,16.279,16.505,16.871,17.274,17.49,17.516,17.454,17.126,16.485,16.128,16.185,16.238,16.277,16.314,16.305,16.291,16.295,16.291,16.299,16.293,16.282,16.281,16.299,16.297,16.313,16.321,16.328,16.302,16.3,16.31,16.309,16.313,16.328,16.344,16.34,16.349,16.363,16.361,16.356,16.345,16.341,16.354,16.386,16.423,16.425,16.412,16.41,16.438,16.452,16.448,16.471,16.479,16.496,16.518,16.536,16.546,16.567,16.572,16.591,16.623,16.627,16.641,16.676,16.684,16.674,16.649,16.623,16.611,16.602,16.565,16.542,16.463,16.402,16.381,16.362,16.344,16.323,16.307,16.31,16.315,16.282,16.256,16.278,16.289,16.274,16.27,16.252,16.251,16.255,16.26,16.274,16.276,16.274,16.263,16.257,16.27,16.28,16.292,16.288,16.294,16.294,16.29,16.289,16.281,16.278,16.274,16.288,16.312,16.317,16.318,16.296,16.283,16.268,16.274,16.292,16.288,16.295,16.284,16.291,16.302,16.285,16.278,16.28,16.29,16.291,16.287,16.266,16.292,16.298,16.288,16.273,16.263,16.255,16.262,16.278,16.275,16.268,16.257,16.273,16.254,16.238,16.235,16.248,16.293,16.298,16.291,16.28,16.274,16.291,16.289,16.302,16.314,16.343,16.355,16.355,16.346,16.322,16.314,16.296,16.259,16.236,16.232,16.236,16.256,16.275,16.27,16.253,16.216,16.195,16.209,16.212,16.205,16.201,16.207,16.261,16.428,16.756,17.162,17.421,17.492,17.493,17.291,16.692,16.245,16.177,16.263,16.304,16.336,16.35,16.312,16.304,16.302,16.299,16.276,16.263,16.271,16.282,16.293,16.301,16.307,16.318,16.306,16.301,16.277,16.284,16.286,16.311,16.338,16.346,16.325,16.327,16.357,16.369,16.354,16.328,16.335,16.372,16.383,16.384,16.385,16.402,16.422,16.437,16.453,16.464,16.483,16.517,16.519,16.523,16.546,16.567,16.588,16.599,16.616,16.634,16.66,16.688,16.711,16.707,16.689,16.684,16.657,16.616,16.596,16.557,16.512,16.472,16.457,16.453,16.404,16.344,16.319,16.309,16.309,16.29,16.287,16.282,16.288,16.273,16.264,16.266,16.273,16.287,16.287,16.276,16.263,16.261,16.256,16.273,16.267,16.259,16.266,16.287,16.313,16.318,16.297,16.266,16.261,16.282,16.309,16.3,16.273,16.283,16.285,16.292,16.29,16.262,16.259,16.273,16.284,16.28,16.27,16.272,16.279,16.272,16.253,16.249,16.261,16.258,16.262,16.277,16.278,16.248,16.249,16.262,16.275,16.255,16.248,16.26,16.285,16.272,16.237,16.234,16.251,16.257,16.235,16.221,16.214,16.235,16.253,16.264,16.268,16.274,16.282,16.312,16.318,16.317,16.321,16.312,16.314,16.363,16.356,16.334,16.328,16.318,16.308,16.262,16.242,16.253,16.261,16.242,16.233,16.246,16.248,16.245,16.248,16.244,16.242,16.225,16.215,16.256,16.383,16.626,17.026,17.399,17.519,17.538,17.419,16.945,16.644,16.261,16.206,16.305,16.36,16.387,16.352,16.333,16.28,16.31,16.293,16.305,16.267,16.286,16.297,16.317,16.307,16.302,16.288,16.294,16.27,16.305,16.302,16.313,16.316,16.331,16.334,16.35,16.338,16.35,16.361,16.385,16.36,16.361,16.375,16.4,16.411,16.422,16.428,16.438,16.47,16.503,16.502,16.494,16.491,16.512,16.551,16.573,16.588,16.613,16.613,16.635,16.658,16.664,16.69,16.71,16.737,16.725,16.701,16.649,16.618,16.61,16.574,16.514,16.47,16.429,16.395,16.378,16.343,16.33,16.318,16.313,16.312,16.304,16.297,16.308,16.338,16.336,16.317,16.299,16.289,16.284,16.282,16.276,16.279,16.306,16.312,16.297,16.284,16.27,16.267,16.274,16.31,16.287,16.272,16.288,16.294,16.291,16.291,16.286,16.313,16.277,16.284,16.292,16.272,16.298,16.313,16.311,16.298,16.28,16.283,16.283,16.294,16.285,16.271,16.265,16.276,16.283,16.265,16.26,16.25,16.259,16.26,16.258,16.263,16.265,16.263,16.238,16.249,16.244,16.251,16.257,16.267,16.259,16.24,16.234,16.24,16.253,16.284,16.31,16.297,16.268,16.271,16.291,16.318,16.306,16.291,16.325,16.364,16.366,16.349,16.32,16.303,16.287,16.265,16.222,16.216,16.225,16.234,16.247,16.222,16.239,16.257,16.254,16.238,16.22,16.223,16.2,16.216,16.311,16.541,16.924,17.322,17.445,17.525,17.563,17.37,16.854,16.371,16.204,16.283,16.358,16.36,16.352,16.317,16.31,16.281,16.301,16.281,16.313,16.304,16.297,16.304,16.315,16.329,16.349,16.321,16.317,16.316,16.349,16.341,16.331,16.32,16.363,16.366,16.37,16.369,16.372,16.38,16.393,16.38,16.377,16.386,16.391,16.421,16.45,16.436,16.434,16.456,16.489,16.499,16.5,16.543,16.574,16.581,16.595,16.602,16.634,16.659,16.683,16.703,16.716,16.728,16.73,16.716,16.702,16.684,16.651,16.626,16.591,16.565,16.519,16.476,16.432,16.409,16.404,16.367,16.337,16.325,16.339,16.338,16.325,16.31,16.288,16.292,16.297,16.309,16.3,16.317,16.32,16.32,16.291,16.287,16.287,16.307,16.313,16.311,16.301,16.287,16.323,16.328,16.333,16.321,16.291,16.288,16.298,16.312,16.306,16.304,16.304,16.3,16.303,16.306,16.294,16.276,16.273,16.276,16.27,16.268,16.264,16.268,16.276,16.283,16.271,16.279,16.283,16.262,16.242,16.23,16.226,16.237,16.243,16.219,16.204,16.211,16.212,16.222,16.217,16.208,16.217,16.215,16.226,16.248,16.237,16.213,16.222,16.238,16.245,16.23,16.224,16.237,16.271,16.285,16.271,16.248,16.218,16.213,16.187,16.177,16.165,16.175,16.205,16.178,16.116,16.104,16.115,16.123,16.141,16.142,16.129,16.12,16.104,16.165,16.304,16.6,17.023,17.368,17.443,17.473,17.371,16.944,16.365,16.049,16.089,16.144,16.205,16.234,16.227,16.211,16.181,16.183,16.195,16.183,16.181,16.182,16.193,16.19,16.194,16.215,16.22,16.211,16.199,16.185,16.192,16.224,16.227,16.232,16.243,16.244,16.236,16.233,16.254,16.257,16.284,16.298,16.291,16.284,16.292,16.318,16.341,16.337,16.348,16.384,16.389,16.397,16.392,16.405,16.439,16.452,16.49,16.502,16.516,16.52,16.561,16.586,16.593,16.59,16.582,16.555,16.552,16.531,16.497,16.458,16.435,16.399,16.355,16.316,16.312,16.293,16.269,16.239,16.223,16.212,16.189,16.192,16.178,16.181,16.181,16.19,16.192,16.191,16.2,16.208,16.195,16.198,16.194,16.186,16.179,16.201,16.21,16.206,16.188,16.187,16.2,16.21,16.207,16.222,16.222,16.21,16.201,16.189,16.201,16.203,16.207,16.221,16.207,16.197,16.194,16.196,16.195,16.185,16.175,16.203,16.205,16.193,16.191,16.187,16.197,16.18,16.174,16.183,16.186,16.171,16.168,16.174,16.178,16.182,16.211,16.224,16.227,16.228,16.219,16.233,16.282,16.303,16.275,16.223,16.196,16.195,16.179,16.162,16.146,16.148,16.158,16.145,16.144,16.128,16.135,16.125,16.142,16.154,16.153,16.13,16.098,16.143,16.281,16.543,16.924,17.316,17.429,17.39,17.303,16.753,16.183,16.04,16.155,16.199,16.237,16.225,16.214,16.215,16.193,16.178,16.176,16.203,16.176,16.18,16.176,16.215,16.219,16.216,16.235,16.245,16.213,16.199,16.217,16.25,16.27,16.268,16.239,16.246,16.252,16.262,16.262,16.289,16.286,16.301,16.3,16.302,16.31,16.334,16.354,16.386,16.38,16.383,16.38,16.41,16.434,16.439,16.441,16.438,16.471,16.506,16.507,16.521,16.548,16.576,16.579,16.563,16.56,16.555,16.539,16.505,16.462,16.435,16.402,16.355,16.313,16.294,16.27,16.248,16.25,16.216,16.181,16.196,16.184,16.158,16.155,16.164,16.193,16.204,16.198,16.187,16.174,16.171,16.167,16.158,16.157,16.147,16.164,16.173,16.168,16.155,16.17,16.194,16.193,16.185,16.191,16.195,16.183,16.179,16.186,16.183,16.2,16.191,16.192,16.179,16.186,16.191,16.206,16.194,16.189,16.177,16.184,16.166,16.165,16.171,16.195,16.197,16.18,16.164,16.158,16.161,16.166,16.153,16.156,16.163,16.18,16.188,16.192,16.202,16.206,16.196,16.224,16.242,16.231,16.229,16.212,16.195,16.173,16.163,16.142,16.116,16.107,16.087,16.082,16.076,16.089,16.106,16.093,16.104,16.118,16.127,16.095,16.089,16.157,16.364,16.709,17.128,17.34,17.383,17.332,16.991,16.38,16.025,16.047,16.104,16.171,16.203,16.209,16.173,16.162,16.184,16.189,16.204,16.182,16.152,16.152,16.161,16.168,16.187,16.213,16.216,16.204,16.2,16.193,16.208,16.223,16.235,16.24,16.237,16.248,16.248,16.244,16.264,16.275,16.283,16.281,16.29,16.309,16.32,16.334,16.362,16.373,16.391,16.394,16.402,16.422,16.434,16.467,16.488,16.504,16.499,16.512,16.535,16.563,16.589,16.601,16.602,16.611,16.609,16.571,16.542,16.522,16.487,16.43,16.375,16.353,16.325,16.293,16.279,16.251,16.234,16.215,16.215,16.208,16.2,16.182,16.183,16.177,16.186,16.192,16.203,16.203,16.191,16.179,16.167,16.166,16.177,16.173,16.182,16.186,16.205,16.207,16.211,16.213,16.201,16.192,16.178,16.196,16.204,16.207,16.223,16.22,16.192,16.185,16.194,16.179,16.173,16.187,16.201,16.205,16.197,16.196,16.199,16.189,16.166,16.161,16.169,16.172,16.177,16.185,16.175,16.175,16.2,16.216,16.21,16.189,16.2,16.235,16.257,16.239,16.211,16.246,16.273,16.272,16.255,16.224,16.184,16.144,16.132,16.133,16.127,16.124,16.114,16.114,16.124,16.132,16.127,16.111,16.127,16.136,16.119,16.08,16.086,16.197,16.448,16.808,17.197,17.331,17.428,17.448,17.223,16.64,16.156,16.073,16.117,16.207,16.216,16.199,16.182,16.201,16.187,16.18,16.162,16.17,16.176,16.191,16.193,16.218,16.202,16.178,16.168,16.182,16.173,16.195,16.208,16.217,16.22,16.227,16.235,16.259,16.264,16.253,16.26,16.266,16.27,16.288,16.301,16.309,16.313,16.325,16.342,16.333,16.344,16.378,16.402,16.406,16.424,16.432,16.449,16.477,16.515,16.534,16.535,16.558,16.566,16.581,16.586,16.587,16.564,16.556,16.528,16.485,16.436,16.414,16.373,16.343,16.296,16.256,16.234,16.212,16.19,16.18,16.177,16.168,16.169,16.158,16.161,16.139,16.133,16.134,16.16,16.153,16.141,16.122,16.125,16.151,16.166,16.143,16.125,16.136,16.157,16.151,16.14,16.151,16.144,16.145,16.154,16.152,16.129,16.147,16.16,16.171,16.149,16.127,16.136,16.143,16.149,16.128,16.124,16.127,16.133,16.128,16.113,16.108,16.117,16.122,16.123,16.119,16.114,16.117,16.15,16.141,16.137,16.133,16.125,16.119,16.156,16.165,16.17,16.166,16.204,16.234,16.238,16.199,16.16,16.143,16.138,16.111,16.098,16.099,16.091,16.074,16.072,16.063,16.057,16.061,16.07,16.102,16.087,16.08,16.063,16.05,16.075,16.183,16.413,16.768,17.165,17.351,17.375,17.288,16.865,16.29,16.02,16.073,16.104,16.148,16.174,16.185,16.18,16.151,16.145,16.145,16.157,16.164,16.165,16.162,16.173,16.181,16.193,16.186,16.192,16.216,16.221,16.233,16.245,16.256,16.243,16.243,16.256,16.263,16.282,16.287,16.287,16.267,16.272,16.279,16.306,16.318,16.336,16.346,16.365,16.381,16.407,16.436,16.45,16.45,16.467,16.519,16.55,16.542,16.54,16.55,16.605,16.655,16.659,16.638,16.631,16.642,16.638,16.604,16.568,16.515,16.478,16.447,16.394,16.368,16.328,16.311,16.305,16.295,16.265,16.254,16.257,16.255,16.259,16.249,16.239,16.247,16.265,16.282,16.287,16.241,16.212,16.211,16.239,16.247,16.239,16.228,16.219,16.23,16.216,16.222,16.226,16.244,16.236,16.221,16.218,16.234,16.236,16.249,16.236,16.219,16.209,16.217,16.216,16.223,16.202,16.199,16.2,16.203,16.201,16.202,16.237,16.223,16.182,16.168,16.17,16.183,16.173,16.163,16.17,16.181,16.174,16.16,16.17,16.182,16.18,16.18,16.167,16.191,16.197,16.189,16.194,16.19,16.209,16.219,16.241,16.269,16.264,16.243,16.212,16.189,16.163,16.134,16.126,16.135,16.148,16.134,16.157,16.162,16.134,16.105,16.1,16.115,16.124,16.122,16.101,16.106,16.18,16.42,16.771,17.189,17.387,17.462,17.398,17.272,16.768,16.264,16.091,16.139,16.224,16.24,16.243,16.203,16.198,16.187,16.191,16.169,16.183,16.167,16.17,16.174,16.195,16.182,16.187,16.175,16.191,16.181,16.203,16.193,16.221,16.231,16.238,16.223,16.237,16.241,16.239,16.226,16.262,16.27,16.272,16.276,16.282,16.285,16.312,16.309,16.331,16.338,16.356,16.373,16.383,16.414,16.439,16.45,16.464,16.49,16.514,16.513,16.525,16.554,16.577,16.594,16.589,16.584,16.572,16.559,16.522,16.48,16.435,16.395,16.36,16.319,16.276,16.235,16.2,16.185,16.194,16.19,16.169,16.157,16.152,16.166,16.157,16.16,16.144,16.128,16.137,16.144,16.141,16.144,16.151,16.15,16.137,16.133,16.164,16.18,16.164,16.147,16.139,16.145,16.131,16.136,16.135,16.136,16.119,16.14,16.139,16.144,16.143,16.158,16.137,16.138,16.136,16.13,16.128,16.133,16.13,16.125,16.107,16.102,16.114,16.116,16.113,16.105,16.112,16.115,16.109,16.1,16.107,16.111,16.114,16.115,16.119,16.123,16.131,16.125,16.119,16.126,16.148,16.162,16.18,16.209,16.2,16.179,16.141,16.127,16.094,16.078,16.066,16.047,16.045,16.04,16.053,16.04,16.04,16.043,16.047,16.044,16.027,16.018,15.992,15.971,16.045,16.213,16.508,16.944,17.268,17.372,17.341,17.122,16.484,15.987,15.967,16.02,16.065,16.106,16.128,16.129,16.115,16.076,16.069,16.074,16.084,16.072,16.066,16.059,16.069,16.084,16.108,16.107,16.088,16.083,16.089,16.115,16.106,16.118,16.112,16.122,16.13,16.144,16.155,16.141,16.157,16.155,16.177,16.174,16.176,16.198,16.224,16.254,16.256,16.25,16.247,16.284,16.305,16.31,16.311,16.315,16.348,16.373,16.41,16.42,16.418,16.425,16.453,16.453,16.463,16.465,16.451,16.427,16.405,16.356,16.324,16.294,16.252,16.193,16.168,16.145,16.135,16.126,16.093,16.086,16.06,16.059,16.076,16.082,16.061,16.051,16.049,16.044,16.047,16.046,16.038,16.053,16.062,16.062,16.06,16.051,16.052,16.061,16.068,16.075,16.085,16.077,16.069,16.047,16.043,16.048,16.059,16.065,16.079,16.081,16.075,16.048,16.041,16.052,16.046,16.055,16.052,16.041,16.043,16.049,16.04,16.054,16.034,16.064,16.063,16.041,16.024,16.011,16.038,16.069,16.079,16.072,16.071,16.08,16.084,16.05,16.047,16.074,16.109,16.129,16.114,16.088,16.07,16.071,16.063,16.036,16.019,16.006,16.011,16.006,16.002,16.005,16.009,15.995,16.005,16.013,16.005,15.993,15.974,15.979,16.041,16.142,16.416,16.842,17.192,17.272,17.234,17.106,16.497,15.989,15.898,15.956,15.986,16.039,16.073,16.078,16.078,16.05,16.045,16.025,16.047,16.047,16.034,16.034,16.063,16.074,16.07,16.064,16.07,16.082,16.1,16.088,16.079,16.077,16.083,16.09,16.091,16.117,16.153,16.151,16.13,16.137,16.141,16.163,16.177,16.191,16.202,16.193,16.207,16.21,16.228,16.26,16.263,16.299,16.311,16.323,16.349,16.351,16.373,16.41,16.426,16.44,16.451,16.457,16.447,16.454,16.439,16.398,16.367,16.329,16.298,16.273,16.233,16.207,16.186,16.156,16.134,16.107,16.07,16.071,16.082,16.077,16.049,16.038,16.048,16.055,16.065,16.062,16.052,16.049,16.061,16.067,16.069,16.045,16.033,16.03,16.059,16.057,16.049,16.052,16.06,16.065,16.08,16.083,16.075,16.071,16.062,16.07,16.07,16.075,16.071,16.082,16.07,16.066,16.06,16.07,16.089,16.084,16.074,16.068,16.067,16.056,16.059,16.057,16.051,16.063,16.073,16.077,16.057,16.04,16.043,16.06,16.086,16.088,16.082,16.096,16.113,16.119,16.091,16.094,16.129,16.147,16.146,16.103,16.084,16.084,16.064,16.02,16.029,16.031,16.027,16.023,16.025,16.029,16.014,16.005,15.998,15.998,15.993,15.981,15.959,16.012,16.173,16.46,16.886,17.096,17.279,17.323,17.263,16.882,16.258,15.954,15.965,16.052,16.073,16.08,16.062,16.078,16.057,16.055,16.052,16.068,16.069,16.072,16.061,16.088,16.073,16.064,16.061,16.076,16.08,16.082,16.104,16.125,16.117,16.133,16.148,16.17,16.164,16.163,16.138,16.18,16.201,16.217,16.231,16.214,16.244,16.276,16.294,16.288,16.287,16.318,16.358,16.37,16.364,16.355,16.361,16.397,16.445,16.438,16.447,16.455,16.456,16.465,16.483,16.469,16.454,16.446,16.447,16.415,16.339,16.285,16.272,16.246,16.191,16.138,16.103,16.098,16.083,16.075,16.06,16.061,16.062,16.036,16.045,16.028,15.987,15.981,15.984,16.002,16.001,15.984,15.977,15.993,16.009,15.982,15.96,15.987,16.007,15.987,15.992,15.982,15.988,15.986,16.003,15.983,16,16.022,16.018,16.021,15.987,15.962,15.958,15.993,15.995,15.986,15.967,15.982,15.986,15.961,15.955,15.951,15.958,15.958,15.969,15.968,15.973,15.984,15.957,15.96,15.988,15.97,15.98,15.974,15.987,15.985,15.964,15.98,15.99,16.01,16.051,16.043,15.998,15.995,16.033,16.064,16.05,16.038,16.026,16.014,15.995,15.973,15.961,15.948,15.949,15.932,15.94,15.933,15.957,15.954,15.964,15.982,15.968,15.953,15.917,15.916,16.019,16.277,16.639,17.006,17.186,17.26,17.154,16.76,16.219,15.902,15.946,16.025,16.051,16.057,16.044,16.01,15.996,15.986,15.987,15.987,16.014,16.008,15.991,15.983,16.003,15.992,15.983,15.979,15.97,15.983,15.998,16.002,16.003,16.002,16.023,16.033,16.058,16.071,16.072,16.087,16.074,16.077,16.088,16.074,16.079,16.097,16.117,16.153,16.155,16.167,16.179,16.203,16.221,16.234,16.245,16.261,16.286,16.308,16.308,16.329,16.376,16.379,16.383,16.397,16.394,16.384,16.368,16.37,16.324,16.273,16.238,16.193,16.131,16.096,16.082,16.08,16.055,16.026,15.985,15.989,15.984,15.991,15.979,15.965,15.975,15.976,15.989,15.994,15.992,15.979,15.966,15.972,15.987,15.988,15.952,15.952,15.961,15.98,15.983,15.97,15.983,16.001,15.984,15.957,15.971,15.987,15.968,15.953,15.95,15.967,15.975,15.983,15.985,15.956,15.952,15.969,15.965,15.967,15.977,15.971,15.966,15.948,15.955,15.965,15.954,15.949,15.952,15.972,15.962,15.968,15.945,15.924,15.936,15.956,15.965,15.933,15.95,15.969,15.963,15.936,15.956,15.983,15.99,15.986,15.978,16.019,16.053,16.06,16.056,16.031,15.998,15.973,15.942,15.925,15.906,15.924,15.933,15.914,15.929,15.914,15.898,15.914,15.957,15.936,15.889,15.841,15.848,15.942,16.153,16.495,16.898,17.142,17.233,17.205,16.923,16.34,15.919,15.893,16.01,16.074,16.061,16.035,16.007,15.999,15.977,15.982,15.99,16.026,16.042,16.008,15.965,15.987,16,16.03,16.029,16.016,16.016,16.026,16.03,16.025,16.045,16.05,16.065,16.059,16.049,16.041,16.05,16.076,16.095,16.107,16.093,16.1,16.116,16.142,16.144,16.138,16.153,16.163,16.181,16.193,16.202,16.226,16.251,16.268,16.273,16.293,16.319,16.322,16.358,16.38,16.397,16.388,16.363,16.348,16.319,16.281,16.274,16.227,16.151,16.092,16.066,16.048,16.025,16.02,16.001,15.971,15.948,15.948,15.933,15.915,15.908,15.907,15.921,15.931,15.932,15.927,15.914,15.912,15.918,15.945,15.955,15.921,15.896,15.894,15.906,15.902,15.899,15.913,15.92,15.92,15.911,15.902,15.908,15.916,15.93,15.921,15.906,15.898,15.899,15.908,15.922,15.912,15.903,15.913,15.908,15.885,15.866,15.86,15.888,15.891,15.864,15.852,15.857,15.867,15.868,15.857,15.847,15.851,15.854,15.858,15.868,15.869,15.892,15.903,15.906,15.926,15.902,15.885,15.878,15.892,15.958,15.969,15.943,15.909,15.91,15.917,15.883,15.843,15.84,15.837,15.835,15.825,15.825,15.832,15.839,15.844,15.849,15.835,15.827,15.817,15.809,15.855,15.957,16.203,16.604,17.029,17.175,17.153,17.047,16.532,16.203,15.766,15.745,15.836,15.874,15.94,15.917,15.933,15.89,15.928,15.901,15.929,15.895,15.917,15.889,15.907,15.904,15.927,15.893,15.915,15.907,15.943,15.926,15.945,15.936,15.985,15.978,15.986,15.96,15.971,15.968,15.986,15.992,16.007,16.022,16.05,16.048,16.04,16.022,16.031,16.04,16.068,16.093,16.106,16.115,16.141,16.164,16.177,16.187,16.194,16.227,16.234,16.254,16.255,16.273,16.272,16.283,16.273,16.274,16.257,16.24,16.188,16.133,16.091,16.069,16.028,15.998,15.979,15.955,15.949,15.947,15.929,15.903,15.877,15.88,15.911,15.92,15.907,15.886,15.857,15.859,15.877,15.902,15.903,15.913,15.914,15.913,15.892,15.886,15.868,15.904,15.914,15.933,15.922,15.916,15.911,15.916,15.903,15.901,15.893,15.893,15.891,15.89,15.906,15.897,15.89,15.905,15.897,15.899,15.902,15.904,15.907,15.9,15.885,15.845,15.842,15.854,15.867,15.898,15.905,15.901,15.905,15.944,15.951,15.941,15.924,15.936,15.961,15.953,15.919,15.913,15.915,15.875,15.863,15.843,15.832,15.836,15.839,15.864,15.842,15.828,15.837,15.848,15.853,15.859,15.827,15.816,15.854,16.014,16.313,16.705,17.036,17.098,17.071,17.034,16.679,16.027,15.693,15.763,15.79,15.853,15.886,15.893,15.877,15.872,15.874,15.872,15.87,15.881,15.898,15.888,15.884,15.884,15.879,15.887,15.898,15.887,15.895,15.911,15.919,15.91,15.927,15.934,15.939,15.953,15.961,15.97,15.955,15.941,15.959,15.96,16.002,15.989,15.997,16.02,16.04,16.022,16.036,16.046,16.063,16.089,16.107,16.117,16.125,16.148,16.186,16.187,16.186,16.203,16.266,16.251,16.261,16.247,16.234,16.197,16.186,16.115,16.079,16.047,16.02,15.999,15.953,15.932,15.907,15.923,15.902,15.871,15.882,15.864,15.859,15.884,15.867,15.864,15.864,15.87,15.869,15.856,15.861,15.861,15.86,15.882,15.86,15.872,15.86,15.875,15.869,15.88,15.86,15.868,15.865,15.875,15.908,15.868,15.849,15.84,15.852,15.862,15.842,15.845,15.843,15.85,15.851,15.839,15.835,15.832,15.852,15.813,15.801,15.81,15.844,15.86,15.888,15.881,15.888,15.877,15.866,15.874,15.887,15.923,15.925,15.894,15.889,15.88,15.857,15.837,15.806,15.789,15.786,15.785,15.786,15.833,15.855,15.818,15.767,15.771,15.816,15.832,15.785,15.745,15.767,15.88,16.145,16.529,16.915,17.034,17.023,16.949,16.549,16.229,15.758,15.725,15.799,15.835,15.882,15.872,15.887,15.865,15.887,15.867,15.88,15.887,15.907,15.866,15.866,15.845,15.887,15.902,15.915,15.87,15.872,15.885,15.908,15.911,15.921,15.911,15.925,15.92,15.936,15.922,15.932,15.952,15.996,15.998,15.984,15.991,16,16.013,16.029,16.031,16.056,16.066,16.091,16.107,16.101,16.106,16.154,16.178,16.19,16.218,16.217,16.238,16.253,16.26,16.251,16.219,16.215,16.208,16.192,16.164,16.111,16.06,16.008,15.986,15.985,15.954,15.93,15.911,15.882,15.877,15.876,15.876,15.869,15.889,15.858,15.85,15.853,15.852,15.843,15.857,15.854,15.857,15.853,15.836,15.846,15.869,15.844,15.851,15.867,15.852,15.821,15.832,15.835,15.846,15.858,15.854,15.846,15.843,15.844,15.873,15.867,15.848,15.84,15.857,15.869,15.865,15.849,15.862,15.86,15.883,15.904,15.91,15.876,15.861,15.898,15.898,15.899,15.902,15.924,15.95,15.959,15.924,15.903,15.9,15.896,15.887,15.839,15.818,15.817,15.822,15.835,15.829,15.812,15.794,15.816,15.829,15.845,15.847,15.79,15.799,15.87,16.048,16.372,16.795,17.037,17.081,17.041,16.802,16.178,15.738,15.759,15.803,15.859,15.867,15.876,15.883,15.879,15.863,15.845,15.857,15.855,15.841,15.839,15.836,15.857,15.86,15.856,15.829,15.831,15.833,15.864,15.889,15.866,15.86,15.863,15.885,15.888,15.89,15.891,15.907,15.92,15.922,15.92,15.946,15.957,15.971,15.983,15.976,15.985,16.003,16.022,16.058,16.063,16.064,16.08,16.095,16.142,16.157,16.17,16.185,16.207,16.24,16.25,16.247,16.215,16.195,16.179,16.13,16.089,16.062,16.04,16.024,15.979,15.924,15.902,15.888,15.903,15.897,15.881,15.861,15.831,15.801,15.813,15.805,15.814,15.819,15.833,15.839,15.838,15.819,15.816,15.81,15.803,15.804,15.806,15.805,15.798,15.802,15.809,15.81,15.841,15.846,15.824,15.806,15.795,15.805,15.802,15.802,15.804,15.812,15.806,15.804,15.812,15.812,15.842,15.845,15.826,15.823,15.828,15.838,15.832,15.861,15.877,15.887,15.871,15.883,15.877,15.86,15.856,15.845,15.832,15.798,15.775,15.752,15.762,15.774,15.767,15.749,15.759,15.773,15.781,15.763,15.768,15.757,15.722,15.709,15.802,16.023,16.193,16.588,16.967,17.069,17.089,16.944,16.399,15.849,15.703,15.75,15.823,15.844,15.844,15.837,15.827,15.826,15.809,15.795,15.805,15.821,15.836,15.83,15.828,15.809,15.812,15.809,15.818,15.821,15.817,15.83,15.865,15.868,15.844,15.83,15.855,15.863,15.859,15.867,15.868,15.868,15.884,15.913,15.918,15.913,15.947,15.964,15.957,15.968,15.994,16,16.022,16.044,16.05,16.057,16.093,16.133,16.163,16.161,16.167,16.192,16.198,16.196,16.19,16.158,16.126,16.093,16.067,16.031,15.992,15.964,15.925,15.887,15.87,15.857,15.841,15.84,15.841,15.849,15.821,15.808,15.802,15.805,15.809,15.802,15.797,15.812,15.818,15.81,15.775,15.773,15.791,15.807,15.798,15.805,15.792,15.79,15.8,15.807,15.801,15.799,15.795,15.81,15.835,15.823,15.787,15.803,15.814,15.816,15.798,15.799,15.798,15.79,15.783,15.789,15.79,15.814,15.836,15.849,15.819,15.801,15.816,15.832,15.838,15.822,15.833,15.838,15.863,15.866,15.86,15.848,15.82,15.797,15.764,15.74,15.725,15.73,15.732,15.734,15.724,15.722,15.735,15.735,15.732,15.727,15.737,15.732,15.705,15.756,15.925,16.253,16.701,16.977,17.048,17.034,16.799,16.492,15.958,15.702,15.746,15.797,15.829,15.829,15.82,15.803,15.821,15.796,15.785,15.78,15.789,15.775,15.791,15.799,15.819,15.834,15.848,15.826,15.82,15.789,15.806,15.816,15.83,15.822,15.828,15.849,15.874,15.849,15.845,15.854,15.87,15.873,15.884,15.918,15.932,15.925,15.923,15.916,15.944,15.956,15.979,15.999,16.017,16.047,16.067,16.076,16.089,16.088,16.113,16.135,16.168,16.193,16.173,16.144,16.137,16.123,16.109,16.064,16.016,15.973,15.936,15.909,15.877,15.837,15.813,15.81,15.794,15.774,15.774,15.777,15.758,15.739,15.733,15.751,15.752,15.76,15.781,15.772,15.73,15.717,15.738,15.749,15.752,15.746,15.759,15.768,15.774,15.766,15.755,15.765,15.789,15.796,15.773,15.76,15.743,15.753,15.785,15.795,15.767,15.757,15.766,15.779,15.798,15.79,15.79,15.777,15.76,15.75,15.742,15.758,15.763,15.774,15.768,15.759,15.772,15.785,15.793,15.787,15.791,15.796,15.784,15.795,15.793,15.824,15.83,15.843,15.83,15.818,15.792,15.75,15.722,15.721,15.711,15.699,15.688,15.696,15.717,15.7,15.701,15.702,15.688,15.701,15.698,15.684,15.641,15.706,15.901,16.25,16.688,16.939,17.012,17.023,16.888,16.411,15.882,15.664,15.689,15.783,15.807,15.799,15.782,15.779,15.754,15.747,15.741,15.745,15.759,15.764,15.77,15.791,15.795,15.775,15.76,15.761,15.765,15.761,15.782,15.802,15.814,15.825,15.815,15.83,15.85,15.848,15.821,15.801,15.802,15.835,15.847,15.854,15.868,15.877,15.885,15.896,15.912,15.935,15.941,15.969,15.991,16.004,16.02,16.037,16.065,16.072,16.076,16.097,16.121,16.137,16.15,16.151,16.137,16.096,16.075,16.023,15.986,15.934,15.908,15.868,15.843,15.826,15.807,15.755,15.737,15.74,15.769,15.744,15.726,15.704,15.696,15.7,15.699,15.699,15.691,15.693,15.714,15.699,15.687,15.7,15.683,15.699,15.702,15.687,15.717,15.752,15.732,15.701,15.697,15.706,15.709,15.699,15.705,15.705,15.71,15.714,15.711,15.718,15.703,15.708,15.726,15.746,15.728,15.701,15.705,15.715,15.717,15.698,15.692,15.699,15.697,15.709,15.719,15.72
