5.5935,5.5884,5.5908,5.5866,5.579,5.5841,5.5857,5.5845,5.5818,5.578,5.5813,5.5851,5.5883,5.5805,5.5763,5.5821,5.5856,5.5836,5.5795,5.5754,5.5766,5.5847,5.5838,5.5833,5.5779,5.5826,5.5883,5.5863,5.5837,5.5795,5.5773,5.5859,5.5852,5.5828,5.5763,5.5751,5.5806,5.5834,5.5792,5.575,5.5719,5.5774,5.5801,5.5761,5.573,5.5731,5.5736,5.5754,5.5734,5.5693,5.5673,5.5707,5.5741,5.5708,5.5667,5.5648,5.5694,5.5742,5.5699,5.5702,5.5621,5.564,5.5697,5.5681,5.5675,5.5632,5.5642,5.5674,5.5711,5.5653,5.5641,5.5636,5.5697,5.5684,5.5691,5.5694,5.5731,5.5767,5.5802,5.5764,5.5655,5.5586,5.5943,5.6325,5.6389,5.6188,5.6118,5.6074,5.6037,5.5953,5.5835,5.5653,5.5633,5.5696,5.5641,5.5592,5.5516,5.5515,5.5553,5.5557,5.5474,5.5439,5.545,5.5486,5.5502,5.5497,5.5417,5.5428,5.5477,5.5494,5.5474,5.5414,5.524,5.4243,5.3344,5.2329,5.2859,5.5471,5.924,6.3471,6.7612,6.6116,6.0921,5.8659,5.7955,5.7625,5.6806,5.722,5.6978,5.6656,5.6283,5.6056,5.5905,5.5894,5.5908,5.5943,5.5932,5.5856,5.5887,5.5977,5.6019,5.6016,5.5988,5.5973,5.6078,5.6121,5.6132,5.6138,5.624,5.6324,5.6374,5.6383,5.6411,5.6468,5.6572,5.6712,5.675,5.6772,5.6882,5.7021,5.7181,5.7293,5.7396,5.7406,5.7615,5.7793,5.7951,5.8062,5.8228,5.8451,5.872,5.8881,5.8995,5.9132,5.9388,5.9661,5.9896,6.005,6.0223,6.0399,6.0574,6.0672,6.0667,6.0451,6.0287,6.0014,5.9616,5.914,5.8628,5.817,5.7812,5.763,5.7278,5.6881,5.6641,5.6426,5.6289,5.6226,5.6051,5.5864,5.5855,5.5812,5.5834,5.5715,5.5693,5.5707,5.5709,5.5656,5.5605,5.5576,5.5574,5.5603,5.5648,5.5589,5.5549,5.5515,5.5598,5.5548,5.5502,5.5468,5.5473,5.5579,5.5504,5.5459,5.5429,5.5466,5.5536,5.5528,5.5544,5.5492,5.5444,5.5457,5.552,5.5493,5.546,5.5466,5.5442,5.5485,5.5471,5.543,5.5436,5.5452,5.5483,5.5444,5.5396,5.5389,5.5394,5.548,5.5468,5.5426,5.5375,5.5355,5.5389,5.5423,5.5404,5.5375,5.5375,5.5431,5.544,5.5353,5.5286,5.5261,5.5326,5.5381,5.5361,5.5325,5.5299,5.532,5.5332,5.5306,5.5262,5.5268,5.5312,5.5318,5.5296,5.5255,5.5224,5.531,5.5348,5.529,5.5238,5.5245,5.5307,5.5351,5.5334,5.5318,5.5233,5.5291,5.5347,5.5417,5.5262,5.5373,5.5738,5.6059,5.5964,5.5861,5.5697,5.5654,5.5624,5.5543,5.5356,5.5165,5.5197,5.522,5.516,5.5154,5.5161,5.5085,5.5158,5.5168,5.5113,5.505,5.4998,5.509,5.5162,5.5118,5.5045,5.5024,5.5052,5.5097,5.5081,5.503,5.4566,5.3105,5.2247,5.231,5.3993,5.7261,6.0549,6.4862,6.5737,6.1158,5.7167,5.5594,5.5487,5.5644,5.591,5.6276,5.6219,5.5959,5.5731,5.5529,5.5452,5.5464,5.548,5.5494,5.5503,5.5459,5.5518,5.5549,5.566,5.5662,5.5631,5.5674,5.5762,5.5829,5.5836,5.586,5.5912,5.6004,5.6125,5.6169,5.6159,5.6161,5.6278,5.6423,5.6491,5.6591,5.6629,5.6724,5.6933,5.7102,5.7167,5.7277,5.741,5.7593,5.7761,5.7962,5.8116,5.8331,5.862,5.883,5.8934,5.9055,5.9288,5.9552,5.9807,6.0019,6.0184,6.0273,6.0428,6.0407,6.0314,6.0129,5.9808,5.9457,5.9034,5.8599,5.8096,5.7654,5.7297,5.7147,5.6807,5.648,5.6188,5.598,5.5841,5.5798,5.5678,5.5534,5.5492,5.5383,5.5379,5.53,5.5254,5.5293,5.5309,5.5299,5.5242,5.518,5.5175,5.5223,5.522,5.519,5.5163,5.518,5.5288,5.5263,5.5135,5.5156,5.5196,5.5255,5.5334,5.5292,5.5224,5.5178,5.5195,5.5259,5.5269,5.5271,5.5154,5.5189,5.5239,5.5245,5.5215,5.5162,5.5176,5.5216,5.5225,5.5102,5.5075,5.5054,5.5141,5.5118,5.507,5.504,5.5076,5.5045,5.5088,5.5118,5.5079,5.5079,5.5029,5.508,5.5077,5.5047,5.5032,5.5048,5.5098,5.5074,5.5006,5.5028,5.5084,5.5143,5.5144,5.5097,5.5067,5.5135,5.5148,5.5015,5.5231,5.5522,5.5722,5.5588,5.5533,5.5477,5.5296,5.5206,5.5163,5.5029,5.4929,5.493,5.4871,5.4919,5.4878,5.4848,5.4783,5.4789,5.4787,5.4862,5.4793,5.4742,5.4655,5.4695,5.4798,5.479,5.4699,5.4688,5.4716,5.475,5.4644,5.3829,5.2389,5.2025,5.357,5.6646,5.8426,6.1582,6.5604,6.4146,5.8642,5.5779,5.4868,5.4964,5.5307,5.5616,5.5981,5.5709,5.5586,5.531,5.5298,5.5141,5.521,5.5099,5.5243,5.5238,5.5291,5.5243,5.5257,5.5254,5.542,5.5402,5.5457,5.5433,5.5586,5.5583,5.5666,5.5564,5.5614,5.5703,5.5847,5.5883,5.5941,5.5995,5.6062,5.6206,5.6303,5.6345,5.6414,5.6484,5.6717,5.6851,5.6993,5.7116,5.7305,5.7557,5.7762,5.7905,5.8067,5.8326,5.8594,5.8805,5.892,5.8986,5.9219,5.9459,5.9698,5.984,5.9933,5.991,5.9847,5.9746,5.9432,5.9007,5.8509,5.8051,5.765,5.7206,5.6797,5.6428,5.6114,5.5908,5.5766,5.5585,5.54,5.5349,5.5334,5.5275,5.5206,5.5103,5.5025,5.5107,5.5054,5.5005,5.4939,5.4973,5.5006,5.5,5.4915,5.4879,5.4883,5.4948,5.4909,5.4895,5.488,5.4902,5.4964,5.4981,5.4928,5.4913,5.4905,5.4969,5.4989,5.5024,5.4961,5.4941,5.4971,5.4992,5.499,5.5001,5.4928,5.4976,5.5024,5.5024,5.4974,5.4923,5.4896,5.4951,5.4971,5.493,5.4879,5.4901,5.4945,5.4974,5.4925,5.489,5.4882,5.4925,5.4958,5.4898,5.4874,5.4861,5.489,5.4957,5.4938,5.4895,5.4891,5.4945,5.495,5.4893,5.4848,5.4819,5.4862,5.4928,5.4895,5.489,5.4937,5.4987,5.5056,5.5076,5.496,5.4827,5.495,5.5383,5.5713,5.5492,5.539,5.532,5.5274,5.5253,5.5082,5.4978,5.48,5.4916,5.4847,5.4826,5.4714,5.4765,5.4787,5.4819,5.4807,5.4739,5.4711,5.4733,5.478,5.4763,5.4721,5.4653,5.4732,5.4771,5.4749,5.4696,5.4647,5.395,5.2414,5.1652,5.2788,5.398,5.7482,6.1268,6.6094,6.627,6.1162,5.8331,5.7203,5.6902,5.6133,5.6284,5.6223,5.6031,5.5657,5.5431,5.5237,5.5231,5.5253,5.5241,5.5199,5.5164,5.5175,5.5254,5.53,5.5326,5.5305,5.532,5.5402,5.5475,5.5475,5.5488,5.5522,5.5636,5.5697,5.5741,5.5747,5.5791,5.5916,5.5799,5.6025,5.6096,5.6124,5.6216,5.6364,5.6525,5.6613,5.6695,5.6844,5.709,5.7208,5.7342,5.7511,5.7721,5.795,5.8165,5.8345,5.8546,5.8787,5.8922,5.9177,5.9366,5.9499,5.9649,5.9828,5.9949,5.9931,5.9727,5.9463,5.9164,5.8793,5.833,5.7855,5.7366,5.7033,5.67,5.6424,5.6131,5.5981,5.5768,5.5675,5.5553,5.5388,5.5311,5.5272,5.5296,5.5268,5.5224,5.5101,5.5139,5.5203,5.5191,5.5096,5.5037,5.5036,5.5054,5.5061,5.5025,5.5024,5.4971,5.5018,5.5041,5.5022,5.4947,5.4974,5.4977,5.5049,5.5039,5.5005,5.4975,5.5035,5.5099,5.5061,5.5024,5.5008,5.5055,5.5079,5.505,5.5032,5.5017,5.5071,5.5112,5.508,5.5091,5.4984,5.5017,5.5046,5.5083,5.5054,5.4971,5.5004,5.5055,5.5044,5.5035,5.4964,5.4934,5.5039,5.503,5.5019,5.4942,5.4926,5.4992,5.5028,5.4997,5.4941,5.4932,5.4961,5.4999,5.4958,5.4972,5.4936,5.5014,5.5016,5.4968,5.4976,5.4923,5.4952,5.4965,5.503,5.5,5.4967,5.5023,5.5124,5.5139,5.5118,5.5035,5.4916,5.5079,5.5474,5.5785,5.5599,5.5505,5.5483,5.5414,5.5363,5.5271,5.519,5.5094,5.5037,5.4985,5.4928,5.4859,5.4923,5.4916,5.4926,5.4829,5.4787,5.4865,5.4842,5.4862,5.4807,5.4787,5.4811,5.4856,5.4871,5.4826,5.4797,5.4798,5.4617,5.3356,5.1922,5.1904,5.3799,5.7398,6.1052,6.6014,6.666,6.1906,5.8974,5.7806,5.7264,5.6444,5.6286,5.66,5.6366,5.5961,5.5591,5.5384,5.5351,5.5328,5.5316,5.5281,5.5258,5.5349,5.5392,5.5395,5.5374,5.5384,5.5443,5.5562,5.5568,5.5561,5.5545,5.5636,5.5734,5.5791,5.5779,5.5821,5.5911,5.6011,5.6081,5.6125,5.6181,5.6289,5.6438,5.652,5.6598,5.6642,5.6791,5.6964,5.7054,5.7225,5.733,5.7476,5.7688,5.7916,5.8102,5.8257,5.8456,5.8741,5.8959,5.9163,5.9345,5.9543,5.9795,5.9934,6.0026,6.0018,5.9896,5.9841,5.9655,5.9329,5.8862,5.8373,5.794,5.761,5.722,5.6824,5.6488,5.6262,5.6087,5.5891,5.5763,5.5589,5.5548,5.5506,5.547,5.5436,5.5385,5.5361,5.5353,5.5393,5.5349,5.5284,5.5278,5.5295,5.5309,5.5293,5.522,5.5225,5.5288,5.5288,5.5261,5.5198,5.5215,5.5273,5.5298,5.5288,5.5271,5.5249,5.5281,5.5299,5.5292,5.5289,5.5264,5.5291,5.5346,5.5355,5.5315,5.5281,5.5302,5.5358,5.5347,5.5318,5.5269,5.5296,5.5324,5.5333,5.5309,5.526,5.5269,5.5323,5.5345,5.532,5.5274,5.5272,5.532,5.5373,5.5344,5.5284,5.5266,5.5343,5.5347,5.5343,5.5336,5.5259,5.5299,5.5373,5.5359,5.5282,5.526,5.5292,5.5355,5.5337,5.5334,5.5276,5.5322,5.5352,5.5342,5.5317,5.5289,5.5284,5.5381,5.5338,5.53,5.5282,5.5266,5.5329,5.5334,5.5328,5.5273,5.5262,5.5325,5.5357,5.5316,5.5319,5.5315,5.5365,5.5496,5.5446,5.5399,5.5382,5.5308,5.5382,5.5565,5.5881,5.6037,5.5889,5.5906,5.5796,5.568,5.5582,5.5505,5.5446,5.5337,5.533,5.5219,5.5238,5.5291,5.524,5.5206,5.5115,5.5133,5.5162,5.5184,5.5141,5.511,5.511,5.5155,5.5179,5.5162,5.5104,5.5085,5.5175,5.4947,5.3672,5.2149,5.2076,5.3956,5.7498,6.1194,6.6191,6.7627,6.5075,6.0606,5.8358,5.7943,5.7241,5.6746,5.69,5.6767,5.612,5.5922,5.5618,5.5694,5.552,5.5605,5.5417,5.5586,5.5506,5.5676,5.5548,5.5624,5.5537,5.5731,5.5708,5.5764,5.5709,5.5825,5.5818,5.5978,5.594,5.6045,5.5962,5.6146,5.622,5.6294,5.6313,5.6429,5.6531,5.6637,5.671,5.6783,5.6836,5.6964,5.7148,5.7278,5.738,5.7506,5.7708,5.797,5.8103,5.8277,5.8433,5.8666,5.8943,5.914,5.9312,5.9475,5.9595,5.9796,6.0031,6.011,6.018,6.0205,6.0215,6.0057,5.9779,5.9342,5.8968,5.8525,5.8143,5.7706,5.7324,5.6951,5.6771,5.6492,5.6286,5.6072,5.6022,5.5919,5.5886,5.5821,5.5738,5.5611,5.5664,5.5607,5.5638,5.5523,5.5535,5.5531,5.559,5.5543,5.5543,5.5443,5.5521,5.5546,5.5565,5.5537,5.5502,5.5461,5.5526,5.5543,5.5522,5.5442,5.5455,5.5473,5.5516,5.5463,5.5437,5.5413,5.5491,5.5473,5.5474,5.5426,5.5396,5.5423,5.5515,5.5436,5.543,5.5396,5.5418,5.5444,5.5443,5.5396,5.5364,5.5372,5.5426,5.5428,5.5382,5.5327,5.539,5.5414,5.5431,5.5371,5.5344,5.5346,5.5406,5.5451,5.5399,5.5339,5.5345,5.5388,5.5426,5.5381,5.5349,5.5322,5.5364,5.5385,5.5352,5.5324,5.5281,5.5344,5.5372,5.5339,5.5282,5.5269,5.5257,5.5339,5.5336,5.5318,5.5232,5.5296,5.5323,5.5319,5.5261,5.5239,5.5237,5.5302,5.5264,5.5255,5.5215,5.5249,5.53,5.5322,5.5349,5.5375,5.5332,5.5395,5.5393,5.5313,5.5209,5.5475,5.5854,5.6048,5.5867,5.5757,5.5657,5.5627,5.5555,5.5448,5.5244,5.5187,5.5229,5.5241,5.5206,5.5126,5.5068,5.5102,5.5136,5.5077,5.506,5.5008,5.5053,5.5066,5.5068,5.4968,5.4983,5.5041,5.5043,5.5075,5.5004,5.4486,5.3772,5.2333,5.1869,5.3377,5.6537,6.0069,6.4932,6.7025,6.3021,5.9228,5.7624,5.7313,5.6681,5.6567,5.6604,5.6299,5.5921,5.5685,5.5446,5.5364,5.536,5.5339,5.5409,5.5424,5.528,5.5245,5.531,5.5399,5.5454,5.5438,5.5426,5.5483,5.5533,5.554,5.5548,5.5537,5.5653,5.5722,5.5735,5.5833,5.5816,5.5917,5.601,5.6109,5.6191,5.6225,5.6315,5.6503,5.6632,5.6736,5.6805,5.6902,5.6998,5.7185,5.7372,5.7554,5.7737,5.7859,5.8111,5.8325,5.8465,5.8661,5.8933,5.9132,5.9357,5.95,5.9656,5.9808,5.9932,5.9968,5.9779,5.9532,5.9223,5.8888,5.8461,5.7945,5.7715,5.7306,5.6944,5.6595,5.6235,5.5915,5.5701,5.559,5.5445,5.529,5.5172,5.5097,5.5074,5.5039,5.5008,5.4936,5.4927,5.4948,5.4919,5.4914,5.4809,5.473,5.4789,5.4858,5.4867,5.4727,5.467,5.4711,5.4801,5.4832,5.4756,5.4754,5.4741,5.4773,5.4784,5.4705,5.4675,5.4716,5.4731,5.4763,5.4705,5.4648,5.46,5.467,5.4713,5.4684,5.4652,5.4609,5.4649,5.4692,5.4665,5.463,5.4616,5.4649,5.468,5.4603,5.4587,5.4522,5.4606,5.4639,5.4604,5.4513,5.4529,5.4553,5.4598,5.454,5.4488,5.4448,5.446,5.452,5.4515,5.4457,5.4459,5.4508,5.4518,5.45,5.4453,5.4441,5.4407,5.4456,5.4488,5.4395,5.4357,5.4343,5.4471,5.4492,5.4439,5.4329,5.4316,5.4341,5.4427,5.4402,5.4388,5.4398,5.4402,5.4414,5.439,5.4347,5.4343,5.4354,5.4435,5.4425,5.4292,5.4334,5.471,5.5051,5.5052,5.489,5.4764,5.4674,5.4689,5.4558,5.4387,5.4194,5.427,5.4318,5.4268,5.4221,5.4107,5.4133,5.4235,5.4177,5.4106,5.4034,5.4038,5.4116,5.411,5.4132,5.4006,5.3967,5.4075,5.4087,5.404,5.3888,5.3483,5.218,5.1306,5.2119,5.4766,5.8007,6.1479,6.4899,6.2413,5.6805,5.4505,5.3806,5.4224,5.4697,5.502,5.5282,5.5035,5.4922,5.4641,5.4594,5.4425,5.4497,5.4603,5.456,5.4533,5.449,5.445,5.4619,5.463,5.4753,5.4679,5.4706,5.4757,5.4863,5.4873,5.4907,5.4904,5.5026,5.5075,5.5159,5.5176,5.5147,5.5241,5.5444,5.5449,5.554,5.563,5.5789,5.5901,5.6034,5.6136,5.6237,5.6419,5.6619,5.6767,5.6917,5.71,5.7223,5.7486,5.7727,5.7934,5.8103,5.8314,5.8556,5.8776,5.8926,5.9079,5.9146,5.9319,5.9362,5.9183,5.8962,5.8705,5.8403,5.7986,5.7464,5.7161,5.6701,5.6286,5.612,5.5567,5.5255,5.5005,5.4891,5.477,5.4639,5.4499,5.4335,5.4319,5.4294,5.4299,5.4183,5.4138,5.4111,5.4197,5.4211,5.4204,5.4109,5.4099,5.4134,5.4137,5.408,5.4039,5.4085,5.4127,5.4135,5.4145,5.4049,5.4056,5.409,5.4166,5.4125,5.4102,5.4057,5.4148,5.4187,5.4179,5.4159,5.4088,5.4062,5.4146,5.4135,5.4055,5.402,5.4073,5.4115,5.4128,5.4077,5.399,5.3977,5.4022,5.4039,5.3965,5.3967,5.3988,5.4018,5.4011,5.3918,5.3912,5.3925,5.4001,5.4001,5.3951,5.3885,5.3863,5.3942,5.3965,5.3947,5.3901,5.3964,5.4056,5.4077,5.4054,5.4,5.3931,5.39,5.4036,5.4336,5.4612,5.4456,5.4459,5.4409,5.4297,5.4197,5.4048,5.4039,5.3926,5.3895,5.3827,5.3797,5.3784,5.3794,5.3807,5.3719,5.3683,5.3688,5.3753,5.3759,5.3711,5.3646,5.3621,5.3686,5.3702,5.368,5.3662,5.3657,5.3639,5.2851,5.1375,5.0921,5.2465,5.4011,5.7311,6.066,6.4468,6.3194,5.758,5.5194,5.4107,5.4288,5.4234,5.4739,5.5002,5.4867,5.4527,5.4372,5.4242,5.4279,5.4203,5.4203,5.4169,5.4268,5.4315,5.4342,5.4324,5.4338,5.4313,5.4432,5.4478,5.4552,5.4479,5.4569,5.4667,5.4743,5.4739,5.479,5.4828,5.4964,5.5019,5.5049,5.5059,5.5132,5.5303,5.5452,5.5519,5.5606,5.568,5.5861,5.6035,5.6163,5.6299,5.645,5.668,5.6914,5.7112,5.7267,5.752,5.7738,5.8008,5.8062,5.8251,5.839,5.8602,5.8839,5.9003,5.9009,5.8941,5.8795,5.8647,5.8279,5.7857,5.736,5.6905,5.6493,5.6087,5.5669,5.5346,5.5102,5.5011,5.488,5.4706,5.4563,5.4455,5.4458,5.4442,5.4345,5.4285,5.4167,5.4257,5.4241,5.4201,5.4127,5.4096,5.4094,5.4152,5.4155,5.41,5.407,5.4072,5.4126,5.4091,5.4082,5.4085,5.408,5.4161,5.4199,5.4144,5.4117,5.4142,5.4152,5.4165,5.4165,5.4134,5.4199,5.4265,5.4222,5.4219,5.4157,5.4146,5.4172,5.4233,5.4235,5.4187,5.4136,5.4149,5.4172,5.4156,5.4099,5.4082,5.4111,5.4173,5.4141,5.4092,5.4085,5.4128,5.4139,5.4129,5.4118,5.4055,5.4076,5.4137,5.4144,5.4096,5.4078,5.406,5.4125,5.4177,5.4106,5.4114,5.408,5.4142,5.415,5.4198,5.4165,5.4189,5.4275,5.4263,5.4198,5.4076,5.4397,5.4902,5.4878,5.4723,5.4593,5.4486,5.4505,5.4427,5.4352,5.415,5.4039,5.4083,5.4076,5.4057,5.4018,5.3974,5.3979,5.4016,5.4056,5.397,5.3939,5.3917,5.3987,5.3966,5.3962,5.3883,5.3923,5.3997,5.3987,5.3927,5.3346,5.1874,5.0929,5.1714,5.2819,5.6012,5.9529,6.436,6.5922,6.1597,5.8035,5.6536,5.6179,5.5585,5.5494,5.5494,5.5271,5.4892,5.4679,5.4461,5.4406,5.4343,5.4408,5.4401,5.4413,5.4366,5.4399,5.4401,5.4522,5.4532,5.4564,5.4571,5.4614,5.467,5.4734,5.4725,5.4736,5.4787,5.4917,5.4987,5.5045,5.5043,5.5075,5.5179,5.5303,5.5391,5.5446,5.5534,5.5677,5.5853,5.5911,5.6017,5.6158,5.6335,5.6549,5.6695,5.6846,5.7025,5.7256,5.752,5.7693,5.7764,5.7932,5.8192,5.8441,5.8635,5.8784,5.8903,5.9013,5.9138,5.9047,5.8862,5.8508,5.8157,5.7812,5.7393,5.6897,5.6455,5.6092,5.5826,5.5679,5.5384,5.5098,5.4904,5.4825,5.4718,5.4615,5.4521,5.4451,5.4456,5.4464,5.4451,5.4359,5.4336,5.4362,5.4379,5.435,5.4296,5.4285,5.4299,5.4319,5.433,5.4255,5.4226,5.4245,5.4312,5.4301,5.4261,5.4196,5.4264,5.4325,5.4311,5.4226,5.4218,5.424,5.4329,5.4306,5.4277,5.4244,5.4255,5.4285,5.433,5.4301,5.4228,5.4222,5.4263,5.4283,5.4279,5.4235,5.423,5.428,5.4309,5.4247,5.424,5.4211,5.424,5.4289,5.4286,5.4231,5.4232,5.4237,5.4291,5.4306,5.4258,5.4229,5.4248,5.43,5.4271,5.4239,5.4204,5.4219,5.4268,5.4271,5.4249,5.4176,5.4187,5.4275,5.428,5.4265,5.4272,5.4324,5.4376,5.4402,5.4354,5.425,5.4224,5.4549,5.5054,5.5015,5.4824,5.4715,5.4631,5.4621,5.4537,5.4411,5.4241,5.4207,5.4276,5.4248,5.4155,5.4103,5.4102,5.416,5.4112,5.4077,5.4038,5.4026,5.4115,5.4082,5.4042,5.4019,5.404,5.4109,5.4126,5.4064,5.4048,5.3933,5.2973,5.1448,5.1017,5.2513,5.5802,5.9387,6.4154,6.6218,6.2311,5.8449,5.6931,5.6514,5.5897,5.5618,5.5722,5.5513,5.5125,5.497,5.4724,5.4577,5.4561,5.4576,5.4579,5.4514,5.4532,5.4568,5.4673,5.4685,5.4675,5.4662,5.4708,5.4841,5.4882,5.4863,5.4869,5.4938,5.4991,5.5054,5.512,5.511,5.5134,5.5269,5.5406,5.5461,5.5521,5.5577,5.5774,5.5902,5.5983,5.6041,5.6205,5.6383,5.6584,5.6737,5.6855,5.6957,5.7161,5.742,5.7621,5.5759,5.9925,5.633,6.0327,5.694,6.0556,5.7394,6.0761,5.7837,6.0847,5.7925,6.0491,5.767,5.9823,5.7069,5.9118,5.6431,5.8046,5.5735,5.7246,5.5135,5.643,5.462,5.5958,5.4439,5.5625,5.4205,5.5329,5.4213,5.5202,5.4201,5.5003,5.4195,5.4969,5.4313,5.4915,5.4316,5.4716,5.4338,5.4792,5.4439,5.4676,5.4333,5.4599,5.4484,5.4599,5.4482,5.4502,5.4521,5.4499,5.4605,5.4487,5.4579,5.444,5.466,5.4474,5.4657,5.4363,5.4661,5.4413,5.4765,5.4361,5.4702,5.4305,5.4772,5.4343,5.4762,5.4296,5.4715,5.4289,5.48,5.4304,5.4728,5.4204,5.4746,5.4276,5.4811,5.4244,5.4734,5.4218,5.4815,5.4265,5.4775,5.4187,5.4753,5.4242,5.4763,5.421,5.4722,5.4177,5.477,5.4232,5.4692,5.4156,5.4654,5.422,5.4734,5.4225,5.4684,5.4209,5.4719,5.4346,5.481,5.4374,5.4835,5.4392,5.4711,5.4368,5.509,5.5118,5.5449,5.5011,5.528,5.4792,5.5003,5.4641,5.4939,5.4467,5.4632,5.4307,5.4574,5.4327,5.4522,5.4277,5.443,5.4259,5.4496,5.4282,5.4403,5.4242,5.4414,5.4291,5.4468,5.4279,5.4356,5.4257,5.4384,5.4326,5.4136,5.2765,5.1401,5.1464,5.3483,5.6998,6.0505,6.5248,6.5768,6.1039,5.7939,5.7047,5.6572,5.6217,5.5754,5.6116,5.5797,5.5387,5.5078,5.4975,5.4814,5.4802,5.4704,5.4762,5.474,5.488,5.4789,5.4816,5.4802,5.4999,5.4908,5.5008,5.4892,5.5085,5.5021,5.5215,5.5121,5.5251,5.5156,5.5473,5.5393,5.5617,5.5422,5.5712,5.5626,5.5913,5.5784,5.6042,5.5945,5.6337,5.6201,5.6524,5.6435,5.6827,5.6735,5.7189,5.7125,5.7496,5.7473,5.7978,5.8034,5.8429,5.8382,5.8823,5.8837,5.9309,5.929,5.9579,5.9497,5.9743,5.9574,5.9667,5.9186,5.9022,5.8349,5.8194,5.7586,5.7297,5.6653,5.6505,5.6059,5.6003,5.5553,5.552,5.5183,5.5307,5.5043,5.514,5.4892,5.4984,5.4798,5.4984,5.4815,5.4903,5.4714,5.4907,5.4753,5.4873,5.4678,5.4796,5.4721,5.4879,5.4723,5.4794,5.4597,5.4809,5.4756,5.484,5.4654,5.4712,5.462,5.4766,5.4722,5.4803,5.4651,5.4743,5.4705,5.4779,5.4703,5.4755,5.4685,5.4756,5.4708,5.4751,5.4713,5.4671,5.4691,5.4792,5.4721,5.4644,5.4632,5.4666,5.4694,5.4663,5.4665,5.4655,5.4692,5.472,5.4752,5.4687,5.4672,5.4651,5.4752,5.4656,5.4679,5.4584,5.4726,5.4693,5.4761,5.4628,5.4649,5.4573,5.4701,5.4679,5.4751,5.4581,5.4667,5.4606,5.4694,5.4574,5.4652,5.4556,5.4802,5.4755,5.4851,5.4696,5.4718,5.4534,5.4705,5.4828,5.5334,5.5287,5.5259,5.5092,5.5032,5.4816,5.4879,5.4775,5.4712,5.454,5.4657,5.4404,5.4601,5.4496,5.4573,5.4383,5.4429,5.4351,5.4505,5.4381,5.4422,5.4238,5.4442,5.4382,5.4467,5.4356,5.4469,5.4368,5.4438,5.3882,5.2603,5.1463,5.2234,5.3327,5.6694,5.9819,6.3817,6.4851,6.0463,5.6408,5.4855,5.4567,5.4822,5.5103,5.5695,5.5619,5.5353,5.5108,5.4965,5.4874,5.4872,5.4862,5.4817,5.4897,5.4952,5.4903,5.4898,5.4864,5.4939,5.5058,5.5164,5.5124,5.5127,5.5185,5.5284,5.5346,5.5345,5.5363,5.5494,5.5639,5.5652,5.5658,5.5724,5.5765,5.591,5.6026,5.6178,5.6312,5.6398,5.6613,5.6667,5.6821,5.6887,5.7047,5.7306,5.7626,5.778,5.7956,5.8099,5.8362,5.8374,5.8741,5.8972,5.8952,5.9322,5.9505,5.9658,5.9757,5.9809,5.971,5.9644,5.9331,5.8915,5.8444,5.7976,5.7532,5.7056,5.6621,5.6191,5.6085,5.5808,5.5602,5.53,5.5151,5.498,5.4977,5.4894,5.481,5.4706,5.4674,5.4645,5.4717,5.4657,5.4638,5.4599,5.4657,5.4672,5.4698,5.4613,5.454,5.4533,5.4607,5.4574,5.4552,5.4476,5.4505,5.4537,5.4631,5.4593,5.4582,5.4544,5.4616,5.4614,5.4605,5.4536,5.4594,5.46,5.4645,5.4591,5.4594,5.453,5.4647,5.4645,5.4628,5.4545,5.449,5.4434,5.4516,5.4463,5.4514,5.4376,5.4465,5.4472,5.4464,5.4396,5.4365,5.4313,5.443,5.4441,5.4458,5.4318,5.4367,5.4432,5.4466,5.4475,5.4476,5.4448,5.4528,5.4496,5.4425,5.4258,5.4522,5.4966,5.5226,5.4968,5.4873,5.4803,5.474,5.4737,5.4657,5.4503,5.432,5.4362,5.4353,5.4279,5.4187,5.4144,5.4181,5.421,5.4237,5.4145,5.4089,5.4075,5.4144,5.4178,5.4144,5.4059,5.4043,5.4142,5.4142,5.4126,5.4091,5.353,5.2149,5.1432,5.2469,5.5374,5.8709,6.2211,6.5047,6.2115,5.6663,5.4645,5.4176,5.4236,5.446,5.4743,5.5203,5.5206,5.5025,5.4828,5.4611,5.4556,5.4587,5.4619,5.4569,5.4502,5.4531,5.462,5.47,5.4763,5.477,5.4748,5.4746,5.486,5.4853,5.4892,5.4912,5.4932,5.5047,5.5161,5.5153,5.5146,5.5236,5.5369,5.543,5.5501,5.5549,5.5667,5.5811,5.5916,5.5983,5.606,5.6183,5.6366,5.6568,5.6723,5.684,5.7066,5.7302,5.758,5.7748,5.7912,5.8101,5.8368,5.8624,5.8814,5.89,5.907,5.9191,5.9306,5.9252,5.9071,5.8741,5.8384,5.7967,5.7536,5.7034,5.6542,5.616,5.5899,5.559,5.5309,5.5012,5.4902,5.4794,5.4702,5.4595,5.4491,5.4487,5.4527,5.4425,5.441,5.434,5.4322,5.4316,5.4342,5.4277,5.4246,5.4194,5.4268,5.4281,5.4257,5.4189,5.42,5.423,5.4277,5.4266,5.4254,5.4217,5.4259,5.4323,5.4325,5.4271,5.4268,5.42,5.428,5.4305,5.4266,5.424,5.4271,5.4325,5.4341,5.4276,5.4231,5.4247,5.4302,5.4285,5.4228,5.4198,5.4186,5.4236,5.4252,5.4238,5.4184,5.4192,5.4206,5.4243,5.4236,5.419,5.4154,5.4218,5.4244,5.4208,5.4143,5.4155,5.4192,5.4231,5.422,5.4196,5.4175,5.4205,5.4291,5.4367,5.4346,5.4367,5.4295,5.4261,5.4218,5.4507,5.4961,5.4974,5.4823,5.4796,5.467,5.4541,5.447,5.4439,5.4395,5.4235,5.4181,5.4165,5.4181,5.4204,5.4145,5.407,5.4029,5.407,5.4071,5.4064,5.4015,5.4023,5.4062,5.4094,5.4049,5.4022,5.3999,5.4065,5.4085,5.4012,5.3044,5.1414,5.0901,5.236,5.5463,5.9059,6.3698,6.6271,6.2964,5.8915,5.7221,5.6671,5.601,5.5709,5.5793,5.5654,5.5284,5.4897,5.4746,5.4684,5.4611,5.4518,5.4523,5.4552,5.4586,5.4585,5.4566,5.4605,5.4689,5.4737,5.4725,5.4712,5.4757,5.4874,5.492,5.4948,5.4947,5.4985,5.5106,5.516,5.5206,5.521,5.5253,5.5383,5.5521,5.5612,5.5651,5.5741,5.5882,5.6073,5.6197,5.6289,5.6411,5.6526,5.6724,5.698,5.7128,5.731,5.7492,5.7786,5.7987,5.8198,5.8365,5.8574,5.8847,5.9054,5.9185,5.9241,5.9284,5.9262,5.908,5.8748,5.8321,5.8073,5.7659,5.7235,5.6805,5.6348,5.599,5.5683,5.5471,5.5238,5.5052,5.4821,5.4818,5.4771,5.4707,5.4629,5.4558,5.4522,5.454,5.4486,5.4482,5.4444,5.4418,5.4487,5.4475,5.4447,5.4383,5.4331,5.4412,5.4411,5.437,5.4339,5.4366,5.4412,5.4401,5.4352,5.4316,5.4285,5.4378,5.4398,5.4391,5.4291,5.4292,5.4322,5.4378,5.4358,5.4319,5.4304,5.4336,5.4391,5.4371,5.4316,5.4296,5.4322,5.4394,5.4394,5.4339,5.4295,5.4328,5.4343,5.4371,5.4307,5.4307,5.4292,5.4359,5.437,5.4332,5.4287,5.4299,5.4369,5.4391,5.434,5.4293,5.4293,5.4326,5.4391,5.4362,5.4327,5.4256,5.4342,5.4341,5.4339,5.4313,5.4286,5.4355,5.4454,5.4478,5.445,5.4407,5.4368,5.4348,5.4574,5.5015,5.5087,5.4924,5.4927,5.4847,5.4743,5.4673,5.4577,5.4538,5.4392,5.434,5.4276,5.4218,5.4267,5.428,5.4233,5.4179,5.4152,5.4199,5.4222,5.4127,5.4101,5.4078,5.4122,5.4148,5.4155,5.4071,5.4088,5.4148,5.412,5.3386,5.1718,5.0902,5.2031,5.5,5.8624,6.2909,6.6227,6.3645,5.9174,5.7233,5.674,5.6582,5.5717,5.5958,5.5843,5.5452,5.5057,5.477,5.4719,5.4656,5.4638,5.4524,5.4654,5.4609,5.4666,5.4641,5.4665,5.4654,5.4744,5.4802,5.483,5.4786,5.4858,5.4917,5.5011,5.5047,5.5051,5.5059,5.5213,5.5313,5.5417,5.541,5.5493,5.5585,5.573,5.584,5.5888,5.595,5.6122,5.6283,5.6348,5.6493,5.6605,5.6773,5.7045,5.724,5.7432,5.7571,5.7817,5.8125,5.8352,5.8574,5.872,5.8985,5.9214,5.9418,5.9517,5.9468,5.9488,5.9438,5.9247,5.8928,5.8455,5.797,5.7573,5.7197,5.6758,5.6347,5.5962,5.5736,5.5519,5.5313,5.5124,5.4976,5.4892,5.4882,5.4783,5.4679,5.468,5.4654,5.4708,5.4718,5.4674,5.4617,5.4622,5.4668,5.4669,5.4658,5.4608,5.4567,5.4634,5.4635,5.4551,5.4529,5.4509,5.4538,5.4555,5.4534,5.4489,5.446,5.4489,5.4544,5.4554,5.4496,5.4505,5.4538,5.4562,5.4612,5.4524,5.4483,5.452,5.458,5.4541,5.4532,5.4504,5.453,5.4542,5.4565,5.452,5.4518,5.4476,5.4542,5.455,5.4538,5.4496,5.4443,5.4535,5.4527,5.4529,5.4521,5.454,5.4587,5.4585,5.4511,5.4424,5.4413,5.4465,5.4498,5.4493,5.4431,5.4403,5.4457,5.4506,5.4508,5.4423,5.4408,5.4498,5.4493,5.4489,5.4454,5.4434,5.4441,5.4458,5.445,5.443,5.4423,5.448,5.4513,5.4526,5.4521,5.4499,5.4532,5.4572,5.4562,5.442,5.4576,5.4876,5.516,5.503,5.4999,5.4825,5.4776,5.4782,5.4679,5.4595,5.4358,5.4331,5.4336,5.4362,5.4321,5.4314,5.4223,5.4245,5.4262,5.4225,5.4205,5.4214,5.4239,5.4267,5.4222,5.4185,5.4199,5.4268,5.427,5.4275,5.4167,5.3363,5.1883,5.1276,5.2468,5.5339,5.8638,6.2569,6.5415,6.2375,5.7453,5.5574,5.5096,5.5247,5.5183,5.5612,5.5521,5.5338,5.5138,5.4846,5.4708,5.4616,5.4637,5.4651,5.4708,5.4668,5.4708,5.4645,5.4758,5.4797,5.4851,5.4782,5.4874,5.4967,5.5017,5.5014,5.5003,5.5033,5.5132,5.5213,5.5335,5.5337,5.5393,5.5424,5.5612,5.574,5.5802,5.584,5.5954,5.6133,5.6243,5.6345,5.6486,5.664,5.6887,5.6977,5.7173,5.7383,5.7597,5.7831,5.8026,5.823,5.8407,5.8633,5.8851,5.9095,5.9347,5.9531,5.9638,5.9748,5.9764,5.9552,5.9292,5.8948,5.8723,5.8393,5.7954,5.7414,5.6883,5.6499,5.6201,5.591,5.5591,5.5259,5.5116,5.5101,5.4996,5.4916,5.4733,5.466,5.4626,5.465,5.4591,5.457,5.4531,5.4605,5.4521,5.4513,5.4486,5.4519,5.4539,5.451,5.452,5.4464,5.4443,5.4492,5.4486,5.4504,5.4431,5.4432,5.4496,5.4524,5.4478,5.4444,5.4463,5.4464,5.4485,5.4515,5.4472,5.4401,5.4458,5.4505,5.4489,5.4459,5.4397,5.4469,5.4547,5.4516,5.4351,5.4304,5.4363,5.4405,5.4441,5.4455,5.4365,5.4285,5.4349,5.4359,5.4333,5.4324,5.4368,5.4414,5.4383,5.438,5.4348,5.4346,5.435,5.4395,5.4377,5.4273,5.4245,5.4293,5.4355,5.4408,5.4387,5.43,5.4363,5.438,5.4452,5.4399,5.4317,5.4251,5.453,5.4889,5.5,5.4821,5.4826,5.4798,5.4725,5.4596,5.4503,5.4345,5.4193,5.4266,5.42,5.4164,5.4156,5.4182,5.4168,5.4163,5.409,5.4078,5.402,5.4071,5.4074,5.4017,5.4017,5.4106,5.412,5.4106,5.4039,5.3974,5.3931,5.344,5.2093,5.1457,5.2596,5.5676,5.8879,6.2257,6.4623,6.108,5.5789,5.4008,5.3538,5.3929,5.4415,5.4881,5.511,5.51,5.497,5.467,5.4604,5.4532,5.459,5.45,5.4505,5.4482,5.4628,5.4637,5.4669,5.4602,5.4646,5.4729,5.4818,5.4786,5.4784,5.4757,5.4893,5.4933,5.503,5.504,5.5096,5.5181,5.5337,5.5404,5.543,5.5462,5.5582,5.5721,5.5848,5.594,5.6064,5.6216,5.6411,5.6569,5.6705,5.6705,5.6858,5.7216,5.7456,5.7648,5.7803,5.8036,5.8297,5.8531,5.8688,5.8855,5.9033,5.9262,5.9369,5.9394,5.9264,5.9062,5.8843,5.8428,5.8211,5.7748,5.7197,5.6775,5.6441,5.6057,5.5718,5.5408,5.5208,5.5111,5.495,5.4826,5.4667,5.4644,5.4666,5.4605,5.4518,5.4459,5.4414,5.4458,5.4485,5.4434,5.4359,5.4354,5.4363,5.4396,5.4359,5.4326,5.4272,5.4377,5.4387,5.44,5.4348,5.4363,5.4427,5.4452,5.4428,5.4412,5.4414,5.4473,5.4502,5.4493,5.4507,5.4438,5.4437,5.4513,5.4496,5.451,5.4443,5.4453,5.4517,5.4506,5.445,5.4439,5.4463,5.4557,5.4486,5.4479,5.4454,5.4451,5.4505,5.4496,5.447,5.442,5.4406,5.4449,5.4467,5.448,5.4424,5.4372,5.447,5.45,5.4444,5.4417,5.4393,5.445,5.4485,5.4477,5.4443,5.4397,5.4449,5.4545,5.4572,5.4553,5.4496,5.4513,5.4466,5.4627,5.4968,5.5186,5.506,5.5035,5.4952,5.4814,5.475,5.4671,5.4707,5.4578,5.4493,5.441,5.4366,5.4403,5.4414,5.433,5.4287,5.4295,5.4323,5.4351,5.4286,5.4244,5.4242,5.4301,5.4359,5.432,5.4296,5.425,5.4313,5.4328,5.3883,5.2305,5.1149,5.1756,5.419,5.7868,6.171,6.6157,6.5149,6.0285,5.7902,5.72,5.6713,5.5775,5.6102,5.5858,5.5684,5.5276,5.4976,5.4877,5.4815,5.4792,5.4681,5.4704,5.4751,5.4804,5.4758,5.477,5.4758,5.4895,5.4934,5.4949,5.4897,5.4966,5.5064,5.5104,5.5119,5.5136,5.5155,5.5261,5.5368,5.5472,5.5484,5.5493,5.5625,5.5802,5.5861,5.5957,5.601,5.6151,5.6331,5.649,5.6542,5.6694,5.6763,5.7017,5.7216,5.7382,5.7583,5.7793,5.8075,5.8316,5.8514,5.872,5.8919,5.9163,5.9352,5.9448,5.9479,5.945,5.9395,5.9148,5.8765,5.8527,5.8093,5.7664,5.7297,5.6837,5.6406,5.6034,5.5813,5.5589,5.5359,5.5161,5.5005,5.4952,5.4917,5.4849,5.4807,5.4742,5.4756,5.4769,5.4779,5.4689,5.4672,5.4682,5.4704,5.4712,5.4658,5.457,5.4564,5.4615,5.4602,5.4543,5.4537,5.4533,5.4577,5.4572,5.4524,5.4476,5.4513,5.4535,5.4583,5.4561,5.4523,5.4455,5.4539,5.4564,5.4575,5.4508,5.4471,5.4567,5.4595,5.4569,5.4496,5.4487,5.4519,5.4562,5.4524,5.4508,5.4463,5.4466,5.4508,5.4532,5.4517,5.4454,5.4474,5.4517,5.4528,5.4514,5.4407,5.4468,5.4522,5.4523,5.4486,5.4402,5.446,5.4503,5.4494,5.4463,5.4462,5.443,5.4473,5.4499,5.4469,5.446,5.4433,5.4479,5.4518,5.4499,5.4435,5.4448,5.4475,5.4511,5.4517,5.4479,5.4508,5.4599,5.4644,5.4628,5.4594,5.4515,5.4434,5.4759,5.5171,5.5279,5.5035,5.4998,5.4952,5.489,5.4815,5.4704,5.4589,5.4527,5.4496,5.4415,5.4378,5.435,5.4379,5.439,5.4364,5.4311,5.4258,5.4325,5.4341,5.4309,5.4322,5.4292,5.4335,5.4324,5.4338,5.4296,5.4261,5.39,5.2515,5.1178,5.1542,5.2457,5.5563,5.9156,6.375,6.6373,6.2996,5.9102,5.7477,5.7074,5.6406,5.6013,5.6094,5.5822,5.5396,5.5061,5.4831,5.4777,5.478,5.4784,5.4727,5.4738,5.4702,5.4799,5.4821,5.4848,5.4817,5.4846,5.493,5.5011,5.5012,5.5072,5.5059,5.5157,5.5261,5.5289,5.5299,5.5358,5.5481,5.5576,5.5642,5.5689,5.5723,5.5857,5.6013,5.6163,5.6185,5.628,5.6429,5.6623,5.6833,5.6934,5.7084,5.7316,5.7554,5.7805,5.7994,5.8137,5.8257,5.8525,5.8743,5.8944,5.9122,5.9299,5.9522,5.969,5.9734,5.9667,5.9593,5.9384,5.9058,5.8619,5.8108,5.7661,5.7249,5.6868,5.6513,5.6306,5.5994,5.5774,5.5587,5.5432,5.5316,5.5137,5.5135,5.5103,5.5051,5.4993,5.4926,5.4888,5.4934,5.4909,5.4903,5.4877,5.486,5.4896,5.4882,5.484,5.4808,5.4761,5.4833,5.4863,5.481,5.4786,5.4747,5.4778,5.4821,5.4807,5.4739,5.4707,5.4773,5.4742,5.4776,5.4728,5.4743,5.4782,5.4813,5.4819,5.481,5.4747,5.4753,5.4782,5.4789,5.4742,5.4734,5.474,5.4792,5.477,5.4754,5.4682,5.4702,5.4762,5.4756,5.4711,5.4728,5.4718,5.4755,5.4715,5.47,5.467,5.4729,5.4734,5.4718,5.472,5.4662,5.469,5.4727,5.4711,5.4687,5.4687,5.4684,5.4751,5.4779,5.4745,5.4734,5.4695,5.4728,5.4738,5.4721,5.469,5.4667,5.4741,5.4742,5.4747,5.4709,5.4711,5.4726,5.4798,5.4842,5.4787,5.4705,5.4707,5.4702,5.4763,5.5026,5.5341,5.5292,5.5227,5.5216,5.5049,5.4971,5.4885,5.4841,5.4733,5.4709,5.4597,5.4528,5.4566,5.4608,5.453,5.4462,5.4516,5.4535,5.455,5.4531,5.4446,5.4381,5.4407,5.4434,5.4451,5.4427,5.4438,5.4482,5.4471,5.364,5.212,5.1483,5.2884,5.6031,5.9329,6.3201,6.5192,6.4025,5.8929,5.6018,5.5199,5.5093,5.5249,5.5482,5.5917,5.5467,5.5337,5.4942,5.5024,5.492,5.5031,5.4767,5.488,5.4787,5.5008,5.4864,5.4934,5.48,5.5016,5.5048,5.5229,5.5115,5.5145,5.5127,5.5352,5.5297,5.5412,5.5472,5.5565,5.5547,5.5679,5.5666,5.5766,5.589,5.5972,5.5953,5.6102,5.6163,5.6321,5.646,5.6674,5.6746,5.6876,5.7071,5.7298,5.7504,5.7694,5.7937,5.814,5.8379,5.8541,5.8776,5.9017,5.9178,5.9257,5.9488,5.9632,5.9727,5.983,5.9713,5.9556,5.9322,5.8858,5.8346,5.7864,5.7514,5.7034,5.6615,5.621,5.5907,5.563,5.5461,5.5235,5.5189,5.4964,5.4996,5.4899,5.4811,5.4731,5.4693,5.4659,5.4698,5.4596,5.4561,5.4559,5.4664,5.4633,5.4595,5.4501,5.4483,5.4485,5.4556,5.4539,5.4565,5.4515,5.4537,5.4579,5.46,5.4479,5.4508,5.4537,5.4662,5.4594,5.4569,5.4432,5.4531,5.4546,5.4585,5.4476,5.4543,5.4571,5.4629,5.4607,5.4539,5.4439,5.4414,5.4469,5.4493,5.4481,5.4428,5.4416,5.4472,5.4375,5.4382,5.4409,5.4442,5.4456,5.4496,5.4423,5.4349,5.4324,5.4347,5.44,5.4415,5.4375,5.4354,5.4348,5.4437,5.4396,5.432,5.4269,5.4317,5.4359,5.4429,5.4386,5.4368,5.4461,5.4494,5.4349,5.4313,5.4481,5.4864,5.5185,5.4942,5.4836,5.4665,5.4596,5.4581,5.4543,5.4375,5.4264,5.4301,5.4257,5.4305,5.4239,5.416,5.4168,5.4191,5.421,5.4163,5.4164,5.4106,5.4146,5.42,5.4147,5.409,5.4074,5.4134,5.4205,5.414,5.3842,5.2674,5.1596,5.1893,5.4181,5.745,6.0584,6.4652,6.525,6.1694,5.6735,5.474,5.4515,5.4652,5.4917,5.5262,5.5399,5.5021,5.5057,5.4728,5.4737,5.4535,5.4667,5.4612,5.4755,5.4588,5.465,5.4581,5.4754,5.4761,5.4871,5.479,5.4875,5.4823,5.5016,5.4966,5.5027,5.4993,5.5154,5.5158,5.527,5.5238,5.5389,5.5392,5.5591,5.5599,5.5678,5.5704,5.5846,5.6013,5.6173,5.6288,5.639,5.6538,5.6765,5.6939,5.711,5.7261,5.7497,5.7747,5.7965,5.8151,5.8329,5.8544,5.8782,5.89,5.9087,5.9201,5.931,5.9426,5.9395,5.9266,5.8942,5.8543,5.816,5.7762,5.7262,5.6779,5.6365,5.6094,5.5817,5.5589,5.5306,5.5143,5.5052,5.504,5.4962,5.4871,5.4698,5.4742,5.4732,5.4727,5.4653,5.463,5.4609,5.4677,5.4632,5.4617,5.4566,5.4587,5.4572,5.4604,5.4522,5.453,5.4488,5.4562,5.4594,5.4606,5.4546,5.4583,5.4574,5.4641,5.4629,5.458,5.4606,5.4626,5.4639,5.4622,5.4568,5.4575,5.4593,5.4677,5.4665,5.4619,5.4555,5.46,5.4609,5.4612,5.4545,5.4514,5.4495,5.4566,5.4548,5.4525,5.449,5.4519,5.458,5.4538,5.451,5.4494,5.4482,5.455,5.4524,5.4565,5.4484,5.4495,5.4547,5.4601,5.4536,5.4509,5.4479,5.4526,5.4561,5.4572,5.4516,5.4561,5.4643,5.4722,5.4679,5.4663,5.4531,5.449,5.459,5.4938,5.5345,5.5201,5.5118,5.5085,5.5001,5.4932,5.4803,5.4746,5.4634,5.4601,5.4563,5.4475,5.4443,5.4492,5.4475,5.4454,5.4411,5.4388,5.4419,5.4432,5.4406,5.4375,5.4364,5.4403,5.4457,5.4451,5.4417,5.4387,5.444,5.4019,5.2475,5.1329,5.2006,5.4526,5.8136,5.9849,6.4408,6.6245,6.2272,5.8727,5.719,5.6821,5.6094,5.6027,5.609,5.5895,5.5414,5.5138,5.4935,5.502,5.4927,5.4938,5.4847,5.4926,5.4978,5.5028,5.4998,5.5026,5.4999,5.5092,5.5129,5.5185,5.5155,5.5209,5.5292,5.5391,5.541,5.5449,5.5475,5.5559,5.5667,5.5708,5.5742,5.5785,5.5884,5.6019,5.6117,5.622,5.6298,5.6422,5.665,5.678,5.6883,5.6995,5.7205,5.7454,5.7634,5.7826,5.8033,5.8218,5.8516,5.8731,5.8858,5.9007,5.9218,5.9438,5.9661,5.9709,5.9746,5.9681,5.9617,5.9361,5.8973,5.8472,5.8058,5.7604,5.7254,5.6809,5.6435,5.6092,5.594,5.5823,5.5671,5.542,5.5318,5.5222,5.5218,5.5161,5.5113,5.5011,5.5059,5.5065,5.5079,5.4974,5.4959,5.4978,5.5012,5.4956,5.4941,5.4869,5.4914,5.4936,5.4961,5.4934,5.4877,5.4885,5.492,5.496,5.4938,5.4853,5.4875,5.4937,5.4946,5.4914,5.4907,5.4892,5.4917,5.4942,5.4936,5.4872,5.4856,5.4879,5.4971,5.4919,5.4851,5.4843,5.4854,5.4904,5.487,5.483,5.4782,5.4851,5.4912,5.4863,5.4827,5.4791,5.4821,5.4882,5.4871,5.4855,5.4828,5.4821,5.487,5.4894,5.4846,5.4814,5.48,5.4861,5.4895,5.4851,5.4785,5.478,5.4834,5.4847,5.4811,5.4778,5.4746,5.4837,5.4855,5.4819,5.4788,5.474,5.4766,5.4832,5.4805,5.4788,5.4767,5.4886,5.4913,5.4912,5.487,5.4803,5.472,5.5008,5.5403,5.5599,5.5355,5.5306,5.5312,5.519,5.514,5.5006,5.4931,5.4779,5.4822,5.4782,5.4644,5.4627,5.4656,5.4702,5.4647,5.4597,5.4541,5.4658,5.463,5.4562,5.4502,5.4495,5.4556,5.4602,5.4607,5.4549,5.4529,5.4534,5.3955,5.2426,5.1421,5.2303,5.505,5.8632,6.2669,6.6439,6.4258,5.9555,5.749,5.7239,5.6932,5.6128,5.6271,5.6232,5.5949,5.5511,5.5208,5.5012,5.5055,5.5046,5.5014,5.496,5.4963,5.5013,5.5058,5.5037,5.5012,5.5037,5.5111,5.5156,5.5139,5.5157,5.5172,5.5224,5.5361,5.537,5.5389,5.5417,5.5508,5.5648,5.5683,5.572,5.5748,5.5912,5.5996,5.6115,5.6175,5.6273,5.6352,5.6581,5.6708,5.6815,5.6943,5.7112,5.7371,5.7588,5.774,5.7931,5.8134,5.8427,5.8653,5.8828,5.9006,5.9211,5.9482,5.9637,5.9698,5.9724,5.9628,5.9569,5.9378,5.9044,5.8603,5.8132,5.7721,5.7326,5.6924,5.6491,5.6175,5.5893,5.5742,5.5514,5.5342,5.5182,5.5177,5.5132,5.5104,5.5049,5.4969,5.4934,5.4938,5.4954,5.4892,5.4827,5.4833,5.4937,5.4872,5.4789,5.4742,5.4756,5.4821,5.4862,5.4823,5.4771,5.4776,5.4769,5.4779,5.4781,5.4732,5.4706,5.4729,5.4762,5.4779,5.4712,5.468,5.4746,5.4812,5.477,5.4703,5.4688,5.4736,5.4793,5.4747,5.4702,5.4696,5.4687,5.4702,5.4692,5.4716,5.4656,5.4605,5.4709,5.4705,5.4621,5.4591,5.4563,5.4651,5.4623,5.4603,5.4525,5.4592,5.463,5.4662,5.4631,5.4559,5.4576,5.4668,5.4649,5.4599,5.456,5.453,5.4598,5.462,5.459,5.4537,5.4487,5.4509,5.4565,5.4577,5.4519,5.4476,5.4484,5.4513,5.4491,5.449,5.4458,5.4483,5.463,5.4621,5.4556,5.4512,5.4478,5.4439,5.4495,5.4777,5.5133,5.5161,5.5041,5.4976,5.482,5.4762,5.4672,5.4653,5.4546,5.4406,5.4394,5.4355,5.4308,5.4333,5.4325,5.4203,5.418,5.4209,5.4273,5.4246,5.4164,5.4117,5.4198,5.4265,5.4201,5.4151,5.4123,5.412,5.4192,5.4005,5.283,5.142,5.1425,5.3522,5.6897,6.0101,6.4331,6.4457,5.9493,5.6202,5.4861,5.4799,5.4897,5.5197,5.5454,5.5359,5.5074,5.4824,5.4697,5.4602,5.4546,5.4435,5.4468,5.4486,5.4598,5.4634,5.4655,5.4624,5.4712,5.4812,5.4859,5.4768,5.4796,5.4931,5.5012,5.5052,5.5079,5.5095,5.5113,5.5255,5.5295,5.5325,5.5351,5.5403,5.5581,5.5651,5.577,5.5849,5.5969,5.6202,5.635,5.6423,5.658,5.6662,5.6945,5.7154,5.7344,5.7531,5.7666,5.7941,5.8155,5.829,5.8514,5.873,5.8954,5.9135,5.9292,5.9416,5.9435,5.9468,5.9372,5.9122,5.8956,5.8541,5.8118,5.7657,5.724,5.6801,5.6321,5.5981,5.5771,5.5579,5.5268,5.499,5.4855,5.479,5.4732,5.466,5.4547,5.4559,5.4568,5.4548,5.4502,5.4423,5.4337,5.4402,5.4437,5.4442,5.4371,5.4329,5.4335,5.4414,5.4384,5.4374,5.4331,5.4373,5.4395,5.4395,5.4347,5.4405,5.4412,5.4421,5.4435,5.4377,5.4332,5.4362,5.44,5.4419
