-8.8046,-8.7927,-8.7943,-8.8059,-8.8025,-8.8099,-8.8141,-8.7986,-8.7989,-8.8135,-8.8219,-8.8131,-8.8224,-8.8238,-8.8181,-8.8045,-8.7929,-8.8058,-8.8136,-8.8143,-8.815,-8.811,-8.8155,-8.8185,-8.8087,-8.8107,-8.8193,-8.8121,-8.7854,-8.7708,-8.7693,-8.7801,-8.7816,-8.7844,-8.7594,-8.7503,-8.7507,-8.7348,-8.7481,-8.7363,-8.7335,-8.732,-8.7474,-8.7543,-8.7543,-8.7435,-8.7488,-8.7651,-8.7754,-8.7856,-8.7911,-8.8068,-8.8158,-8.8561,-8.8602,-8.8463,-8.8449,-8.8511,-8.8388,-8.837,-8.8398,-8.8512,-8.8526,-8.8566,-8.8533,-8.8456,-8.8596,-8.8539,-8.8182,-8.7657,-8.6348,-8.4223,-8.214,-7.9438,-7.8644,-7.9913,-8.2406,-8.4674,-8.5141,-8.6354,-8.7901,-8.824,-8.783,-8.748,-8.7521,-8.8035,-8.804,-8.796,-8.7817,-8.7883,-8.8066,-8.8118,-8.8175,-8.8038,-8.7933,-8.7975,-8.8239,-8.7951,-8.7952,-8.8006,-8.8057,-8.8016,-8.7929,-8.7934,-8.7925,-8.7928,-8.8044,-8.813,-8.8078,-8.7822,-8.7812,-8.8028,-8.7985,-8.7952,-8.7825,-8.7732,-8.7653,-8.7565,-8.7286,-8.7331,-8.7576,-8.7574,-8.7263,-8.7003,-8.6883,-8.6986,-8.695,-8.6772,-8.6587,-8.6492,-8.6428,-8.6292,-8.5994,-8.5876,-8.5969,-8.5824,-8.5683,-8.556,-8.5672,-8.5854,-8.6038,-8.6039,-8.6117,-8.6346,-8.6389,-8.6548,-8.6817,-8.7029,-8.7149,-8.7386,-8.7471,-8.7668,-8.7792,-8.7921,-8.7879,-8.7987,-8.7963,-8.7832,-8.7769,-8.7814,-8.7906,-8.8185,-8.817,-8.7904,-8.7905,-8.8066,-8.8052,-8.8066,-8.8049,-8.803,-8.8026,-8.8025,-8.7897,-8.7982,-8.7939,-8.7916,-8.7994,-8.8065,-8.7874,-8.7749,-8.7786,-8.7888,-8.7931,-8.7931,-8.7919,-8.7991,-8.8092,-8.8045,-8.7864,-8.801,-8.8113,-8.8053,-8.8192,-8.7992,-8.7904,-8.776,-8.8035,-8.808,-8.8085,-8.8161,-8.8219,-8.8225,-8.8214,-8.8095,-8.8045,-8.8057,-8.8086,-8.812,-8.8111,-8.8149,-8.8167,-8.8252,-8.8236,-8.8153,-8.8091,-8.8135,-8.8221,-8.8367,-8.8252,-8.8232,-8.809,-8.8038,-8.8331,-8.8365,-8.8207,-8.8133,-8.8158,-8.8235,-8.8407,-8.835,-8.8363,-8.814,-8.8143,-8.8201,-8.8262,-8.8191,-8.7899,-8.7923,-8.787,-8.7655,-8.7737,-8.7537,-8.7543,-8.7558,-8.7452,-8.7398,-8.7334,-8.7326,-8.729,-8.7437,-8.7457,-8.7418,-8.7509,-8.7599,-8.7654,-8.7714,-8.7684,-8.7936,-8.8199,-8.8376,-8.842,-8.8212,-8.8151,-8.8413,-8.8655,-8.8576,-8.8515,-8.8493,-8.8473,-8.8383,-8.8316,-8.8302,-8.8398,-8.8683,-8.8605,-8.8057,-8.7328,-8.6362,-8.4609,-8.1906,-7.9218,-7.8566,-8.0197,-8.2461,-8.4734,-8.5369,-8.6677,-8.8144,-8.8588,-8.8113,-8.765,-8.754,-8.78,-8.7897,-8.7776,-8.792,-8.7947,-8.7682,-8.79,-8.8144,-8.8048,-8.804,-8.8013,-8.7887,-8.8021,-8.7995,-8.7863,-8.7948,-8.7955,-8.7882,-8.7787,-8.7809,-8.7924,-8.7963,-8.7972,-8.8012,-8.777,-8.766,-8.7523,-8.7426,-8.7711,-8.7771,-8.7502,-8.7451,-8.7458,-8.751,-8.7184,-8.7052,-8.7031,-8.6821,-8.68,-8.6839,-8.6712,-8.677,-8.6437,-8.6307,-8.6199,-8.6243,-8.6188,-8.6099,-8.5854,-8.5759,-8.5534,-8.5259,-8.5469,-8.5528,-8.5475,-8.5559,-8.5775,-8.5899,-8.6242,-8.6395,-8.6247,-8.64,-8.6647,-8.6931,-8.6998,-8.7136,-8.713,-8.7362,-8.7246,-8.7338,-8.7343,-8.7487,-8.7518,-8.7548,-8.7461,-8.7291,-8.7083,-8.7193,-8.757,-8.7611,-8.7445,-8.7489,-8.729,-8.7439,-8.7279,-8.7233,-8.7245,-8.737,-8.7425,-8.7466,-8.7374,-8.7184,-8.7254,-8.7203,-8.7295,-8.7359,-8.7416,-8.7206,-8.7243,-8.7321,-8.7132,-8.7048,-8.7223,-8.7203,-8.7374,-8.7482,-8.7522,-8.7311,-8.7411,-8.7321,-8.7365,-8.7478,-8.7379,-8.7464,-8.7607,-8.7551,-8.7533,-8.7268,-8.7154,-8.725,-8.7518,-8.7424,-8.7441,-8.743,-8.7421,-8.7559,-8.7489,-8.7449,-8.7417,-8.7444,-8.7525,-8.7392,-8.7406,-8.76,-8.7577,-8.7571,-8.7464,-8.742,-8.7559,-8.7472,-8.7394,-8.7333,-8.7367,-8.7624,-8.7602,-8.7644,-8.7538,-8.7294,-8.7164,-8.7052,-8.6981,-8.6759,-8.6967,-8.6924,-8.689,-8.68,-8.6964,-8.6971,-8.66,-8.6708,-8.6894,-8.6865,-8.691,-8.6784,-8.6862,-8.7106,-8.7288,-8.7438,-8.7548,-8.7603,-8.7769,-8.7879,-8.7762,-8.77,-8.7713,-8.7923,-8.793,-8.7858,-8.784,-8.7955,-8.7943,-8.8007,-8.7959,-8.7961,-8.8071,-8.7696,-8.717,-8.6388,-8.4682,-8.2194,-7.9674,-7.8032,-7.8978,-7.9842,-8.2563,-8.4458,-8.5408,-8.6905,-8.7728,-8.7737,-8.7241,-8.724,-8.7337,-8.7604,-8.7504,-8.7737,-8.7712,-8.7867,-8.7818,-8.7858,-8.7765,-8.787,-8.7828,-8.7843,-8.7704,-8.789,-8.7789,-8.7871,-8.7721,-8.7698,-8.7712,-8.7954,-8.7987,-8.7879,-8.7823,-8.7821,-8.7684,-8.7714,-8.7677,-8.7674,-8.7527,-8.7482,-8.7439,-8.7313,-8.7202,-8.7438,-8.7524,-8.7494,-8.7354,-8.7234,-8.692,-8.6858,-8.7039,-8.6837,-8.6528,-8.6335,-8.6426,-8.6546,-8.6288,-8.6024,-8.6028,-8.5934,-8.5801,-8.5817,-8.5951,-8.5761,-8.5808,-8.5839,-8.605,-8.6116,-8.6245,-8.6495,-8.6725,-8.6756,-8.6825,-8.709,-8.7301,-8.7643,-8.7754,-8.7713,-8.7752,-8.7847,-8.7944,-8.8022,-8.8005,-8.7972,-8.781,-8.7875,-8.8097,-8.7922,-8.7866,-8.7745,-8.808,-8.8248,-8.8219,-8.8063,-8.8021,-8.7938,-8.7995,-8.8029,-8.8031,-8.7962,-8.7952,-8.7919,-8.7854,-8.7803,-8.7777,-8.7858,-8.7963,-8.7865,-8.7846,-8.7793,-8.7936,-8.7977,-8.7835,-8.7767,-8.7946,-8.7978,-8.8019,-8.7937,-8.8012,-8.8107,-8.8122,-8.8202,-8.8165,-8.8013,-8.802,-8.8116,-8.8244,-8.8153,-8.8181,-8.8066,-8.8116,-8.8083,-8.8077,-8.8239,-8.8321,-8.8301,-8.8343,-8.8357,-8.838,-8.8354,-8.8331,-8.8457,-8.84,-8.8327,-8.8384,-8.8418,-8.8414,-8.8534,-8.8444,-8.8327,-8.8313,-8.841,-8.8471,-8.8495,-8.837,-8.8376,-8.8413,-8.8376,-8.8424,-8.8462,-8.8445,-8.8435,-8.8349,-8.8229,-8.8326,-8.8366,-8.8168,-8.8194,-8.8191,-8.7878,-8.7703,-8.7616,-8.7707,-8.7767,-8.7646,-8.7728,-8.7673,-8.7559,-8.755,-8.7735,-8.7777,-8.7802,-8.7693,-8.7705,-8.817,-8.8333,-8.8447,-8.8551,-8.8644,-8.8662,-8.862,-8.8648,-8.8658,-8.87,-8.8644,-8.8703,-8.8702,-8.8668,-8.8596,-8.8687,-8.8783,-8.8825,-8.9057,-8.8928,-8.838,-8.7708,-8.6398,-8.4191,-8.1829,-7.9081,-7.8718,-8.0123,-8.2962,-8.5239,-8.5714,-8.7177,-8.8327,-8.8578,-8.7988,-8.7923,-8.7887,-8.8069,-8.8112,-8.8488,-8.8525,-8.8367,-8.8043,-8.8237,-8.8336,-8.8599,-8.8483,-8.8334,-8.8214,-8.8171,-8.8026,-8.8171,-8.8237,-8.833,-8.8175,-8.8216,-8.83,-8.8193,-8.8179,-8.8256,-8.8266,-8.8184,-8.8115,-8.7974,-8.7827,-8.7619,-8.7851,-8.8139,-8.8022,-8.7919,-8.7855,-8.7773,-8.7841,-8.757,-8.7419,-8.7292,-8.7402,-8.7326,-8.7024,-8.6921,-8.6901,-8.6804,-8.6629,-8.6503,-8.6507,-8.6361,-8.5934,-8.5723,-8.5858,-8.621,-8.6265,-8.6127,-8.6244,-8.6257,-8.6396,-8.6626,-8.6764,-8.6974,-8.7205,-8.7184,-8.7469,-8.7589,-8.7725,-8.7747,-8.7825,-8.7863,-8.8125,-8.8199,-8.8185,-8.8115,-8.8174,-8.8288,-8.8352,-8.8277,-8.8427,-8.8408,-8.8292,-8.8271,-8.8361,-8.835,-8.8372,-8.8315,-8.8265,-8.8249,-8.8323,-8.8127,-8.811,-8.8138,-8.8246,-8.8253,-8.8225,-8.819,-8.8201,-8.8227,-8.8142,-8.812,-8.8231,-8.825,-8.8418,-8.8508,-8.8406,-8.8313,-8.8315,-8.8345,-8.8303,-8.8208,-8.8195,-8.8284,-8.847,-8.8362,-8.8395,-8.8416,-8.8505,-8.8484,-8.8454,-8.8466,-8.8234,-8.8335,-8.8574,-8.8648,-8.8479,-8.8486,-8.852,-8.8606,-8.8525,-8.8549,-8.8479,-8.8692,-8.8658,-8.8534,-8.8531,-8.8596,-8.8734,-8.8653,-8.8668,-8.8542,-8.8614,-8.8794,-8.8765,-8.8597,-8.854,-8.8618,-8.8649,-8.8828,-8.8867,-8.8803,-8.8718,-8.8754,-8.8712,-8.8729,-8.8733,-8.8741,-8.865,-8.8621,-8.8391,-8.8323,-8.8299,-8.8202,-8.8151,-8.8055,-8.792,-8.7968,-8.8057,-8.8079,-8.8051,-8.7981,-8.7922,-8.8095,-8.8201,-8.8123,-8.8175,-8.8317,-8.8504,-8.8484,-8.8523,-8.875,-8.8983,-8.9009,-8.8989,-8.9082,-8.9095,-8.9057,-8.9052,-8.9071,-8.9203,-8.9281,-8.9224,-8.9302,-8.9247,-8.9372,-8.9519,-8.9192,-8.8626,-8.7871,-8.6477,-8.4189,-8.1648,-7.9135,-7.9783,-8.1608,-8.445,-8.5923,-8.698,-8.7776,-8.8754,-8.9101,-8.8493,-8.844,-8.8498,-8.8884,-8.8782,-8.8902,-8.8812,-8.8974,-8.8897,-8.9092,-8.8848,-8.9023,-8.8858,-8.902,-8.8811,-8.9035,-8.8983,-8.9022,-8.8874,-8.8999,-8.8799,-8.8805,-8.8676,-8.8737,-8.8809,-8.9002,-8.8901,-8.886,-8.8839,-8.8873,-8.8705,-8.8653,-8.8612,-8.8505,-8.847,-8.85,-8.8536,-8.8436,-8.8399,-8.8362,-8.8259,-8.803,-8.79,-8.7704,-8.7756,-8.7688,-8.7504,-8.7442,-8.7508,-8.7539,-8.7271,-8.6996,-8.6975,-8.6832,-8.6788,-8.6805,-8.6809,-8.6722,-8.6842,-8.7004,-8.7136,-8.7166,-8.7345,-8.742,-8.7848,-8.7999,-8.8387,-8.8313,-8.8341,-8.8482,-8.863,-8.8545,-8.8621,-8.8753,-8.8801,-8.8991,-8.8923,-8.867,-8.8638,-8.8767,-8.8877,-8.8802,-8.8791,-8.8681,-8.87,-8.8678,-8.8765,-8.8525,-8.8451,-8.8593,-8.8622,-8.8602,-8.8661,-8.8649,-8.86,-8.8675,-8.8457,-8.844,-8.8406,-8.8419,-8.8387,-8.8498,-8.8513,-8.8334,-8.8368,-8.8435,-8.8567,-8.8507,-8.8718,-8.8762,-8.8564,-8.8622,-8.8539,-8.8538,-8.8514,-8.8611,-8.8693,-8.8576,-8.8587,-8.8623,-8.8637,-8.8648,-8.857,-8.8487,-8.8436,-8.8311,-8.8659,-8.8693,-8.862,-8.8634,-8.8586,-8.8489,-8.8505,-8.8494,-8.8456,-8.8549,-8.8544,-8.8518,-8.85,-8.8571,-8.8545,-8.8553,-8.8667,-8.8684,-8.8536,-8.8628,-8.8792,-8.8685,-8.8522,-8.8496,-8.8506,-8.8298,-8.8273,-8.8347,-8.8079,-8.7942,-8.7969,-8.7849,-8.7729,-8.7651,-8.7803,-8.7851,-8.7805,-8.7557,-8.7408,-8.7591,-8.774,-8.7925,-8.7953,-8.7879,-8.8095,-8.8267,-8.8413,-8.8476,-8.8543,-8.8551,-8.8537,-8.8669,-8.8673,-8.8641,-8.8759,-8.8772,-8.8697,-8.8738,-8.8724,-8.8678,-8.854,-8.8782,-8.8955,-8.8653,-8.8396,-8.7277,-8.6002,-8.3796,-8.1247,-7.8818,-7.941,-8.1274,-8.3781,-8.5474,-8.6527,-8.7607,-8.8343,-8.8284,-8.782,-8.7931,-8.799,-8.8401,-8.8331,-8.8179,-8.7999,-8.8147,-8.8214,-8.8508,-8.8302,-8.8422,-8.8105,-8.8149,-8.824,-8.8281,-8.8134,-8.8238,-8.8064,-8.8156,-8.794,-8.7853,-8.8047,-8.8278,-8.8148,-8.828,-8.791,-8.7918,-8.7832,-8.7945,-8.7774,-8.7596,-8.7473,-8.7421,-8.7557,-8.7506,-8.7494,-8.7469,-8.731,-8.7236,-8.7109,-8.6786,-8.6726,-8.6828,-8.6731,-8.6691,-8.6569,-8.6296,-8.6102,-8.6127,-8.6042,-8.5945,-8.5627,-8.5599,-8.5629,-8.5802,-8.5615,-8.5546,-8.5705,-8.5843,-8.6017,-8.6377,-8.6331,-8.6472,-8.6633,-8.6886,-8.7015,-8.7012,-8.7213,-8.7282,-8.752,-8.74,-8.734,-8.7394,-8.7643,-8.7404,-8.7414,-8.7561,-8.77,-8.757,-8.7642,-8.7486,-8.7483,-8.7422,-8.7508,-8.7454,-8.7449,-8.7413,-8.733,-8.7245,-8.7484,-8.7586,-8.7591,-8.7436,-8.7521,-8.7447,-8.7375,-8.7272,-8.7187,-8.7324,-8.7223,-8.7322,-8.7334,-8.7294,-8.7355,-8.7313,-8.7541,-8.74,-8.7483,-8.7207,-8.7193,-8.7378,-8.7583,-8.7494,-8.7426,-8.751,-8.7645,-8.757,-8.7482,-8.7428,-8.7384,-8.7528,-8.7568,-8.7607,-8.7479,-8.7527,-8.7533,-8.7434,-8.7441,-8.7629,-8.7545,-8.7457,-8.7429,-8.7226,-8.71,-8.6925,-8.7095,-8.6926,-8.6706,-8.673,-8.6792,-8.6805,-8.6931,-8.6749,-8.6829,-8.6873,-8.6868,-8.7048,-8.712,-8.7063,-8.7186,-8.7501,-8.7766,-8.7902,-8.7943,-8.7931,-8.7858,-8.8105,-8.8092,-8.7973,-8.7955,-8.8052,-8.7975,-8.8071,-8.8077,-8.8207,-8.8146,-8.8356,-8.837,-8.7994,-8.7375,-8.6537,-8.5169,-8.2568,-7.9953,-7.8268,-7.9637,-8.1759,-8.4151,-8.5007,-8.5529,-8.71,-8.8243,-8.8267,-8.7834,-8.7779,-8.7945,-8.8026,-8.7906,-8.7933,-8.792,-8.8195,-8.8161,-8.821,-8.8032,-8.8187,-8.8315,-8.8454,-8.8293,-8.8259,-8.8176,-8.83,-8.8285,-8.824,-8.8225,-8.8263,-8.8277,-8.8555,-8.844,-8.8344,-8.8155,-8.8296,-8.8426,-8.8327,-8.8243,-8.8282,-8.822,-8.8275,-8.819,-8.822,-8.8104,-8.8194,-8.818,-8.802,-8.79,-8.7876,-8.7674,-8.7735,-8.7676,-8.7581,-8.744,-8.7244,-8.7101,-8.6905,-8.694,-8.7117,-8.6868,-8.6567,-8.6628,-8.6894,-8.7124,-8.6933,-8.7189,-8.7394,-8.7587,-8.7623,-8.775,-8.7976,-8.7993,-8.8081,-8.8341,-8.8399,-8.8616,-8.8773,-8.8955,-8.8731,-8.8684,-8.8689,-8.8786,-8.8855,-8.8778,-8.8621,-8.858,-8.8701,-8.8767,-8.8704,-8.8521,-8.847,-8.8516,-8.8467,-8.8363,-8.8261,-8.8234,-8.8081,-8.8221,-8.8389,-8.8158,-8.8042,-8.7863,-8.787,-8.8055,-8.8217,-8.8176,-8.8051,-8.8197,-8.8278,-8.8194,-8.8046,-8.8121,-8.8131,-8.8262,-8.8372,-8.8365,-8.8164,-8.8127,-8.8467,-8.8668,-8.8476,-8.8445,-8.8701,-8.875,-8.8648,-8.8707,-8.8758,-8.8669,-8.8668,-8.8783,-8.8871,-8.8861,-8.9041,-8.9147,-8.9098,-8.9075,-8.9088,-8.9088,-8.9101,-8.9069,-8.8738,-8.8491,-8.8706,-8.908,-8.8998,-8.8799,-8.8706,-8.8678,-8.8805,-8.9136,-8.9051,-8.8891,-8.8869,-8.887,-8.8874,-8.894,-8.9059,-8.9463,-8.9729,-8.9682,-8.9808,-8.9982,-9.0148,-9.0193,-9.0308,-9.0335,-9.0368,-9.0296,-9.0431,-9.076,-9.0718,-9.0476,-9.0357,-9.0644,-9.0882,-9.06,-9.0838,-9.0776,-9.0626,-9.0076,-8.9281,-8.7377,-8.4815,-8.2241,-8.067,-8.1853,-8.4093,-8.6888,-8.8218,-8.9433,-9.0581,-9.0583,-9.0227,-9.0077,-9.0343,-9.0523,-9.0892,-9.0851,-9.066,-9.0636,-9.0757,-9.0784,-9.0695,-9.0761,-9.0868,-9.0914,-9.101,-9.0962,-9.0995,-9.1021,-9.1033,-9.0924,-9.1098,-9.1139,-9.1147,-9.1033,-9.1067,-9.1149,-9.1141,-9.1006,-9.1072,-9.1052,-9.088,-9.0873,-9.0733,-9.0852,-9.1078,-9.0958,-9.0736,-9.0777,-9.0725,-9.0694,-9.0547,-9.0408,-9.0091,-9.0046,-8.988,-8.9802,-8.9808,-8.9814,-8.9618,-8.9541,-8.9416,-8.9396,-8.9199,-8.9096,-8.9087,-8.9202,-8.925,-8.9198,-8.9248,-8.9566,-8.9792,-8.9982,-9.022,-9.0202,-9.0333,-9.0506,-9.0737,-9.0801,-9.0921,-9.1227,-9.1366,-9.1192,-9.1316,-9.1466,-9.1475,-9.1303,-9.1413,-9.1471,-9.1758,-9.179,-9.1692,-9.1379,-9.1374,-9.1606,-9.1625,-9.1615,-9.1736,-9.1807,-9.1766,-9.1683,-9.1579,-9.1517,-9.1576,-9.1731,-9.1724,-9.1671,-9.1669,-9.1653,-9.1694,-9.1684,-9.1738,-9.1767,-9.1647,-9.1626,-9.1773,-9.1843,-9.1794,-9.1701,-9.1909,-9.2065,-9.2004,-9.1978,-9.1893,-9.1879,-9.197,-9.2102,-9.2073,-9.2079,-9.1899,-9.2023,-9.208,-9.199,-9.1954,-9.2119,-9.2224,-9.2186,-9.2088,-9.2143,-9.2177,-9.2111,-9.2011,-9.202,-9.2061,-9.203,-9.2211,-9.2373,-9.2322,-9.2222,-9.2146,-9.2196,-9.2293,-9.2327,-9.2199,-9.2023,-9.1992,-9.1854,-9.1814,-9.177,-9.1603,-9.15,-9.1453,-9.1452,-9.1661,-9.1495,-9.1266,-9.1457,-9.1552,-9.1546,-9.1408,-9.1475,-9.1712,-9.1958,-9.2206,-9.2177,-9.2102,-9.2319,-9.261,-9.2693,-9.2785,-9.2711,-9.2687,-9.2786,-9.2627,-9.2699,-9.2773,-9.2928,-9.2951,-9.3046,-9.2947,-9.2974,-9.2951,-9.2759,-9.2515,-9.2394,-9.1627,-8.9598,-8.7132,-8.4728,-8.3026,-8.3865,-8.6157,-8.8875,-9.0005,-9.1153,-9.2676,-9.2816,-9.2538,-9.2394,-9.2387,-9.2329,-9.2354,-9.2548,-9.2672,-9.2666,-9.2798,-9.2637,-9.2709,-9.268,-9.269,-9.2684,-9.2747,-9.2848,-9.2948,-9.2738,-9.2761,-9.2775,-9.2682,-9.2673,-9.2789,-9.2753,-9.284,-9.2734,-9.2698,-9.2664,-9.2638,-9.2617,-9.2618,-9.2539,-9.252,-9.2534,-9.2468,-9.2318,-9.2517,-9.2442,-9.2231,-9.2084,-9.1997,-9.1911,-9.1688,-9.1368,-9.1496,-9.1782,-9.1584,-9.1304,-9.1148,-9.1049,-9.1033,-9.106,-9.0959,-9.0682,-9.0639,-9.0647,-9.0662,-9.0797,-9.0828,-9.0852,-9.094,-9.1143,-9.1567,-9.1797,-9.1825,-9.1919,-9.213,-9.2238,-9.2289,-9.2566,-9.2577,-9.2553,-9.2833,-9.2955,-9.2842,-9.2729,-9.2601,-9.2629,-9.2646,-9.2532,-9.2623,-9.2837,-9.287,-9.2713,-9.2914,-9.2939,-9.2733,-9.2675,-9.2843,-9.2644,-9.2618,-9.2821,-9.2897,-9.2843,-9.2728,-9.2607,-9.2485,-9.2498,-9.2405,-9.2514,-9.2807,-9.2811,-9.2727,-9.2835,-9.2576,-9.2405,-9.2503,-9.2774,-9.2766,-9.286,-9.2923,-9.2736,-9.2655,-9.282,-9.2809,-9.2762,-9.2499,-9.2396,-9.2449,-9.2823,-9.2989,-9.2989,-9.277,-9.2773,-9.2705,-9.2774,-9.2677,-9.2748,-9.309,-9.3101,-9.302,-9.2951,-9.3016,-9.2991,-9.2988,-9.2823,-9.2649,-9.2868,-9.2989,-9.3043,-9.3177,-9.3096,-9.3167,-9.3071,-9.2924,-9.2788,-9.2827,-9.2763,-9.2784,-9.2582,-9.2551,-9.2448,-9.2414,-9.2245,-9.2182,-9.2138,-9.2119,-9.2149,-9.2016,-9.219,-9.2019,-9.2017,-9.2199,-9.226,-9.2255,-9.2461,-9.2555,-9.2566,-9.2681,-9.2941,-9.3193,-9.3163,-9.2959,-9.294,-9.3129,-9.3074,-9.3068,-9.3126,-9.3174,-9.315,-9.3152,-9.3328,-9.3139,-9.325,-9.3392,-9.3201,-9.2851,-9.2189,-9.1103,-8.8999,-8.6402,-8.3842,-8.3508,-8.4978,-8.726,-8.9484,-8.98,-9.1222,-9.2619,-9.3139,-9.2811,-9.2409,-9.2412,-9.2692,-9.2932,-9.3015,-9.2871,-9.268,-9.2725,-9.2788,-9.3007,-9.2861,-9.2662,-9.2761,-9.2826,-9.2813,-9.2803,-9.2667,-9.2654,-9.2474,-9.2577,-9.2678,-9.2816,-9.2752,-9.2598,-9.2611,-9.2659,-9.2432,-9.2371,-9.244,-9.2369,-9.2318,-9.2341,-9.2251,-9.2151,-9.2147,-9.2002,-9.1673,-9.163,-9.1776,-9.1505,-9.1466,-9.1481,-9.1438,-9.1036,-9.1002,-9.1035,-9.0867,-9.0705,-9.0447,-9.0549,-9.0338,-9.0176,-9.0103,-9.0093,-9.0008,-8.9959,-8.9901,-9.0062,-9.0207,-9.0236,-9.0404,-9.0573,-9.0713,-9.0866,-9.1075,-9.1185,-9.1174,-9.1327,-9.1417,-9.1501,-9.1658,-9.1587,-9.1602,-9.151,-9.1571,-9.1752,-9.1788,-9.1597,-9.167,-9.1749,-9.1504,-9.1438,-9.1537,-9.153,-9.1312,-9.1363,-9.1418,-9.1465,-9.1311,-9.1361,-9.1459,-9.1431,-9.1393,-9.1359,-9.1122,-9.1065,-9.1232,-9.1282,-9.121,-9.1254,-9.1379,-9.1219,-9.0917,-9.0936,-9.1135,-9.1261,-9.1365,-9.1374,-9.1274,-9.1136,-9.109,-9.1088,-9.1149,-9.1098,-9.1124,-9.1349,-9.1266,-9.1008,-9.1155,-9.1157,-9.1248,-9.1367,-9.117,-9.0965,-9.0874,-9.097,-9.1134,-9.1206,-9.1155,-9.1077,-9.117,-9.1225,-9.1135,-9.0961,-9.0996,-9.1176,-9.1017,-9.089,-9.0882,-9.0764,-9.0486,-9.0343,-9.0321,-9.0176,-8.9948,-9.0188,-9.0519,-9.0475,-9.0296,-9.0365,-9.0346,-9.0436,-9.0542,-9.0643,-9.0511,-9.0527,-9.0871,-9.1182,-9.1273,-9.116,-9.1184,-9.1186,-9.1374,-9.1375,-9.1252,-9.1279,-9.1328,-9.1469,-9.1467,-9.1432,-9.1394,-9.1419,-9.1421,-9.1566,-9.1264,-9.0562,-8.9843,-8.8322,-8.5846,-8.3031,-8.1408,-8.2537,-8.4872,-8.7521,-8.8439,-8.9482,-9.091,-9.1531,-9.1513,-9.0949,-9.0854,-9.085,-9.1103,-9.1104,-9.1189,-9.1298,-9.1443,-9.1257,-9.1298,-9.1115,-9.1,-9.1059,-9.1139,-9.1281,-9.1467,-9.1199,-9.1293,-9.1201,-9.1274,-9.1156,-9.1106,-9.1152,-9.1245,-9.1179,-9.1123,-9.0965,-9.0927,-9.0934,-9.096,-9.1034,-9.0891,-9.0678,-9.0491,-9.0658,-9.0862,-9.0608,-9.0468,-9.0368,-9.0178,-9.0107,-9.0012,-8.9812,-8.9847,-8.9718,-8.9577,-8.941,-8.9314,-8.918,-8.9081,-8.9049,-8.8881,-8.8684,-8.8641,-8.877,-8.892,-8.8968,-8.8953,-8.9048,-8.9174,-8.9345,-8.9544,-8.9607,-8.9707,-9.0137,-9.0431,-9.0384,-9.0295,-9.0484,-9.0656,-9.0712,-9.0749,-9.0756,-9.0806,-9.0804,-9.0677,-9.0681,-9.0719,-9.0711,-9.0653,-9.0621,-9.0692,-9.0666,-9.0613,-9.0784,-9.073,-9.0726,-9.0577,-9.0574,-9.0704,-9.079,-9.0731,-9.0677,-9.0771,-9.0731,-9.0422,-9.0367,-9.0341,-9.0392,-9.0483,-9.0753,-9.0706,-9.0402,-9.0518,-9.0765,-9.0835,-9.0848,-9.076,-9.0658,-9.0674,-9.0881,-9.0924,-9.088,-9.0722,-9.0796,-9.0909,-9.0972,-9.1003,-9.0939,-9.0881,-9.1021,-9.11,-9.1106,-9.1067,-9.1062,-9.1085,-9.1086,-9.1207,-9.1199,-9.1109,-9.1029,-9.0922,-9.1162,-9.1328,-9.1287,-9.121,-9.1217,-9.1226,-9.1117,-9.0803,-9.0621,-9.0632,-9.0732,-9.0779,-9.0623,-9.0739,-9.0946,-9.1038,-9.0819,-9.0574,-9.0589,-9.0651,-9.0848,-9.0941,-9.0976,-9.1049,-9.1136,-9.1409,-9.1754,-9.167,-9.1702,-9.1816,-9.2009,-9.205,-9.1876,-9.1995,-9.2141,-9.2086,-9.2115,-9.2071,-9.2032,-9.2023,-9.2267,-9.2716,-9.2702,-9.2169,-9.1614,-9.0894,-8.9278,-8.6717,-8.4287,-8.1895,-8.2658,-8.4785,-8.7778,-8.9342,-9.0351,-9.184,-9.1956,-9.161,-9.1135,-9.1444,-9.1697,-9.1986,-9.1963,-9.1964,-9.177,-9.1825,-9.1703,-9.1868,-9.1891,-9.2081,-9.1901,-9.1961,-9.1858,-9.1904,-9.1582,-9.1681,-9.1859,-9.1905,-9.1683,-9.1651,-9.1614,-9.1644,-9.1854,-9.1975,-9.1926,-9.1958,-9.1892,-9.1547,-9.1512,-9.1736,-9.1839,-9.1723,-9.1537,-9.1614,-9.144,-9.1226,-9.1121,-9.1299,-9.1303,-9.1122,-9.1058,-9.0979,-9.0778,-9.0517,-9.0418,-9.0403,-9.0263,-9.0179,-9.0038,-9.0085,-9.0005,-9.0039,-8.9955,-8.9942,-9.0033,-9.0069,-9.0243,-9.0377,-9.0607,-9.07,-9.0941,-9.106,-9.12,-9.1304,-9.1489,-9.1621,-9.1793,-9.1883,-9.1792,-9.1956,-9.2113,-9.2211,-9.2276,-9.2207,-9.2175,-9.209,-9.2128,-9.2266,-9.2312,-9.2138,-9.1921,-9.2011,-9.2218,-9.2222,-9.2106,-9.2081,-9.2154,-9.225,-9.2245,-9.2051,-9.2066,-9.2065,-9.2176,-9.208,-9.2163,-9.2203,-9.2348,-9.2146,-9.2189,-9.2293,-9.2084,-9.2078,-9.2213,-9.2274,-9.2209,-9.2183,-9.228,-9.237,-9.2405,-9.2366,-9.2316,-9.2223,-9.2048,-9.2197,-9.2481,-9.2388,-9.2371,-9.234,-9.2425,-9.24,-9.2341,-9.2309,-9.2321,-9.2486,-9.2637,-9.2525,-9.2519,-9.263,-9.2744,-9.2649,-9.2492,-9.2313,-9.2269,-9.2562,-9.2808,-9.2726,-9.2608,-9.2628,-9.2724,-9.266,-9.2587,-9.2563,-9.2706,-9.2637,-9.2627,-9.2496,-9.2277,-9.2127,-9.2122,-9.2003,-9.1868,-9.1884,-9.1969,-9.1853,-9.2045,-9.2129,-9.2011,-9.1914,-9.1675,-9.1862,-9.184,-9.1828,-9.1756,-9.2012,-9.2148,-9.2162,-9.2158,-9.2473,-9.2723,-9.2878,-9.2802,-9.274,-9.2813,-9.261,-9.2368,-9.2495,-9.2827,-9.3218,-9.3352,-9.3245,-9.312,-9.3037,-9.3215,-9.3265,-9.2933,-9.2393,-9.1548,-8.979,-8.7476,-8.5147,-8.3035,-8.4051,-8.5994,-8.884,-9.0107,-9.0625,-9.1996,-9.2841,-9.266,-9.2012,-9.2239,-9.2391,-9.2495,-9.2543,-9.2745,-9.2663,-9.2581,-9.2478,-9.2536,-9.2463,-9.2788,-9.2766,-9.2661,-9.2572,-9.2632,-9.2669,-9.274,-9.2625,-9.257,-9.256,-9.2461,-9.2413,-9.2565,-9.2573,-9.2493,-9.2432,-9.2444,-9.2392,-9.2418,-9.2282,-9.2352,-9.2392,-9.2272,-9.2119,-9.2012,-9.1952,-9.193,-9.1997,-9.1869,-9.1735,-9.173,-9.1654,-9.1412,-9.1186,-9.1157,-9.1024,-9.0803,-9.085,-9.0784,-9.0594,-9.0519,-9.0431,-9.0315,-9.0345,-9.0365,-9.0467,-9.0671,-9.0602,-9.0584,-9.072,-9.1093,-9.1323,-9.1447,-9.1462,-9.1667,-9.204,-9.2279,-9.2338,-9.2324,-9.2369,-9.2398,-9.2531,-9.2601,-9.2426,-9.2345,-9.2439,-9.2729,-9.2712,-9.2658,-9.2731,-9.2611,-9.2662,-9.2523,-9.2522,-9.2537,-9.2574,-9.2522,-9.2651,-9.2505,-9.2269,-9.2261,-9.2367,-9.2503,-9.2504,-9.241,-9.2525,-9.2466,-9.2553,-9.2461,-9.2366,-9.234,-9.2319,-9.2484,-9.2555,-9.2442,-9.2427,-9.2397,-9.2537,-9.2371,-9.2416,-9.2277,-9.2306,-9.2397,-9.2557,-9.2752,-9.2566,-9.2607,-9.278,-9.2576,-9.2563,-9.2401,-9.2502,-9.2709,-9.2786,-9.2635,-9.2537,-9.263,-9.2672,-9.2693,-9.267,-9.2593,-9.2384,-9.2565,-9.2723,-9.2866,-9.2891,-9.276,-9.2753,-9.2702,-9.264,-9.2603,-9.2539,-9.2702,-9.2825,-9.2716,-9.2664,-9.2689,-9.2605,-9.2675,-9.2644,-9.2765,-9.2769,-9.2822,-9.2928,-9.2686,-9.2543,-9.233,-9.2229,-9.2267,-9.213,-9.2026,-9.1766,-9.1735,-9.1709,-9.1963,-9.1954,-9.1913,-9.1871,-9.1801,-9.1812,-9.1817,-9.1925,-9.1891,-9.235,-9.2381,-9.2219,-9.2363,-9.2574,-9.2622,-9.2748,-9.2891,-9.2888,-9.2885,-9.2904,-9.2792,-9.2523,-9.2753,-9.2877,-9.2895,-9.2796,-9.29,-9.2715,-9.2853,-9.2854,-9.2763,-9.1851,-9.0557,-8.8499,-8.591,-8.3207,-8.3208,-8.4569,-8.7383,-8.9487,-9.0415,-9.1732,-9.2408,-9.2583,-9.2231,-9.2101,-9.2086,-9.2247,-9.2126,-9.2472,-9.2545,-9.271,-9.2384,-9.2331,-9.2334,-9.2494,-9.2502,-9.2532,-9.2389,-9.2521,-9.2394,-9.2383,-9.2175,-9.2207,-9.2354,-9.25,-9.2406,-9.2389,-9.2353,-9.2322,-9.2323,-9.2287,-9.22,-9.2056,-9.2018,-9.1993,-9.2001,-9.2017,-9.2025,-9.1786,-9.1679,-9.1706,-9.1584,-9.1463,-9.1347,-9.1264,-9.1177,-9.0954,-9.0724,-9.079,-9.0834,-9.0833,-9.0723,-9.045,-9.0402,-9.0196,-9.0085,-9.0062,-8.9951,-8.984,-9.0037,-9.0284,-9.0236,-9.0125,-9.0232,-9.045,-9.0612,-9.0797,-9.0858,-9.0839,-9.1225,-9.1553,-9.145,-9.1351,-9.1446,-9.1704,-9.1684,-9.1747,-9.1865,-9.1592,-9.1725,-9.1669,-9.1822,-9.1895,-9.1814,-9.1862,-9.1786,-9.1729,-9.1535,-9.1481,-9.1617,-9.1791,-9.1803,-9.1704,-9.1604,-9.153,-9.1621,-9.1538,-9.143,-9.138,-9.1469,-9.1667,-9.1692,-9.1632,-9.1521,-9.1591,-9.1627,-9.137,-9.1473,-9.15,-9.1404,-9.1276,-9.147,-9.1654,-9.1752,-9.1723,-9.1761,-9.176,-9.1658,-9.1547,-9.1576,-9.1618,-9.1727,-9.1734,-9.1547,-9.1424,-9.1457,-9.161,-9.191,-9.1877,-9.1765,-9.1769,-9.1686,-9.1739,-9.1772,-9.1719,-9.1676,-9.1594,-9.1719,-9.175,-9.1867,-9.1784,-9.1825,-9.1791,-9.1679,-9.1697,-9.1662,-9.17,-9.1837,-9.1793,-9.1732,-9.18,-9.1832,-9.1856,-9.1845,-9.1754,-9.1629,-9.161,-9.1528,-9.1517,-9.1642,-9.1862,-9.1507,-9.1431,-9.1509,-9.1406,-9.1218,-9.1284,-9.1133,-9.0908,-9.0712,-9.0966,-9.1275,-9.1212,-9.0957,-9.1002,-9.0981,-9.0954,-9.1042,-9.1186,-9.1082,-9.1117,-9.1201,-9.1457,-9.1542,-9.1816,-9.2086,-9.2167,-9.2171,-9.2029,-9.1961,-9.191,-9.2042,-9.2141,-9.2262,-9.2262,-9.206,-9.1977,-9.2048,-9.2149,-9.2355,-9.1895,-9.1211,-9.0329,-8.8905,-8.6421,-8.3757,-8.202,-8.309,-8.557,-8.8302,-8.9168,-9.0323,-9.1624,-9.2072,-9.1826,-9.152,-9.1468,-9.1521,-9.1699,-9.1776,-9.1895,-9.1824,-9.1823,-9.1652,-9.194,-9.2045,-9.2023,-9.1727,-9.1818,-9.1967,-9.1957,-9.1786,-9.1836,-9.168,-9.1891,-9.1831,-9.1775,-9.1548,-9.1726,-9.1899,-9.1846,-9.1645,-9.1571,-9.1919,-9.2018,-9.1668,-9.1587,-9.151,-9.1575,-9.1487,-9.1464,-9.1282,-9.1216,-9.1305,-9.1365,-9.1273,-9.1002,-9.0927,-9.077,-9.0611,-9.0616,-9.0389,-9.0313,-9.0344,-9.0268,-9.0209,-9.0225,-9.0055,-8.9971,-8.9977,-8.9934,-8.9953,-9.0016,-9.0059,-9.0206,-9.0507,-9.0775,-9.0815,-9.0799,-9.0938,-9.132,-9.1387,-9.1411,-9.1689,-9.1886,-9.2135,-9.2188,-9.2056,-9.2083,-9.202,-9.1807,-9.1859,-9.2053,-9.2157,-9.2297,-9.2345,-9.2081,-9.1944,-9.195,-9.1934,-9.2104,-9.2187,-9.2096,-9.2109,-9.1947,-9.1965,-9.2034,-9.2122,-9.205,-9.1908,-9.1759,-9.1861,-9.1794,-9.1828,-9.1822,-9.2078,-9.2005,-9.2024,-9.2019,-9.2119,-9.2082,-9.2058,-9.2059,-9.2121,-9.2133,-9.2013,-9.2098,-9.2016,-9.2063,-9.2163,-9.2031,-9.2106,-9.2232,-9.2228,-9.2076,-9.2051,-9.2067,-9.2173,-9.2356,-9.2279,-9.2363,-9.239,-9.2419,-9.2319,-9.232,-9.2388,-9.2481,-9.2421,-9.2216,-9.2239,-9.2358,-9.2348,-9.2334,-9.2403,-9.2471,-9.2511,-9.2503,-9.237,-9.2304,-9.2373,-9.2508,-9.2635,-9.2651,-9.254,-9.2332,-9.2388,-9.2519,-9.2655,-9.2578,-9.2549,-9.2431,-9.2398,-9.252,-9.2643,-9.2405,-9.2395,-9.2594,-9.2495,-9.232,-9.2376,-9.2191,-9.1998,-9.2128,-9.2051,-9.1977,-9.1929,-9.1762,-9.1699,-9.1864,-9.1968,-9.1883,-9.1817,-9.1756,-9.1723,-9.1642,-9.1813,-9.173,-9.1892,-9.2173,-9.2276,-9.243,-9.2539,-9.2579,-9.2639,-9.2493,-9.2677,-9.2871,-9.2976,-9.3045,-9.3023,-9.2915,-9.2782,-9.2772,-9.2821,-9.2857,-9.2901,-9.3198,-9.3072,-9.2631,-9.2001,-9.1031,-8.8914,-8.6465,-8.3895,-8.255,-8.3607,-8.6394,-8.9122,-8.9747,-9.0927,-9.2408,-9.2827,-9.23,-9.2058,-9.2317,-9.2377,-9.234,-9.2241,-9.2357,-9.2429,-9.2584,-9.248,-9.2482,-9.2416,-9.2337,-9.2278,-9.2523,-9.2576,-9.2665,-9.2674,-9.2636,-9.238,-9.2385,-9.2409,-9.2404,-9.235,-9.2459,-9.2397,-9.2402,-9.2406,-9.2397,-9.2294,-9.2261,-9.2184,-9.2313,-9.2189,-9.2157,-9.2093,-9.2255,-9.2233,-9.2074,-9.1868,-9.1805,-9.1768,-9.1729,-9.1665,-9.1465,-9.1336,-9.1223,-9.0951,-9.0827,-9.0804,-9.0741,-9.0698,-9.0692,-9.0686,-9.0487,-9.0345,-9.027,-9.0403,-9.0455,-9.0595,-9.0793,-9.0932,-9.1033,-9.1221,-9.142,-9.1659,-9.1878,-9.2062,-9.2207,-9.2235,-9.2306,-9.246,-9.243,-9.2362,-9.2349,-9.2559,-9.2816,-9.2629,-9.2574,-9.275,-9.2525,-9.2577,-9.276,-9.2806,-9.254,-9.2556,-9.2722,-9.2736,-9.2687,-9.2697,-9.2692,-9.2632,-9.2641,-9.275,-9.2653,-9.2635,-9.2525,-9.2558,-9.263,-9.2665,-9.2476,-9.2441,-9.2474,-9.2636,-9.2562,-9.2635,-9.2471,-9.2408,-9.255,-9.27,-9.2673,-9.267,-9.2605,-9.2653,-9.2735,-9.2817,-9.2785,-9.2812,-9.2684,-9.275,-9.2748,-9.2712,-9.2582,-9.2758,-9.2946,-9.2938,-9.2915,-9.2837,-9.2819,-9.2783,-9.2825,-9.2862,-9.2996,-9.2928,-9.301,-9.2957,-9.3064,-9.3102,-9.3015,-9.2976,-9.3129,-9.3099,-9.3103,-9.3142,-9.3043,-9.3127,-9.2919,-9.2832,-9.308,-9.3244,-9.321,-9.3131,-9.3093,-9.3101,-9.3166,-9.312,-9.3111,-9.2974,-9.3076,-9.3142,-9.3308,-9.3206,-9.3048,-9.2952,-9.3125,-9.323,-9.3281,-9.3019,-9.2977,-9.3075,-9.3152,-9.3073,-9.2983,-9.3085,-9.3179,-9.321,-9.3252,-9.3217,-9.3071,-9.2998,-9.2988,-9.2825,-9.2545,-9.2291,-9.2353,-9.2543,-9.2576,-9.236,-9.2238,-9.2455,-9.2516,-9.2405,-9.2244,-9.2152,-9.2313,-9.2424,-9.2601,-9.2616,-9.2576,-9.2537,-9.2675,-9.3021,-9.3155,-9.3241,-9.3336,-9.3359,-9.3336,-9.3253,-9.3218,-9.321,-9.3192,-9.3155,-9.3365,-9.3319,-9.3251,-9.3318,-9.3505,-9.3614,-9.3237,-9.2657,-9.1981,-9.0804,-8.8677,-8.6277,-8.3228,-8.3208,-8.4876,-8.7968,-8.9818,-9.0244,-9.1725,-9.3004,-9.3156,-9.2375,-9.2104,-9.2234,-9.2815,-9.2718,-9.2861,-9.2756,-9.2855,-9.2778,-9.2795,-9.2582,-9.2769,-9.2645,-9.2743,-9.272,-9.2824,-9.2674,-9.2685,-9.2856,-9.2728,-9.2617,-9.2632,-9.2566,-9.2399,-9.2628,-9.2722,-9.2675,-9.2705,-9.2601,-9.2606,-9.2531,-9.2458,-9.2374,-9.2254,-9.2299,-9.2335,-9.217,-9.1995,-9.2128,-9.2293,-9.2081,-9.1913,-9.1808,-9.1542,-9.1453,-9.142,-9.137,-9.1418,-9.1377,-9.1223,-9.0996,-9.0719,-9.0613,-9.0663,-9.0704,-9.064,-9.0569,-9.0472,-9.0533,-9.0567,-9.0668,-9.0652,-9.1038,-9.1175,-9.1093,-9.1165,-9.1682,-9.1988,-9.2079,-9.2235,-9.2472,-9.2408,-9.2511,-9.2495,-9.2616,-9.2379,-9.244,-9.2607,-9.2654,-9.2504,-9.269,-9.2715,-9.2377,-9.2281,-9.2645,-9.2718,-9.2601,-9.2559,-9.25,-9.2324,-9.228,-9.2437,-9.2466,-9.2309,-9.2446,-9.2573,-9.2408,-9.2312,-9.2461,-9.2413,-9.2344,-9.2462,-9.2514,-9.2304,-9.2196,-9.2313,-9.2495,-9.2299,-9.2341,-9.2401,-9.2379,-9.2325,-9.2394,-9.2211,-9.2247,-9.259,-9.2646,-9.2482,-9.2557,-9.2585,-9.2414,-9.2452,-9.2458,-9.2546,-9.2575,-9.2645,-9.2402,-9.2406,-9.2395,-9.23,-9.2384,-9.2512,-9.2599,-9.2612,-9.2431,-9.2381,-9.2483,-9.2565,-9.2516,-9.2498,-9.2462,-9.2473,-9.249,-9.249,-9.2604,-9.2798,-9.2663,-9.2518,-9.2461,-9.2374,-9.251,-9.2633,-9.2625,-9.2663,-9.2577,-9.2445,-9.2466,-9.2575,-9.2459,-9.2389,-9.2406,-9.2166,-9.1988,-9.2033,-9.1665,-9.1815,-9.1968,-9.1716,-9.1714,-9.168,-9.1574,-9.1495,-9.1807,-9.1762,-9.1667,-9.1578,-9.1596,-9.2074,-9.2262,-9.2119,-9.2267,-9.2613,-9.2617,-9.2601,-9.256,-9.2664,-9.2903,-9.2832,-9.2536,-9.2515,-9.2497,-9.2592,-9.2798,-9.285,-9.2638,-9.2672,-9.2885,-9.2916,-9.2226,-9.1572,-9.0595,-8.9058,-8.6533,-8.3876,-8.2824,-8.4,-8.6406,-8.8963,-8.9579,-9.0147,-9.1589,-9.2428,-9.2263,-9.2006,-9.1704,-9.1743,-9.2006,-9.2121,-9.2269,-9.2175,-9.224,-9.2218,-9.2208,-9.2121,-9.2046,-9.2047,-9.1954,-9.1991,-9.207,-9.1901,-9.1748,-9.1762,-9.1922,-9.1866,-9.1949,-9.1886,-9.1953,-9.1994,-9.1973,-9.1712,-9.1613,-9.1653,-9.1808,-9.1912,-9.1673,-9.1629,-9.1602,-9.1567,-9.1556,-9.1544,-9.1403,-9.1302,-9.113,-9.1047,-9.1069,-9.0856,-9.061,-9.0457,-9.0702,-9.0596,-9.0264,-9.015,-9.0158,-9.0132,-8.9954,-8.9683,-8.9668,-8.9603,-8.9818,-8.9976,-8.9951,-8.9926,-9.0061,-9.0168,-9.024,-9.0289,-9.0325,-9.0571,-9.0864,-9.1252,-9.1119,-9.1227,-9.136,-9.1318,-9.1444,-9.1494,-9.1498,-9.1678,-9.1672,-9.1695,-9.1539,-9.1568,-9.17,-9.1785,-9.181,-9.1636,-9.152,-9.1597,-9.1643,-9.16,-9.1541,-9.155,-9.1483,-9.1678,-9.1552,-9.1461,-9.1372,-9.1536,-9.1518,-9.1485,-9.1596,-9.1342,-9.133,-9.1427,-9.1463,-9.1455,-9.1521,-9.152,-9.1509,-9.1526,-9.1653,-9.1615,-9.1779,-9.1654,-9.1691,-9.1787,-9.1714,-9.1685,-9.1685,-9.1557,-9.1586,-9.1498,-9.1717,-9.1764,-9.183,-9.1722,-9.1424,-9.1386,-9.1591,-9.1949,-9.1813,-9.1668,-9.1824,-9.1869,-9.1804,-9.1705,-9.1839,-9.1752,-9.1833,-9.1746,-9.162,-9.174,-9.1828,-9.1728,-9.1687,-9.1624,-9.1652,-9.1473,-9.1409,-9.126,-9.1213,-9.1062,-9.0963,-9.0999,-9.0961,-9.0935,-9.0916,-9.1056,-9.1073,-9.0901,-9.0865,-9.0941,-9.0904,-9.0855,-9.0814,-9.0893,-9.1114,-9.1365,-9.1623,-9.1758,-9.1859,-9.1984,-9.1882,-9.1815,-9.1877,-9.1889,-9.1869,-9.203,-9.1933,-9.1843,-9.193,-9.2003,-9.1972,-9.2014,-9.2191,-9.1991,-9.1593,-9.0864,-8.9586,-8.762,-8.5096,-8.2524,-8.1996,-8.2967,-8.487,-8.7652,-8.8619,-8.9861,-9.1149,-9.1815,-9.1593,-9.1299,-9.1271,-9.1437,-9.1344,-9.1403,-9.1606,-9.1558,-9.1491,-9.1543,-9.1552,-9.1558,-9.174,-9.1647,-9.1707,-9.1724,-9.1662,-9.1598,-9.1572,-9.1475,-9.1696,-9.1626,-9.1511,-9.1432,-9.1455,-9.1601,-9.1575,-9.1546,-9.1654,-9.1559,-9.1457,-9.1423,-9.1473,-9.1232,-9.0986,-9.1,-9.1336,-9.1257,-9.1212,-9.0946,-9.1027,-9.0819,-9.07,-9.0879,-9.0676,-9.0368,-9.0339,-9.0373,-9.0167,-8.9958,-8.9831,-8.9813,-8.9816,-8.9807,-8.9627,-8.9687,-8.9641,-8.9646,-8.9821,-9.0065,-9.012,-9.0139,-9.0397,-9.0645,-9.0591,-9.072,-9.1044,-9.1275,-9.1389,-9.144,-9.1239,-9.132,-9.1484,-9.167,-9.1495,-9.1587,-9.1679,-9.1703,-9.162,-9.1624,-9.1437,-9.1353,-9.1647,-9.1926,-9.1944,-9.1787,-9.1728,-9.1657,-9.1589,-9.1582,-9.1496,-9.1535,-9.1615,-9.1662,-9.1515,-9.138,-9.1377,-9.1581,-9.1712,-9.1672,-9.1476,-9.1403,-9.1314,-9.127,-9.1323,-9.1515,-9.1658,-9.1663,-9.1687,-9.1788,-9.1906,-9.1816,-9.1659,-9.1692,-9.1803,-9.1856,-9.1725,-9.165,-9.1627,-9.1844,-9.1941,-9.1866,-9.1864,-9.1874,-9.1913,-9.185,-9.1858,-9.1778,-9.1758,-9.1941,-9.2065,-9.1928,-9.1926,-9.2153,-9.2162,-9.2029,-9.2077,-9.1977,-9.2034,-9.2176,-9.2199,-9.21,-9.2105,-9.202,-9.197,-9.2017,-9.1905,-9.1882,-9.1722,-9.1559,-9.1588,-9.1523,-9.1368,-9.1107,-9.11,-9.1496,-9.1693,-9.1584,-9.1369,-9.1333,-9.1429,-9.1354,-9.129,-9.1482,-9.1677,-9.1803,-9.1915,-9.2037,-9.1988,-9.2163,-9.2382,-9.2515,-9.2482,-9.2353,-9.2469,-9.2513,-9.2542,-9.247,-9.2416,-9.2391,-9.244,-9.2498,-9.2876,-9.2845,-9.243,-9.1774,-9.1308,-8.995,-8.759,-8.5345,-8.255,-8.2443,-8.4011,-8.7064,-8.9151,-9.0384,-9.1956,-9.2407,-9.21,-9.1643,-9.1793,-9.1816,-9.2047,-9.2189,-9.2346,-9.2216,-9.23,-9.2081,-9.2167,-9.2057,-9.2188,-9.2274,-9.236,-9.2267,-9.2314,-9.2145,-9.2183,-9.2138,-9.2102,-9.2054,-9.1981,-9.2008,-9.215,-9.2001,-9.1995,-9.1948,-9.2071,-9.2032,-9.1913,-9.1875,-9.1854,-9.1764,-9.1722,-9.1536,-9.1457,-9.173,-9.1816,-9.1599,-9.1567,-9.1258,-9.1241,-9.1305,-9.1164,-9.0917,-9.0844,-9.0669,-9.0541,-9.0497,-9.0449,-9.0468,-9.036,-9.0201,-9.0083,-9.0052,-8.9993,-9.0257,-9.0275,-9.0465,-9.0458,-9.0572,-9.0512,-9.0766,-9.1076,-9.1256,-9.1536,-9.1775,-9.1817,-9.1974,-9.222,-9.2309,-9.2224,-9.2343,-9.2476,-9.2381,-9.2243,-9.2299,-9.2285,-9.2426,-9.2303,-9.2194,-9.2162,-9.2424,-9.2488,-9.2582,-9.254,-9.2435,-9.2343,-9.2289,-9.2336,-9.249,-9.2403,-9.2353,-9.2338,-9.2389,-9.2327,-9.236,-9.2354,-9.2407,-9.2296,-9.2124,-9.2176,-9.2271,-9.2327,-9.2404,-9.2386,-9.2343,-9.2362,-9.238,-9.2406,-9.2361,-9.2292,-9.2348,-9.2572,-9.2681,-9.2537,-9.2475,-9.2502,-9.2581,-9.2624,-9.2612,-9.2542,-9.2414,-9.2397,-9.2475,-9.2476,-9.238,-9.2387,-9.2464,-9.2506,-9.2693,-9.2707,-9.2623,-9.2598,-9.2644,-9.2719,-9.269,-9.2613,-9.2807,-9.281,-9.2775,-9.2533,-9.2423,-9.2633,-9.2742,-9.2677,-9.2427,-9.2416,-9.2244,-9.2183,-9.2184,-9.2102,-9.1968,-9.1981,-9.1848,-9.195,-9.2106,-9.1822,-9.1541,-9.1556,-9.1866,-9.201,-9.1791,-9.181,-9.2155,-9.2512,-9.2525,-9.2743,-9.2793,-9.2816,-9.2874,-9.2989,-9.2856,-9.278,-9.2937,-9.3087,-9.3202,-9.3097,-9.2832,-9.267,-9.2614,-9.27,-9.2904,-9.3411,-9.3398,-9.286,-9.2154,-9.1115,-8.9084,-8.6655,-8.415,-8.3086,-8.4357,-8.6636,-8.908,-9.0291,-9.169,-9.2771,-9.2716,-9.2422,-9.2306,-9.2354,-9.2427,-9.2175,-9.2141,-9.254,-9.2794,-9.2773,-9.2769,-9.2856,-9.2716,-9.2572,-9.2561,-9.266,-9.268,-9.2509,-9.2464,-9.2642,-9.2768,-9.2756,-9.2588,-9.246,-9.2493,-9.268,-9.2511,-9.2454,-9.2456,-9.2324,-9.2192,-9.2139,-9.2155,-9.2211,-9.2282,-9.2359,-9.2298,-9.2255,-9.2131,-9.1886,-9.1866,-9.1694,-9.1701,-9.1598,-9.1662,-9.147,-9.1319,-9.1208,-9.1092,-9.1009,-9.0813,-9.0703,-9.0605,-9.0748,-9.0698,-9.0506,-9.0434,-9.0246,-9.0381,-9.0524,-9.0619,-9.0791,-9.0951,-9.1094,-9.1264,-9.1566,-9.1508,-9.1787,-9.1763,-9.1977,-9.2341,-9.2301,-9.2376,-9.2434,-9.2356,-9.2443,-9.2479,-9.2444,-9.2233,-9.2256,-9.2545,-9.2733,-9.2515,-9.2361,-9.2601,-9.2789,-9.268,-9.2441,-9.2465,-9.231,-9.2427,-9.2554,-9.2492,-9.2539,-9.252,-9.2497,-9.2495,-9.2295,-9.2278,-9.2352,-9.248,-9.2537,-9.2432,-9.2319,-9.2342,-9.2566,-9.2571,-9.22,-9.2269,-9.238,-9.2425,-9.2324,-9.2444,-9.2608,-9.249,-9.263,-9.2598,-9.2581,-9.2532,-9.2646,-9.2498,-9.2564,-9.2522,-9.244,-9.2536,-9.262,-9.2588,-9.2491,-9.2411,-9.2354,-9.2583,-9.2572,-9.2677,-9.2585,-9.249,-9.2513,-9.2426,-9.2452,-9.2505,-9.2516,-9.2514,-9.2411,-9.2504,-9.2332,-9.2127,-9.2077,-9.2116,-9.1922,-9.1772,-9.1902,-9.193,-9.1789,-9.1847,-9.1918,-9.1531,-9.1311,-9.1614,-9.1726,-9.1818,-9.1897,-9.1894,-9.2047,-9.223,-9.2255,-9.2457,-9.2615,-9.2725,-9.2795,-9.2889,-9.2743,-9.2625,-9.2734,-9.2585,-9.2792,-9.2912,-9.2848,-9.2637,-9.2637,-9.2715,-9.3059,-9.3166,-9.2921,-9.2327,-9.1426,-9.0185,-8.8297,-8.5738,-8.2992,-8.3042,-8.4774,-8.741,-8.9222,-8.995,-9.1246,-9.2181,-9.2513,-9.2389,-9.2065,-9.1896,-9.2017,-9.185,-9.2049,-9.2186,-9.2193,-9.2032,-9.2052,-9.2063,-9.2272,-9.2218,-9.2125,-9.211,-9.2236,-9.213,-9.2204,-9.1906,-9.196,-9.2004,-9.218,-9.204,-9.1876,-9.1925,-9.19,-9.1958,-9.1856,-9.1799,-9.1721,-9.1598,-9.1635,-9.1472,-9.1635,-9.1559,-9.1468,-9.1536,-9.1563,-9.1517,-9.127,-9.1132,-9.099,-9.0988,-9.0886,-9.0958,-9.0762,-9.0638,-9.0484,-9.0257,-9.012,-9.0048,-9.0057,-9.0117,-8.9998,-8.9755,-8.9716,-8.9631,-8.9628,-8.9639,-8.959,-9.0155,-9.0424,-9.0672,-9.0664,-9.0759,-9.0751,-9.0799,-9.1104,-9.1383,-9.1277,-9.1374,-9.1434,-9.1509,-9.1539,-9.1448,-9.1349,-9.1475,-9.1478,-9.158,-9.149,-9.1319,-9.1277,-9.1348,-9.1177,-9.1051,-9.1303,-9.1472,-9.1456,-9.1354,-9.1322,-9.1363,-9.1413,-9.1394,-9.1211,-9.1189,-9.1038,-9.1093,-9.1165,-9.1253,-9.1078,-9.096,-9.114,-9.1249,-9.1343,-9.1394,-9.1193,-9.1257,-9.1347,-9.1144,-9.1095,-9.1226,-9.1341,-9.1391,-9.1487,-9.1344,-9.1355,-9.1361,-9.1298,-9.1308,-9.1327,-9.1401,-9.1301,-9.1253,-9.1417,-9.15,-9.1325,-9.1293,-9.1259,-9.1321,-9.1421,-9.1329,-9.1422,-9.1565,-9.1503,-9.1443,-9.1425,-9.139,-9.1243,-9.0915,-9.0963,-9.0945,-9.0947,-9.0805,-9.0757,-9.0575,-9.07,-9.0919,-9.0759,-9.0463,-9.049,-9.0774,-9.0646,-9.0551,-9.0758,-9.0936,-9.1182,-9.1353,-9.1533,-9.1581,-9.164,-9.1662,-9.1675,-9.1706,-9.1829,-9.1918,-9.186,-9.1809,-9.1819,-9.1746,-9.1807,-9.1863,-9.1839,-9.1919,-9.1993,-9.1877,-9.1464,-9.0931,-8.9857,-8.8099,-8.5638,-8.2936,-8.1887,-8.33,-8.5696,-8.8279,-8.9156,-9.0414,-9.1521,-9.179,-9.1604,-9.131,-9.1317,-9.1313,-9.1397,-9.1595,-9.1771,-9.1656,-9.1739,-9.1681,-9.1783,-9.172,-9.1666,-9.1694,-9.1723,-9.1796,-9.1729,-9.1511,-9.1408,-9.1524,-9.181,-9.1701,-9.1745,-9.1679,-9.1599,-9.162,-9.1647,-9.1423,-9.1497,-9.168,-9.1646,-9.1509,-9.151,-9.1446,-9.1411,-9.1186,-9.1195,-9.1234,-9.1115,-9.0886,-9.0853,-9.0951,-9.098,-9.0737,-9.0575,-9.0503,-9.047,-9.0403,-9.0186,-8.9941,-8.991,-8.9781,-8.9874,-8.985,-8.9788,-8.9688,-8.9798,-8.9833,-8.9968,-9.0075,-9.006,-9.0187,-9.029,-9.0512,-9.0758,-9.0896,-9.1078,-9.137,-9.1434,-9.1441,-9.1461,-9.1724,-9.1846,-9.1846,-9.165,-9.1715,-9.186,-9.1959,-9.1768,-9.1749,-9.1924,-9.1966,-9.1961,-9.191,-9.1979,-9.1938,-9.1997,-9.1979,-9.1943,-9.1841,-9.1732,-9.1819,-9.196,-9.186,-9.1952,-9.1985,-9.1856,-9.1893,-9.179,-9.1848,-9.1737,-9.1654,-9.1734,-9.2119,-9.2163,-9.2014,-9.2002,-9.2058,-9.2281,-9.2172,-9.2026,-9.2183,-9.221,-9.2264,-9.2392,-9.2317,-9.2139,-9.2202,-9.22,-9.233,-9.2361,-9.2408,-9.2338,-9.2407,-9.2433,-9.2329,-9.2425,-9.2464,-9.2507,-9.2464,-9.2334,-9.242,-9.2532,-9.2643,-9.2528,-9.2433,-9.2557,-9.2702,-9.2639,-9.2574,-9.247,-9.2382,-9.2478,-9.2678,-9.2608,-9.2292,-9.2313,-9.2218,-9.2237,-9.2288,-9.2168,-9.1946,-9.1817,-9.1831,-9.1972,-9.2,-9.2116,-9.2135,-9.195,-9.1994,-9.206,-9.2075,-9.2069,-9.2136,-9.2202,-9.2519,-9.2614,-9.27,-9.2742,-9.3016,-9.3121,-9.3105,-9.2962,-9.2863,-9.3008,-9.3182,-9.3122,-9.3055,-9.3143,-9.3269,-9.3245,-9.3119,-9.3246,-9.3511,-9.3253,-9.2606,-9.1847,-9.0418,-8.8077,-8.5712,-8.3152,-8.3482,-8.5155,-8.8198,-8.9804,-9.1095,-9.2865,-9.2988,-9.2868,-9.2417,-9.2503,-9.2596,-9.2719,-9.2625,-9.2849,-9.2756,-9.285,-9.2622,-9.2772,-9.2834,-9.3027,-9.2761,-9.276,-9.2669,-9.2793,-9.2711,-9.2616,-9.257,-9.2716,-9.2836,-9.2941,-9.2956,-9.2728,-9.2587,-9.2742,-9.2656,-9.2558,-9.2573,-9.2718,-9.2668,-9.2697,-9.2557,-9.235,-9.2186,-9.2315,-9.2523,-9.2471,-9.2311,-9.2067,-9.2082,-9.1966,-9.1961,-9.1769,-9.1594,-9.1425,-9.1261,-9.1347,-9.1315,-9.1092,-9.0905,-9.0883,-9.0966,-9.0738,-9.0511,-9.0413,-9.0507,-9.0658,-9.0861,-9.1025,-9.1208,-9.1283,-9.1361,-9.1485,-9.1626,-9.1904,-9.2093,-9.2333,-9.253,-9.2567,-9.2454,-9.2585,-9.2744,-9.2835,-9.2843,-9.2693,-9.2648,-9.2786,-9.2882,-9.2823,-9.2689,-9.2736,-9.2876,-9.2941,-9.2801,-9.2819,-9.295,-9.2996,-9.2906,-9.2744,-9.2848,-9.2801,-9.2704,-9.2738,-9.2833,-9.2733,-9.2709,-9.2705,-9.2986,-9.2967,-9.278,-9.2675,-9.2731,-9.2819,-9.2939,-9.3015,-9.2933,-9.2805,-9.2872,-9.2938,-9.2776,-9.292,-9.292,-9.2927,-9.3059,-9.3012,-9.3029,-9.2989,-9.305,-9.3053,-9.31,-9.3056,-9.2962,-9.3052,-9.3282,-9.3039,-9.2976,-9.3146,-9.32,-9.3146,-9.3113,-9.31,-9.3256,-9.3358,-9.3352,-9.322,-9.318,-9.3271,-9.3182,-9.3089,-9.3031,-9.3112,-9.3237,-9.3298,-9.3286,-9.3149,-9.3159,-9.3422,-9.3468,-9.3314,-9.327,-9.3213,-9.3328,-9.3427,-9.3312,-9.3113,-9.2787,-9.2715,-9.2581,-9.2518,-9.2544,-9.2579,-9.2633,-9.2949,-9.2929,-9.2633,-9.2415,-9.2438,-9.2599,-9.2726,-9.2708,-9.281,-9.2898,-9.2918,-9.3096,-9.3233,-9.3175,-9.3077,-9.3202,-9.3529,-9.3608,-9.3639,-9.3826,-9.3819,-9.3755,-9.364,-9.3592,-9.3542,-9.373,-9.3739,-9.3537,-9.3783,-9.3981,-9.3779,-9.3273,-9.2544,-9.1137,-8.8542,-8.6102,-8.3538,-8.4119,-8.5796,-8.8659,-9.0379,-9.1543,-9.3107,-9.348,-9.3092,-9.2575,-9.29,-9.2941,-9.3077,-9.3005,-9.3217,-9.2908,-9.315,-9.3229,-9.3401,-9.3207,-9.3235,-9.3152,-9.3084,-9.3098,-9.3278,-9.3185,-9.3292,-9.322,-9.3277,-9.317,-9.325,-9.327,-9.3327,-9.3173,-9.3122,-9.2967,-9.3003,-9.3199,-9.3081,-9.304,-9.3074,-9.2856,-9.2895,-9.289,-9.2761,-9.2728,-9.2629,-9.2533,-9.2583,-9.242,-9.2247,-9.2318,-9.2231,-9.1991,-9.1877,-9.1875,-9.1621,-9.1449,-9.1483,-9.1472,-9.1181,-9.1133,-9.1284,-9.127,-9.1046,-9.1026,-9.1202,-9.1297,-9.1336,-9.1332,-9.1345,-9.1544,-9.1983,-9.2209,-9.2247
