17.188,17.183,17.177,17.176,17.173,17.176,17.169,17.176,17.174,17.174,17.171,17.177,17.173,17.175,17.183,17.182,17.191,17.197,17.199,17.201,17.198,17.209,17.213,17.213,17.213,17.214,17.221,17.225,17.225,17.232,17.231,17.234,17.233,17.24,17.236,17.24,17.234,17.234,17.226,17.227,17.226,17.23,17.231,17.225,17.22,17.218,17.22,17.221,17.217,17.216,17.211,17.212,17.214,17.207,17.206,17.206,17.21,17.212,17.206,17.204,17.201,17.206,17.214,17.211,17.209,17.203,17.204,17.204,17.211,17.206,17.198,17.203,17.206,17.204,17.193,17.197,17.206,17.219,17.23,17.228,17.245,17.261,17.253,17.245,17.254,17.266,17.283,17.303,17.308,17.297,17.291,17.29,17.282,17.267,17.266,17.254,17.241,17.22,17.201,17.2,17.194,17.191,17.193,17.198,17.192,17.189,17.169,17.173,17.179,17.18,17.173,17.165,17.148,17.127,17.135,17.223,17.421,17.645,17.877,17.98,17.774,17.557,17.464,17.28,17.102,17.087,17.121,17.077,17.054,17.119,17.175,17.221,17.249,17.267,17.283,17.278,17.27,17.268,17.282,17.28,17.295,17.293,17.293,17.295,17.306,17.315,17.312,17.311,17.326,17.332,17.339,17.342,17.35,17.362,17.377,17.388,17.403,17.407,17.43,17.45,17.456,17.464,17.478,17.493,17.512,17.53,17.548,17.554,17.571,17.586,17.593,17.595,17.595,17.599,17.601,17.599,17.59,17.573,17.557,17.544,17.516,17.487,17.458,17.423,17.403,17.378,17.35,17.316,17.296,17.277,17.26,17.248,17.23,17.21,17.202,17.201,17.199,17.186,17.177,17.176,17.174,17.173,17.164,17.158,17.156,17.157,17.161,17.154,17.153,17.153,17.159,17.16,17.161,17.167,17.165,17.171,17.171,17.172,17.173,17.175,17.175,17.181,17.183,17.183,17.19,17.198,17.201,17.201,17.198,17.2,17.195,17.204,17.203,17.202,17.194,17.186,17.19,17.19,17.182,17.173,17.171,17.176,17.175,17.17,17.165,17.164,17.162,17.163,17.164,17.155,17.163,17.167,17.171,17.18,17.189,17.195,17.2,17.216,17.21,17.201,17.211,17.225,17.229,17.255,17.268,17.252,17.242,17.251,17.239,17.224,17.218,17.217,17.199,17.176,17.156,17.143,17.14,17.145,17.147,17.14,17.142,17.14,17.14,17.144,17.146,17.147,17.144,17.148,17.127,17.103,17.124,17.237,17.45,17.668,17.782,17.947,17.894,17.629,17.481,17.31,17.058,16.985,17.004,16.99,17.048,17.117,17.176,17.21,17.225,17.226,17.226,17.23,17.243,17.249,17.256,17.255,17.26,17.263,17.277,17.277,17.282,17.284,17.283,17.285,17.289,17.285,17.288,17.294,17.308,17.312,17.317,17.33,17.338,17.35,17.368,17.381,17.393,17.411,17.428,17.448,17.462,17.479,17.492,17.501,17.518,17.522,17.526,17.529,17.534,17.536,17.53,17.524,17.511,17.491,17.477,17.442,17.407,17.377,17.347,17.313,17.28,17.242,17.212,17.191,17.172,17.153,17.135,17.122,17.116,17.112,17.103,17.091,17.078,17.073,17.071,17.065,17.061,17.056,17.048,17.055,17.057,17.053,17.05,17.042,17.047,17.049,17.05,17.05,17.053,17.059,17.06,17.066,17.063,17.059,17.058,17.066,17.07,17.072,17.07,17.068,17.071,17.077,17.077,17.076,17.081,17.086,17.087,17.083,17.08,17.084,17.086,17.089,17.088,17.081,17.084,17.082,17.085,17.08,17.077,17.076,17.072,17.065,17.062,17.063,17.057,17.055,17.055,17.054,17.05,17.049,17.044,17.053,17.044,17.047,17.059,17.069,17.085,17.093,17.084,17.076,17.089,17.1,17.106,17.12,17.141,17.136,17.132,17.122,17.11,17.105,17.097,17.101,17.089,17.075,17.041,17.017,17.027,17.025,17.021,17.019,17.021,17.018,17.019,17.014,17.012,17.013,17.016,17.015,17.004,16.982,16.976,17.019,17.162,17.4,17.611,17.814,17.839,17.536,17.368,17.202,16.949,16.837,16.846,16.855,16.863,16.956,17.014,17.071,17.096,17.106,17.108,17.12,17.123,17.126,17.131,17.139,17.14,17.157,17.167,17.176,17.179,17.19,17.202,17.21,17.211,17.219,17.222,17.232,17.243,17.252,17.262,17.272,17.293,17.312,17.326,17.339,17.356,17.378,17.401,17.421,17.436,17.46,17.469,17.486,17.503,17.512,17.521,17.533,17.539,17.54,17.542,17.532,17.524,17.513,17.498,17.474,17.441,17.408,17.384,17.354,17.314,17.284,17.271,17.238,17.226,17.202,17.181,17.16,17.156,17.143,17.131,17.12,17.122,17.114,17.111,17.109,17.101,17.095,17.088,17.091,17.088,17.087,17.077,17.08,17.084,17.086,17.085,17.087,17.092,17.092,17.099,17.104,17.102,17.102,17.111,17.109,17.108,17.109,17.119,17.121,17.121,17.125,17.127,17.131,17.134,17.147,17.145,17.151,17.15,17.156,17.164,17.155,17.157,17.16,17.161,17.157,17.163,17.158,17.16,17.157,17.155,17.154,17.147,17.152,17.158,17.158,17.155,17.149,17.143,17.146,17.146,17.149,17.154,17.161,17.168,17.182,17.196,17.206,17.199,17.195,17.206,17.22,17.229,17.246,17.261,17.256,17.254,17.242,17.237,17.226,17.224,17.221,17.2,17.169,17.155,17.152,17.149,17.15,17.148,17.146,17.145,17.149,17.147,17.153,17.144,17.153,17.154,17.143,17.124,17.11,17.126,17.232,17.428,17.649,17.872,18.003,17.948,17.627,17.44,17.277,17.043,16.952,16.967,16.972,17.028,17.119,17.17,17.217,17.236,17.247,17.252,17.262,17.263,17.268,17.26,17.267,17.28,17.286,17.291,17.3,17.301,17.319,17.322,17.332,17.341,17.355,17.362,17.371,17.371,17.388,17.4,17.421,17.433,17.449,17.455,17.467,17.478,17.508,17.53,17.545,17.556,17.58,17.604,17.617,17.627,17.64,17.654,17.655,17.658,17.658,17.654,17.645,17.64,17.639,17.619,17.593,17.567,17.531,17.501,17.465,17.427,17.395,17.371,17.35,17.323,17.306,17.287,17.276,17.265,17.254,17.241,17.236,17.231,17.233,17.225,17.213,17.212,17.209,17.21,17.198,17.192,17.182,17.186,17.189,17.186,17.187,17.194,17.189,17.19,17.192,17.195,17.196,17.194,17.202,17.203,17.201,17.196,17.196,17.201,17.205,17.204,17.204,17.206,17.212,17.223,17.217,17.22,17.222,17.222,17.22,17.223,17.22,17.224,17.226,17.229,17.223,17.222,17.217,17.219,17.217,17.216,17.216,17.215,17.217,17.214,17.211,17.211,17.213,17.216,17.217,17.213,17.208,17.207,17.217,17.232,17.238,17.25,17.254,17.251,17.25,17.26,17.272,17.269,17.297,17.322,17.309,17.302,17.288,17.287,17.278,17.271,17.269,17.254,17.235,17.206,17.196,17.195,17.19,17.188,17.192,17.185,17.197,17.199,17.194,17.196,17.2,17.204,17.201,17.198,17.173,17.168,17.208,17.341,17.571,17.78,17.995,18.034,17.722,17.528,17.363,17.152,17.051,17.057,17.062,17.087,17.19,17.217,17.274,17.292,17.301,17.309,17.313,17.319,17.32,17.333,17.338,17.347,17.349,17.357,17.365,17.371,17.384,17.382,17.384,17.383,17.387,17.397,17.411,17.409,17.421,17.43,17.444,17.451,17.461,17.476,17.496,17.513,17.527,17.544,17.562,17.578,17.597,17.62,17.634,17.646,17.652,17.652,17.668,17.67,17.669,17.669,17.669,17.656,17.636,17.62,17.593,17.569,17.535,17.498,17.468,17.438,17.409,17.375,17.352,17.338,17.314,17.298,17.284,17.266,17.256,17.251,17.246,17.238,17.227,17.221,17.214,17.212,17.213,17.209,17.209,17.202,17.203,17.211,17.205,17.208,17.21,17.215,17.216,17.222,17.217,17.221,17.217,17.223,17.236,17.228,17.235,17.239,17.241,17.242,17.241,17.242,17.248,17.25,17.256,17.247,17.247,17.248,17.248,17.255,17.252,17.242,17.236,17.244,17.247,17.247,17.239,17.239,17.24,17.243,17.237,17.23,17.23,17.231,17.231,17.224,17.223,17.221,17.219,17.22,17.222,17.231,17.241,17.252,17.267,17.264,17.255,17.254,17.271,17.277,17.29,17.306,17.313,17.303,17.289,17.293,17.284,17.271,17.259,17.251,17.233,17.204,17.182,17.183,17.182,17.188,17.178,17.183,17.182,17.184,17.186,17.179,17.173,17.171,17.174,17.174,17.153,17.121,17.115,17.185,17.383,17.608,17.842,17.972,17.795,17.57,17.371,17.188,17.069,17.053,17.095,17.058,17.025,17.086,17.153,17.22,17.25,17.259,17.265,17.26,17.272,17.277,17.286,17.282,17.291,17.285,17.298,17.292,17.298,17.293,17.306,17.313,17.318,17.314,17.327,17.329,17.337,17.345,17.356,17.362,17.379,17.4,17.414,17.435,17.452,17.474,17.493,17.497,17.509,17.527,17.542,17.571,17.59,17.596,17.596,17.597,17.605,17.613,17.611,17.596,17.586,17.573,17.55,17.521,17.488,17.455,17.442,17.42,17.385,17.355,17.331,17.307,17.285,17.265,17.251,17.237,17.224,17.226,17.209,17.203,17.202,17.199,17.2,17.19,17.182,17.176,17.181,17.194,17.19,17.182,17.182,17.185,17.191,17.193,17.191,17.195,17.199,17.209,17.208,17.202,17.203,17.21,17.218,17.223,17.22,17.22,17.224,17.228,17.24,17.239,17.241,17.233,17.24,17.246,17.235,17.241,17.247,17.249,17.246,17.241,17.234,17.231,17.232,17.238,17.236,17.237,17.229,17.243,17.245,17.259,17.268,17.27,17.271,17.275,17.281,17.296,17.297,17.319,17.339,17.323,17.312,17.313,17.306,17.294,17.291,17.28,17.258,17.241,17.223,17.214,17.214,17.216,17.21,17.209,17.213,17.211,17.207,17.211,17.219,17.217,17.213,17.208,17.195,17.178,17.159,17.171,17.273,17.486,17.706,17.946,18.032,17.802,17.603,17.408,17.198,17.111,17.134,17.121,17.073,17.126,17.172,17.223,17.281,17.302,17.314,17.326,17.324,17.33,17.336,17.345,17.358,17.358,17.365,17.367,17.378,17.389,17.388,17.387,17.395,17.396,17.404,17.403,17.408,17.411,17.427,17.45,17.462,17.477,17.494,17.513,17.532,17.554,17.568,17.585,17.61,17.63,17.641,17.659,17.666,17.675,17.686,17.698,17.702,17.698,17.696,17.697,17.691,17.678,17.653,17.631,17.6,17.567,17.529,17.491,17.463,17.437,17.419,17.394,17.379,17.356,17.343,17.333,17.32,17.31,17.303,17.304,17.298,17.286,17.287,17.284,17.284,17.283,17.279,17.278,17.279,17.276,17.282,17.282,17.286,17.287,17.287,17.293,17.292,17.294,17.301,17.3,17.311,17.321,17.317,17.317,17.329,17.335,17.335,17.335,17.336,17.35,17.352,17.36,17.365,17.36,17.36,17.363,17.368,17.361,17.366,17.36,17.361,17.363,17.362,17.36,17.355,17.357,17.354,17.353,17.348,17.347,17.354,17.35,17.351,17.355,17.359,17.37,17.377,17.395,17.389,17.388,17.391,17.409,17.404,17.411,17.437,17.43,17.422,17.423,17.419,17.405,17.393,17.396,17.39,17.373,17.346,17.331,17.319,17.32,17.317,17.309,17.318,17.313,17.316,17.31,17.315,17.308,17.309,17.313,17.302,17.286,17.266,17.276,17.383,17.583,17.812,18.042,18.164,17.934,17.735,17.555,17.327,17.158,17.127,17.144,17.146,17.255,17.279,17.337,17.369,17.391,17.391,17.387,17.39,17.407,17.406,17.414,17.412,17.427,17.43,17.433,17.433,17.44,17.445,17.45,17.443,17.445,17.447,17.452,17.461,17.47,17.472,17.484,17.498,17.526,17.537,17.55,17.564,17.577,17.604,17.616,17.636,17.649,17.67,17.688,17.696,17.7,17.71,17.72,17.731,17.73,17.731,17.722,17.718,17.707,17.694,17.659,17.632,17.602,17.574,17.54,17.506,17.476,17.457,17.437,17.416,17.392,17.374,17.357,17.348,17.341,17.335,17.324,17.317,17.316,17.313,17.305,17.3,17.293,17.296,17.299,17.302,17.293,17.292,17.287,17.293,17.296,17.3,17.299,17.302,17.313,17.318,17.311,17.315,17.315,17.323,17.325,17.324,17.33,17.331,17.336,17.339,17.341,17.34,17.345,17.351,17.353,17.355,17.353,17.352,17.358,17.36,17.357,17.356,17.351,17.352,17.362,17.354,17.348,17.343,17.346,17.346,17.347,17.335,17.337,17.334,17.329,17.33,17.327,17.324,17.322,17.324,17.329,17.322,17.317,17.316,17.323,17.32,17.316,17.313,17.312,17.313,17.313,17.315,17.311,17.308,17.316,17.321,17.323,17.325,17.332,17.343,17.351,17.373,17.367,17.362,17.367,17.383,17.387,17.401,17.418,17.426,17.417,17.414,17.4,17.389,17.386,17.387,17.389,17.367,17.341,17.322,17.318,17.324,17.323,17.314,17.317,17.319,17.323,17.318,17.321,17.316,17.323,17.319,17.316,17.298,17.281,17.306,17.413,17.62,17.849,18.069,18.182,17.928,17.724,17.548,17.327,17.158,17.121,17.144,17.142,17.224,17.296,17.359,17.382,17.398,17.397,17.403,17.411,17.421,17.425,17.435,17.441,17.451,17.457,17.455,17.457,17.463,17.465,17.468,17.462,17.473,17.476,17.486,17.493,17.508,17.517,17.528,17.54,17.558,17.573,17.589,17.601,17.624,17.643,17.667,17.671,17.688,17.712,17.729,17.744,17.756,17.767,17.785,17.791,17.794,17.796,17.787,17.787,17.781,17.77,17.744,17.718,17.696,17.672,17.652,17.619,17.587,17.563,17.536,17.518,17.487,17.47,17.455,17.441,17.431,17.425,17.414,17.408,17.401,17.399,17.401,17.383,17.382,17.383,17.379,17.374,17.369,17.37,17.366,17.365,17.357,17.361,17.37,17.373,17.375,17.377,17.376,17.381,17.372,17.385,17.378,17.375,17.374,17.384,17.389,17.39,17.391,17.391,17.398,17.41,17.404,17.409,17.417,17.421,17.418,17.419,17.419,17.424,17.42,17.425,17.426,17.416,17.415,17.408,17.411,17.405,17.411,17.409,17.412,17.405,17.406,17.403,17.396,17.392,17.395,17.393,17.392,17.391,17.393,17.392,17.397,17.394,17.394,17.389,17.385,17.393,17.392,17.397,17.393,17.392,17.4,17.403,17.401,17.4,17.404,17.402,17.404,17.401,17.401,17.401,17.405,17.401,17.403,17.4,17.397,17.402,17.403,17.404,17.409,17.422,17.433,17.446,17.445,17.441,17.457,17.478,17.5,17.504,17.501,17.483,17.477,17.472,17.468,17.457,17.449,17.449,17.438,17.406,17.387,17.387,17.383,17.388,17.386,17.38,17.381,17.385,17.384,17.387,17.387,17.382,17.38,17.375,17.358,17.342,17.339,17.424,17.604,17.842,18.055,18.21,18.049,17.792,17.625,17.454,17.235,17.172,17.188,17.197,17.25,17.332,17.392,17.434,17.462,17.468,17.478,17.471,17.486,17.492,17.506,17.505,17.52,17.519,17.542,17.534,17.54,17.54,17.547,17.545,17.559,17.563,17.572,17.569,17.581,17.589,17.606,17.62,17.636,17.65,17.665,17.677,17.693,17.714,17.733,17.75,17.757,17.771,17.794,17.807,17.827,17.835,17.847,17.853,17.857,17.868,17.862,17.855,17.849,17.843,17.826,17.804,17.786,17.752,17.72,17.709,17.673,17.642,17.616,17.592,17.572,17.555,17.528,17.514,17.493,17.484,17.48,17.472,17.463,17.461,17.449,17.446,17.438,17.427,17.428,17.433,17.432,17.433,17.431,17.431,17.44,17.448,17.444,17.445,17.454,17.459,17.466,17.466,17.463,17.47,17.473,17.476,17.472,17.477,17.479,17.484,17.486,17.483,17.486,17.483,17.49,17.5,17.494,17.497,17.492,17.492,17.499,17.496,17.487,17.492,17.493,17.495,17.498,17.491,17.49,17.489,17.491,17.493,17.482,17.479,17.476,17.478,17.486,17.478,17.477,17.471,17.481,17.477,17.469,17.469,17.47,17.472,17.466,17.466,17.459,17.461,17.463,17.466,17.459,17.462,17.455,17.459,17.463,17.468,17.46,17.457,17.464,17.469,17.464,17.464,17.464,17.459,17.46,17.462,17.463,17.467,17.471,17.477,17.489,17.502,17.51,17.507,17.519,17.536,17.56,17.562,17.566,17.544,17.545,17.536,17.53,17.526,17.522,17.525,17.506,17.474,17.449,17.453,17.458,17.455,17.451,17.457,17.454,17.457,17.451,17.45,17.452,17.453,17.451,17.448,17.434,17.414,17.401,17.452,17.614,17.843,18.061,18.233,18.166,17.898,17.718,17.537,17.36,17.322,17.353,17.31,17.313,17.393,17.428,17.483,17.514,17.521,17.527,17.525,17.532,17.531,17.535,17.543,17.553,17.555,17.558,17.564,17.571,17.567,17.577,17.578,17.571,17.57,17.58,17.588,17.6,17.603,17.61,17.611,17.63,17.65,17.665,17.675,17.692,17.708,17.719,17.733,17.752,17.775,17.788,17.801,17.807,17.821,17.836,17.848,17.858,17.856,17.849,17.851,17.845,17.831,17.823,17.799,17.778,17.748,17.725,17.691,17.661,17.634,17.608,17.594,17.57,17.545,17.533,17.521,17.511,17.498,17.477,17.469,17.465,17.458,17.455,17.454,17.442,17.438,17.443,17.439,17.43,17.428,17.431,17.44,17.442,17.439,17.439,17.447,17.455,17.461,17.451,17.452,17.45,17.469,17.478,17.476,17.476,17.476,17.488,17.488,17.487,17.488,17.489,17.493,17.502,17.5,17.497,17.488,17.488,17.492,17.491,17.483,17.475,17.476,17.472,17.471,17.466,17.471,17.474,17.471,17.471,17.468,17.462,17.464,17.471,17.473,17.468,17.467,17.465,17.474,17.476,17.466,17.46,17.465,17.466,17.467,17.464,17.467,17.476,17.48,17.496,17.508,17.511,17.503,17.504,17.522,17.528,17.552,17.562,17.539,17.546,17.538,17.524,17.525,17.514,17.523,17.507,17.482,17.466,17.445,17.443,17.443,17.442,17.439,17.437,17.447,17.437,17.435,17.427,17.428,17.437,17.433,17.419,17.388,17.371,17.425,17.569,17.685,17.89,18.131,18.235,18.055,17.843,17.652,17.446,17.336,17.342,17.346,17.282,17.328,17.402,17.469,17.498,17.521,17.512,17.521,17.519,17.525,17.527,17.537,17.546,17.564,17.558,17.566,17.566,17.575,17.58,17.577,17.578,17.574,17.58,17.588,17.587,17.602,17.604,17.615,17.633,17.652,17.661,17.673,17.688,17.705,17.727,17.736,17.75,17.77,17.786,17.803,17.813,17.815,17.83,17.841,17.848,17.845,17.843,17.843,17.836,17.833,17.821,17.794,17.771,17.739,17.71,17.676,17.636,17.603,17.574,17.554,17.532,17.508,17.489,17.478,17.47,17.462,17.451,17.444,17.437,17.432,17.431,17.419,17.415,17.41,17.414,17.41,17.41,17.41,17.406,17.405,17.415,17.415,17.418,17.419,17.423,17.425,17.437,17.431,17.439,17.438,17.446,17.447,17.449,17.444,17.453,17.459,17.453,17.452,17.456,17.462,17.469,17.466,17.466,17.464,17.468,17.47,17.471,17.472,17.471,17.468,17.475,17.475,17.466,17.462,17.467,17.466,17.469,17.465,17.462,17.457,17.46,17.46,17.453,17.451,17.453,17.454,17.452,17.455,17.451,17.447,17.445,17.45,17.451,17.445,17.448,17.451,17.458,17.472,17.486,17.497,17.501,17.495,17.495,17.506,17.509,17.525,17.544,17.55,17.534,17.525,17.521,17.516,17.504,17.501,17.503,17.486,17.463,17.443,17.433,17.429,17.43,17.432,17.434,17.43,17.425,17.427,17.428,17.426,17.426,17.422,17.408,17.389,17.389,17.458,17.622,17.853,18.076,18.248,18.168,17.898,17.827,17.659,17.432,17.273,17.246,17.261,17.282,17.384,17.424,17.475,17.492,17.505,17.507,17.512,17.511,17.525,17.53,17.538,17.548,17.552,17.553,17.561,17.563,17.569,17.568,17.572,17.571,17.579,17.577,17.575,17.587,17.603,17.609,17.623,17.631,17.644,17.657,17.68,17.684,17.697,17.714,17.733,17.746,17.769,17.782,17.793,17.804,17.82,17.834,17.841,17.842,17.839,17.837,17.838,17.828,17.813,17.796,17.788,17.761,17.738,17.701,17.667,17.632,17.598,17.573,17.543,17.517,17.495,17.479,17.467,17.448,17.434,17.424,17.421,17.416,17.41,17.407,17.398,17.399,17.394,17.394,17.384,17.386,17.387,17.397,17.389,17.375,17.387,17.389,17.397,17.402,17.4,17.402,17.408,17.41,17.41,17.405,17.403,17.417,17.422,17.42,17.417,17.422,17.425,17.425,17.43,17.432,17.435,17.441,17.443,17.444,17.44,17.439,17.435,17.44,17.442,17.43,17.429,17.435,17.429,17.426,17.42,17.419,17.411,17.412,17.41,17.412,17.399,17.407,17.406,17.407,17.401,17.402,17.398,17.406,17.41,17.403,17.401,17.397,17.402,17.398,17.398,17.395,17.396,17.402,17.401,17.405,17.401,17.401,17.4,17.4,17.398,17.4,17.406,17.416,17.422,17.447,17.445,17.437,17.445,17.453,17.463,17.478,17.5,17.495,17.488,17.48,17.475,17.464,17.462,17.464,17.467,17.454,17.423,17.398,17.394,17.391,17.391,17.385,17.384,17.386,17.39,17.388,17.381,17.381,17.384,17.383,17.367,17.343,17.34,17.367,17.49,17.705,17.927,18.141,18.223,17.948,17.757,17.595,17.369,17.209,17.193,17.207,17.231,17.333,17.371,17.427,17.441,17.454,17.447,17.453,17.454,17.472,17.478,17.489,17.495,17.504,17.511,17.52,17.516,17.523,17.535,17.543,17.543,17.551,17.558,17.573,17.575,17.576,17.574,17.603,17.613,17.632,17.649,17.659,17.676,17.689,17.716,17.736,17.745,17.765,17.786,17.803,17.823,17.829,17.837,17.853,17.859,17.858,17.859,17.848,17.847,17.839,17.827,17.809,17.785,17.759,17.73,17.698,17.664,17.636,17.615,17.582,17.565,17.542,17.527,17.508,17.505,17.492,17.48,17.47,17.469,17.455,17.458,17.452,17.447,17.438,17.435,17.437,17.439,17.427,17.419,17.422,17.427,17.425,17.433,17.431,17.436,17.442,17.444,17.441,17.441,17.445,17.452,17.442,17.45,17.45,17.456,17.462,17.461,17.468,17.466,17.468,17.475,17.481,17.484,17.482,17.483,17.485,17.487,17.492,17.486,17.486,17.489,17.489,17.483,17.481,17.482,17.477,17.482,17.48,17.468,17.462,17.472,17.473,17.466,17.47,17.466,17.458,17.46,17.46,17.461,17.457,17.458,17.461,17.454,17.455,17.451,17.451,17.46,17.463,17.458,17.454,17.459,17.468,17.467,17.467,17.468,17.465,17.465,17.467,17.466,17.466,17.472,17.47,17.469,17.466,17.469,17.471,17.481,17.482,17.497,17.504,17.513,17.524,17.52,17.521,17.536,17.542,17.565,17.582,17.569,17.557,17.549,17.536,17.534,17.524,17.519,17.514,17.5,17.481,17.473,17.465,17.45,17.457,17.454,17.465,17.458,17.46,17.46,17.461,17.46,17.468,17.455,17.447,17.425,17.425,17.487,17.652,17.882,17.992,18.2,18.302,18.018,17.826,17.651,17.447,17.279,17.259,17.272,17.301,17.405,17.454,17.506,17.527,17.543,17.551,17.554,17.558,17.56,17.561,17.565,17.577,17.576,17.577,17.587,17.596,17.61,17.616,17.614,17.616,17.621,17.634,17.633,17.638,17.649,17.659,17.679,17.686,17.693,17.711,17.727,17.741,17.759,17.774,17.784,17.8,17.826,17.84,17.853,17.869,17.88,17.893,17.895,17.899,17.898,17.901,17.9,17.895,17.886,17.869,17.852,17.835,17.815,17.787,17.753,17.722,17.694,17.662,17.633,17.604,17.592,17.568,17.549,17.528,17.518,17.513,17.505,17.501,17.493,17.484,17.476,17.472,17.467,17.455,17.452,17.442,17.445,17.447,17.443,17.442,17.436,17.443,17.441,17.447,17.446,17.453,17.462,17.469,17.464,17.471,17.47,17.484,17.491,17.488,17.491,17.488,17.494,17.496,17.498,17.496,17.49,17.49,17.498,17.496,17.495,17.487,17.491,17.49,17.489,17.488,17.483,17.481,17.487,17.485,17.481,17.479,17.477,17.476,17.483,17.476,17.473,17.472,17.473,17.48,17.479,17.471,17.468,17.47,17.473,17.47,17.467,17.462,17.467,17.465,17.466,17.456,17.453,17.457,17.465,17.467,17.464,17.457,17.457,17.458,17.461,17.455,17.458,17.457,17.453,17.459,17.455,17.461,17.469,17.481,17.495,17.497,17.482,17.48,17.502,17.519,17.533,17.557,17.557,17.546,17.542,17.536,17.524,17.507,17.504,17.505,17.49,17.465,17.443,17.447,17.441,17.442,17.444,17.443,17.44,17.444,17.447,17.442,17.434,17.439,17.434,17.43,17.403,17.393,17.416,17.528,17.752,17.956,18.172,18.237,17.976,17.794,17.617,17.412,17.321,17.317,17.338,17.296,17.315,17.386,17.439,17.485,17.517,17.524,17.531,17.528,17.537,17.533,17.542,17.537,17.547,17.55,17.556,17.563,17.569,17.565,17.583,17.581,17.597,17.591,17.59,17.603,17.618,17.622,17.63,17.647,17.665,17.686,17.699,17.707,17.718,17.742,17.766,17.768,17.773,17.794,17.809,17.827,17.842,17.851,17.851,17.856,17.859,17.856,17.853,17.85,17.845,17.835,17.815,17.795,17.762,17.731,17.716,17.692,17.657,17.63,17.616,17.593,17.571,17.549,17.52,17.513,17.5,17.498,17.483,17.474,17.462,17.467,17.462,17.454,17.447,17.449,17.447,17.44,17.434,17.439,17.44,17.443,17.441,17.446,17.441,17.443,17.454,17.463,17.453,17.456,17.46,17.469,17.479,17.474,17.477,17.472,17.475,17.483,17.486,17.481,17.48,17.475,17.482,17.477,17.475,17.47,17.469,17.47,17.465,17.46,17.451,17.456,17.454,17.457,17.449,17.444,17.441,17.444,17.444,17.445,17.433,17.437,17.445,17.444,17.437,17.436,17.436,17.445,17.452,17.462,17.469,17.477,17.493,17.491,17.493,17.488,17.499,17.51,17.539,17.559,17.534,17.528,17.527,17.524,17.524,17.508,17.498,17.48,17.463,17.439,17.427,17.421,17.422,17.427,17.43,17.421,17.423,17.426,17.429,17.43,17.425,17.419,17.421,17.405,17.375,17.365,17.429,17.601,17.836,18.069,18.167,18.216,17.996,17.791,17.607,17.381,17.328,17.358,17.349,17.296,17.341,17.402,17.464,17.494,17.526,17.523,17.524,17.523,17.535,17.534,17.548,17.541,17.549,17.542,17.552,17.55,17.561,17.562,17.57,17.58,17.585,17.589,17.594,17.602,17.617,17.63,17.643,17.647,17.657,17.68,17.704,17.713,17.723,17.742,17.763,17.777,17.796,17.81,17.823,17.834,17.849,17.863,17.861,17.866,17.868,17.868,17.857,17.85,17.836,17.821,17.803,17.775,17.737,17.71,17.684,17.654,17.625,17.599,17.573,17.556,17.534,17.519,17.498,17.486,17.48,17.475,17.469,17.467,17.461,17.454,17.452,17.452,17.44,17.441,17.433,17.438,17.436,17.434,17.428,17.432,17.436,17.447,17.451,17.447,17.449,17.454,17.457,17.46,17.454,17.457,17.458,17.462,17.47,17.466,17.469,17.47,17.479,17.48,17.476,17.479,17.476,17.487,17.483,17.479,17.476,17.48,17.481,17.481,17.476,17.469,17.463,17.473,17.469,17.466,17.454,17.454,17.454,17.46,17.456,17.449,17.461,17.472,17.487,17.496,17.497,17.491,17.492,17.509,17.514,17.514,17.537,17.545,17.533,17.525,17.518,17.504,17.496,17.493,17.485,17.463,17.436,17.418,17.417,17.414,17.41,17.412,17.41,17.417,17.42,17.407,17.403,17.402,17.41,17.413,17.4,17.374,17.365,17.393,17.505,17.716,17.933,18.147,18.222,18.136,17.889,17.72,17.551,17.286,17.221,17.231,17.238,17.309,17.383,17.44,17.47,17.474,17.483,17.481,17.496,17.499,17.509,17.503,17.52,17.52,17.535,17.531,17.531,17.53,17.542,17.538,17.538,17.531,17.539,17.542,17.555,17.555,17.564,17.576,17.599,17.609,17.619,17.63,17.642,17.659,17.68,17.695,17.708,17.724,17.74,17.76,17.769,17.775,17.783,17.791,17.791,17.788,17.784,17.783,17.775,17.773,17.759,17.729,17.705,17.68,17.647,17.619,17.575,17.544,17.522,17.499,17.469,17.446,17.424,17.408,17.4,17.39,17.375,17.368,17.366,17.357,17.354,17.348,17.346,17.344,17.336,17.341,17.332,17.334,17.338,17.34,17.346,17.338,17.345,17.349,17.355,17.365,17.362,17.367,17.358,17.367,17.374,17.374,17.373,17.379,17.375,17.387,17.388,17.391,17.384,17.387,17.389,17.393,17.388,17.389,17.384,17.39,17.396,17.391,17.386,17.387,17.386,17.387,17.386,17.377,17.373,17.375,17.368,17.37,17.362,17.358,17.361,17.358,17.353,17.352,17.347,17.348,17.353,17.351,17.349,17.351,17.343,17.348,17.348,17.354,17.367,17.383,17.39,17.384,17.379,17.388,17.407,17.412,17.429,17.441,17.434,17.422,17.424,17.418,17.405,17.388,17.394,17.386,17.369,17.337,17.321,17.319,17.316,17.319,17.315,17.314,17.309,17.314,17.315,17.315,17.311,17.306,17.307,17.297,17.274,17.267,17.326,17.492,17.734,17.942,18.127,18.077,17.784,17.632,17.47,17.215,17.129,17.145,17.145,17.17,17.264,17.314,17.366,17.385,17.396,17.393,17.398,17.41,17.417,17.425,17.431,17.441,17.445,17.457,17.457,17.462,17.456,17.465,17.471,17.481,17.487,17.5,17.504,17.512,17.53,17.539,17.546,17.563,17.578,17.6,17.604,17.623,17.644,17.665,17.681,17.697,17.704,17.718,17.735,17.751,17.763,17.767,17.764,17.769,17.766,17.766,17.761,17.75,17.739,17.726,17.703,17.671,17.649,17.615,17.588,17.569,17.539,17.51,17.483,17.46,17.442,17.423,17.407,17.394,17.389,17.373,17.373,17.36,17.358,17.352,17.348,17.339,17.333,17.332,17.331,17.332,17.325,17.319,17.314,17.32,17.325,17.324,17.325,17.323,17.325,17.326,17.327,17.323,17.323,17.321,17.333,17.334,17.332,17.334,17.337,17.339,17.349,17.345,17.349,17.352,17.356,17.362,17.363,17.362,17.362,17.364,17.36,17.358,17.351,17.359,17.359,17.363,17.362,17.352,17.35,17.349,17.353,17.35,17.339,17.341,17.338,17.346,17.344,17.336,17.338,17.339,17.35,17.346,17.347,17.344,17.343,17.348,17.353,17.341,17.341,17.344,17.344,17.355,17.356,17.347,17.355,17.36,17.362,17.361,17.36,17.368,17.381,17.39,17.407,17.408,17.402,17.408,17.42,17.427,17.432,17.451,17.474,17.469,17.457,17.458,17.454,17.44,17.43,17.427,17.411,17.39,17.37,17.358,17.352,17.349,17.35,17.355,17.358,17.364,17.36,17.355,17.354,17.361,17.355,17.349,17.336,17.314,17.331,17.429,17.626,17.852,18.059,18.19,17.976,17.825,17.674,17.494,17.268,17.146,17.169,17.164,17.242,17.324,17.398,17.423,17.453,17.465,17.478,17.47,17.476,17.471,17.48,17.489,17.5,17.487,17.505,17.515,17.538,17.54,17.554,17.555,17.557,17.564,17.58,17.579,17.589,17.596,17.608,17.632,17.645,17.656,17.674,17.679,17.693,17.712,17.729,17.737,17.757,17.783,17.792,17.809,17.812,17.819,17.833,17.846,17.841,17.84,17.837,17.834,17.827,17.814,17.805,17.788,17.759,17.739,17.706,17.68,17.643,17.621,17.595,17.571,17.551,17.528,17.513,17.503,17.485,17.474,17.465,17.46,17.454,17.453,17.442,17.438,17.436,17.435,17.427,17.422,17.417,17.414,17.414,17.416,17.415,17.415,17.408,17.415,17.416,17.416,17.414,17.416,17.413,17.423,17.421,17.413,17.416,17.421,17.423,17.422,17.423,17.431,17.437,17.442,17.44,17.441,17.44,17.442,17.444,17.441,17.434,17.435,17.436,17.438,17.44,17.43,17.429,17.428,17.421,17.426,17.424,17.421,17.422,17.422,17.421,17.411,17.409,17.408,17.413,17.412,17.412,17.41,17.414,17.413,17.41,17.415,17.412,17.414,17.425,17.424,17.426,17.421,17.421,17.426,17.43,17.428,17.429,17.435,17.443,17.444,17.448,17.446,17.447,17.449,17.458,17.455,17.455,17.45,17.456,17.46,17.457,17.467,17.469,17.484,17.497,17.504,17.516,17.523,17.521,17.525,17.538,17.547,17.567,17.585,17.581,17.573,17.564,17.556,17.546,17.544,17.548,17.543,17.512,17.477,17.474,17.471,17.473,17.475,17.469,17.475,17.477,17.472,17.468,17.472,17.472,17.474,17.467,17.461,17.433,17.425,17.467,17.597,17.814,18.024,18.228,18.262,18.105,17.87,17.698,17.535,17.344,17.311,17.332,17.316,17.383,17.458,17.508,17.537,17.547,17.557,17.567,17.577,17.574,17.589,17.594,17.6,17.6,17.6,17.601,17.607,17.609,17.62,17.615,17.613,17.609,17.613,17.623,17.627,17.63,17.643,17.654,17.674,17.691,17.693,17.701,17.716,17.734,17.749,17.765,17.773,17.791,17.81,17.828,17.836,17.847,17.861,17.867,17.86,17.864,17.868,17.87,17.863,17.85,17.843,17.828,17.807,17.788,17.759,17.729,17.7,17.668,17.64,17.617,17.592,17.573,17.55,17.533,17.52,17.511,17.494,17.489,17.484,17.483,17.476,17.467,17.464,17.456,17.464,17.461,17.456,17.455,17.455,17.462,17.458,17.459,17.456,17.466,17.467,17.473,17.471,17.468,17.478,17.481,17.477,17.477,17.475,17.475,17.487,17.489,17.49,17.484,17.494,17.492,17.493,17.497,17.495,17.5,17.499,17.497,17.494,17.496,17.498,17.492,17.49,17.489,17.482,17.482,17.475,17.484,17.489,17.481,17.475,17.479,17.483,17.482,17.475,17.475,17.476,17.471,17.472,17.474,17.47,17.468,17.478,17.475,17.475,17.468,17.475,17.48,17.479,17.473,17.473,17.473,17.476,17.488,17.488,17.494,17.499,17.514,17.524,17.519,17.512,17.523,17.546,17.56,17.585,17.58,17.564,17.563,17.569,17.559,17.544,17.537,17.536,17.526,17.493,17.474,17.471,17.468,17.472,17.478,17.474,17.467,17.471,17.469,17.479,17.476,17.473,17.469,17.477,17.459,17.427,17.411,17.479,17.658,17.887,18.108,18.205,18.251,18.009,17.803,17.629,17.41,17.364,17.397,17.385,17.327,17.375,17.449,17.518,17.542,17.566,17.566,17.572,17.571,17.574,17.574,17.586,17.579,17.598,17.603,17.607,17.599,17.607,17.61,17.617,17.613,17.608,17.612,17.633,17.646,17.66,17.663,17.68,17.703,17.713,17.723,17.733,17.749,17.779,17.79,17.811,17.82,17.837,17.861,17.881,17.892,17.891,17.901,17.915,17.918,17.922,17.923,17.918,17.914,17.914,17.903,17.882,17.864,17.833,17.812,17.789,17.761,17.737,17.709,17.69,17.679,17.661,17.645,17.635,17.627,17.62,17.614,17.605,17.599,17.6,17.61,17.603,17.604,17.596,17.604,17.6,17.609,17.609,17.61,17.612,17.623,17.629,17.632,17.634,17.65,17.651,17.656,17.654,17.654,17.658,17.674,17.677,17.685,17.682,17.69,17.698,17.709,17.703,17.708,17.715,17.722,17.722,17.72,17.721,17.728,17.73,17.736,17.735,17.734,17.73,17.732,17.737,17.742,17.737,17.738,17.74,17.745,17.749,17.75,17.757,17.771,17.783,17.794,17.808,17.819,17.821,17.82,17.83,17.844,17.853,17.866,17.9,17.893,17.883,17.882,17.878,17.875,17.87,17.864,17.85,17.825,17.816,17.819,17.817,17.812,17.813,17.814,17.817,17.816,17.821,17.828,17.821,17.833,17.833,17.829,17.824,17.8,17.792,17.839,17.968,18.196,18.42,18.544,18.678,18.522,18.301,18.141,17.955,17.837,17.736,17.762,17.737,17.805,17.878,17.939,17.97,17.983,17.99,17.995,18.007,18.004,18.012,18.018,18.037,18.047,18.056,18.058,18.07,18.075,18.082,18.082,18.088,18.089,18.098,18.105,18.116,18.118,18.136,18.15,18.167,18.172,18.192,18.206,18.228,18.247,18.26,18.279,18.297,18.317,18.335,18.345,18.355,18.372,18.382,18.386,18.393,18.391,18.386,18.38,18.379,18.371,18.35,18.321,18.303,18.266,18.232,18.195,18.163,18.137,18.109,18.083,18.054,18.028,18.008,17.997,17.986,17.968,17.958,17.952,17.948,17.94,17.938,17.925,17.922,17.918,17.915,17.911,17.903,17.907,17.895,17.899,17.899,17.904,17.905,17.907,17.906,17.905,17.904,17.9,17.91,17.91,17.905,17.907,17.91,17.91,17.907,17.908,17.91,17.91,17.916,17.918,17.916,17.913,17.907,17.916,17.914,17.914,17.914,17.908,17.911,17.909,17.906,17.897,17.893,17.896,17.897,17.894,17.887,17.883,17.876,17.883,17.883,17.877,17.893,17.901,17.913,17.92,17.922,17.907,17.908,17.92,17.928,17.937,17.961,17.953,17.939,17.938,17.917,17.908,17.9,17.908,17.886,17.858,17.832,17.82,17.821,17.822,17.818,17.819,17.81,17.811,17.818,17.807,17.805,17.796,17.8,17.797,17.777,17.76,17.765,17.85,18.036,18.262,18.477,18.581,18.616,18.328,18.147,17.983,17.727,17.61,17.599,17.624,17.65,17.758,17.797,17.848,17.845,17.858,17.848,17.862,17.856,17.877,17.868,17.874,17.884,17.892,17.9,17.905,17.893,17.902,17.905,17.912,17.911,17.916,17.914,17.929,17.938,17.946,17.962,17.973,17.996,18.011,18.021,18.031,18.057,18.079,18.099,18.121,18.137,18.156,18.17,18.198,18.211,18.223,18.223,18.23,18.233,18.234,18.228,18.218,18.212,18.202,18.182,18.163,18.121,18.088,18.061,18.025,17.994,17.971,17.948,17.918,17.899,17.881,17.859,17.851,17.839,17.829,17.83,17.816,17.811,17.81,17.808,17.797,17.793,17.781,17.781,17.775,17.769,17.767,17.764,17.764,17.775,17.778,17.777,17.776,17.786,17.787,17.79,17.785,17.78,17.779,17.784,17.788,17.793,17.788,17.796,17.797,17.801,17.797,17.794,17.806,17.813,17.825,17.819,17.813,17.825,17.822,17.829,17.826,17.811,17.822,17.821,17.818,17.819,17.811,17.814,17.815,17.824,17.813,17.805,17.799,17.813,17.816,17.826,17.83,17.838,17.846,17.851,17.848,17.851,17.858,17.864,17.885,17.915,17.9,17.887,17.875,17.874,17.863,17.852,17.839,17.831,17.81,17.783,17.771,17.767,17.766,17.769,17.762,17.77,17.759,17.76,17.76,17.764,17.766,17.758,17.748,17.742,17.717,17.71,17.771,17.925,18.16,18.268,18.482,18.589,18.295,18.094,17.918,17.716,17.544,17.518,17.54,17.577,17.688,17.731,17.792,17.806,17.831,17.837,17.83,17.834,17.839,17.843,17.843,17.855,17.858,17.863,17.877,17.895,17.899,17.899,17.902,17.916,17.928,17.923,17.927,17.935,17.947,17.955,17.961,17.967,17.989,18.004,18.025,18.032,18.054,18.071,18.09,18.107,18.135,18.146,18.156,18.166,18.181,18.185,18.191,18.195,18.195,18.187,18.182,18.173,18.162,18.132,18.115,18.083,18.051,18.019,17.978,17.954,17.928,17.897,17.862,17.845,17.829,17.812,17.794,17.777,17.776,17.768,17.765,17.757,17.755,17.745,17.738,17.727,17.726,17.719,17.715,17.711,17.708,17.713,17.708,17.703,17.711,17.716,17.715,17.717,17.716,17.714,17.716,17.718,17.718,17.719,17.717,17.727,17.723,17.72,17.723,17.725,17.732,17.735,17.738,17.731,17.734,17.739,17.734,17.733,17.729,17.729,17.731,17.73,17.729,17.726,17.723,17.728,17.732,17.727,17.721,17.723,17.715,17.724,17.726,17.72,17.716,17.717,17.717,17.719,17.716,17.715,17.719,17.718,17.728,17.722,17.737,17.748,17.755,17.771,17.767,17.763,17.769,17.784,17.792,17.813,17.83,17.815,17.812,17.815,17.81,17.799,17.784,17.788,17.782,17.762,17.726,17.713,17.708,17.712,17.716,17.703,17.701,17.709,17.71,17.705,17.707,17.707,17.717,17.719,17.711,17.691,17.681,17.714,17.859,18.095,18.3,18.509,18.533,18.226,18.04,17.878,17.651,17.557,17.569,17.574,17.574,17.659,17.717,17.774,17.802,17.823,17.822,17.823,17.826,17.841,17.842,17.849,17.855,17.867,17.877,17.878,17.875,17.877,17.883,17.889,17.887,17.892,17.887,17.893,17.901,17.912,17.918,17.932,17.943,17.966,17.975,17.994,17.997,18.02,18.038,18.053,18.072,18.081,18.095,18.11,18.13,18.138,18.149,18.155,18.157,18.163,18.159,18.149,18.137,18.124,18.116,18.087,18.06,18.025,17.995,17.962,17.931,17.917,17.891,17.867,17.838,17.811,17.795,17.778,17.77,17.757,17.748,17.74,17.732,17.731,17.737,17.723,17.723,17.716,17.72,17.721,17.725,17.723,17.723,17.722,17.727,17.733,17.741,17.738,17.749,17.754,17.757,17.745,17.752,17.757,17.762,17.764,17.768,17.769,17.773,17.773,17.778,17.782,17.779,17.782,17.789,17.79,17.792,17.788,17.783,17.78,17.778,17.773,17.778,17.775,17.774,17.78,17.774,17.763,17.764,17.765,17.768,17.767,17.76,17.759,17.765,17.774,17.764,17.76,17.755,17.764,17.771,17.768,17.779,17.789,17.801,17.794,17.799,17.804,17.811,17.827,17.852,17.866,17.843,17.837,17.838,17.836,17.827,17.823,17.811,17.799,17.78,17.763,17.744,17.748,17.74,17.746,17.746,17.753,17.745,17.744,17.744,17.744,17.743,17.74,17.735,17.714,17.696,17.694,17.801,18.004,18.216,18.451,18.562,18.333,18.127,18.033,17.838,17.658,17.627,17.655,17.612,17.606,17.684,17.738,17.785,17.817,17.823,17.834,17.83,17.837,17.842,17.843,17.848,17.845,17.842,17.847,17.859,17.87,17.868,17.878,17.878,17.889,17.894,17.899,17.905,17.916,17.924,17.945,17.953,17.959,17.972,17.994,18.018,18.028,18.04,18.052,18.072,18.093,18.11,18.122,18.126,18.135,18.148,18.155,18.158,18.157,18.155,18.15,18.141,18.128,18.108,18.092
