11.205,11.2,11.183,11.191,11.205,11.213,11.245,11.189,11.209,11.245,11.227,11.219,11.233,11.286,11.306,11.317,11.308,11.307,11.304,11.315,11.319,11.33,11.316,11.305,11.318,11.281,11.246,11.242,11.203,11.165,11.116,11.109,11.047,11.032,11.014,10.974,10.985,10.979,10.985,10.967,10.988,10.983,11.01,11.017,11.061,11.148,11.149,11.137,11.154,11.159,11.176,11.177,11.196,11.192,11.183,11.182,11.185,11.167,11.174,11.198,11.207,11.19,11.198,11.199,11.203,11.216,11.219,11.225,11.215,11.217,11.18,11.134,11.145,11.204,11.341,11.58,11.87,11.934,11.813,11.422,11.021,10.921,10.925,10.905,10.977,11.003,11.047,11.16,11.266,11.262,11.252,11.28,11.273,11.293,11.301,11.33,11.31,11.32,11.315,11.298,11.297,11.299,11.265,11.298,11.263,11.265,11.247,11.259,11.249,11.27,11.251,11.284,11.274,11.283,11.289,11.279,11.283,11.31,11.342,11.337,11.352,11.353,11.369,11.387,11.402,11.432,11.439,11.425,11.456,11.466,11.466,11.477,11.49,11.494,11.486,11.479,11.49,11.452,11.447,11.417,11.386,11.374,11.313,11.313,11.291,11.269,11.237,11.249,11.223,11.212,11.195,11.182,11.182,11.171,11.171,11.161,11.174,11.161,11.177,11.164,11.166,11.148,11.147,11.138,11.151,11.147,11.146,11.145,11.141,11.127,11.131,11.137,11.132,11.127,11.132,11.121,11.134,11.124,11.126,11.124,11.134,11.147,11.145,11.143,11.146,11.155,11.154,11.164,11.167,11.167,11.178,11.181,11.182,11.187,11.181,11.19,11.197,11.196,11.215,11.229,11.228,11.224,11.233,11.235,11.247,11.255,11.256,11.262,11.266,11.272,11.282,11.288,11.29,11.298,11.309,11.304,11.304,11.324,11.354,11.381,11.371,11.348,11.335,11.323,11.321,11.305,11.286,11.276,11.271,11.262,11.259,11.26,11.267,11.262,11.254,11.249,11.243,11.24,11.242,11.244,11.222,11.239,11.229,11.193,11.136,11.138,11.158,11.238,11.469,11.843,12.03,11.992,11.571,11.107,10.869,10.896,10.939,10.967,11.024,11.021,11.065,11.137,11.23,11.249,11.249,11.222,11.261,11.251,11.276,11.26,11.277,11.269,11.291,11.281,11.301,11.282,11.303,11.308,11.314,11.318,11.334,11.333,11.35,11.361,11.361,11.367,11.376,11.384,11.402,11.411,11.415,11.431,11.445,11.45,11.468,11.476,11.492,11.504,11.52,11.526,11.542,11.553,11.566,11.579,11.582,11.586,11.584,11.589,11.578,11.585,11.562,11.547,11.508,11.492,11.459,11.429,11.411,11.392,11.37,11.359,11.333,11.322,11.315,11.313,11.305,11.299,11.286,11.291,11.291,11.29,11.285,11.289,11.282,11.284,11.281,11.278,11.272,11.279,11.278,11.282,11.276,11.274,11.272,11.275,11.276,11.272,11.265,11.269,11.263,11.27,11.259,11.272,11.259,11.269,11.271,11.269,11.264,11.276,11.26,11.264,11.262,11.261,11.255,11.262,11.26,11.252,11.256,11.254,11.251,11.244,11.249,11.252,11.245,11.239,11.246,11.241,11.242,11.241,11.242,11.238,11.237,11.233,11.228,11.232,11.23,11.223,11.219,11.219,11.228,11.224,11.236,11.235,11.233,11.242,11.251,11.254,11.235,11.256,11.309,11.328,11.314,11.301,11.278,11.269,11.278,11.272,11.269,11.26,11.239,11.235,11.233,11.239,11.244,11.243,11.242,11.236,11.238,11.247,11.249,11.251,11.247,11.244,11.233,11.188,11.129,11.12,11.14,11.193,11.355,11.686,12.009,12.032,11.7,11.234,11.026,10.985,10.962,10.987,11.045,11.094,11.168,11.248,11.249,11.234,11.239,11.239,11.244,11.241,11.243,11.232,11.24,11.236,11.247,11.244,11.247,11.247,11.253,11.244,11.246,11.246,11.249,11.25,11.244,11.255,11.257,11.26,11.264,11.275,11.289,11.293,11.309,11.325,11.336,11.348,11.354,11.366,11.381,11.393,11.393,11.401,11.42,11.429,11.442,11.441,11.442,11.447,11.458,11.456,11.452,11.441,11.428,11.405,11.388,11.354,11.319,11.292,11.272,11.248,11.225,11.207,11.185,11.172,11.162,11.154,11.146,11.136,11.134,11.127,11.127,11.121,11.123,11.119,11.129,11.119,11.128,11.123,11.122,11.13,11.124,11.134,11.13,11.137,11.133,11.142,11.142,11.141,11.143,11.151,11.148,11.153,11.154,11.156,11.164,11.166,11.169,11.17,11.171,11.18,11.176,11.174,11.168,11.17,11.171,11.168,11.178,11.17,11.171,11.171,11.172,11.172,11.166,11.169,11.165,11.168,11.164,11.159,11.16,11.163,11.163,11.158,11.155,11.158,11.157,11.167,11.167,11.165,11.162,11.16,11.162,11.163,11.165,11.164,11.16,11.164,11.159,11.16,11.159,11.164,11.165,11.171,11.169,11.186,11.19,11.191,11.194,11.207,11.203,11.198,11.223,11.272,11.288,11.273,11.247,11.234,11.218,11.216,11.215,11.211,11.197,11.18,11.181,11.173,11.178,11.177,11.177,11.177,11.179,11.179,11.183,11.179,11.193,11.192,11.193,11.191,11.15,11.092,11.09,11.122,11.22,11.321,11.627,11.952,11.946,11.616,11.158,10.939,10.923,10.916,10.941,11.011,11.047,11.124,11.205,11.224,11.218,11.215,11.215,11.221,11.218,11.228,11.224,11.231,11.232,11.248,11.243,11.247,11.254,11.26,11.268,11.272,11.276,11.287,11.285,11.291,11.301,11.312,11.316,11.325,11.328,11.341,11.349,11.361,11.368,11.386,11.397,11.411,11.421,11.439,11.457,11.47,11.493,11.504,11.514,11.525,11.54,11.552,11.559,11.554,11.561,11.565,11.575,11.559,11.535,11.508,11.485,11.461,11.453,11.415,11.387,11.367,11.355,11.339,11.325,11.309,11.297,11.286,11.281,11.273,11.274,11.264,11.262,11.268,11.261,11.256,11.252,11.26,11.266,11.255,11.255,11.261,11.264,11.257,11.265,11.267,11.264,11.262,11.269,11.27,11.262,11.26,11.256,11.275,11.27,11.269,11.273,11.271,11.267,11.271,11.273,11.266,11.277,11.27,11.266,11.261,11.263,11.266,11.264,11.268,11.261,11.252,11.246,11.255,11.252,11.246,11.244,11.242,11.238,11.208,11.222,11.223,11.228,11.22,11.219,11.212,11.203,11.218,11.229,11.216,11.211,11.221,11.22,11.224,11.22,11.221,11.216,11.212,11.212,11.208,11.206,11.201,11.199,11.199,11.192,11.193,11.19,11.185,11.192,11.194,11.18,11.188,11.189,11.187,11.19,11.191,11.193,11.203,11.204,11.204,11.208,11.216,11.208,11.206,11.233,11.255,11.283,11.275,11.254,11.232,11.222,11.218,11.215,11.205,11.191,11.174,11.168,11.171,11.163,11.17,11.167,11.168,11.165,11.17,11.169,11.174,11.167,11.174,11.168,11.163,11.126,11.07,11.059,11.082,11.18,11.396,11.728,11.954,11.836,11.426,11.026,10.923,10.935,10.929,10.951,11.004,11.029,11.109,11.204,11.231,11.228,11.228,11.228,11.238,11.244,11.25,11.254,11.26,11.268,11.274,11.282,11.282,11.291,11.295,11.304,11.311,11.308,11.327,11.332,11.335,11.347,11.346,11.35,11.361,11.366,11.376,11.381,11.394,11.403,11.412,11.426,11.424,11.435,11.446,11.467,11.471,11.493,11.498,11.509,11.523,11.537,11.554,11.556,11.561,11.57,11.564,11.567,11.544,11.529,11.504,11.488,11.46,11.444,11.42,11.388,11.368,11.351,11.331,11.305,11.293,11.274,11.268,11.263,11.252,11.251,11.241,11.24,11.234,11.227,11.221,11.23,11.232,11.226,11.217,11.213,11.208,11.218,11.209,11.204,11.207,11.208,11.207,11.203,11.196,11.189,11.185,11.192,11.199,11.193,11.197,11.197,11.201,11.206,11.205,11.205,11.202,11.2,11.208,11.204,11.201,11.204,11.213,11.207,11.207,11.213,11.21,11.203,11.211,11.206,11.212,11.209,11.212,11.206,11.206,11.201,11.206,11.214,11.201,11.204,11.211,11.212,11.214,11.211,11.207,11.209,11.217,11.209,11.217,11.219,11.219,11.215,11.223,11.222,11.222,11.215,11.215,11.225,11.232,11.229,11.223,11.222,11.234,11.231,11.235,11.234,11.233,11.237,11.242,11.241,11.248,11.258,11.253,11.251,11.259,11.267,11.268,11.258,11.285,11.324,11.35,11.336,11.313,11.301,11.284,11.291,11.28,11.267,11.257,11.248,11.254,11.242,11.244,11.241,11.245,11.243,11.239,11.24,11.237,11.25,11.245,11.25,11.242,11.23,11.175,11.138,11.138,11.187,11.243,11.465,11.849,12.061,11.905,11.464,11.05,10.961,10.987,10.99,11.042,11.08,11.108,11.164,11.238,11.268,11.266,11.255,11.262,11.268,11.267,11.275,11.278,11.286,11.292,11.291,11.298,11.307,11.3,11.305,11.313,11.325,11.332,11.339,11.353,11.364,11.363,11.374,11.375,11.381,11.394,11.404,11.421,11.43,11.441,11.443,11.441,11.459,11.46,11.47,11.486,11.498,11.508,11.513,11.52,11.526,11.542,11.547,11.551,11.551,11.543,11.545,11.537,11.533,11.503,11.483,11.459,11.432,11.414,11.374,11.358,11.34,11.319,11.306,11.295,11.281,11.273,11.264,11.262,11.261,11.252,11.249,11.248,11.251,11.247,11.239,11.245,11.244,11.245,11.245,11.238,11.245,11.247,11.243,11.24,11.235,11.241,11.245,11.252,11.245,11.257,11.259,11.257,11.27,11.271,11.271,11.271,11.264,11.271,11.279,11.277,11.268,11.275,11.279,11.278,11.274,11.276,11.277,11.282,11.285,11.279,11.278,11.286,11.291,11.286,11.284,11.296,11.289,11.287,11.297,11.291,11.299,11.295,11.3,11.304,11.296,11.296,11.299,11.302,11.3,11.302,11.301,11.296,11.31,11.308,11.304,11.307,11.295,11.31,11.32,11.311,11.312,11.314,11.339,11.331,11.33,11.33,11.355,11.396,11.399,11.374,11.352,11.345,11.339,11.34,11.318,11.305,11.287,11.292,11.296,11.286,11.281,11.29,11.287,11.289,11.289,11.29,11.29,11.283,11.283,11.276,11.277,11.258,11.202,11.172,11.191,11.232,11.398,11.73,12.07,12.098,11.685,11.223,10.994,10.995,11.028,11.029,11.072,11.093,11.128,11.202,11.274,11.305,11.295,11.297,11.297,11.292,11.295,11.302,11.3,11.303,11.294,11.307,11.311,11.308,11.31,11.308,11.315,11.317,11.324,11.326,11.334,11.335,11.341,11.351,11.361,11.363,11.37,11.379,11.388,11.401,11.408,11.411,11.424,11.438,11.451,11.459,11.469,11.482,11.485,11.501,11.51,11.522,11.527,11.536,11.544,11.54,11.534,11.526,11.515,11.5,11.474,11.454,11.43,11.394,11.375,11.346,11.325,11.302,11.285,11.269,11.259,11.241,11.23,11.22,11.224,11.215,11.212,11.202,11.197,11.197,11.189,11.181,11.192,11.191,11.184,11.188,11.182,11.183,11.179,11.183,11.182,11.182,11.187,11.189,11.19,11.195,11.195,11.188,11.191,11.189,11.196,11.196,11.198,11.199,11.204,11.203,11.211,11.209,11.204,11.21,11.214,11.223,11.215,11.217,11.215,11.213,11.224,11.224,11.209,11.218,11.22,11.221,11.215,11.216,11.214,11.216,11.226,11.22,11.209,11.223,11.228,11.22,11.217,11.211,11.226,11.22,11.218,11.22,11.226,11.219,11.218,11.215,11.214,11.213,11.215,11.217,11.215,11.206,11.208,11.211,11.214,11.218,11.211,11.212,11.208,11.226,11.226,11.223,11.22,11.233,11.244,11.239,11.234,11.257,11.294,11.307,11.28,11.258,11.242,11.236,11.235,11.23,11.217,11.202,11.186,11.187,11.187,11.187,11.18,11.185,11.184,11.183,11.184,11.18,11.18,11.18,11.179,11.179,11.159,11.091,11.058,11.079,11.145,11.298,11.621,11.961,12.015,11.838,11.406,11.003,10.94,10.948,10.948,10.997,11.006,11.059,11.138,11.208,11.221,11.21,11.215,11.222,11.225,11.226,11.237,11.234,11.248,11.247,11.253,11.255,11.26,11.264,11.269,11.266,11.279,11.279,11.289,11.289,11.298,11.306,11.311,11.317,11.324,11.334,11.342,11.34,11.349,11.367,11.377,11.382,11.394,11.402,11.419,11.432,11.441,11.457,11.462,11.471,11.481,11.491,11.499,11.508,11.512,11.51,11.505,11.493,11.478,11.458,11.432,11.407,11.372,11.347,11.325,11.306,11.286,11.265,11.246,11.244,11.23,11.216,11.213,11.205,11.205,11.193,11.2,11.199,11.196,11.193,11.19,11.188,11.193,11.186,11.188,11.19,11.192,11.192,11.194,11.195,11.202,11.202,11.198,11.189,11.192,11.194,11.196,11.194,11.188,11.194,11.192,11.197,11.196,11.198,11.195,11.204,11.203,11.209,11.203,11.205,11.207,11.211,11.203,11.205,11.207,11.207,11.208,11.209,11.203,11.204,11.203,11.202,11.201,11.197,11.195,11.196,11.199,11.192,11.19,11.191,11.187,11.193,11.192,11.187,11.184,11.189,11.189,11.187,11.181,11.178,11.18,11.183,11.179,11.179,11.172,11.172,11.171,11.164,11.165,11.166,11.168,11.169,11.169,11.167,11.162,11.164,11.164,11.161,11.157,11.152,11.155,11.16,11.155,11.141,11.172,11.173,11.172,11.177,11.189,11.182,11.173,11.192,11.216,11.253,11.251,11.231,11.213,11.197,11.19,11.191,11.179,11.172,11.159,11.154,11.143,11.15,11.156,11.154,11.154,11.15,11.151,11.158,11.158,11.153,11.155,11.154,11.15,11.132,11.063,11.051,11.065,11.145,11.333,11.666,11.939,11.88,11.525,11.089,10.94,10.93,10.915,10.93,10.99,11.019,11.09,11.168,11.188,11.179,11.175,11.172,11.171,11.174,11.178,11.183,11.185,11.185,11.189,11.2,11.197,11.205,11.21,11.21,11.216,11.224,11.226,11.231,11.234,11.237,11.244,11.25,11.255,11.261,11.27,11.278,11.287,11.297,11.311,11.327,11.342,11.348,11.354,11.368,11.388,11.4,11.409,11.421,11.431,11.441,11.457,11.462,11.465,11.466,11.468,11.463,11.447,11.425,11.403,11.378,11.354,11.34,11.312,11.283,11.266,11.243,11.222,11.21,11.194,11.182,11.173,11.169,11.158,11.151,11.149,11.151,11.148,11.142,11.139,11.142,11.145,11.144,11.146,11.137,11.137,11.142,11.146,11.139,11.142,11.14,11.141,11.141,11.133,11.129,11.131,11.134,11.132,11.128,11.124,11.124,11.13,11.132,11.135,11.133,11.133,11.129,11.133,11.134,11.128,11.129,11.131,11.132,11.131,11.131,11.129,11.126,11.13,11.128,11.125,11.128,11.127,11.129,11.129,11.127,11.127,11.125,11.13,11.133,11.129,11.127,11.129,11.131,11.129,11.132,11.126,11.132,11.133,11.132,11.132,11.134,11.128,11.133,11.133,11.131,11.126,11.131,11.13,11.133,11.127,11.132,11.127,11.134,11.132,11.128,11.129,11.133,11.13,11.131,11.127,11.13,11.127,11.129,11.131,11.131,11.13,11.128,11.132,11.136,11.132,11.132,11.129,11.135,11.153,11.15,11.146,11.147,11.163,11.16,11.154,11.158,11.199,11.236,11.236,11.215,11.194,11.176,11.177,11.174,11.164,11.147,11.126,11.124,11.122,11.123,11.12,11.12,11.121,11.123,11.123,11.118,11.12,11.118,11.126,11.127,11.115,11.078,11.017,11.009,11.027,11.116,11.329,11.674,11.901,11.789,11.388,10.987,10.894,10.896,10.895,10.907,10.954,10.984,11.064,11.148,11.159,11.147,11.144,11.149,11.153,11.157,11.157,11.163,11.168,11.179,11.182,11.182,11.185,11.192,11.201,11.203,11.202,11.207,11.213,11.223,11.228,11.229,11.233,11.242,11.251,11.257,11.267,11.272,11.285,11.298,11.306,11.311,11.321,11.335,11.352,11.365,11.378,11.386,11.396,11.414,11.422,11.434,11.439,11.445,11.453,11.461,11.453,11.443,11.434,11.422,11.411,11.387,11.357,11.329,11.305,11.281,11.263,11.235,11.216,11.205,11.19,11.176,11.167,11.164,11.159,11.155,11.148,11.141,11.141,11.145,11.142,11.143,11.137,11.134,11.136,11.137,11.137,11.138,11.135,11.138,11.14,11.143,11.137,11.135,11.138,11.141,11.144,11.137,11.139,11.143,11.147,11.15,11.147,11.147,11.149,11.15,11.153,11.152,11.148,11.153,11.155,11.156,11.155,11.151,11.154,11.155,11.157,11.152,11.152,11.15,11.155,11.154,11.152,11.147,11.143,11.153,11.158,11.152,11.151,11.146,11.153,11.156,11.154,11.152,11.149,11.154,11.154,11.153,11.15,11.149,11.153,11.154,11.153,11.152,11.148,11.151,11.151,11.154,11.152,11.152,11.156,11.158,11.157,11.156,11.154,11.157,11.154,11.158,11.158,11.153,11.155,11.156,11.162,11.157,11.155,11.157,11.161,11.165,11.159,11.155,11.153,11.156,11.159,11.157,11.157,11.16,11.158,11.166,11.176,11.175,11.172,11.178,11.193,11.186,11.18,11.195,11.245,11.278,11.25,11.225,11.209,11.202,11.202,11.191,11.175,11.157,11.146,11.143,11.143,11.143,11.14,11.145,11.144,11.144,11.139,11.14,11.139,11.14,11.144,11.14,11.119,11.069,11.031,11.039,11.078,11.13,11.325,11.682,11.912,11.814,11.41,11.001,10.903,10.917,10.902,10.96,10.975,11.031,11.11,11.176,11.178,11.168,11.174,11.172,11.178,11.175,11.18,11.185,11.197,11.2,11.204,11.204,11.215,11.216,11.22,11.224,11.23,11.235,11.248,11.249,11.252,11.257,11.265,11.273,11.277,11.284,11.289,11.296,11.31,11.321,11.332,11.339,11.351,11.361,11.372,11.38,11.393,11.407,11.421,11.432,11.44,11.449,11.458,11.463,11.469,11.471,11.47,11.465,11.456,11.439,11.416,11.389,11.364,11.341,11.319,11.293,11.27,11.251,11.237,11.227,11.209,11.196,11.193,11.186,11.183,11.179,11.172,11.174,11.172,11.168,11.167,11.164,11.164,11.163,11.165,11.168,11.162,11.158,11.165,11.167,11.163,11.165,11.164,11.162,11.165,11.166,11.164,11.157,11.163,11.164,11.16,11.171,11.161,11.139,11.152,11.174,11.16,11.152,11.173,11.162,11.164,11.161,11.165,11.165,11.161,11.16,11.125,11.124,11.106,11.096,11.079,11.069,11.056,11.053,11.042,11.043,11.048,11.053,11.056,11.067,11.071,11.081,11.083,11.086,11.092,11.102,11.1,11.111,11.104,11.106,11.109,11.108,11.12,11.11,11.112,11.116,11.11,11.109,11.108,11.1,11.099,11.123,11.124,11.111,11.107,11.129,11.128,11.118,11.123,11.122,11.124,11.129,11.132,11.12,11.125,11.113,11.122,11.13,11.129,11.129,11.141,11.143,11.152,11.159,11.174,11.181,11.191,11.192,11.201,11.209,11.216,11.224,11.241,11.254,11.251,11.257,11.271,11.309,11.348,11.333,11.306,11.288,11.285,11.266,11.265,11.251,11.244,11.218,11.209,11.212,11.211,11.215,11.209,11.207,11.205,11.204,11.2,11.198,11.193,11.187,11.183,11.171,11.118,11.063,11.058,11.091,11.193,11.445,11.767,11.882,11.641,11.186,10.864,10.844,10.864,10.876,10.956,10.954,10.992,11.07,11.148,11.16,11.15,11.155,11.148,11.162,11.161,11.174,11.173,11.179,11.178,11.189,11.198,11.206,11.19,11.211,11.215,11.224,11.235,11.239,11.238,11.25,11.255,11.266,11.268,11.28,11.286,11.298,11.305,11.313,11.322,11.333,11.341,11.361,11.371,11.386,11.389,11.403,11.413,11.422,11.431,11.445,11.457,11.468,11.469,11.473,11.477,11.475,11.471,11.458,11.444,11.423,11.4,11.374,11.347,11.327,11.303,11.281,11.269,11.247,11.234,11.213,11.201,11.192,11.178,11.176,11.171,11.17,11.177,11.167,11.166,11.162,11.165,11.167,11.166,11.161,11.165,11.163,11.176,11.172,11.164,11.15,11.155,11.185,11.178,11.17,11.165,11.172,11.188,11.178,11.167,11.185,11.201,11.172,11.177,11.184,11.181,11.173,11.16,11.139,11.148,11.134,11.122,11.136,11.138,11.125,11.115,11.119,11.134,11.135,11.132,11.132,11.147,11.145,11.157,11.16,11.169,11.175,11.19,11.2,11.209,11.214,11.221,11.222,11.232,11.235,11.232,11.233,11.236,11.239,11.241,11.234,11.238,11.239,11.243,11.255,11.247,11.243,11.243,11.241,11.255,11.277,11.284,11.298,11.3,11.294,11.293,11.313,11.315,11.318,11.32,11.357,11.378,11.387,11.359,11.318,11.307,11.295,11.286,11.272,11.257,11.227,11.216,11.205,11.201,11.2,11.189,11.175,11.172,11.171,11.163,11.157,11.154,11.152,11.15,11.149,11.124,11.065,11.034,11.051,11.105,11.266,11.573,11.865,11.85,11.451,10.993,10.8,10.83,10.839,10.884,10.942,10.954,11.019,11.108,11.166,11.199,11.2,11.196,11.212,11.217,11.231,11.232,11.243,11.245,11.252,11.256,11.262,11.26,11.27,11.266,11.278,11.277,11.284,11.285,11.293,11.303,11.312,11.31,11.324,11.33,11.344,11.347,11.361,11.363,11.38,11.385,11.391,11.402,11.405,11.422,11.444,11.45,11.458,11.464,11.479,11.501,11.51,11.513,11.527,11.524,11.529,11.524,11.504,11.484,11.459,11.441,11.404,11.387,11.366,11.342,11.318,11.301,11.268,11.256,11.246,11.223,11.22,11.22,11.208,11.203,11.194,11.197,11.193,11.193,11.194,11.201,11.194,11.189,11.188,11.187,11.197,11.197,11.191,11.189,11.197,11.209,11.207,11.205,11.205,11.2,11.212,11.213,11.212,11.21,11.213,11.209,11.206,11.204,11.206,11.215,11.215,11.22,11.216,11.218,11.21,11.22,11.218,11.217,11.218,11.223,11.219,11.227,11.227,11.226,11.219,11.229,11.23,11.231,11.226,11.226,11.227,11.23,11.235,11.23,11.233,11.233,11.234,11.238,11.237,11.237,11.24,11.244,11.247,11.256,11.253,11.257,11.266,11.268,11.276,11.277,11.28,11.29,11.331,11.359,11.361,11.332,11.316,11.313,11.301,11.298,11.275,11.261,11.245,11.244,11.24,11.244,11.252,11.253,11.252,11.244,11.244,11.251,11.253,11.252,11.247,11.247,11.244,11.213,11.155,11.155,11.169,11.277,11.54,11.916,12.041,11.989,11.56,11.114,10.936,10.943,10.948,10.977,11.059,11.062,11.132,11.202,11.289,11.277,11.288,11.27,11.288,11.277,11.3,11.292,11.304,11.294,11.308,11.305,11.321,11.316,11.328,11.328,11.342,11.346,11.354,11.355,11.368,11.376,11.383,11.388,11.396,11.4,11.417,11.418,11.428,11.43,11.443,11.454,11.464,11.471,11.476,11.492,11.503,11.509,11.517,11.524,11.53,11.54,11.55,11.553,11.557,11.56,11.552,11.55,11.536,11.514,11.48,11.464,11.432,11.411,11.38,11.353,11.328,11.314,11.3,11.279,11.266,11.263,11.254,11.253,11.244,11.241,11.236,11.235,11.236,11.23,11.228,11.232,11.231,11.232,11.232,11.232,11.228,11.236,11.24,11.242,11.24,11.24,11.235,11.246,11.243,11.243,11.242,11.249,11.244,11.246,11.24,11.244,11.245,11.247,11.247,11.246,11.24,11.243,11.249,11.244,11.242,11.243,11.243,11.247,11.246,11.243,11.236,11.237,11.238,11.24,11.237,11.233,11.232,11.237,11.231,11.23,11.225,11.225,11.224,11.224,11.216,11.216,11.216,11.216,11.219,11.217,11.207,11.205,11.208,11.208,11.209,11.204,11.202,11.205,11.214,11.222,11.215,11.219,11.227,11.235,11.225,11.223,11.259,11.29,11.313,11.297,11.272,11.259,11.252,11.253,11.242,11.231,11.212,11.198,11.194,11.196,11.191,11.195,11.197,11.201,11.198,11.19,11.192,11.195,11.199,11.199,11.194,11.177,11.128,11.079,11.085,11.126,11.245,11.518,11.871,11.965,11.703,11.248,10.943,10.924,10.921,10.907,10.966,11,11.068,11.146,11.217,11.218,11.209,11.211,11.212,11.214,11.212,11.216,11.222,11.229,11.224,11.23,11.233,11.242,11.247,11.246,11.251,11.256,11.262,11.269,11.28,11.279,11.288,11.297,11.309,11.314,11.319,11.328,11.339,11.354,11.364,11.373,11.386,11.402,11.406,11.424,11.432,11.443,11.461,11.471,11.485,11.487,11.498,11.507,11.516,11.513,11.513,11.514,11.5,11.487,11.464,11.436,11.404,11.39,11.367,11.343,11.319,11.292,11.277,11.256,11.246,11.23,11.218,11.215,11.208,11.203,11.2,11.193,11.187,11.191,11.189,11.186,11.185,11.184,11.184,11.184,11.185,11.182,11.185,11.188,11.192,11.192,11.19,11.193,11.195,11.199,11.197,11.198,11.197,11.201,11.21,11.208,11.207,11.207,11.215,11.218,11.221,11.218,11.218,11.221,11.225,11.225,11.223,11.217,11.218,11.22,11.226,11.224,11.213,11.217,11.217,11.218,11.213,11.208,11.21,11.209,11.211,11.21,11.206,11.206,11.208,11.207,11.204,11.205,11.204,11.206,11.205,11.206,11.202,11.204,11.206,11.206,11.201,11.201,11.201,11.203,11.203,11.201,11.203,11.199,11.202,11.207,11.221,11.221,11.218,11.223,11.234,11.234,11.226,11.242,11.265,11.306,11.313,11.288,11.265,11.253,11.25,11.25,11.236,11.218,11.205,11.2,11.196,11.192,11.193,11.194,11.195,11.194,11.191,11.192,11.19,11.195,11.195,11.198,11.19,11.165,11.108,11.085,11.097,11.154,11.323,11.641,11.939,11.921,11.556,11.11,10.923,10.931,10.918,10.928,11.006,11.023,11.099,11.178,11.22,11.222,11.214,11.22,11.221,11.224,11.225,11.233,11.237,11.248,11.245,11.251,11.257,11.264,11.264,11.265,11.268,11.281,11.285,11.29,11.293,11.297,11.304,11.315,11.315,11.323,11.328,11.34,11.349,11.362,11.368,11.382,11.392,11.405,11.41,11.422,11.434,11.444,11.458,11.474,11.48,11.488,11.499,11.509,11.518,11.519,11.514,11.508,11.498,11.48,11.459,11.428,11.403,11.391,11.367,11.337,11.317,11.295,11.277,11.26,11.25,11.23,11.222,11.218,11.214,11.207,11.199,11.197,11.195,11.199,11.189,11.189,11.189,11.187,11.187,11.191,11.191,11.187,11.195,11.194,11.197,11.196,11.192,11.191,11.192,11.193,11.194,11.192,11.194,11.202,11.202,11.202,11.206,11.205,11.209,11.21,11.208,11.208,11.212,11.211,11.214,11.21,11.205,11.209,11.21,11.212,11.207,11.206,11.207,11.207,11.207,11.205,11.204,11.203,11.208,11.205,11.209,11.203,11.203,11.201,11.205,11.2,11.197,11.203,11.205,11.206,11.205,11.203,11.202,11.206,11.206,11.205,11.201,11.201,11.204,11.205,11.208,11.203,11.206,11.207,11.206,11.21,11.204,11.204,11.207,11.205,11.211,11.213,11.21,11.207,11.211,11.222,11.226,11.219,11.22,11.231,11.241,11.235,11.236,11.263,11.308,11.318,11.287,11.268,11.261,11.258,11.25,11.238,11.222,11.215,11.197,11.197,11.197,11.193,11.195,11.195,11.198,11.194,11.189,11.188,11.194,11.194,11.188,11.184,11.158,11.097,11.08,11.087,11.105,11.216,11.466,11.821,11.954,11.718,11.283,10.95,10.932,10.937,10.934,11.012,11.024,11.09,11.176,11.217,11.214,11.21,11.219,11.217,11.218,11.214,11.222,11.229,11.239,11.24,11.239,11.248,11.255,11.257,11.262,11.263,11.268,11.273,11.28,11.284,11.29,11.301,11.308,11.312,11.32,11.322,11.331,11.335,11.354,11.369,11.378,11.379,11.386,11.408,11.415,11.423,11.436,11.451,11.464,11.47,11.476,11.488,11.494,11.5,11.509,11.507,11.501,11.5,11.491,11.471,11.444,11.423,11.395,11.371,11.353,11.329,11.304,11.286,11.272,11.257,11.24,11.229,11.229,11.224,11.222,11.218,11.213,11.206,11.205,11.212,11.206,11.204,11.211,11.214,11.212,11.201,11.204,11.204,11.208,11.218,11.216,11.216,11.211,11.21,11.221,11.217,11.212,11.218,11.223,11.226,11.232,11.23,11.225,11.226,11.233,11.236,11.235,11.234,11.239,11.239,11.234,11.232,11.236,11.24,11.242,11.247,11.239,11.234,11.24,11.239,11.241,11.242,11.237,11.237,11.24,11.242,11.243,11.24,11.242,11.248,11.252,11.25,11.246,11.247,11.248,11.244,11.244,11.25,11.251,11.254,11.258,11.254,11.249,11.254,11.26,11.268,11.271,11.268,11.265,11.266,11.273,11.298,11.295,11.287,11.308,11.339,11.365,11.357,11.334,11.323,11.316,11.314,11.301,11.283,11.266,11.264,11.272,11.267,11.268,11.27,11.266,11.27,11.268,11.266,11.267,11.267,11.269,11.266,11.269,11.267,11.228,11.187,11.186,11.201,11.323,11.597,11.984,12.094,12.021,11.558,11.311,10.959,10.961,11.001,11.008,11.104,11.079,11.171,11.215,11.316,11.291,11.327,11.292,11.325,11.298,11.332,11.314,11.345,11.319,11.349,11.334,11.362,11.349,11.371,11.356,11.381,11.37,11.392,11.382,11.404,11.4,11.422,11.424,11.432,11.434,11.453,11.464,11.478,11.473,11.478,11.484,11.508,11.507,11.52,11.526,11.543,11.55,11.566,11.57,11.579,11.591,11.598,11.608,11.603,11.604,11.603,11.607,11.587,11.571,11.539,11.519,11.49,11.471,11.436,11.42,11.395,11.384,11.362,11.352,11.33,11.326,11.317,11.316,11.301,11.3,11.3,11.298,11.287,11.3,11.294,11.294,11.285,11.292,11.284,11.293,11.279,11.295,11.289,11.301,11.289,11.297,11.297,11.307,11.298,11.301,11.296,11.304,11.297,11.309,11.305,11.31,11.307,11.317,11.31,11.313,11.303,11.308,11.304,11.309,11.302,11.299,11.299,11.302,11.299,11.297,11.296,11.297,11.295,11.296,11.292,11.295,11.291,11.292,11.292,11.293,11.29,11.289,11.287,11.293,11.288,11.285,11.285,11.293,11.293,11.306,11.305,11.301,11.302,11.317,11.322,11.317,11.317,11.344,11.387,11.395,11.367,11.344,11.339,11.331,11.327,11.313,11.3,11.283,11.285,11.282,11.281,11.272,11.277,11.277,11.276,11.277,11.271,11.267,11.276,11.27,11.272,11.265,11.254,11.205,11.161,11.167,11.198,11.252,11.455,11.835,12.086,11.991,11.533,11.098,10.969,10.989,10.986,11.024,11.076,11.107,11.173,11.255,11.298,11.287,11.293,11.287,11.292,11.285,11.294,11.3,11.307,11.304,11.316,11.311,11.324,11.326,11.334,11.335,11.347,11.349,11.361,11.355,11.361,11.372,11.386,11.386,11.393,11.393,11.404,11.413,11.427,11.427,11.439,11.451,11.464,11.475,11.487,11.489,11.504,11.517,11.532,11.535,11.542,11.549,11.569,11.569,11.574,11.567,11.565,11.563,11.544,11.515,11.491,11.464,11.443,11.422,11.391,11.373,11.355,11.335,11.327,11.312,11.299,11.292,11.293,11.29,11.287,11.288,11.274,11.275,11.277,11.278,11.276,11.277,11.281,11.284,11.283,11.279,11.278,11.275,11.287,11.283,11.287,11.286,11.284,11.29,11.29,11.283,11.283,11.289,11.289,11.289,11.285,11.284,11.29,11.296,11.295,11.296,11.296,11.298,11.298,11.297,11.299,11.302,11.295,11.301,11.299,11.301,11.296,11.295,11.293,11.297,11.287,11.29,11.287,11.287,11.291,11.285,11.28,11.283,11.287,11.286,11.284,11.284,11.283,11.284,11.282,11.283,11.28,11.278,11.277,11.278,11.278,11.275,11.27,11.277,11.278,11.278,11.293,11.297,11.292,11.305,11.309,11.306,11.292,11.308,11.352,11.385,11.361,11.342,11.322,11.315,11.312,11.307,11.291,11.277,11.266,11.259,11.251,11.25,11.253,11.254,11.252,11.252,11.25,11.243,11.25,11.251,11.248,11.243,11.237,11.204,11.146,11.129,11.15,11.244,11.458,11.814,12.044,11.936,11.545,11.302,11.035,11.001,11.003,10.998,11.076,11.093,11.187,11.248,11.282,11.259,11.27,11.262,11.271,11.259,11.272,11.268,11.284,11.276,11.288,11.282,11.297,11.29,11.303,11.291,11.308,11.307,11.318,11.316,11.324,11.327,11.336,11.337,11.35,11.345,11.362,11.369,11.38,11.382,11.39,11.4,11.417,11.428,11.437,11.446,11.459,11.476,11.487,11.494,11.507,11.517,11.53,11.541,11.54,11.538,11.534,11.533,11.518,11.509,11.48,11.449,11.427,11.404,11.379,11.349,11.324,11.307,11.291,11.281,11.263,11.252,11.245,11.242,11.235,11.234,11.23,11.233,11.227,11.228,11.223,11.225,11.22,11.231,11.225,11.224,11.22,11.229,11.229,11.229,11.226,11.229,11.226,11.229,11.222,11.221,11.221,11.227,11.223,11.232,11.234,11.229,11.226,11.233,11.239,11.233,11.238,11.238,11.241,11.242,11.239,11.24,11.235,11.24,11.241,11.243,11.24,11.241,11.243,11.244,11.239,11.238,11.239,11.239,11.238,11.239,11.235,11.233,11.238,11.241,11.239,11.239,11.238,11.241,11.246,11.241,11.238,11.236,11.24,11.245,11.238,11.233,11.233,11.238,11.242,11.238,11.236,11.236,11.234,11.237,11.24,11.241,11.239,11.239,11.241,11.246,11.241,11.241,11.241,11.242,11.242,11.241,11.238,11.24,11.24,11.247,11.242,11.254,11.255,11.257,11.263,11.268,11.267,11.259,11.274,11.29,11.329,11.348,11.323,11.304,11.292,11.276,11.275,11.271,11.26,11.246,11.234,11.223,11.226,11.228,11.233,11.231,11.229,11.223,11.23,11.228,11.232,11.227,11.226,11.225,11.217,11.178,11.121,11.112,11.14,11.243,11.48,11.826,12.008,11.848,11.442,11.07,11.007,11,10.99,11.025,11.065,11.103,11.174,11.255,11.259,11.251,11.246,11.244,11.249,11.252,11.257,11.26,11.263,11.269,11.273,11.279,11.282,11.279,11.286,11.285,11.296,11.301,11.302,11.307,11.315,11.32,11.327,11.326,11.332,11.341,11.352,11.36,11.367,11.372,11.387,11.394,11.399,11.408,11.429,11.441,11.453,11.463,11.48,11.491,11.5,11.515,11.522,11.529,11.53,11.537,11.533,11.529,11.516,11.498,11.475,11.463,11.442,11.411,11.384,11.362,11.34,11.321,11.302,11.286,11.272,11.262,11.259,11.248,11.243,11.241,11.237,11.239,11.235,11.233,11.233,11.235,11.236,11.236,11.236,11.232,11.234,11.235,11.237,11.236,11.236,11.237,11.24,11.239,11.235,11.235,11.235,11.239,11.241,11.241,11.242,11.244,11.247,11.255,11.248,11.251,11.248,11.254,11.257,11.252,11.249,11.253,11.257,11.256,11.256,11.254,11.256,11.257,11.256,11.249,11.25,11.251,11.252,11.251,11.256,11.247,11.249,11.248,11.255,11.25,11.247,11.249,11.247,11.253,11.248,11.245,11.247,11.25,11.251,11.254,11.247,11.248,11.25,11.26,11.255,11.253,11.249,11.253,11.26,11.254,11.255,11.255,11.258,11.261,11.26,11.262,11.255,11.259,11.261,11.265,11.26,11.259,11.262,11.264,11.269,11.262,11.262,11.259,11.263,11.27,11.259,11.26,11.259,11.262,11.268,11.263,11.26,11.272,11.277,11.28,11.278,11.283,11.297,11.296,11.293,11.302,11.343,11.374,11.365,11.348,11.331,11.311,11.307,11.31,11.297,11.284,11.262,11.259,11.258,11.263,11.264,11.259,11.261,11.263,11.267,11.268,11.267,11.268,11.269,11.276,11.27,11.247,11.187,11.158,11.174,11.236,11.299,11.535,11.894,12.058,11.887,11.462,11.109,11.059,11.069,11.06,11.126,11.123,11.191,11.265,11.311,11.308,11.298,11.306,11.307,11.314,11.312,11.314,11.318,11.323,11.332,11.337,11.338,11.338,11.348,11.362,11.361,11.36,11.368,11.37,11.379,11.385,11.387,11.392,11.403,11.411,11.414,11.424,11.437,11.446,11.455,11.464,11.472,11.474,11.491,11.507,11.512,11.524,11.534,11.546,11.559,11.567,11.577,11.581,11.588,11.6,11.601,11.598,11.593,11.584,11.567,11.543,11.516,11.49,11.46,11.439,11.425,11.396,11.375,11.357,11.345,11.332,11.313,11.305,11.304,11.298,11.296,11.288,11.283,11.279,11.28,11.282,11.282,11.277,11.274,11.279,11.28,11.274,11.269,11.272,11.274,11.275,11.271,11.273,11.264,11.266,11.275,11.268,11.269,11.264,11.267,11.269,11.275,11.276,11.273,11.274,11.284,11.277,11.27,11.277,11.279,11.284,11.284,11.282,11.275,11.269,11.277,11.284,11.28,11.28,11.268,11.278,11.275,11.267,11.265,11.26,11.266,11.268,11.264,11.268,11.271,11.273,11.274,11.272,11.266,11.275,11.272,11.273,11.269,11.268,11.267,11.272,11.276,11.277,11.275,11.267,11.269,11.276,11.272,11.268,11.278,11.275,11.275,11.276,11.274,11.27,11.274,11.275,11.276,11.276,11.274,11.277,11.28,11.279,11.278,11.277,11.284,11.291,11.293,11.286,11.288,11.304,11.311,11.311,11.31,11.341,11.375,11.377,11.367,11.343,11.324,11.318,11.32,11.312,11.297,11.277,11.283,11.28,11.284,11.282,11.273,11.276,11.276,11.287,11.284,11.275,11.279,11.282,11.283,11.283,11.262,11.208,11.187,11.202,11.257,11.425,11.765,12.095,12.071,11.878,11.42,11.023,10.989,11.03,11.049,11.097,11.129,11.144,11.233,11.297,11.329,11.327,11.333,11.335,11.339,11.341,11.348,11.354,11.359,11.364,11.366,11.368,11.372,11.378,11.384,11.394,11.4,11.409,11.418,11.428,11.43,11.43,11.44,11.445,11.463,11.469,11.475,11.488,11.497,11.501,11.506,11.519,11.525,11.539,11.552,11.563,11.569,11.585,11.596,11.608,11.615,11.624,11.625,11.635,11.643,11.646,11.634,11.623,11.62,11.61,11.581,11.548,11.522,11.498,11.476,11.455,11.432,11.407,11.398,11.385,11.376,11.36,11.353,11.347,11.35,11.34,11.334,11.335,11.334,11.329,11.331,11.323,11.324,11.328,11.331,11.322,11.323,11.324,11.331,11.336,11.336,11.334,11.333,11.335,11.336,11.342,11.338,11.337,11.337,11.343,11.347,11.348,11.347,11.349,11.355,11.358,11.359,11.349,11.35,11.355,11.356,11.358,11.351,11.354,11.352,11.359,11.349,11.352,11.35,11.351,11.349,11.356,11.349,11.35,11.35,11.347,11.354,11.352,11.345,11.354,11.354,11.353,11.35,11.348,11.357,11.356,11.358,11.353,11.352,11.351,11.355,11.355,11.351,11.349,11.347,11.356,11.353,11.355,11.352,11.348,11.352,11.355,11.351,11.349,11.349,11.364,11.372,11.37,11.368,11.381,11.385,11.379,11.381,11.408,11.444,11.447,11.426,11.401,11.383,11.381,11.382,11.378,11.354,11.344,11.336,11.331,11.338,11.334,11.335,11.33,11.333,11.336,11.332,11.333,11.333,11.334,11.334,11.334,11.311,11.25,11.222,11.236,11.286,11.344,11.575,11.955,12.153,12.004,11.563,11.154,11.079,11.087,11.087,11.14,11.156,11.204,11.281,11.354,11.368,11.346,11.356,11.354,11.357,11.359,11.358,11.36,11.364,11.369,11.378,11.375,11.378,11.386,11.393,11.396,11.402,11.398,11.405,11.419,11.422,11.425,11.433,11.434,11.449,11.453,11.457,11.465,11.474,11.487,11.499,11.506,11.516,11.527,11.546,11.558,11.562,11.577,11.589,11.6,11.614,11.619,11.628,11.637,11.643,11.646,11.639,11.627,11.618,11.6,11.58,11.55,11.517,11.492,11.476,11.451,11.424,11.408,11.391,11.385,11.369,11.363,11.358,11.348,11.346,11.348,11.339,11.335,11.334,11.334,11.33,11.328,11.322,11.327,11.328,11.331,11.324,11.325,11.324,11.329,11.332,11.333,11.331,11.333,11.333,11.339,11.339,11.335,11.331,11.335,11.34,11.34,11.342,11.339,11.341,11.351,11.346,11.347,11.345,11.348,11.347,11.347,11.345,11.341,11.34,11.343,11.341,11.341,11.335,11.339,11.339,11.334,11.336,11.332,11.331,11.334,11.336,11.329,11.328,11.327,11.331,11.329,11.331,11.325,11.328,11.334,11.335,11.333,11.332,11.33,11.331,11.335,11.332,11.326,11.329,11.331,11.339,11.33,11.333,11.332,11.329,11.336,11.333,11.333,11.331,11.331,11.334,11.333,11.328,11.326,11.331,11.331,11.331,11.331,11.327,11.326,11.331,11.335,11.331,11.328,11.332,11.327,11.331,11.345,11.342,11.34,11.346,11.359,11.351,11.348,11.365,11.409,11.435,11.415,11.389,11.375,11.366,11.367,11.364,11.355,11.335,11.32,11.313,11.31,11.306,11.308,11.307,11.314,11.31,11.303,11.305,11.309,11.31,11.304,11.305,11.289,11.239,11.197,11.193,11.206,11.28,11.463,11.804,12.078,12.034,11.681,11.25,11.091,11.088,11.071,11.113,11.138,11.194,11.268,11.333,11.334,11.328,11.329,11.322,11.328,11.324,11.331,11.338,11.346,11.343,11.353,11.352,11.355,11.366,11.365,11.366,11.375,11.381,11.39,11.391,11.395,11.396,11.404,11.411,11.419,11.422,11.428,11.438,11.451,11.456,11.463,11.478,11.487,11.498,11.509,11.52,11.532,11.545,11.559,11.565,11.577,11.582,11.589,11.605,11.609,11.608,11.605,11.605,11.596,11.581,11.558,11.53,11.503,11.47,11.45,11.427,11.397,11.383,11.365,11.348,11.343,11.325,11.315,11.311,11.308,11.3,11.289,11.289,11.287,11.288,11.284,11.28,11.282,11.286,11.284,11.278,11.277,11.277,11.281,11.287,11.283,11.281,11.28,11.285,11.282,11.278,11.277,11.281,11.278,11.285,11.282,11.284,11.281,11.287,11.289,11.289,11.287,11.286,11.286,11.292,11.29,11.283,11.282,11.285,11.29,11.29,11.286,11.284,11.287,11.285,11.285,11.28,11.276,11.278,11.279,11.28,11.273,11.275,11.274,11.279,11.277,11.275,11.272,11.273,11.276,11.275,11.275,11.271,11.273,11.274,11.274,11.277,11.273,11.272,11.273,11.274,11.272,11.271,11.269,11.274,11.276,11.271,11.276,11.271,11.273
