9.8679,9.8916,9.902,9.9055,9.9161,9.9229,9.9395,9.9532,9.9529,9.9582,9.9771,9.9955,10.016,10.024,10.038,10.056,10.086,10.111,10.122,10.138,10.16,10.192,10.213,10.225,10.229,10.244,10.265,10.288,10.295,10.293,10.291,10.29,10.291,10.278,10.251,10.225,10.202,10.179,10.146,10.111,10.082,10.062,10.048,10.04,10.01,9.9881,9.9781,9.9732,9.9643,9.951,9.9429,9.9416,9.9479,9.9497,9.9405,9.9298,9.9334,9.9418,9.9488,9.9384,9.9341,9.9407,9.9422,9.9526,9.9566,9.9536,9.9552,9.9657,9.9754,9.9762,9.976,9.9805,9.9891,10.003,9.9987,9.9974,9.9955,10.002,10.005,10.004,9.9954,9.9954,9.9968,10.005,10.013,10.006,9.9988,10.006,10.015,10.012,10.001,9.9998,10.003,10.004,10.006,9.9938,9.9856,9.9913,9.996,9.9976,9.9887,9.9872,9.9903,9.9903,9.9962,9.9905,9.9877,9.9872,9.9883,9.9992,9.9997,9.9934,9.9926,9.9966,10.007,10.006,10.007,10.009,10.013,10.023,10.024,10.014,10.018,10.026,10.037,10.042,10.036,10.038,10.049,10.054,10.057,10.046,10.045,10.05,10.056,10.053,10.043,10.042,10.043,10.048,10.049,10.042,10.037,10.036,10.043,10.046,10.035,10.03,10.035,10.04,10.051,10.047,10.053,10.064,10.085,10.104,10.092,10.087,10.106,10.115,10.125,10.135,10.153,10.149,10.146,10.157,10.146,10.127,10.123,10.12,10.115,10.085,10.056,10.053,10.059,10.072,10.068,10.06,10.059,10.057,10.066,10.069,10.055,10.056,10.051,10.057,10.052,10.032,10.016,10.077,10.229,10.446,10.628,10.795,10.784,10.518,10.383,10.248,10.098,9.8932,9.8837,9.9166,9.9424,10.025,10.063,10.116,10.119,10.13,10.113,10.122,10.117,10.137,10.127,10.137,10.14,10.156,10.161,10.172,10.166,10.175,10.18,10.197,10.197,10.195,10.194,10.199,10.209,10.214,10.204,10.211,10.22,10.237,10.249,10.253,10.255,10.281,10.293,10.32,10.331,10.344,10.364,10.384,10.405,10.41,10.42,10.43,10.444,10.456,10.456,10.449,10.447,10.444,10.436,10.411,10.38,10.348,10.335,10.313,10.28,10.239,10.211,10.186,10.174,10.146,10.117,10.099,10.091,10.086,10.076,10.06,10.053,10.058,10.06,10.057,10.05,10.045,10.052,10.056,10.055,10.041,10.042,10.044,10.053,10.049,10.047,10.038,10.043,10.049,10.054,10.048,10.044,10.045,10.058,10.062,10.061,10.056,10.055,10.06,10.067,10.06,10.05,10.046,10.051,10.054,10.055,10.046,10.046,10.055,10.061,10.063,10.055,10.055,10.06,10.061,10.063,10.055,10.049,10.047,10.051,10.053,10.045,10.037,10.04,10.043,10.045,10.032,10.021,10.021,10.029,10.03,10.02,10.016,10.019,10.021,10.03,10.026,10.019,10.016,10.027,10.034,10.034,10.022,10.017,10.019,10.029,10.025,10.01,10.012,10.022,10.025,10.022,10.02,10.015,10.024,10.031,10.032,10.018,10.014,10.02,10.03,10.033,10.027,10.023,10.023,10.031,10.039,10.029,10.022,10.026,10.034,10.034,10.03,10.03,10.031,10.034,10.038,10.035,10.033,10.027,10.044,10.053,10.056,10.052,10.068,10.075,10.076,10.08,10.09,10.097,10.121,10.147,10.142,10.118,10.115,10.113,10.102,10.092,10.072,10.052,10.032,10.013,10.002,9.9921,9.9906,9.9931,9.9951,9.9901,9.9806,9.9805,9.9838,9.9888,9.9946,9.9927,9.9817,9.9798,9.9681,9.9587,9.9893,10.115,10.326,10.529,10.717,10.764,10.478,10.323,10.212,9.9605,9.832,9.8389,9.8538,9.8692,9.9588,10.005,10.039,10.051,10.067,10.076,10.077,10.076,10.081,10.092,10.108,10.119,10.127,10.135,10.155,10.169,10.18,10.185,10.188,10.193,10.209,10.217,10.213,10.206,10.221,10.235,10.246,10.25,10.262,10.278,10.299,10.323,10.328,10.339,10.36,10.393,10.417,10.422,10.441,10.462,10.482,10.503,10.511,10.514,10.522,10.535,10.54,10.533,10.521,10.51,10.51,10.494,10.464,10.423,10.389,10.366,10.353,10.328,10.296,10.267,10.246,10.239,10.223,10.2,10.182,10.176,10.172,10.169,10.156,10.153,10.153,10.154,10.152,10.143,10.139,10.139,10.139,10.145,10.138,10.131,10.131,10.139,10.138,10.135,10.123,10.125,10.136,10.141,10.131,10.128,10.128,10.134,10.138,10.132,10.128,10.128,10.13,10.135,10.131,10.122,10.117,10.118,10.125,10.125,10.118,10.119,10.122,10.133,10.131,10.121,10.118,10.117,10.126,10.127,10.121,10.118,10.115,10.121,10.122,10.11,10.103,10.099,10.101,10.11,10.094,10.088,10.087,10.093,10.091,10.082,10.069,10.071,10.07,10.068,10.061,10.046,10.045,10.047,10.054,10.048,10.039,10.031,10.036,10.042,10.037,10.031,10.033,10.037,10.045,10.039,10.03,10.03,10.033,10.037,10.042,10.033,10.027,10.031,10.036,10.042,10.027,10.026,10.027,10.033,10.032,10.024,10.018,10.019,10.022,10.022,10.013,10.009,10.009,10.023,10.038,10.04,10.044,10.051,10.051,10.052,10.057,10.053,10.068,10.102,10.109,10.09,10.086,10.087,10.086,10.083,10.07,10.047,10.033,10.015,10.01,10.008,9.9998,9.9927,9.9881,9.9916,9.9869,9.9762,9.9745,9.9738,9.9806,9.9786,9.9582,9.9441,9.9308,9.9381,9.9983,10.055,10.241,10.449,10.641,10.746,10.514,10.332,10.19,9.9935,9.8125,9.8129,9.8153,9.823,9.9166,9.9534,9.9937,9.996,10.008,10.007,10.023,10.014,10.012,10.015,10.032,10.04,10.05,10.045,10.048,10.064,10.079,10.086,10.091,10.095,10.107,10.11,10.121,10.11,10.117,10.124,10.131,10.149,10.146,10.148,10.169,10.195,10.223,10.235,10.252,10.272,10.308,10.333,10.345,10.359,10.386,10.41,10.428,10.427,10.433,10.446,10.453,10.467,10.461,10.444,10.425,10.408,10.384,10.348,10.313,10.285,10.261,10.232,10.2,10.166,10.147,10.135,10.12,10.105,10.088,10.085,10.079,10.082,10.076,10.068,10.06,10.065,10.069,10.071,10.066,10.063,10.062,10.07,10.07,10.067,10.054,10.055,10.064,10.07,10.065,10.061,10.057,10.073,10.079,10.078,10.074,10.077,10.08,10.085,10.084,10.076,10.075,10.085,10.094,10.094,10.083,10.097,10.101,10.106,10.109,10.102,10.104,10.107,10.112,10.115,10.111,10.108,10.113,10.125,10.122,10.118,10.12,10.116,10.122,10.119,10.106,10.105,10.105,10.115,10.122,10.117,10.109,10.111,10.114,10.116,10.111,10.106,10.112,10.116,10.126,10.123,10.124,10.118,10.131,10.143,10.137,10.128,10.129,10.135,10.142,10.145,10.138,10.137,10.142,10.155,10.159,10.155,10.162,10.184,10.194,10.19,10.193,10.202,10.214,10.231,10.254,10.243,10.228,10.226,10.231,10.222,10.201,10.191,10.178,10.165,10.147,10.131,10.12,10.116,10.122,10.119,10.108,10.102,10.106,10.113,10.118,10.112,10.102,10.102,10.105,10.089,10.074,10.089,10.205,10.416,10.629,10.81,10.865,10.659,10.461,10.294,10.093,10.003,10.048,10.029,9.999,10.026,10.081,10.13,10.161,10.193,10.198,10.201,10.191,10.204,10.205,10.216,10.204,10.217,10.223,10.24,10.249,10.254,10.257,10.27,10.287,10.301,10.304,10.311,10.313,10.327,10.345,10.352,10.358,10.368,10.377,10.4,10.411,10.418,10.432,10.459,10.484,10.499,10.502,10.52,10.543,10.566,10.576,10.583,10.589,10.596,10.607,10.602,10.588,10.58,10.571,10.56,10.538,10.498,10.47,10.449,10.43,10.399,10.381,10.35,10.325,10.31,10.297,10.275,10.253,10.244,10.242,10.239,10.226,10.219,10.223,10.231,10.239,10.23,10.225,10.225,10.231,10.23,10.23,10.222,10.223,10.229,10.232,10.23,10.223,10.219,10.23,10.243,10.242,10.233,10.238,10.249,10.259,10.265,10.262,10.261,10.266,10.275,10.279,10.268,10.269,10.27,10.277,10.28,10.276,10.27,10.271,10.277,10.279,10.27,10.263,10.263,10.272,10.279,10.271,10.267,10.269,10.272,10.281,10.281,10.272,10.274,10.28,10.285,10.28,10.269,10.269,10.27,10.276,10.27,10.26,10.254,10.257,10.268,10.264,10.256,10.257,10.256,10.265,10.269,10.266,10.269,10.284,10.305,10.32,10.308,10.301,10.308,10.327,10.332,10.33,10.338,10.332,10.337,10.337,10.325,10.307,10.301,10.302,10.29,10.255,10.229,10.219,10.224,10.23,10.221,10.219,10.215,10.219,10.23,10.223,10.213,10.218,10.218,10.22,10.214,10.193,10.188,10.265,10.425,10.64,10.822,10.983,10.957,10.738,10.599,10.425,10.1,10.034,10.069,10.096,10.186,10.225,10.254,10.284,10.305,10.293,10.296,10.293,10.309,10.311,10.312,10.306,10.323,10.333,10.347,10.347,10.357,10.363,10.38,10.394,10.394,10.39,10.398,10.407,10.425,10.43,10.435,10.438,10.46,10.471,10.486,10.486,10.5,10.52,10.545,10.563,10.578,10.598,10.628,10.656,10.667,10.672,10.687,10.709,10.791,10.88,10.93,10.938,10.94,10.933,10.905,10.864,10.819,10.787,10.752,10.716,10.667,10.629,10.598,10.579,10.566,10.54,10.509,10.494,10.478,10.472,10.452,10.437,10.43,10.431,10.427,10.419,10.403,10.4,10.4,10.404,10.394,10.383,10.382,10.387,10.393,10.391,10.378,10.368,10.365,10.37,10.369,10.361,10.353,10.358,10.353,10.356,10.339,10.338,10.335,10.337,10.333,10.32,10.316,10.305,10.306,10.308,10.298,10.29,10.289,10.294,10.3,10.292,10.28,10.278,10.278,10.281,10.269,10.256,10.252,10.256,10.257,10.25,10.243,10.241,10.241,10.247,10.242,10.228,10.22,10.223,10.228,10.225,10.215,10.212,10.214,10.217,10.214,10.201,10.195,10.202,10.203,10.202,10.193,10.174,10.173,10.183,10.183,10.175,10.159,10.162,10.166,10.172,10.164,10.16,10.166,10.183,10.2,10.201,10.215,10.224,10.225,10.232,10.239,10.245,10.248,10.266,10.292,10.278,10.267,10.267,10.266,10.262,10.253,10.233,10.212,10.191,10.183,10.175,10.165,10.162,10.164,10.172,10.176,10.165,10.163,10.169,10.175,10.176,10.16,10.15,10.138,10.128,10.133,10.213,10.388,10.601,10.793,10.921,10.771,10.626,10.496,10.348,10.072,9.9325,9.962,9.9644,10.053,10.106,10.159,10.17,10.19,10.188,10.198,10.182,10.179,10.168,10.182,10.185,10.192,10.185,10.192,10.199,10.218,10.224,10.232,10.233,10.247,10.254,10.263,10.259,10.264,10.274,10.291,10.297,10.3,10.308,10.329,10.354,10.365,10.378,10.401,10.423,10.456,10.485,10.502,10.511,10.532,10.554,10.566,10.57,10.578,10.586,10.594,10.592,10.579,10.563,10.548,10.542,10.525,10.497,10.459,10.426,10.402,10.376,10.349,10.314,10.289,10.277,10.266,10.252,10.232,10.231,10.228,10.228,10.219,10.215,10.212,10.213,10.218,10.22,10.208,10.203,10.201,10.207,10.21,10.205,10.201,10.204,10.209,10.214,10.208,10.21,10.221,10.23,10.237,10.233,10.229,10.232,10.236,10.248,10.247,10.245,10.243,10.254,10.257,10.259,10.25,10.258,10.261,10.272,10.267,10.265,10.265,10.27,10.274,10.271,10.256,10.252,10.249,10.256,10.251,10.242,10.231,10.231,10.233,10.228,10.217,10.211,10.208,10.214,10.215,10.201,10.196,10.201,10.203,10.21,10.203,10.198,10.199,10.203,10.208,10.205,10.199,10.2,10.208,10.215,10.212,10.208,10.21,10.213,10.218,10.21,10.206,10.203,10.204,10.211,10.213,10.199,10.2,10.206,10.209,10.205,10.199,10.193,10.198,10.204,10.202,10.196,10.194,10.2,10.21,10.21,10.205,10.202,10.203,10.209,10.218,10.219,10.228,10.239,10.264,10.269,10.26,10.266,10.286,10.297,10.313,10.322,10.303,10.301,10.305,10.299,10.291,10.274,10.266,10.259,10.244,10.22,10.206,10.207,10.218,10.225,10.229,10.224,10.228,10.237,10.245,10.245,10.238,10.237,10.244,10.245,10.237,10.218,10.242,10.357,10.567,10.769,10.953,11.034,10.791,10.638,10.51,10.255,10.091,10.095,10.119,10.154,10.228,10.26,10.298,10.3,10.317,10.305,10.3,10.294,10.309,10.314,10.318,10.313,10.322,10.333,10.345,10.347,10.353,10.361,10.379,10.386,10.392,10.389,10.396,10.404,10.42,10.422,10.423,10.43,10.444,10.46,10.471,10.475,10.492,10.515,10.545,10.565,10.578,10.596,10.612,10.637,10.65,10.651,10.66,10.664,10.678,10.686,10.673,10.664,10.656,10.645,10.628,10.6,10.566,10.534,10.51,10.491,10.453,10.417,10.388,10.371,10.349,10.336,10.304,10.29,10.275,10.274,10.26,10.245,10.236,10.229,10.233,10.228,10.214,10.205,10.208,10.206,10.202,10.195,10.191,10.197,10.2,10.203,10.194,10.185,10.184,10.192,10.195,10.188,10.183,10.184,10.186,10.19,10.182,10.179,10.181,10.185,10.193,10.181,10.172,10.172,10.176,10.185,10.179,10.169,10.166,10.172,10.179,10.179,10.166,10.171,10.176,10.186,10.183,10.182,10.175,10.184,10.195,10.195,10.193,10.193,10.197,10.207,10.206,10.201,10.196,10.196,10.205,10.21,10.197,10.193,10.201,10.207,10.215,10.206,10.202,10.206,10.21,10.219,10.219,10.216,10.22,10.23,10.241,10.238,10.23,10.235,10.242,10.255,10.255,10.256,10.26,10.269,10.283,10.281,10.278,10.28,10.289,10.29,10.285,10.277,10.279,10.285,10.297,10.3,10.296,10.294,10.296,10.303,10.308,10.299,10.301,10.31,10.328,10.343,10.348,10.364,10.367,10.366,10.374,10.377,10.376,10.388,10.422,10.423,10.399,10.388,10.379,10.374,10.368,10.353,10.326,10.298,10.285,10.286,10.279,10.276,10.276,10.285,10.295,10.299,10.297,10.301,10.313,10.31,10.311,10.302,10.293,10.28,10.275,10.324,10.452,10.667,10.865,11.042,11.045,10.879,10.706,10.563,10.386,10.171,10.165,10.17,10.213,10.299,10.343,10.377,10.383,10.384,10.393,10.391,10.383,10.369,10.368,10.369,10.365,10.363,10.349,10.349,10.353,10.372,10.377,10.38,10.388,10.401,10.415,10.421,10.412,10.416,10.434,10.446,10.455,10.459,10.47,10.491,10.502,10.523,10.534,10.548,10.57,10.595,10.618,10.633,10.649,10.669,10.685,10.697,10.694,10.701,10.703,10.709,10.704,10.692,10.674,10.665,10.652,10.632,10.597,10.559,10.53,10.505,10.48,10.446,10.408,10.382,10.365,10.339,10.325,10.298,10.285,10.27,10.265,10.245,10.228,10.215,10.214,10.216,10.212,10.197,10.19,10.194,10.204,10.201,10.193,10.179,10.182,10.183,10.18,10.176,10.17,10.183,10.186,10.184,10.181,10.171,10.176,10.189,10.191,10.184,10.181,10.182,10.196,10.197,10.192,10.19,10.194,10.206,10.215,10.206,10.209,10.213,10.224,10.229,10.225,10.219,10.216,10.216,10.228,10.234,10.223,10.226,10.229,10.239,10.239,10.237,10.244,10.246,10.257,10.253,10.252,10.26,10.26,10.267,10.273,10.271,10.265,10.269,10.274,10.276,10.267,10.269,10.271,10.279,10.283,10.276,10.272,10.279,10.287,10.298,10.293,10.294,10.29,10.298,10.308,10.304,10.297,10.303,10.308,10.31,10.303,10.306,10.309,10.324,10.339,10.352,10.363,10.367,10.376,10.389,10.392,10.391,10.39,10.417,10.43,10.427,10.42,10.416,10.399,10.399,10.391,10.357,10.341,10.326,10.334,10.326,10.31,10.314,10.322,10.335,10.34,10.335,10.33,10.335,10.347,10.355,10.353,10.342,10.324,10.325,10.359,10.481,10.693,10.897,11.09,11.149,10.917,10.717,10.555,10.367,10.303,10.32,10.323,10.262,10.292,10.358,10.41,10.431,10.449,10.465,10.477,10.472,10.462,10.458,10.472,10.484,10.495,10.493,10.494,10.498,10.513,10.531,10.532,10.534,10.543,10.561,10.572,10.566,10.565,10.582,10.596,10.609,10.619,10.626,10.642,10.665,10.687,10.707,10.727,10.743,10.77,10.8,10.822,10.838,10.858,10.877,10.896,10.902,10.898,10.905,10.913,10.919,10.907,10.888,10.868,10.849,10.825,10.791,10.77,10.737,10.71,10.688,10.661,10.63,10.601,10.579,10.57,10.555,10.532,10.521,10.517,10.52,10.512,10.506,10.499,10.507,10.514,10.517,10.515,10.511,10.511,10.522,10.525,10.517,10.509,10.512,10.514,10.522,10.524,10.518,10.517,10.53,10.536,10.532,10.529,10.534,10.538,10.547,10.546,10.539,10.536,10.547,10.552,10.551,10.541,10.545,10.551,10.558,10.561,10.554,10.56,10.559,10.566,10.565,10.56,10.562,10.558,10.562,10.57,10.566,10.552,10.549,10.554,10.552,10.541,10.529,10.526,10.527,10.523,10.516,10.502,10.504,10.509,10.512,10.509,10.499,10.496,10.504,10.515,10.509,10.5,10.489,10.496,10.503,10.5,10.495,10.495,10.511,10.521,10.538,10.542,10.532,10.532,10.538,10.542,10.534,10.531,10.546,10.543,10.535,10.521,10.507,10.499,10.498,10.486,10.453,10.42,10.398,10.399,10.4,10.39,10.379,10.386,10.394,10.4,10.396,10.396,10.399,10.414,10.42,10.414,10.393,10.379,10.383,10.473,10.626,10.834,11.017,11.169,11.116,10.893,10.739,10.574,10.393,10.226,10.242,10.251,10.297,10.382,10.432,10.467,10.458,10.466,10.463,10.48,10.475,10.473,10.47,10.487,10.495,10.506,10.496,10.509,10.505,10.52,10.541,10.549,10.545,10.559,10.569,10.578,10.576,10.581,10.59,10.61,10.626,10.643,10.659,10.68,10.695,10.714,10.727,10.732,10.748,10.772,10.802,10.816,10.821,10.827,10.841,10.855,10.857,10.85,10.849,10.848,10.848,10.833,10.802,10.774,10.743,10.717,10.699,10.653,10.608,10.576,10.553,10.527,10.494,10.465,10.447,10.434,10.427,10.404,10.392,10.385,10.383,10.381,10.365,10.348,10.347,10.346,10.347,10.342,10.329,10.327,10.329,10.334,10.33,10.314,10.312,10.315,10.325,10.321,10.322,10.318,10.332,10.337,10.337,10.325,10.326,10.327,10.335,10.331,10.322,10.317,10.313,10.323,10.327,10.317,10.319,10.322,10.337,10.342,10.335,10.329,10.331,10.337,10.342,10.332,10.331,10.332,10.338,10.347,10.346,10.342,10.344,10.349,10.358,10.353,10.35,10.35,10.353,10.362,10.359,10.351,10.348,10.349,10.355,10.353,10.346,10.342,10.344,10.35,10.349,10.34,10.339,10.337,10.341,10.337,10.329,10.325,10.331,10.341,10.347,10.338,10.342,10.346,10.353,10.355,10.348,10.343,10.344,10.355,10.361,10.359,10.359,10.368,10.385,10.403,10.41,10.417,10.437,10.447,10.449,10.452,10.455,10.459,10.468,10.498,10.489,10.466,10.457,10.456,10.445,10.432,10.412,10.395,10.372,10.353,10.34,10.326,10.32,10.324,10.33,10.326,10.316,10.317,10.319,10.329,10.33,10.327,10.324,10.323,10.315,10.321,10.365,10.504,10.721,10.924,11.104,11.131,10.859,10.715,10.584,10.295,10.182,10.19,10.206,10.252,10.343,10.388,10.417,10.427,10.433,10.443,10.438,10.43,10.426,10.433,10.444,10.439,10.43,10.435,10.445,10.462,10.465,10.465,10.474,10.487,10.501,10.513,10.512,10.517,10.527,10.545,10.553,10.558,10.566,10.584,10.605,10.623,10.634,10.649,10.673,10.688,10.719,10.738,10.757,10.779,10.803,10.825,10.83,10.831,10.832,10.842,10.838,10.822,10.803,10.786,10.764,10.74,10.702,10.661,10.623,10.609,10.586,10.552,10.515,10.491,10.471,10.464,10.448,10.425,10.411,10.407,10.408,10.403,10.393,10.385,10.387,10.391,10.386,10.376,10.373,10.374,10.382,10.388,10.386,10.381,10.383,10.39,10.396,10.387,10.385,10.383,10.391,10.401,10.392,10.384,10.381,10.384,10.387,10.38,10.374,10.366,10.371,10.369,10.363,10.35,10.344,10.343,10.35,10.345,10.337,10.336,10.341,10.35,10.351,10.34,10.341,10.349,10.357,10.357,10.353,10.35,10.359,10.364,10.372,10.364,10.36,10.359,10.36,10.356,10.341,10.328,10.327,10.326,10.323,10.307,10.294,10.289,10.291,10.294,10.285,10.272,10.265,10.266,10.265,10.253,10.243,10.236,10.238,10.239,10.232,10.223,10.22,10.228,10.235,10.23,10.224,10.222,10.226,10.234,10.234,10.226,10.219,10.221,10.224,10.219,10.206,10.205,10.209,10.211,10.209,10.197,10.191,10.192,10.193,10.192,10.182,10.184,10.189,10.199,10.212,10.219,10.208,10.204,10.218,10.233,10.228,10.244,10.25,10.244,10.25,10.239,10.222,10.208,10.207,10.197,10.186,10.148,10.127,10.123,10.127,10.127,10.115,10.116,10.121,10.125,10.121,10.11,10.11,10.113,10.117,10.114,10.091,10.08,10.089,10.131,10.266,10.471,10.655,10.833,10.863,10.594,10.44,10.305,10.014,9.9116,9.9306,9.9351,9.989,10.059,10.113,10.142,10.139,10.144,10.138,10.151,10.159,10.168,10.164,10.173,10.178,10.192,10.193,10.198,10.201,10.221,10.233,10.243,10.239,10.247,10.26,10.272,10.275,10.27,10.268,10.281,10.294,10.31,10.313,10.324,10.343,10.365,10.385,10.401,10.422,10.445,10.48,10.504,10.513,10.529,10.545,10.566,10.574,10.574,10.573,10.568,10.573,10.569,10.559,10.531,10.5,10.467,10.435,10.398,10.355,10.325,10.3,10.278,10.249,10.219,10.203,10.199,10.198,10.187,10.172,10.167,10.167,10.174,10.172,10.161,10.158,10.159,10.163,10.158,10.147,10.142,10.146,10.151,10.152,10.143,10.138,10.142,10.145,10.15,10.144,10.139,10.139,10.143,10.148,10.143,10.141,10.141,10.146,10.146,10.14,10.133,10.133,10.137,10.145,10.14,10.136,10.135,10.147,10.153,10.159,10.156,10.155,10.163,10.173,10.168,10.157,10.151,10.154,10.157,10.15,10.132,10.13,10.133,10.136,10.126,10.119,10.105,10.099,10.096,10.093,10.082,10.068,10.064,10.063,10.059,10.047,10.039,10.038,10.046,10.044,10.031,10.025,10.022,10.029,10.03,10.027,10.024,10.025,10.033,10.044,10.038,10.035,10.032,10.038,10.046,10.044,10.035,10.031,10.034,10.035,10.029,10.02,10.012,10.017,10.019,10.018,10.01,10.004,10.006,10.012,10.011,10,9.9951,10,10.01,10.016,10.008,10.008,10.018,10.026,10.03,10.024,10.024,10.024,10.03,10.038,10.04,10.029,10.037,10.054,10.074,10.076,10.062,10.074,10.091,10.106,10.129,10.126,10.108,10.105,10.1,10.083,10.067,10.061,10.061,10.052,10.026,10.001,9.9953,9.9939,10.002,9.9977,9.9897,9.9881,9.9923,9.9976,9.9993,9.9905,9.9916,9.9944,10.001,9.9817,9.9674,9.9567,10.004,10.146,10.363,10.544,10.712,10.744,10.474,10.337,10.208,9.933,9.8398,9.873,9.8761,9.9016,9.9613,10.01,10.051,10.057,10.07,10.062,10.058,10.063,10.075,10.064,10.057,10.053,10.061,10.071,10.075,10.072,10.074,10.088,10.097,10.096,10.087,10.086,10.095,10.101,10.107,10.104,10.101,10.104,10.114,10.124,10.132,10.138,10.152,10.178,10.197,10.211,10.226,10.249,10.278,10.294,10.299,10.307,10.309,10.322,10.337,10.331,10.321,10.318,10.317,10.31,10.287,10.254,10.222,10.197,10.186,10.138,10.108,10.079,10.053,10.033,9.9971,9.9854,9.9686,9.9586,9.9479,9.9463,9.9221,9.9096,9.909,9.911,9.9101,9.9005,9.8953,9.8881,9.8938,9.895,9.881,9.8776,9.8791,9.8896,9.8857,9.8817,9.8722,9.8662,9.8771,9.8854,9.8787,9.8762,9.8672,9.8755,9.8804,9.8751,9.8678,9.869,9.8752,9.8736,9.86,9.8515,9.8506,9.8601,9.8604,9.8565,9.8481,9.8492,9.8528,9.86,9.8617,9.8474,9.843,9.8521,9.8483,9.849,9.8334,9.8292,9.8273,9.8321,9.834,9.8279,9.8229,9.825,9.8322,9.8351,9.8264,9.815,9.8229,9.8192,9.8268,9.8146,9.8067,9.8057,9.8134,9.8203,9.8154,9.8205,9.8359,9.846,9.8489,9.8388,9.8367,9.8366,9.8403,9.8458,9.8386,9.8284,9.8221,9.8264,9.8293,9.8236,9.8162,9.8203,9.8227,9.8299,9.8209,9.8103,9.8105,9.8067,9.8165,9.8097,9.8035,9.7991,9.8059,9.8208,9.828,9.8226,9.8354,9.8503,9.8524,9.8497,9.8482,9.8544,9.8673,9.9074,9.9008,9.8856,9.8794,9.8818,9.8813,9.8776,9.8668,9.8403,9.8199,9.8034,9.7991,9.7932,9.791,9.7938,9.7915,9.7975,9.7909,9.7869,9.786,9.7924,9.8,9.7891,9.7843,9.7738,9.7628,9.7574,9.7752,9.8714,10.066,10.271,10.475,10.552,10.352,10.151,9.9917,9.8032,9.6778,9.7064,9.6854,9.6624,9.7338,9.7765,9.8258,9.8333,9.8447,9.8589,9.8724,9.8601,9.8623,9.8636,9.8822,9.8865,9.884,9.8834,9.8957,9.9057,9.9283,9.9257,9.9323,9.9469,9.9662,9.9774,9.9795,9.9802,9.9903,10.004,10.018,10.026,10.031,10.044,10.067,10.089,10.109,10.121,10.146,10.17,10.194,10.21,10.223,10.243,10.268,10.29,10.298,10.298,10.303,10.313,10.321,10.324,10.309,10.296,10.285,10.273,10.253,10.218,10.186,10.164,10.143,10.121,10.089,10.071,10.053,10.045,10.042,10.028,10.008,10.002,10.009,10.013,10.01,10.005,10.001,10.008,10.015,10.015,10.006,10.012,10.017,10.03,10.034,10.035,10.038,10.042,10.05,10.054,10.044,10.046,10.054,10.066,10.068,10.063,10.065,10.076,10.088,10.096,10.085,10.085,10.093,10.106,10.102,10.097,10.096,10.093,10.099,10.104,10.091,10.089,10.085,10.094,10.092,10.082,10.077,10.077,10.081,10.082,10.076,10.067,10.069,10.074,10.079,10.067,10.062,10.059,10.061,10.067,10.062,10.051,10.044,10.045,10.049,10.045,10.035,10.035,10.041,10.044,10.041,10.034,10.027,10.028,10.032,10.033,10.024,10.016,10.015,10.019,10.02,10.011,10.005,10.002,10.008,10.011,9.9999,9.9952,9.9961,9.9996,10.002,9.9923,9.9879,9.9895,9.9935,9.9969,9.9909,9.9792,9.9751,9.9779,9.9865,9.9795,9.9802,9.989,10.009,10.013,10.001,9.9915,9.9946,10.002,10.016,10.024,10.009,9.992,9.9921,9.9929,9.9782,9.9595,9.9511,9.9373,9.9228,9.9022,9.8825,9.8754,9.8838,9.8925,9.8955,9.8924,9.8909,9.8924,9.8994,9.9016,9.8897,9.888,9.8856,9.8791,9.8669,9.8503,9.8837,10.014,10.229,10.433,10.61,10.658,10.403,10.28,10.153,9.8585,9.717,9.7324,9.7626,9.8302,9.8762,9.9102,9.9523,9.9679,9.9848,9.9792,9.978,9.9752,9.9886,9.9958,10.007,10.002,10.012,10.025,10.039,10.044,10.045,10.053,10.071,10.083,10.092,10.085,10.09,10.093,10.107,10.113,10.115,10.117,10.131,10.146,10.163,10.167,10.184,10.206,10.235,10.261,10.274,10.292,10.315,10.327,10.352,10.361,10.367,10.375,10.385,10.4,10.398,10.386,10.382,10.377,10.367,10.342,10.309,10.277,10.251,10.231,10.193,10.157,10.141,10.122,10.105,10.091,10.063,10.049,10.04,10.04,10.035,10.021,10.013,10.015,10.019,10.015,10.001,9.9967,9.9927,9.9987,9.9922,9.9801,9.9755,9.979,9.9857,9.9906,9.9879,9.9813,9.9806,9.9925,9.9957,9.9923,9.9834,9.9804,9.9827,9.9848,9.9819,9.9697,9.9679,9.9714,9.9734,9.9713,9.9588,9.9534,9.9574,9.9621,9.9602,9.9521,9.9509,9.9616,9.9698,9.972,9.9604,9.9643,9.9707,9.9754,9.9722,9.9628,9.9577,9.9601,9.9594,9.9652,9.9557,9.9462,9.9415,9.9466,9.9468,9.9341,9.9217,9.9218,9.9225,9.9228,9.9041,9.893,9.8876,9.8885,9.8915,9.8818,9.8738,9.8685,9.8706,9.8729,9.8705,9.8564,9.8499,9.8528,9.8561,9.8536,9.8418,9.837,9.8385,9.8427,9.839,9.8322,9.8297,9.8348,9.8402,9.8319,9.8224,9.8209,9.8226,9.8259,9.8295,9.8187,9.8167,9.8168,9.8259,9.8273,9.8182,9.8126,9.8149,9.8185,9.8226,9.8165,9.8059,9.8095,9.8163,9.8207,9.8185,9.8084,9.8149,9.8269,9.8457,9.8509,9.853,9.872,9.8732,9.8723,9.8765,9.8778,9.8759,9.8979,9.9133,9.8941,9.8798,9.8703,9.8651,9.8565,9.8513,9.8289,9.8109,9.7879,9.7699,9.7609,9.7492,9.7461,9.7487,9.7568,9.7572,9.747,9.7404,9.7409,9.7484,9.7491,9.7385,9.721,9.7071,9.7016,9.7093,9.7841,9.9429,10.158,10.354,10.501,10.406,10.167,10.039,9.8839,9.5991,9.5415,9.5586,9.5803,9.6737,9.7179,9.7582,9.7575,9.7658,9.7657,9.7765,9.7745,9.7649,9.7631,9.7761,9.785,9.795,9.7885,9.7966,9.8085,9.8264,9.8297,9.8322,9.8347,9.8528,9.8628,9.8679,9.8613,9.8626,9.8701,9.8842,9.892,9.8949,9.8983,9.9148,9.9327,9.9538,9.9665,9.9868,10.009,10.04,10.062,10.076,10.095,10.115,10.136,10.155,10.157,10.157,10.164,10.174,10.182,10.176,10.159,10.149,10.137,10.119,10.087,10.044,10.011,9.9799,9.9594,9.9282,9.9006,9.8711,9.8585,9.8525,9.842,9.8205,9.8082,9.8035,9.8052,9.7997,9.788,9.7825,9.7851,9.7887,9.7905,9.7778,9.7723,9.7695,9.7769,9.782,9.7772,9.7713,9.7759,9.7789,9.7843,9.7756,9.7712,9.7759,9.7895,9.7944,9.7904,9.7857,9.7847,9.7924,9.8003,9.801,9.7942,9.7949,9.7971,9.8011,9.7955,9.7887,9.7874,9.7876,9.796,9.792,9.7879,9.7857,9.7916,9.7941,9.7942,9.7832,9.7826,9.7856,9.7954,9.7941,9.7802,9.7752,9.7797,9.7879,9.7879,9.7825,9.7744,9.7713,9.7734,9.7705,9.7604,9.7455,9.7414,9.7457,9.7475,9.7379,9.726,9.7328,9.7359,9.7395,9.7383,9.7286,9.7283,9.7307,9.7357,9.7309,9.7215,9.7177,9.7189,9.7245,9.7237,9.7158,9.714,9.722,9.7316,9.728,9.7199,9.7163,9.7228,9.7261,9.7225,9.7159,9.7125,9.7185,9.723,9.7251,9.7206,9.7181,9.7151,9.7229,9.7275,9.7175,9.7169,9.7198,9.7287,9.7299,9.7229,9.7227,9.7272,9.7316,9.7357,9.7253,9.7241,9.7267,9.7365,9.7546,9.7568,9.7654,9.7569,9.7592,9.7715,9.7767,9.7776,9.8053,9.8174,9.8113,9.8043,9.7896,9.7861,9.7795,9.7852,9.7678,9.7464,9.7294,9.7153,9.7224,9.7227,9.7144,9.7125,9.7157,9.7258,9.7269,9.7166,9.7176,9.7198,9.7283,9.7289,9.7102,9.6931,9.6868,9.7252,9.8407,9.9348,10.144,10.335,10.48,10.411,10.17,10.037,9.8862,9.6159,9.5706,9.5908,9.5948,9.6865,9.7313,9.7898,9.7967,9.8065,9.8049,9.8253,9.8251,9.8362,9.831,9.8438,9.8488,9.8741,9.8797,9.8866,9.8947,9.9138,9.9294,9.9423,9.9385,9.9464,9.9547,9.973,9.9749,9.9731,9.9807,9.9903,10.006,10.024,10.031,10.045,10.067,10.1,10.127,10.146,10.166,10.195,10.226,10.253,10.265,10.281,10.3,10.318,10.332,10.336,10.333,10.332,10.338,10.34,10.331,10.314,10.298,10.279,10.261,10.228,10.19,10.158,10.137,10.115,10.092,10.062,10.042,10.031,10.028,10.012,10.005,9.9948,9.9906,9.9909,9.9922,9.9797,9.976,9.9749,9.9817,9.9795,9.9741,9.968,9.9747,9.9817,9.9918,9.9848,9.9857,9.9928,10.002,10.003,10.004,9.9969,10.001,10.011,10.02,10.01,10.008,10.008,10.018,10.028,10.029,10.02,10.021,10.028,10.039,10.033,10.026,10.025,10.037,10.046,10.049,10.046,10.046,10.054,10.063,10.068,10.061,10.056,10.062,10.068,10.069,10.054,10.058,10.06,10.064,10.056,10.043,10.041,10.031,10.041,10.043,10.038,10.029,10.027,10.033,10.035,10.021,10.01,10.007,10.013,10.01,10.002,9.9902,9.9866,9.9854,9.9901,9.9747,9.9741,9.9707,9.9716,9.9766,9.974,9.9631,9.961,9.9569,9.9615,9.9579,9.9481,9.9414,9.9468,9.9531,9.9474,9.9333,9.9259,9.9297,9.9373,9.9272,9.9182,9.912,9.9107,9.9132,9.9163,9.9074,9.8975,9.8993,9.905,9.903,9.8915,9.8845,9.8843,9.8903,9.8904,9.8742,9.8706,9.8784,9.8937,9.8965,9.9006,9.9112,9.9099,9.9074,9.9157,9.9257,9.9209,9.9539,9.9659,9.9601,9.9503,9.9406,9.9317,9.9252,9.9335,9.9163,9.8916,9.8629,9.8583,9.863,9.8669,9.8622,9.8611,9.8668,9.873,9.8795,9.8754,9.8754,9.8755,9.8862,9.8887,9.8729,9.8527,9.8502,9.9076,10.039,10.238,10.43,10.53,10.659,10.529,10.297,10.161,10.013,9.7747,9.7482,9.7724,9.7848,9.8802,9.9236,9.9753,9.9712,9.9857,9.9834,9.9974,10.002,10.003,9.9948,10.009,10.013,10.033,10.035,10.046,10.048,10.067,10.078,10.087,10.083,10.093,10.097,10.111,10.106,10.106,10.108,10.125,10.142,10.151,10.152,10.166,10.185,10.214,10.238,10.251,10.269,10.293,10.318,10.34,10.347,10.355,10.371,10.394,10.406,10.406,10.409,10.417,10.421,10.422,10.414,10.397,10.38,10.362,10.343,10.307,10.27,10.238,10.211,10.185,10.158,10.123,10.102,10.089,10.078,10.062,10.049,10.039,10.04,10.04,10.038,10.019,10.012,10.004,10.007,10.006,9.9941,9.9872,9.9895,9.9903,9.993,9.9855,9.9834,9.9889,9.9944,9.9957,9.9865,9.9836,9.9863,9.9937,9.9983,9.9914,9.9855,9.9872,9.9943,9.9993,9.9969,9.9875,9.9876,9.9844,9.9902,9.9774,9.9695,9.9676,9.9736,9.9793,9.9763,9.9734,9.9793,9.9814,9.9849,9.9773,9.9704,9.9645,9.9677,9.9736,9.9762,9.9591,9.9508,9.9548,9.9589,9.9528,9.9399,9.9316,9.9361,9.9399,9.9387,9.9229,9.9168,9.9148,9.9209,9.9218,9.9191,9.9169,9.9215,9.9332,9.9363,9.929,9.9234,9.9225,9.9317,9.9332,9.9305,9.9307,9.934,9.9412,9.9507,9.952,9.9496,9.95,9.9558,9.9595,9.9622,9.9595,9.9585,9.9688,9.9695,9.9669,9.9552,9.9505,9.9516,9.9519,9.947,9.9311,9.9209,9.9237,9.9228,9.9258,9.9091,9.9065,9.8998,9.9041,9.9098,9.8989,9.9032,9.9053,9.9201,9.9212,9.8963,9.886,9.8902,9.8962,9.9067,9.9184,9.9075,9.8901,9.8827,9.8766,9.8606,9.8327,9.8245,9.8199,9.796,9.7583,9.736,9.732,9.7299,9.7304,9.7229,9.7153,9.7051,9.7085,9.7074,9.7075,9.6911,9.6777,9.6709,9.6677,9.6451,9.6257,9.6612,9.8003,10.014,10.203,10.361,10.389,10.127,9.9783,9.8584,9.5997,9.4877,9.5285,9.5263,9.5347,9.5965,9.6309,9.6784,9.7027,9.7151,9.706,9.7015,9.704,9.7116,9.7169,9.7089,9.7122,9.7202,9.7347,9.7435,9.7458,9.7544,9.7603,9.7712,9.7864,9.7907,9.7911,9.7937,9.8041,9.8202,9.8278,9.8279,9.8253,9.8444,9.8652,9.8796,9.8875,9.9009,9.9308,9.9587,9.9733,9.9846,10,10.019,10.041,10.063,10.073,10.079,10.095,10.111,10.125,10.117,10.106,10.102,10.097,10.085,10.053,10.026,10.003,9.9772,9.9515,9.9155,9.892,9.8625,9.8407,9.8229,9.7971,9.775,9.7588,9.7596,9.7526,9.7436,9.7204,9.7181,9.7194,9.7191,9.716,9.7012,9.6956,9.6979,9.7014,9.7035,9.6908,9.6958,9.6987,9.7044,9.7035,9.6927,9.6919,9.7005,9.7095,9.7213,9.7106,9.7072,9.713,9.7196,9.7208,9.716,9.7141,9.7072,9.7142,9.7113,9.7034,9.6918,9.6877,9.6928,9.6959,9.6971,9.6835,9.6736,9.6815,9.6826,9.6726,9.6674,9.6607,9.6707,9.6718,9.6639,9.6575,9.6547,9.6567,9.659,9.6603,9.648,9.6436,9.646,9.6558,9.6542,9.644,9.6354,9.6368,9.6393,9.6378,9.6244,9.6231,9.6249,9.6327,9.6261,9.6136,9.6105,9.6127,9.6153,9.6195,9.6059,9.6041,9.6037,9.6071,9.6101,9.6015,9.6024,9.6033,9.6071,9.6112,9.6003,9.5979,9.6038,9.6136,9.6206,9.6199,9.6199,9.6289,9.6475,9.6557,9.6416,9.6321,9.6325,9.6391,9.6513,9.671,9.6528,9.639,9.6447,9.6409,9.6298,9.6076,9.598,9.5764,9.573,9.546,9.5214,9.5114,9.5135,9.5206,9.5211,9.508,9.5011,9.5041,9.5127,9.5138,9.5037,9.4927,9.4946,9.4752,9.457,9.4451,9.5134,9.6912,9.8087,10.008,10.186,10.226,10.012,9.8202,9.6838,9.4559,9.3604,9.3909,9.3685,9.3573,9.4309,9.4649,9.5149,9.5307,9.5553,9.5501,9.5495,9.5453,9.5574,9.5621,9.5658,9.5582,9.565,9.5759,9.5864,9.5913,9.5967,9.5992,9.6153,9.6268,9.6372,9.6366,9.6457,9.655,9.6703,9.6753,9.676,9.6788,9.69,9.7088,9.7291,9.7393,9.7535,9.7781,9.8131,9.8435,9.8576,9.8793,9.8974,9.925,9.9489,9.9602,9.9684,9.9778,9.9912,10.001,9.9985,9.9842,9.9718,9.968,9.9516,9.9241,9.8896,9.8545,9.8247,9.8032,9.7677,9.7321,9.7053,9.6868,9.673,9.6524,9.6295,9.6134,9.6116,9.6133,9.6055,9.593,9.5836,9.585,9.5854,9.5848,9.5737,9.5683,9.5684,9.577,9.5766,9.5714,9.5649,9.5748,9.5797,9.5829,9.5753,9.5767,9.575,9.5846,9.5944,9.5951,9.5868,9.5879,9.5918,9.609,9.6077,9.6078,9.6065,9.6158,9.6189,9.615,9.6045,9.6106,9.6173,9.6228,9.6177,9.6139,9.6112,9.6175,9.618,9.6151,9.6079,9.608,9.6146,9.618,9.6183,9.6097,9.6108,9.6191,9.6246,9.6281,9.6173,9.6192,9.6257,9.6333,9.6385,9.6372,9.6301,9.6301,9.6373,9.6425,9.6357,9.6277,9.6319,9.6386,9.6511,9.6451,9.6461,9.6483,9.6581,9.6588,9.6565,9.6488,9.6519,9.6618,9.6682,9.6658,9.6496,9.6489,9.6574,9.662,9.6663,9.6559,9.6594,9.6635,9.6744,9.6771,9.6785,9.686,9.6946,9.7285,9.7239,9.7075,9.7198,9.7212,9.7258,9.7371,9.7488,9.7356,9.7282,9.7317,9.7276,9.7062,9.6969,9.6842,9.6729,9.6468,9.6191,9.6058,9.6072,9.6142,9.618,9.6124,9.611,9.6122,9.6134,9.6209,9.6199,9.6125,9.6135,9.6133,9.6058,9.5884,9.6023,9.709,9.9045,10.111,10.299,10.392,10.194,10.029,9.9016,9.6638,9.5071,9.4241,9.4501,9.4813,9.5584,9.6031,9.6465,9.6748,9.6878,9.6948,9.6876,9.6859,9.6941,9.7133,9.7188,9.7164,9.7188,9.7316,9.7392,9.7537,9.7507,9.7526,9.7598,9.7754,9.7822,9.7833,9.7813,9.7888,9.7996,9.8138,9.8152,9.8237,9.8332,9.8555,9.8722,9.8822,9.8914,9.9148,9.9452,9.9633,9.988,10.007,10.026,10.053,10.078,10.097,10.102,10.114,10.126,10.139,10.138,10.132,10.124,10.117,10.106,10.084,10.047,10.017,10.001,9.9791,9.9506,9.9171,9.8809,9.8509,9.8355,9.8245,9.8053,9.7889,9.7806,9.7781,9.7754,9.7654,9.7586,9.7545,9.762,9.7635,9.7548,9.7491,9.7477,9.7506,9.758,9.7533,9.7452,9.7498,9.753,9.7625,9.7623,9.7516,9.7502,9.7552,9.7598,9.7631,9.7576,9.7612,9.7668,9.7731,9.7725,9.7673,9.7657,9.7712,9.7775,9.78,9.7702,9.7697,9.7729,9.7812,9.7831,9.7722,9.7724,9.778,9.7815,9.7835,9.776,9.7723,9.7775,9.7861,9.7885,9.779,9.7722,9.7702,9.7751,9.7805,9.7718,9.7674,9.768,9.771,9.7752,9.7647,9.7581,9.7528,9.7608,9.7625,9.758,9.7542,9.7581,9.7641,9.7684,9.7686,9.7595,9.7598,9.7664,9.7767,9.7784,9.7684,9.7634,9.768,9.7786,9.78,9.7728,9.77,9.7779,9.7847,9.7884,9.7784,9.7786,9.7804,9.7919,9.8021,9.7959,9.7905,9.7916,9.7975,9.8023,9.7991,9.7945,9.7981,9.8096,9.8174,9.8104,9.8065,9.8097,9.8213,9.8307,9.8326,9.8372,9.8409,9.8643,9.8698,9.8671,9.8669,9.8815,9.893,9.9142,9.9297,9.9115,9.9058,9.9052,9.9068,9.8938,9.88,9.8661,9.8513,9.8512,9.819,9.8166,9.8096,9.8076,9.8137,9.8155,9.8114,9.8061,9.812,9.8138,9.8218,9.8114,9.8043,9.796,9.7865,9.7738,9.7884,9.8908,10.092,10.305,10.409,10.56,10.538,10.258,10.128,9.9977,9.698,9.6035,9.6295,9.643,9.7298,9.7738,9.8155,9.8264,9.8352,9.8329,9.8265,9.8107,9.8087,9.8085,9.8168,9.8126,9.8128,9.81,9.8186,9.8264,9.8376,9.8316,9.8356,9.8466,9.8605,9.8609,9.8606,9.8587,9.8668,9.8764,9.8845,9.8791,9.8826,9.887,9.9015,9.9189,9.9262,9.9346,9.9527,9.9813,10.01,10.027,10.044,10.064,10.088,10.114,10.122,10.129,10.141,10.156,10.16,10.154,10.147,10.134,10.129,10.119,10.092,10.054,10.017,9.9851,9.9574,9.9282,9.8871,9.8561,9.8341,9.8273,9.8082,9.7876,9.7723,9.7653,9.7585,9.7554,9.7402,9.7279,9.7234,9.7264,9.7195,9.7139,9.7045,9.6988,9.7009,9.7045,9.691,9.6775,9.6754,9.6789,9.6769,9.6677,9.662,9.6652,9.671,9.6771,9.6739,9.6644,9.6619,9.6708,9.6769,9.6762,9.6651,9.6654,9.6636,9.6677,9.6605,9.6524,9.6452,9.6499,9.6569,9.6514,9.6425,9.6453,9.6435,9.6559,9.6531,9.6417,9.6348,9.6366,9.6368,9.6335,9.6255,9.6204,9.6252,9.6289,9.631,9.6195,9.6131,9.6148,9.6185,9.6206,9.6075,9.6012,9.5901,9.5881,9.584,9.5696,9.5555,9.5513,9.5533,9.5553,9.5508,9.536,9.5364,9.5398,9.5408,9.531,9.5183,9.5171,9.5192,9.5234,9.5206,9.5095,9.5058,9.5065,9.5103,9.5111,9.4982,9.4917,9.4909,9.4947,9.4953,9.4781,9.4754,9.4727,9.477,9.4719,9.4599,9.4487,9.451,9.4477,9.4467,9.4384,9.429,9.4239,9.4287,9.4256,9.4155,9.4113,9.4131,9.4188,9.4221,9.4166,9.4218,9.4298,9.445,9.4619,9.4538,9.4377,9.4396,9.4486,9.4636,9.4672,9.4837,9.4813,9.4719,9.4762,9.4649,9.4444,9.4287,9.4283,9.4144,9.3872,9.3505,9.3392,9.3434,9.3499,9.3368,9.3274,9.324,9.3226,9.3274,9.331,9.3167,9.3076,9.3005,9.3018,9.295,9.2611,9.2472,9.2829,9.411,9.6204,9.8044,9.973,10.025,9.7613,9.612,9.4837,9.3732,9.1267,9.0857,9.1178,9.1146,9.2038,9.2304,9.2963,9.2967,9.3031,9.2905,9.2997,9.2949,9.3161,9.3043,9.311,9.3053,9.3211,9.3224,9.3348,9.3285,9.3394,9.3441,9.3666,9.3689,9.3693,9.3676,9.3835,9.3935,9.4053,9.396,9.4015,9.4161,9.4374,9.4481,9.4607,9.4759,9.504,9.5166,9.5436,9.5562,9.5709,9.5962,9.6247,9.645,9.6549,9.6679,9.683,9.6983
