5.1443,5.22,5.2413,5.2391,5.2233,5.2211,5.2199,5.2129,5.2056,5.2045,5.2114,5.2159,5.2212,5.2174,5.218,5.2246,5.2351,5.2475,5.2431,5.2468,5.2515,5.262,5.2651,5.2695,5.2809,5.2845,5.2967,5.3008,5.3021,5.306,5.3173,5.3275,5.3409,5.3433,5.349,5.3615,5.3716,5.3875,5.3916,5.3988,5.4121,5.4326,5.449,5.4567,5.471,5.4823,5.5006,5.5051,5.5271,5.5374,5.5538,5.5653,5.5849,5.5936,5.601,5.5969,5.5911,5.5821,5.5568,5.5228,5.4903,5.4631,5.4292,5.3966,5.3592,5.3392,5.3282,5.3094,5.2917,5.2758,5.2598,5.2493,5.2451,5.2456,5.2358,5.2344,5.2359,5.2308,5.2288,5.2292,5.2214,5.2258,5.2335,5.2372,5.234,5.232,5.233,5.2311,5.2387,5.2395,5.2358,5.2327,5.2425,5.2463,5.2452,5.241,5.2416,5.2531,5.2618,5.2556,5.2515,5.2544,5.254,5.2615,5.2603,5.2562,5.2554,5.253,5.2585,5.2556,5.2512,5.2455,5.2467,5.2486,5.2496,5.2468,5.239,5.2394,5.2368,5.2417,5.2314,5.2338,5.2388,5.2403,5.236,5.2338,5.2288,5.2242,5.2278,5.2345,5.2308,5.2305,5.2316,5.235,5.2361,5.2253,5.2227,5.2318,5.229,5.2328,5.2291,5.227,5.2325,5.2446,5.2556,5.2663,5.255,5.2662,5.2749,5.2837,5.2856,5.2901,5.3023,5.3268,5.3379,5.3244,5.3085,5.2882,5.2911,5.2547,5.2366,5.2303,5.2231,5.2238,5.2273,5.222,5.2238,5.2185,5.2225,5.2284,5.2343,5.2318,5.2211,5.2055,5.2217,5.3004,5.4891,5.7989,6.1481,6.3388,6.356,6.3409,6.262,5.7977,5.3002,5.1366,5.1969,5.253,5.2977,5.3271,5.321,5.3137,5.2973,5.3046,5.2962,5.316,5.3012,5.3041,5.3053,5.3182,5.3161,5.3302,5.3198,5.3305,5.3313,5.3432,5.3472,5.3494,5.3519,5.3649,5.3684,5.3783,5.3708,5.386,5.3963,5.4039,5.4113,5.4162,5.417,5.4287,5.4439,5.4577,5.4635,5.4677,5.4776,5.4987,5.5137,5.5252,5.5315,5.5477,5.5709,5.5862,5.5933,5.6068,5.62,5.6374,5.6572,5.6598,5.6673,5.6786,5.6909,5.6932,5.6793,5.6552,5.6355,5.6089,5.585,5.5454,5.512,5.4716,5.453,5.4251,5.4034,5.3838,5.369,5.3592,5.3566,5.3472,5.3347,5.3292,5.3313,5.3349,5.332,5.3231,5.3207,5.32,5.3299,5.3288,5.3216,5.3194,5.3204,5.3198,5.3227,5.3218,5.3284,5.3298,5.3302,5.3322,5.3303,5.3272,5.3294,5.3389,5.3436,5.3447,5.34,5.3376,5.3457,5.3467,5.3462,5.3391,5.3415,5.3463,5.347,5.3463,5.3443,5.3446,5.3403,5.3393,5.3493,5.3367,5.3337,5.3315,5.3369,5.3327,5.3253,5.3269,5.326,5.3287,5.3238,5.3213,5.3163,5.3163,5.3201,5.3198,5.3156,5.3153,5.3187,5.3175,5.3217,5.3307,5.3408,5.3527,5.3518,5.3544,5.3602,5.3656,5.3726,5.3674,5.3868,5.4051,5.4112,5.4031,5.3966,5.3836,5.3707,5.3422,5.3107,5.3038,5.3022,5.3071,5.2949,5.3013,5.3058,5.3016,5.302,5.2992,5.3009,5.3073,5.3062,5.2877,5.2794,5.3124,5.4294,5.6705,6.0186,6.3204,6.4169,6.4234,6.3691,5.9685,5.4434,5.2182,5.2738,5.3418,5.3945,5.4034,5.3933,5.3904,5.3815,5.3835,5.3759,5.3708,5.3702,5.3793,5.3842,5.3889,5.38,5.3901,5.3984,5.4039,5.4022,5.4104,5.4146,5.422,5.4289,5.43,5.4329,5.446,5.4476,5.4564,5.4611,5.4618,5.4707,5.487,5.4955,5.5066,5.5093,5.5181,5.5253,5.5429,5.5552,5.5639,5.5768,5.5943,5.6115,5.6216,5.6349,5.6461,5.6599,5.6828,5.6958,5.7121,5.7259,5.7392,5.7501,5.7674,5.7669,5.7605,5.7515,5.7327,5.7072,5.6686,5.6326,5.599,5.5705,5.532,5.5129,5.4907,5.4624,5.4481,5.4349,5.4189,5.4014,5.3994,5.3954,5.3947,5.3861,5.3797,5.3866,5.3845,5.3831,5.3826,5.3828,5.385,5.3871,5.3876,5.3862,5.3834,5.3813,5.3829,5.3889,5.3885,5.3844,5.3853,5.3918,5.3958,5.3975,5.3892,5.3919,5.3981,5.4006,5.4031,5.4002,5.4048,5.4032,5.4054,5.4032,5.4031,5.4006,5.3996,5.4044,5.4069,5.4073,5.4035,5.3977,5.4008,5.4019,5.3967,5.3919,5.3915,5.3956,5.3953,5.3902,5.3886,5.3858,5.3848,5.3893,5.3889,5.3831,5.3827,5.3867,5.3866,5.3803,5.3767,5.3803,5.3814,5.3863,5.3757,5.3736,5.3754,5.3828,5.3865,5.3842,5.3905,5.4014,5.4146,5.4165,5.4184,5.4239,5.4242,5.4351,5.4371,5.4493,5.4664,5.4802,5.4758,5.4615,5.4499,5.4292,5.4006,5.3845,5.3805,5.3797,5.3747,5.374,5.3743,5.37,5.3782,5.3804,5.3722,5.3759,5.3785,5.3763,5.3572,5.3569,5.4272,5.6082,5.8919,6.2549,6.4389,6.4589,6.4858,6.4152,6.03,5.5449,5.3167,5.3456,5.4451,5.4805,5.4868,5.4654,5.464,5.4492,5.4521,5.4404,5.4395,5.449,5.459,5.4568,5.457,5.4669,5.4664,5.4782,5.479,5.4782,5.4839,5.4844,5.5066,5.5023,5.507,5.5118,5.5212,5.5275,5.5343,5.5481,5.5491,5.5548,5.5672,5.5741,5.5938,5.6126,5.6177,5.6329,5.6534,5.6548,5.6814,5.7134,5.7279,5.7318,5.758,5.7529,5.7578,5.7656,5.7676,5.8032,5.8407,5.8441,5.8447,5.8698,5.856,5.8444,5.8481,5.8706,5.8411,5.8221,5.8161,5.7779,5.7073,5.6771,5.6627,5.6339,5.5971,5.597,5.6035,5.5662,5.5052,5.4837,5.5006,5.5465,5.5606,5.5125,5.4566,5.4276,5.4405,5.4757,5.4934,5.4927,5.5041,5.5253,5.5221,5.5366,5.5181,5.4972,5.4936,5.4924,5.4501,5.4086,5.4553,5.5027,5.5144,5.4677,5.4642,5.4544,5.4582,5.4936,5.5052,5.5267,5.5717,5.5401,5.4943,5.5,5.5146,5.5237,5.4852,5.4768,5.4616,5.4616,5.4639,5.4693,5.4926,5.4795,5.4679,5.482,5.5128,5.5358,5.4928,5.4717,5.4907,5.527,5.4689,5.4116,5.4101,5.4648,5.5025,5.5334,5.5027,5.3917,5.4207,5.467,5.4326,5.4063,5.4702,5.4234,5.3943,5.4254,5.4503,5.4571,5.4544,5.4419,5.4834,5.5663,5.5474,5.527,5.5037,5.5442,5.5735,5.5164,5.4571,5.4604,5.5321,5.5364,5.4191,5.3438,5.381,5.4539,5.4635,5.4003,5.4215,5.4875,5.5092,5.4021,5.363,5.3539,5.3833,5.3862,5.4064,5.5648,5.7846,6.0868,6.3771,6.5167,6.5989,6.5664,6.1358,5.6003,5.3307,5.3449,5.4846,5.5671,5.5343,5.5032,5.48,5.5078,5.5562,5.5487,5.4756,5.4841,5.5301,5.5132,5.4673,5.4703,5.4667,5.4904,5.5332,5.5814,5.5804,5.5079,5.5185,5.5875,5.6181,5.5745,5.4995,5.4965,5.5701,5.5843,5.5925,5.5749,5.5761,5.5656,5.5679,5.6102,5.6526,5.6512,5.662,5.6674,5.6878,5.7488,5.7426,5.6954,5.6828,5.7103,5.7262,5.7372,5.7756,5.8028,5.826,5.8549,5.9233,5.8801,5.7809,5.8307,5.8916,5.8878,5.8513,5.8036,5.7665,5.7394,5.7396,5.7057,5.6551,5.6597,5.6449,5.6598,5.6383,5.5507,5.5027,5.5259,5.5269,5.5121,5.5278,5.5188,5.5151,5.5306,5.5121,5.5054,5.508,5.5273,5.5576,5.5407,5.5076,5.4992,5.5192,5.5456,5.5509,5.521,5.5349,5.5448,5.5452,5.5326,5.5353,5.5337,5.5435,5.5435,5.5544,5.5552,5.5611,5.5113,5.5324,5.534,5.5644,5.5709,5.5401,5.5179,5.5004,5.5124,5.5366,5.5604,5.5555,5.5569,5.549,5.5289,5.5171,5.5489,5.5587,5.5644,5.5572,5.5664,5.5648,5.5264,5.4942,5.5224,5.5411,5.5263,5.4992,5.5377,5.5273,5.5312,5.5328,5.5648,5.5817,5.5844,5.6124,5.6291,5.6209,5.5911,5.596,5.6167,5.6279,5.6385,5.6349,5.6316,5.5984,5.5913,5.5675,5.535,5.5074,5.5278,5.5367,5.5386,5.5675,5.5619,5.5401,5.5138,5.5128,5.5447,5.5361,5.5812,5.5247,5.4988,5.5463,5.6604,5.9004,6.2473,6.5975,6.7172,6.701,6.6275,6.2126,5.6979,5.4514,5.4707,5.537,5.5851,5.6341,5.6189,5.634,5.6527,5.6599,5.6378,5.6012,5.6013,5.6192,5.6248,5.6354,5.6365,5.6477,5.6491,5.6525,5.6302,5.6285,5.6714,5.6845,5.662,5.6612,5.6848,5.7318,5.7365,5.6874,5.694,5.7219,5.7368,5.7161,5.7175,5.708,5.7343,5.7727,5.7735,5.7981,5.8081,5.8681,5.8928,5.8286,5.7751,5.8041,5.8595,5.8727,5.8871,5.9035,5.9244,5.9617,5.9652,5.9846,5.9527,5.9696,5.9752,5.9937,5.989,5.9649,5.9374,5.923,5.9211,5.8617,5.7941,5.7427,5.721,5.7282,5.7128,5.6956,5.6793,5.6679,5.652,5.615,5.5972,5.6064,5.6127,5.6272,5.6234,5.6447,5.6333,5.6324,5.6201,5.587,5.567,5.603,5.6083,5.6093,5.6069,5.6412,5.6451,5.622,5.6145,5.6103,5.6125,5.6361,5.6227,5.63,5.6368,5.6482,5.5905,5.5753,5.6125,5.6494,5.6768,5.6237,5.6033,5.6244,5.6554,5.6276,5.607,5.5958,5.6217,5.6254,5.6107,5.5949,5.6034,5.6188,5.6194,5.6197,5.6531,5.6651,5.6312,5.6178,5.6078,5.6084,5.6123,5.5867,5.5706,5.6536,5.6612,5.6281,5.6226,5.6261,5.659,5.6467,5.6466,5.6363,5.6548,5.6608,5.6753,5.7136,5.7172,5.6662,5.66,5.6171,5.5671,5.5816,5.6254,5.5805,5.5509,5.5743,5.5837,5.5716,5.5674,5.557,5.5589,5.5674,5.5801,5.5826,5.5735,5.5781,5.6477,5.8768,6.2264,6.5677,6.6887,6.7307,6.732,6.4059,5.8108,5.4884,5.5386,5.5524,5.6265,5.6607,5.6808,5.6712,5.65,5.6633,5.6682,5.6337,5.6176,5.6405,5.6425,5.6669,5.6824,5.6487,5.6439,5.6642,5.6773,5.7103,5.7145,5.695,5.664,5.6777,5.6991,5.7048,5.7118,5.7049,5.7151,5.7546,5.7589,5.7376,5.7289,5.7631,5.7785,5.7779,5.8054,5.8307,5.8082,5.7981,5.8298,5.8394,5.8486,5.871,5.904,5.8933,5.9054,5.9466,5.9606,6.0023,6.0322,6.0304,5.9972,6.0045,6.0094,6.0036,5.9911,5.9761,5.97,5.9592,5.9323,5.8949,5.8431,5.7946,5.7881,5.7528,5.7139,5.697,5.693,5.6933,5.6912,5.6624,5.6857,5.6786,5.6687,5.6768,5.6939,5.6832,5.6284,5.6107,5.6247,5.6166,5.6349,5.6642,5.6944,5.6998,5.6298,5.6149,5.6372,5.6411,5.6544,5.6984,5.7095,5.6581,5.6254,5.6398,5.646,5.6616,5.6884,5.6854,5.6765,5.6489,5.6657,5.6679,5.664,5.6648,5.6613,5.6787,5.7048,5.7096,5.6741,5.6585,5.6555,5.6359,5.6165,5.6326,5.6444,5.6535,5.6569,5.642,5.6422,5.6835,5.6928,5.6873,5.6436,5.6628,5.6636,5.6317,5.5893,5.5946,5.6264,5.6361,5.6408,5.6394,5.6447,5.6683,5.6814,5.6749,5.6625,5.6915,5.7213,5.7361,5.6952,5.6973,5.7188,5.7828,5.763,5.686,5.6538,5.6619,5.658,5.6283,5.6161,5.6031,5.62,5.6236,5.614,5.6173,5.6507,5.6438,5.6051,5.5937,5.6237,5.6285,5.6167,5.5932,5.6516,5.8307,6.1208,6.53,6.7382,6.7885,6.7982,6.6831,6.2948,5.8326,5.5885,5.5785,5.7115,5.7497,5.7185,5.6944,5.7004,5.671,5.6598,5.6748,5.6991,5.7219,5.723,5.7182,5.7163,5.7021,5.6915,5.6718,5.7012,5.7255,5.7605,5.7438,5.7192,5.7485,5.7589,5.7516,5.734,5.7489,5.7442,5.7572,5.7779,5.7881,5.8036,5.8134,5.8269,5.8278,5.8509,5.87,5.8711,5.8705,5.8751,5.8579,5.8858,5.9279,5.9485,5.9247,5.945,6.0015,6.021,6.0098,6.0267,6.041,6.0762,6.0845,6.0594,6.0771,6.0692,6.065,6.0351,6.0167,5.9929,5.9566,5.9209,5.8906,5.8594,5.8077,5.7871,5.7873,5.7686,5.7313,5.7152,5.7315,5.7503,5.7372,5.7417,5.738,5.7107,5.7078,5.7074,5.7001,5.6865,5.6793,5.707,5.7087,5.7287,5.7409,5.73,5.7467,5.7443,5.7113,5.7126,5.7422,5.7082,5.7093,5.7431,5.7357,5.7205,5.7222,5.7406,5.7462,5.7353,5.7557,5.7579,5.7259,5.727,5.7383,5.7421,5.739,5.7394,5.7373,5.7363,5.7238,5.7198,5.7591,5.76,5.7298,5.7121,5.7417,5.7667,5.7249,5.704,5.7144,5.7161,5.7124,5.7048,5.7316,5.7274,5.7127,5.729,5.732,5.7291,5.7141,5.7358,5.721,5.7077,5.6937,5.6974,5.7066,5.7097,5.7154,5.7121,5.7373,5.7314,5.7292,5.7091,5.6985,5.7208,5.7386,5.7643,5.7707,5.7804,5.7969,5.7818,5.7788,5.7877,5.7729,5.8061,5.8199,5.804,5.7975,5.8348,5.7963,5.7051,5.6807,5.6716,5.7006,5.7131,5.7127,5.7106,5.7167,5.7112,5.6979,5.692,5.6995,5.7178,5.7268,5.741,5.749,5.7524,5.847,6.1076,6.5114,6.7857,6.8497,6.8588,6.8172,6.5248,6.0292,5.6931,5.6758,5.7237,5.7899,5.8392,5.8243,5.8108,5.7796,5.7845,5.7847,5.7952,5.7993,5.8119,5.8292,5.8287,5.8056,5.7852,5.7798,5.7985,5.8161,5.8166,5.8267,5.8233,5.8501,5.8546,5.8581,5.8505,5.8538,5.8443,5.8772,5.8951,5.891,5.8861,5.9074,5.9309,5.94,5.9345,5.9337,5.9804,6.0114,5.9925,5.9643,5.967,5.9798,6.0066,6.0358,6.0542,6.0695,6.0864,6.1204,6.1341,6.1394,6.1547,6.1709,6.1665,6.1721,6.1927,6.2303,6.2105,6.149,6.1043,6.0704,6.0812,6.0652,6.0096,5.9318,5.9002,5.9142,5.9072,5.8906,5.8577,5.8235,5.8168,5.8318,5.8204,5.7969,5.7885,5.8106,5.8381,5.8176,5.7977,5.7944,5.8221,5.8319,5.8348,5.8225,5.7932,5.797,5.8288,5.8673,5.8601,5.7866,5.7683,5.7847,5.8052,5.808,5.8058,5.8143,5.8367,5.8378,5.8271,5.8295,5.8207,5.824,5.8299,5.8379,5.8636,5.8743,5.8703,5.8287,5.7918,5.7934,5.8231,5.8437,5.8447,5.8441,5.8129,5.7973,5.8101,5.8024,5.8116,5.8071,5.7973,5.8056,5.8094,5.805,5.8195,5.8241,5.8132,5.8069,5.8051,5.81,5.8206,5.8457,5.8518,5.812,5.7727,5.7665,5.7799,5.7935,5.8124,5.8415,5.8754,5.8742,5.8379,5.8248,5.8577,5.8456,5.8472,5.8599,5.8621,5.8457,5.8914,5.9273,5.899,5.8863,5.8778,5.8566,5.8159,5.7959,5.7882,5.7803,5.7897,5.7936,5.7952,5.8422,5.8366,5.7812,5.7667,5.7705,5.7845,5.7861,5.8009,5.8174,5.7688,5.7832,5.928,6.1965,6.539,6.8341,6.9428,6.936,6.8353,6.3325,5.8513,5.7043,5.7683,5.804,5.8602,5.8908,5.8892,5.8898,5.8781,5.9206,5.8994,5.8473,5.8169,5.8731,5.8642,5.8978,5.8792,5.8467,5.8723,5.9085,5.8803,5.8836,5.8806,5.9006,5.9148,5.927,5.9202,5.912,5.9311,5.9414,5.968,5.9731,5.9514,5.9804,5.9614,5.965,5.9702,5.9845,5.9945,6.0201,6.0378,6.0363,6.0522,6.0507,6.065,6.0593,6.1064,6.1349,6.1381,6.1547,6.164,6.1768,6.1996,6.2022,6.1993,6.2187,6.2263,6.2073,6.2048,6.2133,6.2077,6.1746,6.1194,6.0895,6.0763,6.0392,6.0193,5.9987,5.9545,5.9233,5.917,5.9008,5.8941,5.8837,5.8663,5.8808,5.8741,5.8673,5.8613,5.8592,5.8735,5.8831,5.9138,5.9221,5.8735,5.827,5.8362,5.8578,5.8611,5.8538,5.8573,5.8776,5.8956,5.8741,5.856,5.8626,5.8735,5.8807,5.8884,5.8863,5.8935,5.887,5.904,5.9107,5.9075,5.9178,5.9428,5.9175,5.866,5.8496,5.8673,5.8841,5.8906,5.8744,5.8807,5.8891,5.8954,5.8937,5.887,5.8947,5.9103,5.8682,5.8402,5.8442,5.8834,5.8943,5.8621,5.8683,5.862,5.8584,5.8659,5.8508,5.836,5.8489,5.8723,5.8872,5.8851,5.8559,5.8471,5.8572,5.8647,5.8653,5.855,5.8567,5.8698,5.8802,5.8973,5.9314,5.9149,5.886,5.8982,5.8967,5.9124,5.9371,5.9521,5.9514,5.9279,5.9221,5.9289,5.9156,5.8617,5.8325,5.865,5.8642,5.8625,5.8622,5.8393,5.8306,5.8214,5.8319,5.8228,5.8312,5.8468,5.8517,5.8466,5.8563,5.9633,6.2017,6.5446,6.8615,6.9772,6.9877,6.9185,6.5169,6.0396,5.8131,5.8329,5.9264,5.9735,5.9652,5.9619,5.9523,5.9411,5.9287,5.8972,5.9045,5.9162,5.9351,5.9387,5.949,5.9663,5.9811,5.9533,5.9654,5.981,5.9766,5.9539,5.9607,5.9481,5.9739,6.005,6.0032,6.0083,5.9916,5.9959,6.0209,6.0289,6.0308,6.0588,6.0613,6.0571,6.079,6.0906,6.0747,6.0874,6.1263,6.1436,6.1218,6.1126,6.1473,6.1646,6.1739,6.1648,6.1807,6.2123,6.2514,6.277,6.2882,6.2715,6.2743,6.2975,6.3335,6.3422,6.2948,6.226,6.203,6.184,6.1358,6.1266,6.1159,6.0842,6.0354,5.9772,5.9336,5.9375,5.9295,5.926,5.9342,5.9284,5.9271,5.914,5.9243,5.9184,5.922,5.9316,5.8982,5.8722,5.8602,5.8767,5.8951,5.9042,5.9185,5.9424,5.9406,5.9126,5.8799,5.8796,5.9056,5.9125,5.9119,5.9096,5.9395,5.9588,5.9472,5.9474,5.9397,5.933,5.9331,5.9412,5.9474,5.9466,5.9565,5.9613,5.9451,5.9208,5.9175,5.9403,5.9544,5.9684,5.9487,5.9052,5.9133,5.9276,5.9097,5.9017,5.903,5.9144,5.9317,5.9313,5.9179,5.9192,5.9177,5.923,5.9189,5.9154,5.9125,5.9131,5.9205,5.9135,5.9034,5.9009,5.9136,5.9204,5.9141,5.9048,5.9018,5.9127,5.9092,5.9134,5.9147,5.9163,5.9319,5.9384,5.9465,5.9417,5.9517,5.9635,5.9639,5.9687,5.9724,5.993,6.0282,6.0346,6.0064,5.9965,5.9697,5.9382,5.9037,5.8924,5.8952,5.8927,5.8934,5.9027,5.8956,5.8938,5.8985,5.906,5.9018,5.9015,5.905,5.905,5.8777,5.886,5.9245,6.0773,6.3477,6.7191,6.9524,7.0048,7.0136,6.8544,6.3661,5.9599,5.8528,5.9027,5.9971,6.027,6.0323,5.9989,5.9941,5.9891,5.994,5.9897,5.9897,5.9873,5.9995,6.0034,5.998,5.9836,6.005,6.0085,5.9917,5.9808,5.9984,6.0216,6.043,6.0234,6.0313,6.0501,6.0572,6.0461,6.0501,6.0592,6.068,6.0677,6.0709,6.0857,6.1094,6.118,6.1244,6.1277,6.1413,6.1437,6.1625,6.1804,6.1833,6.1955,6.2179,6.2365,6.2507,6.2595,6.2758,6.2943,6.3224,6.3377,6.3466,6.3522,6.3632,6.3682,6.3898,6.3844,6.3432,6.3247,6.2978,6.2633,6.2255,6.1982,6.1703,6.1423,6.1236,6.0962,6.0671,6.0527,6.0323,6.0228,6.0139,6.01,6.0053,6.0052,6.0002,6.0008,5.9964,6.0055,6.0129,6.0139,6.0113,5.9983,5.9962,5.9943,6.0035,6.0102,5.9967,5.9999,6.0201,6.0438,6.0361,6.0126,6.0146,6.0261,6.0071,5.9967,6.0005,6.0115,6.0089,6.0119,6.0123,6.0046,6.0046,6.008,6.0176,6.0313,6.0299,6.0243,6.0098,6.0091,6.0126,6.0113,6.0032,6.0056,6.0005,6.0059,6.0086,6.0117,6.012,6.0097,6.0071,6.0027,5.996,5.9896,5.9903,5.9868,5.9864,5.9876,5.9869,5.9952,5.9992,6.0162,6.0206,6.0264,6.0188,6.0194,6.0342,6.0456,6.0525,6.0513,6.0463,6.0789,6.1023,6.089,6.0732,6.0587,6.0753,6.0644,6.0466,6.04,6.0515,6.1282,6.3276,6.6547,7.0107,7.189,7.1989,7.162,6.9047,6.331,5.9884,6.0323,6.0644,6.0879,6.1409,6.158,6.1541,6.1346,6.1226,6.1326,6.1359,6.1379,6.1282,6.1276,6.1423,6.1499,6.1428,6.1511,6.1578,6.1542,6.1617,6.1694,6.1678,6.1641,6.1736,6.1886,6.2002,6.2006,6.2137,6.2199,6.2183,6.2317,6.2408,6.2465,6.2446,6.256,6.2682,6.2781,6.2892,6.2994,6.3089,6.3177,6.3311,6.3467,6.366,6.3765,6.3895,6.4041,6.4146,6.4257,6.4446,6.4649,6.4852,6.4918,6.5053,6.5114,6.5167,6.5078,6.4735,6.4469,6.4454,6.4129,6.376,6.3357,6.3083,6.2754,6.246,6.2177,6.1932,6.1752,6.1701,6.1668,6.1566,6.1455,6.1413,6.1456,6.1415,6.1355,6.1337,6.1389,6.1309,6.1299,6.1338,6.1347,6.1377,6.1407,6.1436,6.1449,6.138,6.1494,6.1483,6.1312,6.1409,6.1576,6.1525,6.1441,6.1409,6.1472,6.1498,6.1433,6.1436,6.1482,6.1589,6.1574,6.1536,6.1568,6.1531,6.1512,6.151,6.15,6.1474,6.1521,6.1543,6.1484,6.1382,6.1382,6.1424,6.1458,6.1466,6.1417,6.1395,6.1339,6.138,6.1459,6.1483,6.1376,6.1297,6.1385,6.15,6.1436,6.127,6.1181,6.1263,6.1351,6.1409,6.1305,6.1248,6.1266,6.1472,6.1617,6.1675,6.1616,6.1725,6.1867,6.1853,6.179,6.1955,6.2278,6.2292,6.2272,6.2154,6.1883,6.168,6.1487,6.1285,6.1238,6.1218,6.116,6.1267,6.1268,6.1115,6.1054,6.1047,6.1095,6.1144,6.1124,6.1096,6.0982,6.0944,6.1534,6.2902,6.5576,6.9293,7.1793,7.2195,7.2366,7.1976,6.8862,6.3536,6.0567,6.0833,6.1569,6.218,6.2317,6.2194,6.2014,6.1942,6.1998,6.2044,6.1925,6.186,6.1827,6.1957,6.2024,6.2082,6.2062,6.197,6.2142,6.2194,6.2224,6.2152,6.2221,6.2316,6.2407,6.2493,6.2507,6.2532,6.2621,6.2698,6.2826,6.2841,6.2877,6.2909,6.3035,6.3219,6.3342,6.3333,6.3415,6.3603,6.3808,6.3892,6.3995,6.4073,6.4214,6.4398,6.4592,6.4689,6.4798,6.501,6.5288,6.5475,6.5535,6.5679,6.5866,6.5903,6.5809,6.5708,6.5609,6.5458,6.5147,6.4811,6.4425,6.4009,6.3704,6.3379,6.3137,6.2904,6.2642,6.2477,6.2463,6.2447,6.2325,6.2208,6.21,6.208,6.218,6.2163,6.203,6.2058,6.2152,6.2157,6.2085,6.2,6.213,6.2181,6.2105,6.2064,6.205,6.2044,6.2052,6.2113,6.2166,6.2174,6.2171,6.2226,6.2273,6.2242,6.2127,6.2151,6.2234,6.2288,6.2277,6.2281,6.2318,6.2334,6.228,6.2238,6.2261,6.2276,6.2249,6.2234,6.2208,6.214,6.212,6.2121,6.2143,6.2247,6.2346,6.2252,6.1975,6.1986,6.2099,6.2096,6.2026,6.2017,6.2085,6.2115,6.2107,6.2038,6.1975,6.1999,6.2056,6.2174,6.2152,6.2077,6.2053,6.2053,6.2057,6.1975,6.1991,6.2038,6.2093,6.2049,6.1999,6.1982,6.1986,6.205,6.206,6.2087,6.2096,6.2277,6.2501,6.2606,6.2501,6.2446,6.2511,6.2581,6.2684,6.2881,6.2982,6.2955,6.2853,6.2743,6.2528,6.2149,6.2036,6.1938,6.1938,6.2064,6.2023,6.1926,6.1853,6.186,6.1855,6.1833,6.1852,6.193,6.191,6.1708,6.1768,6.2628,6.4652,6.7671,7.1248,7.2298,7.2875,7.308,7.1937,6.7392,6.2801,6.1321,6.1748,6.2808,6.3064,6.3116,6.2901,6.2888,6.2737,6.2811,6.2628,6.2797,6.2775,6.2832,6.2709,6.2753,6.2753,6.2874,6.287,6.2984,6.2916,6.3006,6.2991,6.315,6.319,6.3338,6.3345,6.3456,6.3472,6.3587,6.3541,6.3526,6.3625,6.3703,6.3839,6.394,6.3938,6.4043,6.4159,6.4311,6.4413,6.4535,6.4675,6.4827,6.4963,6.5159,6.5241,6.5319,6.5499,6.5708,6.5904,6.5964,6.6068,6.624,6.6451,6.6647,6.6741,6.662,6.656,6.6429,6.6266,6.5934,6.5629,6.5314,6.5022,6.4661,6.4239,6.3935,6.3735,6.3586,6.3488,6.3316,6.3209,6.315,6.3099,6.2944,6.2911,6.2817,6.285,6.2773,6.2888,6.2872,6.2904,6.2862,6.2902,6.2852,6.2879,6.2818,6.2855,6.2926,6.3024,6.3033,6.29,6.2855,6.2884,6.293,6.2981,6.295,6.3018,6.3009,6.3015,6.2977,6.2969,6.2969,6.2969,6.2968,6.3011,6.2922,6.2954,6.2977,6.3019,6.308,6.3019,6.2853,6.2852,6.2868,6.288,6.2879,6.2826,6.2811,6.2843,6.2838,6.2809,6.2813,6.2872,6.285,6.2801,6.2759,6.2758,6.2706,6.275,6.2778,6.2801,6.2703,6.2666,6.2747,6.2714,6.2622,6.2583,6.257,6.2615,6.263,6.2622,6.2584,6.2604,6.2723,6.2613,6.244,6.2393,6.3123,6.4761,6.7496,7.1077,7.3417,7.3931,7.3785,7.234,6.6785,6.4346,6.1911,6.2465,6.3452,6.3413,6.3724,6.3372,6.3676,6.3364,6.3562,6.3113,6.339,6.3305,6.3551,6.3325,6.3546,6.3337,6.3578,6.3452,6.3663,6.3453,6.3773,6.3702,6.3859,6.3768,6.3983,6.3971,6.4075,6.4037,6.415,6.4097,6.4313,6.4294,6.4398,6.4455,6.46,6.4598,6.4836,6.4836,6.4968,6.5013,6.523,6.5376,6.5458,6.5469,6.5628,6.5695,6.5824,6.6055,6.6223,6.6297,6.6398,6.657,6.6766,6.7002,6.7035,6.7097,6.7123,6.7149,6.7019,6.673,6.6472,6.6191,6.588,6.5548,6.5299,6.5032,6.4703,6.4542,6.4319,6.4126,6.3856,6.3812,6.3707,6.3763,6.3505,6.3523,6.3503,6.357,6.3539,6.3604,6.3469,6.3504,6.3521,6.3621,6.3598,6.3552,6.3324,6.3395,6.3461,6.3511,6.3479,6.3482,6.3481,6.3649,6.3595,6.3555,6.353,6.3672,6.3761,6.3686,6.3588,6.3649,6.3645,6.3614,6.3572,6.3597,6.3593,6.3627,6.3603,6.3687,6.356,6.3541,6.3553,6.3604,6.3545,6.3528,6.3495,6.3508,6.3505,6.3558,6.3463,6.3458,6.3397,6.3409,6.3402,6.3456,6.3437,6.3403,6.3304,6.3347,6.3288,6.3316,6.3315,6.3305,6.3407,6.3359,6.3311,6.3261,6.3365,6.3417,6.3414,6.3322,6.3316,6.3466,6.3561,6.3565,6.3611,6.3634,6.3671,6.3862,6.3877,6.3873,6.4006,6.427,6.4292,6.4224,6.4017,6.3983,6.3784,6.3647,6.3412,6.32,6.3145,6.3128,6.3139,6.3138,6.3101,6.3092,6.314,6.3149,6.317,6.3122,6.3026,6.2914,6.3263,6.4103,6.6154,6.9406,7.1258,7.3844,7.4483,7.4169,7.3276,6.7736,6.3335,6.2526,6.3167,6.3412,6.3959,6.4001,6.4057,6.3911,6.3842,6.3807,6.3883,6.385,6.3882,6.3784,6.3817,6.384,6.3942,6.4041,6.4045,6.4025,6.4085,6.4122,6.4236,6.4187,6.4228,6.4317,6.4483,6.4516,6.4636,6.4685,6.4741,6.4729,6.4769,6.4784,6.4859,6.4946,6.5096,6.5234,6.5331,6.5381,6.5526,6.563,6.5771,6.5886,6.6003,6.614,6.6272,6.6454,6.6566,6.6703,6.686,6.6933,6.7121,6.7239,6.7327,6.7507,6.7541,6.7568,6.7481,6.7213,6.7043,6.6795,6.6479,6.6179,6.5869,6.5459,6.5104,6.4914,6.4718,6.4517,6.4374,6.4288,6.4229,6.4147,6.4013,6.395,6.396,6.3953,6.3948,6.3885,6.385,6.3793,6.3862,6.3909,6.3842,6.3821,6.3829,6.389,6.39,6.3944,6.3907,6.3948,6.4052,6.4337,6.4345,6.4362,6.4437,6.4428,6.4412,6.4363,6.4288,6.4418,6.4412,6.4372,6.4273,6.4257,6.4221,6.4328,6.4357,6.4268,6.4232,6.4239,6.4221,6.4113,6.6793,6.9451,7.121,7.4501,7.5427,7.5273,7.4778,7.1718,6.6656,6.4003,6.4376,6.5218,6.5592,6.556,6.5634,6.5407,6.5482,6.563,6.5438,6.5356,6.543,6.5418,6.5354,6.5235,6.5609,6.5735,6.549,6.5244,6.5334,6.5645,6.5589,6.5587,6.5721,6.5712,6.564,6.5753,6.585,6.5969,6.6044,6.619,6.6278,6.6395,6.6382,6.6446,6.6588,6.6641,6.667,6.6867,6.6951,6.7059,6.722,6.7392,6.7681,6.8,6.8046,6.7845,6.7899,6.8169,6.8275,6.8298,6.8473,6.871,6.9053,6.9444,6.9577,6.9496,6.9122,6.8789,6.8519,6.8292,6.8067,6.7694,6.7293,6.6965,6.6685,6.6475,6.6315,6.6101,6.5987,6.5794,6.5642,6.5608,6.5477,6.5316,6.5287,6.5376,6.5351,6.5343,6.5234,6.5103,6.5138,6.5139,6.5211,6.5274,6.5231,6.5213,6.5218,6.5191,6.5206,6.5268,6.5325,6.5331,6.5324,6.5265,6.5299,6.533,6.5358,6.5334,6.5382,6.5334,6.5409,6.5401,6.5385,6.5375,6.5362,6.5406,6.5436,6.5407,6.5386,6.5347,6.5393,6.5434,6.5392,6.5361,6.5328,6.5356,6.5343,6.5318,6.5498,6.557,6.561,6.5702,6.5691,6.5658,6.5602,6.5608,6.562,6.5568,6.5607,6.5722,6.5775,6.5737,6.5569,6.5671,6.5672,6.5717,6.5733,6.5723,6.5678,6.5677,6.577,6.5735,6.5679,6.5653,6.5753,6.5781,6.5742,6.5621,6.5692,6.5734,6.5662,6.5652,6.5583,6.5538,6.5485,6.5549,6.5587,6.5588,6.5508,6.5509,6.5518,6.5584,6.5563,6.5454,6.5476,6.5712,6.5906,6.5937,6.5898,6.9827,7.0026,6.9553,6.9573,6.8961,6.8849,6.8315,6.8233,6.7653,6.7539,6.7075,6.7098,6.6742,6.6796,6.6442,6.652,6.6326,6.6458,6.6286,6.6316,6.6154,6.6312,6.6245,6.6339,6.6133,6.6309,6.6233,6.6316,6.6271,6.6331,6.6221,6.6286,6.6281,6.6322,6.6187,6.6255,6.6211,6.6328,6.6366,6.6392,6.6381,6.637,6.634,6.6453,6.644,6.6415,6.6399,6.6407,6.6423,6.6381,6.6358,6.6377,6.6402,6.6485,6.6503,6.6355,6.6234,6.6219,6.6376,6.636,6.6324,6.616,6.624,6.6272,6.6291,6.6209,6.6224,6.6169,6.6151,6.6128,6.6113,6.6035,6.608,6.6068,6.6177,6.6097,6.6092,6.6022,6.6077,6.6127,6.6166,6.6239,6.6377,6.6347,6.6488,6.6461,6.6512,6.6509,6.6618,6.6741,6.6921,6.6942,6.6964,6.6803,6.6725,6.6591,6.6315,6.594,6.5876,6.587,6.5868,6.5782,6.5792,6.5826,6.5875,6.5837,6.5881,6.5764,6.5803,6.5733,6.5724,6.5565,6.553,6.6071,6.7662,7.0281,7.3898,6.6702,6.5928,6.6535,6.6006,6.6587,6.6017,6.6528,6.6008,6.6654,6.628,6.6809,6.6392,6.6842,6.6537,6.6964,6.669,6.6995,6.666,6.7192,6.6983,6.7282,6.6825,6.6835,6.6433,6.6388,6.6012,6.6103,6.5958,6.6063,6.5879,6.6015,6.5891,6.5988,6.5842,6.6001,6.5885,6.5988,6.595,6.5929,6.5696,6.5933,6.6541,6.8427,7.1388,7.4861,7.6898,7.7095,7.6568,7.465,6.8936,6.5155,6.5488,6.6064,6.6341,6.6793,6.6964,6.6887,6.6945,6.6708,6.6729,6.6689,6.6831,6.6739,6.6806,7.2222,7.2593,7.2187,7.2606,7.2098,7.2494,7.21,7.2537,7.2251,7.2548,7.2116,7.2409,7.2167,7.2554,7.2113,7.2451,7.2046,7.2254,7.1965,7.229,7.2212,7.2468,7.2309,7.2638,7.2491,7.2766,7.2512,7.2824,7.2684,7.2933,7.2987,7.3281,7.3098,7.2979,7.2656,7.2732,7.234,7.2222,7.1906,7.184,7.1676,7.1853,7.1816,7.1918,7.1797,7.196,7.1992,7.1935,7.1836,7.206,7.2008,7.1807,7.1654,7.2305,7.3582,7.5963,7.9351,8.2043,8.2798,8.2834,8.2682,8.0205,7.4656,7.1182,7.1676,7.2252,7.2843,7.2962,7.2952,7.2913,7.3032,7.2876,7.2762,7.2697,7.2894,7.3051,7.3104,7.2797,7.2831,7.2889,7.3199,7.3313,7.3694,7.3596,7.3331,7.351,7.3601,7.3637,7.3818,7.376,7.3641,7.3532,7.3512,7.3559,7.4435,7.457,7.4089,7.3841,7.4263,7.4799,7.5165,7.4656,7.4308,7.424,7.5138,7.5771,7.5589,7.5192,7.5646,7.5736,7.5851,7.6018,7.6075,7.5768,7.5809,7.6211,7.642,7.6696,7.7183,7.6777,7.659,7.6097,7.595,7.5798,7.554,7.4974,7.4743,7.4827,7.4417,7.3612,7.343,7.3623,7.3726,7.3961,7.3326,7.2841,7.2411,7.2634,7.2982,7.3302,7.3521,7.3326,7.296,7.201,7.2035,7.2834,7.3303,7.302,7.4013,7.3433,7.2446,7.2342,7.2554,7.2772,7.2836,7.2978,7.3324,7.2724,7.1909,7.2492,7.24,7.2072,7.2001,7.2322,7.2933,7.3004,7.3114,7.2426,7.3175,7.289,7.2038,7.1873,7.2277,7.2866,7.232,7.2619,7.3232,7.2696,7.1555,7.216,7.2704,7.2501,7.2467,7.2504,7.2357,7.2132,7.2717,7.2776,7.1802,7.1694,7.2442,7.2803,7.2918,7.3057,7.2058,7.2086,7.2344,7.2815,7.3195,7.315,7.2302,7.2438,7.2924,7.2847,7.255,7.2604,7.2305,7.2714,7.2723,7.2822,7.3383,7.3711,7.2396,7.1653,7.1744,7.2076,7.2473,7.2047,7.1583,7.1699,7.1931,7.1981,7.2027,7.222,7.1859,7.1388,7.1516,7.1909,7.2846,7.4752,7.745,8.1006,8.2703,8.3072,8.2472,7.9878,7.4768,7.1302,7.1239,7.2157,7.3008,7.3082,7.3461,7.3796,7.3909,7.3544,7.2662,7.2234,7.2235,7.2323,7.2737,7.2964,7.3193,7.2961,7.3035,7.2744,7.2947,7.3294,7.3405,7.3307,7.3284,7.3144,7.3148,7.3313,7.3906,7.4037,7.4126,7.3586,7.3812,7.4069,7.4008,7.405,7.4055,7.4036,7.4432,7.4497,7.4679,7.4975,7.4982,7.5118,7.5483,7.5449,7.5052,7.5418,7.5751,7.5928,7.6377,7.6327,7.6316,7.6653,7.6959,7.7082,7.6926,7.6959,7.6988,7.6888,7.6717,7.6224,7.6127,7.6124,7.5516,7.5388,7.5273,7.4964,7.4445,7.3922,7.337,7.3787,7.3787,7.3218,7.3491,7.3821,7.324,7.2952,7.2882,7.2981,7.3201,7.3244,7.3323,7.3289,7.3386,7.347,7.3765,7.3163,7.3091,7.3145,7.3092,7.3454,7.3568,7.361,7.3662,7.332,7.3049,7.3052,7.3258,7.3452,7.3373,7.3711,7.3428,7.3109,7.3122,7.3549,7.365,7.3185,7.3054,7.3314,7.3454,7.3434,7.3531,7.369,7.3831,7.3777,7.3231,7.3204,7.3069,7.3015,7.2898,7.3199,7.3376,7.3496,7.3189,7.3175,7.3204,7.3228,7.3083,7.3014,7.318,7.3205,7.3885,7.3489,7.2314,7.2515,7.3274,7.3761,7.3772,7.2873,7.2676,7.25,7.2822,7.3006,7.2863,7.2987,7.3495,7.354,7.2816,7.3062,7.3636,7.361,7.3385,7.347,7.3516,7.3346,7.3449,7.3934,7.4074,7.3947,7.3222,7.3177,7.268,7.2433,7.258,7.2695,7.2742,7.3168,7.2827,7.257,7.2749,7.2641,7.259,7.2487,7.2098,7.1962,7.2219,7.2116,7.2179,7.272,7.3856,7.7,8.0572,8.2669,8.307,8.3156,8.2779,7.773,7.3399,7.1814,7.2555,7.3605,7.3884,7.3622,7.3188,7.3172,7.3256,7.3222,7.3491,7.3592,7.3495,7.381,7.4017,7.3089,7.2552,7.3271,7.3903,7.3861,7.3262,7.2679,7.2949,7.3389,7.3621,7.3782,7.3875,7.3796,7.3927,7.4097,7.4399,7.463,7.4307,7.383,7.449,7.49,7.4563,7.4123,7.3984,7.4531,7.4474,7.4495,7.4646,7.5032,7.5148,7.5242,7.5582,7.5441,7.5775,7.593,7.6141,7.6331,7.641,7.6589,7.6774,7.6927,7.6987,7.6975,7.688,7.6885,7.676,7.6565,7.6093,7.5786,7.5234,7.5009,7.4779,7.4574,7.4541,7.4222,7.3894,7.3631,7.3561,7.3501,7.3431,7.3315,7.3324,7.3302,7.3454,7.3656,7.386,7.4059,7.3938,7.3319,7.2984,7.2992,7.2802,7.2917,7.3139,7.3205,7.3279,7.3474,7.3465,7.3426,7.3408,7.317,7.2968,7.3157,7.3351,7.3315,7.3337,7.3429,7.3724,7.3776,7.358,7.3401,7.3541,7.355,7.3078,7.3038,7.3194,7.3707,7.3983,7.3549,7.3286,7.3131,7.3016,7.3004,7.3026,7.3173,7.3278,7.3665,7.372,7.3791,7.356,7.3238,7.2933,7.2984,7.311,7.3347,7.3402,7.3279,7.3066,7.3033,7.2697,7.2507,7.2792,7.3031,7.3341,7.3376,7.3326,7.3336,7.3074,7.2927,7.2847,7.2966,7.3216,7.3443,7.3534,7.3329,7.3259,7.3353,7.3501,7.3552,7.3559,7.3836,7.4033,7.402,7.3987,7.3741,7.3653,7.3427,7.3179,7.3047,7.2955,7.2886,7.2847,7.2986,7.3025,7.2912,7.2879,7.2836,7.2953,7.2871,7.2871,7.292,7.2838,7.2722,7.3193,7.4121,7.6292,7.9619,8.2621,8.3677,8.3841,8.3375,7.9327,7.4074,7.1963,7.2634,7.3242,7.3883,7.393,7.3909,7.3731,7.3474,7.362,7.3839,7.4032,7.3656,7.3325,7.3484,7.3694,7.3817,7.3765,7.3589,7.3654,7.3544,7.3574,7.3658,7.3918,7.3923,7.4067,7.3971,7.3974,7.3928,7.407,7.4189,7.4468,7.4915,7.4929,7.4497,7.4719,7.4854,7.4934,7.5304,7.5683,7.5235,7.4554,7.5037,7.5737,7.5673,7.5282,7.5313,7.568,7.5781,7.5933,7.6094,7.6211,7.6479,7.6781,7.6863,7.675,7.6854,7.7055,7.7393,7.7227,7.6676,7.6295,7.6035,7.5721,7.5476,7.5109,7.4921,7.4632,7.4274,7.4097,7.4195,7.399,7.3624,7.3519,7.3544,7.3557,7.3649,7.3636,7.3735,7.3476,7.3398,7.3581,7.3633,7.3615,7.3654,7.3598,7.3091,7.2891,7.3037,7.3318,7.3431,7.3431,7.3318,7.3388,7.3522,7.3496,7.3702,7.3826,7.3641,7.3763,7.4001,7.411,7.4044,7.3521,7.3601,7.3688,7.3321,7.3248,7.3357,7.3613,7.3438,7.3423,7.3647,7.4071,7.4098,7.3402,7.3,7.3203,7.3429,7.3115,7.2956,7.3075,7.3248,7.3104,7.3035,7.3255,7.2988,7.3049,7.3462,7.323,7.3188,7.3421,7.3183,7.2911,7.2612,7.2334,7.2608,7.2732,7.277,7.272,7.2916,7.2848,7.2912,7.2547,7.2152,7.226,7.2493,7.2672,7.2611,7.2649,7.284,7.333,7.326,7.2994,7.2775,7.2943,7.3189,7.3232,7.3397,7.3301,7.3346,7.3398,7.3463,7.3627,7.3635,7.342,7.3404,7.3391,7.3664,7.3477,7.292,7.2419,7.2182,7.2074,7.2241,7.2349,7.2369,7.2462,7.2467,7.2506,7.2566,7.2521,7.2356,7.2291,7.2857,7.4432,7.6917,8.0365,8.2641,8.3279,8.363,8.2206,7.7058,7.2954,7.2046,7.2488,7.3435,7.3574,7.3628,7.3496,7.3476,7.3382,7.3289,7.3195,7.3249,7.3257,7.3217,7.3306,7.3944,7.4111,7.3634,7.331,7.3661,7.4134,7.3781,7.2972,7.3739,7.4003,7.3743,7.3211,7.3101,7.3479,7.352,7.3831,7.3897,7.3943,7.3972,7.4119,7.4268,7.4473,7.4686,7.4915,7.486,7.4815,7.457,7.4624,7.4872,7.5044,7.5024,7.5334,7.5434,7.5628,7.5638,7.5989,7.6476,7.7028,7.7115,7.6806,7.6405,7.6614,7.6725,7.6878,7.6738,7.6455,7.5931,7.5933,7.583,7.5538,7.5301,7.5018,7.4616,7.4118,7.3822,7.3513,7.3601,7.3434,7.3181,7.3189,7.3294,7.3292,7.315,7.3229,7.3357,7.3406,7.3261,7.3192,7.3007,7.3001,7.31,7.3151,7.2973,7.298,7.3068,7.3186,7.3229,7.3264,7.3384,7.35,7.337,7.3071,7.2988,7.3258,7.3174,7.2982,7.3027,7.3231,7.3473,7.3377,7.3421,7.3345,7.314,7.3072,7.3185,7.3302,7.3243,7.3215,7.3302,7.3142,7.2981,7.3056,7.3114,7.3258,7.3273,7.3339,7.3254,7.307,7.2953,7.2971,7.3177,7.3052,7.2823,7.2811,7.2851,7.2809,7.2799,7.2837,7.2894,7.2982,7.2937,7.2833,7.2927,7.2995,7.2938,7.2971,7.2932,7.3023,7.2931,7.264,7.2654,7.268,7.2766,7.3018,7.3189,7.3302,7.3001,7.262,7.2556,7.2704,7.3053,7.3292,7.3327,7.3025,7.288,7.2969,7.3234,7.317,7.3185,7.3486,7.3629,7.3481,7.3479,7.3379,7.3191,7.3109,7.2986,7.2635,7.2619,7.2688,7.2775,7.2734,7.2945,7.3133,7.2827,7.2353,7.2295,7.2441,7.2626,7.2824,7.2572,7.2046,7.2509,7.3999,7.642,7.9818,8.2468,8.3117,8.3354,8.2438,8.045,7.5101,7.1689,7.2013,7.2647,7.3539,7.4048,7.4101,7.3485,7.3096,7.3251,7.3452,7.3184,7.2917,7.289,7.3219,7.3014,7.3296,7.3841,7.377,7.3285,7.3062,7.3134,7.3353,7.3604,7.3899,7.3818,7.3595,7.3394,7.343,7.3952,7.4095,7.4107,7.4258,7.4114,7.3692,7.3734,7.4071,7.4212,7.442,7.4728,7.4742,7.4796,7.4878,7.4812,7.4972,7.5273,7.534,7.5385,7.5574,7.5592,7.5709,7.594,7.6254,7.6621,7.6823,7.6811,7.6797,7.6832,7.6961,7.691,7.6688,7.6695,7.6293,7.6048,7.5707,7.5238,7.4825,7.4503,7.4336,7.4263,7.4224,7.3716,7.3282,7.3394,7.3481,7.3473,7.3493,7.3221,7.3316,7.3253,7.2997,7.3066,7.3348,7.3303,7.3232,7.2991,7.2931,7.2915,7.2938,7.3138,7.3449,7.3506,7.327,7.3002,7.2951,7.312,7.325,7.347,7.3519,7.345,7.3374,7.3388,7.2934,7.292,7.3418,7.3768,7.3721,7.3438,7.3146,7.294,7.2879,7.2898,7.3129,7.3241,7.3376,7.3208,7.3286,7.3429,7.3187,7.2662,7.2825,7.2981,7.2944,7.2946,7.2817,7.2949,7.3071,7.3061,7.2876,7.2799,7.2912,7.3003,7.3047,7.3146,7.3046,7.2901,7.2892,7.2725,7.2753,7.2713,7.2873,7.2968,7.2902,7.2777,7.2896,7.2992,7.3015,7.3054,7.3056,7.3138,7.3221,7.3329,7.339,7.3416,7.3582,7.3742,7.3815,7.375,7.3576,7.3378,7.3172,7.2866,7.2724,7.2802,7.2773,7.2722,7.2704,7.2738,7.2773,7.2751,7.2761,7.2806,7.2855,7.2866,7.2782,7.2644,7.2845,7.3369,7.4792,7.7628,8.1125,8.36,8.4075,8.4071,8.2643,7.657,7.2069,7.195,7.2312,7.2595,7.3189,7.3482,7.352,7.3589,7.3501,7.343,7.3353,7.3485,7.3523,7.3614,7.3535,7.3594,7.3564,7.3651,7.3654,7.3673,7.3708,7.3742,7.376,7.3967,7.4066,7.4158,7.4007,7.4026,7.4098,7.409,7.419,7.4342,7.4512,7.4679,7.4683,7.4555,7.4619,7.4753,7.4793,7.4862,7.4984,7.5075,7.5177,7.5487,7.551,7.5434,7.5525,7.5789,7.5926,7.611,7.6283,7.6512,7.6609,7.6697,7.6745,7.6968,7.7154,7.7289,7.7302,7.7179,7.6903,7.6497,7.6154,7.5805,7.5455,7.5093,7.4899,7.4877,7.4713,7.4174,7.3747,7.3579,7.3635,7.3696,7.3595,7.3564,7.3532,7.3429,7.3457,7.3501,7.3562,7.3446,7.3291,7.3338,7.3365,7.3361,7.3257,7.3248,7.3355,7.3436,7.343,7.3488,7.3472,7.3405,7.3539,7.3543,7.3559,7.3637,7.3698,7.3608,7.3518,7.3451,7.3739,7.3709,7.3524,7.3454,7.3395,7.3363,7.3459,7.3487,7.3521,7.3545,7.352,7.3568,7.3524,7.3628,7.3503,7.3404,7.3308,7.3398,7.3485,7.337,7.3273,7.3245,7.3309,7.3315,7.3352,7.3367,7.3404,7.3467,7.3348,7.3219,7.321,7.327,7.3377,7.335,7.3373,7.3291,7.3373,7.334,7.3533,7.3602,7.3551,7.361,7.3656,7.3738,7.3784,7.379,7.3728,7.3981,7.4307,7.4243,7.4087,7.4003,7.3993,7.3828,7.3402,7.313,7.3012,7.3005,7.3194,7.3191,7.3116,7.3051,7.3238,7.3352,7.3326,7.3147,7.2976,7.3038,7.3002,7.315,7.3958,7.6041,7.7566,8.1024,8.3532,8.3873,8.3937,8.2542,7.7223,7.2882,7.2384,7.2544,7.3316,7.3942,7.4274,7.4062,7.4121,7.3876,7.3919,7.3656,7.365,7.3388,7.3516,7.3567,7.3822,7.4018,7.4037,7.3712,7.3713,7.3887,7.403,7.3928,7.4028,7.3986,7.4158,7.4266,7.4245,7.4289,7.443,7.4468,7.4531,7.4587,7.4636,7.4736,7.5026,7.5162,7.5119,7.5091,7.5109,7.5209,7.5392,7.5617,7.5678,7.5903,7.6066,7.6138,7.6152,7.6258,7.6345,7.6597,7.6708,7.6813,7.7003,7.7294,7.7318,7.7452,7.7367,7.7365,7.7295,7.7142,7.674,7.6352,7.6019,7.5714,7.548,7.5194,7.4854,7.4637,7.4372,7.4344,7.438,7.4187,7.3928,7.3755,7.3757,7.3742,7.3802,7.3863,7.373,7.3678,7.3712,7.3716,7.357,7.3611,7.3577,7.3642,7.362,7.3751,7.3778,7.3726,7.3671,7.3659,7.3611,7.3525,7.361,7.3738,7.3681,7.3672,7.3629,7.3657,7.3685,7.3787,7.3764,7.3796,7.3729,7.3682,7.3751,7.3766,7.3794,7.3754,7.3688,7.3732,7.3815,7.3626,7.3538,7.3584,7.3558,7.3559,7.3591,7.3528,7.3385,7.3357,7.3397,7.3399,7.3328,7.3365,7.3418,7.34,7.3347,7.3364,7.3472,7.3597,7.3496,7.3294,7.3339,7.3336,7.3292,7.3311,7.3244,7.3323,7.3434,7.3651,7.3721,7.3656,7.3736,7.3873,7.3852,7.3825,7.3696,7.3879,7.4188,7.4407,7.4194,7.3975,7.3834,7.3748,7.3549,7.3422,7.3195,7.3085,7.3134,7.3236,7.323,7.3184,7.3065,7.3074,7.3176,7.3127,7.3005,7.2927,7.2885,7.2882,7.3405,7.4845,7.7514,8.1035,8.338,8.3845,8.3832,8.2491,7.7412,7.4962,7.243,7.2443,7.3551,7.3869,7.4279,7.3979,7.414,7.3756,7.3906,7.3636,7.3794,7.3586,7.3796,7.3548,7.3874,7.3865,7.409,7.3777,7.3885,7.3849,7.4197,7.4083,7.42,7.3969,7.4138,7.4096,7.4208,7.4182,7.4385,7.4347,7.4619,7.4556,7.4707,7.469,7.4746,7.4829,7.4995,7.4954,7.5053,7.5092,7.5277,7.5506,7.5761,7.5712,7.5799,7.579,7.6017,7.6127,7.6269,7.6495,7.6673,7.6882,7.6987,7.7096,7.7151,7.742,7.7464,7.7524,7.7358,7.7087,7.685,7.6596,7.6307,7.6018,7.568,7.5422,7.5015,7.4669,7.4401,7.4217,7.4051,7.3994,7.3895,7.3813,7.3713,7.3756,7.3785,7.3801,7.3649,7.3616,7.3585,7.3702,7.3643,7.3589,7.3501,7.3635,7.3562,7.3606,7.3597,7.3663,7.3634,7.3663,7.3676,7.3842,7.3789,7.37,7.3475,7.3619,7.3645,7.3643,7.3556,7.3723,7.3802,7.3941,7.3794,7.3726,7.3661,7.369,7.3586,7.3583,7.3503
