8.7897,8.7249,8.6862,8.6619,8.6407,8.6154,8.591,8.5591,8.5587,8.5578,8.5383,8.5299,8.5441,8.5426,8.5108,8.5014,8.5048,8.508,8.4982,8.4999,8.5031,8.5022,8.5041,8.5021,8.5159,8.5104,8.4963,8.5098,8.5086,8.5152,8.514,8.5128,8.5078,8.5084,8.5167,8.5187,8.5266,8.5266,8.5173,8.5154,8.5128,8.5041,8.4994,8.5106,8.5123,8.5174,8.5067,8.494,8.5088,8.5042,8.4962,8.4941,8.4953,8.4812,8.4745,8.4766,8.4761,8.489,8.4987,8.5088,8.5015,8.4842,8.4775,8.4714,8.4785,8.4862,8.488,8.4744,8.4656,8.4653,8.4783,8.4888,8.485,8.4697,8.4602,8.4642,8.4722,8.4739,8.474,8.4697,8.4763,8.4829,8.4854,8.4818,8.4823,8.4883,8.509,8.5093,8.5023,8.5106,8.5366,8.563,8.5645,8.5607,8.5643,8.5652,8.5572,8.525,8.5159,8.4934,8.4809,8.4846,8.4946,8.4911,8.4761,8.4863,8.475,8.4624,8.4612,8.4737,8.4422,8.3139,8.1866,8.1485,8.2953,8.643,9.0306,9.2723,9.6869,9.9319,9.942,9.5695,8.955,8.5912,8.5009,8.476,8.4822,8.4705,8.4834,8.5068,8.5087,8.541,8.5422,8.5521,8.5214,8.5324,8.5262,8.5509,8.5528,8.5597,8.5514,8.5779,8.5856,8.5919,8.5782,8.5945,8.6008,8.613,8.6111,8.6155,8.6172,8.6471,8.6474,8.6815,8.6783,8.6837,8.6757,8.6815,8.7089,8.7265,8.7377,8.7555,8.7731,8.7978,8.83,8.8514,8.8576,8.9009,8.9393,8.9626,8.9865,9.0236,9.0543,9.0725,9.1008,9.1216,9.1313,9.1387,9.1663,9.181,9.1706,9.17,9.1458,9.1163,9.0742,9.02,8.965,8.9149,8.8664,8.8206,8.762,8.7113,8.6887,8.6634,8.643,8.6245,8.6215,8.6044,8.5893,8.5768,8.5711,8.5637,8.5674,8.5648,8.5699,8.564,8.5676,8.5634,8.5617,8.5564,8.5479,8.5585,8.5698,8.5697,8.5767,8.5674,8.5715,8.5694,8.5673,8.567,8.5746,8.577,8.575,8.5733,8.5873,8.598,8.6205,8.5958,8.6058,8.5874,8.5857,8.5775,8.5868,8.5968,8.5954,8.5929,8.5955,8.5929,8.5901,8.592,8.5985,8.6003,8.5943,8.5862,8.5904,8.6004,8.5965,8.5897,8.5874,8.5821,8.5905,8.6025,8.5905,8.5871,8.5857,8.586,8.5904,8.5818,8.5839,8.5885,8.6012,8.6048,8.596,8.5886,8.5911,8.5991,8.6067,8.5961,8.5979,8.5866,8.61,8.6185,8.6238,8.6308,8.6303,8.6377,8.6342,8.6455,8.6665,8.6779,8.7019,8.7002,8.6867,8.6911,8.6712,8.6462,8.6365,8.6205,8.6098,8.5921,8.5919,8.5956,8.5892,8.5895,8.5843,8.5906,8.5948,8.5924,8.5282,8.3986,8.2725,8.2818,8.454,8.8332,9.2085,9.6887,10.004,10.168,9.918,9.3677,8.805,8.6505,8.5979,8.5689,8.5769,8.5552,8.6174,8.6232,8.6631,8.6359,8.65,8.631,8.6452,8.6317,8.6571,8.6487,8.6718,8.6711,8.6781,8.6761,8.6912,8.6771,8.692,8.7141,8.7413,8.7249,8.7238,8.7231,8.7144,8.7354,8.7592,8.7686,8.7814,8.7977,8.8043,8.8101,8.8356,8.8566,8.8822,8.9022,8.9181,8.9205,8.9354,8.9652,8.9836,9.0074,9.0437,9.0757,9.1086,9.136,9.1664,9.1803,9.2013,9.2224,9.2453,9.2621,9.2685,9.2893,9.2809,9.2692,9.2356,9.192,9.1375,9.0879,9.0642,9.0208,8.9551,8.9068,8.8634,8.8296,8.7916,8.7607,8.7405,8.7311,8.7079,8.7,8.6818,8.692,8.6628,8.6814,8.678,8.6712,8.6606,8.6627,8.6688,8.6701,8.6555,8.6628,8.6626,8.6635,8.6561,8.655,8.6654,8.6689,8.6608,8.6686,8.6684,8.6633,8.6692,8.6813,8.6872,8.6777,8.6673,8.6707,8.6758,8.6972,8.6921,8.6865,8.6831,8.6914,8.6986,8.693,8.6916,8.691,8.68,8.6608,8.6617,8.6601,8.6641,8.6685,8.6589,8.6597,8.6516,8.6578,8.6672,8.6793,8.6738,8.665,8.6664,8.6681,8.6562,8.6525,8.6731,8.6719,8.672,8.6607,8.6505,8.6545,8.6537,8.6555,8.6634,8.6677,8.6618,8.6601,8.6646,8.6614,8.6538,8.6469,8.6573,8.6697,8.6911,8.6772,8.668,8.6742,8.6717,8.6815,8.6975,8.7053,8.7113,8.727,8.7428,8.7476,8.746,8.7466,8.7589,8.7427,8.7165,8.691,8.6663,8.6491,8.6429,8.6425,8.6621,8.6406,8.6387,8.6424,8.6402,8.6271,8.6341,8.6033,8.4714,8.351,8.3236,8.3693,8.6074,9.0049,9.4693,9.9509,10.217,10.242,9.8594,9.2039,8.816,8.6921,8.6694,8.6723,8.6611,8.6865,8.6978,8.7017,8.6964,8.6922,8.7025,8.7033,8.7057,8.6947,8.704,8.7048,8.7091,8.7062,8.7167,8.7147,8.7271,8.7258,8.7297,8.7283,8.7432,8.7571,8.7628,8.7617,8.7745,8.7974,8.8076,8.8185,8.8152,8.8331,8.8592,8.8797,8.8872,8.888,8.9095,8.9205,8.9409,8.9641,8.9926,9.0218,9.0508,9.0766,9.1049,9.1196,9.1534,9.186,9.1935,9.2247,9.2456,9.2653,9.2806,9.2989,9.3207,9.3234,9.3214,9.3081,9.2649,9.2224,9.1658,9.1087,9.0522,9.0015,8.9493,8.908,8.8861,8.8424,8.8281,8.7988,8.7882,8.7581,8.7308,8.7374,8.7364,8.7398,8.7349,8.7252,8.7088,8.7229,8.7232,8.7267,8.7161,8.7088,8.7077,8.7043,8.6949,8.6953,8.6902,8.7052,8.7188,8.7151,8.7028,8.6925,8.6811,8.6916,8.687,8.6962,8.7053,8.6961,8.6915,8.6922,8.7003,8.6999,8.7033,8.7165,8.7262,8.7246,8.7241,8.7301,8.7282,8.7281,8.7211,8.7095,8.7011,8.705,8.7067,8.6977,8.6796,8.6817,8.6829,8.693,8.6915,8.6804,8.688,8.6913,8.6826,8.6745,8.6728,8.6678,8.6682,8.675,8.6769,8.6715,8.666,8.6693,8.6791,8.6854,8.6707,8.6644,8.6694,8.664,8.6657,8.6652,8.6632,8.6594,8.662,8.6696,8.6827,8.6594,8.65,8.6517,8.655,8.6538,8.663,8.6683,8.664,8.6638,8.6777,8.6692,8.6739,8.685,8.6935,8.6956,8.7194,8.7422,8.7488,8.7477,8.7328,8.7269,8.7227,8.7038,8.6778,8.6647,8.6476,8.6362,8.6438,8.6426,8.6357,8.6337,8.6206,8.6233,8.6232,8.6185,8.5531,8.3828,8.3155,8.3108,8.4008,8.7214,9.1263,9.6776,10.14,10.412,10.288,9.8092,9.1368,8.8236,8.7731,8.7117,8.6883,8.672,8.7095,8.7016,8.7002,8.6799,8.6826,8.6697,8.6832,8.6857,8.678,8.6674,8.6833,8.6923,8.6907,8.6786,8.6951,8.6915,8.6943,8.6993,8.7022,8.7063,8.7124,8.7328,8.7484,8.7393,8.7284,8.7402,8.755,8.7603,8.779,8.7785,8.7974,8.8092,8.8354,8.8499,8.8615,8.8737,8.8993,8.9115,8.9409,8.9688,9.0098,9.0411,9.0662,9.0768,9.1014,9.122,9.1456,9.185,9.2068,9.2146,9.2311,9.2385,9.2478,9.242,9.1997,9.1641,9.117,9.0767,9.0365,8.9659,8.9066,8.8741,8.8312,8.8121,8.7679,8.7371,8.7115,8.6896,8.6728,8.6581,8.6337,8.6388,8.6431,8.6371,8.6268,8.6167,8.6191,8.6229,8.6233,8.6278,8.624,8.6288,8.6356,8.6392,8.618,8.6099,8.6008,8.6055,8.6077,8.611,8.6034,8.6054,8.61,8.6193,8.618,8.6191,8.6112,8.6109,8.6052,8.6005,8.5959,8.6075,8.6156,8.6142,8.6118,8.6174,8.6069,8.5985,8.5986,8.6053,8.5963,8.5869,8.5849,8.5861,8.5973,8.5808,8.58,8.577,8.5765,8.5809,8.5822,8.576,8.5646,8.5628,8.5673,8.5642,8.555,8.5525,8.5663,8.5591,8.5553,8.5517,8.5474,8.5523,8.5518,8.5606,8.5588,8.5557,8.5455,8.5435,8.5516,8.5519,8.5463,8.5518,8.5482,8.5449,8.5477,8.5479,8.548,8.562,8.5615,8.5461,8.5417,8.5335,8.537,8.5398,8.5405,8.5375,8.5412,8.5447,8.5596,8.5549,8.5524,8.5398,8.5484,8.5611,8.5478,8.5416,8.5352,8.5432,8.5561,8.573,8.5758,8.5565,8.5647,8.5737,8.5977,8.6036,8.6132,8.6117,8.6197,8.6254,8.6244,8.5994,8.5643,8.5476,8.5519,8.5452,8.5423,8.543,8.5462,8.5442,8.5243,8.5283,8.5308,8.5105,8.4602,8.2951,8.1787,8.1961,8.3722,8.571,8.961,9.4829,9.943,10.229,10.148,9.7339,9.0317,8.704,8.6138,8.5807,8.554,8.5635,8.5775,8.5799,8.5947,8.5859,8.5813,8.5708,8.5645,8.5514,8.5729,8.5694,8.5761,8.5809,8.5858,8.5962,8.5982,8.5902,8.6041,8.6047,8.6169,8.6119,8.6101,8.6103,8.6288,8.6449,8.6468,8.656,8.6701,8.6682,8.6851,8.6966,8.7185,8.7291,8.7386,8.7461,8.7575,8.7766,8.7883,8.8267,8.8511,8.8668,8.889,8.9121,8.9561,8.9851,9.011,9.029,9.0367,9.0602,9.0879,9.1108,9.1157,9.1269,9.1581,9.138,9.117,9.0924,9.0514,9.007,8.9638,8.929,8.8559,8.7927,8.7369,8.6964,8.6752,8.6479,8.6201,8.5883,8.5894,8.5801,8.5469,8.5296,8.518,8.5115,8.4991,8.5025,8.5023,8.4957,8.4915,8.503,8.5067,8.5013,8.5001,8.496,8.48,8.4797,8.4785,8.4802,8.484,8.4885,8.4867,8.4922,8.4881,8.4908,8.5,8.5066,8.5006,8.5,8.4941,8.4788,8.4741,8.4796,8.4749,8.477,8.4784,8.47,8.4747,8.4664,8.4566,8.4607,8.4737,8.4738,8.4549,8.4554,8.4539,8.4686,8.4708,8.4607,8.4538,8.455,8.463,8.4608,8.4608,8.4725,8.478,8.48,8.4891,8.4791,8.4624,8.4704,8.4671,8.4713,8.464,8.456,8.4531,8.4516,8.4497,8.4464,8.4415,8.4472,8.4517,8.4449,8.4379,8.4267,8.4301,8.4262,8.4278,8.4418,8.4412,8.4383,8.4365,8.4237,8.4229,8.4121,8.4185,8.4311,8.4273,8.4259,8.4259,8.4184,8.4217,8.4313,8.4448,8.4348,8.4344,8.4362,8.4468,8.4518,8.4534,8.4762,8.4898,8.504,8.5166,8.518,8.507,8.4904,8.459,8.44,8.4312,8.4286,8.4228,8.4162,8.4089,8.4007,8.4153,8.4166,8.4226,8.4087,8.3935,8.3165,8.1588,8.0659,8.1143,8.36,8.7494,9.1918,9.662,9.9258,9.9467,9.5631,8.9409,8.55,8.4642,8.4278,8.4174,8.3974,8.391,8.4152,8.4337,8.4387,8.4274,8.4339,8.4387,8.4396,8.4331,8.442,8.4425,8.4532,8.4676,8.4712,8.4772,8.4734,8.4825,8.4975,8.4874,8.4872,8.5004,8.5179,8.5191,8.5304,8.5251,8.5275,8.5298,8.5579,8.5646,8.5753,8.5834,8.6098,8.6222,8.6395,8.6529,8.6703,8.6937,8.7273,8.732,8.7513,8.7773,8.8101,8.8438,8.8722,8.8877,8.9305,8.9599,8.9791,8.998,9.0074,9.0277,9.0476,9.0528,9.0534,9.0282,8.9938,8.9513,8.9095,8.8891,8.8135,8.7541,8.7043,8.6677,8.6358,8.5934,8.5565,8.5282,8.5149,8.4944,8.4713,8.4686,8.4578,8.4459,8.4313,8.4246,8.4237,8.4267,8.4251,8.4153,8.4163,8.4127,8.4033,8.3981,8.4057,8.4089,8.414,8.4029,8.4034,8.4091,8.4129,8.4185,8.4126,8.4135,8.4178,8.4279,8.4247,8.434,8.4331,8.429,8.4269,8.4293,8.4194,8.4237,8.4146,8.423,8.4347,8.4225,8.4182,8.4229,8.4186,8.4241,8.4234,8.417,8.4327,8.4352,8.4125,8.3972,8.3937,8.3962,8.4017,8.4128,8.3995,8.3783,8.3903,8.3968,8.3969,8.3937,8.4002,8.3947,8.3913,8.3984,8.3923,8.3911,8.3842,8.3996,8.398,8.3989,8.407,8.4007,8.4087,8.4098,8.3995,8.3818,8.3761,8.3748,8.3835,8.3897,8.3858,8.3768,8.391,8.3982,8.4039,8.3967,8.3851,8.3911,8.3952,8.4009,8.3971,8.3869,8.3809,8.3893,8.3969,8.4109,8.4139,8.4141,8.4188,8.4258,8.4215,8.4495,8.4741,8.4953,8.5044,8.4878,8.4634,8.4532,8.4324,8.4211,8.3994,8.3854,8.3833,8.4026,8.3946,8.3844,8.3756,8.3669,8.3776,8.3796,8.3715,8.3092,8.141,8.0343,8.0783,8.2787,8.6727,9.1052,9.6251,9.7779,9.988,9.8792,9.4,8.7596,8.507,8.4528,8.4037,8.4047,8.3636,8.4274,8.4228,8.462,8.4324,8.4468,8.4363,8.4642,8.4347,8.4533,8.4311,8.4506,8.4468,8.4722,8.4532,8.4627,8.4623,8.501,8.5004,8.5117,8.4789,8.4885,8.5034,8.5278,8.5206,8.5324,8.5297,8.5622,8.5637,8.5743,8.5847,8.5937,8.6074,8.6421,8.6534,8.6527,8.6668,8.6848,8.7164,8.7425,8.7701,8.7994,8.8302,8.8579,8.8877,8.9025,8.9348,8.9602,8.981,8.9965,9.0036,9.003,9.0144,9.0245,9.0305,9.0084,8.9715,8.9177,8.8838,8.8339,8.7899,8.7283,8.6851,8.6439,8.606,8.5584,8.5269,8.4992,8.4786,8.4696,8.4689,8.4359,8.4338,8.4227,8.4289,8.4246,8.4294,8.4077,8.4048,8.4176,8.4214,8.4114,8.4029,8.401,8.4042,8.4018,8.4026,8.4005,8.4124,8.4087,8.4329,8.4113,8.408,8.4158,8.4112,8.4095,8.4116,8.4133,8.4228,8.4265,8.4312,8.4145,8.4165,8.4134,8.4256,8.4241,8.4215,8.4127,8.4027,8.406,8.4259,8.4164,8.4047,8.4062,8.4048,8.4182,8.4267,8.4161,8.4022,8.4031,8.3911,8.3846,8.3906,8.3986,8.402,8.4066,8.3928,8.3903,8.3905,8.3864,8.3934,8.3921,8.3906,8.395,8.4029,8.4036,8.4011,8.4009,8.3934,8.391,8.3919,8.3972,8.3961,8.3747,8.372,8.3877,8.3916,8.3838,8.3797,8.377,8.3838,8.3849,8.3907,8.3864,8.383,8.3839,8.391,8.3877,8.3844,8.392,8.3951,8.3925,8.3846,8.3757,8.3826,8.391,8.3915,8.3941,8.3951,8.395,8.4007,8.41,8.4169,8.4124,8.4094,8.4501,8.4604,8.4767,8.4685,8.4694,8.4744,8.4651,8.4407,8.4043,8.3779,8.383,8.391,8.3927,8.3862,8.3811,8.3743,8.3622,8.3652,8.3621,8.3558,8.2753,8.1111,8.046,8.1167,8.3673,8.7381,9.206,9.6982,9.959,9.9607,9.5887,8.9303,8.5666,8.5159,8.4313,8.405,8.3854,8.4058,8.4324,8.4342,8.4439,8.4311,8.4372,8.432,8.4271,8.4254,8.4329,8.4287,8.4529,8.4457,8.4494,8.4556,8.4721,8.4619,8.4669,8.4632,8.4725,8.4806,8.504,8.5059,8.5093,8.5123,8.5322,8.5449,8.5439,8.545,8.5586,8.5803,8.6025,8.61,8.6131,8.62,8.6312,8.6626,8.6991,8.7221,8.7405,8.7731,8.778,8.8023,8.8319,8.8552,8.8805,8.9147,8.947,8.9653,8.9838,8.9931,9.0093,9.0151,9.0112,8.9951,8.9846,8.9602,8.9299,8.8797,8.8264,8.7734,8.7317,8.7121,8.633,8.5817,8.5459,8.5188,8.5036,8.4798,8.4616,8.4546,8.4345,8.4297,8.4384,8.4291,8.4285,8.4217,8.422,8.4183,8.4186,8.4245,8.426,8.4297,8.426,8.4224,8.4145,8.4082,8.4144,8.4342,8.4299,8.4283,8.4269,8.4212,8.4234,8.4156,8.4118,8.4166,8.4256,8.4317,8.4351,8.4319,8.4246,8.427,8.4384,8.4349,8.4336,8.429,8.419,8.4263,8.4228,8.4234,8.4192,8.4116,8.4247,8.4233,8.4141,8.4061,8.3904,8.3954,8.3984,8.4036,8.4026,8.4082,8.4087,8.4037,8.4034,8.4023,8.4051,8.4042,8.3977,8.3975,8.4125,8.4106,8.4072,8.4071,8.3919,8.3875,8.3855,8.3978,8.3953,8.4019,8.3973,8.3891,8.3933,8.4084,8.4106,8.405,8.3956,8.3982,8.3962,8.4047,8.403,8.3959,8.3911,8.398,8.4062,8.408,8.407,8.4041,8.3944,8.3958,8.403,8.4009,8.3948,8.3987,8.4014,8.3968,8.4068,8.4029,8.4096,8.4145,8.4052,8.3994,8.4017,8.4038,8.4089,8.4194,8.41,8.4082,8.4215,8.4296,8.4349,8.447,8.4795,8.4933,8.4967,8.495,8.4971,8.4942,8.4766,8.4656,8.4341,8.4198,8.4099,8.3989,8.3989,8.4134,8.4056,8.4015,8.4064,8.4026,8.3937,8.3915,8.3199,8.1395,8.0624,8.11,8.3099,8.7202,9.1681,9.7116,10.014,10.099,9.9719,9.5012,8.83,8.573,8.5018,8.4516,8.4291,8.4275,8.4582,8.446,8.4559,8.4299,8.4428,8.434,8.453,8.4316,8.4471,8.4431,8.4683,8.4536,8.4571,8.444,8.4575,8.4571,8.4767,8.4738,8.4821,8.4853,8.5018,8.4949,8.5008,8.4991,8.5237,8.5385,8.5426,8.5313,8.5481,8.5467,8.5711,8.5779,8.5993,8.616,8.6371,8.6524,8.6764,8.6996,8.7133,8.7292,8.7527,8.7972,8.8308,8.837,8.871,8.9087,8.9462,8.956,8.9593,8.9629,8.9823,9.0011,9.0128,9.0133,8.9915,8.9688,8.9361,8.9027,8.8442,8.7907,8.7316,8.6968,8.6487,8.61,8.5644,8.528,8.5085,8.4954,8.4555,8.4367,8.4279,8.4354,8.4229,8.4138,8.4055,8.4078,8.4069,8.4221,8.4207,8.4072,8.4013,8.4141,8.4115,8.4079,8.4009,8.4028,8.4027,8.4004,8.3997,8.4007,8.3907,8.3975,8.4002,8.401,8.3953,8.3913,8.396,8.4021,8.4006,8.4112,8.393,8.3918,8.3943,8.3995,8.3991,8.397,8.3943,8.3884,8.404,8.3864,8.3768,8.3701,8.3615,8.3655,8.3642,8.3575,8.355,8.3698,8.3657,8.3548,8.3599,8.356,8.3518,8.3639,8.3677,8.3616,8.3461,8.3481,8.3524,8.3658,8.36,8.358,8.3605,8.3713,8.377,8.3526,8.3468,8.3458,8.3456,8.3571,8.3529,8.3579,8.3639,8.3679,8.3603,8.3566,8.3532,8.3561,8.3538,8.368,8.3624,8.3453,8.3455,8.348,8.352,8.3555,8.3486,8.3534,8.3466,8.341,8.3434,8.3418,8.3461,8.3528,8.3438,8.3432,8.3435,8.3349,8.3425,8.3344,8.3389,8.334,8.3347,8.3308,8.3469,8.3567,8.3712,8.3556,8.3696,8.3783,8.3909,8.3697,8.393,8.4083,8.4326,8.4346,8.4223,8.4181,8.405,8.3888,8.366,8.3599,8.3531,8.3481,8.3364,8.3309,8.3336,8.3374,8.3271,8.3311,8.3371,8.3314,8.2439,8.0716,7.9827,8.0199,8.2405,8.6459,9.0958,9.3778,9.7488,9.9977,9.8106,9.3277,8.6598,8.4595,8.3805,8.3502,8.3325,8.3423,8.3692,8.3732,8.3805,8.368,8.3702,8.3696,8.3901,8.3783,8.3768,8.3692,8.3766,8.3842,8.4013,8.3917,8.3929,8.3821,8.407,8.4018,8.4095,8.4063,8.4053,8.4032,8.4237,8.4326,8.4431,8.455,8.4724,8.4715,8.4808,8.477,8.4934,8.5083,8.544,8.5593,8.581,8.6034,8.6287,8.6617,8.6855,8.729,8.757,8.7894,8.8266,8.8525,8.865,8.877,8.8953,8.9238,8.9346,8.9551,8.9666,8.975,8.9741,8.9592,8.9391,8.8925,8.8549,8.8406,8.7898,8.7381,8.68,8.616,8.5837,8.5485,8.5065,8.464,8.4379,8.4166,8.4053,8.3895,8.3636,8.3663,8.3618,8.3299,8.3188,8.3083,8.3061,8.3175,8.3112,8.3166,8.3205,8.3332,8.339,8.3408,8.336,8.3396,8.3365,8.3432,8.3498,8.3577,8.3572,8.3446,8.3421,8.341,8.3308,8.3281,8.341,8.3409,8.3536,8.3634,8.3649,8.3511,8.3338,8.3332,8.326,8.3189,8.3082,8.3121,8.3092,8.3193,8.3004,8.2918,8.2877,8.2865,8.2783,8.2754,8.255,8.2504,8.2547,8.2527,8.2419,8.2414,8.2661,8.27,8.2721,8.2661,8.2572,8.2534,8.2641,8.2707,8.2642,8.2526,8.226,8.2245,8.2334,8.2299,8.2232,8.2212,8.2248,8.2224,8.2165,8.2126,8.2074,8.2082,8.2037,8.2108,8.2009,8.1995,8.2019,8.2037,8.206,8.215,8.2147,8.2131,8.21,8.2005,8.185,8.1792,8.1859,8.1899,8.1966,8.205,8.2248,8.2297,8.2283,8.2146,8.2162,8.2151,8.2116,8.2127,8.2536,8.2838,8.2776,8.2696,8.2838,8.2655,8.2492,8.2242,8.2041,8.1907,8.1857,8.181,8.1887,8.1764,8.1766,8.1884,8.182,8.1753,8.155,8.1321,8.018,7.8769,7.8409,7.9708,8.2879,8.6839,9.1684,9.5201,9.7217,9.5831,9.0956,8.4998,8.2656,8.1827,8.1591,8.1789,8.1522,8.1937,8.1848,8.1974,8.1861,8.2014,8.191,8.2071,8.1969,8.2217,8.2189,8.234,8.2161,8.2325,8.2218,8.2468,8.2511,8.2638,8.255,8.2646,8.2617,8.2749,8.2777,8.279,8.2911,8.3013,8.3169,8.3173,8.3146,8.3333,8.3533,8.3791,8.3978,8.4091,8.4116,8.4303,8.4571,8.4757,8.4946,8.5173,8.5391,8.5684,8.6136,8.6394,8.6715,8.6986,8.73,8.7356,8.752,8.777,8.8026,8.8119,8.8322,8.8367,8.823,8.8101,8.7751,8.7297,8.6747,8.644,8.6042,8.5499,8.5108,8.4482,8.408,8.3747,8.3575,8.3234,8.2876,8.2465,8.2312,8.2345,8.2313,8.2143,8.2134,8.2107,8.2112,8.212,8.2121,8.2087,8.2132,8.1959,8.206,8.202,8.1998,8.1934,8.198,8.1992,8.1929,8.1908,8.2029,8.1987,8.2027,8.1991,8.2187,8.2269,8.2228,8.2231,8.2188,8.211,8.209,8.2154,8.218,8.229,8.2276,8.2275,8.2373,8.2361,8.232,8.2301,8.2211,8.2194,8.2157,8.2109,8.2188,8.2184,8.2206,8.2259,8.2224,8.2216,8.2139,8.1937,8.1985,8.2113,8.2123,8.2058,8.2077,8.2059,8.197,8.1993,8.2102,8.203,8.2032,8.2036,8.2089,8.2026,8.1916,8.1933,8.1956,8.2027,8.1883,8.1954,8.206,8.2182,8.2193,8.2113,8.2112,8.2016,8.2136,8.2219,8.2142,8.1992,8.2,8.1927,8.1957,8.2078,8.2062,8.2132,8.2214,8.2321,8.2272,8.226,8.2227,8.2391,8.252,8.2887,8.2923,8.2921,8.3002,8.3134,8.2923,8.2715,8.2343,8.2141,8.2051,8.1999,8.1992,8.1964,8.1949,8.1986,8.2039,8.204,8.1914,8.1997,8.1825,8.0854,7.9194,7.847,7.9392,8.2463,8.6489,9.1184,9.5549,9.792,9.7278,9.2853,8.6275,8.3332,8.2855,8.2261,8.2263,8.1991,8.2278,8.2326,8.2566,8.2481,8.2605,8.2578,8.252,8.2444,8.2642,8.2664,8.2736,8.2701,8.2605,8.2709,8.2818,8.2737,8.2752,8.2894,8.3049,8.3137,8.3131,8.3183,8.3244,8.3398,8.3572,8.3588,8.3674,8.3745,8.3924,8.4079,8.4214,8.4199,8.4476,8.4678,8.4839,8.4868,8.5048,8.5204,8.5538,8.5886,8.6117,8.6405,8.665,8.7133,8.7361,8.7592,8.7685,8.7949,8.8251,8.8458,8.8729,8.8789,8.8792,8.8729,8.8581,8.8449,8.8047,8.7653,8.7203,8.6795,8.6392,8.579,8.5218,8.467,8.4308,8.4127,8.3796,8.3534,8.3399,8.3267,8.3041,8.2903,8.291,8.2915,8.2839,8.286,8.2825,8.2784,8.2735,8.2707,8.2684,8.2706,8.2607,8.2666,8.2695,8.2677,8.2683,8.271,8.2541,8.2536,8.2569,8.2809,8.2714,8.2738,8.2838,8.2817,8.2932,8.2944,8.2854,8.2779,8.2837,8.2964,8.2877,8.2946,8.3029,8.3148,8.3082,8.2956,8.2864,8.2878,8.2975,8.2929,8.2959,8.2894,8.2834,8.2912,8.2968,8.301,8.2952,8.2951,8.3065,8.3037,8.3014,8.2872,8.3049,8.3056,8.2919,8.3064,8.2953,8.2947,8.2996,8.3011,8.314,8.3191,8.3185,8.3161,8.3209,8.3293,8.3247,8.3234,8.3184,8.3151,8.3165,8.3124,8.2981,8.304,8.3124,8.3199,8.3193,8.3131,8.3073,8.3084,8.3083,8.3076,8.3062,8.3033,8.3058,8.304,8.3089,8.3085,8.3159,8.3175,8.3289,8.3298,8.3334,8.329,8.3402,8.3617,8.3861,8.394,8.3829,8.3829,8.3903,8.3847,8.3441,8.3026,8.3026,8.2945,8.2951,8.2896,8.2782,8.2696,8.2795,8.282,8.2843,8.279,8.2662,8.1695,7.9973,7.9228,7.9947,8.2571,8.6765,8.9083,9.4492,9.8143,10.013,9.7968,9.2397,8.6436,8.4106,8.3752,8.3121,8.3311,8.3292,8.3749,8.3509,8.378,8.3443,8.3601,8.3247,8.3551,8.3331,8.3573,8.3457,8.381,8.3718,8.3934,8.376,8.3974,8.3865,8.3985,8.385,8.4177,8.4217,8.4296,8.4162,8.4331,8.4273,8.4581,8.4642,8.4754,8.4761,8.4889,8.4972,8.5201,8.53,8.5522,8.5705,8.5862,8.6017,8.6063,8.6398,8.6691,8.7057,8.7226,8.7439,8.7785,8.8111,8.8396,8.8558,8.8804,8.8885,8.9104,8.9281,8.9415,8.966,8.954,8.9476,8.9229,8.8813,8.8364,8.7862,8.736,8.6938,8.6354,8.59,8.543,8.5096,8.4745,8.4589,8.4285,8.4146,8.3911,8.3824,8.371,8.3728,8.3572,8.3556,8.3509,8.3672,8.3605,8.3543,8.3401,8.3385,8.324,8.3345,8.3397,8.3337,8.3254,8.3386,8.3384,8.3367,8.3309,8.3433,8.3356,8.3435,8.3532,8.3674,8.3601,8.361,8.3695,8.3643,8.3505,8.3565,8.3631,8.3879,8.3706,8.3655,8.3561,8.3555,8.3614,8.3786,8.3687,8.3628,8.3631,8.3548,8.3513,8.3453,8.3416,8.3448,8.3503,8.3513,8.348,8.3422,8.3445,8.3534,8.351,8.3457,8.3418,8.3356,8.3353,8.3416,8.345,8.3457,8.3514,8.3566,8.3584,8.341,8.331,8.3271,8.3284,8.3469,8.3468,8.3508,8.3326,8.3442,8.3447,8.3324,8.3324,8.3278,8.3321,8.3441,8.3531,8.3402,8.3432,8.3294,8.3349,8.3486,8.342,8.3415,8.3383,8.3302,8.3436,8.3499,8.3349,8.3315,8.3435,8.3442,8.3406,8.3388,8.3458,8.3504,8.3611,8.3579,8.3632,8.3634,8.3871,8.4067,8.4226,8.4238,8.4161,8.4155,8.4124,8.3826,8.3502,8.3205,8.3176,8.3182,8.3246,8.3158,8.3105,8.3172,8.3215,8.3186,8.3236,8.3071,8.2519,8.0763,7.9661,7.9655,8.126,8.5504,8.9997,9.5644,9.913,10.046,9.748,9.1305,8.6112,8.4951,8.4159,8.3516,8.3302,8.3267,8.3748,8.3654,8.3866,8.3538,8.3763,8.3638,8.3525,8.3162,8.3377,8.3437,8.3655,8.3376,8.3573,8.3578,8.3789,8.3638,8.3777,8.3638,8.3956,8.401,8.4179,8.4015,8.4047,8.4099,8.4376,8.4374,8.4517,8.4505,8.4732,8.4818,8.5062,8.5083,8.5251,8.5421,8.5652,8.5732,8.5947,8.6156,8.635,8.6708,8.7011,8.7224,8.7522,8.7823,8.7982,8.8261,8.854,8.8873,8.9057,8.9055,8.9267,8.9367,8.9317,8.9203,8.9065,8.8883,8.8495,8.8047,8.751,8.7032,8.6483,8.606,8.5463,8.5149,8.4744,8.443,8.4062,8.3803,8.3512,8.3602,8.353,8.3528,8.3311,8.311,8.3024,8.3245,8.3286,8.3191,8.2996,8.2969,8.307,8.3085,8.2978,8.2949,8.2865,8.2933,8.2976,8.3074,8.293,8.291,8.3121,8.3193,8.3015,8.2955,8.2836,8.2907,8.2849,8.2917,8.2931,8.3032,8.3095,8.3135,8.3104,8.3166,8.2897,8.2969,8.2917,8.2816,8.2663,8.2767,8.2722,8.2855,8.2849,8.2869,8.2838,8.2749,8.2766,8.2782,8.2718,8.2796,8.2771,8.2779,8.2739,8.2652,8.2531,8.255,8.258,8.2649,8.2546,8.2507,8.2403,8.2488,8.2444,8.2431,8.2413,8.238,8.2468,8.2461,8.2415,8.2468,8.2377,8.2331,8.2456,8.2427,8.2328,8.228,8.2221,8.2242,8.2254,8.2251,8.2232,8.2173,8.216,8.2142,8.2195,8.2061,8.2228,8.2332,8.2141,8.2137,8.2134,8.2076,8.2259,8.237,8.2388,8.2233,8.2269,8.2255,8.2597,8.2778,8.2891,8.2855,8.2836,8.2865,8.279,8.2391,8.2229,8.2139,8.2015,8.1899,8.1774,8.1747,8.1679,8.1706,8.1721,8.1738,8.1795,8.1632,8.0849,7.9041,7.8116,7.8625,8.092,8.2859,8.6823,9.1936,9.5316,9.7524,9.5529,9.0654,8.4411,8.2575,8.1996,8.1773,8.1768,8.1606,8.189,8.1827,8.1912,8.1792,8.2108,8.2039,8.2059,8.1903,8.1968,8.1909,8.2094,8.208,8.2292,8.2245,8.2379,8.237,8.2368,8.2328,8.2578,8.2575,8.2664,8.2643,8.2696,8.266,8.2923,8.2911,8.3006,8.302,8.3257,8.338,8.3514,8.3584,8.372,8.3962,8.4143,8.419,8.4468,8.4675,8.4979,8.5328,8.5614,8.5852,8.6195,8.6504,8.6828,8.7024,8.7179,8.735,8.7616,8.7908,8.8035,8.7982,8.7875,8.7789,8.7603,8.7379,8.6948,8.6459,8.6005,8.5358,8.4824,8.4247,8.3749,8.3418,8.3165,8.2963,8.2792,8.2467,8.2254,8.2182,8.2064,8.2049,8.1989,8.1789,8.1649,8.167,8.168,8.1681,8.1586,8.1642,8.1759,8.1678,8.1586,8.1673,8.1659,8.1763,8.1692,8.1649,8.1592,8.1681,8.1736,8.1873,8.1727,8.1694,8.1801,8.1989,8.1897,8.1882,8.1778,8.1823,8.1935,8.1893,8.1775,8.1846,8.1893,8.2011,8.1992,8.1934,8.1834,8.1839,8.19,8.1997,8.1968,8.2059,8.1961,8.2064,8.1981,8.1934,8.1834,8.1833,8.1751,8.1806,8.1836,8.1807,8.1823,8.1813,8.1843,8.1921,8.188,8.1896,8.1908,8.2009,8.2029,8.1911,8.1801,8.1974,8.2041,8.2092,8.2133,8.2003,8.1999,8.2037,8.2066,8.2019,8.1983,8.2023,8.2047,8.2186,8.1998,8.2005,8.2007,8.2043,8.2335,8.2429,8.2367,8.254,8.2424,8.2456,8.2767,8.2925,8.3018,8.2997,8.293,8.2861,8.2805,8.2455,8.2261,8.2127,8.2029,8.1966,8.1987,8.1905,8.1881,8.1891,8.1894,8.1959,8.2068,8.2056,8.1596,8.0029,7.89,7.9012,8.1035,8.4762,8.6757,9.137,9.5499,9.7727,9.7088,9.2523,8.623,8.3311,8.2638,8.2328,8.2338,8.2032,8.2455,8.2439,8.2967,8.2786,8.2804,8.2651,8.2982,8.2953,8.3082,8.2791,8.2858,8.2855,8.3042,8.3022,8.3306,8.3207,8.3409,8.3312,8.3385,8.3276,8.3347,8.3386,8.3651,8.369,8.3781,8.3811,8.4002,8.3958,8.4211,8.4447,8.4535,8.4568,8.4772,8.4987,8.5329,8.5531,8.5697,8.581,8.6107,8.6342,8.6852,8.7138,8.7433,8.7667,8.8009,8.8126,8.8414,8.8638,8.8969,8.9076,8.9071,8.9186,8.9194,8.9286,8.897,8.858,8.8098,8.7701,8.7232,8.682,8.6126,8.5651,8.5019,8.4577,8.4186,8.4037,8.3794,8.3741,8.3547,8.3558,8.3403,8.338,8.3197,8.3092,8.3047,8.3058,8.2955,8.2961,8.2957,8.3005,8.2897,8.3006,8.2965,8.2991,8.2952,8.2936,8.2818,8.2856,8.2862,8.3017,8.314,8.314,8.304,8.3065,8.3061,8.3255,8.3209,8.3061,8.3144,8.326,8.3355,8.3468,8.3371,8.3351,8.3247,8.336,8.3424,8.3485,8.3404,8.3465,8.353,8.3629,8.3526,8.3448,8.3396,8.3392,8.3505,8.338,8.334,8.3483,8.3556,8.3444,8.3268,8.3328,8.3425,8.3438,8.3435,8.3333,8.3198,8.3242,8.3339,8.3459,8.3528,8.3609,8.3485,8.3374,8.3197,8.3126,8.3257,8.3326,8.3415,8.3392,8.3427,8.3448,8.3404,8.3431,8.3529,8.352,8.3472,8.3456,8.3416,8.3479,8.3459,8.3424,8.3577,8.3744,8.3745,8.3715,8.3656,8.3765,8.3754,8.4049,8.4411,8.4416,8.4312,8.4268,8.4284,8.4124,8.3943,8.3682,8.3586,8.3557,8.3601,8.3618,8.3603,8.342,8.3475,8.3399,8.3453,8.3507,8.3351,8.2543,8.1001,8.0067,8.0642,8.1421,8.4881,8.9073,9.4383,9.8269,10.043,9.8476,9.3285,8.7175,8.497,8.4495,8.395,8.3781,8.3761,8.4101,8.3973,8.4297,8.3987,8.4184,8.3873,8.4088,8.3879,8.4137,8.4129,8.439,8.4166,8.44,8.4232,8.4441,8.4409,8.4498,8.447,8.4635,8.4631,8.4895,8.4751,8.49,8.4989,8.5205,8.518,8.5292,8.5326,8.5431,8.5607,8.5814,8.5915,8.6064,8.6331,8.6552,8.6813,8.6945,8.7086,8.7366,8.7604,8.798,8.8229,8.8542,8.8896,8.9146,8.9571,8.9621,8.9835,9.0072,9.0287,9.0494,9.0455,9.0386,9.0393,9.0179,8.9888,8.9389,8.8927,8.8409,8.7856,8.7285,8.6776,8.626,8.594,8.5731,8.5651,8.5328,8.522,8.5029,8.4941,8.4862,8.4786,8.4614,8.4546,8.4486,8.4703,8.4621,8.4515,8.4508,8.461,8.4509,8.4614,8.4507,8.4522,8.4502,8.4508,8.4573,8.4598,8.4661,8.4694,8.4761,8.481,8.4873,8.4914,8.4954,8.499,8.4839,8.4886,8.4747,8.4921,8.4983,8.5079,8.5082,8.5023,8.5054,8.5033,8.5038,8.4967,8.4997,8.4933,8.4912,8.501,8.4888,8.4838,8.4794,8.4861,8.482,8.4916,8.4823,8.4752,8.4753,8.4776,8.481,8.4966,8.4757,8.4738,8.4817,8.4707,8.4588,8.4604,8.457,8.4677,8.4703,8.4661,8.4646,8.4596,8.4651,8.4606,8.4486,8.4532,8.462,8.4639,8.471,8.464,8.4597,8.4629,8.464,8.465,8.4764,8.4717,8.4776,8.4775,8.4745,8.4711,8.4548,8.4537,8.4632,8.4784,8.4654,8.4691,8.4739,8.4731,8.496,8.5056,8.509,8.5055,8.5106,8.5054,8.5212,8.5425,8.5546,8.5543,8.5527,8.5686,8.5538,8.5238,8.5052,8.4838,8.4796,8.4702,8.4722,8.4644,8.4647,8.457,8.4628,8.4552,8.4652,8.4728,8.4453,8.3153,8.1469,8.1132,8.2261,8.5653,8.989,9.5025,9.9376,10.183,10.048,9.5778,8.8905,8.6079,8.5567,8.5285,8.5287,8.4923,8.5261,8.5167,8.543,8.5115,8.5249,8.5017,8.5283,8.5159,8.5344,8.511,8.5294,8.5124,8.5361,8.5283,8.5492,8.5393,8.549,8.5406,8.5649,8.574,8.5699,8.568,8.5867,8.5952,8.6223,8.6057,8.6065,8.6275,8.6446,8.6583,8.6662,8.6638,8.6856,8.7045,8.7374,8.7455,8.7682,8.7786,8.81,8.8313,8.8583,8.889,8.9197,8.9481,8.9749,9.0016,9.0279,9.0606,9.085,9.1066,9.1149,9.1101,9.1024,9.123,9.1122,9.0836,9.035,9.0085,8.9546,8.9071,8.8607,8.804,8.7442,8.7012,8.6674,8.6455,8.6027,8.5813,8.5581,8.5518,8.5371,8.536,8.5257,8.5286,8.5214,8.5136,8.4999,8.5019,8.4957,8.5111,8.5018,8.5,8.4964,8.4967,8.4898,8.4999,8.493,8.4886,8.4891,8.4985,8.5075,8.5074,8.4946,8.4869,8.505,8.5183,8.506,8.495,8.495,8.4968,8.5013,8.5018,8.4942,8.4921,8.4913,8.4964,8.4952,8.5022,8.4938,8.4919,8.4905,8.488,8.4798,8.4849,8.4863,8.5009,8.496,8.4822,8.4777,8.4655,8.4687,8.4767,8.4616,8.4605,8.4557,8.4686,8.4661,8.4685,8.4672,8.4683,8.4595,8.4508,8.4554,8.453,8.4539,8.4609,8.4607,8.4629,8.4554,8.4482,8.4564,8.4638,8.4718,8.4703,8.4614,8.4524,8.4502,8.4505,8.4552,8.4466,8.4469,8.4548,8.4549,8.4479,8.4476,8.4405,8.4408,8.442,8.427,8.4391,8.4254,8.4342,8.4488,8.4362,8.4212,8.4262,8.4329,8.4248,8.4241,8.4258,8.4342,8.4386,8.4356,8.4358,8.4352,8.4449,8.462,8.481,8.4941,8.4859,8.4822,8.4881,8.4595,8.4225,8.3964,8.3841,8.3844,8.3759,8.3725,8.37,8.3795,8.3748,8.3767,8.3792,8.3442,8.3222,8.2191,8.0696,8.0264,8.1341,8.448,8.8455,9.3367,9.735,9.9625,9.8175,9.3523,8.7076,8.4588,8.3879,8.3505,8.3505,8.33,8.3793,8.3768,8.3952,8.375,8.3784,8.3769,8.3991,8.3815,8.3988,8.4009,8.4339,8.4697,8.5133,8.5314,8.5524,8.5435,8.5563,8.5376,8.5274,8.523,8.5263,8.5232,8.5276,8.5359,8.542,8.5341,8.54,8.5385,8.5348,8.5369,8.5505,8.5657,8.582,8.5806,8.588,8.6049,8.6314,8.6438,8.6601,8.6882,8.726,8.7416,8.7705,8.8178,8.8386,8.8611,8.8902,8.936,8.9249,8.9373,8.9417,8.9618,8.9744,8.9667,8.9462,8.9167,8.8719,8.8247,8.7744,8.7159,8.6593,8.6365,8.5838,8.5261,8.4775,8.4453,8.4227,8.3943,8.3693,8.3627,8.3455,8.3338,8.3197,8.3042,8.3093,8.311,8.3037,8.3082,8.294,8.2936,8.2815,8.2865,8.2865,8.2995,8.2939,8.2856,8.2866,8.2947,8.293,8.2907,8.2909,8.2827,8.2876,8.2823,8.2887,8.2988,8.2867,8.2837,8.2869,8.2909,8.2892,8.2959,8.3004,8.299,8.2975,8.3009,8.2998,8.319,8.3191,8.3058,8.2779,8.2804,8.2795,8.2884,8.2954,8.2967,8.2886,8.296,8.3007,8.282,8.2783,8.2748,8.2712,8.2748,8.2757,8.2718,8.269,8.2771,8.2724,8.2807,8.2753,8.2653,8.2652,8.2737,8.2703,8.2731,8.2643,8.265,8.2773,8.2792,8.2747,8.2614,8.2547,8.2622,8.2636,8.2616,8.2604,8.2578,8.2718,8.2726,8.2699,8.2675,8.2672,8.2663,8.2728,8.2721,8.2907,8.2942,8.2942,8.2963,8.3143,8.3052,8.3083,8.3211,8.3598,8.359,8.3597,8.3635,8.3679,8.3676,8.3542,8.322,8.2916,8.2914,8.2908,8.2857,8.2879,8.2791,8.2821,8.2784,8.2846,8.2964,8.2912,8.2629,8.166,8.0024,7.9389,8.0267,8.3019,8.7096,9.1861,9.6217,9.8557,9.8012,9.3806,8.7527,8.4248,8.3301,8.3169,8.3259,8.3033,8.3118,8.3189,8.3378,8.3512,8.3558,8.3514,8.3611,8.3571,8.3644,8.3686,8.3736,8.3811,8.3862,8.3932,8.3968,8.4031,8.4097,8.4011,8.4142,8.4329,8.4242,8.4165,8.4203,8.4416,8.4532,8.4686,8.47,8.4834,8.4933,8.5024,8.522,8.5278,8.5384,8.5607,8.5903,8.6135,8.6323,8.6449,8.6682,8.6986,8.7253,8.7575,8.7744,8.802,8.8349,8.8619,8.8931,8.9119,8.9383,8.9625,8.9835,8.9929,8.9872,8.9789,8.9591,8.9318,8.8937,8.8631,8.8149,8.7551,8.7074,8.6478,8.6074,8.5499,8.5146,8.4862,8.4812,8.4495,8.4219,8.3992,8.3952,8.4021,8.3815,8.3832,8.3846,8.373,8.3761,8.3758,8.3652,8.3656,8.3567,8.38,8.3833,8.3642,8.3619,8.3575,8.3602,8.3689,8.3675,8.3727,8.3708,8.3683,8.3804,8.3828,8.3931,8.3981,8.405,8.4119,8.4079,8.4018,8.4089,8.4067,8.4078,8.4191,8.4165,8.4141,8.4163,8.4148,8.4064,8.398,8.4011,8.4085,8.4163,8.4092,8.3984,8.3972,8.4037,8.4092,8.4118,8.3977,8.3925,8.3928,8.4038,8.417,8.4066,8.3992,8.3938,8.401,8.3992,8.4058,8.4026,8.3961,8.4017,8.4057,8.4057,8.4037,8.402,8.3946,8.3951,8.3947,8.3873,8.3993,8.3967,8.4038,8.4012,8.3993,8.4001,8.4027,8.4008,8.3912,8.3935,8.4066,8.4218,8.414,8.413,8.4049,8.4003,8.3891,8.3948,8.3968,8.4009,8.4159,8.4248,8.4323,8.4206,8.4182,8.4182,8.424,8.4247,8.452,8.4712,8.4815,8.4916,8.4926,8.4854,8.4689,8.4637,8.4394,8.4189,8.4053,8.394,8.39,8.3916,8.3896,8.3823,8.3827,8.3819,8.3792,8.3699,8.3296,8.1625,8.0471,8.0679,8.2387,8.6181,8.8275,9.299,9.7867,10.045,10.014,9.5846,8.9064,8.561,8.4931,8.451,8.4306,8.4053,8.4384,8.4401,8.4666,8.4327,8.4343,8.4136,8.4362,8.427,8.4448,8.4336,8.4453,8.4399,8.4729,8.4683,8.4743,8.4595,8.4697,8.4803,8.5032,8.5063,8.5161,8.5142,8.5237,8.5212,8.5308,8.5308,8.5545,8.5614,8.5768,8.579,8.5837,8.6,8.6293,8.6563,8.6772,8.6901,8.6961,8.7201,8.7553,8.7843,8.8004,8.8397,8.8799,8.8951,8.9091,8.9328,8.9601,8.9955,9.0072,9.0272,9.041,9.0434,9.0502,9.0551,9.0407,9.0287,8.9805,8.9337,8.8913,8.8531,8.7843,8.7477,8.7024,8.6468,8.6131,8.5849,8.5416,8.5279,8.5095,8.5008,8.4809,8.4872,8.4748,8.4696,8.4643,8.4632,8.4533,8.4489,8.4455,8.458,8.4603,8.4553,8.4447,8.448,8.4542,8.4574,8.4557,8.4584,8.4533,8.4445,8.4486,8.452,8.4347,8.4377,8.4437,8.4517,8.4483,8.4512,8.4551,8.4505,8.4602,8.4557,8.4484,8.4492,8.4521,8.4518,8.4424,8.4461,8.4437,8.4569,8.4616,8.4508,8.4446,8.4471,8.4376,8.4449,8.4508,8.4465,8.4255,8.4351,8.4396,8.4457,8.4347,8.427,8.4385,8.4367,8.4308,8.4339,8.4244,8.4251,8.4253,8.4323,8.4335,8.4333,8.4401,8.4321,8.4301,8.4357,8.4252,8.4342,8.427,8.4211,8.4316,8.4301,8.4372,8.4399,8.4387,8.4311,8.4329,8.436,8.4338,8.4259,8.4446,8.4429,8.4471,8.4416,8.4465,8.462,8.4614,8.4614,8.4644,8.4708,8.4833,8.4566,8.4532,8.457,8.4587,8.4531,8.4578,8.4558,8.4547,8.4663,8.4687,8.4662,8.4985,8.5069,8.5154,8.5134,8.511,8.5018,8.4888,8.4678,8.4607,8.4302,8.415,8.4172,8.4246,8.4231,8.414,8.4087,8.4082,8.4104,8.4089,8.3995,8.3189,8.1336,8.0633,8.1262,8.3628,8.7767,9.2596,9.7932,10.087,10.134,9.9645,9.1161,8.7924,8.6194,8.5225,8.5116,8.4365,8.4849,8.4745,8.5096,8.4659,8.4767,8.45,8.4845,8.4649,8.4946,8.463,8.4832,8.4708,8.4956,8.4789,8.5041,8.4911,8.5173,8.5015,8.524,8.5117,8.5235,8.5105,8.5275,8.5216,8.5397,8.5432,8.5686,8.5734,8.587,8.5992,8.6127,8.621,8.6416,8.6505,8.6661,8.6777,8.7014,8.7369,8.7649,8.7776,8.8007,8.8196,8.8569,8.8966,8.9184,8.9395,8.9532,8.9908,9.0158,9.0328,9.0422,9.0599,9.0703,9.0755,9.0678,9.0569,9.0186,8.9772,8.9289,8.8829,8.8253,8.7786,8.7234,8.6975,8.6514,8.5976,8.5473,8.5302,8.5064,8.5001,8.4806,8.468,8.4589,8.4667,8.4558,8.4605,8.4368,8.4446,8.428,8.4281,8.4238,8.4253,8.4114,8.426,8.4298,8.427,8.4189,8.4327,8.4207,8.4365,8.4238,8.4134,8.4151,8.4163,8.421,8.4343,8.4282,8.4245,8.4238,8.4246,8.4148,8.4152,8.421,8.4291,8.4314,8.4322,8.4176,8.4211,8.4193,8.4173,8.4113,8.4078,8.4126,8.4216,8.415,8.4174,8.3997,8.3789,8.3773,8.385,8.3933,8.3841,8.3839,8.395,8.3925,8.3895,8.376,8.3741,8.3731,8.3759,8.3816,8.3787,8.3737,8.3648,8.3565,8.3665,8.3707,8.3685,8.3694,8.3688,8.3653,8.3498,8.3505,8.353,8.3391,8.3424,8.3407,8.3351,8.351,8.3504,8.354,8.3361,8.3339,8.33,8.3256,8.3146,8.3285,8.3383,8.3359,8.3296,8.3386,8.3348,8.3428,8.3447,8.3592,8.3571,8.355,8.3415,8.3409,8.3676,8.4008,8.417,8.4147,8.3995,8.4171,8.4036,8.397,8.3739,8.3464,8.3477,8.3592,8.3695,8.3691,8.3564,8.3503,8.3352,8.3315,8.3197,8.2927,8.2316,8.0729,7.984,7.986,8.0844,8.4058,8.7876,9.2744,9.6471,9.8602,9.6978,9.21,8.5826,8.3682,8.3007,8.2763,8.2765,8.2438,8.2837,8.277,8.2999,8.2823,8.3097,8.3045,8.327,8.3118,8.3257,8.3182,8.3317,8.3229,8.335,8.3154,8.3225,8.3302,8.3523,8.3408,8.3398,8.3445,8.3588,8.3686,8.3666,8.3628,8.3866,8.3907,8.403,8.4097,8.4133,8.4221,8.4515,8.4722,8.4889,8.5001,8.5053,8.5356,8.5454,8.5653,8.5987,8.6213,8.6476,8.6909,8.7252,8.7534,8.7651,8.7774,8.8119,8.8389,8.8553,8.8748,8.9049,8.9171,8.9202,8.9079,8.8829,8.8518,8.799,8.7493,8.7003,8.6485,8.5871,8.5475,8.496,8.4489,8.4312,8.4071,8.3891,8.365,8.3363,8.3044,8.2982,8.2975,8.2977,8.2944,8.2893,8.2918,8.2861,8.2884,8.2901,8.286,8.2806,8.2771,8.2793,8.2823,8.2673,8.2786,8.289,8.2966,8.2989,8.2948,8.2958,8.2988,8.31,8.3185,8.3101,8.3069,8.3106,8.3114,8.3118,8.3081,8.3109,8.3198,8.3268,8.3283,8.3246,8.3243,8.3265,8.336,8.3334,8.3372,8.3257,8.3295,8.3257,8.32,8.3145,8.3246,8.3286,8.3438,8.3403,8.334,8.3302,8.3192,8.3164,8.3229,8.3118,8.3145,8.3163,8.3113,8.3241,8.3401,8.3282,8.3255,8.3278,8.3299,8.3337,8.3314,8.3271,8.3328,8.3316,8.3371,8.3359,8.3421,8.3367,8.3432,8.3535,8.341,8.3331,8.3419,8.3566,8.3744,8.3919,8.3828,8.3853,8.3846,8.3887,8.4277,8.4393,8.443,8.4384,8.4375,8.4334,8.4153,8.4037,8.3845,8.3765,8.3616,8.3453,8.3423,8.3543,8.3525,8.351,8.3475,8.3486,8.3438,8.3428,8.2553,8.0736,7.9997,8.0823,8.3563,8.7532,9.2042,9.4746,9.7597,9.9568,9.6807,9.154,8.5712,8.4311,8.3723,8.364,8.3469,8.363,8.3788,8.398,8.4178,8.3985,8.3958,8.3816,8.4049,8.4112,8.4116,8.4029,8.4127,8.4117,8.4236,8.4242,8.4387,8.445,8.4466,8.4541,8.4579,8.4627,8.4704,8.4737,8.4907,8.4906,8.5007,8.5063,8.5204,8.5345,8.5454,8.5538,8.5693,8.5818,8.6061,8.6256,8.645,8.6532,8.6756,8.6981,8.7282,8.7635,8.7889,8.818,8.8602,8.8848,8.8888,8.9282,8.9566,8.9732,8.9836,8.9936,9.0017,9.0083,9.0121,8.9959,8.9725,8.9341,8.8821,8.8352,8.7812,8.7335,8.6633,8.6139,8.5756,8.5432,8.518,8.4844,8.456,8.4304,8.4251,8.4051,8.3795,8.3744,8.3678,8.367,8.3739,8.3697,8.3598,8.3546,8.3564,8.3534,8.3484,8.3443,8.3539,8.3514,8.3552,8.3568,8.3533,8.3582,8.3645,8.3564,8.3498,8.3362,8.3422,8.3381,8.3422,8.351,8.3468,8.3529,8.3577,8.362,8.3671,8.3582,8.3548,8.3613,8.3736,8.3766,8.3689,8.3532,8.3495,8.3586,8.349,8.3508,8.3396,8.3432,8.3408,8.3421,8.3395,8.3448,8.3468,8.3286,8.3393,8.3329,8.3268,8.3235,8.3236,8.336,8.3297,8.3184,8.3018,8.3041,8.3076,8.3109,8.3091,8.3047,8.3069,8.3068,8.3118,8.308,8.3009,8.2981,8.3003,8.2987,8.2967,8.2926,8.2932,8.2849,8.2782,8.2775,8.2808,8.2755,8.2754,8.2797,8.2762,8.2704
