3.2498,3.2571,3.2615,3.267,3.2738,3.2802,3.2791,3.2821,3.2842,3.297,3.3044,3.3099,3.3139,3.3205,3.3284,3.3356,3.3421,3.3482,3.358,3.3693,3.3782,3.3878,3.3981,3.4105,3.4283,3.4416,3.4467,3.458,3.4687,3.4842,3.5057,3.5304,3.5455,3.5568,3.5753,3.5878,3.6028,3.6133,3.6243,3.6326,3.6393,3.6391,3.6327,3.6135,3.5956,3.5653,3.5486,3.5094,3.4747,3.4435,3.4055,3.3712,3.336,3.3099,3.2922,3.2735,3.2629,3.247,3.2377,3.2322,3.2302,3.2237,3.2168,3.2131,3.216,3.2181,3.2222,3.2187,3.2145,3.2182,3.2184,3.2253,3.222,3.2187,3.2231,3.2259,3.2328,3.2301,3.2312,3.2303,3.2369,3.2389,3.236,3.2308,3.2313,3.2334,3.2375,3.2377,3.2342,3.2335,3.2347,3.236,3.2367,3.2301,3.2279,3.2315,3.2323,3.2355,3.2397,3.2478,3.2586,3.2632,3.2594,3.2586,3.2523,3.2644,3.3078,3.3445,3.3469,3.3267,3.318,3.2985,3.2855,3.2693,3.2468,3.2438,3.2346,3.231,3.2315,3.2311,3.2259,3.2216,3.22,3.2204,3.2183,3.2154,3.2166,3.2223,3.2221,3.2168,3.2123,3.2123,3.2117,3.2114,3.2076,3.205,3.2123,3.2592,3.3986,3.6677,3.9239,3.9928,4.1765,3.9386,3.2616,2.8686,2.7576,2.7275,2.7956,2.952,3.088,3.1873,3.237,3.2557,3.2502,3.2592,3.2556,3.2727,3.2667,3.2733,3.2694,3.2792,3.285,3.3014,3.2947,3.3057,3.3091,3.3216,3.3294,3.3321,3.3267,3.3378,3.3416,3.3543,3.3574,3.3645,3.3743,3.3924,3.4081,3.4143,3.4174,3.4281,3.4359,3.4538,3.4726,3.4883,3.5029,3.5187,3.538,3.5533,3.5689,3.5852,3.6011,3.618,3.628,3.6397,3.6489,3.6403,3.666,3.6723,3.6673,3.6565,3.6313,3.6065,3.5695,3.5358,3.4901,3.4578,3.4235,3.3993,3.3664,3.3339,3.3104,3.2948,3.2894,3.2805,3.2717,3.2555,3.2537,3.2534,3.2472,3.2455,3.2396,3.2427,3.2481,3.2511,3.2516,3.2498,3.2503,3.2536,3.2568,3.2537,3.2548,3.2486,3.2559,3.2572,3.2592,3.2575,3.2572,3.2591,3.2628,3.2624,3.2597,3.2617,3.265,3.259,3.2582,3.251,3.2596,3.2594,3.2693,3.264,3.2611,3.2614,3.2679,3.2761,3.2761,3.2762,3.2919,3.2833,3.3079,3.3472,3.3644,3.3607,3.3403,3.3349,3.3256,3.3044,3.2818,3.2708,3.2677,3.2651,3.2567,3.2529,3.2561,3.2491,3.2505,3.2517,3.2541,3.2458,3.246,3.2437,3.2307,3.2241,3.2332,3.2432,3.2464,3.2431,3.2343,3.2352,3.2344,3.2412,3.2559,3.3465,3.5943,3.9092,4.1209,4.2628,3.8592,3.1293,2.8309,2.7197,2.7286,2.8369,2.9595,3.1143,3.2121,3.2757,3.2893,3.2816,3.2921,3.2877,3.2959,3.2917,3.2993,3.3027,3.3215,3.3298,3.3278,3.3237,3.3387,3.3446,3.3543,3.3534,3.3587,3.3667,3.3742,3.3803,3.3895,3.3939,3.3992,3.4053,3.4221,3.4233,3.4286,3.4412,3.4556,3.4717,3.483,3.493,3.5076,3.5268,3.5429,3.5593,3.5646,3.5806,3.5943,3.6167,3.6276,3.6326,3.6391,3.6532,3.6628,3.6685,3.6708,3.665,3.6471,3.6317,3.5962,3.5622,3.5245,3.4897,3.4504,3.4232,3.3903,3.355,3.322,3.3148,3.3095,3.3011,3.2837,3.2666,3.2615,3.2656,3.2613,3.2487,3.2413,3.2462,3.2484,3.2499,3.2454,3.2477,3.2452,3.2552,3.2572,3.2613,3.2606,3.2571,3.2531,3.2609,3.2626,3.2622,3.2608,3.2621,3.2616,3.2598,3.2632,3.2677,3.2668,3.2688,3.2665,3.2553,3.2558,3.2605,3.2639,3.2738,3.2765,3.2779,3.278,3.2897,3.2892,3.3054,3.3437,3.3637,3.3605,3.3357,3.3157,3.3049,3.2969,3.2851,3.2743,3.2585,3.2493,3.2506,3.2546,3.2508,3.2435,3.2358,3.236,3.2448,3.2492,3.2454,3.2378,3.2382,3.2429,3.2452,3.2424,3.2364,3.237,3.2404,3.2418,3.2428,3.2504,3.272,3.3653,3.6146,3.9119,4.0916,4.2637,3.9288,3.2151,2.8531,2.7323,2.7275,2.8323,2.9671,3.1081,3.2048,3.2631,3.2879,3.292,3.3003,3.2927,3.2986,3.3028,3.3143,3.3148,3.3214,3.3278,3.3578,3.3783,3.3982,3.4054,3.4191,3.424,3.4302,3.4314,3.4341,3.4366,3.4451,3.4454,3.4496,3.4611,3.4681,3.4762,3.4889,3.5,3.5043,3.5155,3.5259,3.5446,3.564,3.5711,3.5807,3.5933,3.6137,3.6308,3.6431,3.6509,3.6666,3.6751,3.6834,3.6926,3.6924,3.6974,3.6946,3.6947,3.6801,3.6415,3.6022,3.5692,3.5359,3.5015,3.4635,3.428,3.3978,3.382,3.3584,3.3385,3.3287,3.3224,3.3158,3.3159,3.3017,3.2957,3.294,3.2952,3.2881,3.2876,3.2845,3.2929,3.2899,3.2958,3.293,3.2963,3.2855,3.2902,3.2914,3.2914,3.2885,3.2919,3.2919,3.303,3.3097,3.31,3.3084,3.3084,3.3105,3.3116,3.3055,3.3057,3.3054,3.3079,3.3031,3.3005,3.296,3.3002,3.3089,3.3162,3.3231,3.3184,3.316,3.3134,3.3278,3.3623,3.3852,3.3875,3.3661,3.3533,3.3343,3.3243,3.3142,3.2965,3.2955,3.2821,3.2737,3.2688,3.2688,3.2685,3.2697,3.2613,3.2609,3.2619,3.2622,3.26,3.258,3.2547,3.2505,3.2523,3.2551,3.2522,3.2501,3.2505,3.2494,3.2497,3.2644,3.3412,3.5569,3.8569,4.0195,4.2272,4.029,3.3597,2.9368,2.8213,2.7701,2.8374,3.0032,3.1411,3.2451,3.2834,3.2943,3.299,3.3112,3.3089,3.3192,3.3162,3.3223,3.3249,3.3376,3.3369,3.3465,3.3453,3.3549,3.3602,3.3718,3.3704,3.3821,3.3879,3.3994,3.404,3.4115,3.4162,3.4261,3.4314,3.4458,3.4496,3.4598,3.469,3.4879,3.5019,3.5158,3.5227,3.545,3.5593,3.5809,3.5934,3.6089,3.6262,3.6448,3.6595,3.6663,3.6792,3.6912,3.7024,3.7171,3.722,3.7184,3.708,3.6938,3.6728,3.6396,3.6011,3.5601,3.5234,3.4884,3.4554,3.4192,3.3921,3.3656,3.3594,3.3433,3.3269,3.3141,3.3075,3.3034,3.301,3.2927,3.29,3.2858,3.2841,3.2852,3.2835,3.2799,3.2822,3.2829,3.2842,3.2819,3.2816,3.2813,3.2838,3.2891,3.2904,3.2859,3.2883,3.2881,3.2917,3.2897,3.288,3.2864,3.2886,3.2877,3.2889,3.2865,3.2854,3.2847,3.2889,3.2869,3.2831,3.2839,3.286,3.2922,3.3013,3.3065,3.3172,3.3158,3.3183,3.3182,3.3256,3.3564,3.3911,3.3981,3.3764,3.357,3.3366,3.3233,3.322,3.3117,3.3026,3.2912,3.2838,3.2804,3.2803,3.2712,3.2659,3.2655,3.2644,3.2659,3.2657,3.2615,3.2586,3.2591,3.2619,3.2595,3.2577,3.254,3.2581,3.2587,3.2572,3.248,3.2648,3.3386,3.551,3.8461,4.0081,4.1992,4.0033,3.3522,2.9325,2.8161,2.7657,2.8302,3.0006,3.1374,3.2335,3.2572,3.2846,3.2928,3.3034,3.3024,3.3019,3.3045,3.3121,3.3171,3.3214,3.3215,3.329,3.3323,3.343,3.3456,3.3495,3.3532,3.3613,3.3696,3.3723,3.3772,3.3822,3.3921,3.4024,3.413,3.4193,3.4243,3.4332,3.449,3.464,3.4721,3.4851,3.4993,3.5143,3.536,3.5489,3.5651,3.5827,3.5939,3.6083,3.6248,3.6344,3.6492,3.66,3.6795,3.6856,3.6911,3.6901,3.6872,3.6744,3.6528,3.6169,3.5827,3.5451,3.508,3.4677,3.4313,3.4129,3.3862,3.3612,3.3418,3.3169,3.3025,3.2905,3.287,3.2793,3.2709,3.2629,3.2638,3.2656,3.2665,3.2601,3.2607,3.2592,3.2636,3.2642,3.2631,3.2608,3.2621,3.2639,3.2689,3.267,3.2648,3.2637,3.27,3.2708,3.2731,3.2669,3.2704,3.2712,3.2757,3.2721,3.2692,3.2698,3.2698,3.2714,3.2715,3.2628,3.2653,3.2647,3.266,3.2669,3.2625,3.2639,3.2688,3.2757,3.2848,3.292,3.2919,3.294,3.2965,3.302,3.3379,3.3589,3.3768,3.3654,3.3436,3.3298,3.3099,3.303,3.2887,3.2808,3.2723,3.2622,3.2565,3.2584,3.2568,3.2562,3.2482,3.2473,3.2467,3.2503,3.2493,3.2473,3.2411,3.2439,3.2462,3.2467,3.2403,3.2421,3.241,3.2443,3.2359,3.253,3.3288,3.5369,3.8321,4.0038,4.1915,3.9851,3.3326,3.0499,2.8622,2.7676,2.7922,2.8902,3.0735,3.1833,3.2507,3.2718,3.283,3.2881,3.2946,3.2926,3.2968,3.3002,3.308,3.312,3.3186,3.3159,3.3189,3.327,3.3382,3.3409,3.3448,3.3473,3.3553,3.3656,3.3735,3.3755,3.3816,3.3893,3.4039,3.4105,3.4187,3.4249,3.4419,3.4545,3.4674,3.4718,3.4876,3.5008,3.5196,3.5411,3.5502,3.5663,3.5808,3.6021,3.6177,3.6334,3.6428,3.6548,3.6702,3.6842,3.6872,3.6899,3.6885,3.68,3.6727,3.6464,3.608,3.5754,3.5368,3.5016,3.4632,3.4228,3.392,3.3657,3.3448,3.3289,3.3077,3.2939,3.2895,3.2858,3.2796,3.2695,3.2636,3.2613,3.2597,3.2619,3.264,3.2599,3.2671,3.2639,3.2659,3.2639,3.2625,3.2634,3.2687,3.2745,3.2755,3.269,3.2695,3.2731,3.2776,3.2753,3.2697,3.2681,3.2709,3.2774,3.277,3.2721,3.2741,3.2713,3.2733,3.2748,3.2651,3.2669,3.2689,3.2746,3.2703,3.2652,3.2614,3.2744,3.2915,3.2963,3.2902,3.284,3.2857,3.2855,3.3093,3.3504,3.3683,3.3611,3.3384,3.3271,3.3098,3.3017,3.2871,3.2818,3.2767,3.2675,3.2576,3.2571,3.2575,3.2562,3.2536,3.2492,3.2436,3.2469,3.2532,3.2479,3.2441,3.2468,3.2499,3.2566,3.2526,3.2491,3.2519,3.262,3.2527,3.2576,3.3077,3.3813,3.6255,3.9247,4.0984,4.238,3.8101,3.1058,2.8544,2.7548,2.7652,2.8734,3.0154,3.1533,3.2412,3.2935,3.2955,3.2957,3.3029,3.3053,3.3072,3.3097,3.3221,3.3274,3.3343,3.335,3.3311,3.3346,3.3472,3.3546,3.3639,3.367,3.3737,3.38,3.3866,3.3917,3.3974,3.4053,3.4081,3.4189,3.431,3.4387,3.4465,3.4532,3.4703,3.489,3.502,3.5105,3.5255,3.5414,3.5582,3.5726,3.5855,3.6049,3.6173,3.639,3.6538,3.664,3.6941,3.6979,3.6965,3.7086,3.7298,3.7906,3.791,3.7109,3.619,3.5643,3.5302,3.533,3.5201,3.4918,3.4364,3.3676,3.3425,3.329,3.3311,3.3217,3.3175,3.3019,3.2895,3.3027,3.3041,3.2959,3.3007,3.3509,3.3543,3.305,3.2548,3.2358,3.2625,3.2944,3.2923,3.3012,3.3325,3.3432,3.3534,3.3319,3.344,3.3868,3.3718,3.3342,3.3115,3.2935,3.3207,3.3607,3.3384,3.3133,3.275,3.2853,3.3525,3.3813,3.3619,3.3317,3.3098,3.2702,3.3228,3.3285,3.3299,3.3529,3.3438,3.3496,3.4111,3.4364,3.4384,3.4429,3.4138,3.3483,3.3399,3.3887,3.3438,3.316,3.3262,3.3234,3.3155,3.2937,3.3067,3.2738,3.273,3.2889,3.2906,3.2881,3.2865,3.2932,3.2803,3.2848,3.2941,3.2931,3.2886,3.2836,3.2689,3.2728,3.2671,3.2715,3.3374,3.5591,3.8765,4.1094,4.3116,4.0204,3.3202,2.8845,2.7522,2.7515,2.8479,2.9839,3.1252,3.2298,3.289,3.3254,3.3075,3.3119,3.3177,3.3253,3.3242,3.331,3.3361,3.3457,3.3442,3.3523,3.3582,3.365,3.3613,3.3763,3.3748,3.3875,3.3917,3.4098,3.4141,3.4152,3.4115,3.4184,3.4243,3.4365,3.4478,3.4595,3.4641,3.4811,3.4903,3.5085,3.5198,3.5322,3.5453,3.5668,3.5742,3.5901,3.606,3.6177,3.6339,3.6448,3.6581,3.6689,3.6743,3.6812,3.6865,3.6917,3.6823,3.6707,3.6499,3.6243,3.5889,3.553,3.5094,3.4769,3.4473,3.4147,3.393,3.3736,3.3659,3.3432,3.3232,3.3098,3.3126,3.3179,3.32,3.3137,3.3104,3.312,3.3242,3.334,3.3408,3.3455,3.3513,3.3582,3.3662,3.3798,3.3794,3.3752,3.3804,3.3867,3.3946,3.3889,3.3864,3.3911,3.4021,3.4036,3.4121,3.4148,3.4129,3.4153,3.4175,3.413,3.4169,3.4234,3.4306,3.4326,3.4309,3.4263,3.4264,3.4157,3.4534,3.4777,3.4788,3.4526,3.4372,3.4195,3.3956,3.3829,3.3682,3.3662,3.3564,3.341,3.3412,3.3418,3.3475,3.3594,3.3622,3.3618,3.3677,3.366,3.3737,3.3656,3.3565,3.3558,3.3683,3.3714,3.3797,3.367,3.3579,3.3367,3.3308,3.3587,3.4616,3.5804,3.89,4.1545,4.3119,4.3262,3.7594,3.136,2.9664,2.9007,2.9624,3.1078,3.2535,3.367,3.4135,3.4506,3.4353,3.4425,3.4336,3.4414,3.435,3.4423,3.4373,3.4515,3.4629,3.4846,3.4891,3.5046,3.5029,3.5193,3.5228,3.5345,3.5315,3.5341,3.5465,3.5601,3.5735,3.5837,3.5804,3.5907,3.6119,3.6282,3.636,3.6461,3.6567,3.6725,3.6871,3.7069,3.726,3.7441,3.7606,3.7655,3.7626,3.7758,3.7924,3.811,3.8126,3.8159,3.8216,3.8291,3.8342,3.8331,3.8095,3.7894,3.7733,3.7495,3.7144,3.667,3.6235,3.5866,3.5579,3.5206,3.4966,3.4707,3.4524,3.4438,3.4341,3.4298,3.4184,3.4034,3.4126,3.4136,3.405,3.3944,3.4002,3.3982,3.3977,3.3986,3.3939,3.3888,3.3877,3.393,3.3988,3.3981,3.3945,3.394,3.3984,3.402,3.3909,3.3898,3.4009,3.4093,3.4018,3.3951,3.397,3.3977,3.4047,3.4,3.3995,3.3974,3.3957,3.4029,3.4192,3.426,3.4206,3.4174,3.4247,3.4338,3.4614,3.4916,3.5093,3.4952,3.475,3.4598,3.4397,3.4292,3.4129,3.399,3.3909,3.377,3.3755,3.3789,3.3878,3.383,3.38,3.3725,3.3768,3.3754,3.3706,3.3711,3.3668,3.3589,3.3621,3.3644,3.3647,3.3635,3.3649,3.3576,3.3587,3.3779,3.45,3.6637,3.8194,4.0719,4.2109,4.3489,3.8578,3.187,2.9889,2.8867,2.9222,3.0068,3.2093,3.3051,3.3781,3.3872,3.4102,3.413,3.4137,3.4086,3.4213,3.4149,3.4294,3.4268,3.4385,3.4341,3.4403,3.4405,3.4558,3.4583,3.4655,3.464,3.4696,3.48,3.4917,3.4935,3.4994,3.5072,3.5167,3.528,3.5319,3.5351,3.5488,3.5687,3.5886,3.5902,3.6056,3.6191,3.6396,3.6661,3.6821,3.6952,3.7117,3.7353,3.7489,3.7607,3.771,3.7866,3.797,3.8089,3.8118,3.8134,3.8013,3.7943,3.7752,3.7454,3.7048,3.6694,3.626,3.5928,3.5537,3.5199,3.4865,3.4643,3.4472,3.4387,3.4151,3.4056,3.3971,3.3962,3.3894,3.3863,3.3739,3.3768,3.3747,3.3808,3.3737,3.3686,3.3659,3.3703,3.3745,3.37,3.3545,3.3542,3.3538,3.359,3.3519,3.3508,3.3492,3.3522,3.3618,3.3648,3.3628,3.3699,3.3694,3.3777,3.3788,3.3814,3.3752,3.3772,3.3777,3.3805,3.3715,3.3662,3.3628,3.3674,3.3722,3.3767,3.373,3.3735,3.3701,3.3772,3.4091,3.4396,3.4551,3.4325,3.4167,3.3967,3.3841,3.3761,3.3549,3.3518,3.3417,3.3331,3.3275,3.3271,3.3264,3.3253,3.3198,3.3182,3.3162,3.3185,3.3174,3.3132,3.3098,3.3116,3.3137,3.3174,3.3155,3.3127,3.3181,3.3186,3.3206,3.3528,3.3947,3.5852,3.8835,4.0689,4.241,4.1351,3.521,3.0295,2.9063,2.8412,2.9027,3.0502,3.2041,3.3027,3.3513,3.3583,3.3664,3.3767,3.3825,3.3858,3.3829,3.3891,3.3936,3.4016,3.406,3.4116,3.4149,3.4212,3.4323,3.4374,3.4385,3.4445,3.4494,3.451,3.4517,3.457,3.4668,3.4677,3.4709,3.4762,3.4847,3.4881,3.5083,3.5235,3.5421,3.5544,3.5705,3.5885,3.6106,3.6277,3.6444,3.6594,3.6803,3.6968,3.7116,3.7229,3.729,3.739,3.7507,3.7587,3.7653,3.7624,3.7555,3.7412,3.7184,3.6833,3.6414,3.6049,3.5717,3.5313,3.4943,3.4537,3.4334,3.4082,3.3867,3.3797,3.3606,3.3481,3.3387,3.3392,3.3361,3.3176,3.3174,3.3216,3.3243,3.3245,3.3223,3.32,3.3211,3.3281,3.3311,3.3259,3.3274,3.3314,3.3332,3.3419,3.3395,3.3483,3.3479,3.3519,3.3562,3.356,3.3568,3.3506,3.3577,3.3617,3.3605,3.3566,3.3556,3.3584,3.3615,3.3596,3.3624,3.3626,3.3654,3.3668,3.3749,3.3824,3.3934,3.3981,3.4068,3.4046,3.3863,3.3955,3.4239,3.4297,3.4043,3.3758,3.345,3.334,3.3241,3.3044,3.2986,3.2885,3.2752,3.2757,3.2809,3.28,3.2685,3.2692,3.2775,3.2806,3.2778,3.2751,3.281,3.2813,3.2902,3.2868,3.2819,3.278,3.2774,3.2777,3.278,3.277,3.2794,3.322,3.4738,3.7481,4.0043,4.1574,4.2018,3.6581,3.0365,2.8684,2.7762,2.8217,2.9337,3.1072,3.2185,3.2799,3.3007,3.3122,3.322,3.3201,3.3176,3.3186,3.3266,3.333,3.3356,3.3382,3.3431,3.3567,3.3744,3.3831,3.3945,3.3917,3.3966,3.3977,3.3983,3.4021,3.4027,3.4078,3.4142,3.4191,3.4203,3.4269,3.4339,3.4419,3.4502,3.4496,3.4511,3.463,3.4826,3.5015,3.5244,3.552,3.5737,3.5965,3.6044,3.6176,3.6349,3.6528,3.6714,3.6835,3.6929,3.699,3.6992,3.6956,3.6846,3.6618,3.6309,3.5933,3.555,3.5256,3.4973,3.462,3.4302,3.417,3.3909,3.3646,3.3468,3.3283,3.3247,3.3132,3.3075,3.2975,3.2948,3.2922,3.3027,3.2964,3.2922,3.2892,3.2938,3.2972,3.2967,3.2968,3.2982,3.2972,3.2951,3.3019,3.3072,3.3081,3.3127,3.3109,3.3184,3.332,3.3429,3.3503,3.3616,3.3896,3.3974,3.4003,3.4012,3.3978,3.3759,3.362,3.3364,3.3246,3.3099,3.3007,3.2917,3.2802,3.2714,3.2603,3.2652,3.2604,3.2616,3.2738,3.2793,3.2707,3.274,3.2763,3.2772,3.296,3.3391,3.3578,3.3565,3.3298,3.3095,3.3034,3.3016,3.2918,3.2762,3.2706,3.2612,3.2719,3.2734,3.2745,3.2706,3.2775,3.2767,3.2732,3.2654,3.257,3.2521,3.2458,3.2388,3.2297,3.2247,3.2288,3.2219,3.2127,3.2052,3.196,3.2047,3.2586,3.4275,3.7305,3.9885,4.1993,4.0731,3.8008,3.1187,2.8078,2.7204,2.6967,2.8349,2.9267,3.1029,3.1614,3.2422,3.224,3.2402,3.2276,3.2515,3.2402,3.2608,3.246,3.271,3.2652,3.2883,3.2868,3.3008,3.2819,3.2946,3.2913,3.3154,3.3053,3.3177,3.3185,3.3366,3.3455,3.3571,3.3577,3.3767,3.3813,3.3992,3.3924,3.4018,3.4031,3.4276,3.4455,3.4656,3.4739,3.4924,3.5081,3.5183,3.5267,3.5342,3.5474,3.5831,3.6028,3.6091,3.6142,3.623,3.6324,3.6341,3.6372,3.6324,3.6264,3.5984,3.5747,3.5418,3.5097,3.4622,3.4285,3.3872,3.359,3.3276,3.3041,3.2836,3.2728,3.2572,3.2457,3.2249,3.2221,3.2148,3.2172,3.2119,3.2138,3.2114,3.2186,3.2135,3.2199,3.216,3.2285,3.2266,3.2288,3.228,3.233,3.2313,3.2368,3.2396,3.2415,3.2356,3.2437,3.2419,3.2448,3.2413,3.2446,3.2375,3.2402,3.2356,3.2445,3.2391,3.2368,3.2258,3.2256,3.2227,3.2235,3.2256,3.235,3.2452,3.2569,3.2502,3.2532,3.2519,3.2473,3.2589,3.2999,3.323,3.3346,3.3159,3.2952,3.2753,3.2682,3.2547,3.2429,3.2395,3.2351,3.2289,3.2247,3.22,3.2205,3.2235,3.2196,3.214,3.2121,3.2133,3.2155,3.2148,3.2125,3.2138,3.2136,3.2156,3.2166,3.2122,3.2127,3.2071,3.2027,3.2272,3.3463,3.6133,3.7765,3.9991,4.1995,4.0857,3.4834,2.9034,2.7705,2.6933,2.7643,2.892,3.0445,3.159,3.231,3.2672,3.2715,3.2764,3.2833,3.2885,3.2895,3.2919,3.2964,3.3014,3.31,3.319,3.3212,3.3323,3.337,3.3497,3.348,3.3551,3.3593,3.3682,3.3786,3.3864,3.392,3.4006,3.409,3.417,3.4234,3.4339,3.444,3.4579,3.4702,3.4864,3.4982,3.5196,3.5288,3.5513,3.5632,3.5766,3.5877,3.6026,3.6151,3.6318,3.6409,3.6533,3.6573,3.6633,3.6691,3.6708,3.6648,3.6582,3.6363,3.6121,3.5734,3.5365,3.4985,3.469,3.4343,3.4065,3.38,3.3639,3.3413,3.328,3.3166,3.3084,3.2977,3.2967,3.2942,3.2914,3.2833,3.2812,3.2841,3.2857,3.2857,3.287,3.288,3.2893,3.294,3.2936,3.288,3.2921,3.2964,3.2991,3.2984,3.2982,3.296,3.3032,3.3031,3.304,3.3032,3.3045,3.3083,3.3097,3.3103,3.3094,3.3058,3.3056,3.3065,3.3049,3.3036,3.3044,3.3059,3.3073,3.3093,3.3168,3.3276,3.3324,3.3304,3.3338,3.3338,3.3446,3.3816,3.4102,3.4062,3.3798,3.3629,3.3479,3.3412,3.3359,3.3141,3.3045,3.3008,3.2959,3.2951,3.2908,3.2857,3.2815,3.2814,3.2792,3.2827,3.2786,3.2786,3.2786,3.2787,3.2797,3.2781,3.2749,3.2778,3.281,3.2787,3.2756,3.267,3.2878,3.379,3.6087,3.9074,4.0537,4.266,4.0291,3.3616,2.9779,2.8558,2.81,2.877,3.0507,3.1774,3.2708,3.3076,3.3214,3.324,3.3346,3.3313,3.334,3.3356,3.346,3.3484,3.354,3.3537,3.3618,3.3693,3.3763,3.3774,3.3831,3.3881,3.3969,3.4028,3.4078,3.4145,3.4187,3.4259,3.4389,3.4432,3.453,3.4601,3.4748,3.4875,3.5001,3.5094,3.5232,3.5383,3.5565,3.5742,3.5872,3.6048,3.622,3.6413,3.6577,3.6662,3.6769,3.6924,3.7081,3.7204,3.7265,3.7297,3.7269,3.7257,3.7133,3.6892,3.6556,3.6219,3.5847,3.5515,3.5093,3.4719,3.441,3.4308,3.402,3.3822,3.3611,3.3493,3.3362,3.3308,3.3233,3.3168,3.3123,3.312,3.3114,3.3086,3.3054,3.308,3.3088,3.3109,3.307,3.311,3.3066,3.3147,3.3118,3.3168,3.3134,3.314,3.3162,3.3169,3.3167,3.3174,3.3189,3.3205,3.3246,3.326,3.3253,3.3198,3.3191,3.3204,3.3195,3.3204,3.3167,3.3151,3.3153,3.3179,3.3152,3.3133,3.3142,3.3173,3.3182,3.3245,3.3322,3.3434,3.3443,3.3452,3.3416,3.3502,3.3935,3.4254,3.4304,3.4126,3.3888,3.3703,3.3624,3.3554,3.3395,3.3282,3.319,3.3133,3.3121,3.3089,3.3031,3.3003,3.2991,3.3019,3.2993,3.2975,3.2977,3.2992,3.2997,3.3012,3.2995,3.2943,3.2925,3.2976,3.2972,3.2927,3.2853,3.301,3.3886,3.6099,3.9075,4.0591,4.2661,4.0167,3.3615,2.9845,2.9089,2.8296,2.8483,2.9719,3.1311,3.2472,3.3018,3.3373,3.3357,3.3511,3.3378,3.3514,3.3486,3.3627,3.3608,3.3702,3.367,3.3824,3.3805,3.3878,3.3881,3.3987,3.3972,3.4093,3.4159,3.4228,3.4238,3.4343,3.4391,3.4533,3.4568,3.4655,3.476,3.4884,3.4978,3.51,3.5194,3.5318,3.5408,3.5599,3.572,3.5901,3.6046,3.6217,3.6418,3.658,3.6716,3.6855,3.699,3.7144,3.7278,3.7353,3.7434,3.744,3.7409,3.7287,3.7076,3.6892,3.6606,3.6188,3.5881,3.5463,3.5089,3.4755,3.4488,3.4221,3.3989,3.376,3.365,3.3506,3.3464,3.3349,3.3316,3.3249,3.3273,3.3215,3.324,3.3153,3.322,3.317,3.3247,3.3237,3.3251,3.3243,3.3296,3.3301,3.3338,3.3269,3.3321,3.3321,3.3391,3.3393,3.3368,3.3363,3.3376,3.3376,3.3398,3.3386,3.3351,3.3328,3.337,3.3379,3.3356,3.3289,3.329,3.3259,3.3342,3.3249,3.3241,3.326,3.3309,3.3301,3.3288,3.3269,3.3286,3.3275,3.3326,3.3306,3.3372,3.3501,3.3588,3.3588,3.3561,3.3479,3.3724,3.4176,3.4419,3.4253,3.3989,3.3867,3.3736,3.3745,3.3681,3.3485,3.3323,3.3265,3.3153,3.3216,3.3171,3.3131,3.306,3.306,3.3047,3.3034,3.3038,3.3078,3.3053,3.3106,3.3056,3.3025,3.2992,3.2973,3.2984,3.3006,3.2876,3.2931,3.3243,3.4457,3.7034,3.9812,4.128,4.2827,3.8411,3.1678,2.9394,2.8297,2.8461,2.9356,3.1049,3.222,3.2684,3.3216,3.3368,3.3429,3.3471,3.3418,3.3499,3.3571,3.3616,3.3646,3.3665,3.3804,3.3841,3.3904,3.3899,3.3917,3.4006,3.4054,3.4178,3.4182,3.4257,3.432,3.4378,3.4397,3.4496,3.4598,3.468,3.4767,3.4893,3.4967,3.5064,3.524,3.5383,3.5547,3.5693,3.5813,3.5981,3.6165,3.6258,3.6462,3.6606,3.6719,3.6893,3.7012,3.7184,3.7306,3.7397,3.7434,3.743,3.7427,3.7257,3.7048,3.6785,3.6485,3.6172,3.5807,3.5392,3.5212,3.4867,3.4544,3.4281,3.4026,3.3822,3.3732,3.3668,3.3555,3.3416,3.3358,3.3316,3.3301,3.3282,3.3318,3.3277,3.3253,3.3275,3.3217,3.3207,3.3191,3.3265,3.3337,3.3374,3.3325,3.337,3.3359,3.3346,3.331,3.3291,3.3367,3.338,3.346,3.3393,3.3384,3.3368,3.3432,3.3442,3.3442,3.3354,3.3324,3.3326,3.3358,3.3378,3.3381,3.3321,3.3275,3.3309,3.3317,3.3245,3.3265,3.3268,3.3335,3.3444,3.3523,3.3535,3.3566,3.3628,3.3628,3.3616,3.3918,3.428,3.44,3.4175,3.3968,3.3801,3.3644,3.3619,3.3401,3.3361,3.3226,3.3172,3.3191,3.3213,3.3151,3.3126,3.3098,3.3051,3.3021,3.3035,3.2962,3.2979,3.2991,3.3024,3.3013,3.2989,3.2991,3.3049,3.2952,3.2899,3.281,3.3042,3.397,3.6387,3.4141,4.0194,4.2884,4.1704,3.6695,3.0068,2.8972,2.7523,2.8426,2.9305,3.1115,3.1968,3.3085,3.3139,3.3556,3.3259,3.3588,3.3306,3.3661,3.34,3.3683,3.352,3.3809,3.3616,3.3881,3.3765,3.3952,3.3798,3.4087,3.4019,3.4188,3.4124,3.4301,3.4272,3.4434,3.4422,3.4635,3.4641,3.4772,3.4746,3.4875,3.495,3.5095,3.5166,3.533,3.5461,3.5654,3.5801,3.5907,3.6055,3.6164,3.6385,3.6535,3.6647,3.6819,3.7055,3.7078,3.7144,3.715,3.7151,3.7053,3.7042,3.6879,3.6647,3.628,3.6067,3.5666,3.5383,3.4969,3.4684,3.4381,3.4142,3.3821,3.3609,3.3371,3.3358,3.325,3.3315,3.3177,3.3167,3.2977,3.3054,3.3007,3.3139,3.3053,3.3118,3.3047,3.3174,3.3088,3.3178,3.3072,3.3164,3.3114,3.3153,3.3154,3.3241,3.3183,3.3244,3.3238,3.3286,3.3203,3.3266,3.3216,3.3308,3.3224,3.3268,3.3169,3.3211,3.3194,3.3249,3.3161,3.3187,3.3165,3.3222,3.3167,3.3235,3.3272,3.3433,3.3464,3.3464,3.3418,3.3489,3.3433,3.3856,3.4118,3.4288,3.4069,3.3893,3.371,3.364,3.3557,3.3368,3.3351,3.3329,3.3239,3.3231,3.3163,3.3147,3.3156,3.3169,3.3137,3.3105,3.3062,3.3059,3.3086,3.3061,3.3026,3.3029,3.3095,3.3131,3.3101,3.3073,3.3087,3.3046,3.3039,3.3258,3.4644,3.747,4.034,4.2117,4.3256,3.8511,3.131,2.9025,2.7983,2.8136,2.9356,3.078,3.2167,3.2944,3.3482,3.3515,3.354,3.3577,3.3677,3.3684,3.3735,3.3724,3.3812,3.3837,3.3996,3.3977,3.4077,3.4169,3.4258,3.4219,3.4296,3.4315,3.4463,3.4524,3.4635,3.4646,3.472,3.4747,3.4872,3.4956,3.5104,3.5172,3.5325,3.5454,3.5657,3.5724,3.5893,3.6001,3.6194,3.6378,3.6544,3.6629,3.6807,3.6832,3.6983,3.7068,3.7196,3.7316,3.7489,3.7476,3.7563,3.7507,3.7389,3.7175,3.6971,3.6646,3.629,3.5899,3.5562,3.5218,3.4907,3.4737,3.4496,3.4234,3.4078,3.3903,3.3807,3.3692,3.3645,3.3592,3.357,3.3506,3.3468,3.3427,3.3478,3.3475,3.3484,3.3434,3.3489,3.3522,3.357,3.3564,3.36,3.3545,3.3534,3.3551,3.3579,3.3575,3.3617,3.3637,3.3654,3.3656,3.3642,3.3645,3.3696,3.3665,3.3672,3.3652,3.3634,3.363,3.3634,3.366,3.3635,3.3597,3.357,3.3603,3.3613,3.3627,3.3626,3.3642,3.3714,3.3879,3.3898,3.3879,3.3895,3.3889,3.4157,3.4529,3.4635,3.467,3.4442,3.4312,3.4128,3.4006,3.3947,3.3731,3.3672,3.3627,3.3528,3.3499,3.3447,3.3464,3.3403,3.341,3.3356,3.3374,3.3389,3.3408,3.3356,3.3347,3.3322,3.3316,3.3373,3.336,3.3329,3.3346,3.3323,3.3296,3.3609,3.5019,3.7733,4.0504,4.1805,4.3509,3.8715,3.1993,3.0546,2.9267,2.8574,2.9198,3.0763,3.2149,3.3159,3.3622,3.3727,3.3812,3.3849,3.3865,3.3932,3.3913,3.3982,3.4028,3.4129,3.4171,3.4197,3.4198,3.429,3.4322,3.4424,3.4456,3.4488,3.4567,3.4647,3.4728,3.4773,3.4864,3.4952,3.5087,3.5194,3.5254,3.5356,3.5469,3.562,3.5811,3.5846,3.5999,3.614,3.6322,3.6495,3.6676,3.6804,3.6962,3.7106,3.7271,3.7443,3.7527,3.7613,3.7762,3.785,3.7921,3.7879,3.7784,3.7611,3.7517,3.7241,3.6889,3.6446,3.6089,3.573,3.5413,3.5064,3.4784,3.4533,3.4384,3.4189,3.4057,3.3923,3.3855,3.3789,3.3749,3.3699,3.3634,3.3599,3.3619,3.3608,3.3576,3.356,3.3538,3.3583,3.3606,3.3614,3.3609,3.3588,3.3637,3.3658,3.3664,3.3647,3.3658,3.3664,3.3689,3.3655,3.3676,3.3671,3.3684,3.3698,3.3692,3.3673,3.3644,3.365,3.365,3.3636,3.3637,3.3613,3.3605,3.3602,3.3613,3.3581,3.3552,3.3581,3.3597,3.365,3.3698,3.3799,3.3829,3.3876,3.3866,3.3848,3.409,3.4517,3.4663,3.4517,3.4283,3.4119,3.3996,3.3925,3.379,3.3656,3.3598,3.358,3.352,3.3519,3.3462,3.3443,3.3379,3.3388,3.3392,3.34,3.3323,3.3305,3.3275,3.3302,3.332,3.3296,3.3264,3.3264,3.326,3.3266,3.3213,3.3205,3.3616,3.5199,3.803,4.0513,4.1831,4.276,3.7497,3.1334,2.9514,2.8535,2.8832,2.9901,3.1705,3.2742,3.3411,3.3607,3.3716,3.3761,3.3782,3.3761,3.3813,3.3886,3.3947,3.3982,3.4015,3.4037,3.4102,3.4191,3.4221,3.4262,3.4299,3.4362,3.4454,3.4498,3.4549,3.4637,3.4677,3.4758,3.484,3.4943,3.4995,3.5106,3.5201,3.5318,3.5441,3.553,3.5707,3.5885,3.6057,3.6199,3.6265,3.6412,3.6608,3.6825,3.6933,3.6985,3.713,3.7282,3.7425,3.7541,3.7552,3.7612,3.7615,3.7553,3.7403,3.7175,3.6849,3.646,3.6045,3.5688,3.5298,3.4993,3.4706,3.4423,3.4364,3.4149,3.3881,3.3773,3.3723,3.3723,3.3617,3.3472,3.3467,3.3504,3.3518,3.3491,3.3412,3.3408,3.342,3.3499,3.3498,3.3538,3.3508,3.3554,3.3596,3.3649,3.3678,3.3717,3.3833,3.406,3.4193,3.4307,3.4224,3.4196,3.4343,3.452,3.4536,3.4508,3.4561,3.4672,3.4763,3.4645,3.464,3.4586,3.4515,3.4479,3.4469,3.4407,3.4382,3.4417,3.4566,3.4707,3.4639,3.4567,3.4511,3.4571,3.487,3.512,3.5097,3.4916,3.4792,3.4678,3.4519,3.4353,3.4197,3.4099,3.4027,3.3947,3.3896,3.3783,3.3783,3.3753,3.3722,3.3733,3.3643,3.365,3.3647,3.3574,3.3538,3.355,3.359,3.3599,3.3606,3.3588,3.3601,3.3587,3.359,3.3888,3.486,3.7176,4.0046,4.1436,4.3172,3.9706,3.2974,2.9824,2.88,2.8648,2.8877,3.0176,3.1841,3.299,3.3623,3.3886,3.3895,3.3948,3.3966,3.4056,3.4002,3.4089,3.4085,3.4134,3.4135,3.418,3.4224,3.4318,3.4353,3.4381,3.4456,3.4508,3.4534,3.4652,3.4701,3.4774,3.4839,3.4938,3.5042,3.5159,3.5239,3.5336,3.5468,3.5568,3.5757,3.5961,3.6088,3.6204,3.6267,3.6448,3.6632,3.6841,3.7009,3.7138,3.7361,3.7539,3.7681,3.7805,3.791,3.7967,3.8065,3.8027,3.7973,3.7806,3.7666,3.7339,3.7012,3.6833,3.6432,3.6009,3.5662,3.5272,3.5039,3.4779,3.4551,3.4341,3.4108,3.3984,3.3904,3.3936,3.3883,3.3778,3.3722,3.3713,3.3846,3.3777,3.3736,3.3711,3.3699,3.3785,3.3852,3.3826,3.385,3.384,3.3825,3.3924,3.4001,3.3981,3.3943,3.3893,3.3882,3.3903,3.3884,3.4009,3.4036,3.4038,3.3968,3.3945,3.3957,3.398,3.4085,3.4177,3.4189,3.4113,3.4136,3.4165,3.442,3.4769,3.4944,3.4917,3.4704,3.453,3.4395,3.4272,3.4255,3.4128,3.4127,3.4041,3.39,3.3864,3.3868,3.3849,3.3737,3.3748,3.3806,3.3828,3.3767,3.3804,3.3786,3.3749,3.3798,3.3725,3.3704,3.3706,3.3741,3.3773,3.3786,3.3772,3.4006,3.4837,3.6997,4.0062,4.2119,4.384,4.054,3.3596,2.9492,2.8318,2.8168,2.9119,3.0525,3.2024,3.2744,3.3414,3.4113,3.4154,3.4344,3.4285,3.435,3.4298,3.4421,3.4413,3.4643,3.4624,3.4765,3.4706,3.4758,3.4762,3.4817,3.4799,3.494,3.495,3.5149,3.5236,3.5323,3.5311,3.5418,3.5505,3.5625,3.5722,3.5768,3.5826,3.5872,3.6024,3.6181,3.6313,3.653,3.6694,3.6886,3.6974,3.7161,3.7256,3.7308,3.7449,3.766,3.7755,3.7898,3.7996,3.8064,3.8153,3.8002,3.8002,3.7879,3.7727,3.7355,3.6922,3.653,3.623,3.604,3.5724,3.5362,3.5128,3.486,3.4682,3.4497,3.4423,3.4281,3.4217,3.4216,3.4145,3.4071,3.397,3.3944,3.4019,3.4004,3.4075,3.3989,3.3985,3.3989,3.4203,3.4137,3.4092,3.4042,3.3987,3.4004,3.408,3.4092,3.417,3.4197,3.4191,3.4136,3.4123,3.4163,3.4343,3.4463,3.4552,3.4509,3.4476,3.4432,3.4501,3.4661,3.5018,3.5251,3.5136,3.4916,3.4773,3.4636,3.4522,3.4396,3.4218,3.4195,3.4094,3.4021,3.4052,3.403,3.4031,3.395,3.3908,3.3926,3.3903,3.3915,3.396,3.3883,3.3912,3.3927,3.3889,3.3843,3.3842,3.3858,3.3898,3.3887,3.4083,3.4638,3.6366,3.7867,4.0796,4.26,4.3924,4.0584,3.3117,2.9175,2.7951,2.8143,2.9298,3.0854,3.2316,3.3518,3.4035,3.4464,3.444,3.4559,3.4424,3.4573,3.4485,3.4664,3.4691,3.4863,3.4783,3.4927,3.4935,3.5068,3.5047,3.5165,3.5141,3.5294,3.5311,3.5474,3.5459,3.5593,3.5615,3.5752,3.5825,3.5915,3.5982,3.6092,3.62,3.6353,3.6462,3.6599,3.6767,3.6978,3.7097,3.7243,3.741,3.7547,3.7722,3.7875,3.8025,3.8101,3.8195,3.8315,3.8387,3.8512,3.8538,3.8433,3.8276,3.8086,3.7836,3.75,3.7167,3.6733,3.6398,3.6042,3.567,3.5412,3.5225,3.5067,3.4943,3.4764,3.4699,3.4615,3.4615,3.4553,3.4497,3.4405,3.4419,3.4408,3.4428,3.439,3.4413,3.4433,3.4455,3.4455,3.4477,3.4464,3.4493,3.4502,3.4562,3.454,3.4557,3.4545,3.46,3.4611,3.4692,3.4648,3.4643,3.4658,3.4782,3.486,3.495,3.4921,3.4984,3.5005,3.5172,3.5531,3.5774,3.5718,3.5612,3.5422,3.5268,3.5106,3.4996,3.4907,3.4774,3.466,3.4535,3.4455,3.4465,3.4437,3.4434,3.4388,3.4391,3.4425,3.4421,3.4434,3.4371,3.433,3.4319,3.4324,3.4363,3.4369,3.4335,3.4312,3.4326,3.4309,3.4562,3.5441,3.7856,4.0913,4.2413,4.4497,4.1641,3.4511,3.067,2.9526,2.9151,2.9636,3.0931,3.2658,3.3894,3.4445,3.4764,3.4718,3.4875,3.4849,3.4933,3.4907,3.5017,3.5052,3.5163,3.517,3.5258,3.525,3.537,3.5363,3.5482,3.5474,3.557,3.5594,3.5716,3.5732,3.5813,3.5865,3.5972,3.6079,3.6197,3.6272,3.6405,3.6528,3.6697,3.683,3.6952,3.7104,3.7178,3.7358,3.7551,3.7708,3.7832,3.801,3.8176,3.8372,3.8504,3.8612,3.8711,3.8846,3.8907,3.8927,3.8848,3.8727,3.8504,3.8234,3.7837,3.7662,3.7241,3.6869,3.6517,3.6136,3.5845,3.5594,3.5343,3.5179,3.5023,3.4906,3.4792,3.4731,3.4706,3.4659,3.4601,3.4589,3.4582,3.4564,3.455,3.4577,3.4548,3.4565,3.46,3.4624,3.461,3.4653,3.464,3.4686,3.4672,3.469,3.4659,3.4649,3.466,3.4728,3.469,3.4712,3.4678,3.4709,3.472,3.4744,3.4738,3.4808,3.4872,3.5026,3.5005,3.4981,3.4944,3.5043,3.5408,3.5723,3.5722,3.5479,3.5358,3.5184,3.5018,3.4909,3.4781,3.4686,3.4656,3.4612,3.4533,3.4501,3.4443,3.4444,3.4396,3.4416,3.4352,3.4346,3.4343,3.4363,3.4345,3.4323,3.4302,3.4345,3.4323,3.4337,3.4293,3.4266,3.4226,3.442,3.5124,3.7241,4.0229,4.1944,4.3919,4.2145,3.552,3.1031,2.9804,2.9379,3.0044,3.1683,3.3074,3.4075,3.4374,3.4661,3.472,3.4794,3.4795,3.4873,3.4901,3.4948,3.4963,3.4983,3.5052,3.5128,3.5171,3.5211,3.5241,3.5327,3.5417,3.5444,3.5469,3.5533,3.5601,3.5707,3.58,3.5864,3.5945,3.6024,3.6151,3.6247,3.6346,3.6447,3.6617,3.6749,3.6918,3.7029,3.7219,3.7378,3.7585,3.7683,3.784,3.7972,3.8113,3.8252,3.8417,3.8506,3.8621,3.869,3.8731,3.8702,3.8644,3.8431,3.8163,3.7986,3.7643,3.7058,3.6661,3.6245,3.6121,3.5803,3.5504,3.5238,3.5027,3.4847,3.4735,3.4619,3.4542,3.4455,3.4412,3.4384,3.4374,3.4334,3.4312,3.4311,3.4337,3.4322,3.427,3.4296,3.4314,3.4312,3.4353,3.4332,3.4349,3.4352,3.4372,3.4387,3.4383,3.4366,3.4384,3.44,3.4404,3.4382,3.4376,3.4382,3.4398,3.4386,3.4376,3.4341,3.4323,3.4326,3.4346,3.4368,3.4414,3.4476,3.4586,3.4589,3.4564,3.4535,3.4623,3.4995,3.5299,3.5352,3.5096,3.4914,3.4767,3.4701,3.4635,3.4458,3.4355,3.4278,3.4253,3.4198,3.4165,3.4122,3.4097,3.4087,3.4109,3.4045,3.4019,3.4025,3.4007,3.402,3.3999,3.3991,3.3997,3.3964,3.3997,3.3989,3.3977,3.3929,3.4185,3.5047,3.7203,4.013,4.1681,4.3648,4.0889,3.4276,3.0563,2.9433,2.9055,2.977,3.1514,3.2254,3.3316,3.3996,3.4253,3.4331,3.4387,3.4343,3.4412,3.4453,3.4518,3.4543,3.4572,3.4638,3.4708,3.4729,3.4751,3.4815,3.485,3.4899,3.4966,3.5054,3.507,3.5128,3.5197,3.5311,3.5386,3.5445,3.5506,3.559,3.5733,3.581,3.5956,3.6086,3.6178,3.6381,3.6511,3.6671,3.6827,3.6913,3.7065,3.7256,3.7382,3.7554,3.7681,3.7879,3.8025,3.8132,3.8182,3.8272,3.8274,3.8231,3.7997,3.7786,3.7478,3.7126,3.6727,3.6327,3.6138,3.5786,3.5447,3.5222,3.4921,3.4725,3.4508,3.4426,3.4258,3.4137,3.398,3.3965,3.3939,3.3959,3.3895,3.3907,3.3912,3.3939,3.3915,3.3935,3.3904,3.392,3.3902,3.3953,3.3941,3.3943,3.39,3.3938,3.3981,3.4011,3.3959,3.393,3.3933,3.3965,3.3948,3.3895,3.3858,3.3865,3.395,3.3935,3.3887,3.3809,3.3743,3.3737,3.3812,3.3824,3.3765,3.3731,3.3695,3.3687,3.367,3.3647,3.3686,3.3803,3.395,3.3979,3.3949,3.3919,3.3903,3.3937,3.4375,3.4701,3.4756,3.4551,3.4324,3.4177,3.411,3.4023,3.3842,3.3786,3.3742,3.3657,3.3591,3.3506,3.3557,3.3535,3.3485,3.3474,3.3484,3.3439,3.345,3.3406,3.3369,3.338,3.3392,3.3415,3.3445,3.3438,3.3393,3.3382,3.3374,3.3652,3.4789,3.7295,3.8817,4.0915,4.2927,4.1404,3.5203,3.0091,2.8911,2.8195,2.8913,3.0164,3.1779,3.2864,3.3469,3.3556,3.3627,3.3696,3.3755,3.3765,3.3755,3.375,3.3903,3.3985,3.4027,3.4067,3.4098,3.4092,3.4152,3.4202,3.4229,3.4299,3.4381,3.4445,3.4562,3.4627,3.4694,3.4794,3.4841,3.4908,3.4942,3.5012,3.5116,3.5262,3.5389,3.5518,3.5609,3.5724,3.584,3.6031,3.624,3.6399,3.6603,3.6795,3.6908,3.6963,3.7101,3.7221,3.7397,3.7464,3.7528,3.7628,3.7623,3.7512,3.7318,3.7088,3.6791,3.646,3.5967,3.562,3.5291,3.4944,3.4597,3.4373,3.4116,3.3954,3.3746,3.36,3.36,3.3537,3.3478,3.338,3.3346,3.3343,3.3348,3.3328,3.3268,3.3248,3.3321,3.3377,3.3346,3.3322,3.3248,3.3287,3.3267,3.3322,3.337,3.3375,3.3353,3.3309,3.3292,3.332,3.3343,3.3237,3.3249,3.3336,3.3362,3.3319,3.3199,3.313,3.3139,3.321,3.3233,3.3192,3.3194,3.3204,3.3267,3.3355,3.3418,3.3369,3.3402,3.3473,3.3418,3.3695,3.4018,3.4164,3.4006,3.385,3.3684,3.3514,3.3419,3.3351,3.3216,3.3054,3.2975,3.2921,3.2979,3.3001,3.2935,3.2928,3.2875,3.2857,3.281,3.2818,3.2846,3.2785,3.2798,3.2728,3.2758,3.2762,3.2675,3.2635,3.2637,3.2633,3.2547,3.2841,3.4062,3.6735,3.9664,4.1678,4.277,3.8119,3.0929,2.8355,2.7162,2.7458,2.8863,3.0087,3.1532,3.2316,3.2894,3.3081,3.312,3.3135,3.3153,3.3201,3.3231,3.3261,3.3307,3.3317,3.342,3.3563,3.3605,3.3649,3.3709,3.364,3.3725,3.3812,3.3886,3.3977,3.4016,3.404,3.4194,3.4279,3.4368,3.4424,3.4417,3.4517,3.4602,3.4774,3.4877,3.5006,3.5182,3.5293,3.5385,3.5546,3.5755,3.5889,3.6025,3.615,3.6177,3.6344,3.6405,3.657,3.6671,3.6756,3.6784,3.678,3.6692,3.6515,3.6335,3.5963,3.5599,3.5261,3.4908,3.4521,3.4223,3.3968,3.3785,3.3775,3.3624,3.3292,3.314,3.3014,3.2964,3.2816,3.2817,3.2836,3.2863,3.2888,3.2855,3.2795,3.2777,3.2825,3.2803,3.2811,3.2764,3.28,3.2834,3.2908,3.2921,3.2878,3.288,3.2924,3.2989,3.3007,3.3012,3.2991,3.3025,3.2986,3.2985,3.2891,3.2909,3.2889,3.2921,3.2948,3.295,3.2974,3.3012,3.3153,3.3244,3.3223,3.3218,3.326,3.3292,3.3651,3.3979,3.4078,3.3812,3.3673,3.3504,3.3359,3.3301,3.3129,3.3018,3.2983,3.2965,3.2911,3.2861,3.2805,3.2861,3.2885,3.2838,3.2792,3.2744,3.2745,3.2716,3.2693,3.2713,3.2733,3.2765,3.2743,3.273,3.269,3.2682,3.2652,3.2761,3.3162,3.4683,3.7623,4.0338,4.1654,4.2722,3.7627,3.0361,2.8139,2.7158,2.7572,2.8785,3.0475,3.1785,3.2622,3.301,3.3054,3.3158,3.3214,3.3268,3.332,3.3353,3.3399,3.3412,3.3581,3.3523,3.3578,3.3681,3.3739,3.3843,3.391,3.3949,3.4,3.4097,3.4178,3.4234,3.424,3.4311,3.4361,3.4481,3.4594,3.4701,3.478,3.4901,3.5039,3.5177,3.531,3.5481,3.5655,3.5821,3.5942,3.6061,3.6221,3.6407,3.6458,3.6636,3.6742,3.6831,3.6923,3.7004,3.7093,3.7131,3.705,3.6921,3.6717,3.6453,3.6121,3.5723,3.5362,3.4969,3.4591,3.4252,3.3978,3.3849,3.3611,3.348,3.3317,3.3172,3.3077,3.2991,3.2965,3.2937,3.2886,3.2838,3.2827,3.2849,3.2855,3.2821,3.2818,3.2837,3.2877,3.293,3.2903,3.2908,3.2912,3.2938,3.2921,3.2905,3.2897,3.2898,3.2925,3.2943,3.2972,3.2945,3.2948,3.2987,3.3002,3.2973,3.2939,3.2938,3.291,3.2925,3.2953,3.2897,3.2886,3.2923,3.3032,3.318,3.3214,3.319,3.3205,3.3202,3.3515,3.3831,3.3956,3.3777,3.3615,3.3469,3.3349,3.3239,3.3153,3.2988,3.2969,3.2931,3.2841,3.2787,3.275,3.2772,3.2729,3.2727,3.2687,3.2686,3.2684,3.2674,3.2635,3.2629,3.2638,3.2663,3.2658,3.2665,3.2596,3.2632,3.2597,3.265,3.3139,3.4921,3.7821,4.0039,4.1462,4.1942,3.6158,3.019,2.8485,2.7633,2.8171,2.941,3.1236,3.2288,3.271,3.3003,3.306,3.3096,3.3108,3.3126,3.3208,3.322,3.3297,3.3342,3.3419,3.3437,3.3491,3.3534,3.3679,3.3718,3.3764,3.3746,3.3821,3.3823,3.3946,3.4004,3.4098,3.4175,3.4299,3.4374,3.4488,3.4588,3.464,3.4717,3.4867,3.5058,3.5223,3.5325,3.5466,3.5672,3.5855,3.5953,3.6107,3.6286,3.6446,3.6618,3.6768,3.6852,3.6958,3.7087,3.7153,3.7177,3.7139,3.7029,3.6804,3.6518,3.613,3.5707,3.5295,3.495,3.4765,3.4443,3.4109,3.3875,3.3577,3.337,3.3203,3.3088,3.2989,3.2972,3.2955,3.295,3.2866,3.2785,3.2736,3.2718,3.273,3.2736,3.2738,3.2755,3.2729,3.2793,3.2775,3.2728,3.2715,3.2771,3.282,3.2835,3.2788,3.2813,3.278,3.2855,3.2875,3.2912,3.2874,3.2832,3.2812,3.2767,3.2746,3.2757,3.2797,3.2837,3.2783,3.2835,3.2887,3.2916,3.2939,3.2982,3.2958,3.2849,3.2919,3.299,3.3172,3.3589,3.387,3.3918,3.3623,3.3522,3.3333,3.3222,3.3121,3.2922,3.2847,3.2752,3.2662,3.267,3.2683,3.2651,3.2621,3.2586,3.2573,3.2549,3.2575,3.2545,3.2524,3.2407,3.2426,3.2477,3.2491,3.2487,3.2508,3.2481,3.2465,3.2437,3.2664,3.3557,3.5896,3.8875,4.0599,4.2451,3.8849,3.1946,2.8702,2.7627,2.7584,2.7904,2.9159,3.0902,3.2038,3.2528,3.2748,3.2774,3.291,3.2943,3.3014,3.2987,3.3065,3.3121,3.3268,3.3278,3.3298,3.3284,3.339,3.3439,3.3513,3.3462,3.3581,3.3625,3.3757,3.3812,3.3879,3.3888,3.4013,3.4141,3.4194,3.4198,3.429,3.4393,3.459,3.4782,3.4896,3.4979,3.5129,3.5216,3.5419,3.5637,3.5816,3.5967,3.6104,3.6255,3.6301,3.6343,3.6457,3.6679,3.6819,3.6922,3.6881,3.6767,3.6562,3.6442,3.6168
