1.6974,1.6939,1.7296,1.7467,1.7054,1.6976,1.678,1.7251,1.7191,1.7028,1.718,1.7176,1.7483,1.7661,1.7399,1.6943,1.731,1.7471,1.7827,1.7336,1.701,1.7364,1.7561,1.7615,1.7284,1.7005,1.7218,1.7619,1.7984,1.7515,1.7322,1.7369,1.7395,1.8162,1.8132,1.7374,1.7628,1.8242,1.8803,1.8317,1.7906,1.8183,1.8646,1.9183,1.9011,1.852,1.8698,1.9109,1.9602,1.9427,1.8915,1.8763,1.8992,1.9546,1.9505,1.8944,1.8573,1.8621,1.8684,1.8624,1.8296,1.7924,1.7753,1.7953,1.8383,1.7546,1.7124,1.7436,1.8124,1.8178,1.7774,1.7249,1.7062,1.7578,1.7745,1.7158,1.7499,1.7611,1.7799,1.8181,1.7703,1.7047,1.7212,1.782,1.7641,1.7356,1.7472,1.7888,1.7952,1.8052,1.7872,1.7503,1.7404,1.7402,1.7766,1.7801,1.752,1.7456,1.7734,1.8134,1.7961,1.7615,1.7591,1.8186,1.8346,1.8095,1.7283,1.7226,1.7762,1.7954,1.7861,1.7451,1.7161,1.7492,1.8157,1.8154,1.7538,1.7236,1.741,1.7906,1.7932,1.7548,1.7463,1.7835,1.7805,1.7733,1.7422,1.7341,1.7506,1.7584,1.8269,1.7891,1.7535,1.7358,1.7474,1.7801,1.7872,1.7434,1.7557,1.7855,1.7971,1.7385,1.6991,1.732,1.8064,1.7965,1.7773,1.7774,1.7409,1.7689,1.8404,1.854,1.8064,1.7818,1.8064,1.8965,1.885,1.8313,1.7824,1.8503,1.8928,1.8729,1.83,1.8337,1.8458,1.8299,1.8102,1.7942,1.7689,1.7848,1.8101,1.7852,1.7232,1.6877,1.7159,1.793,1.8212,1.7481,1.6987,1.7331,1.7717,1.7605,1.728,1.7081,1.7205,1.7291,1.7725,1.7946,1.8309,1.9503,2.2187,2.3496,2.5531,2.5589,2.42,2.2067,2.1097,1.9632,1.7583,1.7628,1.8484,1.9075,1.802,1.7681,1.7518,1.7617,1.7916,1.8164,1.7477,1.7376,1.7539,1.8299,1.7817,1.7385,1.7484,1.7567,1.7986,1.8015,1.7516,1.7558,1.7751,1.819,1.799,1.774,1.7435,1.7663,1.8147,1.8075,1.7907,1.7797,1.7645,1.8096,1.8208,1.7673,1.7498,1.7873,1.8532,1.8577,1.7926,1.7795,1.8058,1.8681,1.8826,1.8627,1.8327,1.8366,1.9003,1.9258,1.9159,1.9133,1.8923,1.9384,1.9993,1.9683,1.9293,1.9266,1.981,2.0023,1.9533,1.8956,1.9148,1.9643,1.9713,1.9313,1.8632,1.8546,1.8551,1.8694,1.8626,1.8199,1.7964,1.8093,1.8397,1.8112,1.7561,1.7592,1.7989,1.8336,1.8259,1.7666,1.7472,1.738,1.7836,1.8143,1.779,1.7371,1.7642,1.7787,1.8209,1.7934,1.7944,1.7969,1.7977,1.811,1.7684,1.7621,1.7918,1.7919,1.8253,1.7943,1.7761,1.7741,1.7977,1.8306,1.8074,1.7584,1.7981,1.8119,1.7899,1.8164,1.7803,1.7405,1.8045,1.82,1.8145,1.7518,1.75,1.7728,1.8154,1.8404,1.7944,1.7758,1.7508,1.7914,1.7891,1.7347,1.7418,1.7585,1.7967,1.8224,1.7771,1.7636,1.748,1.7907,1.7958,1.7381,1.7196,1.7873,1.8109,1.8195,1.7721,1.7334,1.7298,1.7665,1.808,1.7591,1.7188,1.7494,1.7815,1.7926,1.7509,1.7412,1.7341,1.7597,1.8254,1.7771,1.7358,1.7265,1.7372,1.8009,1.7656,1.7205,1.7326,1.7653,1.8259,1.835,1.783,1.7632,1.8151,1.8746,1.8422,1.7738,1.7779,1.8233,1.8559,1.8675,1.8111,1.7998,1.8145,1.8723,1.8617,1.7842,1.7519,1.7535,1.793,1.7733,1.7232,1.7253,1.7655,1.7748,1.7647,1.7312,1.6927,1.7354,1.7836,1.7557,1.7257,1.7038,1.7212,1.7469,1.7734,1.7118,1.6877,1.7647,1.9364,2.0673,2.2065,2.3883,2.6004,2.5964,2.4386,2.132,1.9464,1.894,1.8184,1.8207,1.8173,1.8087,1.7961,1.7879,1.8157,1.7933,1.7519,1.8022,1.7811,1.7934,1.7794,1.7399,1.7457,1.7911,1.7917,1.7758,1.7308,1.7346,1.7652,1.8154,1.8272,1.7706,1.732,1.7797,1.8018,1.8251,1.7749,1.7477,1.7851,1.8142,1.7679,1.7663,1.7975,1.7927,1.7875,1.8294,1.791,1.7664,1.8024,1.8464,1.8748,1.8211,1.8123,1.8337,1.8663,1.9096,1.908,1.8756,1.8854,1.9229,1.968,1.9236,1.9146,1.9426,1.9937,2.0251,1.9906,1.9237,1.9391,1.97,1.9941,1.9855,1.9346,1.9051,1.9188,1.9821,1.8983,1.8027,1.8036,1.8414,1.891,1.8362,1.7787,1.7922,1.8059,1.8279,1.8132,1.7631,1.763,1.7815,1.8274,1.8122,1.744,1.7571,1.7958,1.8231,1.8297,1.7794,1.7435,1.7686,1.8327,1.8238,1.7635,1.7429,1.7902,1.8124,1.8461,1.8084,1.7553,1.7583,1.8052,1.8171,1.8166,1.7968,1.7753,1.7893,1.8017,1.7809,1.7436,1.7613,1.803,1.8202,1.7715,1.7673,1.7614,1.7654,1.8043,1.8159,1.7497,1.7331,1.759,1.7996,1.774,1.7267,1.7508,1.7846,1.8064,1.7993,1.7413,1.7158,1.7579,1.7826,1.7884,1.7755,1.7384,1.7375,1.7619,1.7697,1.7414,1.7118,1.732,1.7609,1.7732,1.7458,1.6935,1.709,1.7673,1.7836,1.7577,1.7334,1.7496,1.7787,1.794,1.7579,1.7126,1.7106,1.7476,1.7657,1.728,1.7087,1.7045,1.7497,1.76,1.7387,1.7456,1.7275,1.7622,1.7925,1.7524,1.7337,1.7535,1.7765,1.8424,1.8324,1.7456,1.7309,1.7738,1.827,1.8146,1.7984,1.7983,1.7888,1.8623,1.8567,1.7897,1.7707,1.7843,1.8011,1.793,1.7341,1.7145,1.7431,1.7505,1.7307,1.7151,1.6935,1.6953,1.7152,1.7298,1.6814,1.6718,1.7025,1.7399,1.7487,1.7004,1.6479,1.671,1.7549,1.8188,1.8164,1.8546,2.0127,2.2843,2.5546,2.5726,2.4214,2.2007,2.0441,1.9845,1.8465,1.7176,1.699,1.786,1.8282,1.7778,1.7384,1.7268,1.7552,1.7463,1.7225,1.723,1.7525,1.7228,1.7335,1.7545,1.6868,1.6864,1.722,1.7715,1.7492,1.6844,1.6665,1.6834,1.7739,1.7642,1.6845,1.7054,1.741,1.767,1.7697,1.7294,1.7246,1.7397,1.7469,1.7484,1.7245,1.7267,1.7672,1.7843,1.7797,1.7938,1.7792,1.7609,1.7962,1.849,1.8157,1.7837,1.7959,1.8278,1.8567,1.8358,1.8397,1.8565,1.8984,1.9308,1.9264,1.8734,1.8512,1.8991,1.9168,1.8957,1.8994,1.8783,1.8977,1.8631,1.8098,1.8049,1.8071,1.7848,1.7752,1.8014,1.7714,1.704,1.719,1.7588,1.7784,1.7048,1.6481,1.7012,1.7698,1.741,1.6776,1.6363,1.7008,1.7724,1.7791,1.7094,1.6488,1.6691,1.7408,1.7399,1.6913,1.6862,1.6813,1.717,1.7597,1.6998,1.6659,1.6824,1.7349,1.7338,1.6683,1.6567,1.6779,1.6978,1.7452,1.7257,1.667,1.6555,1.6643,1.7316,1.7002,1.6339,1.6464,1.6791,1.7118,1.6778,1.6284,1.6234,1.6476,1.6904,1.687,1.626,1.6126,1.635,1.6533,1.6808,1.6189,1.6026,1.6285,1.6779,1.6717,1.632,1.607,1.6526,1.6594,1.6747,1.6112,1.5776,1.6251,1.6729,1.6773,1.6308,1.6104,1.586,1.6062,1.6326,1.6106,1.6158,1.627,1.6376,1.6568,1.6138,1.6141,1.6025,1.6847,1.7125,1.6332,1.6416,1.6601,1.677,1.6888,1.6891,1.6507,1.6238,1.6624,1.7062,1.6817,1.6414,1.6421,1.6535,1.6691,1.6237,1.6021,1.5934,1.5786,1.6156,1.5932,1.5489,1.5332,1.5659,1.5897,1.6075,1.5519,1.5282,1.5547,1.5979,1.5944,1.5663,1.5367,1.5426,1.6317,1.7096,1.7947,1.98,2.2098,2.5155,2.4826,2.2527,2.0105,1.9236,1.8963,1.7866,1.6567,1.571,1.6358,1.6873,1.7147,1.6651,1.6303,1.5883,1.627,1.6851,1.6434,1.5966,1.6144,1.6454,1.6704,1.616,1.597,1.5845,1.6359,1.6834,1.6343,1.5949,1.6109,1.6446,1.6875,1.6644,1.6053,1.593,1.6443,1.6841,1.685,1.6585,1.68,1.6444,1.6826,1.7012,1.6676,1.6466,1.6475,1.6706,1.7026,1.6847,1.6794,1.6901,1.7288,1.7915,1.7292,1.7058,1.7478,1.8027,1.8037,1.775,1.756,1.7751,1.8319,1.8518,1.8405,1.8184,1.7981,1.827,1.8591,1.8237,1.7635,1.7174,1.7912,1.8145,1.7332,1.7155,1.7002,1.7281,1.7316,1.6773,1.6429,1.621,1.6465,1.7092,1.6768,1.6135,1.6185,1.6506,1.7,1.6967,1.6151,1.6118,1.6355,1.6479,1.6462,1.624,1.6289,1.6798,1.6739,1.6443,1.6065,1.6011,1.6261,1.6777,1.694,1.645,1.6482,1.6491,1.6591,1.6887,1.665,1.6219,1.6293,1.6676,1.6988,1.6568,1.5983,1.6242,1.6677,1.6526,1.6427,1.6089,1.6262,1.6565,1.6669,1.6513,1.6208,1.6247,1.6468,1.6534,1.6053,1.5978,1.6008,1.6415,1.6828,1.641,1.601,1.6056,1.6046,1.6308,1.6407,1.6221,1.5954,1.61,1.6356,1.6438,1.5968,1.5932,1.6102,1.6527,1.6687,1.6062,1.5802,1.6061,1.6565,1.6248,1.5792,1.5935,1.6017,1.6458,1.6526,1.6213,1.6095,1.5974,1.6332,1.6484,1.5911,1.5915,1.6162,1.6515,1.6146,1.5791,1.602,1.6273,1.6833,1.6973,1.6659,1.6649,1.6812,1.6936,1.7148,1.7136,1.6681,1.6628,1.7103,1.7443,1.7218,1.6668,1.6865,1.7008,1.7441,1.6656,1.6109,1.6307,1.6811,1.6892,1.6279,1.6021,1.5972,1.6301,1.6682,1.6237,1.5983,1.5793,1.6203,1.6629,1.645,1.5701,1.5622,1.623,1.6236,1.6512,1.6705,1.7203,1.9019,2.1567,2.2645,2.4681,2.487,2.3494,2.1734,2.0035,1.8719,1.7034,1.6301,1.6774,1.7434,1.7068,1.6686,1.6611,1.6884,1.6884,1.6874,1.6475,1.6565,1.6683,1.6909,1.6833,1.6717,1.6402,1.6707,1.6919,1.6916,1.6423,1.671,1.7088,1.6789,1.6421,1.6384,1.6652,1.7012,1.7116,1.6849,1.6699,1.6561,1.6851,1.7397,1.7374,1.68,1.657,1.6902,1.7171,1.7368,1.7044,1.6995,1.7313,1.7612,1.7715,1.7332,1.7657,1.7697,1.7919,1.8026,1.7886,1.7632,1.7894,1.8545,1.8982,1.8432,1.8204,1.8493,1.8917,1.9012,1.8751,1.8519,1.8501,1.8724,1.8892,1.7983,1.7377,1.7854,1.8086,1.8032,1.7574,1.7048,1.7097,1.7088,1.7325,1.7122,1.6582,1.6617,1.6849,1.7343,1.698,1.6456,1.6253,1.6677,1.7341,1.7035,1.6734,1.6699,1.6672,1.7065,1.719,1.6487,1.6447,1.6759,1.7066,1.7241,1.6644,1.6302,1.6543,1.6801,1.6811,1.6802,1.6754,1.6643,1.7355,1.7441,1.662,1.626,1.6326,1.6828,1.6957,1.6801,1.6836,1.6514,1.6589,1.711,1.6874,1.6318,1.6194,1.6562,1.6888,1.6597,1.6345,1.6504,1.6934,1.7105,1.6712,1.6334,1.6203,1.6654,1.7106,1.6886,1.634,1.659,1.6659,1.6646,1.6619,1.6503,1.638,1.6633,1.7013,1.6598,1.6261,1.6375,1.657,1.6817,1.6824,1.6436,1.649,1.6558,1.6884,1.6825,1.6357,1.6092,1.6449,1.7143,1.6989,1.6159,1.6329,1.652,1.6761,1.6784,1.6219,1.6238,1.6507,1.6765,1.7145,1.6813,1.6547,1.6449,1.6819,1.7085,1.6881,1.6569,1.6388,1.6675,1.7231,1.7099,1.6731,1.6986,1.739,1.7624,1.7431,1.7268,1.7474,1.7357,1.7672,1.7879,1.7386,1.7273,1.7538,1.7965,1.777,1.7282,1.7041,1.7268,1.7743,1.7379,1.6504,1.6399,1.6616,1.7041,1.6622,1.6347,1.6182,1.6777,1.7038,1.7004,1.6551,1.6436,1.6794,1.6683,1.6665,1.6406,1.6218,1.6611,1.7795,1.8903,2.0007,2.1813,2.452,2.6012,2.554,2.3463,2.0677,1.9539,1.8611,1.7686,1.709,1.7073,1.7211,1.7522,1.7856,1.727,1.6846,1.6814,1.7146,1.7726,1.7145,1.6689,1.6858,1.7135,1.7312,1.7113,1.7038,1.6981,1.7451,1.7541,1.7257,1.6953,1.6998,1.724,1.7511,1.742,1.7049,1.7094,1.7404,1.7544,1.7449,1.7367,1.7138,1.7247,1.7606,1.7579,1.7389,1.723,1.7435,1.7724,1.7861,1.7721,1.7699,1.788,1.8417,1.8546,1.8021,1.83,1.8488,1.8638,1.8944,1.8614,1.8604,1.8717,1.8861,1.9162,1.9059,1.8788,1.879,1.9257,1.955,1.9229,1.8665,1.8347,1.882,1.9031,1.8175,1.7761,1.7846,1.8128,1.8282,1.8076,1.7357,1.7002,1.713,1.7576,1.7741,1.716,1.6983,1.7222,1.7395,1.7324,1.6929,1.6967,1.7551,1.7761,1.7224,1.6712,1.6734,1.7026,1.7397,1.742,1.7182,1.684,1.7022,1.7362,1.755,1.697,1.6592,1.6764,1.7293,1.7479,1.6909,1.6708,1.7067,1.7255,1.723,1.7253,1.7266,1.707,1.7088,1.7049,1.7049,1.6956,1.6718,1.6923,1.725,1.6863,1.6551,1.6668,1.6844,1.7032,1.6858,1.6447,1.6327,1.681,1.7354,1.6857,1.6469,1.6575,1.6682,1.6988,1.7157,1.6485,1.635,1.6625,1.6779,1.7,1.6477,1.6409,1.6574,1.7066,1.6952,1.6381,1.6333,1.673,1.7114,1.7066,1.6697,1.6403,1.6233,1.6641,1.6947,1.6646,1.6567,1.6579,1.6827,1.6894,1.6514,1.627,1.6258,1.657,1.6962,1.6788,1.6337,1.6673,1.6943,1.7061,1.6785,1.6371,1.6299,1.6662,1.6964,1.6606,1.6253,1.6284,1.6612,1.7004,1.6917,1.643,1.6508,1.7049,1.7308,1.7187,1.7084,1.7102,1.7238,1.7716,1.7478,1.712,1.685,1.7204,1.7741,1.7722,1.7499,1.7361,1.7196,1.7453,1.7362,1.6689,1.6538,1.6778,1.705,1.697,1.6311,1.6075,1.6499,1.6734,1.6707,1.6367,1.6442,1.6288,1.65,1.6991,1.6683,1.5931,1.5733,1.647,1.7448,1.7441,1.8133,2.0279,2.257,2.472,2.5306,2.3972,2.2478,2.0391,2.0041,1.8617,1.6958,1.6351,1.6694,1.7715,1.7576,1.705,1.657,1.7047,1.7118,1.6741,1.642,1.6363,1.6764,1.7218,1.7413,1.6714,1.6398,1.6492,1.6661,1.7124,1.6529,1.6517,1.6811,1.7164,1.7346,1.6691,1.6415,1.6531,1.7069,1.7189,1.6548,1.6392,1.7064,1.7476,1.732,1.6905,1.6569,1.7133,1.7191,1.7456,1.7203,1.7134,1.7233,1.7582,1.7875,1.7685,1.73,1.7479,1.8445,1.8551,1.7722,1.7752,1.8032,1.8353,1.8949,1.8628,1.8274,1.8626,1.8555,1.9009,1.8497,1.8079,1.8413,1.8281,1.8599,1.8165,1.7567,1.7559,1.764,1.8225,1.7956,1.7352,1.7023,1.7138,1.7359,1.7411,1.7028,1.6402,1.6831,1.7133,1.7206,1.663,1.6363,1.6743,1.7135,1.6934,1.633,1.6549,1.6597,1.7021,1.737,1.6838,1.6516,1.6539,1.7041,1.7001,1.7029,1.6754,1.6445,1.681,1.7257,1.656,1.6455,1.6636,1.6985,1.7297,1.7005,1.6227,1.6375,1.6505,1.6921,1.7077,1.6613,1.659,1.665,1.6854,1.6916,1.6758,1.638,1.6058,1.73,1.7142,1.6316,1.6208,1.6333,1.6836,1.6864,1.6104,1.5974,1.6545,1.7127,1.6878,1.624,1.6065,1.6384,1.6729,1.6887,1.6638,1.6405,1.6455,1.6794,1.6885,1.6415,1.6287,1.6327,1.6849,1.6978,1.6836,1.6252,1.6528,1.6903,1.6932,1.6552,1.5967,1.6208,1.6777,1.6841,1.6618,1.6175,1.6267,1.6493,1.7093,1.6939,1.6747,1.6893,1.7276,1.7468,1.7404,1.6795,1.6796,1.7093,1.7345,1.7578,1.7489,1.7294,1.7185,1.755,1.7331,1.6953,1.6719,1.697,1.7564,1.7203,1.6506,1.6371,1.6638,1.6844,1.6823,1.6211,1.6213,1.6464,1.6676,1.6847,1.6327,1.6254,1.6295,1.6537,1.6836,1.6323,1.5577,1.6039,1.6938,1.7443,1.8064,1.9639,2.0899,2.3202,2.5717,2.4829,2.3056,2.0348,1.9701,1.9029,1.7448,1.6476,1.6753,1.7429,1.759,1.7123,1.6448,1.6682,1.7122,1.7319,1.6763,1.6655,1.6718,1.6779,1.7032,1.7127,1.6692,1.6601,1.6967,1.7369,1.7105,1.6407,1.6398,1.7114,1.7297,1.7429,1.6809,1.6667,1.6872,1.7225,1.7339,1.7142,1.6866,1.6905,1.7245,1.7677,1.7406,1.6986,1.7154,1.7547,1.7937,1.729,1.7296,1.7495,1.7769,1.8009,1.7804,1.7645,1.8046,1.8429,1.8817,1.8664,1.8054,1.8213,1.8709,1.9255,1.8979,1.8835,1.8722,1.8917,1.9186,1.8927,1.8517,1.8328,1.8564,1.8767,1.8311,1.7676,1.7468,1.7797,1.798,1.7838,1.7359,1.7279,1.7439,1.7746,1.7591,1.6987,1.6772,1.7,1.7319,1.7267,1.7258,1.7105,1.696,1.7514,1.7492,1.7011,1.6849,1.6986,1.7331,1.7641,1.714,1.672,1.7138,1.7423,1.7484,1.7117,1.7188,1.7141,1.7532,1.7572,1.6858,1.7098,1.6922,1.743,1.7533,1.7164,1.6856,1.691,1.7092,1.7584,1.7414,1.6859,1.6746,1.6926,1.7324,1.7102,1.7067,1.6829,1.6799,1.7246,1.7273,1.6709,1.6615,1.6558,1.6921,1.7146,1.6654,1.651,1.6843,1.7015,1.7069,1.6511,1.6497,1.6716,1.7273,1.7397,1.6766,1.6344,1.655,1.6833,1.6946,1.689,1.6538,1.642,1.6778,1.7126,1.6776,1.6513,1.6296,1.6724,1.7403,1.6986,1.639,1.6172,1.6924,1.7169,1.6805,1.6501,1.6377,1.6602,1.6834,1.6646,1.6748,1.666,1.6838,1.7121,1.6841,1.6432,1.6734,1.7256,1.7726,1.748,1.6941,1.7059,1.7664,1.7836,1.7372,1.7303,1.7508,1.7417,1.7653,1.7867,1.7255,1.69,1.7012,1.746,1.7242,1.6339,1.6239,1.6542,1.6918,1.6708,1.6243,1.651,1.6492,1.6665,1.6718,1.6431,1.5974,1.6175,1.6395,1.6564,1.6513,1.5966,1.5815,1.6568,1.7626,1.8339,1.9955,2.2017,2.4591,2.5952,2.4432,2.1771,1.9901,1.9349,1.8168,1.6639,1.6341,1.7117,1.7446,1.774,1.7423,1.6816,1.6628,1.7056,1.763,1.7397,1.6537,1.6554,1.6647,1.7236,1.7404,1.6688,1.6645,1.7213,1.7492,1.7022,1.6727,1.6627,1.6858,1.7345,1.716,1.6886,1.7088,1.7211,1.7432,1.7486,1.7392,1.7085,1.6849,1.742,1.739,1.7205,1.737,1.7606,1.8107,1.7611,1.7422,1.7294,1.7799,1.7856,1.8309,1.8018,1.7863,1.8418,1.883,1.9139,1.8477,1.8346,1.8396,1.9007,1.9494,1.9268,1.8716,1.8879,1.9407,1.9607,1.9153,1.8659,1.8529,1.896,1.8854,1.847,1.8071,1.7809,1.79,1.8237,1.8148,1.7504,1.721,1.7305,1.7497,1.7917,1.7392,1.7146,1.7014,1.728,1.7743,1.7431,1.7058,1.7013,1.7402,1.7636,1.7414,1.7042,1.7096,1.7547,1.7749,1.723,1.6884,1.7298,1.7804,1.7546,1.7226,1.7163,1.7126,1.7499,1.8063,1.7628,1.7192,1.7505,1.75,1.7586,1.7662,1.7233,1.7221,1.7406,1.7696,1.7447,1.6968,1.7075,1.7526,1.8014,1.7886,1.7272,1.715,1.7255,1.7594,1.7626,1.6941,1.6839,1.7486,1.7615,1.7633,1.7101,1.7026,1.719,1.7476,1.7494,1.7083,1.6979,1.7304,1.7556,1.7557,1.7169,1.706,1.6963,1.7241,1.7513,1.7278,1.7013,1.7064,1.7546,1.7612,1.7039,1.6831,1.6791,1.7102,1.7676,1.7075,1.675,1.6986,1.7229,1.7453,1.7215,1.6839,1.7013,1.7339,1.7573,1.7335,1.6934,1.6733,1.6803,1.7426,1.7562,1.7459,1.7209,1.7358,1.8034,1.8103,1.772,1.7602,1.7766,1.8271,1.8293,1.755,1.7168,1.7382,1.7952,1.7862,1.719,1.7018,1.7186,1.7301,1.7234,1.6614,1.6541,1.6746,1.707,1.6973,1.6899,1.6501,1.6533,1.6928,1.6993,1.6604,1.6234,1.6122,1.6823,1.7097,1.6816,1.6864,1.7587,1.9446,2.1901,2.3506,2.5242,2.4862,2.3502,2.2305,2.0477,1.9023,1.7531,1.6736,1.7127,1.7756,1.7302,1.6781,1.7089,1.7535,1.7167,1.6768,1.6604,1.7131,1.7491,1.7264,1.671,1.6591,1.6819,1.7391,1.7268,1.6808,1.6444,1.696,1.7607,1.7259,1.67,1.6925,1.7114,1.7437,1.7308,1.6558,1.6613,1.6918,1.7346,1.7836,1.7129,1.6917,1.7101,1.7466,1.7681,1.729,1.738,1.7577,1.7698,1.809,1.7823,1.7693,1.7964,1.8226,1.837,1.8071,1.8136,1.8206,1.885,1.9172,1.8313,1.7997,1.8199,1.8783,1.9297,1.917,1.8812,1.8515,1.8831,1.8989,1.8773,1.7933,1.7927,1.8247,1.848,1.805,1.74,1.7145,1.7516,1.7736,1.7482,1.6787,1.6801,1.6974,1.7388,1.7605,1.6935,1.6081,1.6488,1.7283,1.7434,1.7071,1.6893,1.6995,1.7124,1.7238,1.6768,1.6962,1.7351,1.7412,1.734,1.7064,1.6432,1.6464,1.6846,1.7299,1.7193,1.6917,1.7002,1.7334,1.7409,1.7083,1.6408,1.6675,1.7103,1.7462,1.7083,1.6928,1.6844,1.6824,1.7133,1.7067,1.653,1.643,1.6541,1.7262,1.7263,1.6588,1.645,1.69,1.7153,1.662,1.6307,1.6522,1.6987,1.7062,1.6819,1.6619,1.6671,1.6744,1.6648,1.6882,1.6637,1.6384,1.6659,1.7059,1.6937,1.6497,1.6539,1.6321,1.6892,1.673,1.6542,1.6321,1.643,1.6926,1.7154,1.6931,1.6569,1.658,1.6663,1.7253,1.6981,1.6579,1.6853,1.7053,1.7559,1.7113,1.6975,1.7177,1.7517,1.7772,1.7154,1.6994,1.7062,1.7195,1.7686,1.7602,1.7307,1.6899,1.7116,1.7362,1.7147,1.6577,1.6303,1.6386,1.6941,1.6633,1.6168,1.6079,1.6504,1.6952,1.6681,1.6252,1.6272,1.6306,1.6321,1.6813,1.6313,1.5863,1.6204,1.689,1.7693,1.8219,1.9415,2.1629,2.4253,2.5412,2.3579,2.1593,2.0214,1.96,1.8499,1.6845,1.6633,1.7034,1.7502,1.747,1.7261,1.6946,1.6914,1.6984,1.7268,1.7,1.6639,1.6416,1.6781,1.724,1.6969,1.646,1.6278,1.6904,1.7564,1.7376,1.6647,1.6342,1.7003,1.7322,1.7357,1.7374,1.6988,1.7118,1.7212,1.7042,1.6682,1.6614,1.6971,1.7735,1.7553,1.6636,1.6927,1.7678,1.7812,1.7605,1.7264,1.7623,1.7986,1.8259,1.7994,1.7771,1.7369,1.7932,1.8365,1.8627,1.8319,1.8078,1.8584,1.8904,1.9054,1.8706,1.8489,1.8446,1.896,1.9482,1.9045,1.8223,1.8201,1.8599,1.8548,1.8188,1.7726,1.7687,1.7874,1.7721,1.7416,1.6975,1.7091,1.7585,1.7517,1.6974,1.6729,1.6754,1.6868,1.7256,1.7409,1.7082,1.6846,1.7163,1.7265,1.7234,1.6786,1.6873,1.7041,1.7386,1.7478,1.6838,1.6741,1.7089,1.7216,1.7321,1.7209,1.688,1.6908,1.7142,1.755,1.7196,1.7078,1.7232,1.7419,1.7358,1.7026,1.6821,1.6991,1.7459,1.75,1.7022,1.6544,1.6533,1.6714,1.74,1.74,1.6776,1.6484,1.6981,1.755,1.7325,1.6565,1.6748,1.6885,1.7355,1.7313,1.6682,1.6493,1.7056,1.7288,1.6737,1.6507,1.6516,1.6657,1.7033,1.7028,1.643,1.6559,1.6932,1.706,1.7102,1.6661,1.6399,1.6603,1.6984,1.7096,1.6519,1.6597,1.681,1.6851,1.6868,1.6516,1.6268,1.6613,1.6805,1.7097,1.6814,1.6529,1.6698,1.6853,1.6944,1.6962,1.6594,1.6598,1.6887,1.7252,1.7129,1.7071,1.7196,1.7521,1.7638,1.7689,1.7201,1.7037,1.7486,1.7926,1.7857,1.7245,1.733,1.7549,1.7728,1.7511,1.6784,1.6779,1.7159,1.7371,1.6872,1.6037,1.6197,1.6909,1.7075,1.7076,1.646,1.6372,1.6629,1.6722,1.6549,1.6525,1.6345,1.6053,1.645,1.6633,1.5845,1.6141,1.6911,1.7862,1.9372,2.0748,2.2621,2.4114,2.567,2.4755,2.2359,2.0115,1.9117,1.7919,1.6922,1.6852,1.6978,1.7372,1.7002,1.6978,1.6816,1.6576,1.6542,1.6762,1.6707,1.6685,1.6594,1.6812,1.7213,1.7028,1.6672,1.6525,1.6733,1.6761,1.7198,1.7247,1.6602,1.6524,1.6913,1.7368,1.7176,1.6704,1.6344,1.6821,1.7377,1.7125,1.6933,1.6851,1.6753,1.73,1.7739,1.739,1.6717,1.7012,1.748,1.7682,1.7398,1.7331,1.7657,1.7902,1.8354,1.8036,1.7802,1.7994,1.8538,1.8797,1.8858,1.8371,1.8297,1.8519,1.8958,1.915,1.8834,1.8684,1.8956,1.906,1.8663,1.8237,1.865,1.8447,1.8116,1.772,1.7543,1.758,1.7462,1.7537,1.7721,1.7137,1.6835,1.7089,1.7438,1.7409,1.6873,1.6731,1.6944,1.7441,1.7267,1.679,1.6915,1.696,1.7213,1.7332,1.6895,1.6853,1.693,1.7245,1.713,1.6877,1.6627,1.6794,1.7589,1.7754,1.6775,1.6375,1.6786,1.7359,1.7328,1.702,1.7035,1.6939,1.7237,1.7453,1.7181,1.6973,1.6739,1.7052,1.7404,1.7468,1.6772,1.6519,1.7265,1.738,1.688,1.6657,1.6641,1.6981,1.7462,1.7369,1.6867,1.667,1.6704,1.6844,1.718,1.6797,1.6451,1.6468,1.6992,1.7105,1.6645,1.6642,1.6996,1.7227,1.7218,1.6822,1.6475,1.676,1.7096,1.7011,1.6632,1.6527,1.6683,1.6796,1.6977,1.6724,1.6279,1.6697,1.7041,1.6805,1.6644,1.6619,1.6499,1.6696,1.7094,1.6612,1.6472,1.6515,1.6915,1.7163,1.6742,1.6518,1.6558,1.6617,1.6764,1.661,1.6414,1.6494,1.6861,1.7378,1.6958,1.6729,1.6865,1.7324,1.7782,1.7207,1.6873,1.7328,1.7446,1.7484,1.7413,1.7377,1.7287,1.7322,1.7592,1.742,1.6904,1.7102,1.7114,1.7164,1.7257,1.6793,1.6391,1.6442,1.6841,1.6792,1.6215,1.6064,1.6368,1.6797,1.6956,1.6371,1.6213,1.6406,1.6627,1.6617,1.6157,1.6163,1.6392,1.6963,1.806,1.9159,2.0784,2.3224,2.5732,2.5248,2.312,2.0235,1.9122,1.878,1.7777,1.718,1.688,1.7046,1.7194,1.7444,1.7223,1.6647,1.6426,1.707,1.7164,1.6956,1.644,1.6569,1.6834,1.7161,1.7217,1.6789,1.6715,1.6717,1.7214,1.7394,1.6817,1.6557,1.7061,1.7442,1.7227,1.6951,1.6908,1.7052,1.7211,1.7308,1.6961,1.6914,1.7268,1.7431,1.733,1.729,1.6925,1.7075,1.7452,1.7542,1.7448,1.7333,1.7433,1.8096,1.8323,1.783,1.7768,1.8094,1.8507,1.8792,1.8303,1.8149,1.8377,1.8795,1.9104,1.9024,1.8474,1.8395,1.8858,1.9114,1.9042,1.8566,1.8625,1.8691,1.8509,1.7947,1.7499,1.7493,1.7644,1.7478,1.7136,1.6751,1.6781,1.6954,1.7174,1.7406,1.6851,1.6334,1.6701,1.7239,1.7119,1.6784,1.6697,1.675,1.7377,1.7449,1.6762,1.6395,1.6481,1.6771,1.6847,1.6336,1.6622,1.6776,1.7044,1.7005,1.6925,1.6618,1.6544,1.6573,1.6936,1.6921,1.6358,1.6408,1.7025,1.7262,1.6828,1.6476,1.6276,1.6892,1.7051,1.6156,1.6098,1.6387,1.6826,1.6997,1.6447,1.6277,1.6299,1.6429,1.6698,1.6828,1.6443,1.625,1.6723,1.7067,1.6499,1.6102,1.5737,1.6118,1.6721,1.6695,1.6033,1.6254,1.6574,1.6714,1.6691,1.6423,1.6018,1.6048,1.6521,1.6624,1.6043,1.5998,1.641,1.6088,1.6452,1.6335,1.5605,1.598,1.6329,1.644,1.5961,1.5543,1.6042,1.6313,1.6501,1.6296,1.6055,1.5913,1.6268,1.6525,1.6075,1.5573,1.5526,1.6165,1.6319,1.6111,1.6017,1.6123,1.6133,1.6172,1.6351,1.6016,1.5807,1.6266,1.6559,1.652,1.6389,1.6285,1.6642,1.6838,1.6911,1.6088,1.6014,1.6771,1.7258,1.7089,1.6549,1.6372,1.632,1.6464,1.6804,1.6317,1.5864,1.5895,1.5797,1.6026,1.5743,1.5375,1.5618,1.5751,1.5719,1.5639,1.5422,1.574,1.6027,1.5754,1.5457,1.5389,1.5204,1.5718,1.5852,1.5796,1.5701,1.6656,1.808,1.9998,2.2108,2.4216,2.3539,2.2243,2.0608,1.8976,1.781,1.6649,1.5988,1.5901,1.6471,1.632,1.6106,1.5956,1.6331,1.6161,1.5775,1.565,1.597,1.6021,1.611,1.574,1.5536,1.5597,1.6257,1.6225,1.569,1.5629,1.5855,1.6015,1.6113,1.5898,1.5728,1.5883,1.6143,1.6184,1.554,1.5513,1.5841,1.6299,1.6401,1.5934,1.6066,1.5919,1.6267,1.6419,1.6024,1.5948,1.6185,1.6538,1.6975,1.6433,1.5894,1.6371,1.6994,1.7037,1.7031,1.6964,1.6914,1.7023,1.7569,1.7497,1.7134,1.7066,1.7702,1.7973,1.7909,1.7457,1.7142,1.744,1.7671,1.7604,1.7121,1.6763,1.6737,1.6949,1.6887,1.6216,1.6094,1.6333,1.6225,1.6295,1.5792,1.5495,1.5832,1.6121,1.6316,1.5923,1.5635,1.562,1.5741,1.5865,1.5681,1.5586,1.567,1.5783,1.6015,1.5709,1.5504,1.5657,1.5956,1.6301,1.5793,1.545,1.5528,1.592,1.6391,1.6057,1.5472,1.5671,1.6084,1.639,1.62,1.5715,1.5431,1.5788,1.6162,1.6165,1.5754,1.5676,1.5753,1.6007,1.5816,1.5389,1.5273,1.5752,1.6189,1.6099,1.5549,1.5643,1.5766,1.589,1.6101,1.5714,1.5325,1.5883,1.6066,1.5866,1.5522,1.5424,1.5541,1.5923,1.6031,1.5917,1.5477,1.5443,1.5928,1.6171,1.5539,1.5659,1.5794,1.5752,1.6111,1.6196,1.5536,1.5495,1.61,1.6323,1.5901,1.5295,1.534,1.5772,1.5964,1.5764,1.5744,1.5704,1.5805,1.5881,1.5767,1.5641,1.575,1.5886,1.616,1.5927,1.5549,1.5859,1.6335,1.6774,1.6622,1.6048,1.5814,1.603,1.6632,1.6854,1.6289,1.6039,1.6485,1.6629,1.6882,1.6389,1.6286,1.6591,1.6967,1.67,1.6137,1.5622,1.5785,1.6154,1.603,1.5578,1.541,1.5468,1.5808,1.5824,1.5524,1.5335,1.5521,1.5747,1.6437,1.6325,1.5233,1.5246,1.5465,1.583,1.6158,1.6589,1.7968,2.0341,2.2428,2.3437,2.432,2.3456,2.1705,1.9755,1.8526,1.6956,1.5736,1.6042,1.6588,1.6812,1.6257,1.597,1.6023,1.6417,1.6192,1.5668,1.5786,1.6211,1.6054,1.5972,1.5829,1.561,1.5692,1.6328,1.6419,1.6066,1.5871,1.5853,1.6133,1.6336,1.5882,1.5604,1.5963,1.6364,1.669,1.5913,1.5512,1.6046,1.6286,1.6367,1.6413,1.5827,1.586,1.6395,1.6781,1.6678,1.6316,1.6353,1.6432,1.7034,1.7018,1.6701,1.6732,1.6989,1.7412,1.7466,1.7086,1.7037,1.7597,1.8323,1.8015,1.721,1.7578,1.7917,1.8223,1.8083,1.7367,1.7299,1.7684,1.7978,1.7573,1.7054,1.6574,1.6771,1.7174,1.6609,1.6069,1.5917,1.6209,1.6565,1.6428,1.597,1.5747,1.5885,1.6123,1.6412,1.5895,1.5667,1.5757,1.611,1.6242,1.5976,1.5823,1.5591,1.5971,1.6182,1.5961,1.5569,1.5665,1.6383,1.6544,1.5912,1.5537,1.5737,1.619,1.6435,1.6005,1.5871,1.5861,1.6047,1.6247,1.5725,1.5669,1.5889,1.592,1.6308,1.6012,1.5662,1.6057,1.63,1.6168,1.607,1.5763,1.5543,1.5965,1.6135,1.6083,1.5604,1.5586,1.5701,1.5558,1.5833,1.5752,1.5675,1.5743,1.602,1.6106,1.5773,1.5504,1.5495,1.5815,1.6249,1.594,1.5566,1.5636,1.5998,1.6057,1.5561,1.5469,1.571,1.6065,1.5729,1.5641,1.5647,1.5656,1.5465,1.584,1.5819,1.5249,1.5591,1.6161,1.5967,1.5502,1.5513,1.5896,1.6087,1.6268,1.5984,1.5462,1.5604,1.5706,1.5896,1.591,1.5642,1.553,1.5592,1.575,1.6168,1.5785,1.5483,1.5726,1.6201,1.6198,1.5672,1.5683,1.6121,1.6784,1.6757,1.6185,1.6328,1.6391,1.6399,1.6842,1.6788,1.6419,1.6384,1.6565,1.685,1.6376,1.5987,1.5998,1.6326,1.6252,1.5758,1.5337,1.534,1.5922,1.5974,1.5747,1.5586,1.558,1.5652,1.598,1.5875,1.5558,1.5531,1.551,1.5745,1.555,1.5446,1.5683,1.6374,1.7806,1.966,2.131,2.2986,2.4557,2.3748,2.1346,1.9859,1.8785,1.7527,1.6489,1.636,1.6288,1.6276,1.6451,1.6703,1.6543,1.5845,1.5765,1.5869,1.6514,1.6451,1.5842,1.5775,1.6021,1.6191,1.6266,1.5915,1.5785,1.6081,1.6129,1.5994,1.6117,1.6272,1.6142,1.6423,1.6588,1.5956,1.6012,1.6211,1.6521,1.6823,1.6431,1.6103,1.6214,1.6484,1.6861,1.6308,1.5937,1.6404,1.6661,1.6982,1.7014,1.682,1.6866,1.7191,1.7543,1.7316,1.7136,1.7203,1.7549,1.787,1.7852,1.7767,1.7641,1.7914,1.8379,1.8562,1.8151,1.7876,1.8088,1.8567,1.8516,1.7944,1.7637,1.7229,1.7174,1.773,1.7427,1.6866,1.6778,1.7159,1.7122,1.6394,1.623,1.6329,1.6658,1.6874,1.6194,1.5968,1.6118,1.6485,1.6839,1.6407,1.6149,1.617,1.6441,1.6737,1.6119,1.607,1.5979,1.6507,1.6847,1.6624,1.6084,1.5967,1.638,1.6649,1.6436,1.6007,1.6044,1.6404,1.6595,1.6559,1.6378,1.623,1.6305,1.6498,1.6544,1.6143,1.5969,1.6267,1.6526,1.6575,1.6264,1.6052,1.6153,1.6425,1.6658,1.6008,1.5799,1.6052,1.6454,1.6459,1.6113,1.5551,1.5676,1.6463,1.6423,1.5767,1.5947,1.5956,1.6079,1.6314,1.6244,1.5839,1.5646,1.5888,1.6323,1.6173,1.5564,1.5555,1.6045,1.6173,1.5953,1.5824,1.5905,1.6123,1.6163,1.5857,1.5633,1.5535,1.5648,1.6169,1.6134,1.5542,1.5452,1.5744,1.6002,1.5765,1.5728,1.59,1.5952,1.6054,1.5751,1.5744,1.5798,1.6124,1.6368,1.6394,1.612,1.5661,1.6054,1.6337,1.6413,1.6275,1.6238,1.623,1.6585,1.6758,1.6537,1.6499,1.6481,1.6836,1.7031,1.6567,1.6155,1.5864,1.6295,1.648,1.5774,1.5379,1.5281,1.5793,1.5838,1.5578,1.5255,1.5605,1.5699,1.5775,1.5395,1.5408,1.5331,1.5387,1.5825,1.5575,1.5139,1.5559,1.6035,1.7222,1.8019,1.8997,2.1472,2.4151,2.4171,2.2923,2.031,1.8368,1.7817,1.6656,1.5929,1.5777,1.6091,1.5925,1.6408,1.6326,1.5981,1.5749,1.5675,1.6018,1.6253,1.5742,1.5583,1.5709,1.6142,1.6032,1.5782,1.5377,1.5339,1.5925,1.6173,1.5589,1.5637,1.591,1.6096,1.5873,1.5946,1.5816,1.6134,1.6357,1.6431,1.6069,1.5768,1.5883,1.6137,1.6292,1.6156,1.5959,1.616,1.6606,1.6538,1.6299,1.6604,1.6593,1.6737,1.6867,1.7017,1.6617,1.6675,1.7036,1.7669,1.8032,1.7407,1.7416,1.7411,1.7611,1.7679,1.7782,1.7635,1.7956,1.7887,1.7749,1.7027,1.6926,1.6949,1.7613,1.7558,1.6737,1.6308,1.6386,1.6717,1.6757,1.6188,1.5772,1.5711,1.5871,1.6433,1.6198,1.5726,1.5707,1.5899,1.5993,1.5733,1.574,1.5717,1.5687,1.588,1.5714,1.5436,1.5716,1.5817,1.5833,1.5716,1.5521,1.5399,1.5584,1.5982,1.5997,1.554,1.5522,1.5858,1.6185,1.5749,1.534,1.527,1.5538,1.5937,1.5839,1.5594,1.5452,1.5291,1.5516,1.5422,1.5333,1.5428,1.552,1.5736,1.5726,1.5456,1.5158,1.5426,1.5777,1.5774,1.5272,1.5354,1.542,1.5576,1.5277,1.5176,1.5059,1.497,1.5549,1.5774,1.5269,1.4857,1.5389,1.5805,1.5526,1.5162,1.4958,1.5114,1.5309,1.558,1.5304,1.4875,1.5008,1.539,1.5431,1.5231,1.4911,1.514,1.5956,1.6162,1.5751,1.5487,1.56,1.6002,1.6311,1.5897,1.5681,1.5678,1.5853,1.6062,1.623,1.5771,1.5586,1.5755,1.5833,1.5845,1.5282,1.5157,1.5213,1.5427,1.5418,1.5005,1.4805,1.5338,1.5082,1.4986,1.4832,1.4641,1.4769,1.5258,1.5257,1.4938,1.4566,1.4562,1.4733,1.5156,1.5378,1.6054,1.7251,1.9485,2.1838,2.3722,2.308,2.1687,1.9791,1.8927,1.8031,1.6332,1.5264,1.5139,1.5857,1.6135,1.5787,1.5172,1.5609,1.5676,1.5703,1.503,1.4986,1.5313,1.57,1.5403,1.5167,1.4998,1.5258,1.5265,1.5838,1.5643,1.5207,1.5204,1.5572,1.5675,1.5215,1.484,1.5243,1.5903,1.5978,1.5238,1.5553,1.5803,1.5665,1.5657,1.5416,1.5176,1.5377,1.5716,1.6236,1.5985,1.5477,1.5422,1.5816,1.6141,1.6195,1.6264,1.6481,1.697,1.6789,1.6783,1.6716,1.6803,1.709,1.7174,1.7029,1.6935,1.715,1.7194,1.7456,1.739,1.6834,1.6815,1.6878,1.6983,1.7177,1.6731,1.6391,1.6271,1.6472,1.6533,1.5874,1.5615,1.5582,1.5806,1.5771,1.5702,1.5526,1.5449,1.5637,1.575,1.5469,1.5209,1.5372,1.5816,1.5881,1.5549,1.5281,1.5471,1.5891,1.6002,1.5422,1.5231,1.5466,1.5656,1.6048,1.5717,1.5628,1.5745,1.5675,1.5673,1.5368,1.5385,1.5484,1.5872,1.6177,1.5757,1.5452,1.5635,1.5665,1.5836,1.5623,1.5496,1.5552,1.5911,1.603,1.5904,1.5431,1.5236,1.5463,1.5676,1.5872,1.5596,1.5354,1.5533,1.5823,1.572,1.526,1.54,1.5604,1.5899,1.5803,1.5404,1.5308,1.5554,1.5936,1.5935,1.5633,1.5413,1.5367,1.5605,1.5824,1.5271,1.5277,1.5282,1.5674,1.5732,1.5439,1.5536,1.5561,1.5798,1.6246,1.6057,1.5533,1.5393,1.594,1.6183,1.5878,1.5521,1.5515,1.6036,1.6358,1.5908,1.5906,1.653,1.6619,1.6607,1.6354,1.619,1.629,1.6732,1.6982,1.6592,1.6167,1.5896,1.6377,1.6702,1.6497,1.6067,1.5623,1.577,1.6091,1.572,1.5322,1.5302,1.5668,1.6115,1.6049,1.5524,1.5101,1.511,1.5542,1.5763,1.5277,1.5339,1.5579,1.5276,1.5822,1.5815,1.6724,1.8572,2.0863,2.3032,2.4583,2.3673,2.1954,2.0032,1.8887,1.7444,1.64,1.589,1.6376,1.7343,1.6564,1.5996,1.5578,1.6094,1.659,1.6165,1.5535,1.6227,1.6036,1.6371,1.6049,1.6016,1.5872,1.6165,1.6164,1.6211,1.5813,1.5934,1.6288,1.6483,1.6384,1.6103,1.5934,1.6349,1.6481,1.6555,1.6175,1.5957,1.6192,1.6618,1.6566,1.5974,1.5996,1.6219,1.6537,1.7051,1.6951,1.6639,1.6714,1.7082,1.749,1.7153,1.6629,1.7106,1.7934,1.8098,1.7175,1.723,1.7866,1.8055,1.8049,1.7611,1.7807,1.7925,1.8231,1.8771,1.8766,1.8026,1.7926,1.7934,1.8199,1.7956,1.7444,1.7078,1.7278,1.7489,1.7079,1.6602,1.6653,1.6571,1.6604,1.6311,1.6488,1.6511,1.6418,1.6589,1.6524,1.6334,1.6538,1.6558,1.6581,1.643,1.6362,1.5882,1.6075,1.6614,1.6785,1.6296,1.6082,1.6369,1.656,1.6435,1.627,1.6243,1.6384,1.6814,1.6817,1.6281,1.6116,1.651,1.6696,1.6815,1.6085,1.5735,1.6011,1.6621,1.641,1.6497,1.6486,1.6229,1.6498,1.6713,1.6747,1.6221,1.618,1.6331,1.6343,1.6497,1.5837,1.5688,1.6153,1.6362,1.6366,1.5981,1.5957,1.627,1.6661,1.6156,1.5969,1.6025,1.5966,1.6388,1.6541,1.5881,1.5721,1.5847,1.6309,1.6521,1.5892,1.5467,1.5513,1.5856,1.5977,1.5798,1.5865,1.6017,1.6242,1.6411,1.5694,1.534,1.5619,1.5611,1.6096,1.6073,1.5774,1.5613,1.5636,1.5823,1.5713,1.5522,1.5524,1.6166,1.6301,1.6362,1.6153,1.5867,1.6451,1.6592,1.6297,1.6096,1.6157,1.6568,1.678,1.662,1.636,1.635,1.647,1.6997,1.669,1.621,1.5974,1.6054,1.6488,1.6222,1.5556,1.5485,1.5671,1.5721,1.6126,1.5768,1.5278,1.5276,1.5701,1.5907,1.5798,1.5684,1.5804,1.5852,1.5659,1.5339,1.5365,1.5945,1.7058,1.7598,1.8686,2.1262,2.4047,2.5154,2.4573,2.2903,2.0037,1.8886,1.7743,1.6973,1.6386,1.634,1.6659,1.6924,1.6906,1.6522,1.6234,1.5955,1.636,1.681,1.6594,1.5978,1.5759,1.585,1.6355,1.6403,1.6229,1.604,1.6035,1.6283,1.6368,1.6163,1.6005,1.6289,1.661,1.6466,1.624,1.6202,1.6442,1.6692,1.6337,1.5937,1.5782,1.5818,1.668,1.6822,1.641,1.5807,1.627,1.6964,1.707,1.6686,1.6383,1.6609,1.7002,1.7489,1.6924,1.7156,1.7219,1.7554,1.7768,1.7846,1.7715,1.7828,1.7821,1.8011,1.7929,1.7731,1.7614,1.779,1.7987,1.7836,1.7365,1.734,1.7453,1.7524,1.7294,1.663,1.6771,1.6814,1.6832,1.6413,1.6402,1.6433,1.6362,1.6324,1.6237,1.5819,1.5711,1.5854,1.6152,1.6124,1.5785,1.5843,1.6045,1.6485,1.6448,1.6348,1.6347,1.607,1.611,1.5912,1.6062,1.6007,1.6507,1.6523,1.6597,1.6138,1.5752,1.6002,1.6303,1.664,1.6359,1.6122,1.6195,1.654,1.656,1.6457,1.6396,1.6178,1.652,1.6919,1.644,1.6118,1.6372,1.7209,1.7063,1.6391,1.6228,1.6347,1.6293,1.6886,1.7009,1.6565,1.6476,1.6652,1.675,1.6782,1.6459,1.6304,1.6328,1.6724,1.6757,1.6248,1.6055,1.6362,1.6598,1.6363,1.6018,1.5982,1.5976,1.6023,1.6062,1.5633,1.5482,1.5672,1.6053,1.6112,1.5711,1.5136,1.5657,1.642,1.6717,1.6444,1.6185,1.6632,1.6876,1.7131,1.7025,1.6683,1.6812,1.7167,1.7344,1.6961,1.6722,1.673,1.6933,1.7259,1.7066,1.6606,1.6549,1.661,1.6725,1.6563,1.6219,1.6296,1.6448,1.6606,1.6667,1.6303,1.6171,1.6627,1.687,1.6787,1.639,1.6242,1.6473,1.6832,1.6679,1.6349,1.6629,1.7914,1.9175,2.0623,2.265,2.5056,2.5524,2.4029,2.1671,1.9744,1.9195,1.8496,1.7786,1.7594,1.7344,1.7332,1.7457,1.7561,1.7723,1.7255,1.7146,1.7385,1.7585,1.7741,1.7406,1.7015,1.7184,1.7497,1.784,1.743,1.7049,1.7296,1.7533,1.8111,1.8059,1.7538,1.7657,1.7988,1.8186,1.7981,1.7572,1.7606,1.8081,1.844,1.8357,1.805,1.7944,1.8232,1.8611,1.8434,1.8027,1.8254,1.8548,1.8932,1.9398,1.8964,1.8663,1.8824,1.9258,1.937,1.9023,1.8847,1.9166,1.9669,2.0097,1.9564,1.9436,1.9559,2.0027,2.0246,1.9938,1.9779,1.9886,2.0175,2.0178,1.9589,1.9272,1.9331,1.9746,1.9517,1.8918,1.841,1.8451,1.8752,1.9029,1.8683,1.7993,1.7863,1.8282,1.8649,1.8582,1.8196,1.8174,1.8561,1.8754,1.8477,1.8065,1.8211,1.8458,1.8643,1.8384,1.8017,1.8087,1.8503,1.879,1.8667,1.8094,1.81,1.8536,1.8806,1.8923,1.8472,1.8275,1.8391,1.8822,1.9045,1.8479,1.8484,1.872,1.9268,1.9069,1.824,1.7971,1.8663,1.9035,1.9139,1.8588,1.8389,1.8462,1.8775,1.9093,1.8889,1.8742,1.8813,1.8935,1.9378,1.9103,1.8877,1.9,1.9062,1.9396,1.9218,1.902,1.904,1.9525,1.9853,1.9589,1.9511,1.954,2.0098,2.0606,2.0566,1.974,1.9631,2.0206,2.0849,2.0844,2.0551,2.0241,2.0207,2.0808,2.0753,2.0045,1.9823,1.9987,2.0513,2.0543,2.0129,1.991,2.0237,2.0771,2.0537,2.0089,1.9894,2.0362,2.0815,2.1006,2.0555,2.0299,2.0435,2.0714,2.1097,2.1115,2.1727,2.3087,2.5344,2.6834,2.878,3.0428,2.9507,2.8198,2.5887,2.4426,2.2758,2.1806,2.2106,2.2856,2.2684,2.2132,2.2006,2.2359,2.2647,2.2216,2.2047,2.2325,2.2636,2.3159,2.3017,2.2174,2.226,2.2812,2.332,2.3113,2.2653,2.2617,2.3069,2.366,2.349,2.288,2.2928,2.326,2.3834,2.36,2.3049,2.2956,2.3193,2.3806,2.4151,2.3525,2.3184,2.3586,2.4239,2.4556,2.3972,2.3772,2.402,2.4586,2.4585,2.417,2.4194,2.4789,2.555,2.5875,2.5633,2.4999,2.5268,2.5748,2.6217,2.6183,2.5778,2.6044,2.6613,2.71,2.6706,2.6002,2.5946,2.6425,2.687,2.6251,2.5532,2.5678,2.6206,2.6541,2.6477,2.5815,2.5484,2.5734,2.6465,2.6549,2.5802,2.5789,2.644,2.7158,2.6918,2.6187,2.643,2.7214,2.7813,2.7683,2.7088,2.725,2.7408,2.8218,2.8652,2.8,2.7607,2.8016,2.871,2.9106,2.8584,2.8436,2.8601,2.9385,2.9797,2.9225,2.8859,2.9243,3.0086,3.0454,2.95,2.9166,2.9159,2.9857,3.0841,3.0512,2.9668,2.9878,3.0696,3.1315,3.0787,3.0041,3.016,3.1126,3.1966,3.2005,3.2545,3.3943,3.633,3.9868,4.2971,4.472,4.964,5.5757,6.0848,6.4482,6.6667,6.9415,7.2661,7.5806,7.8303,7.9196,8.0515,8.2993,8.5362,8.671,8.7307,8.8362,9.0132,9.1865,9.2483,9.2957,9.3619,9.4696,9.6138,9.7452,9.7454,9.7341,9.8277,9.9786,10.092,10.056,10.069,10.154,10.298,10.398,10.348,10.355,10.458,10.525,10.636,10.622,10.574,10.569,10.704,10.898,10.96,11.017,11.264,11.598,11.925,11.879,11.706,11.507,11.461,11.481,11.32,11.213,11.219,11.348,11.442,11.487,11.385,11.359,11.426,11.542,11.589,11.505,11.47,11.557,11.678,11.695,11.572,11.586,11.686,11.782,11.799,11.769,11.691,11.722,11.834,11.916,11.842,11.769,11.822,11.939,12.025,11.944,11.88,11.914,12.029,12.099,12.004,11.983,12.055,12.144,12.181,12.143,12.043,12.075,12.173,12.279,12.274,12.179,12.203,12.297,12.418,12.389,12.298,12.318,12.434,12.525,12.487,12.386,12.412,12.447,12.552,12.569,12.45,12.416,12.491,12.568,12.552,12.412,12.385,12.44,12.502,12.493,12.364,12.346,12.414,12.526,12.545,12.388,12.324,12.345,12.466,12.534,12.424,12.334,12.382,12.477,12.537,12.448,12.369,12.401,12.449,12.542,12.456,12.378,12.39,12.462,12.554,12.465,12.414,12.391,12.465,12.579,12.537,12.435,12.437,12.51,12.602
