10.385,10.382,10.388,10.384,10.385,10.388,10.387,10.39,10.385,10.387,10.385,10.382,10.375,10.378,10.382,10.381,10.373,10.375,10.367,10.368,10.367,10.365,10.358,10.363,10.365,10.36,10.351,10.346,10.346,10.349,10.345,10.345,10.357,10.356,10.35,10.343,10.336,10.336,10.337,10.34,10.337,10.342,10.34,10.338,10.339,10.335,10.333,10.335,10.335,10.348,10.342,10.339,10.333,10.353,10.372,10.391,10.376,10.378,10.391,10.394,10.41,10.436,10.454,10.45,10.429,10.405,10.399,10.382,10.36,10.331,10.323,10.32,10.319,10.323,10.318,10.32,10.32,10.327,10.326,10.321,10.322,10.313,10.293,10.313,10.43,10.541,10.834,11.217,11.469,11.508,11.464,11.332,10.779,10.314,10.269,10.327,10.382,10.428,10.429,10.439,10.432,10.419,10.395,10.385,10.383,10.382,10.389,10.4,10.407,10.405,10.407,10.419,10.423,10.424,10.416,10.42,10.425,10.435,10.445,10.452,10.458,10.461,10.463,10.466,10.465,10.469,10.477,10.487,10.494,10.504,10.509,10.519,10.523,10.528,10.533,10.549,10.564,10.575,10.587,10.601,10.617,10.631,10.637,10.649,10.667,10.684,10.702,10.722,10.741,10.746,10.764,10.771,10.781,10.776,10.777,10.758,10.728,10.694,10.661,10.624,10.588,10.564,10.531,10.504,10.468,10.442,10.433,10.41,10.39,10.38,10.382,10.377,10.38,10.371,10.368,10.365,10.368,10.376,10.372,10.361,10.362,10.361,10.372,10.372,10.366,10.366,10.369,10.362,10.364,10.362,10.369,10.37,10.374,10.376,10.374,10.376,10.379,10.374,10.375,10.374,10.379,10.382,10.374,10.363,10.363,10.357,10.361,10.365,10.363,10.36,10.356,10.353,10.35,10.349,10.351,10.35,10.347,10.343,10.339,10.347,10.342,10.349,10.343,10.342,10.339,10.332,10.332,10.332,10.339,10.336,10.329,10.325,10.328,10.328,10.326,10.326,10.331,10.337,10.339,10.34,10.344,10.353,10.369,10.37,10.369,10.382,10.388,10.396,10.408,10.439,10.443,10.432,10.419,10.403,10.381,10.354,10.344,10.337,10.327,10.314,10.312,10.312,10.313,10.321,10.317,10.321,10.314,10.316,10.317,10.312,10.301,10.301,10.372,10.703,11.068,11.257,11.459,11.486,11.447,11.276,10.714,10.294,10.283,10.332,10.399,10.435,10.427,10.421,10.39,10.389,10.383,10.391,10.39,10.403,10.395,10.397,10.394,10.4,10.403,10.409,10.404,10.416,10.423,10.439,10.436,10.438,10.437,10.445,10.449,10.46,10.461,10.479,10.481,10.483,10.494,10.502,10.505,10.512,10.523,10.529,10.537,10.541,10.549,10.561,10.574,10.597,10.61,10.617,10.633,10.65,10.674,10.687,10.691,10.712,10.728,10.754,10.771,10.783,10.797,10.806,10.816,10.81,10.801,10.778,10.755,10.717,10.67,10.623,10.595,10.558,10.549,10.528,10.503,10.463,10.442,10.417,10.41,10.405,10.402,10.393,10.384,10.387,10.389,10.378,10.384,10.389,10.392,10.386,10.38,10.374,10.38,10.386,10.387,10.396,10.398,10.397,10.398,10.39,10.392,10.389,10.406,10.416,10.411,10.401,10.393,10.39,10.397,10.397,10.397,10.399,10.399,10.395,10.4,10.396,10.396,10.392,10.398,10.401,10.401,10.399,10.388,10.384,10.384,10.381,10.383,10.382,10.377,10.377,10.379,10.373,10.374,10.369,10.375,10.376,10.373,10.369,10.365,10.375,10.378,10.376,10.371,10.372,10.369,10.367,10.366,10.37,10.37,10.374,10.373,10.373,10.363,10.366,10.376,10.382,10.381,10.364,10.365,10.378,10.394,10.412,10.406,10.407,10.416,10.427,10.423,10.422,10.42,10.444,10.472,10.464,10.446,10.422,10.411,10.378,10.364,10.356,10.347,10.345,10.35,10.352,10.345,10.345,10.344,10.339,10.337,10.336,10.339,10.345,10.328,10.347,10.426,10.635,10.957,11.328,11.484,11.501,11.462,11.188,10.665,10.316,10.33,10.39,10.451,10.459,10.461,10.445,10.433,10.425,10.42,10.421,10.422,10.419,10.415,10.429,10.428,10.433,10.436,10.438,10.438,10.449,10.459,10.462,10.465,10.465,10.474,10.486,10.488,10.485,10.481,10.488,10.497,10.513,10.515,10.522,10.527,10.536,10.543,10.554,10.564,10.576,10.589,10.593,10.596,10.611,10.632,10.646,10.662,10.68,10.689,10.7,10.725,10.742,10.761,10.78,10.8,10.821,10.836,10.844,10.848,10.856,10.849,10.835,10.808,10.778,10.749,10.705,10.663,10.623,10.585,10.551,10.519,10.494,10.477,10.462,10.444,10.438,10.431,10.426,10.425,10.427,10.424,10.419,10.418,10.412,10.408,10.413,10.412,10.409,10.408,10.413,10.413,10.419,10.421,10.426,10.421,10.416,10.419,10.422,10.428,10.436,10.435,10.424,10.416,10.421,10.424,10.421,10.422,10.41,10.419,10.42,10.422,10.417,10.407,10.406,10.408,10.407,10.405,10.401,10.404,10.402,10.404,10.406,10.402,10.397,10.392,10.393,10.391,10.391,10.389,10.384,10.385,10.385,10.385,10.382,10.385,10.384,10.382,10.385,10.385,10.381,10.379,10.379,10.382,10.375,10.378,10.378,10.374,10.378,10.381,10.382,10.378,10.378,10.374,10.373,10.37,10.374,10.375,10.381,10.389,10.396,10.397,10.401,10.413,10.422,10.428,10.415,10.423,10.447,10.472,10.481,10.462,10.439,10.419,10.395,10.38,10.36,10.357,10.355,10.359,10.36,10.357,10.356,10.357,10.357,10.359,10.354,10.357,10.358,10.344,10.337,10.395,10.558,10.847,11.043,11.373,11.503,11.493,11.449,11.098,10.596,10.292,10.345,10.408,10.474,10.467,10.466,10.448,10.435,10.42,10.431,10.426,10.424,10.419,10.431,10.424,10.434,10.437,10.446,10.448,10.451,10.451,10.454,10.461,10.472,10.475,10.479,10.477,10.483,10.487,10.503,10.513,10.517,10.518,10.512,10.518,10.53,10.539,10.546,10.551,10.562,10.582,10.592,10.602,10.613,10.624,10.636,10.647,10.657,10.678,10.692,10.707,10.723,10.743,10.75,10.771,10.792,10.817,10.834,10.847,10.843,10.843,10.826,10.804,10.778,10.777,10.716,10.678,10.644,10.604,10.568,10.549,10.518,10.493,10.48,10.464,10.459,10.44,10.439,10.434,10.428,10.424,10.426,10.418,10.423,10.415,10.423,10.427,10.425,10.426,10.42,10.423,10.425,10.429,10.43,10.429,10.435,10.432,10.433,10.434,10.435,10.438,10.448,10.446,10.438,10.436,10.441,10.44,10.441,10.434,10.437,10.435,10.436,10.432,10.43,10.432,10.429,10.427,10.422,10.423,10.426,10.423,10.41,10.41,10.407,10.408,10.405,10.405,10.404,10.404,10.405,10.407,10.4,10.397,10.393,10.39,10.388,10.391,10.391,10.393,10.388,10.394,10.389,10.386,10.383,10.386,10.386,10.386,10.386,10.381,10.385,10.391,10.402,10.41,10.406,10.417,10.422,10.424,10.432,10.433,10.445,10.474,10.485,10.473,10.455,10.445,10.443,10.42,10.389,10.372,10.367,10.365,10.367,10.368,10.365,10.359,10.364,10.363,10.363,10.366,10.361,10.351,10.34,10.352,10.378,10.478,10.72,11.065,11.401,11.516,11.498,11.446,11.075,10.53,10.266,10.339,10.391,10.442,10.461,10.457,10.456,10.441,10.441,10.433,10.434,10.433,10.443,10.434,10.438,10.438,10.447,10.443,10.45,10.446,10.459,10.46,10.47,10.475,10.481,10.484,10.493,10.495,10.5,10.502,10.51,10.516,10.525,10.528,10.538,10.542,10.552,10.56,10.572,10.573,10.588,10.6,10.612,10.627,10.645,10.648,10.663,10.668,10.681,10.706,10.715,10.733,10.744,10.764,10.784,10.803,10.817,10.832,10.849,10.852,10.847,10.833,10.807,10.781,10.747,10.712,10.691,10.651,10.615,10.58,10.55,10.522,10.495,10.491,10.473,10.46,10.451,10.447,10.448,10.442,10.437,10.432,10.428,10.435,10.434,10.431,10.426,10.425,10.426,10.428,10.425,10.431,10.43,10.433,10.43,10.432,10.428,10.426,10.427,10.429,10.43,10.433,10.433,10.435,10.435,10.444,10.443,10.435,10.424,10.428,10.422,10.421,10.427,10.425,10.421,10.417,10.413,10.412,10.417,10.416,10.41,10.405,10.406,10.403,10.402,10.4,10.399,10.397,10.392,10.393,10.398,10.396,10.397,10.391,10.396,10.397,10.397,10.404,10.398,10.39,10.386,10.384,10.385,10.393,10.39,10.387,10.383,10.377,10.384,10.383,10.382,10.383,10.385,10.385,10.383,10.387,10.394,10.388,10.388,10.393,10.386,10.385,10.393,10.409,10.419,10.423,10.418,10.423,10.438,10.443,10.441,10.443,10.464,10.481,10.489,10.492,10.472,10.454,10.424,10.39,10.381,10.38,10.381,10.376,10.374,10.371,10.372,10.376,10.376,10.373,10.372,10.37,10.37,10.358,10.354,10.405,10.555,10.81,11.15,11.313,11.448,11.468,11.438,11.215,10.666,10.325,10.334,10.41,10.467,10.489,10.473,10.468,10.448,10.452,10.441,10.45,10.443,10.449,10.444,10.452,10.455,10.461,10.463,10.47,10.467,10.475,10.476,10.486,10.492,10.503,10.502,10.502,10.51,10.521,10.521,10.526,10.521,10.528,10.535,10.538,10.55,10.562,10.566,10.565,10.573,10.581,10.593,10.604,10.617,10.629,10.639,10.656,10.668,10.687,10.702,10.719,10.727,10.743,10.759,10.775,10.795,10.811,10.824,10.841,10.847,10.849,10.843,10.832,10.806,10.772,10.74,10.699,10.657,10.612,10.58,10.561,10.541,10.52,10.494,10.473,10.459,10.45,10.447,10.434,10.439,10.428,10.432,10.426,10.424,10.417,10.417,10.421,10.418,10.415,10.416,10.414,10.421,10.425,10.428,10.424,10.429,10.427,10.424,10.424,10.429,10.423,10.427,10.428,10.431,10.422,10.419,10.418,10.419,10.421,10.419,10.418,10.412,10.41,10.411,10.413,10.408,10.406,10.416,10.41,10.407,10.396,10.394,10.394,10.403,10.399,10.398,10.395,10.39,10.387,10.388,10.383,10.388,10.385,10.39,10.375,10.374,10.377,10.368,10.383,10.367,10.372,10.369,10.371,10.378,10.38,10.372,10.369,10.359,10.363,10.365,10.365,10.364,10.376,10.373,10.355,10.357,10.37,10.368,10.372,10.383,10.395,10.404,10.403,10.414,10.414,10.418,10.411,10.414,10.437,10.461,10.454,10.456,10.425,10.415,10.39,10.353,10.354,10.343,10.337,10.329,10.345,10.338,10.334,10.327,10.334,10.336,10.332,10.332,10.331,10.321,10.321,10.379,10.527,10.814,11.172,11.442,11.473,11.428,11.349,10.814,10.345,10.256,10.322,10.345,10.405,10.442,10.433,10.431,10.412,10.416,10.403,10.406,10.403,10.417,10.412,10.423,10.417,10.425,10.421,10.423,10.426,10.445,10.443,10.449,10.452,10.455,10.465,10.457,10.465,10.473,10.479,10.488,10.485,10.495,10.497,10.503,10.514,10.527,10.538,10.531,10.517,10.536,10.548,10.56,10.573,10.589,10.597,10.615,10.627,10.643,10.66,10.669,10.691,10.706,10.719,10.741,10.752,10.764,10.779,10.794,10.802,10.797,10.772,10.767,10.75,10.709,10.681,10.635,10.604,10.577,10.542,10.515,10.497,10.469,10.446,10.431,10.43,10.425,10.411,10.4,10.403,10.396,10.397,10.396,10.393,10.392,10.392,10.393,10.398,10.388,10.394,10.397,10.398,10.394,10.404,10.398,10.389,10.388,10.394,10.405,10.403,10.401,10.398,10.406,10.403,10.404,10.412,10.412,10.404,10.401,10.405,10.405,10.394,10.396,10.397,10.392,10.4,10.391,10.395,10.393,10.389,10.381,10.382,10.379,10.382,10.382,10.392,10.389,10.381,10.376,10.37,10.377,10.384,10.383,10.383,10.38,10.372,10.382,10.403,10.406,10.405,10.41,10.419,10.426,10.443,10.442,10.442,10.452,10.471,10.471,10.449,10.445,10.43,10.406,10.386,10.371,10.369,10.37,10.375,10.366,10.363,10.366,10.359,10.36,10.359,10.365,10.36,10.369,10.346,10.354,10.396,10.546,10.813,10.987,11.31,11.493,11.482,11.45,11.233,10.659,10.266,10.332,10.368,10.438,10.459,10.459,10.451,10.448,10.443,10.451,10.444,10.447,10.441,10.444,10.444,10.453,10.449,10.46,10.463,10.473,10.474,10.479,10.479,10.483,10.486,10.503,10.507,10.509,10.509,10.52,10.517,10.525,10.535,10.542,10.546,10.558,10.567,10.576,10.577,10.58,10.608,10.617,10.623,10.635,10.645,10.662,10.673,10.684,10.701,10.72,10.728,10.742,10.757,10.775,10.791,10.81,10.827,10.839,10.847,10.852,10.85,10.815,10.786,10.757,10.726,10.678,10.641,10.6,10.568,10.553,10.534,10.507,10.486,10.476,10.465,10.455,10.453,10.446,10.445,10.444,10.442,10.441,10.443,10.441,10.446,10.444,10.443,10.444,10.452,10.449,10.435,10.437,10.441,10.442,10.44,10.447,10.453,10.443,10.442,10.44,10.446,10.44,10.446,10.443,10.448,10.439,10.444,10.444,10.444,10.444,10.447,10.444,10.443,10.446,10.45,10.44,10.447,10.44,10.436,10.445,10.443,10.43,10.424,10.421,10.431,10.431,10.429,10.419,10.418,10.418,10.409,10.406,10.42,10.433,10.439,10.443,10.443,10.453,10.461,10.466,10.465,10.462,10.482,10.503,10.507,10.5,10.481,10.465,10.451,10.41,10.39,10.389,10.384,10.388,10.386,10.386,10.382,10.381,10.378,10.373,10.377,10.374,10.373,10.37,10.36,10.361,10.421,10.59,10.864,11.225,11.425,11.465,11.464,11.343,10.818,10.378,10.309,10.371,10.45,10.479,10.485,10.47,10.455,10.452,10.457,10.452,10.447,10.447,10.449,10.45,10.454,10.464,10.478,10.467,10.466,10.47,10.468,10.478,10.487,10.494,10.508,10.509,10.507,10.5,10.507,10.515,10.525,10.525,10.528,10.536,10.547,10.553,10.56,10.574,10.587,10.596,10.603,10.612,10.626,10.643,10.655,10.662,10.681,10.692,10.71,10.723,10.743,10.764,10.776,10.791,10.807,10.821,10.839,10.841,10.843,10.838,10.815,10.794,10.756,10.744,10.68,10.657,10.628,10.588,10.565,10.532,10.506,10.486,10.471,10.459,10.449,10.442,10.439,10.444,10.447,10.443,10.432,10.422,10.425,10.428,10.427,10.427,10.428,10.425,10.427,10.421,10.432,10.438,10.437,10.431,10.434,10.433,10.439,10.441,10.438,10.431,10.438,10.438,10.44,10.446,10.44,10.443,10.447,10.454,10.443,10.439,10.438,10.438,10.437,10.438,10.433,10.434,10.433,10.435,10.428,10.422,10.426,10.427,10.423,10.423,10.422,10.424,10.418,10.413,10.41,10.411,10.408,10.413,10.413,10.416,10.421,10.407,10.403,10.401,10.398,10.41,10.418,10.428,10.44,10.436,10.443,10.449,10.453,10.453,10.457,10.465,10.489,10.498,10.5,10.474,10.468,10.448,10.422,10.4,10.384,10.385,10.386,10.385,10.384,10.375,10.37,10.377,10.378,10.377,10.378,10.383,10.382,10.361,10.361,10.425,10.571,10.822,11.162,11.383,11.413,11.431,11.398,11.157,10.625,10.303,10.34,10.422,10.484,10.494,10.487,10.469,10.46,10.452,10.453,10.454,10.456,10.455,10.457,10.459,10.466,10.469,10.468,10.472,10.475,10.483,10.489,10.499,10.497,10.5,10.505,10.511,10.517,10.52,10.524,10.532,10.541,10.552,10.554,10.565,10.575,10.576,10.574,10.578,10.594,10.602,10.608,10.621,10.634,10.646,10.664,10.675,10.695,10.711,10.727,10.747,10.76,10.767,10.788,10.809,10.822,10.844,10.858,10.868,10.865,10.854,10.837,10.818,10.789,10.75,10.703,10.661,10.627,10.594,10.558,10.528,10.512,10.501,10.481,10.468,10.455,10.454,10.453,10.446,10.439,10.434,10.434,10.432,10.433,10.43,10.43,10.429,10.43,10.428,10.43,10.431,10.436,10.438,10.436,10.433,10.425,10.427,10.424,10.429,10.436,10.435,10.434,10.434,10.437,10.44,10.44,10.439,10.434,10.436,10.432,10.432,10.43,10.433,10.434,10.432,10.428,10.431,10.431,10.435,10.427,10.426,10.426,10.419,10.407,10.408,10.413,10.411,10.416,10.413,10.41,10.409,10.409,10.403,10.401,10.398,10.404,10.406,10.409,10.404,10.401,10.399,10.389,10.391,10.393,10.39,10.391,10.386,10.389,10.393,10.404,10.422,10.433,10.418,10.42,10.435,10.439,10.436,10.428,10.456,10.479,10.487,10.473,10.456,10.45,10.422,10.398,10.383,10.375,10.376,10.376,10.373,10.371,10.361,10.358,10.362,10.36,10.365,10.367,10.368,10.366,10.348,10.362,10.437,10.616,10.901,11.082,11.332,11.411,11.408,11.342,10.936,10.47,10.275,10.349,10.419,10.476,10.467,10.462,10.443,10.446,10.437,10.436,10.429,10.436,10.434,10.436,10.437,10.443,10.445,10.458,10.467,10.459,10.453,10.462,10.462,10.473,10.478,10.482,10.491,10.492,10.49,10.497,10.499,10.502,10.511,10.521,10.531,10.541,10.545,10.553,10.56,10.569,10.577,10.586,10.602,10.611,10.632,10.654,10.649,10.66,10.676,10.696,10.712,10.719,10.742,10.759,10.783,10.797,10.811,10.822,10.835,10.841,10.845,10.826,10.798,10.768,10.734,10.699,10.66,10.62,10.591,10.572,10.548,10.519,10.5,10.485,10.467,10.446,10.444,10.435,10.436,10.434,10.428,10.424,10.434,10.426,10.435,10.434,10.438,10.435,10.433,10.422,10.422,10.432,10.431,10.429,10.427,10.431,10.433,10.43,10.43,10.433,10.438,10.442,10.44,10.441,10.443,10.436,10.432,10.427,10.425,10.425,10.43,10.434,10.433,10.433,10.434,10.43,10.429,10.426,10.424,10.416,10.426,10.42,10.421,10.418,10.418,10.421,10.42,10.428,10.426,10.419,10.404,10.407,10.406,10.399,10.404,10.4,10.401,10.401,10.403,10.403,10.397,10.401,10.412,10.428,10.434,10.434,10.434,10.436,10.445,10.455,10.454,10.455,10.475,10.502,10.499,10.487,10.46,10.458,10.45,10.405,10.383,10.38,10.376,10.375,10.366,10.371,10.365,10.372,10.371,10.378,10.377,10.369,10.371,10.364,10.346,10.372,10.451,10.646,10.964,11.281,11.455,11.454,11.403,11.359,10.924,10.426,10.277,10.351,10.398,10.452,10.476,10.457,10.456,10.438,10.455,10.44,10.433,10.426,10.438,10.442,10.451,10.448,10.457,10.448,10.458,10.461,10.478,10.472,10.485,10.484,10.486,10.489,10.496,10.498,10.505,10.517,10.521,10.528,10.538,10.547,10.556,10.554,10.553,10.558,10.565,10.575,10.589,10.599,10.609,10.63,10.641,10.652,10.661,10.672,10.69,10.71,10.724,10.737,10.759,10.781,10.786,10.802,10.813,10.826,10.837,10.829,10.822,10.799,10.771,10.75,10.719,10.688,10.647,10.6,10.57,10.55,10.529,10.509,10.48,10.477,10.465,10.464,10.454,10.449,10.445,10.446,10.437,10.43,10.428,10.429,10.431,10.428,10.435,10.432,10.428,10.433,10.434,10.434,10.431,10.437,10.434,10.442,10.449,10.44,10.436,10.435,10.438,10.433,10.441,10.443,10.45,10.444,10.436,10.438,10.436,10.441,10.439,10.438,10.441,10.438,10.438,10.43,10.43,10.427,10.423,10.422,10.423,10.424,10.423,10.425,10.42,10.425,10.42,10.42,10.425,10.413,10.409,10.405,10.413,10.411,10.412,10.411,10.414,10.428,10.433,10.437,10.439,10.455,10.467,10.461,10.46,10.463,10.491,10.507,10.501,10.493,10.476,10.468,10.455,10.413,10.396,10.388,10.388,10.39,10.386,10.392,10.393,10.388,10.376,10.378,10.379,10.38,10.382,10.375,10.365,10.361,10.409,10.544,10.803,11.141,11.401,11.46,11.45,11.372,10.927,10.445,10.301,10.373,10.428,10.475,10.482,10.474,10.467,10.463,10.461,10.462,10.466,10.461,10.461,10.459,10.467,10.467,10.468,10.477,10.483,10.481,10.49,10.493,10.501,10.504,10.507,10.513,10.516,10.524,10.526,10.526,10.533,10.542,10.549,10.552,10.566,10.574,10.576,10.575,10.581,10.591,10.611,10.618,10.621,10.636,10.652,10.655,10.669,10.688,10.703,10.718,10.734,10.752,10.77,10.784,10.805,10.819,10.835,10.84,10.847,10.833,10.825,10.807,10.78,10.744,10.727,10.686,10.651,10.615,10.59,10.565,10.54,10.511,10.489,10.478,10.469,10.457,10.444,10.439,10.437,10.437,10.435,10.437,10.436,10.436,10.431,10.427,10.426,10.43,10.433,10.427,10.422,10.425,10.428,10.43,10.431,10.434,10.431,10.426,10.437,10.447,10.447,10.447,10.437,10.433,10.425,10.428,10.431,10.433,10.429,10.434,10.438,10.436,10.429,10.426,10.42,10.424,10.426,10.424,10.419,10.419,10.414,10.412,10.41,10.41,10.412,10.408,10.408,10.415,10.404,10.399,10.394,10.393,10.394,10.396,10.393,10.398,10.395,10.399,10.396,10.399,10.397,10.396,10.397,10.389,10.391,10.392,10.402,10.418,10.425,10.423,10.43,10.446,10.448,10.453,10.446,10.452,10.477,10.48,10.48,10.461,10.443,10.426,10.403,10.376,10.367,10.364,10.369,10.366,10.365,10.361,10.354,10.353,10.357,10.348,10.351,10.355,10.356,10.346,10.347,10.396,10.53,10.773,11.094,11.345,11.401,11.413,11.335,10.922,10.437,10.27,10.333,10.42,10.466,10.466,10.455,10.444,10.442,10.437,10.433,10.439,10.428,10.433,10.433,10.439,10.445,10.461,10.456,10.451,10.449,10.453,10.465,10.471,10.475,10.473,10.479,10.482,10.486,10.492,10.499,10.508,10.513,10.521,10.524,10.534,10.547,10.549,10.557,10.566,10.579,10.597,10.604,10.619,10.632,10.64,10.643,10.657,10.669,10.687,10.705,10.715,10.734,10.748,10.769,10.789,10.806,10.823,10.838,10.847,10.848,10.836,10.815,10.785,10.754,10.737,10.702,10.666,10.63,10.595,10.565,10.53,10.509,10.482,10.474,10.459,10.447,10.433,10.43,10.432,10.429,10.424,10.421,10.42,10.424,10.422,10.428,10.423,10.423,10.418,10.414,10.412,10.418,10.423,10.418,10.414,10.417,10.42,10.419,10.413,10.417,10.417,10.417,10.414,10.418,10.413,10.411,10.417,10.42,10.417,10.409,10.407,10.412,10.406,10.395,10.403,10.4,10.404,10.404,10.401,10.392,10.39,10.39,10.389,10.388,10.382,10.386,10.388,10.381,10.38,10.377,10.377,10.372,10.376,10.371,10.373,10.37,10.373,10.371,10.375,10.375,10.378,10.371,10.366,10.365,10.37,10.371,10.361,10.36,10.357,10.362,10.366,10.371,10.371,10.364,10.359,10.355,10.362,10.361,10.357,10.357,10.363,10.381,10.386,10.388,10.398,10.403,10.408,10.411,10.412,10.413,10.432,10.452,10.452,10.429,10.414,10.404,10.383,10.364,10.358,10.355,10.347,10.337,10.336,10.334,10.335,10.335,10.335,10.33,10.334,10.335,10.335,10.321,10.326,10.389,10.553,10.822,11.165,11.312,11.396,11.406,11.345,11.041,10.5,10.24,10.296,10.37,10.423,10.434,10.424,10.424,10.401,10.404,10.378,10.401,10.396,10.402,10.39,10.4,10.399,10.408,10.407,10.42,10.411,10.414,10.426,10.442,10.44,10.446,10.443,10.451,10.454,10.462,10.458,10.47,10.473,10.48,10.482,10.495,10.491,10.506,10.508,10.522,10.522,10.538,10.543,10.553,10.564,10.574,10.594,10.611,10.626,10.638,10.65,10.665,10.679,10.687,10.707,10.723,10.75,10.757,10.772,10.784,10.792,10.787,10.782,10.759,10.737,10.707,10.683,10.644,10.606,10.559,10.524,10.504,10.479,10.46,10.444,10.427,10.422,10.407,10.415,10.402,10.399,10.396,10.386,10.394,10.403,10.396,10.391,10.391,10.395,10.39,10.39,10.389,10.397,10.391,10.403,10.406,10.395,10.387,10.383,10.385,10.388,10.391,10.395,10.39,10.396,10.389,10.39,10.389,10.392,10.389,10.397,10.384,10.382,10.386,10.38,10.372,10.372,10.372,10.375,10.369,10.368,10.364,10.366,10.37,10.362,10.351,10.352,10.347,10.347,10.35,10.35,10.346,10.348,10.347,10.35,10.35,10.357,10.356,10.352,10.353,10.357,10.354,10.344,10.345,10.348,10.352,10.349,10.348,10.345,10.344,10.35,10.351,10.351,10.348,10.36,10.367,10.375,10.376,10.372,10.378,10.392,10.405,10.409,10.405,10.414,10.439,10.444,10.44,10.423,10.411,10.397,10.363,10.345,10.339,10.333,10.341,10.337,10.34,10.336,10.337,10.335,10.334,10.337,10.339,10.337,10.336,10.319,10.332,10.4,10.57,10.847,11.189,11.399,11.435,11.416,11.292,10.75,10.306,10.276,10.338,10.407,10.441,10.442,10.431,10.429,10.427,10.428,10.426,10.421,10.416,10.427,10.432,10.435,10.43,10.433,10.445,10.461,10.452,10.441,10.444,10.453,10.462,10.469,10.469,10.471,10.472,10.483,10.491,10.493,10.503,10.502,10.51,10.52,10.53,10.53,10.541,10.551,10.559,10.566,10.574,10.583,10.599,10.608,10.61,10.618,10.634,10.653,10.677,10.694,10.71,10.724,10.737,10.749,10.772,10.79,10.799,10.811,10.81,10.8,10.786,10.755,10.744,10.717,10.68,10.642,10.6,10.563,10.524,10.496,10.476,10.458,10.438,10.428,10.413,10.404,10.406,10.404,10.401,10.395,10.388,10.386,10.385,10.387,10.386,10.382,10.389,10.39,10.393,10.392,10.391,10.395,10.391,10.38,10.379,10.385,10.39,10.393,10.392,10.391,10.392,10.398,10.4,10.399,10.391,10.397,10.398,10.395,10.388,10.392,10.388,10.389,10.396,10.402,10.397,10.376,10.37,10.371,10.375,10.375,10.37,10.374,10.371,10.371,10.368,10.368,10.365,10.364,10.36,10.367,10.362,10.36,10.359,10.359,10.365,10.36,10.352,10.356,10.358,10.362,10.346,10.347,10.349,10.351,10.348,10.345,10.349,10.35,10.353,10.348,10.344,10.345,10.35,10.353,10.352,10.346,10.338,10.338,10.345,10.351,10.351,10.353,10.353,10.353,10.358,10.365,10.372,10.374,10.381,10.388,10.393,10.394,10.399,10.405,10.429,10.441,10.442,10.44,10.421,10.415,10.382,10.356,10.352,10.351,10.345,10.334,10.333,10.339,10.351,10.346,10.351,10.343,10.338,10.338,10.33,10.324,10.347,10.439,10.64,10.948,11.278,11.418,11.44,11.422,11.183,10.621,10.282,10.307,10.374,10.444,10.46,10.451,10.437,10.432,10.426,10.429,10.416,10.414,10.411,10.411,10.413,10.416,10.416,10.425,10.426,10.432,10.437,10.438,10.45,10.456,10.462,10.462,10.466,10.468,10.476,10.476,10.48,10.492,10.499,10.508,10.515,10.518,10.523,10.541,10.552,10.555,10.544,10.556,10.563,10.579,10.599,10.612,10.617,10.635,10.645,10.666,10.676,10.694,10.711,10.733,10.749,10.77,10.793,10.807,10.828,10.836,10.839,10.824,10.816,10.792,10.754,10.733,10.701,10.666,10.626,10.586,10.553,10.522,10.501,10.487,10.474,10.452,10.435,10.428,10.429,10.422,10.42,10.415,10.414,10.417,10.419,10.417,10.418,10.419,10.426,10.426,10.417,10.407,10.407,10.418,10.419,10.412,10.412,10.412,10.418,10.418,10.42,10.419,10.416,10.411,10.416,10.418,10.42,10.412,10.417,10.415,10.42,10.42,10.415,10.416,10.42,10.418,10.415,10.406,10.412,10.406,10.414,10.412,10.408,10.404,10.4,10.392,10.392,10.392,10.395,10.396,10.393,10.392,10.378,10.383,10.384,10.38,10.38,10.386,10.389,10.386,10.376,10.376,10.378,10.369,10.368,10.371,10.372,10.38,10.379,10.38,10.382,10.385,10.374,10.367,10.364,10.366,10.363,10.363,10.365,10.367,10.369,10.37,10.362,10.359,10.357,10.364,10.379,10.393,10.395,10.396,10.4,10.41,10.419,10.413,10.409,10.42,10.448,10.458,10.455,10.451,10.433,10.424,10.391,10.355,10.332,10.331,10.337,10.339,10.342,10.339,10.345,10.345,10.343,10.352,10.342,10.334,10.316,10.316,10.345,10.45,10.671,10.993,11.316,11.432,11.433,11.399,11.096,10.563,10.274,10.315,10.387,10.441,10.454,10.435,10.414,10.402,10.404,10.407,10.404,10.404,10.413,10.41,10.412,10.419,10.416,10.418,10.425,10.432,10.437,10.442,10.445,10.441,10.445,10.448,10.459,10.464,10.47,10.473,10.48,10.485,10.49,10.495,10.503,10.506,10.522,10.525,10.532,10.544,10.548,10.556,10.57,10.586,10.596,10.606,10.616,10.623,10.641,10.656,10.671,10.688,10.706,10.722,10.742,10.757,10.77,10.783,10.796,10.811,10.815,10.804,10.791,10.768,10.728,10.697,10.677,10.637,10.606,10.571,10.534,10.505,10.474,10.453,10.435,10.426,10.422,10.422,10.403,10.395,10.391,10.389,10.385,10.38,10.382,10.389,10.385,10.393,10.385,10.388,10.383,10.382,10.383,10.39,10.396,10.406,10.4,10.398,10.39,10.383,10.389,10.39,10.395,10.394,10.396,10.402,10.402,10.4,10.4,10.395,10.397,10.396,10.394,10.399,10.396,10.385,10.389,10.38,10.376,10.377,10.371,10.383,10.377,10.381,10.382,10.374,10.374,10.363,10.367,10.363,10.368,10.365,10.363,10.363,10.358,10.36,10.358,10.359,10.355,10.356,10.358,10.357,10.359,10.35,10.356,10.362,10.356,10.353,10.355,10.357,10.352,10.346,10.351,10.351,10.35,10.351,10.35,10.347,10.35,10.357,10.363,10.377,10.385,10.387,10.393,10.397,10.409,10.411,10.407,10.409,10.442,10.439,10.429,10.417,10.417,10.39,10.357,10.339,10.331,10.334,10.335,10.327,10.323,10.331,10.327,10.327,10.321,10.327,10.331,10.329,10.311,10.319,10.373,10.547,10.847,11.198,11.453,11.481,11.469,11.415,11.06,10.508,10.238,10.308,10.357,10.415,10.434,10.428,10.422,10.406,10.397,10.395,10.403,10.397,10.396,10.399,10.41,10.409,10.411,10.408,10.422,10.413,10.418,10.418,10.43,10.437,10.445,10.448,10.46,10.464,10.466,10.465,10.467,10.477,10.484,10.492,10.491,10.5,10.509,10.516,10.521,10.538,10.552,10.557,10.564,10.569,10.578,10.592,10.605,10.625,10.638,10.662,10.672,10.693,10.711,10.725,10.737,10.753,10.758,10.779,10.797,10.81,10.814,10.795,10.779,10.754,10.723,10.687,10.647,10.617,10.579,10.542,10.515,10.486,10.472,10.456,10.444,10.429,10.415,10.407,10.406,10.411,10.401,10.395,10.393,10.391,10.397,10.402,10.395,10.396,10.388,10.391,10.393,10.402,10.407,10.406,10.401,10.398,10.398,10.404,10.402,10.399,10.402,10.411,10.407,10.414,10.415,10.416,10.408,10.407,10.407,10.408,10.406,10.406,10.41,10.402,10.404,10.396,10.4,10.397,10.389,10.391,10.394,10.389,10.39,10.387,10.385,10.38,10.38,10.381,10.381,10.377,10.378,10.381,10.38,10.372,10.37,10.368,10.371,10.367,10.365,10.375,10.372,10.373,10.373,10.365,10.366,10.37,10.375,10.38,10.385,10.39,10.398,10.408,10.416,10.42,10.428,10.424,10.421,10.438,10.465,10.465,10.45,10.439,10.427,10.392,10.367,10.347,10.354,10.354,10.348,10.35,10.351,10.35,10.352,10.352,10.35,10.353,10.349,10.342,10.329,10.321,10.377,10.528,10.804,11.181,11.438,11.503,11.509,11.48,11.186,10.619,10.292,10.317,10.388,10.449,10.468,10.453,10.434,10.421,10.42,10.42,10.418,10.411,10.421,10.425,10.435,10.43,10.427,10.43,10.435,10.439,10.446,10.448,10.455,10.456,10.466,10.476,10.48,10.49,10.493,10.499,10.5,10.503,10.51,10.516,10.519,10.529,10.533,10.543,10.555,10.569,10.577,10.589,10.601,10.617,10.626,10.642,10.653,10.668,10.683,10.701,10.721,10.73,10.746,10.755,10.775,10.794,10.814,10.828,10.852,10.858,10.848,10.825,10.79,10.765,10.732,10.69,10.655,10.619,10.582,10.55,10.522,10.496,10.486,10.471,10.454,10.448,10.434,10.431,10.421,10.416,10.41,10.412,10.413,10.41,10.414,10.413,10.412,10.405,10.41,10.416,10.415,10.415,10.405,10.404,10.408,10.415,10.414,10.419,10.409,10.407,10.412,10.414,10.416,10.423,10.426,10.427,10.424,10.414,10.418,10.418,10.421,10.423,10.416,10.413,10.41,10.41,10.414,10.413,10.402,10.396,10.403,10.404,10.404,10.397,10.392,10.39,10.386,10.387,10.381,10.381,10.388,10.382,10.384,10.38,10.382,10.384,10.387,10.381,10.367,10.367,10.366,10.367,10.376,10.38,10.378,10.389,10.404,10.406,10.403,10.405,10.408,10.41,10.418,10.423,10.44,10.459,10.464,10.459,10.437,10.424,10.404,10.384,10.37,10.351,10.351,10.348,10.351,10.354,10.346,10.346,10.343,10.349,10.354,10.352,10.343,10.328,10.313,10.33,10.43,10.654,10.999,11.363,11.502,11.519,11.467,11.133,10.842,10.426,10.301,10.368,10.432,10.478,10.457,10.459,10.427,10.438,10.42,10.428,10.416,10.426,10.409,10.426,10.419,10.431,10.429,10.436,10.434,10.445,10.449,10.463,10.46,10.472,10.469,10.476,10.476,10.496,10.491,10.503,10.504,10.514,10.517,10.53,10.533,10.539,10.542,10.548,10.556,10.565,10.577,10.592,10.608,10.621,10.632,10.642,10.665,10.678,10.699,10.713,10.738,10.758,10.77,10.785,10.803,10.809,10.831,10.846,10.855,10.862,10.847,10.821,10.796,10.752,10.709,10.672,10.643,10.6,10.564,10.531,10.508,10.483,10.463,10.447,10.44,10.432,10.434,10.424,10.418,10.412,10.412,10.414,10.41,10.407,10.404,10.4,10.407,10.404,10.403,10.404,10.409,10.413,10.411,10.408,10.409,10.41,10.42,10.414,10.413,10.407,10.406,10.406,10.409,10.407,10.417,10.419,10.41,10.405,10.411,10.408,10.412,10.415,10.413,10.396,10.394,10.396,10.402,10.399,10.387,10.392,10.39,10.39,10.385,10.38,10.38,10.381,10.38,10.38,10.377,10.377,10.375,10.375,10.378,10.373,10.378,10.382,10.384,10.39,10.397,10.4,10.399,10.408,10.415,10.426,10.424,10.454,10.482,10.472,10.448,10.433,10.435,10.411,10.376,10.352,10.344,10.349,10.353,10.353,10.349,10.34,10.346,10.338,10.338,10.344,10.343,10.345,10.329,10.313,10.351,10.393,10.556,10.867,11.243,11.492,11.516,11.489,11.304,10.748,10.31,10.3,10.348,10.41,10.441,10.449,10.438,10.425,10.416,10.423,10.418,10.416,10.412,10.412,10.408,10.421,10.421,10.425,10.427,10.43,10.432,10.44,10.447,10.454,10.456,10.472,10.478,10.482,10.483,10.478,10.482,10.488,10.496,10.503,10.515,10.521,10.526,10.537,10.545,10.55,10.555,10.572,10.579,10.584,10.602,10.617,10.629,10.648,10.658,10.674,10.692,10.7,10.716,10.738,10.757,10.778,10.797,10.803,10.818,10.819,10.818,10.799,10.779,10.741,10.703,10.665,10.629,10.616,10.583,10.541,10.521,10.484,10.456,10.436,10.43,10.416,10.415,10.412,10.404,10.397,10.395,10.395,10.388,10.389,10.39,10.387,10.394,10.387,10.393,10.384,10.386,10.391,10.393,10.394,10.399,10.403,10.399,10.394,10.398,10.396,10.405,10.4,10.4,10.41,10.401,10.401,10.395,10.387,10.396,10.407,10.402,10.399,10.39,10.387,10.382,10.391,10.386,10.39,10.389,10.378,10.379,10.37,10.374,10.379,10.378,10.378,10.381,10.38,10.377,10.379,10.389,10.406,10.393,10.403,10.414,10.421,10.428,10.423,10.437,10.463,10.469,10.459,10.437,10.424,10.41,10.38,10.357,10.348,10.359,10.355,10.352,10.356,10.35,10.343,10.341,10.353,10.347,10.338,10.345,10.346,10.33,10.324,10.346,10.455,10.691,11.045,11.238,11.528,11.549,11.474,11.108,10.521,10.258,10.307,10.372,10.414,10.453,10.439,10.457,10.426,10.433,10.409,10.427,10.406,10.421,10.418,10.439,10.424,10.442,10.434,10.45,10.444,10.462,10.458,10.476,10.473,10.486,10.485,10.495,10.499,10.513,10.506,10.513,10.516,10.528,10.533,10.547,10.553,10.563,10.569,10.575,10.575,10.593,10.605,10.62,10.631,10.647,10.656,10.679,10.682,10.699,10.713,10.731,10.751,10.765,10.79,10.801,10.821,10.835,10.852,10.852,10.851,10.833,10.802,10.77,10.737,10.703,10.667,10.642,10.605,10.567,10.542,10.509,10.494,10.471,10.461,10.445,10.45,10.434,10.434,10.422,10.423,10.421,10.423,10.42,10.43,10.416,10.418,10.424,10.424,10.419,10.423,10.42,10.424,10.418,10.42,10.417,10.417,10.421,10.425,10.422,10.428,10.421,10.427,10.422,10.423,10.42,10.427,10.43,10.432,10.428,10.425,10.421,10.425,10.421,10.422,10.423,10.43,10.426,10.419,10.405,10.41,10.408,10.411,10.409,10.407,10.402,10.405,10.405,10.406,10.396,10.397,10.39,10.394,10.402,10.42,10.428,10.425,10.425,10.435,10.438,10.445,10.453,10.458,10.472,10.48,10.483,10.477,10.454,10.445,10.427,10.395,10.38,10.376,10.375,10.374,10.371,10.367,10.362,10.36,10.364,10.364,10.363,10.36,10.368,10.372,10.364,10.333,10.383,10.53,10.815,11.213,11.49,11.561,11.582,11.452,10.911,10.438,10.327,10.364,10.444,10.468,10.479,10.463,10.459,10.449,10.443,10.426,10.436,10.428,10.435,10.438,10.453,10.437,10.447,10.444,10.451,10.449,10.459,10.462,10.472,10.473,10.48,10.484,10.483,10.488,10.497,10.498,10.504,10.511,10.522,10.532,10.544,10.55,10.555,10.556,10.571,10.584,10.586,10.59,10.607,10.63,10.644,10.652,10.676,10.698,10.71,10.72,10.743,10.764,10.785,10.801,10.815,10.836,10.846,10.858,10.864,10.861,10.838,10.823,10.788,10.752,10.717,10.681,10.638,10.594,10.564,10.536,10.509,10.495,10.476,10.459,10.452,10.441,10.441,10.436,10.434,10.432,10.424,10.423,10.421,10.427,10.427,10.427,10.426,10.43,10.429,10.42,10.417,10.417,10.42,10.422,10.427,10.43,10.435,10.439,10.432,10.428,10.424,10.428,10.431,10.439,10.438,10.436,10.428,10.426,10.426,10.421,10.417,10.427,10.417,10.414,10.409,10.405,10.406,10.406,10.402,10.399,10.403,10.394,10.389,10.386,10.391,10.391,10.393,10.393,10.396,10.39,10.378,10.375,10.374,10.381,10.378,10.383,10.382,10.381,10.376,10.376,10.368,10.377,10.381,10.402,10.414,10.402,10.402,10.413,10.413,10.42,10.423,10.431,10.455,10.468,10.467,10.455,10.433,10.42,10.397,10.372,10.359,10.352,10.355,10.354,10.347,10.352,10.352,10.344,10.346,10.348,10.347,10.344,10.344,10.333,10.322,10.317,10.388,10.565,10.863,11.257,11.478,11.53,11.527,11.32,10.775,10.36,10.316,10.382,10.447,10.467,10.461,10.439,10.429,10.428,10.435,10.427,10.424,10.414,10.421,10.425,10.429,10.426,10.429,10.435,10.437,10.439,10.447,10.452,10.453,10.456,10.464,10.467,10.471,10.475,10.486,10.488,10.495,10.497,10.507,10.512,10.523,10.538,10.547,10.554,10.56,10.569,10.59,10.6,10.607,10.614,10.631,10.642,10.652,10.672,10.689,10.715,10.727,10.74,10.761,10.785,10.805,10.819,10.83,10.845,10.845,10.842,10.821,10.793,10.765,10.737,10.716,10.671,10.621,10.582,10.543,10.515,10.489,10.466,10.448,10.439,10.429,10.42,10.414,10.404,10.402,10.405,10.402,10.406,10.403,10.4,10.395,10.39,10.397,10.402,10.401,10.391,10.394,10.403,10.406,10.401,10.398,10.399,10.393,10.401,10.401,10.398,10.399,10.401,10.405,10.403,10.403,10.408,10.402,10.396,10.398,10.394,10.393,10.397,10.395,10.394,10.386,10.384,10.385,10.387,10.391,10.394,10.393,10.394,10.39,10.38,10.373,10.379,10.379,10.376,10.373,10.374,10.375,10.379,10.378,10.379,10.378,10.367,10.377,10.381,10.371,10.368,10.367,10.363,10.362,10.364,10.367,10.371,10.377,10.376,10.369,10.366,10.368,10.364,10.355,10.36,10.367,10.368,10.375,10.374,10.375,10.381,10.392,10.39,10.391,10.399,10.399,10.405,10.414,10.419,10.436,10.466,10.46,10.444,10.433,10.417,10.386,10.353,10.347,10.347,10.345,10.346,10.344,10.343,10.342,10.345,10.354,10.347,10.342,10.329,10.336,10.336,10.309,10.344,10.456,10.692,11.046,11.384,11.503,11.524,11.529,11.326,10.782,10.352,10.311,10.359,10.44,10.454,10.452,10.439,10.421,10.415,10.416,10.406,10.398,10.399,10.4,10.402,10.409,10.418,10.428,10.428,10.432,10.43,10.436,10.443,10.449,10.457,10.462,10.469,10.471,10.482,10.479,10.483,10.486,10.497,10.507,10.514,10.521,10.527,10.534,10.539,10.544,10.553,10.563,10.576,10.588,10.604,10.618,10.635,10.65,10.662,10.671,10.69,10.718,10.734,10.738,10.747,10.773,10.788,10.813,10.826,10.84,10.832,10.832,10.81,10.786,10.747,10.714,10.675,10.638,10.597,10.559,10.522,10.494,10.481,10.458,10.442,10.427,10.42,10.41,10.404,10.403,10.406,10.399,10.391,10.388,10.386,10.401,10.401,10.393,10.384,10.38,10.385,10.384,10.393,10.389,10.394,10.392,10.395,10.394,10.394,10.393,10.392,10.394,10.389,10.387,10.391,10.384,10.393,10.379,10.383,10.383,10.385,10.38,10.384,10.379,10.368,10.366,10.37,10.363,10.368,10.367,10.366,10.363,10.353,10.358,10.357,10.36,10.356,10.354
