3.5768,3.5824,3.5826,3.5887,3.591,3.5968,3.5954,3.6062,3.6035,3.6154,3.6177,3.6279,3.6313,3.6393,3.6435,3.6589,3.6616,3.6699,3.6731,3.6864,3.6944,3.7099,3.719,3.734,3.7358,3.7513,3.7645,3.7866,3.7964,3.8132,3.8299,3.8567,3.8761,3.896,3.9135,3.9362,3.9615,3.981,3.9976,4.0152,4.028,4.0471,4.0512,4.0504,4.0401,4.0227,3.9926,3.9538,3.9079,3.8607,3.8141,3.7741,3.7335,3.6978,3.668,3.6421,3.6262,3.6114,3.5952,3.5844,3.5789,3.5762,3.5725,3.5684,3.5669,3.5623,3.5619,3.5633,3.56,3.5604,3.5564,3.5597,3.5594,3.5561,3.5539,3.5516,3.5542,3.5515,3.5518,3.5473,3.5453,3.5451,3.5481,3.5475,3.5482,3.5464,3.548,3.5448,3.5488,3.5436,3.5453,3.5419,3.5446,3.5418,3.5422,3.5413,3.5406,3.5411,3.5431,3.5397,3.5417,3.5351,3.5372,3.539,3.5393,3.5375,3.5389,3.5396,3.5418,3.5395,3.5376,3.5382,3.5414,3.5487,3.5589,3.5593,3.5608,3.5615,3.5473,3.546,3.5674,3.6091,3.6387,3.6246,3.6136,3.5984,3.5839,3.5741,3.5677,3.5509,3.5444,3.5349,3.5294,3.5293,3.5263,3.5225,3.5204,3.5201,3.5186,3.5186,3.5179,3.5134,3.5143,3.5127,3.5142,3.5148,3.5114,3.5106,3.5094,3.5108,3.5019,3.43,3.3294,3.3422,3.5481,3.8711,4.1274,4.4344,4.5726,4.3298,3.7916,3.4908,3.4129,3.4109,3.4293,3.5193,3.5778,3.5786,3.5879,3.5636,3.5754,3.5565,3.5678,3.5576,3.5737,3.5659,3.5789,3.567,3.5817,3.5793,3.5905,3.5843,3.5951,3.5919,3.6066,3.6035,3.6134,3.6149,3.6246,3.6298,3.6418,3.6418,3.6561,3.6592,3.6746,3.6814,3.6894,3.697,3.7126,3.7241,3.7429,3.7586,3.7752,3.7915,3.8108,3.8286,3.8504,3.873,3.8966,3.9158,3.9373,3.9553,3.9746,3.9921,4.0111,4.0205,4.0301,4.0359,4.031,4.022,3.9918,3.9576,3.9128,3.8613,3.8151,3.7774,3.7308,3.6958,3.6581,3.6325,3.6102,3.5961,3.5762,3.5647,3.5594,3.5569,3.5499,3.5496,3.539,3.5406,3.5371,3.542,3.5366,3.5349,3.5284,3.5346,3.5278,3.5314,3.5273,3.5271,3.524,3.5288,3.5248,3.5279,3.5231,3.5291,3.5272,3.5255,3.5219,3.5225,3.5207,3.5258,3.5196,3.5235,3.519,3.5246,3.5242,3.5228,3.5197,3.5223,3.5183,3.5218,3.5198,3.5189,3.5137,3.5161,3.5164,3.5163,3.5153,3.5123,3.5149,3.5177,3.5148,3.5148,3.5083,3.5097,3.51,3.5148,3.5131,3.51,3.5088,3.5106,3.5096,3.5085,3.5074,3.5076,3.5071,3.5093,3.5064,3.5072,3.5074,3.5112,3.5114,3.5212,3.5221,3.521,3.5317,3.5209,3.5093,3.5283,3.5444,3.5957,3.5993,3.5852,3.5758,3.5562,3.5523,3.5431,3.5407,3.5173,3.5136,3.5096,3.5061,3.5041,3.5019,3.4947,3.4918,3.495,3.4913,3.4875,3.4884,3.4845,3.485,3.485,3.4846,3.48,3.4866,3.4818,3.4885,3.4864,3.4746,3.3902,3.3033,3.3324,3.5622,3.8864,4.1154,4.4247,4.4299,4.1926,3.6569,3.3761,3.3345,3.3568,3.4085,3.4912,3.5588,3.5416,3.5689,3.535,3.5562,3.5283,3.5541,3.5327,3.5595,3.5403,3.5654,3.5452,3.5688,3.5596,3.5763,3.5625,3.5831,3.5751,3.5964,3.5883,3.601,3.5954,3.6161,3.6159,3.6295,3.6299,3.6436,3.6475,3.6632,3.6679,3.6842,3.6862,3.7102,3.7158,3.7289,3.7424,3.761,3.7751,3.8007,3.8151,3.8348,3.8528,3.8784,3.8972,3.9204,3.9429,3.9605,3.9808,3.994,4.0154,4.0225,4.033,4.0361,4.032,4.0115,3.9808,3.9372,3.8967,3.8518,3.8118,3.7613,3.7223,3.6792,3.6625,3.6314,3.6136,3.5887,3.5779,3.5645,3.5641,3.5566,3.5462,3.5403,3.5434,3.5364,3.5395,3.5341,3.5361,3.5305,3.5379,3.5304,3.5359,3.5221,3.5294,3.5239,3.5265,3.522,3.522,3.5158,3.523,3.5254,3.5326,3.522,3.5239,3.5189,3.5268,3.5167,3.5222,3.5189,3.523,3.5175,3.5243,3.518,3.5212,3.5183,3.5215,3.515,3.5132,3.5116,3.5114,3.5119,3.512,3.5103,3.5061,3.502,3.5078,3.504,3.4998,3.4961,3.4996,3.5001,3.5039,3.4984,3.4955,3.495,3.4987,3.4921,3.4955,3.4917,3.4985,3.4998,3.497,3.4896,3.4877,3.488,3.4955,3.4869,3.4881,3.4864,3.4875,3.4877,3.4905,3.4941,3.4869,3.4905,3.4904,3.4884,3.4905,3.4876,3.4858,3.4877,3.4927,3.4989,3.4929,3.4958,3.5021,3.4998,3.4882,3.505,3.5438,3.5702,3.5626,3.5448,3.5324,3.5271,3.5209,3.5132,3.5036,3.4831,3.4819,3.4854,3.4772,3.4732,3.4699,3.4663,3.4618,3.465,3.4612,3.4573,3.4547,3.4572,3.4596,3.4646,3.4607,3.4597,3.4508,3.4599,3.4569,3.4585,3.4527,3.4109,3.3059,3.275,3.4122,3.7239,4.0156,4.2879,4.4887,4.0968,3.5008,3.2721,3.1857,3.2567,3.3015,3.3828,3.4785,3.5141,3.5258,3.515,3.5074,3.5047,3.5077,3.5045,3.5054,3.5095,3.5106,3.514,3.5193,3.5229,3.5258,3.5267,3.5298,3.5354,3.5369,3.5433,3.5455,3.5543,3.5594,3.5652,3.5715,3.5819,3.5892,3.6001,3.6065,3.613,3.6193,3.6358,3.6451,3.6623,3.672,3.6839,3.6902,3.705,3.7267,3.7421,3.7607,3.7756,3.7972,3.8164,3.8328,3.8479,3.8696,3.8922,3.9076,3.9197,3.9344,3.9454,3.9519,3.9479,3.9324,3.9215,3.8879,3.8503,3.8123,3.7675,3.7252,3.6791,3.6406,3.6044,3.5733,3.5475,3.5254,3.5082,3.4952,3.4785,3.4732,3.4625,3.4627,3.4595,3.459,3.455,3.4496,3.4424,3.4448,3.4438,3.4392,3.4362,3.4392,3.4409,3.4426,3.4415,3.4409,3.4421,3.4446,3.4402,3.4396,3.44,3.4459,3.4455,3.4477,3.4482,3.4483,3.4452,3.4466,3.4486,3.4486,3.4448,3.4444,3.4444,3.4441,3.4442,3.4391,3.4379,3.4382,3.4396,3.4388,3.4338,3.435,3.4327,3.436,3.4361,3.4339,3.4315,3.4315,3.4326,3.4344,3.4317,3.4277,3.4279,3.4302,3.436,3.4309,3.4286,3.4308,3.4312,3.4311,3.4305,3.4302,3.429,3.4283,3.4292,3.427,3.4227,3.4239,3.4228,3.4283,3.4308,3.4298,3.4227,3.4239,3.4265,3.4301,3.4305,3.4356,3.4363,3.4381,3.4389,3.4441,3.4414,3.4447,3.4419,3.4384,3.4414,3.4707,3.5098,3.5178,3.5011,3.4894,3.4801,3.4733,3.4658,3.4573,3.4393,3.4287,3.4326,3.4278,3.4305,3.4251,3.4242,3.4171,3.4176,3.4171,3.4194,3.4121,3.4161,3.4145,3.4194,3.4186,3.4156,3.4151,3.4163,3.4166,3.4187,3.408,3.3873,3.2942,3.2248,3.2986,3.56,3.8744,4.1181,4.4418,4.2894,3.7049,3.3945,3.2781,3.2935,3.3345,3.4117,3.4736,3.4927,3.4972,3.4854,3.4871,3.4802,3.4806,3.4794,3.4849,3.4857,3.4884,3.4925,3.4979,3.4985,3.5088,3.5088,3.5155,3.5164,3.5314,3.5292,3.5359,3.5411,3.5474,3.5533,3.5595,3.5689,3.5751,3.5857,3.597,3.6067,3.6139,3.6211,3.6329,3.6475,3.6627,3.6736,3.6879,3.7107,3.7258,3.744,3.7642,3.777,3.7884,3.8128,3.8374,3.8525,3.8723,3.8873,3.9097,3.9263,3.9452,3.9529,3.9601,3.9588,3.9458,3.9235,3.8933,3.8522,3.8118,3.7694,3.7253,3.7045,3.6654,3.6334,3.6036,3.5761,3.5536,3.5363,3.5246,3.516,3.5086,3.499,3.5006,3.4959,3.4921,3.4903,3.4891,3.4832,3.4849,3.4841,3.4878,3.487,3.4814,3.4811,3.4804,3.4786,3.4805,3.4827,3.48,3.4838,3.4872,3.4827,3.4775,3.479,3.4818,3.4813,3.4759,3.4768,3.4754,3.4764,3.4792,3.4809,3.4791,3.4756,3.4784,3.4789,3.4766,3.4757,3.4761,3.4776,3.4783,3.4756,3.4705,3.4709,3.475,3.4757,3.4754,3.4756,3.4722,3.4746,3.4775,3.4779,3.4737,3.4725,3.4738,3.4756,3.4759,3.4725,3.4729,3.4752,3.4789,3.4803,3.4769,3.4761,3.4784,3.4805,3.4811,3.4807,3.4773,3.4776,3.4791,3.4831,3.4824,3.4802,3.4788,3.4814,3.4789,3.4796,3.477,3.4774,3.4787,3.4819,3.4788,3.4873,3.4878,3.4895,3.4901,3.4886,3.4817,3.4871,3.5252,3.5628,3.5636,3.5433,3.5355,3.5247,3.5218,3.514,3.5045,3.4825,3.4841,3.4837,3.4788,3.4775,3.4692,3.4737,3.4725,3.4751,3.47,3.4658,3.4626,3.4662,3.4667,3.4671,3.464,3.4615,3.4674,3.4686,3.4691,3.4643,3.4521,3.3737,3.281,3.3088,3.5331,3.6978,3.9789,4.2492,4.5062,4.2247,3.6444,3.4108,3.3208,3.3728,3.3846,3.4975,3.5303,3.5509,3.5387,3.5292,3.5266,3.5292,3.5269,3.5346,3.531,3.5332,3.5357,3.546,3.5436,3.551,3.5494,3.5588,3.563,3.5697,3.5731,3.5788,3.585,3.5955,3.6014,3.6093,3.6173,3.6212,3.6333,3.6372,3.6484,3.6545,3.6627,3.6766,3.6898,3.6994,3.7139,3.7275,3.7434,3.7623,3.7809,3.7948,3.8172,3.8378,3.8616,3.8798,3.8988,3.9193,3.9305,3.9509,3.9726,3.9834,3.9988,4.0046,4.0152,4.0093,3.9973,3.9718,3.9394,3.9,3.8596,3.813,3.7704,3.732,3.6963,3.6618,3.6367,3.6188,3.603,3.5852,3.5753,3.5621,3.5582,3.548,3.5495,3.5446,3.5437,3.5381,3.5405,3.5384,3.5378,3.5329,3.5309,3.5315,3.5341,3.5334,3.5339,3.5287,3.5301,3.5307,3.5363,3.5318,3.5343,3.531,3.5359,3.5398,3.5401,3.5404,3.5406,3.5381,3.5412,3.5396,3.5379,3.5338,3.537,3.5364,3.5374,3.5347,3.5321,3.5354,3.5366,3.5374,3.533,3.5299,3.5293,3.5313,3.5309,3.5292,3.5259,3.5262,3.5295,3.5273,3.5289,3.5257,3.5254,3.5282,3.5315,3.5283,3.5261,3.5253,3.5264,3.5288,3.5274,3.5279,3.5263,3.5292,3.5311,3.5284,3.5306,3.5274,3.5323,3.534,3.5315,3.5301,3.5289,3.5362,3.539,3.5396,3.5354,3.5352,3.5351,3.5385,3.5334,3.5343,3.5321,3.5366,3.5403,3.5397,3.5374,3.5372,3.5398,3.54,3.5373,3.5386,3.5405,3.5394,3.5439,3.5485,3.5465,3.5503,3.5471,3.5474,3.5452,3.5703,3.6016,3.624,3.611,3.6022,3.5907,3.5743,3.5739,3.5674,3.5664,3.545,3.5406,3.5376,3.5326,3.5294,3.5283,3.5244,3.523,3.5254,3.5235,3.5212,3.517,3.516,3.5182,3.5206,3.5213,3.5206,3.5208,3.5214,3.5244,3.525,3.5045,3.4167,3.3338,3.3846,3.6218,3.942,4.1757,4.507,4.4511,3.9048,3.5471,3.4089,3.4006,3.4433,3.518,3.5836,3.5927,3.6031,3.596,3.5917,3.5848,3.5833,3.5799,3.5813,3.5843,3.5871,3.5874,3.5914,3.5978,3.6007,3.6005,3.6039,3.6067,3.616,3.6196,3.6249,3.6261,3.6334,3.6373,3.6468,3.652,3.6601,3.6635,3.6767,3.6886,3.7003,3.7089,3.7175,3.7301,3.745,3.755,3.7696,3.7843,3.803,3.8145,3.8348,3.8528,3.8686,3.8887,3.9108,3.9292,3.947,3.9644,3.9788,4.0022,4.0198,4.033,4.0385,4.0387,4.0361,4.0221,3.9949,3.9624,3.9396,3.9033,3.8553,3.8131,3.7703,3.7322,3.694,3.672,3.647,3.6371,3.6035,3.5906,3.5826,3.5753,3.5676,3.5633,3.559,3.5556,3.5531,3.555,3.5476,3.5489,3.5524,3.5524,3.5506,3.5475,3.5488,3.5495,3.5478,3.5443,3.5422,3.5468,3.5453,3.5493,3.545,3.5415,3.5417,3.5433,3.5417,3.543,3.5379,3.5381,3.5392,3.5403,3.538,3.535,3.5359,3.5359,3.5376,3.5349,3.5335,3.529,3.5319,3.5318,3.5315,3.5289,3.5268,3.5278,3.5271,3.5246,3.5221,3.5214,3.5232,3.5224,3.5244,3.5236,3.5205,3.5204,3.5225,3.5219,3.5216,3.5194,3.5175,3.5176,3.519,3.5162,3.5131,3.5119,3.5159,3.5181,3.5153,3.5127,3.5096,3.5134,3.5187,3.5177,3.5133,3.5135,3.512,3.5166,3.5147,3.511,3.5078,3.5099,3.5118,3.5085,3.5058,3.5093,3.5078,3.5086,3.5118,3.5138,3.5085,3.5129,3.5161,3.5158,3.5175,3.5173,3.519,3.5168,3.5145,3.5097,3.532,3.5701,3.5975,3.5945,3.5734,3.557,3.5426,3.5383,3.5277,3.5181,3.5022,3.4958,3.4959,3.4894,3.4897,3.4803,3.4783,3.4817,3.4807,3.4751,3.472,3.4673,3.4726,3.4728,3.4702,3.4701,3.4693,3.4693,3.4686,3.47,3.4679,3.4356,3.3447,3.2787,3.35,3.6171,3.9327,4.1656,4.4782,4.3175,3.7207,3.5146,3.3213,3.2673,3.3409,3.3819,3.4942,3.5246,3.5381,3.5291,3.5244,3.5151,3.5199,3.5187,3.5244,3.5199,3.5206,3.526,3.5327,3.5291,3.5365,3.5382,3.5441,3.5491,3.5557,3.5628,3.5676,3.57,3.5808,3.5852,3.5912,3.5937,3.6037,3.6111,3.6261,3.6342,3.6448,3.6524,3.664,3.6713,3.6878,3.6957,3.7079,3.724,3.7415,3.7616,3.7824,3.7959,3.8215,3.8452,3.8611,3.875,3.8936,3.9115,3.9296,3.9506,3.9635,3.9746,3.9807,3.9862,3.9822,3.9673,3.943,3.9102,3.874,3.8318,3.7833,3.7436,3.7009,3.6625,3.6292,3.5963,3.5708,3.5512,3.5373,3.5284,3.5161,3.5116,3.5032,3.4958,3.4963,3.4957,3.4924,3.4822,3.4863,3.4945,3.4848,3.4865,3.4759,3.4818,3.4816,3.4804,3.4794,3.4802,3.4818,3.4853,3.4813,3.482,3.4809,3.4832,3.488,3.4884,3.4837,3.4832,3.4831,3.4878,3.4875,3.4892,3.4877,3.4867,3.4839,3.4803,3.4784,3.4782,3.4787,3.4808,3.4815,3.4822,3.4749,3.474,3.4746,3.4741,3.4728,3.4709,3.4729,3.4706,3.4711,3.4712,3.4698,3.4685,3.4723,3.4717,3.473,3.4711,3.4696,3.4702,3.4744,3.4757,3.4709,3.4674,3.4677,3.4742,3.4765,3.472,3.4701,3.4688,3.4644,3.4718,3.4694,3.4662,3.4635,3.4653,3.4671,3.4632,3.4638,3.4666,3.4692,3.4698,3.4696,3.4683,3.467,3.4731,3.4716,3.4779,3.4706,3.4759,3.4807,3.4789,3.4801,3.4778,3.4689,3.4874,3.5273,3.5432,3.5596,3.5422,3.53,3.5154,3.5008,3.494,3.4819,3.4644,3.459,3.463,3.4602,3.4564,3.4535,3.4499,3.4489,3.4451,3.4464,3.4509,3.4525,3.4527,3.4478,3.4479,3.4391,3.4426,3.445,3.4415,3.4418,3.4452,3.4334,3.3594,3.2735,3.2921,3.5049,3.8412,4.0934,4.3777,4.3792,4.1435,3.5417,3.2452,3.157,3.1787,3.3199,3.3862,3.4946,3.501,3.532,3.5051,3.5189,3.4979,3.5151,3.5041,3.5232,3.5107,3.532,3.5221,3.5381,3.5255,3.5391,3.5344,3.5482,3.54,3.5571,3.5554,3.5694,3.5664,3.5815,3.5804,3.5976,3.6023,3.6178,3.6193,3.6317,3.6352,3.6548,3.6556,3.6735,3.6751,3.6897,3.7047,3.7234,3.7364,3.7544,3.7722,3.797,3.8172,3.835,3.8536,3.8706,3.8927,3.911,3.9276,3.9444,3.962,3.9676,3.9829,3.9893,3.9913,3.9784,3.9561,3.9274,3.8918,3.8481,3.7989,3.7576,3.7196,3.6795,3.6466,3.6091,3.5889,3.5613,3.5511,3.5367,3.5328,3.5178,3.5163,3.5088,3.5071,3.4997,3.4963,3.4937,3.4928,3.4889,3.4895,3.4818,3.4901,3.4868,3.4921,3.487,3.4931,3.4877,3.4935,3.4858,3.4924,3.4898,3.4935,3.4934,3.4977,3.4902,3.4943,3.4925,3.4963,3.4903,3.4971,3.4904,3.4971,3.4976,3.4987,3.4922,3.4926,3.4894,3.4939,3.4931,3.4925,3.4868,3.4872,3.4888,3.4913,3.4907,3.4851,3.4786,3.4795,3.4801,3.4821,3.4789,3.4793,3.477,3.4769,3.4757,3.4801,3.4761,3.4787,3.483,3.4817,3.4787,3.4762,3.4777,3.4782,3.4784,3.4754,3.4754,3.4766,3.4735,3.4768,3.4697,3.4692,3.4671,3.47,3.4665,3.4715,3.472,3.4683,3.4702,3.4711,3.4725,3.4728,3.4734,3.4776,3.4782,3.4777,3.4791,3.4758,3.4719,3.4888,3.5301,3.5593,3.5472,3.5357,3.5259,3.5148,3.5094,3.4984,3.4944,3.4764,3.4741,3.4668,3.4645,3.4599,3.4592,3.4571,3.4536,3.4551,3.4576,3.4567,3.4547,3.4515,3.4477,3.4503,3.4542,3.4539,3.4565,3.4519,3.4543,3.4525,3.4464,3.3869,3.2869,3.2775,3.4548,3.772,4.0376,4.3194,4.4793,4.0467,3.5219,3.3083,3.2527,3.2803,3.3379,3.4282,3.4959,3.522,3.5269,3.5196,3.515,3.5108,3.5155,3.5143,3.5212,3.5203,3.5238,3.5242,3.5276,3.5332,3.5405,3.5398,3.5444,3.5424,3.5542,3.5614,3.5694,3.5689,3.573,3.5767,3.5902,3.5987,3.6067,3.6084,3.6181,3.6298,3.6429,3.6497,3.6629,3.6756,3.6912,3.6999,3.7127,3.729,3.7446,3.7621,3.784,3.8047,3.8244,3.8431,3.8691,3.8897,3.9037,3.9216,3.9393,3.9548,3.9682,3.9764,3.9776,3.9755,3.9693,3.951,3.9215,3.8819,3.8351,3.792,3.7502,3.7087,3.6686,3.6336,3.6028,3.5787,3.557,3.5378,3.5289,3.5228,3.5121,3.5048,3.4966,3.4953,3.4949,3.4926,3.4928,3.4876,3.4815,3.4823,3.4823,3.4815,3.4759,3.4771,3.4749,3.4791,3.4791,3.4791,3.4806,3.4769,3.4792,3.4812,3.4792,3.4795,3.4768,3.479,3.4821,3.484,3.4809,3.4766,3.4777,3.4815,3.4819,3.4804,3.4725,3.4766,3.4771,3.477,3.4759,3.4755,3.474,3.4743,3.4741,3.4684,3.4674,3.4663,3.4708,3.4718,3.4666,3.4672,3.4612,3.4642,3.463,3.4633,3.4621,3.4609,3.4629,3.4658,3.4647,3.4628,3.461,3.4638,3.4656,3.4622,3.4576,3.464,3.4631,3.4626,3.4601,3.4591,3.458,3.4586,3.4592,3.4601,3.4575,3.4599,3.4634,3.4664,3.4667,3.4681,3.4682,3.4726,3.473,3.4686,3.4613,3.4875,3.5353,3.5509,3.5264,3.5174,3.5025,3.494,3.4894,3.4812,3.4641,3.4504,3.4505,3.4465,3.4457,3.441,3.4408,3.4375,3.4359,3.436,3.4369,3.4306,3.4288,3.4292,3.4284,3.4273,3.4277,3.4266,3.4316,3.4335,3.4311,3.4245,3.3735,3.2688,3.2422,3.2897,3.5377,3.8624,4.0993,4.4275,4.3501,3.7841,3.4234,3.2852,3.2769,3.3154,3.3897,3.463,3.4937,3.4981,3.4855,3.4811,3.4758,3.4767,3.4748,3.479,3.4784,3.4814,3.4836,3.4898,3.496,3.497,3.4967,3.5065,3.5109,3.5182,3.5197,3.5272,3.528,3.5409,3.5472,3.5535,3.5563,3.5627,3.5697,3.5824,3.5922,3.5983,3.6094,3.622,3.6352,3.6487,3.6604,3.6719,3.6905,3.7114,3.7261,3.7462,3.7639,3.7858,3.8068,3.8169,3.8378,3.8561,3.8725,3.8958,3.9111,3.9247,3.9331,3.9386,3.9404,3.9355,3.9098,3.8789,3.84,3.7954,3.7483,3.7054,3.6611,3.6244,3.6054,3.5704,3.5444,3.5197,3.5004,3.4872,3.4775,3.4696,3.4594,3.456,3.4543,3.4491,3.4496,3.4462,3.439,3.44,3.4376,3.4394,3.4334,3.4332,3.4329,3.4345,3.4375,3.4312,3.4312,3.4304,3.4352,3.4365,3.4363,3.4339,3.4307,3.4341,3.4331,3.4337,3.431,3.4334,3.436,3.4359,3.4331,3.4312,3.4316,3.4326,3.4356,3.4339,3.4306,3.4318,3.4298,3.4266,3.429,3.4235,3.4259,3.4248,3.4267,3.4231,3.4217,3.4218,3.4205,3.4234,3.4238,3.418,3.4156,3.4177,3.4187,3.4202,3.4201,3.4146,3.4168,3.4144,3.4177,3.4126,3.4133,3.4169,3.4168,3.4142,3.4104,3.4124,3.4117,3.4122,3.4122,3.4095,3.4091,3.4056,3.4066,3.4107,3.4083,3.4043,3.4078,3.4105,3.4131,3.4151,3.4122,3.4138,3.4069,3.4002,3.4244,3.4682,3.489,3.488,3.4688,3.4569,3.4424,3.4293,3.4251,3.419,3.4022,3.3934,3.3883,3.3826,3.3859,3.3821,3.3817,3.3785,3.378,3.3766,3.3745,3.374,3.3721,3.3688,3.3699,3.37,3.3671,3.3673,3.368,3.3681,3.3705,3.3529,3.2797,3.1838,3.2065,3.4179,3.7451,3.9843,4.2952,4.3455,4.131,3.5717,3.2736,3.2214,3.2306,3.2776,3.3583,3.4292,3.4207,3.4416,3.413,3.4311,3.4069,3.425,3.4077,3.4294,3.4127,3.4345,3.4256,3.4442,3.4339,3.4524,3.4431,3.4572,3.4504,3.469,3.4627,3.4738,3.4688,3.4858,3.4833,3.5001,3.4966,3.5147,3.5117,3.5306,3.5352,3.55,3.5509,3.5645,3.5755,3.5901,3.6026,3.6205,3.635,3.6562,3.6755,3.6927,3.7127,3.7338,3.7548,3.7773,3.7987,3.8162,3.8364,3.8569,3.8697,3.8749,3.8838,3.8924,3.8923,3.8785,3.8587,3.8214,3.7827,3.7358,3.6945,3.6482,3.6057,3.5612,3.5333,3.5011,3.478,3.4547,3.4412,3.4255,3.4216,3.4143,3.4125,3.3991,3.4009,3.3902,3.3917,3.3881,3.388,3.379,3.3824,3.3832,3.3842,3.3791,3.3795,3.3794,3.3828,3.3742,3.3767,3.3757,3.379,3.3768,3.3832,3.3745,3.3814,3.3808,3.386,3.3834,3.3864,3.383,3.3839,3.3822,3.3813,3.3779,3.3817,3.3799,3.3832,3.3836,3.3837,3.3768,3.3868,3.3831,3.3865,3.381,3.3769,3.3768,3.3803,3.378,3.3804,3.3764,3.3811,3.384,3.3805,3.3782,3.3798,3.3777,3.3822,3.3754,3.377,3.3762,3.3789,3.3811,3.3844,3.3801,3.3757,3.3754,3.3795,3.383,3.3845,3.3767,3.3798,3.3809,3.3817,3.3833,3.3833,3.385,3.3841,3.3835,3.3876,3.3921,3.3931,3.3956,3.398,3.4005,3.396,3.3846,3.3927,3.4366,3.4796,3.4734,3.4546,3.4489,3.4343,3.4282,3.4172,3.4076,3.4,3.3919,3.3883,3.3867,3.3803,3.3842,3.3818,3.3819,3.3765,3.3773,3.3774,3.3802,3.3861,3.3853,3.3807,3.3814,3.3807,3.3833,3.3836,3.3818,3.3824,3.3839,3.3423,3.2444,3.1972,3.3191,3.6253,3.9331,4.1774,4.4309,4.111,3.5128,3.2528,3.1778,3.2255,3.2805,3.3885,3.4506,3.4583,3.4733,3.4575,3.4645,3.4598,3.4641,3.4548,3.4647,3.4623,3.472,3.4706,3.4807,3.4768,3.4851,3.4911,3.4969,3.4975,3.5048,3.511,3.5178,3.5218,3.5346,3.5333,3.542,3.5514,3.5629,3.568,3.5767,3.5867,3.6066,3.6186,3.6332,3.6411,3.6539,3.668,3.6843,3.7052,3.7262,3.7351,3.7575,3.7774,3.8,3.818,3.841,3.8619,3.8793,3.8999,3.919,3.9345,3.9491,3.9702,3.971,3.9742,3.9579,3.9289,3.8944,3.8588,3.8059,3.7818,3.7412,3.7027,3.6659,3.6268,3.5886,3.5627,3.546,3.5287,3.5139,3.5026,3.4955,3.4931,3.4893,3.4843,3.4825,3.4844,3.4809,3.4834,3.4792,3.4751,3.4759,3.4721,3.4705,3.4724,3.4732,3.474,3.474,3.4706,3.4749,3.4805,3.4781,3.4831,3.4882,3.4851,3.4811,3.484,3.4891,3.4921,3.4908,3.4911,3.4867,3.4932,3.4902,3.4961,3.4908,3.4945,3.4939,3.484,3.481,3.4862,3.4808,3.4857,3.4911,3.4905,3.4872,3.4863,3.488,3.4941,3.4931,3.4952,3.4904,3.489,3.4896,3.4954,3.4937,3.498,3.4995,3.4948,3.5017,3.5,3.4986,3.4987,3.4978,3.4946,3.5,3.4978,3.499,3.4972,3.4988,3.5025,3.5019,3.5063,3.5167,3.5173,3.5162,3.522,3.5146,3.508,3.515,3.5562,3.5967,3.5934,3.5717,3.5686,3.5637,3.5518,3.5467,3.5397,3.5205,3.5162,3.5131,3.5088,3.5076,3.5074,3.5066,3.5039,3.4949,3.5004,3.4985,3.4991,3.5018,3.501,3.5054,3.5071,3.5045,3.5032,3.4953,3.4923,3.4984,3.4961,3.4649,3.3636,3.3214,3.4308,3.7397,4.0581,4.32,4.5549,4.2186,3.5785,3.3039,3.1912,3.1999,3.2916,3.3936,3.4998,3.5491,3.5682,3.5724,3.5675,3.5665,3.5677,3.5743,3.5692,3.5766,3.5811,3.5826,3.5862,3.5851,3.5944,3.6042,3.6088,3.6142,3.6215,3.6223,3.627,3.6315,3.6453,3.6503,3.6579,3.6613,3.6677,3.6849,3.6983,3.7074,3.7156,3.7243,3.7354,3.7473,3.7624,3.7749,3.7874,3.8,3.8134,3.8381,3.8591,3.8791,3.8959,3.9146,3.9392,3.9606,3.9857,4.0045,4.0162,4.0333,4.0481,4.0623,4.0655,4.0565,4.0419,4.036,4.0046,3.9631,3.9404,3.8969,3.8232,3.7815,3.7419,3.7042,3.6725,3.6467,3.6277,3.6069,3.5953,3.5859,3.5781,3.5682,3.5655,3.5574,3.5544,3.5515,3.5542,3.552,3.5493,3.5487,3.5458,3.5419,3.54,3.5397,3.5413,3.5417,3.5484,3.5521,3.5537,3.5533,3.5565,3.5525,3.5566,3.5604,3.5589,3.5577,3.559,3.5624,3.5612,3.5654,3.5613,3.5643,3.5629,3.5641,3.5645,3.5696,3.5682,3.5623,3.5557,3.5519,3.5529,3.557,3.557,3.5535,3.5534,3.5494,3.5504,3.5505,3.5476,3.5448,3.5399,3.5408,3.5429,3.5472,3.5428,3.5356,3.5385,3.5433,3.546,3.5458,3.5469,3.5454,3.5526,3.5534,3.5457,3.5341,3.5527,3.5969,3.6248,3.6123,3.5989,3.5892,3.575,3.5694,3.5583,3.5472,3.5375,3.5363,3.532,3.5292,3.5254,3.5258,3.5228,3.5207,3.5189,3.5136,3.5153,3.5141,3.5151,3.5126,3.5084,3.5096,3.514,3.5166,3.5111,3.5099,3.5053,3.4814,3.3931,3.3463,3.3442,3.5157,3.848,4.1272,4.4095,4.5576,4.115,3.5597,3.3557,3.284,3.3481,3.4014,3.5062,3.5599,3.5711,3.5704,3.5636,3.5634,3.5643,3.567,3.5663,3.5713,3.569,3.5744,3.5747,3.5804,3.5794,3.5855,3.5932,3.601,3.6021,3.6082,3.6112,3.6205,3.6249,3.6314,3.6395,3.6404,3.6445,3.6546,3.6627,3.6705,3.6824,3.6945,3.7097,3.7185,3.7304,3.7435,3.7569,3.7726,3.791,3.8142,3.829,3.8506,3.8701,3.8932,3.9031,3.9221,3.9454,3.9647,3.9866,4.0034,4.0201,4.0297,4.0376,4.0344,4.0245,3.9984,3.9623,3.925,3.8825,3.834,3.7844,3.7399,3.7036,3.6698,3.6537,3.6262,3.6014,3.5864,3.5758,3.5666,3.5552,3.5456,3.5462,3.5471,3.5363,3.5376,3.5346,3.5321,3.5297,3.5253,3.522,3.5193,3.5203,3.5219,3.5191,3.517,3.5165,3.5181,3.5171,3.5177,3.5182,3.5169,3.5144,3.5182,3.5165,3.5106,3.5101,3.5106,3.5154,3.5154,3.5157,3.5127,3.5131,3.515,3.5196,3.5187,3.5157,3.513,3.5112,3.5115,3.5111,3.5075,3.5058,3.5058,3.5034,3.5035,3.5032,3.5016,3.5029,3.5057,3.5037,3.5014,3.5003,3.5018,3.4991,3.5011,3.4991,3.497,3.4991,3.5018,3.4994,3.4994,3.4969,3.4958,3.4979,3.4987,3.4955,3.4918,3.4935,3.496,3.497,3.4976,3.499,3.5039,3.5082,3.5102,3.5005,3.4918,3.4941,3.5304,3.58,3.5689,3.5529,3.5422,3.5312,3.5268,3.5184,3.509,3.4916,3.4876,3.4868,3.4826,3.4746,3.4694,3.4697,3.4701,3.4678,3.4696,3.4637,3.4621,3.465,3.4633,3.4634,3.4611,3.4609,3.4654,3.464,3.4632,3.4607,3.4581,3.4294,3.3299,3.2656,3.357,3.6277,3.9395,4.1791,4.4966,4.3177,3.7493,3.4581,3.3576,3.3627,3.3667,3.4621,3.5076,3.5295,3.5314,3.5181,3.5115,3.5092,3.5135,3.5094,3.5114,3.5069,3.5122,3.5147,3.5179,3.5205,3.5227,3.5244,3.5325,3.5346,3.5409,3.5435,3.5512,3.553,3.5583,3.5634,3.5688,3.5745,3.5878,3.5943,3.6029,3.6086,3.6185,3.6297,3.6429,3.6541,3.6691,3.682,3.6968,3.7122,3.7296,3.7439,3.7554,3.777,3.8018,3.8228,3.8438,3.8634,3.8854,3.9068,3.924,3.938,3.9513,3.9639,3.9715,3.9681,3.9533,3.9281,3.8975,3.8524,3.8055,3.7599,3.7346,3.6966,3.6567,3.6169,3.583,3.5577,3.5339,3.5184,3.5008,3.4903,3.4781,3.4763,3.4722,3.4731,3.4658,3.4617,3.4595,3.4604,3.4597,3.4585,3.4518,3.4522,3.4514,3.4537,3.4505,3.447,3.4463,3.4463,3.448,3.4454,3.4441,3.4439,3.445,3.4458,3.4469,3.4448,3.443,3.4417,3.4465,3.4456,3.4421,3.439,3.4391,3.4421,3.4392,3.4395,3.4337,3.4375,3.4383,3.4378,3.4362,3.4284,3.4301,3.4322,3.4338,3.4279,3.4272,3.4277,3.4271,3.4269,3.4245,3.4252,3.4229,3.4242,3.4208,3.4214,3.42,3.419,3.421,3.4185,3.4209,3.4176,3.4173,3.4179,3.4181,3.4161,3.4139,3.4131,3.4135,3.4157,3.4148,3.4093,3.41,3.4108,3.4155,3.4181,3.4194,3.4244,3.4271,3.4317,3.4225,3.4141,3.4302,3.4795,3.512,3.505,3.4848,3.4728,3.463,3.4522,3.446,3.4375,3.4193,3.41,3.4095,3.4032,3.402,3.4023,3.4003,3.3973,3.3989,3.4,3.3954,3.3953,3.3964,3.397,3.394,3.3939,3.3927,3.3933,3.3945,3.3909,3.3928,3.382,3.3261,3.2266,3.2204,3.3998,3.7129,3.967,4.2488,4.4208,3.9918,3.6785,3.3783,3.2608,3.2893,3.2786,3.394,3.4303,3.4658,3.4508,3.4495,3.4351,3.4436,3.4357,3.4477,3.4387,3.4528,3.4481,3.4575,3.4528,3.4641,3.454,3.4651,3.4673,3.4796,3.4755,3.4822,3.4853,3.4978,3.5017,3.5107,3.511,3.5254,3.5288,3.5401,3.5474,3.5575,3.5631,3.5819,3.5847,3.6019,3.6114,3.6251,3.6408,3.6573,3.6759,3.6938,3.7118,3.7342,3.7581,3.7805,3.8004,3.8174,3.8381,3.8649,3.8856,3.8979,3.9127,3.9248,3.9278,3.926,3.9166,3.8872,3.8577,3.8171,3.7763,3.7271,3.6803,3.6357,3.6,3.5623,3.5326,3.5021,3.4813,3.4652,3.4582,3.44,3.4329,3.4262,3.4236,3.4202,3.4171,3.4099,3.4138,3.4085,3.4091,3.4033,3.4054,3.4029,3.4058,3.4049,3.4031,3.3954,3.3968,3.3968,3.3994,3.3979,3.3993,3.3943,3.3972,3.3956,3.398,3.3912,3.3935,3.392,3.3943,3.3969,3.392,3.3875,3.3948,3.3916,3.3918,3.388,3.3884,3.3856,3.3879,3.3822,3.3844,3.3803,3.3781,3.3813,3.3842,3.3782,3.3784,3.3748,3.3763,3.3741,3.3786,3.3757,3.3742,3.3733,3.3725,3.3677,3.3646,3.3643,3.3662,3.3688,3.3722,3.3635,3.3634,3.365,3.366,3.367,3.3626,3.3632,3.3631,3.3687,3.3655,3.3655,3.3595,3.3549,3.361,3.3609,3.3599,3.3627,3.3612,3.3677,3.3707,3.3719,3.3735,3.3635,3.3581,3.3835,3.4272,3.4559,3.4312,3.4257,3.4118,3.3959,3.3925,3.3833,3.3711,3.352,3.3509,3.352,3.3499,3.3497,3.3451,3.3409,3.3401,3.3363,3.3385,3.3392,3.3362,3.3365,3.3329,3.3364,3.3358,3.3365,3.3323,3.3318,3.3355,3.3409,3.3321,3.2565,3.1606,3.1804,3.3973,3.727,3.9663,4.2592,4.2817,3.7474,3.288,3.1056,3.0774,3.1684,3.2476,3.352,3.3869,3.3907,3.3937,3.3883,3.381,3.3796,3.3842,3.3854,3.3896,3.3869,3.3898,3.3942,3.395,3.402,3.4064,3.4146,3.4188,3.418,3.4206,3.4271,3.4317,3.433,3.4397,3.4474,3.455,3.4639,3.4695,3.477,3.4897,3.4976,3.509,3.5233,3.5317,3.5421,3.552,3.5726,3.5885,3.604,3.6259,3.6478,3.6596,3.6784,3.6979,3.7198,3.7397,3.7614,3.7788,3.7943,3.8093,3.8277,3.8424,3.8519,3.8508,3.8449,3.837,3.8073,3.7701,3.7222,3.6736,3.6303,3.6094,3.5665,3.5222,3.4881,3.4609,3.4313,3.4151,3.3961,3.3804,3.3744,3.3644,3.354,3.3431,3.3406,3.3431,3.3416,3.3402,3.3345,3.3258,3.3254,3.3291,3.3324,3.3258,3.3237,3.314,3.3233,3.3269,3.3261,3.3228,3.3171,3.324,3.3264,3.3253,3.3219,3.3201,3.3217,3.3256,3.3272,3.3241,3.32,3.3192,3.3188,3.3264,3.3256,3.3218,3.3233,3.3277,3.3269,3.3248,3.321,3.3171,3.3207,3.3215,3.3179,3.3179,3.3174,3.3171,3.3133,3.3105,3.3116,3.31,3.3094,3.312,3.3191,3.3145,3.3117,3.3108,3.312,3.3109,3.3084,3.3103,3.3133,3.317,3.308,3.3029,3.3092,3.3139,3.3144,3.311,3.2997,3.3019,3.3096,3.308,3.3098,3.3074,3.3093,3.3119,3.3371,3.3764,3.3913,3.3659,3.3588,3.3498,3.3373,3.3298,3.3226,3.3127,3.3014,3.3044,3.2951,3.2921,3.2871,3.2857,3.2874,3.2861,3.2773,3.2736,3.2737,3.2783,3.2792,3.2738,3.2716,3.279,3.2799,3.2813,3.2803,3.2773,3.2691,3.2553,3.1707,3.1086,3.1598,3.415,3.7348,3.9755,4.2606,4.1178,3.5101,3.1217,2.971,2.9701,3.0697,3.1713,3.2249,3.2991,3.3313,3.3379,3.3326,3.3243,3.3308,3.3306,3.3287,3.3223,3.3312,3.332,3.3432,3.3469,3.3557,3.362,3.3694,3.3661,3.366,3.3684,3.3717,3.3837,3.3913,3.396,3.4048,3.4165,3.4204,3.4262,3.4323,3.4388,3.4566,3.4666,3.474,3.4827,3.4945,3.5133,3.5343,3.5479,3.5573,3.5705,3.5885,3.6107,3.6412,3.6584,3.6824,3.6998,3.7162,3.7378,3.7523,3.7706,3.7909,3.8003,3.8133,3.8096,3.8009,3.7809,3.7492,3.7077,3.6859,3.6359,3.5901,3.5456,3.5062,3.4691,3.4351,3.4032,3.3859,3.3711,3.3566,3.3445,3.3317,3.3291,3.326,3.3194,3.3114,3.3143,3.3136,3.3134,3.3113,3.3047,3.2978,3.3,3.3012,3.2986,3.299,3.2969,3.2975,3.3021,3.305,3.3041,3.3049,3.3088,3.3127,3.3078,3.3037,3.3067,3.3079,3.3106,3.3142,3.3152,3.3139,3.3076,3.3049,3.3086,3.3043,3.3108,3.3096,3.309,3.3103,3.3082,3.2992,3.3014,3.3047,3.3036,3.2966,3.2965,3.294,3.2969,3.3003,3.2999,3.2918,3.2897,3.2938,3.2927,3.2966,3.2899,3.2888,3.2873,3.2934,3.2957,3.3013,3.3,3.2953,3.3001,3.3064,3.3056,3.3064,3.3085,3.2993,3.2946,3.3224,3.3714,3.3811,3.3646,3.3553,3.3431,3.3274,3.3239,3.3153,3.3028,3.2981,3.2946,3.2904,3.2884,3.2878,3.2811,3.2796,3.2803,3.2798,3.2796,3.2777,3.275,3.2733,3.2736,3.2745,3.272,3.2729,3.2707,3.2748,3.2763,3.27,3.2169,3.1631,3.0876,3.1303,3.3769,3.6938,3.9292,4.247,4.2153,3.6595,3.2899,3.1326,3.116,3.1622,3.2303,3.3018,3.3338,3.3381,3.3333,3.3261,3.3277,3.3264,3.3264,3.3307,3.3342,3.3345,3.3376,3.3377,3.3459,3.3496,3.3565,3.3584,3.3633,3.3706,3.3763,3.3767,3.378,3.3838,3.3974,3.402,3.4081,3.4148,3.4232,3.4322,3.4456,3.4539,3.4624,3.4737,3.4881,3.5022,3.5193,3.5316,3.5464,3.5621,3.5843,3.6046,3.622,3.6428,3.6512,3.678,3.7008,3.719,3.7367,3.756,3.77,3.7866,3.7968,3.8027,3.8028,3.7927,3.7718,3.7372,3.6904,3.6471,3.606,3.5614,3.5201,3.4794,3.461,3.4326,3.4073,3.3846,3.3687,3.3549,3.3452,3.3414,3.3375,3.333,3.3265,3.3276,3.3232,3.3258,3.3239,3.3216,3.3209,3.3228,3.3192,3.3214,3.3201,3.3165,3.32,3.3212,3.3186,3.3191,3.3188,3.3226,3.3237,3.3219,3.3222,3.3256,3.3256,3.3255,3.3223,3.3206,3.3183,3.3229,3.3222,3.3233,3.3199,3.3203,3.3227,3.3206,3.3193,3.3207,3.3181,3.3223,3.3223,3.3206,3.3171,3.3158,3.316,3.3229,3.3195,3.3167,3.3174,3.3173,3.3197,3.3215,3.318,3.3182,3.3188,3.3205,3.3184,3.3154,3.3153,3.3151,3.3163,3.3146,3.315,3.3135,3.3133,3.3158,3.319,3.3185,3.3161,3.3158,3.3162,3.3176,3.3195,3.3205,3.326,3.3338,3.335,3.3354,3.3252,3.3143,3.3396,3.3878,3.4112,3.3906,3.3809,3.373,3.3634,3.3568,3.3457,3.3392,3.3226,3.3185,3.3163,3.3128,3.3102,3.306,3.31,3.3055,3.3024,3.3019,3.2998,3.3035,3.3001,3.302,3.2991,3.3009,3.3037,3.3002,3.301,3.2987,3.2988,3.287,3.2191,3.124,3.1439,3.3584,3.6736,3.9057,4.2228,4.2947,3.801,3.3967,3.2338,3.2048,3.2276,3.2203,3.324,3.3636,3.3783,3.3713,3.3568,3.3579,3.3568,3.3576,3.3542,3.3576,3.3605,3.3663,3.3644,3.3686,3.3677,3.3763,3.3828,3.3857,3.3879,3.3922,3.3983,3.4062,3.4098,3.4162,3.4218,3.428,3.4354,3.4475,3.4497,3.4596,3.4704,3.4803,3.4921,3.5021,3.5099,3.5287,3.5462,3.5568,3.5684,3.5804,3.6012,3.624,3.6446,3.6624,3.6822,3.7017,3.7242,3.7441,3.7608,3.7802,3.7963,3.807,3.82,3.8214,3.8128,3.7943,3.7642,3.7493,3.7103,3.664,3.6186,3.5753,3.5338,3.4948,3.4566,3.4227,3.4012,3.3805,3.3642,3.3514,3.3383,3.3309,3.3301,3.3227,3.3224,3.3188,3.32,3.3215,3.3174,3.3178,3.3118,3.3105,3.3158,3.3155,3.3139,3.3103,3.3112,3.3115,3.3136,3.3126,3.3096,3.31,3.3165,3.313,3.3107,3.3124,3.3123,3.3168,3.3222,3.3181,3.317,3.3144,3.3152,3.3188,3.3193,3.3175,3.3172,3.3182,3.3182,3.3187,3.3159,3.3166,3.3185,3.3225,3.3221,3.3198,3.3168,3.321,3.3226,3.3168,3.3176,3.3137,3.3168,3.319,3.3201,3.3189,3.3155,3.3157,3.3156,3.3165,3.3177,3.3158,3.3164,3.3173,3.3171,3.3211,3.3167,3.32,3.3186,3.3154,3.3171,3.3158,3.316,3.3139,3.3113,3.3165,3.309,3.3109,3.315,3.3179,3.317,3.3212,3.3222,3.3233,3.3296,3.323,3.3088,3.3136,3.3501,3.4021,3.4022,3.3785,3.369,3.3557,3.354,3.3482,3.3395,3.3197,3.3139,3.3119,3.3045,3.3062,3.3055,3.3054,3.306,3.3034,3.3031,3.2963,3.2959,3.3019,3.3057,3.3036,3.3014,3.3014,3.3034,3.3045,3.3026,3.2987,3.2889,3.213,3.1571,3.1267,3.2564,3.5562,3.8372,4.0931,4.3447,4.0142,3.4365,3.1892,3.12,3.1826,3.2138,3.324,3.3652,3.3843,3.3809,3.3698,3.3667,3.36,3.3653,3.369,3.375,3.3677,3.3749,3.3781,3.3885,3.3942,3.389,3.3876,3.3948,3.4015,3.4084,3.4087,3.4172,3.4245,3.427,3.4342,3.4363,3.4434,3.4554,3.4636,3.4756,3.4809,3.4909,3.5027,3.5145,3.5281,3.5374,3.5533,3.5676,3.5907,3.6052,3.6212,3.6422,3.6697,3.6928,3.7136,3.7278,3.7439,3.7682,3.7934,3.8071,3.8213,3.8411,3.8496,3.8562,3.8524,3.8447,3.8255,3.7969,3.7561,3.7111,3.6693,3.6191,3.5784,3.5429,3.5234,3.4875,3.4543,3.4282,3.4088,3.3999,3.3849,3.377,3.3729,3.3683,3.3648,3.3585,3.3551,3.353,3.3581,3.3591,3.3514,3.3507,3.3448,3.3449,3.3572,3.3555,3.3478,3.3467,3.3468,3.3533,3.3468,3.3471,3.3554,3.3538,3.3532,3.3533,3.3477,3.3521,3.3533,3.3576,3.3573,3.3526,3.3482,3.3553,3.3564,3.3559,3.3572,3.3543,3.3449,3.3499,3.3468,3.3476,3.3469,3.3483,3.3485,3.3449,3.346,3.3448,3.3457,3.3464,3.3424,3.3446,3.3431,3.3451,3.3466,3.3471,3.343,3.336,3.3404,3.3392,3.3401,3.3417,3.3407,3.34,3.3431,3.3412,3.3461,3.3401,3.3381,3.3392,3.3419,3.3475,3.3579,3.3616,3.3554,3.3601,3.3531,3.3506,3.34,3.3764,3.424,3.442,3.4239,3.4099,3.3988,3.384,3.3784,3.3745,3.352,3.3493,3.3523,3.3485,3.3497,3.3405,3.3425,3.337,3.3434,3.3388,3.3349,3.3315,3.3416,3.3455,3.3437,3.3411,3.345,3.3468,3.3453,3.3494,3.3475,3.3414,3.3196,3.2357,3.1735,3.2475,3.5151,3.8366,4.082,4.3558,4.1407,3.5228,3.1797,3.0373,3.0539,3.156,3.2573,3.3533,3.4001,3.4128,3.4246,3.4183,3.4075,3.4054,3.4109,3.4138,3.4178,3.4185,3.4275,3.4317,3.4315,3.4289,3.4288,3.4476,3.4581,3.4639,3.4623,3.4685,3.4718,3.4814,3.4907,3.4922,3.4969,3.5011,3.5193,3.531,3.5423,3.5486,3.5606,3.5686,3.5829,3.5935,3.6078,3.6212,3.642,3.6623,3.6805,3.7041,3.7152,3.7317,3.7518,3.7699,3.7862,3.7969,3.8188,3.8466,3.8662,3.8795,3.8914,3.8962,3.8925,3.8872,3.8706,3.8362,3.7999,3.76,3.7067,3.6819,3.6434,3.5967,3.5653,3.531,3.5029,3.4821,3.4643,3.4504,3.4418,3.4296,3.4272,3.4253,3.4181,3.4111,3.4063,3.4036,3.3994,3.4047,3.4088,3.401,3.4031,3.398,3.4016,3.4003,3.4038,3.4045,3.4008,3.4044,3.4071,3.4052,3.4064,3.4112,3.4149,3.4164,3.4142,3.4139,3.4132,3.4176,3.4197,3.4211,3.4234,3.4158,3.415,3.416,3.4174,3.4195,3.4141,3.4189,3.4205,3.4187,3.4148,3.414,3.4101,3.4128,3.4101,3.4098,3.409,3.4083,3.4061,3.4093,3.4095,3.4109,3.415,3.4225,3.4213,3.428,3.4143,3.4096,3.423,3.4571,3.4881,3.4785,3.461,3.452,3.4382,3.4361,3.4241,3.4231,3.4054,3.4041,3.4006,3.3892,3.3885,3.388,3.3908,3.382,3.3773,3.378,3.3803,3.3798,3.3802,3.3751,3.3726,3.3733,3.3763,3.3768,3.3745,3.3719,3.3737,3.3673,3.3022,3.206,3.2113,3.4165,3.745,4.0003,4.3048,4.384,3.885,3.4087,3.2197,3.166,3.2227,3.2453,3.3406,3.4098,3.4392,3.4458,3.4341,3.4339,3.4311,3.4371,3.4325,3.437,3.4387,3.4439,3.444,3.4469,3.4485,3.4533,3.4623,3.4663,3.466,3.4698,3.4711,3.4846,3.4899,3.4956,3.4956,3.5059,3.5142,3.5196,3.527,3.5352,3.5448,3.5599,3.5678,3.5836,3.5897,3.6101,3.626,3.6332,3.6479,3.6667,3.6826,3.7085,3.7342,3.7519,3.7739,3.7936,3.815,3.8378,3.8525,3.8708,3.8839,3.8949,3.9007,3.8994,3.8832,3.8577,3.8432,3.8128,3.7672,3.7161,3.6709,3.6249,3.5876,3.5497,3.5174,3.4912,3.4748,3.4612,3.4488,3.4418,3.4286,3.4218,3.421,3.4161,3.4165,3.4152,3.4139,3.4166,3.4125,3.407,3.4044,3.4032,3.4102,3.4073,3.4088,3.4034,3.4029,3.4059,3.4054,3.4005,3.4017,3.403,3.4101,3.4143,3.4123,3.4074,3.4038,3.4046,3.4041,3.4048,3.4064,3.4045,3.408,3.4088,3.4046,3.4018,3.406,3.4046,3.4078,3.4038,3.4038,3.4004,3.4018,3.3946,3.3965,3.395,3.3902,3.3888,3.3921,3.3926,3.3914,3.3862,3.3844,3.3794,3.3827,3.3798,3.379,3.3786,3.3804,3.3832,3.3806,3.3787,3.3791,3.3806,3.384,3.3852,3.3856,3.3897,3.3948,3.3948,3.3965,3.3853,3.3787,3.4068,3.4544,3.4773,3.4534,3.4407,3.4324,3.4196,3.415,3.4121,3.4076,3.3926,3.3879,3.3851,3.3781,3.3741,3.3712,3.3657,3.3672,3.3647,3.3626,3.3635,3.3601,3.3623,3.3541,3.3516,3.3524,3.3621,3.3575,3.3602,3.3585,3.3593,3.3473,3.2637,3.1783,3.2187,3.4525,3.7685,4.0011,4.3302,4.3079,3.7624,3.386,3.2319,3.2024,3.2498,3.3131,3.3941,3.4109,3.4294,3.4249,3.4096,3.4098,3.4135,3.4174,3.4167,3.4173,3.4208,3.4234,3.4281,3.4267,3.4337,3.4388,3.4473,3.4524,3.4563,3.4552,3.4614,3.469,3.4767,3.479,3.4832,3.4874,3.4973,3.508,3.5142,3.5227,3.5361,3.5471,3.5607,3.5714,3.5838,3.5998,3.6158,3.6309,3.6457,3.6555,3.6654,3.6924,3.7134,3.7361,3.7552,3.7767,3.7965,3.8206,3.84,3.8532,3.8699,3.8848,3.891,3.8911,3.8806,3.864,3.8323,3.7991,3.7758,3.7248,3.6756,3.635,3.5972,3.5611,3.5241,3.4962,3.4677,3.4543,3.4377,3.4297,3.4165,3.412,3.4047,3.4061,3.4037,3.3996,3.3973,3.3988,3.3974,3.394,3.3941,3.392,3.39,3.3938,3.3916,3.3922,3.3873,3.3858,3.3912,3.3877,3.3881,3.3858,3.3897,3.3888,3.3896,3.389,3.3867,3.3881,3.3895,3.3877,3.3863,3.383,3.3868,3.3888,3.3883,3.3857,3.3819,3.3835,3.3832,3.3837,3.3804,3.3768,3.3765,3.3791,3.3806,3.3784,3.3786,3.3765,3.376,3.3766,3.3759,3.372,3.3698,3.3763,3.3734,3.3703,3.3696,3.3661,3.3716,3.3709,3.3697,3.3691,3.3689,3.3687,3.3684,3.367,3.3674,3.3638,3.3679,3.3706,3.3715,3.3773,3.3778,3.3787,3.3841,3.3686,3.3634,3.3913,3.4425,3.4512,3.4244,3.4211,3.4038,3.3973,3.3964,3.3903,3.3826,3.3614,3.3573,3.3566,3.3502,3.3472,3.3453,3.3446,3.342,3.3438,3.3416,3.3405,3.337,3.3393,3.3391,3.3415,3.3383,3.3379,3.3399,3.3386,3.3346,3.339,3.3122,3.2269,3.1577,3.2221,3.4731,3.7836,4.0108,4.3403,4.2375,3.6802,3.356,3.2356,3.2276,3.2445,3.2656,3.358,3.3937,3.4018,3.4002,3.3895,3.3924,3.3879,3.3939,3.3923,3.3993,3.3942,3.4024,3.4074,3.4128,3.4133,3.4146,3.4144,3.4257,3.4266,3.4345,3.4357,3.4394,3.4448,3.4523,3.4587,3.4686,3.4743,3.4854,3.4929,3.5022,3.5081,3.5159,3.5292,3.5469,3.5565,3.5716,3.586,3.5993,3.6174,3.6342,3.6524,3.6703,3.6923,3.7145,3.7345,3.7598,3.7757,3.7961,3.8147,3.8332,3.8526,3.862,3.8682,3.8735,3.8599,3.8398,3.8251,3.7923,3.7507,3.7057,3.6621,3.6196,3.5787,3.5424,3.5102,3.4818,3.4574
