-302.06,-302.07,-302.08,-302.09,-302.09,-302.09,-302.1,-302.11,-302.11,-302.12,-302.12,-302.13,-302.13,-302.15,-302.15,-302.16,-302.17,-302.18,-302.19,-302.2,-302.21,-302.22,-302.22,-302.24,-302.25,-302.26,-302.27,-302.28,-302.29,-302.3,-302.31,-302.31,-302.32,-302.32,-302.32,-302.32,-302.33,-302.32,-302.32,-302.33,-302.33,-302.33,-302.33,-302.33,-302.32,-302.31,-302.29,-302.27,-302.25,-302.23,-302.2,-302.18,-302.17,-302.15,-302.13,-302.12,-302.11,-302.1,-302.1,-302.1,-302.09,-302.09,-302.09,-302.09,-302.09,-302.09,-302.09,-302.09,-302.09,-302.09,-302.09,-302.09,-302.1,-302.1,-302.1,-302.11,-302.11,-302.11,-302.11,-302.11,-302.11,-302.11,-302.11,-302.11,-302.11,-302.11,-302.12,-302.11,-302.12,-302.11,-302.11,-302.11,-302.11,-302.11,-302.11,-302.11,-302.1,-302.1,-302.11,-302.1,-302.1,-302.1,-302.11,-302.1,-302.1,-302.1,-302.1,-302.1,-302.1,-302.1,-302.1,-302.1,-302.1,-302.1,-302.1,-302.1,-302.1,-302.1,-302.11,-302.11,-302.11,-302.11,-302.11,-302.11,-302.13,-302.15,-302.15,-302.14,-302.14,-302.15,-302.15,-302.15,-302.15,-302.15,-302.14,-302.12,-302.11,-302.11,-302.1,-302.11,-302.1,-302.1,-302.1,-302.1,-302.1,-302.11,-302.16,-302.27,-302.37,-302.55,-302.75,-302.84,-302.72,-302.29,-301.84,-301.45,-301.18,-301.2,-301.28,-301.47,-301.71,-301.9,-302.02,-302.1,-302.13,-302.14,-302.15,-302.15,-302.16,-302.17,-302.18,-302.18,-302.18,-302.19,-302.19,-302.2,-302.2,-302.21,-302.21,-302.22,-302.22,-302.23,-302.24,-302.25,-302.25,-302.26,-302.27,-302.28,-302.28,-302.3,-302.31,-302.31,-302.32,-302.33,-302.34,-302.36,-302.36,-302.37,-302.37,-302.38,-302.38,-302.38,-302.38,-302.38,-302.38,-302.38,-302.38,-302.37,-302.37,-302.37,-302.37,-302.37,-302.37,-302.36,-302.34,-302.32,-302.31,-302.29,-302.28,-302.26,-302.24,-302.22,-302.21,-302.2,-302.19,-302.18,-302.18,-302.17,-302.17,-302.16,-302.17,-302.16,-302.16,-302.16,-302.16,-302.16,-302.16,-302.16,-302.16,-302.16,-302.17,-302.17,-302.17,-302.17,-302.18,-302.18,-302.18,-302.18,-302.18,-302.18,-302.18,-302.18,-302.18,-302.18,-302.18,-302.18,-302.18,-302.18,-302.18,-302.18,-302.18,-302.18,-302.18,-302.18,-302.18,-302.18,-302.18,-302.17,-302.17,-302.17,-302.17,-302.17,-302.17,-302.18,-302.18,-302.18,-302.18,-302.19,-302.19,-302.19,-302.19,-302.19,-302.2,-302.22,-302.22,-302.22,-302.21,-302.21,-302.22,-302.22,-302.21,-302.22,-302.21,-302.19,-302.19,-302.18,-302.18,-302.18,-302.18,-302.18,-302.18,-302.18,-302.18,-302.18,-302.22,-302.3,-302.41,-302.55,-302.76,-302.87,-302.89,-302.56,-302.14,-301.76,-301.53,-301.32,-301.32,-301.5,-301.67,-301.92,-302.04,-302.15,-302.2,-302.23,-302.22,-302.25,-302.24,-302.26,-302.26,-302.27,-302.27,-302.28,-302.28,-302.29,-302.29,-302.31,-302.3,-302.31,-302.32,-302.33,-302.33,-302.34,-302.34,-302.36,-302.36,-302.37,-302.38,-302.39,-302.4,-302.41,-302.42,-302.43,-302.44,-302.45,-302.46,-302.46,-302.47,-302.47,-302.47,-302.48,-302.48,-302.48,-302.48,-302.47,-302.47,-302.47,-302.47,-302.47,-302.46,-302.46,-302.45,-302.44,-302.43,-302.41,-302.38,-302.34,-302.34,-302.32,-302.31,-302.29,-302.28,-302.27,-302.26,-302.25,-302.25,-302.24,-302.24,-302.23,-302.23,-302.23,-302.23,-302.23,-302.23,-302.23,-302.24,-302.23,-302.24,-302.24,-302.24,-302.24,-302.25,-302.24,-302.25,-302.25,-302.25,-302.25,-302.25,-302.25,-302.25,-302.25,-302.25,-302.25,-302.25,-302.25,-302.25,-302.25,-302.25,-302.25,-302.25,-302.24,-302.24,-302.24,-302.24,-302.24,-302.24,-302.24,-302.24,-302.23,-302.24,-302.23,-302.23,-302.23,-302.24,-302.23,-302.24,-302.24,-302.24,-302.25,-302.25,-302.25,-302.25,-302.25,-302.28,-302.28,-302.28,-302.27,-302.28,-302.28,-302.28,-302.28,-302.28,-302.28,-302.27,-302.25,-302.25,-302.24,-302.24,-302.24,-302.24,-302.24,-302.24,-302.24,-302.24,-302.26,-302.34,-302.46,-302.6,-302.82,-302.98,-303.04,-302.85,-302.37,-301.83,-301.46,-301.24,-301.26,-301.48,-301.7,-301.96,-302.12,-302.23,-302.27,-302.28,-302.29,-302.3,-302.3,-302.31,-302.32,-302.32,-302.33,-302.33,-302.34,-302.34,-302.35,-302.35,-302.36,-302.36,-302.37,-302.38,-302.39,-302.39,-302.4,-302.41,-302.42,-302.43,-302.44,-302.45,-302.46,-302.47,-302.48,-302.49,-302.5,-302.51,-302.52,-302.53,-302.54,-302.55,-302.56,-302.56,-302.56,-302.56,-302.57,-302.57,-302.57,-302.57,-302.57,-302.57,-302.57,-302.56,-302.56,-302.54,-302.53,-302.5,-302.48,-302.46,-302.43,-302.41,-302.39,-302.37,-302.36,-302.34,-302.33,-302.32,-302.32,-302.31,-302.31,-302.3,-302.3,-302.3,-302.3,-302.3,-302.3,-302.3,-302.3,-302.3,-302.31,-302.31,-302.31,-302.31,-302.31,-302.31,-302.32,-302.32,-302.32,-302.32,-302.32,-302.32,-302.32,-302.32,-302.32,-302.32,-302.32,-302.32,-302.32,-302.31,-302.31,-302.31,-302.31,-302.31,-302.31,-302.31,-302.31,-302.3,-302.31,-302.31,-302.31,-302.3,-302.31,-302.3,-302.3,-302.3,-302.31,-302.3,-302.3,-302.3,-302.3,-302.3,-302.3,-302.3,-302.3,-302.3,-302.31,-302.32,-302.32,-302.32,-302.32,-302.32,-302.32,-302.34,-302.36,-302.36,-302.35,-302.35,-302.35,-302.36,-302.36,-302.36,-302.35,-302.34,-302.33,-302.32,-302.32,-302.31,-302.31,-302.31,-302.31,-302.31,-302.31,-302.31,-302.31,-302.36,-302.47,-302.59,-302.78,-302.99,-303.12,-302.93,-302.44,-301.9,-301.53,-301.31,-301.33,-301.55,-301.78,-302.04,-302.12,-302.25,-302.33,-302.35,-302.36,-302.36,-302.37,-302.38,-302.39,-302.39,-302.4,-302.4,-302.41,-302.42,-302.42,-302.43,-302.43,-302.44,-302.44,-302.45,-302.46,-302.46,-302.47,-302.48,-302.49,-302.5,-302.51,-302.52,-302.53,-302.54,-302.55,-302.56,-302.57,-302.59,-302.6,-302.6,-302.61,-302.62,-302.62,-302.63,-302.63,-302.63,-302.63,-302.63,-302.63,-302.63,-302.63,-302.64,-302.63,-302.63,-302.62,-302.61,-302.59,-302.58,-302.55,-302.53,-302.5,-302.48,-302.47,-302.45,-302.43,-302.42,-302.4,-302.39,-302.38,-302.38,-302.37,-302.37,-302.36,-302.36,-302.36,-302.36,-302.36,-302.36,-302.36,-302.36,-302.36,-302.36,-302.36,-302.37,-302.36,-302.37,-302.37,-302.37,-302.37,-302.37,-302.37,-302.37,-302.37,-302.37,-302.37,-302.37,-302.37,-302.37,-302.37,-302.36,-302.37,-302.36,-302.36,-302.36,-302.36,-302.36,-302.36,-302.36,-302.36,-302.36,-302.35,-302.35,-302.35,-302.35,-302.35,-302.35,-302.35,-302.35,-302.35,-302.35,-302.35,-302.35,-302.34,-302.34,-302.34,-302.34,-302.35,-302.35,-302.35,-302.36,-302.37,-302.36,-302.36,-302.36,-302.37,-302.39,-302.4,-302.4,-302.39,-302.39,-302.39,-302.4,-302.4,-302.4,-302.4,-302.39,-302.37,-302.36,-302.36,-302.35,-302.35,-302.35,-302.35,-302.35,-302.35,-302.35,-302.36,-302.42,-302.53,-302.58,-302.72,-302.93,-303.06,-303.07,-302.7,-302.21,-301.83,-301.47,-301.4,-301.53,-301.73,-301.97,-302.16,-302.28,-302.35,-302.37,-302.38,-302.39,-302.4,-302.4,-302.41,-302.41,-302.42,-302.43,-302.43,-302.44,-302.45,-302.45,-302.46,-302.47,-302.48,-302.49,-302.5,-302.5,-302.51,-302.51,-302.52,-302.53,-302.54,-302.55,-302.56,-302.57,-302.58,-302.59,-302.6,-302.61,-302.62,-302.63,-302.63,-302.64,-302.65,-302.65,-302.66,-302.65,-302.65,-302.65,-302.65,-302.65,-302.65,-302.65,-302.65,-302.65,-302.64,-302.64,-302.63,-302.61,-302.6,-302.58,-302.55,-302.53,-302.51,-302.49,-302.48,-302.46,-302.45,-302.44,-302.43,-302.43,-302.43,-302.42,-302.41,-302.42,-302.41,-302.41,-302.41,-302.41,-302.41,-302.41,-302.41,-302.42,-302.41,-302.42,-302.42,-302.42,-302.42,-302.42,-302.42,-302.42,-302.42,-302.42,-302.42,-302.42,-302.42,-302.42,-302.42,-302.42,-302.42,-302.42,-302.42,-302.42,-302.42,-302.42,-302.41,-302.42,-302.41,-302.41,-302.41,-302.41,-302.41,-302.41,-302.41,-302.41,-302.41,-302.41,-302.41,-302.42,-302.42,-302.43,-302.42,-302.43,-302.43,-302.44,-302.46,-302.46,-302.45,-302.45,-302.45,-302.45,-302.46,-302.45,-302.45,-302.45,-302.44,-302.42,-302.42,-302.41,-302.42,-302.41,-302.42,-302.42,-302.41,-302.41,-302.42,-302.46,-302.56,-302.61,-302.72,-302.92,-303.08,-303.11,-302.92,-302.51,-302.15,-301.76,-301.55,-301.61,-301.76,-301.96,-302.18,-302.32,-302.38,-302.42,-302.44,-302.46,-302.45,-302.47,-302.47,-302.49,-302.48,-302.5,-302.5,-302.52,-302.51,-302.52,-302.52,-302.53,-302.53,-302.54,-302.54,-302.55,-302.56,-302.57,-302.58,-302.59,-302.59,-302.6,-302.61,-302.62,-302.63,-302.64,-302.65,-302.66,-302.67,-302.68,-302.69,-302.69,-302.7,-302.7,-302.7,-302.7,-302.7,-302.7,-302.7,-302.7,-302.69,-302.69,-302.69,-302.69,-302.69,-302.68,-302.66,-302.65,-302.63,-302.61,-302.6,-302.57,-302.55,-302.53,-302.52,-302.51,-302.5,-302.49,-302.48,-302.48,-302.47,-302.47,-302.47,-302.47,-302.47,-302.46,-302.46,-302.46,-302.46,-302.46,-302.47,-302.47,-302.47,-302.47,-302.48,-302.48,-302.47,-302.47,-302.48,-302.48,-302.48,-302.48,-302.48,-302.48,-302.48,-302.48,-302.49,-302.49,-302.48,-302.47,-302.47,-302.47,-302.46,-302.47,-302.47,-302.47,-302.47,-302.47,-302.47,-302.47,-302.47,-302.47,-302.48,-302.47,-302.47,-302.47,-302.47,-302.47,-302.47,-302.48,-302.48,-302.48,-302.48,-302.48,-302.49,-302.51,-302.52,-302.52,-302.51,-302.51,-302.51,-302.52,-302.51,-302.51,-302.51,-302.51,-302.49,-302.48,-302.48,-302.47,-302.47,-302.47,-302.47,-302.47,-302.47,-302.47,-302.47,-302.5,-302.58,-302.7,-302.84,-303.06,-303.21,-303.22,-302.84,-302.32,-301.91,-301.55,-301.47,-301.6,-301.81,-302.07,-302.27,-302.4,-302.47,-302.49,-302.5,-302.51,-302.52,-302.53,-302.54,-302.54,-302.55,-302.55,-302.56,-302.57,-302.57,-302.57,-302.58,-302.59,-302.6,-302.61,-302.61,-302.62,-302.63,-302.63,-302.64,-302.65,-302.66,-302.67,-302.68,-302.7,-302.7,-302.71,-302.73,-302.74,-302.75,-302.76,-302.76,-302.78,-302.78,-302.79,-302.79,-302.79,-302.79,-302.79,-302.79,-302.79,-302.79,-302.79,-302.78,-302.76,-302.76,-302.75,-302.74,-302.72,-302.7,-302.68,-302.66,-302.63,-302.61,-302.6,-302.58,-302.57,-302.56,-302.55,-302.54,-302.53,-302.52,-302.52,-302.52,-302.52,-302.52,-302.51,-302.51,-302.52,-302.51,-302.52,-302.52,-302.52,-302.52,-302.52,-302.52,-302.53,-302.53,-302.53,-302.53,-302.53,-302.54,-302.54,-302.54,-302.54,-302.54,-302.54,-302.54,-302.53,-302.53,-302.53,-302.53,-302.53,-302.53,-302.53,-302.53,-302.53,-302.52,-302.52,-302.52,-302.52,-302.52,-302.52,-302.52,-302.52,-302.52,-302.51,-302.52,-302.52,-302.52,-302.52,-302.52,-302.52,-302.53,-302.53,-302.53,-302.53,-302.53,-302.54,-302.56,-302.56,-302.55,-302.55,-302.55,-302.56,-302.56,-302.56,-302.56,-302.54,-302.53,-302.52,-302.52,-302.51,-302.51,-302.51,-302.51,-302.51,-302.51,-302.5,-302.51,-302.54,-302.64,-302.77,-302.93,-303.16,-303.32,-303.23,-302.76,-302.15,-301.75,-301.49,-301.46,-301.66,-301.89,-302.05,-302.27,-302.43,-302.51,-302.54,-302.54,-302.56,-302.56,-302.57,-302.57,-302.59,-302.59,-302.6,-302.6,-302.61,-302.61,-302.62,-302.63,-302.64,-302.64,-302.65,-302.65,-302.66,-302.67,-302.68,-302.69,-302.7,-302.71,-302.72,-302.73,-302.74,-302.75,-302.77,-302.78,-302.79,-302.8,-302.81,-302.82,-302.83,-302.83,-302.84,-302.84,-302.85,-302.85,-302.85,-302.85,-302.85,-302.85,-302.86,-302.86,-302.85,-302.85,-302.84,-302.82,-302.8,-302.78,-302.75,-302.73,-302.7,-302.69,-302.67,-302.65,-302.64,-302.62,-302.61,-302.6,-302.59,-302.59,-302.58,-302.58,-302.58,-302.57,-302.57,-302.57,-302.57,-302.57,-302.57,-302.58,-302.58,-302.58,-302.58,-302.58,-302.58,-302.58,-302.58,-302.58,-302.58,-302.59,-302.58,-302.58,-302.59,-302.58,-302.58,-302.58,-302.58,-302.58,-302.58,-302.58,-302.57,-302.58,-302.57,-302.58,-302.57,-302.57,-302.57,-302.57,-302.57,-302.56,-302.56,-302.56,-302.56,-302.56,-302.56,-302.56,-302.56,-302.56,-302.57,-302.57,-302.57,-302.56,-302.56,-302.58,-302.6,-302.6,-302.59,-302.59,-302.59,-302.6,-302.6,-302.6,-302.59,-302.58,-302.56,-302.56,-302.55,-302.55,-302.54,-302.55,-302.55,-302.55,-302.54,-302.55,-302.55,-302.57,-302.64,-302.76,-302.89,-303.12,-303.3,-303.34,-302.98,-302.43,-301.97,-301.61,-301.51,-301.64,-301.77,-301.99,-302.26,-302.42,-302.53,-302.56,-302.58,-302.58,-302.6,-302.6,-302.61,-302.61,-302.62,-302.62,-302.64,-302.64,-302.65,-302.65,-302.66,-302.65,-302.67,-302.67,-302.68,-302.69,-302.7,-302.7,-302.71,-302.72,-302.74,-302.74,-302.75,-302.76,-302.78,-302.79,-302.8,-302.81,-302.82,-302.83,-302.84,-302.84,-302.85,-302.86,-302.86,-302.86,-302.87,-302.86,-302.87,-302.86,-302.86,-302.87,-302.87,-302.87,-302.87,-302.86,-302.85,-302.83,-302.81,-302.79,-302.77,-302.75,-302.73,-302.71,-302.69,-302.67,-302.66,-302.65,-302.64,-302.63,-302.63,-302.63,-302.62,-302.62,-302.61,-302.61,-302.61,-302.61,-302.61,-302.61,-302.62,-302.61,-302.62,-302.62,-302.62,-302.62,-302.62,-302.62,-302.63,-302.62,-302.62,-302.63,-302.63,-302.63,-302.63,-302.62,-302.62,-302.62,-302.62,-302.62,-302.62,-302.61,-302.61,-302.61,-302.6,-302.61,-302.6,-302.6,-302.6,-302.6,-302.59,-302.59,-302.59,-302.6,-302.6,-302.6,-302.61,-302.61,-302.61,-302.61,-302.61,-302.62,-302.63,-302.64,-302.63,-302.63,-302.63,-302.64,-302.63,-302.64,-302.63,-302.62,-302.61,-302.6,-302.59,-302.59,-302.59,-302.59,-302.59,-302.59,-302.59,-302.59,-302.59,-302.61,-302.69,-302.81,-302.93,-303.15,-303.32,-303.36,-303.04,-302.53,-302.1,-301.72,-301.61,-301.72,-301.93,-302.18,-302.31,-302.46,-302.57,-302.61,-302.63,-302.63,-302.65,-302.65,-302.67,-302.67,-302.68,-302.68,-302.69,-302.69,-302.71,-302.7,-302.71,-302.72,-302.73,-302.73,-302.74,-302.74,-302.76,-302.76,-302.77,-302.78,-302.79,-302.8,-302.82,-302.82,-302.84,-302.85,-302.86,-302.87,-302.88,-302.89,-302.9,-302.91,-302.91,-302.92,-302.92,-302.92,-302.92,-302.92,-302.92,-302.92,-302.92,-302.92,-302.92,-302.92,-302.91,-302.91,-302.89,-302.88,-302.85,-302.83,-302.81,-302.79,-302.77,-302.76,-302.73,-302.72,-302.71,-302.7,-302.69,-302.69,-302.68,-302.68,-302.67,-302.67,-302.66,-302.67,-302.66,-302.67,-302.67,-302.67,-302.67,-302.67,-302.67,-302.67,-302.67,-302.68,-302.67,-302.68,-302.67,-302.68,-302.68,-302.68,-302.68,-302.68,-302.68,-302.68,-302.68,-302.68,-302.67,-302.68,-302.67,-302.67,-302.67,-302.67,-302.67,-302.67,-302.66,-302.66,-302.66,-302.66,-302.66,-302.66,-302.66,-302.66,-302.66,-302.66,-302.66,-302.67,-302.67,-302.67,-302.67,-302.67,-302.67,-302.69,-302.7,-302.7,-302.7,-302.7,-302.7,-302.71,-302.71,-302.7,-302.7,-302.69,-302.67,-302.67,-302.66,-302.66,-302.66,-302.66,-302.66,-302.66,-302.66,-302.66,-302.67,-302.71,-302.81,-302.92,-303.1,-303.32,-303.45,-303.32,-302.86,-302.33,-301.95,-301.68,-301.68,-301.89,-302.11,-302.26,-302.45,-302.6,-302.66,-302.69,-302.69,-302.71,-302.71,-302.72,-302.72,-302.73,-302.73,-302.74,-302.74,-302.76,-302.76,-302.77,-302.77,-302.78,-302.78,-302.79,-302.8,-302.81,-302.81,-302.82,-302.83,-302.84,-302.85,-302.86,-302.87,-302.88,-302.89,-302.9,-302.91,-302.92,-302.93,-302.94,-302.95,-302.95,-302.96,-302.96,-302.96,-302.96,-302.96,-302.96,-302.96,-302.96,-302.96,-302.96,-302.96,-302.96,-302.96,-302.95,-302.94,-302.92,-302.9,-302.87,-302.85,-302.83,-302.82,-302.8,-302.78,-302.77,-302.76,-302.74,-302.74,-302.73,-302.73,-302.72,-302.72,-302.72,-302.72,-302.72,-302.72,-302.72,-302.72,-302.72,-302.72,-302.72,-302.72,-302.72,-302.73,-302.73,-302.73,-302.73,-302.73,-302.73,-302.73,-302.73,-302.73,-302.73,-302.73,-302.73,-302.73,-302.73,-302.73,-302.73,-302.72,-302.72,-302.72,-302.72,-302.72,-302.72,-302.72,-302.73,-302.73,-302.74,-302.74,-302.74,-302.75,-302.77,-302.78,-302.76,-302.76,-302.76,-302.77,-302.77,-302.76,-302.76,-302.76,-302.75,-302.74,-302.73,-302.73,-302.73,-302.73,-302.73,-302.73,-302.73,-302.73,-302.73,-302.75,-302.83,-302.94,-303.06,-303.26,-303.37,-303.43,-303.42,-303.04,-302.66,-302.26,-301.93,-301.88,-302,-302.18,-302.4,-302.56,-302.66,-302.73,-302.76,-302.77,-302.78,-302.79,-302.8,-302.8,-302.8,-302.81,-302.82,-302.82,-302.83,-302.84,-302.84,-302.85,-302.85,-302.86,-302.87,-302.88,-302.88,-302.89,-302.9,-302.91,-302.91,-302.92,-302.93,-302.94,-302.94,-302.95,-302.96,-302.97,-302.98,-302.99,-302.99,-303,-303,-303.01,-303.01,-303.01,-303,-303,-303,-303,-302.99,-302.99,-302.99,-302.99,-302.99,-302.99,-302.98,-302.96,-302.95,-302.93,-302.91,-302.89,-302.87,-302.85,-302.84,-302.82,-302.81,-302.8,-302.8,-302.79,-302.78,-302.78,-302.78,-302.78,-302.77,-302.77,-302.77,-302.78,-302.78,-302.78,-302.78,-302.78,-302.78,-302.78,-302.78,-302.78,-302.78,-302.78,-302.78,-302.79,-302.79,-302.79,-302.79,-302.79,-302.79,-302.79,-302.79,-302.79,-302.79,-302.78,-302.78,-302.78,-302.78,-302.78,-302.78,-302.78,-302.79,-302.79,-302.79,-302.79,-302.79,-302.8,-302.82,-302.82,-302.81,-302.81,-302.81,-302.81,-302.81,-302.8,-302.8,-302.8,-302.78,-302.77,-302.76,-302.76,-302.75,-302.76,-302.75,-302.75,-302.75,-302.75,-302.75,-302.76,-302.81,-302.92,-303.04,-303.22,-303.42,-303.49,-303.35,-302.9,-302.45,-302.05,-301.8,-301.84,-302.01,-302.21,-302.45,-302.61,-302.66,-302.73,-302.76,-302.76,-302.76,-302.76,-302.77,-302.79,-302.79,-302.8,-302.81,-302.82,-302.82,-302.83,-302.83,-302.84,-302.84,-302.85,-302.85,-302.86,-302.87,-302.87,-302.88,-302.89,-302.89,-302.91,-302.91,-302.93,-302.93,-302.95,-302.96,-302.97,-302.98,-302.99,-302.99,-303,-303.01,-303.01,-303.01,-303.02,-303.01,-303.01,-303.01,-303.01,-303.01,-303.01,-303.01,-303.01,-303.01,-303,-302.98,-302.96,-302.94,-302.92,-302.9,-302.88,-302.86,-302.84,-302.83,-302.82,-302.81,-302.8,-302.79,-302.78,-302.77,-302.77,-302.77,-302.77,-302.76,-302.77,-302.76,-302.76,-302.76,-302.76,-302.76,-302.77,-302.77,-302.77,-302.77,-302.77,-302.77,-302.77,-302.77,-302.77,-302.78,-302.78,-302.77,-302.78,-302.78,-302.77,-302.78,-302.77,-302.77,-302.77,-302.77,-302.77,-302.77,-302.77,-302.77,-302.77,-302.76,-302.76,-302.77,-302.77,-302.78,-302.78,-302.77,-302.78,-302.79,-302.81,-302.81,-302.79,-302.8,-302.8,-302.8,-302.8,-302.8,-302.8,-302.79,-302.78,-302.77,-302.76,-302.76,-302.76,-302.76,-302.76,-302.76,-302.76,-302.76,-302.76,-302.77,-302.82,-302.93,-303.12,-303.36,-303.51,-303.57,-303.35,-302.87,-302.33,-301.97,-301.76,-301.8,-302.01,-302.24,-302.49,-302.65,-302.74,-302.79,-302.79,-302.8,-302.81,-302.82,-302.82,-302.83,-302.83,-302.84,-302.84,-302.85,-302.85,-302.86,-302.86,-302.87,-302.88,-302.88,-302.89,-302.89,-302.9,-302.91,-302.92,-302.93,-302.94,-302.95,-302.96,-302.97,-302.97,-302.99,-303,-303.01,-303.02,-303.03,-303.04,-303.05,-303.05,-303.05,-303.05,-303.06,-303.06,-303.06,-303.05,-303.06,-303.06,-303.06,-303.06,-303.06,-303.05,-303.05,-303.03,-303.01,-302.99,-302.97,-302.94,-302.92,-302.89,-302.88,-302.86,-302.84,-302.83,-302.82,-302.81,-302.81,-302.8,-302.8,-302.79,-302.79,-302.78,-302.78,-302.78,-302.78,-302.78,-302.79,-302.78,-302.79,-302.79,-302.79,-302.79,-302.79,-302.79,-302.79,-302.79,-302.79,-302.79,-302.79,-302.79,-302.79,-302.79,-302.79,-302.79,-302.79,-302.79,-302.79,-302.79,-302.78,-302.78,-302.78,-302.78,-302.78,-302.78,-302.78,-302.78,-302.77,-302.78,-302.78,-302.78,-302.79,-302.79,-302.79,-302.79,-302.79,-302.8,-302.82,-302.83,-302.82,-302.82,-302.82,-302.82,-302.82,-302.82,-302.82,-302.81,-302.79,-302.78,-302.78,-302.78,-302.78,-302.78,-302.78,-302.78,-302.78,-302.77,-302.77,-302.79,-302.85,-302.97,-303.09,-303.31,-303.5,-303.58,-303.26,-302.73,-302.24,-301.88,-301.78,-301.76,-301.95,-302.16,-302.44,-302.61,-302.72,-302.78,-302.79,-302.8,-302.81,-302.82,-302.82,-302.83,-302.83,-302.84,-302.84,-302.85,-302.85,-302.86,-302.86,-302.87,-302.87,-302.88,-302.88,-302.89,-302.9,-302.91,-302.92,-302.93,-302.94,-302.95,-302.96,-302.97,-302.98,-302.99,-303,-303.01,-303.02,-303.03,-303.03,-303.05,-303.05,-303.06,-303.06,-303.06,-303.06,-303.06,-303.06,-303.06,-303.06,-303.07,-303.06,-303.07,-303.06,-303.06,-303.04,-303.02,-303.01,-302.99,-302.96,-302.94,-302.91,-302.89,-302.88,-302.86,-302.85,-302.84,-302.83,-302.82,-302.81,-302.81,-302.81,-302.81,-302.8,-302.8,-302.8,-302.8,-302.8,-302.8,-302.8,-302.8,-302.8,-302.8,-302.8,-302.81,-302.81,-302.81,-302.81,-302.81,-302.81,-302.81,-302.81,-302.81,-302.81,-302.81,-302.8,-302.8,-302.8,-302.8,-302.8,-302.8,-302.8,-302.79,-302.79,-302.79,-302.79,-302.79,-302.79,-302.78,-302.78,-302.78,-302.78,-302.78,-302.79,-302.79,-302.78,-302.78,-302.79,-302.78,-302.79,-302.79,-302.79,-302.78,-302.78,-302.78,-302.78,-302.79,-302.79,-302.79,-302.79,-302.8,-302.8,-302.8,-302.8,-302.8,-302.8,-302.81,-302.82,-302.83,-302.82,-302.82,-302.82,-302.83,-302.82,-302.82,-302.82,-302.8,-302.79,-302.78,-302.78,-302.77,-302.77,-302.77,-302.77,-302.77,-302.77,-302.77,-302.77,-302.8,-302.87,-302.98,-303.1,-303.32,-303.47,-303.52,-303.21,-302.73,-302.33,-301.95,-301.82,-301.92,-302.12,-302.35,-302.56,-302.63,-302.73,-302.79,-302.8,-302.81,-302.82,-302.83,-302.83,-302.84,-302.84,-302.85,-302.86,-302.87,-302.87,-302.88,-302.88,-302.89,-302.89,-302.9,-302.9,-302.91,-302.91,-302.92,-302.93,-302.93,-302.94,-302.95,-302.96,-302.97,-302.97,-302.99,-303,-303.01,-303.01,-303.03,-303.03,-303.04,-303.04,-303.05,-303.05,-303.05,-303.05,-303.05,-303.04,-303.04,-303.04,-303.04,-303.03,-303.04,-303.04,-303.03,-303.02,-303.01,-302.99,-302.98,-302.95,-302.94,-302.91,-302.9,-302.88,-302.87,-302.86,-302.84,-302.84,-302.83,-302.82,-302.82,-302.81,-302.81,-302.81,-302.81,-302.81,-302.81,-302.81,-302.81,-302.81,-302.81,-302.81,-302.81,-302.81,-302.82,-302.82,-302.82,-302.82,-302.82,-302.82,-302.82,-302.82,-302.82,-302.82,-302.82,-302.82,-302.82,-302.82,-302.81,-302.81,-302.81,-302.81,-302.81,-302.81,-302.81,-302.81,-302.81,-302.8,-302.8,-302.8,-302.8,-302.8,-302.8,-302.8,-302.8,-302.8,-302.8,-302.81,-302.81,-302.82,-302.81,-302.81,-302.82,-302.84,-302.84,-302.84,-302.83,-302.83,-302.84,-302.84,-302.83,-302.83,-302.83,-302.82,-302.8,-302.8,-302.8,-302.8,-302.8,-302.8,-302.8,-302.8,-302.79,-302.79,-302.8,-302.85,-302.94,-303,-303.2,-303.41,-303.48,-303.45,-303.05,-302.66,-302.29,-301.97,-301.92,-302.06,-302.24,-302.34,-302.56,-302.69,-302.77,-302.82,-302.83,-302.84,-302.85,-302.86,-302.87,-302.88,-302.88,-302.89,-302.89,-302.9,-302.91,-302.91,-302.92,-302.92,-302.93,-302.94,-302.94,-302.95,-302.96,-302.97,-302.97,-302.98,-302.99,-303,-303.01,-303.02,-303.03,-303.04,-303.05,-303.06,-303.07,-303.08,-303.09,-303.1,-303.1,-303.11,-303.11,-303.1,-303.11,-303.1,-303.1,-303.1,-303.1,-303.1,-303.1,-303.1,-303.09,-303.08,-303.07,-303.05,-303.03,-303.01,-302.99,-302.97,-302.96,-302.94,-302.93,-302.92,-302.91,-302.9,-302.89,-302.89,-302.89,-302.89,-302.88,-302.87,-302.87,-302.87,-302.87,-302.88,-302.89,-302.89,-302.89,-302.89,-302.9,-302.9,-302.91,-302.91,-302.91,-302.92,-302.92,-302.93,-302.93,-302.93,-302.93,-302.94,-302.94,-302.94,-302.94,-302.94,-302.94,-302.94,-302.94,-302.94,-302.94,-302.94,-302.94,-302.94,-302.94,-302.94,-302.94,-302.94,-302.94,-302.94,-302.94,-302.94,-302.94,-302.94,-302.94,-302.93,-302.94,-302.94,-302.94,-302.94,-302.94,-302.95,-302.95,-302.95,-302.95,-302.95,-302.97,-302.98,-302.98,-302.97,-302.97,-302.98,-302.98,-302.98,-302.98,-302.98,-302.96,-302.95,-302.94,-302.94,-302.94,-302.93,-302.93,-302.93,-302.93,-302.93,-302.93,-302.93,-302.97,-303.06,-303.19,-303.35,-303.57,-303.71,-303.62,-303.17,-302.61,-302.39,-302.06,-301.92,-302,-302.21,-302.48,-302.69,-302.86,-302.93,-302.97,-302.98,-302.99,-302.99,-303.01,-303.01,-303.02,-303.02,-303.03,-303.03,-303.04,-303.05,-303.06,-303.05,-303.07,-303.07,-303.08,-303.08,-303.09,-303.1,-303.1,-303.11,-303.12,-303.12,-303.13,-303.14,-303.15,-303.15,-303.16,-303.17,-303.17,-303.18,-303.18,-303.19,-303.19,-303.2,-303.19,-303.19,-303.19,-303.19,-303.18,-303.18,-303.17,-303.17,-303.17,-303.16,-303.15,-303.14,-303.12,-303.12,-303.09,-303.07,-303.04,-303.01,-302.98,-302.95,-302.93,-302.9,-302.88,-302.86,-302.84,-302.83,-302.82,-302.81,-302.8,-302.79,-302.77,-302.76,-302.76,-302.75,-302.75,-302.74,-302.73,-302.73,-302.72,-302.72,-302.71,-302.7,-302.7,-302.7,-302.69,-302.68,-302.68,-302.67,-302.66,-302.66,-302.65,-302.65,-302.64,-302.64,-302.63,-302.63,-302.62,-302.61,-302.61,-302.6,-302.59,-302.59,-302.58,-302.58,-302.57,-302.56,-302.55,-302.55,-302.54,-302.53,-302.52,-302.52,-302.52,-302.51,-302.5,-302.5,-302.49,-302.5,-302.49,-302.48,-302.47,-302.47,-302.48,-302.49,-302.48,-302.47,-302.46,-302.46,-302.45,-302.45,-302.44,-302.43,-302.42,-302.4,-302.38,-302.36,-302.35,-302.34,-302.33,-302.32,-302.31,-302.3,-302.29,-302.28,-302.29,-302.34,-302.45,-302.57,-302.78,-302.96,-303.03,-302.91,-302.44,-301.87,-301.47,-301.19,-301.16,-301.36,-301.57,-301.84,-302.01,-302.11,-302.16,-302.16,-302.16,-302.17,-302.17,-302.17,-302.17,-302.17,-302.17,-302.17,-302.17,-302.17,-302.18,-302.18,-302.18,-302.18,-302.19,-302.19,-302.19,-302.2,-302.2,-302.21,-302.21,-302.22,-302.23,-302.24,-302.24,-302.25,-302.25,-302.26,-302.27,-302.28,-302.29,-302.31,-302.32,-302.32,-302.32,-302.33,-302.33,-302.33,-302.33,-302.33,-302.33,-302.33,-302.33,-302.33,-302.33,-302.33,-302.32,-302.31,-302.29,-302.27,-302.25,-302.22,-302.2,-302.17,-302.15,-302.13,-302.11,-302.1,-302.09,-302.07,-302.06,-302.06,-302.05,-302.05,-302.05,-302.04,-302.04,-302.03,-302.03,-302.03,-302.03,-302.03,-302.04,-302.04,-302.04,-302.04,-302.03,-302.03,-302.03,-302.03,-302.03,-302.03,-302.03,-302.03,-302.03,-302.02,-302.02,-302.02,-302.01,-302.01,-302.01,-302.01,-302.01,-302,-302,-302,-302,-301.99,-301.99,-301.99,-301.98,-301.98,-301.98,-301.98,-301.99,-301.99,-301.98,-301.98,-301.98,-301.98,-301.99,-301.99,-301.99,-301.99,-301.99,-302.01,-302.03,-302.03,-302.02,-302.01,-302.02,-302.02,-302.02,-302.01,-302.01,-302,-301.99,-301.98,-301.98,-301.97,-301.97,-301.97,-301.97,-301.97,-301.96,-301.97,-301.98,-302.01,-302.09,-302.15,-302.26,-302.55,-302.71,-302.73,-302.61,-302.17,-301.73,-301.36,-301.09,-301.1,-301.28,-301.48,-301.72,-301.87,-301.97,-302.03,-302.05,-302.06,-302.07,-302.08,-302.08,-302.09,-302.09,-302.1,-302.11,-302.11,-302.12,-302.13,-302.13,-302.14,-302.15,-302.16,-302.17,-302.18,-302.19,-302.2,-302.2,-302.21,-302.22,-302.24,-302.25,-302.25,-302.26,-302.27,-302.28,-302.29,-302.3,-302.31,-302.32,-302.33,-302.33,-302.34,-302.34,-302.34,-302.33,-302.34,-302.34,-302.34,-302.34,-302.34,-302.34,-302.34,-302.34,-302.34,-302.33,-302.33,-302.31,-302.29,-302.27,-302.25,-302.24,-302.22,-302.21,-302.2,-302.19,-302.18,-302.17,-302.17,-302.17,-302.17,-302.16,-302.16,-302.16,-302.16,-302.16,-302.16,-302.16,-302.17,-302.17,-302.17,-302.17,-302.18,-302.18,-302.18,-302.19,-302.19,-302.19,-302.19,-302.19,-302.19,-302.19,-302.2,-302.2,-302.19,-302.19,-302.19,-302.2,-302.2,-302.2,-302.2,-302.2,-302.2,-302.19,-302.2,-302.19,-302.19,-302.19,-302.2,-302.2,-302.21,-302.21,-302.21,-302.21,-302.22,-302.22,-302.23,-302.24,-302.26,-302.25,-302.24,-302.24,-302.25,-302.25,-302.25,-302.25,-302.25,-302.24,-302.22,-302.22,-302.22,-302.21,-302.22,-302.22,-302.22,-302.22,-302.22,-302.22,-302.23,-302.27,-302.37,-302.47,-302.63,-302.84,-302.92,-302.88,-302.5,-302.1,-301.74,-301.52,-301.36,-301.41,-301.6,-301.78,-302.02,-302.13,-302.24,-302.27,-302.31,-302.3,-302.33,-302.32,-302.35,-302.34,-302.36,-302.36,-302.37,-302.37,-302.38,-302.38,-302.39,-302.4,-302.41,-302.41,-302.43,-302.43,-302.45,-302.45,-302.47,-302.48,-302.5,-302.5,-302.52,-302.52,-302.54,-302.56,-302.57,-302.58,-302.59,-302.6,-302.61,-302.62,-302.63,-302.63,-302.63,-302.64,-302.64,-302.64,-302.64,-302.64,-302.63,-302.64,-302.64,-302.64,-302.63,-302.62,-302.61,-302.6,-302.58,-302.56,-302.54,-302.52,-302.5,-302.49,-302.47,-302.47,-302.45,-302.45,-302.44,-302.44,-302.43,-302.43,-302.43,-302.43,-302.43,-302.43,-302.43,-302.44,-302.44,-302.44,-302.44,-302.45,-302.45,-302.45,-302.45,-302.46,-302.46,-302.46,-302.46,-302.47,-302.47,-302.48,-302.47,-302.48,-302.47,-302.48,-302.47,-302.47,-302.47,-302.48,-302.48,-302.48,-302.48,-302.48,-302.48,-302.48,-302.48,-302.48,-302.48,-302.49,-302.5,-302.5,-302.5,-302.5,-302.52,-302.53,-302.53,-302.53,-302.52,-302.52,-302.53,-302.53,-302.52,-302.53,-302.52,-302.51,-302.49,-302.49,-302.49,-302.49,-302.49,-302.49,-302.49,-302.49,-302.49,-302.49,-302.5,-302.56,-302.67,-302.8,-302.99,-303.18,-303.26,-303.05,-302.58,-302.12,-301.74,-301.54,-301.59,-301.79,-302,-302.25,-302.4,-302.49,-302.52,-302.54,-302.56,-302.56,-302.58,-302.58,-302.59,-302.59,-302.6,-302.61,-302.62,-302.62,-302.63,-302.63,-302.64,-302.65,-302.66,-302.66,-302.68,-302.68,-302.69,-302.7,-302.71,-302.72,-302.73,-302.74,-302.75,-302.76,-302.78,-302.79,-302.8,-302.81,-302.82,-302.83,-302.84,-302.84,-302.85,-302.85,-302.85,-302.85,-302.85,-302.85,-302.85,-302.85,-302.85,-302.85,-302.85,-302.84,-302.83,-302.81,-302.79,-302.77,-302.74,-302.72,-302.7,-302.68,-302.66,-302.64,-302.63,-302.62,-302.61,-302.61,-302.6,-302.6,-302.59,-302.59,-302.59,-302.58,-302.58,-302.58,-302.58,-302.59,-302.59,-302.59,-302.59,-302.59,-302.59,-302.6,-302.6,-302.6,-302.6,-302.61,-302.61,-302.61,-302.61,-302.61,-302.62,-302.62,-302.61,-302.62,-302.62,-302.62,-302.62,-302.62,-302.62,-302.62,-302.62,-302.62,-302.62,-302.62,-302.62,-302.62,-302.62,-302.62,-302.63,-302.63,-302.63,-302.63,-302.64,-302.66,-302.67,-302.66,-302.66,-302.66,-302.66,-302.66,-302.65,-302.65,-302.65,-302.64,-302.62,-302.62,-302.61,-302.62,-302.61,-302.62,-302.61,-302.61,-302.61,-302.61,-302.63,-302.7,-302.82,-302.95,-303.17,-303.35,-303.4,-303.27,-302.8,-302.24,-301.87,-301.61,-301.61,-301.82,-302.04,-302.31,-302.48,-302.59,-302.64,-302.65,-302.66,-302.67,-302.67,-302.68,-302.69,-302.69,-302.7,-302.7,-302.7,-302.71,-302.71,-302.72,-302.72,-302.73,-302.74,-302.75,-302.75,-302.76,-302.77,-302.78,-302.79,-302.8,-302.81,-302.82,-302.83,-302.84,-302.85,-302.86,-302.87,-302.88,-302.89,-302.91,-302.92,-302.92,-302.93,-302.93,-302.93,-302.94,-302.94,-302.94,-302.94,-302.94,-302.94,-302.94,-302.94,-302.94,-302.93,-302.92,-302.9,-302.88,-302.86,-302.83,-302.81,-302.79,-302.76,-302.75,-302.73,-302.72,-302.71,-302.7,-302.7,-302.69,-302.69,-302.68,-302.68,-302.68,-302.68,-302.67,-302.67,-302.68,-302.68,-302.68,-302.68,-302.68,-302.68,-302.68,-302.68,-302.69,-302.69,-302.69,-302.69,-302.69,-302.69,-302.69,-302.69,-302.69,-302.69,-302.69,-302.68,-302.68,-302.68,-302.68,-302.68,-302.67,-302.67,-302.67,-302.67,-302.67,-302.67,-302.67,-302.67,-302.68,-302.68,-302.68,-302.68,-302.68,-302.7,-302.71,-302.71,-302.7,-302.7,-302.7,-302.7,-302.7,-302.7,-302.7,-302.68,-302.67,-302.66,-302.66,-302.65,-302.66,-302.65,-302.66,-302.65,-302.65,-302.65,-302.66,-302.69,-302.78,-302.89,-303.04,-303.26,-303.41,-303.36,-302.94,-302.4,-302.01,-301.68,-301.65,-301.82,-302.04,-302.18,-302.4,-302.56,-302.64,-302.68,-302.68,-302.7,-302.7,-302.71,-302.71,-302.72,-302.72,-302.73,-302.73,-302.74,-302.74,-302.75,-302.76,-302.76,-302.77,-302.77,-302.78,-302.79,-302.8,-302.8,-302.81,-302.82,-302.83,-302.84,-302.85,-302.86,-302.87,-302.88,-302.89,-302.9,-302.91,-302.92,-302.93,-302.93,-302.93,-302.94,-302.94,-302.94,-302.94,-302.94,-302.94,-302.94,-302.94,-302.94,-302.94,-302.94,-302.93,-302.93,-302.91,-302.89,-302.87,-302.85,-302.83,-302.82,-302.79,-302.77,-302.76,-302.74,-302.73,-302.72,-302.71,-302.71,-302.71,-302.7,-302.69,-302.69,-302.69,-302.69,-302.69,-302.69,-302.69,-302.69,-302.69,-302.69,-302.7,-302.69,-302.7,-302.7,-302.7,-302.7,-302.7,-302.7,-302.7,-302.7,-302.7,-302.7,-302.7,-302.7,-302.7,-302.7,-302.7,-302.69,-302.69,-302.69,-302.69,-302.7,-302.7,-302.7,-302.7,-302.7,-302.7,-302.7,-302.71,-302.73,-302.73,-302.72,-302.72,-302.72,-302.72,-302.72,-302.72,-302.72,-302.71,-302.71,-302.69,-302.68,-302.68,-302.67,-302.67,-302.67,-302.67,-302.67,-302.67,-302.67,-302.69,-302.75,-302.85,-302.96,-303.15,-303.34,-303.39,-303.38,-303.06,-302.65,-302.29,-301.91,-301.79,-301.9,-302.08,-302.29,-302.47,-302.59,-302.67,-302.71,-302.72,-302.72,-302.74,-302.74,-302.75,-302.76,-302.77,-302.77,-302.77,-302.78,-302.79,-302.79,-302.8,-302.81,-302.82,-302.82,-302.83,-302.84,-302.85,-302.86,-302.87,-302.88,-302.89,-302.89,-302.91,-302.91,-302.92,-302.93,-302.94,-302.95,-302.96,-302.97,-302.98,-302.98,-302.99,-302.99,-303,-303,-302.99,-302.99,-302.99,-302.99,-302.99,-303,-303,-303,-302.99,-302.98,-302.97,-302.96,-302.95,-302.93,-302.91,-302.89,-302.88,-302.86,-302.85,-302.84,-302.83,-302.83,-302.83,-302.82,-302.82,-302.82,-302.82,-302.82,-302.82,-302.82,-302.83,-302.83,-302.83,-302.83,-302.83,-302.84,-302.84,-302.84,-302.84,-302.85,-302.85,-302.85,-302.85,-302.84,-302.84,-302.85,-302.86,-302.86,-302.86,-302.86,-302.86,-302.86,-302.86,-302.87,-302.88,-302.88,-302.88,-302.88,-302.88,-302.88,-302.88,-302.88,-302.88,-302.88,-302.88,-302.88,-302.88,-302.88,-302.9,-302.91,-302.91,-302.9,-302.9,-302.9,-302.91,-302.9,-302.9,-302.9,-302.89,-302.88,-302.87,-302.86,-302.86,-302.86,-302.86,-302.86,-302.86,-302.86,-302.86,-302.86,-302.88,-302.96,-303.08,-303.21,-303.42,-303.59,-303.61,-303.25,-302.73,-302.31,-301.95,-301.87,-301.99,-302.2,-302.46,-302.58,-302.73,-302.84,-302.88,-302.9,-302.9,-302.92,-302.92,-302.94,-302.93,-302.95,-302.95,-302.96,-302.95,-302.97,-302.96,-302.98,-302.98,-302.99,-302.99,-303,-303,-303.01,-303.02,-303.03,-303.04,-303.05,-303.05,-303.06,-303.07,-303.09,-303.1,-303.11,-303.11,-303.13,-303.14,-303.14,-303.15,-303.15,-303.16,-303.16,-303.16,-303.15,-303.15,-303.15,-303.15,-303.15,-303.15,-303.15,-303.14,-303.13,-303.12,-303.1,-303.09,-303.05,-303.03,-303,-302.98,-302.95,-302.94,-302.92,-302.9,-302.89,-302.88,-302.87,-302.86,-302.85,-302.84,-302.84,-302.83,-302.83,-302.82,-302.82,-302.82,-302.82,-302.82,-302.82,-302.82,-302.82,-302.82,-302.82,-302.82,-302.82,-302.82,-302.82,-302.82,-302.81,-302.81,-302.81,-302.8,-302.8,-302.8,-302.8,-302.8,-302.79,-302.79,-302.78,-302.78,-302.78,-302.77,-302.76,-302.76,-302.75,-302.74,-302.74,-302.73,-302.72,-302.72,-302.72,-302.72,-302.72,-302.72,-302.71,-302.7,-302.69,-302.71,-302.72,-302.71,-302.7,-302.69,-302.68,-302.68,-302.67,-302.66,-302.65,-302.64,-302.61,-302.59,-302.58,-302.57,-302.56,-302.55,-302.54,-302.53,-302.52,-302.51,-302.51,-302.52,-302.58,-302.7,-302.82,-303.03,-303.2,-303.28,-302.94,-302.4,-301.9,-301.54,-301.42,-301.49,-301.71,-301.96,-302.18,-302.32,-302.4,-302.41,-302.42,-302.42,-302.43,-302.43,-302.43,-302.43,-302.44,-302.43,-302.44,-302.43,-302.44,-302.44,-302.44,-302.44,-302.44,-302.44,-302.45,-302.45,-302.46,-302.46,-302.46,-302.46,-302.47,-302.47,-302.48,-302.48,-302.48,-302.49,-302.5,-302.5,-302.51,-302.51,-302.51,-302.51,-302.51,-302.51,-302.51,-302.51,-302.51,-302.5,-302.5,-302.5,-302.49,-302.49,-302.48,-302.48,-302.47,-302.46,-302.44,-302.42,-302.39,-302.36,-302.33,-302.3,-302.28,-302.26,-302.24,-302.22,-302.21,-302.2,-302.18,-302.17,-302.16,-302.16,-302.15,-302.14,-302.14,-302.14,-302.13,-302.13,-302.12,-302.12,-302.12,-302.12,-302.12,-302.11,-302.11,-302.11,-302.11,-302.11,-302.11,-302.11,-302.1,-302.1,-302.1,-302.1,-302.09,-302.09,-302.09,-302.08,-302.07,-302.07,-302.07,-302.06,-302.06,-302.05,-302.05,-302.04,-302.04,-302.04,-302.04,-302.04,-302.03,-302.03,-302.03,-302.02,-302.02,-302.02,-302.02,-302.02,-302.02,-302.01,-302.01,-302.01,-302.01,-302.01,-302.01,-302,-302.01,-302,-302,-302,-302.01,-302.02,-302.02,-302.01,-302.01,-302.01,-302.01,-302.01,-302,-302,-301.99,-301.97,-301.96,-301.96,-301.95,-301.94,-301.94,-301.94,-301.94,-301.94,-301.94,-301.93,-301.95,-302.01,-302.12,-302.23,-302.42,-302.61,-302.7,-302.5,-302.03,-301.58,-301.2,-301.05,-300.98,-301.11,-301.31,-301.56,-301.74,-301.86,-301.94,-301.95,-301.96,-301.96,-301.97,-301.98,-301.99,-301.99,-302,-302,-302.01,-302.01,-302.02,-302.02,-302.03,-302.03,-302.04,-302.05,-302.05,-302.06,-302.07,-302.07,-302.09,-302.09,-302.1,-302.11,-302.12,-302.12,-302.13,-302.14,-302.15,-302.15,-302.16,-302.16,-302.18,-302.18,-302.18,-302.18,-302.19,-302.19,-302.19,-302.18,-302.18,-302.18,-302.18,-302.18,-302.19,-302.18,-302.18,-302.17,-302.16,-302.16,-302.14,-302.12,-302.1,-302.08,-302.06,-302.04,-302.02,-302.01,-302,-301.99,-301.98,-301.98,-301.97,-301.97,-301.96,-301.94,-301.92,-301.93,-301.94,-301.95,-301.95,-301.96,-301.96,-301.97,-301.97,-301.98,-301.98,-301.99,-301.99,-302,-302,-302.01,-302,-302.01,-302.01,-302.02,-302.02,-302.02,-302.02,-302.02,-302.02,-302.02,-302.02,-302.02,-302.02,-302.02,-302.02,-302.02,-302.02,-302.02,-302.02,-302.02,-302.02,-302.02,-302.02,-302.02,-302.02,-302.02,-302.02,-302.02,-302.03,-302.03,-302.04,-302.04,-302.04,-302.04,-302.04,-302.05,-302.07,-302.08,-302.07,-302.07,-302.07,-302.08,-302.08,-302.08,-302.08,-302.08,-302.06,-302.05,-302.04,-302.04,-302.04,-302.04,-302.03,-302.04,-302.04,-302.04,-302.03,-302.04,-302.09,-302.2,-302.32,-302.51,-302.73,-302.85,-302.65,-302.4,-301.88,-301.42,-301.12,-301.03,-301.18,-301.39,-301.68,-301.86,-302.01,-302.07,-302.1,-302.1,-302.12,-302.12,-302.14,-302.13,-302.15,-302.15,-302.16,-302.16,-302.17,-302.17,-302.18,-302.18,-302.2,-302.2,-302.22,-302.22,-302.23,-302.24,-302.25,-302.25,-302.26,-302.27,-302.29,-302.29,-302.31,-302.32,-302.33,-302.34,-302.35,-302.36,-302.37,-302.38,-302.39,-302.4,-302.41,-302.41,-302.41,-302.41,-302.41,-302.41,-302.41,-302.42,-302.41,-302.42,-302.41,-302.41,-302.4,-302.39,-302.37,-302.35,-302.34,-302.31,-302.28,-302.26,-302.23,-302.22,-302.2,-302.19,-302.18,-302.18,-302.17,-302.17,-302.16,-302.16,-302.16,-302.16,-302.15,-302.16,-302.16,-302.16,-302.16,-302.17,-302.17,-302.18,-302.18,-302.19,-302.18,-302.19,-302.19,-302.19,-302.19,-302.2,-302.2,-302.2,-302.2,-302.2,-302.2,-302.2,-302.2,-302.2,-302.2,-302.2,-302.2,-302.21,-302.21,-302.21,-302.2,-302.21,-302.2,-302.2,-302.21,-302.21,-302.21,-302.21,-302.21,-302.21,-302.21,-302.21,-302.22,-302.22,-302.22,-302.22,-302.22,-302.22,-302.23,-302.23,-302.24,-302.24,-302.24,-302.24,-302.26,-302.27,-302.27,-302.27,-302.27,-302.27,-302.28,-302.28,-302.28,-302.28,-302.27,-302.26,-302.24,-302.24,-302.24,-302.24,-302.24,-302.24,-302.24,-302.24,-302.24,-302.24,-302.25,-302.32,-302.44,-302.56,-302.78,-302.96,-303.05,-302.73,-302.2,-301.71,-301.35,-301.23,-301.32,-301.55,-301.81,-302.03,-302.17,-302.25,-302.27,-302.29,-302.29,-302.31,-302.31,-302.32,-302.33,-302.34,-302.34,-302.35,-302.35,-302.36,-302.36,-302.37,-302.37,-302.38,-302.39,-302.4,-302.4,-302.42,-302.43,-302.43,-302.44,-302.45,-302.46,-302.47,-302.48,-302.49,-302.5,-302.51,-302.52,-302.54,-302.55,-302.55,-302.56,-302.57,-302.58,-302.58,-302.58,-302.58,-302.59,-302.58,-302.59,-302.58,-302.59,-302.59,-302.59,-302.58,-302.58,-302.56,-302.55,-302.53,-302.51,-302.48,-302.46,-302.43,-302.42,-302.39,-302.38,-302.37,-302.36,-302.35,-302.35,-302.34,-302.33,-302.33,-302.33,-302.32,-302.32,-302.32,-302.32,-302.32,-302.32,-302.32,-302.33,-302.33,-302.33,-302.33,-302.33,-302.33,-302.34,-302.34,-302.34,-302.34,-302.34,-302.34,-302.34,-302.34,-302.34,-302.33,-302.33,-302.33,-302.33,-302.33,-302.33,-302.32,-302.32,-302.32,-302.32,-302.32,-302.32,-302.31,-302.31,-302.31,-302.31,-302.31,-302.31,-302.31,-302.31,-302.32,-302.32,-302.33,-302.33,-302.32,-302.33,-302.34,-302.36,-302.36,-302.36,-302.35,-302.35,-302.35,-302.36,-302.35,-302.35,-302.35,-302.34,-302.32,-302.32,-302.32,-302.31,-302.32,-302.32,-302.32,-302.32,-302.32,-302.32,-302.35,-302.38,-302.48,-302.58,-302.75,-302.96,-303.03,-302.97,-302.57,-302.17,-301.78,-301.47,-301.46,-301.6,-301.79,-302.01,-302.17,-302.27,-302.34,-302.36,-302.37,-302.36,-302.38,-302.38,-302.39,-302.39,-302.41,-302.4,-302.41,-302.41,-302.43,-302.43,-302.44,-302.44,-302.45,-302.45,-302.47,-302.47,-302.48,-302.48,-302.49,-302.49,-302.51,-302.51,-302.52,-302.53,-302.54,-302.55,-302.56,-302.57,-302.58,-302.58,-302.59,-302.6,-302.6,-302.6,-302.6,-302.6,-302.6,-302.6,-302.6,-302.59,-302.6,-302.6,-302.59,-302.59,-302.59,-302.58,-302.57,-302.56,-302.54,-302.52,-302.49,-302.48,-302.46,-302.45,-302.43,-302.42,-302.41,-302.4,-302.4,-302.39,-302.38,-302.38,-302.38,-302.38,-302.38,-302.38,-302.38,-302.38,-302.38,-302.38,-302.38,-302.38,-302.38,-302.38,-302.38,-302.38,-302.38,-302.39,-302.39,-302.39,-302.39,-302.39,-302.38,-302.38,-302.38,-302.38,-302.38,-302.38,-302.38,-302.38,-302.38,-302.38,-302.38,-302.38,-302.37,-302.37,-302.37,-302.37,-302.38,-302.38,-302.38,-302.38,-302.39,-302.39,-302.4,-302.41,-302.42,-302.41,-302.41,-302.41,-302.41,-302.41,-302.4,-302.41,-302.4,-302.4,-302.39,-302.38,-302.37,-302.37,-302.37,-302.37,-302.37,-302.36,-302.36,-302.36,-302.38,-302.45,-302.56,-302.67,-302.87,-303.04,-303.08,-302.87,-302.65,-302.26,-301.87,-301.55,-301.47,-301.62,-301.78,-302.02,-302.17,-302.3,-302.36,-302.4,-302.39,-302.41,-302.41,-302.42,-302.43,-302.44,-302.44,-302.45,-302.44,-302.46,-302.46,-302.47,-302.47,-302.48,-302.48,-302.49,-302.49,-302.5,-302.51,-302.52,-302.52,-302.54,-302.54,-302.55,-302.56,-302.57
