-18.619,-18.624,-18.615,-18.604,-18.616,-18.62,-18.621,-18.623,-18.623,-18.632,-18.628,-18.623,-18.617,-18.602,-18.62,-18.638,-18.625,-18.611,-18.608,-18.61,-18.624,-18.618,-18.615,-18.61,-18.613,-18.614,-18.637,-18.616,-18.617,-18.617,-18.64,-18.621,-18.635,-18.616,-18.623,-18.63,-18.623,-18.61,-18.618,-18.606,-18.617,-18.628,-18.619,-18.615,-18.616,-18.618,-18.629,-18.628,-18.607,-18.616,-18.618,-18.607,-18.615,-18.611,-18.599,-18.61,-18.607,-18.579,-18.568,-18.557,-18.532,-18.517,-18.522,-18.535,-18.553,-18.554,-18.569,-18.562,-18.57,-18.572,-18.586,-18.586,-18.603,-18.623,-18.625,-18.635,-18.64,-18.648,-18.636,-18.633,-18.652,-18.642,-18.633,-18.639,-18.622,-18.633,-18.634,-18.638,-18.633,-18.633,-18.686,-18.75,-18.744,-18.618,-18.397,-18.152,-17.892,-17.462,-17.171,-17.24,-17.656,-17.921,-18.32,-18.651,-18.692,-18.677,-18.621,-18.574,-18.548,-18.564,-18.56,-18.58,-18.57,-18.594,-18.565,-18.554,-18.545,-18.553,-18.541,-18.549,-18.527,-18.544,-18.531,-18.55,-18.52,-18.515,-18.505,-18.505,-18.51,-18.503,-18.482,-18.484,-18.485,-18.477,-18.451,-18.446,-18.433,-18.435,-18.449,-18.409,-18.389,-18.395,-18.375,-18.372,-18.353,-18.327,-18.317,-18.3,-18.296,-18.264,-18.24,-18.232,-18.217,-18.202,-18.177,-18.172,-18.132,-18.129,-18.134,-18.128,-18.102,-18.103,-18.11,-18.114,-18.124,-18.126,-18.144,-18.169,-18.197,-18.222,-18.282,-18.304,-18.34,-18.38,-18.417,-18.446,-18.471,-18.498,-18.525,-18.561,-18.578,-18.573,-18.576,-18.589,-18.605,-18.592,-18.612,-18.605,-18.605,-18.607,-18.623,-18.602,-18.6,-18.611,-18.61,-18.607,-18.609,-18.602,-18.597,-18.6,-18.589,-18.594,-18.597,-18.589,-18.599,-18.606,-18.604,-18.596,-18.595,-18.598,-18.584,-18.604,-18.585,-18.588,-18.604,-18.61,-18.597,-18.599,-18.601,-18.601,-18.612,-18.605,-18.61,-18.599,-18.608,-18.617,-18.625,-18.61,-18.617,-18.625,-18.627,-18.616,-18.617,-18.616,-18.631,-18.645,-18.625,-18.627,-18.635,-18.619,-18.627,-18.622,-18.626,-18.617,-18.642,-18.619,-18.623,-18.626,-18.62,-18.634,-18.637,-18.643,-18.632,-18.613,-18.631,-18.618,-18.616,-18.611,-18.615,-18.625,-18.615,-18.601,-18.59,-18.586,-18.565,-18.541,-18.542,-18.561,-18.561,-18.562,-18.557,-18.579,-18.587,-18.588,-18.579,-18.608,-18.64,-18.654,-18.643,-18.647,-18.656,-18.662,-18.665,-18.645,-18.662,-18.666,-18.655,-18.657,-18.646,-18.645,-18.658,-18.674,-18.662,-18.66,-18.663,-18.699,-18.755,-18.791,-18.694,-18.506,-18.243,-17.951,-17.572,-17.383,-17.216,-17.386,-17.865,-18.295,-18.706,-18.783,-18.763,-18.691,-18.643,-18.603,-18.592,-18.603,-18.602,-18.612,-18.61,-18.6,-18.604,-18.616,-18.598,-18.595,-18.581,-18.571,-18.583,-18.593,-18.58,-18.568,-18.566,-18.561,-18.557,-18.556,-18.548,-18.55,-18.542,-18.53,-18.531,-18.529,-18.505,-18.488,-18.486,-18.494,-18.488,-18.466,-18.44,-18.439,-18.439,-18.413,-18.397,-18.393,-18.37,-18.352,-18.339,-18.329,-18.289,-18.271,-18.262,-18.252,-18.241,-18.238,-18.208,-18.216,-18.208,-18.195,-18.205,-18.191,-18.219,-18.208,-18.215,-18.245,-18.273,-18.306,-18.332,-18.361,-18.4,-18.437,-18.466,-18.498,-18.538,-18.544,-18.578,-18.603,-18.606,-18.619,-18.621,-18.636,-18.643,-18.651,-18.641,-18.641,-18.641,-18.65,-18.657,-18.649,-18.648,-18.662,-18.643,-18.649,-18.652,-18.637,-18.643,-18.65,-18.639,-18.64,-18.643,-18.626,-18.64,-18.635,-18.635,-18.613,-18.604,-18.618,-18.626,-18.614,-18.623,-18.597,-18.599,-18.618,-18.624,-18.597,-18.591,-18.623,-18.627,-18.614,-18.562,-18.564,-18.629,-18.71,-18.673,-18.645,-18.68,-18.687,-18.683,-18.676,-18.657,-18.643,-18.63,-18.623,-18.606,-18.574,-18.554,-18.544,-18.534,-18.559,-18.587,-18.581,-18.585,-18.608,-18.626,-18.635,-18.641,-18.658,-18.696,-18.697,-18.69,-18.709,-18.718,-18.721,-18.727,-18.716,-18.697,-18.686,-18.696,-18.708,-18.705,-18.701,-18.725,-18.7,-18.694,-18.699,-18.703,-18.754,-18.838,-18.82,-18.67,-18.4,-18.108,-17.788,-17.386,-17.252,-17.4,-17.855,-18.31,-18.531,-18.81,-18.82,-18.766,-18.702,-18.649,-18.632,-18.627,-18.632,-18.63,-18.647,-18.637,-18.639,-18.622,-18.628,-18.628,-18.634,-18.613,-18.598,-18.606,-18.608,-18.609,-18.595,-18.579,-18.575,-18.583,-18.568,-18.564,-18.579,-18.556,-18.545,-18.549,-18.552,-18.532,-18.527,-18.502,-18.506,-18.491,-18.471,-18.437,-18.431,-18.436,-18.429,-18.401,-18.378,-18.362,-18.339,-18.334,-18.309,-18.286,-18.272,-18.248,-18.24,-18.226,-18.214,-18.205,-18.189,-18.199,-18.204,-18.198,-18.198,-18.225,-18.242,-18.272,-18.296,-18.31,-18.357,-18.397,-18.438,-18.478,-18.485,-18.523,-18.564,-18.582,-18.594,-18.627,-18.635,-18.652,-18.664,-18.628,-18.634,-18.665,-18.672,-18.667,-18.681,-18.681,-18.675,-18.674,-18.686,-18.684,-18.678,-18.651,-18.671,-18.677,-18.663,-18.66,-18.671,-18.667,-18.669,-18.671,-18.657,-18.648,-18.657,-18.684,-18.667,-18.648,-18.645,-18.646,-18.652,-18.654,-18.657,-18.663,-18.664,-18.675,-18.643,-18.658,-18.656,-18.664,-18.68,-18.678,-18.642,-18.648,-18.651,-18.669,-18.687,-18.688,-18.675,-18.672,-18.658,-18.672,-18.67,-18.65,-18.662,-18.666,-18.676,-18.646,-18.644,-18.633,-18.603,-18.578,-18.559,-18.554,-18.554,-18.582,-18.601,-18.613,-18.614,-18.615,-18.626,-18.656,-18.67,-18.676,-18.696,-18.705,-18.703,-18.709,-18.708,-18.688,-18.709,-18.712,-18.72,-18.716,-18.717,-18.708,-18.715,-18.707,-18.707,-18.712,-18.717,-18.714,-18.755,-18.798,-18.816,-18.727,-18.525,-18.275,-17.988,-17.603,-17.297,-17.272,-17.639,-17.9,-18.313,-18.721,-18.808,-18.807,-18.724,-18.681,-18.631,-18.65,-18.653,-18.657,-18.643,-18.656,-18.652,-18.651,-18.637,-18.634,-18.624,-18.631,-18.623,-18.627,-18.614,-18.619,-18.616,-18.619,-18.611,-18.581,-18.576,-18.589,-18.593,-18.561,-18.551,-18.554,-18.536,-18.549,-18.538,-18.502,-18.504,-18.513,-18.499,-18.489,-18.472,-18.447,-18.431,-18.428,-18.411,-18.379,-18.356,-18.353,-18.321,-18.328,-18.286,-18.26,-18.258,-18.243,-18.236,-18.226,-18.208,-18.201,-18.202,-18.201,-18.201,-18.21,-18.219,-18.238,-18.28,-18.294,-18.306,-18.349,-18.383,-18.426,-18.465,-18.494,-18.52,-18.545,-18.581,-18.6,-18.59,-18.613,-18.63,-18.638,-18.649,-18.65,-18.645,-18.646,-18.664,-18.659,-18.659,-18.651,-18.651,-18.653,-18.659,-18.645,-18.637,-18.652,-18.641,-18.633,-18.631,-18.621,-18.636,-18.641,-18.639,-18.631,-18.625,-18.62,-18.635,-18.637,-18.643,-18.626,-18.637,-18.628,-18.639,-18.633,-18.619,-18.618,-18.637,-18.631,-18.635,-18.617,-18.637,-18.639,-18.639,-18.642,-18.635,-18.624,-18.625,-18.639,-18.664,-18.653,-18.641,-18.641,-18.644,-18.647,-18.642,-18.637,-18.65,-18.649,-18.653,-18.652,-18.645,-18.649,-18.641,-18.653,-18.666,-18.649,-18.646,-18.655,-18.659,-18.654,-18.638,-18.653,-18.649,-18.658,-18.66,-18.644,-18.652,-18.672,-18.651,-18.66,-18.647,-18.644,-18.652,-18.653,-18.652,-18.642,-18.645,-18.645,-18.649,-18.651,-18.648,-18.647,-18.649,-18.665,-18.668,-18.664,-18.647,-18.651,-18.658,-18.666,-18.651,-18.647,-18.656,-18.639,-18.659,-18.654,-18.639,-18.642,-18.64,-18.652,-18.648,-18.646,-18.639,-18.641,-18.647,-18.654,-18.637,-18.647,-18.651,-18.648,-18.649,-18.646,-18.641,-18.638,-18.637,-18.633,-18.637,-18.639,-18.643,-18.658,-18.654,-18.647,-18.652,-18.651,-18.659,-18.661,-18.65,-18.662,-18.652,-18.657,-18.668,-18.649,-18.641,-18.647,-18.647,-18.653,-18.654,-18.646,-18.643,-18.648,-18.627,-18.612,-18.594,-18.58,-18.563,-18.564,-18.584,-18.582,-18.592,-18.601,-18.611,-18.607,-18.605,-18.604,-18.627,-18.633,-18.648,-18.655,-18.658,-18.67,-18.664,-18.674,-18.664,-18.674,-18.668,-18.671,-18.666,-18.658,-18.666,-18.677,-18.675,-18.665,-18.676,-18.73,-18.772,-18.777,-18.708,-18.527,-18.277,-18.054,-17.706,-17.294,-17.251,-17.566,-18.019,-18.418,-18.704,-18.742,-18.678,-18.637,-18.597,-18.589,-18.6,-18.603,-18.599,-18.613,-18.613,-18.616,-18.607,-18.596,-18.605,-18.602,-18.589,-18.592,-18.58,-18.578,-18.586,-18.577,-18.56,-18.552,-18.566,-18.551,-18.552,-18.535,-18.533,-18.524,-18.507,-18.513,-18.505,-18.493,-18.489,-18.482,-18.461,-18.451,-18.445,-18.423,-18.419,-18.409,-18.374,-18.359,-18.333,-18.329,-18.312,-18.288,-18.28,-18.262,-18.235,-18.231,-18.213,-18.186,-18.181,-18.17,-18.171,-18.155,-18.138,-18.137,-18.149,-18.145,-18.161,-18.163,-18.18,-18.215,-18.251,-18.284,-18.295,-18.321,-18.364,-18.411,-18.455,-18.493,-18.491,-18.517,-18.545,-18.574,-18.587,-18.591,-18.598,-18.612,-18.633,-18.617,-18.61,-18.621,-18.623,-18.63,-18.631,-18.618,-18.623,-18.616,-18.631,-18.619,-18.601,-18.607,-18.609,-18.619,-18.616,-18.608,-18.613,-18.618,-18.61,-18.612,-18.614,-18.608,-18.608,-18.609,-18.611,-18.61,-18.604,-18.602,-18.627,-18.616,-18.608,-18.612,-18.625,-18.632,-18.642,-18.636,-18.645,-18.653,-18.631,-18.635,-18.637,-18.638,-18.635,-18.649,-18.647,-18.64,-18.643,-18.659,-18.66,-18.669,-18.655,-18.651,-18.671,-18.659,-18.657,-18.661,-18.645,-18.653,-18.654,-18.674,-18.674,-18.672,-18.65,-18.664,-18.678,-18.677,-18.66,-18.652,-18.653,-18.671,-18.67,-18.664,-18.664,-18.666,-18.67,-18.66,-18.671,-18.663,-18.662,-18.671,-18.667,-18.657,-18.659,-18.654,-18.677,-18.674,-18.661,-18.668,-18.671,-18.678,-18.671,-18.678,-18.67,-18.659,-18.676,-18.679,-18.676,-18.662,-18.665,-18.672,-18.685,-18.683,-18.672,-18.651,-18.674,-18.681,-18.688,-18.678,-18.666,-18.672,-18.686,-18.686,-18.681,-18.664,-18.676,-18.675,-18.683,-18.677,-18.674,-18.682,-18.668,-18.672,-18.676,-18.67,-18.667,-18.664,-18.662,-18.651,-18.635,-18.625,-18.598,-18.603,-18.612,-18.625,-18.613,-18.616,-18.631,-18.646,-18.633,-18.633,-18.666,-18.689,-18.694,-18.686,-18.697,-18.715,-18.717,-18.703,-18.709,-18.695,-18.691,-18.714,-18.706,-18.703,-18.709,-18.706,-18.707,-18.735,-18.776,-18.826,-18.758,-18.579,-18.338,-18.05,-17.709,-17.391,-17.346,-17.426,-17.834,-18.281,-18.648,-18.826,-18.815,-18.742,-18.673,-18.653,-18.638,-18.659,-18.644,-18.646,-18.634,-18.653,-18.656,-18.649,-18.619,-18.637,-18.634,-18.639,-18.624,-18.617,-18.608,-18.615,-18.609,-18.601,-18.591,-18.586,-18.584,-18.607,-18.579,-18.566,-18.552,-18.562,-18.552,-18.546,-18.524,-18.529,-18.523,-18.513,-18.484,-18.474,-18.467,-18.462,-18.458,-18.443,-18.392,-18.389,-18.369,-18.36,-18.336,-18.316,-18.307,-18.282,-18.281,-18.267,-18.244,-18.249,-18.248,-18.235,-18.234,-18.22,-18.226,-18.212,-18.217,-18.245,-18.267,-18.273,-18.311,-18.34,-18.382,-18.409,-18.444,-18.478,-18.513,-18.552,-18.58,-18.588,-18.607,-18.614,-18.644,-18.64,-18.654,-18.651,-18.665,-18.686,-18.687,-18.664,-18.664,-18.671,-18.676,-18.677,-18.669,-18.674,-18.669,-18.666,-18.672,-18.67,-18.669,-18.659,-18.659,-18.663,-18.659,-18.652,-18.656,-18.647,-18.656,-18.649,-18.645,-18.639,-18.654,-18.652,-18.641,-18.639,-18.654,-18.646,-18.647,-18.644,-18.651,-18.653,-18.667,-18.673,-18.676,-18.657,-18.656,-18.666,-18.667,-18.668,-18.654,-18.668,-18.668,-18.678,-18.683,-18.673,-18.667,-18.685,-18.684,-18.685,-18.676,-18.687,-18.671,-18.67,-18.683,-18.678,-18.666,-18.679,-18.683,-18.678,-18.682,-18.695,-18.687,-18.687,-18.68,-18.684,-18.676,-18.682,-18.685,-18.689,-18.68,-18.668,-18.681,-18.674,-18.692,-18.696,-18.668,-18.669,-18.673,-18.688,-18.696,-18.682,-18.685,-18.671,-18.682,-18.673,-18.665,-18.671,-18.677,-18.67,-18.654,-18.621,-18.604,-18.584,-18.58,-18.578,-18.573,-18.586,-18.606,-18.623,-18.639,-18.637,-18.645,-18.657,-18.672,-18.691,-18.69,-18.681,-18.696,-18.706,-18.704,-18.701,-18.688,-18.699,-18.702,-18.701,-18.695,-18.693,-18.71,-18.71,-18.71,-18.732,-18.785,-18.833,-18.766,-18.601,-18.363,-18.079,-17.74,-17.38,-17.27,-17.524,-17.746,-18.182,-18.603,-18.812,-18.824,-18.745,-18.692,-18.644,-18.647,-18.636,-18.644,-18.638,-18.648,-18.659,-18.649,-18.64,-18.632,-18.628,-18.629,-18.624,-18.625,-18.615,-18.605,-18.61,-18.631,-18.603,-18.584,-18.586,-18.586,-18.587,-18.578,-18.555,-18.55,-18.542,-18.557,-18.547,-18.533,-18.524,-18.522,-18.503,-18.491,-18.471,-18.455,-18.45,-18.437,-18.426,-18.406,-18.385,-18.365,-18.355,-18.325,-18.306,-18.29,-18.272,-18.269,-18.246,-18.231,-18.225,-18.211,-18.215,-18.218,-18.213,-18.205,-18.205,-18.222,-18.248,-18.249,-18.286,-18.322,-18.358,-18.399,-18.427,-18.466,-18.498,-18.533,-18.559,-18.581,-18.612,-18.621,-18.633,-18.652,-18.656,-18.657,-18.666,-18.67,-18.675,-18.677,-18.663,-18.679,-18.665,-18.678,-18.692,-18.675,-18.669,-18.68,-18.677,-18.663,-18.66,-18.669,-18.657,-18.68,-18.676,-18.666,-18.656,-18.655,-18.655,-18.66,-18.659,-18.647,-18.642,-18.637,-18.634,-18.629,-18.635,-18.634,-18.648,-18.65,-18.645,-18.635,-18.645,-18.646,-18.647,-18.648,-18.641,-18.651,-18.656,-18.656,-18.651,-18.66,-18.647,-18.654,-18.658,-18.667,-18.648,-18.658,-18.673,-18.67,-18.659,-18.658,-18.652,-18.645,-18.649,-18.661,-18.651,-18.658,-18.668,-18.659,-18.662,-18.668,-18.66,-18.653,-18.667,-18.67,-18.671,-18.657,-18.646,-18.661,-18.667,-18.665,-18.653,-18.659,-18.667,-18.666,-18.678,-18.651,-18.656,-18.649,-18.648,-18.648,-18.634,-18.627,-18.629,-18.625,-18.598,-18.565,-18.553,-18.544,-18.557,-18.587,-18.603,-18.585,-18.598,-18.614,-18.625,-18.625,-18.64,-18.66,-18.671,-18.678,-18.681,-18.665,-18.683,-18.685,-18.682,-18.677,-18.671,-18.682,-18.683,-18.691,-18.686,-18.674,-18.685,-18.684,-18.703,-18.739,-18.791,-18.748,-18.597,-18.369,-18.123,-17.801,-17.385,-17.253,-17.453,-17.887,-18.309,-18.658,-18.792,-18.754,-18.697,-18.622,-18.609,-18.61,-18.632,-18.62,-18.609,-18.616,-18.62,-18.616,-18.624,-18.608,-18.602,-18.6,-18.614,-18.604,-18.583,-18.582,-18.586,-18.58,-18.584,-18.557,-18.555,-18.561,-18.554,-18.536,-18.551,-18.529,-18.524,-18.518,-18.504,-18.505,-18.492,-18.464,-18.469,-18.459,-18.434,-18.419,-18.411,-18.395,-18.384,-18.364,-18.341,-18.334,-18.31,-18.288,-18.265,-18.249,-18.222,-18.226,-18.215,-18.185,-18.18,-18.169,-18.157,-18.168,-18.16,-18.155,-18.169,-18.182,-18.206,-18.23,-18.253,-18.27,-18.302,-18.347,-18.388,-18.435,-18.465,-18.49,-18.523,-18.55,-18.575,-18.588,-18.591,-18.619,-18.63,-18.648,-18.631,-18.643,-18.643,-18.646,-18.634,-18.643,-18.637,-18.652,-18.662,-18.668,-18.648,-18.647,-18.648,-18.659,-18.651,-18.643,-18.629,-18.641,-18.641,-18.638,-18.626,-18.63,-18.63,-18.637,-18.635,-18.622,-18.616,-18.625,-18.63,-18.633,-18.618,-18.617,-18.615,-18.638,-18.635,-18.64,-18.63,-18.624,-18.643,-18.643,-18.639,-18.626,-18.637,-18.65,-18.654,-18.65,-18.649,-18.637,-18.651,-18.654,-18.652,-18.654,-18.647,-18.647,-18.665,-18.654,-18.656,-18.673,-18.673,-18.663,-18.652,-18.649,-18.661,-18.663,-18.662,-18.662,-18.666,-18.657,-18.659,-18.663,-18.67,-18.662,-18.669,-18.662,-18.658,-18.665,-18.671,-18.661,-18.659,-18.662,-18.657,-18.662,-18.666,-18.662,-18.669,-18.671,-18.673,-18.665,-18.658,-18.651,-18.662,-18.67,-18.667,-18.668,-18.676,-18.661,-18.668,-18.665,-18.664,-18.66,-18.654,-18.646,-18.652,-18.651,-18.647,-18.663,-18.671,-18.662,-18.659,-18.661,-18.67,-18.665,-18.659,-18.661,-18.665,-18.647,-18.647,-18.629,-18.633,-18.639,-18.625,-18.63,-18.623,-18.578,-18.538,-18.544,-18.563,-18.581,-18.591,-18.603,-18.621,-18.63,-18.624,-18.625,-18.648,-18.668,-18.684,-18.687,-18.684,-18.694,-18.695,-18.703,-18.7,-18.701,-18.701,-18.711,-18.71,-18.701,-18.697,-18.701,-18.697,-18.71,-18.701,-18.72,-18.755,-18.815,-18.785,-18.621,-18.398,-18.137,-17.885,-17.447,-17.284,-17.44,-17.873,-18.33,-18.669,-18.795,-18.781,-18.784,-18.691,-18.651,-18.631,-18.643,-18.634,-18.643,-18.645,-18.648,-18.644,-18.628,-18.628,-18.645,-18.633,-18.631,-18.606,-18.612,-18.608,-18.611,-18.6,-18.59,-18.57,-18.586,-18.582,-18.584,-18.569,-18.55,-18.546,-18.553,-18.552,-18.527,-18.518,-18.511,-18.506,-18.499,-18.476,-18.462,-18.455,-18.452,-18.424,-18.406,-18.391,-18.366,-18.35,-18.345,-18.328,-18.302,-18.285,-18.263,-18.251,-18.245,-18.232,-18.218,-18.203,-18.2,-18.193,-18.184,-18.181,-18.189,-18.195,-18.202,-18.215,-18.236,-18.267,-18.307,-18.337,-18.361,-18.408,-18.44,-18.482,-18.518,-18.539,-18.557,-18.587,-18.608,-18.615,-18.625,-18.623,-18.628,-18.643,-18.652,-18.662,-18.646,-18.649,-18.652,-18.648,-18.636,-18.629,-18.633,-18.657,-18.638,-18.64,-18.631,-18.631,-18.637,-18.65,-18.645,-18.631,-18.631,-18.631,-18.628,-18.627,-18.621,-18.62,-18.627,-18.624,-18.624,-18.62,-18.611,-18.617,-18.613,-18.619,-18.61,-18.622,-18.635,-18.633,-18.63,-18.628,-18.624,-18.624,-18.638,-18.636,-18.63,-18.644,-18.647,-18.657,-18.66,-18.629,-18.637,-18.642,-18.65,-18.664,-18.658,-18.643,-18.657,-18.661,-18.663,-18.659,-18.651,-18.657,-18.662,-18.666,-18.667,-18.659,-18.649,-18.656,-18.66,-18.666,-18.659,-18.663,-18.664,-18.668,-18.665,-18.668,-18.661,-18.667,-18.674,-18.674,-18.664,-18.669,-18.663,-18.673,-18.682,-18.677,-18.667,-18.67,-18.68,-18.675,-18.668,-18.665,-18.669,-18.639,-18.648,-18.641,-18.628,-18.623,-18.632,-18.611,-18.581,-18.538,-18.536,-18.559,-18.585,-18.609,-18.6,-18.598,-18.622,-18.633,-18.644,-18.653,-18.671,-18.689,-18.697,-18.69,-18.685,-18.692,-18.699,-18.703,-18.707,-18.699,-18.69,-18.7,-18.7,-18.701,-18.701,-18.693,-18.695,-18.711,-18.717,-18.773,-18.813,-18.761,-18.614,-18.369,-18.115,-17.816,-17.403,-17.298,-17.511,-17.953,-18.184,-18.565,-18.806,-18.794,-18.755,-18.669,-18.652,-18.62,-18.651,-18.626,-18.642,-18.628,-18.655,-18.631,-18.641,-18.623,-18.617,-18.6,-18.625,-18.61,-18.618,-18.606,-18.599,-18.598,-18.6,-18.579,-18.573,-18.564,-18.576,-18.555,-18.565,-18.541,-18.551,-18.542,-18.532,-18.51,-18.515,-18.488,-18.496,-18.486,-18.474,-18.456,-18.427,-18.425,-18.414,-18.398,-18.376,-18.358,-18.349,-18.322,-18.303,-18.274,-18.258,-18.249,-18.241,-18.214,-18.199,-18.197,-18.196,-18.198,-18.192,-18.186,-18.189,-18.195,-18.21,-18.24,-18.249,-18.296,-18.319,-18.364,-18.4,-18.434,-18.47,-18.505,-18.537,-18.574,-18.576,-18.602,-18.614,-18.651,-18.639,-18.636,-18.634,-18.65,-18.664,-18.679,-18.667,-18.658,-18.671,-18.665,-18.666,-18.672,-18.658,-18.659,-18.661,-18.66,-18.657,-18.654,-18.65,-18.662,-18.658,-18.663,-18.639,-18.632,-18.648,-18.648,-18.648,-18.643,-18.631,-18.649,-18.64,-18.656,-18.624,-18.637,-18.628,-18.646,-18.648,-18.633,-18.632,-18.647,-18.647,-18.658,-18.653,-18.647,-18.654,-18.665,-18.663,-18.649,-18.644,-18.656,-18.673,-18.676,-18.662,-18.663,-18.67,-18.68,-18.67,-18.672,-18.662,-18.653,-18.662,-18.67,-18.668,-18.673,-18.672,-18.672,-18.668,-18.676,-18.668,-18.66,-18.663,-18.67,-18.685,-18.668,-18.665,-18.661,-18.675,-18.667,-18.648,-18.644,-18.639,-18.629,-18.628,-18.618,-18.61,-18.569,-18.556,-18.564,-18.583,-18.592,-18.602,-18.615,-18.646,-18.619,-18.629,-18.652,-18.678,-18.689,-18.694,-18.686,-18.689,-18.711,-18.715,-18.71,-18.687,-18.69,-18.692,-18.7,-18.697,-18.696,-18.704,-18.697,-18.705,-18.703,-18.709,-18.719,-18.778,-18.828,-18.773,-18.592,-18.345,-18.042,-17.899,-17.505,-17.281,-17.339,-17.755,-18.23,-18.63,-18.827,-18.793,-18.747,-18.675,-18.65,-18.617,-18.626,-18.624,-18.652,-18.631,-18.637,-18.599,-18.632,-18.616,-18.617,-18.615,-18.614,-18.601,-18.613,-18.599,-18.598,-18.578,-18.582,-18.564,-18.583,-18.574,-18.556,-18.55,-18.557,-18.553,-18.534,-18.516,-18.515,-18.51,-18.519,-18.508,-18.487,-18.463,-18.451,-18.446,-18.434,-18.405,-18.386,-18.382,-18.37,-18.339,-18.326,-18.3,-18.279,-18.275,-18.252,-18.233,-18.227,-18.225,-18.195,-18.2,-18.191,-18.175,-18.176,-18.18,-18.189,-18.188,-18.203,-18.229,-18.267,-18.308,-18.333,-18.361,-18.398,-18.427,-18.477,-18.501,-18.518,-18.544,-18.545,-18.587,-18.608,-18.609,-18.602,-18.625,-18.628,-18.633,-18.62,-18.625,-18.64,-18.651,-18.659,-18.648,-18.632,-18.621,-18.64,-18.634,-18.613,-18.609,-18.601,-18.639,-18.625,-18.633,-18.629,-18.617,-18.614,-18.625,-18.598,-18.584,-18.607,-18.618,-18.62,-18.592,-18.586,-18.596,-18.599,-18.598,-18.586,-18.597,-18.599,-18.612,-18.598,-18.595,-18.593,-18.595,-18.604,-18.634,-18.626,-18.61,-18.591,-18.603,-18.621,-18.604,-18.607,-18.62,-18.628,-18.625,-18.613,-18.622,-18.618,-18.616,-18.613,-18.63,-18.604,-18.632,-18.624,-18.615,-18.625,-18.613,-18.623,-18.606,-18.617,-18.62,-18.63,-18.623,-18.606,-18.623,-18.618,-18.622,-18.634,-18.631,-18.599,-18.618,-18.602,-18.616,-18.622,-18.586,-18.595,-18.569,-18.549,-18.534,-18.528,-18.485,-18.552,-18.543,-18.548,-18.56,-18.558,-18.564,-18.595,-18.609,-18.617,-18.646,-18.644,-18.648,-18.649,-18.647,-18.657,-18.629,-18.646,-18.656,-18.664,-18.649,-18.665,-18.663,-18.663,-18.639,-18.644,-18.65,-18.669,-18.675,-18.717,-18.741,-18.707,-18.516,-18.269,-18.005,-17.663,-17.298,-17.2,-17.508,-17.988,-18.4,-18.711,-18.736,-18.709,-18.649,-18.587,-18.577,-18.575,-18.592,-18.593,-18.59,-18.593,-18.596,-18.579,-18.594,-18.57,-18.565,-18.562,-18.583,-18.54,-18.546,-18.548,-18.555,-18.529,-18.538,-18.538,-18.536,-18.524,-18.503,-18.485,-18.494,-18.52,-18.501,-18.485,-18.475,-18.473,-18.455,-18.445,-18.417,-18.407,-18.405,-18.385,-18.38,-18.367,-18.338,-18.315,-18.314,-18.296,-18.301,-18.248,-18.23,-18.225,-18.203,-18.188,-18.171,-18.148,-18.156,-18.158,-18.134,-18.144,-18.133,-18.143,-18.173,-18.171,-18.192,-18.206,-18.258,-18.28,-18.31,-18.336,-18.384,-18.416,-18.466,-18.491,-18.521,-18.545,-18.572,-18.587,-18.606,-18.594,-18.609,-18.611,-18.628,-18.643,-18.628,-18.642,-18.634,-18.65,-18.642,-18.64,-18.648,-18.647,-18.637,-18.633,-18.649,-18.637,-18.612,-18.626,-18.643,-18.628,-18.614,-18.619,-18.625,-18.629,-18.629,-18.625,-18.624,-18.628,-18.614,-18.591,-18.601,-18.602,-18.612,-18.613,-18.602,-18.621,-18.604,-18.612,-18.633,-18.645,-18.62,-18.626,-18.618,-18.634,-18.638,-18.634,-18.629,-18.645,-18.632,-18.637,-18.647,-18.639,-18.633,-18.636,-18.643,-18.65,-18.64,-18.63,-18.654,-18.643,-18.645,-18.642,-18.636,-18.628,-18.651,-18.65,-18.644,-18.641,-18.638,-18.648,-18.653,-18.658,-18.653,-18.644,-18.642,-18.643,-18.655,-18.632,-18.615,-18.636,-18.64,-18.618,-18.628,-18.624,-18.623,-18.647,-18.625,-18.643,-18.67,-18.688,-18.654,-18.645,-18.64,-18.645,-18.646,-18.614,-18.578,-18.567,-18.542,-18.558,-18.548,-18.58,-18.601,-18.604,-18.578,-18.601,-18.612,-18.62,-18.636,-18.648,-18.663,-18.643,-18.654,-18.648,-18.656,-18.66,-18.649,-18.643,-18.642,-18.628,-18.627,-18.642,-18.618,-18.608,-18.622,-18.619,-18.619,-18.637,-18.691,-18.681,-18.676,-18.53,-18.312,-18.072,-17.778,-17.344,-17.182,-17.321,-17.766,-18.23,-18.544,-18.711,-18.681,-18.632,-18.553,-18.529,-18.522,-18.542,-18.545,-18.56,-18.543,-18.538,-18.547,-18.52,-18.538,-18.547,-18.503,-18.521,-18.519,-18.507,-18.508,-18.523,-18.505,-18.496,-18.495,-18.501,-18.484,-18.478,-18.465,-18.504,-18.481,-18.488,-18.46,-18.442,-18.423,-18.417,-18.431,-18.403,-18.406,-18.398,-18.382,-18.385,-18.358,-18.33,-18.306,-18.294,-18.282,-18.279,-18.266,-18.24,-18.24,-18.208,-18.221,-18.2,-18.193,-18.191,-18.207,-18.198,-18.195,-18.207,-18.212,-18.234,-18.266,-18.287,-18.311,-18.355,-18.418,-18.479,-18.532,-18.581,-18.608,-18.659,-18.729,-18.758,-18.783,-18.807,-18.84,-18.838,-18.824,-18.808,-18.814,-18.788,-18.804,-18.786,-18.749,-18.724,-18.729,-18.734,-18.687,-18.663,-18.678,-18.664,-18.653,-18.646,-18.616,-18.602,-18.606,-18.601,-18.59,-18.586,-18.555,-18.55,-18.568,-18.569,-18.561,-18.538,-18.546,-18.54,-18.517,-18.517,-18.544,-18.55,-18.545,-18.534,-18.55,-18.535,-18.543,-18.55,-18.559,-18.582,-18.576,-18.567,-18.581,-18.589,-18.606,-18.603,-18.646,-18.66,-18.664,-18.646,-18.669,-18.679,-18.646,-18.672,-18.666,-18.667,-18.665,-18.675,-18.646,-18.642,-18.67,-18.642,-18.629,-18.661,-18.647,-18.66,-18.644,-18.62,-18.597,-18.626,-18.648,-18.653,-18.636,-18.658,-18.628,-18.632,-18.652,-18.643,-18.645,-18.644,-18.654,-18.674,-18.661,-18.647,-18.638,-18.646,-18.64,-18.652,-18.634,-18.636,-18.627,-18.608,-18.588,-18.572,-18.554,-18.564,-18.581,-18.609,-18.622,-18.6,-18.625,-18.626,-18.62,-18.644,-18.683,-18.677,-18.703,-18.698,-18.696,-18.696,-18.689,-18.698,-18.7,-18.692,-18.696,-18.702,-18.701,-18.689,-18.7,-18.694,-18.696,-18.689,-18.693,-18.694,-18.733,-18.8,-18.796,-18.662,-18.448,-18.182,-17.868,-17.476,-17.359,-17.293,-17.559,-18.044,-18.461,-18.786,-18.79,-18.757,-18.69,-18.637,-18.587,-18.593,-18.588,-18.612,-18.619,-18.616,-18.609,-18.613,-18.61,-18.607,-18.591,-18.595,-18.598,-18.594,-18.602,-18.594,-18.575,-18.577,-18.583,-18.588,-18.573,-18.568,-18.557,-18.55,-18.545,-18.549,-18.544,-18.532,-18.529,-18.538,-18.534,-18.521,-18.491,-18.485,-18.471,-18.469,-18.443,-18.414,-18.397,-18.39,-18.391,-18.37,-18.343,-18.319,-18.303,-18.294,-18.273,-18.257,-18.25,-18.243,-18.234,-18.229,-18.218,-18.218,-18.206,-18.227,-18.231,-18.242,-18.255,-18.277,-18.318,-18.339,-18.373,-18.398,-18.442,-18.479,-18.523,-18.547,-18.583,-18.598,-18.615,-18.625,-18.633,-18.633,-18.646,-18.65,-18.667,-18.674,-18.666,-18.652,-18.676,-18.681,-18.667,-18.665,-18.674,-18.661,-18.661,-18.682,-18.667,-18.669,-18.671,-18.67,-18.671,-18.648,-18.657,-18.661,-18.675,-18.663,-18.656,-18.646,-18.65,-18.657,-18.662,-18.673,-18.674,-18.673,-18.672,-18.66,-18.656,-18.663,-18.661,-18.662,-18.678,-18.687,-18.674,-18.675,-18.669,-18.687,-18.673,-18.676,-18.686,-18.688,-18.694,-18.676,-18.674,-18.69,-18.664,-18.684,-18.67,-18.652,-18.657,-18.654,-18.635,-18.612,-18.584,-18.575,-18.587,-18.598,-18.61,-18.592,-18.616,-18.625,-18.641,-18.66,-18.663,-18.68,-18.702,-18.697,-18.696,-18.697,-18.688,-18.689,-18.7,-18.696,-18.694,-18.696,-18.709,-18.707,-18.691,-18.691,-18.691,-18.704,-18.706,-18.695,-18.696,-18.731,-18.807,-18.814,-18.7,-18.489,-18.22,-18.055,-17.733,-17.373,-17.255,-17.466,-17.963,-18.389,-18.773,-18.807,-18.774,-18.721,-18.675,-18.631,-18.606,-18.605,-18.615,-18.626,-18.627,-18.616,-18.594,-18.61,-18.602,-18.623,-18.61,-18.596,-18.58,-18.594,-18.582,-18.575,-18.566,-18.574,-18.559,-18.571,-18.545,-18.544,-18.531,-18.532,-18.533,-18.524,-18.507,-18.498,-18.484,-18.49,-18.474,-18.468,-18.444,-18.437,-18.424,-18.41,-18.393,-18.379,-18.36,-18.352,-18.343,-18.312,-18.276,-18.273,-18.263,-18.256,-18.217,-18.204,-18.206,-18.2,-18.197,-18.206,-18.197,-18.201,-18.207,-18.228,-18.238,-18.255,-18.281,-18.311,-18.352,-18.381,-18.413,-18.443,-18.487,-18.517,-18.549,-18.548,-18.56,-18.584,-18.605,-18.615,-18.61,-18.614,-18.627,-18.632,-18.649,-18.65,-18.636,-18.637,-18.637,-18.636,-18.639,-18.636,-18.639,-18.634,-18.637,-18.626,-18.628,-18.629,-18.635,-18.625,-18.625,-18.628,-18.63,-18.624,-18.624,-18.618,-18.621,-18.603,-18.61,-18.615,-18.611,-18.625,-18.61,-18.615,-18.627,-18.622,-18.616,-18.603,-18.621,-18.632,-18.632,-18.623,-18.631,-18.631,-18.639,-18.64,-18.644,-18.631,-18.632,-18.634,-18.645,-18.631,-18.632,-18.625,-18.627,-18.616,-18.613,-18.611,-18.601,-18.58,-18.554,-18.542,-18.531,-18.553,-18.581,-18.582,-18.583,-18.588,-18.598,-18.615,-18.621,-18.633,-18.65,-18.654,-18.658,-18.671,-18.671,-18.672,-18.67,-18.675,-18.677,-18.671,-18.677,-18.68,-18.677,-18.679,-18.666,-18.68,-18.68,-18.692,-18.73,-18.787,-18.786,-18.683,-18.587,-18.376,-18.096,-17.767,-17.342,-17.199,-17.429,-17.908,-18.341,-18.7,-18.781,-18.752,-18.696,-18.642,-18.615,-18.615,-18.633,-18.625,-18.628,-18.614,-18.62,-18.615,-18.617,-18.614,-18.608,-18.6,-18.592,-18.585,-18.609,-18.589,-18.588,-18.583,-18.581,-18.578,-18.569,-18.558,-18.544,-18.546,-18.544,-18.53,-18.528,-18.518,-18.505,-18.499,-18.498,-18.479,-18.467,-18.467,-18.451,-18.439,-18.421,-18.402,-18.386,-18.368,-18.342,-18.324,-18.304,-18.296,-18.279,-18.259,-18.239,-18.234,-18.232,-18.221,-18.211,-18.189,-18.2,-18.183,-18.198,-18.203,-18.218,-18.233,-18.258,-18.293,-18.332,-18.355,-18.4,-18.436,-18.468,-18.498,-18.513,-18.552,-18.576,-18.6,-18.611,-18.609,-18.611,-18.619,-18.631,-18.631,-18.635,-18.638,-18.648,-18.644,-18.643,-18.647,-18.629,-18.642,-18.649,-18.649,-18.64,-18.638,-18.628,-18.639,-18.639,-18.638,-18.629,-18.628,-18.631,-18.63,-18.617,-18.634,-18.619,-18.618,-18.604,-18.614,-18.624,-18.612,-18.623,-18.629,-18.624,-18.624,-18.615,-18.616,-18.621,-18.624,-18.627,-18.622,-18.627,-18.633,-18.628,-18.627,-18.624,-18.627,-18.627,-18.629,-18.642,-18.639,-18.641,-18.647,-18.638,-18.634,-18.635,-18.645,-18.645,-18.642,-18.644,-18.646,-18.639,-18.638,-18.645,-18.646,-18.639,-18.627,-18.646,-18.653,-18.649,-18.638,-18.627,-18.643,-18.64,-18.641,-18.643,-18.643,-18.649,-18.651,-18.657,-18.64,-18.635,-18.644,-18.651,-18.647,-18.649,-18.644,-18.651,-18.655,-18.656,-18.641,-18.648,-18.647,-18.658,-18.655,-18.645,-18.644,-18.647,-18.646,-18.649,-18.649,-18.636,-18.629,-18.648,-18.643,-18.638,-18.617,-18.623,-18.631,-18.608,-18.584,-18.544,-18.561,-18.584,-18.598,-18.607,-18.594,-18.596,-18.604,-18.622,-18.622,-18.634,-18.632,-18.66,-18.672,-18.671,-18.676,-18.675,-18.676,-18.672,-18.672,-18.674,-18.673,-18.674,-18.676,-18.671,-18.669,-18.664,-18.668,-18.672,-18.675,-18.684,-18.719,-18.778,-18.789,-18.676,-18.466,-18.217,-17.932,-17.727,-17.245,-17.301,-17.74,-18.173,-18.602,-18.792,-18.787,-18.697,-18.683,-18.613,-18.636,-18.608,-18.625,-18.619,-18.643,-18.63,-18.641,-18.629,-18.627,-18.616,-18.639,-18.618,-18.626,-18.611,-18.608,-18.607,-18.603,-18.599,-18.604,-18.591,-18.605,-18.597,-18.575,-18.571,-18.577,-18.568,-18.567,-18.544,-18.543,-18.531,-18.534,-18.514,-18.5,-18.484,-18.487,-18.473,-18.469,-18.451,-18.436,-18.418,-18.398,-18.386,-18.364,-18.335,-18.33,-18.319,-18.302,-18.293,-18.279,-18.259,-18.253,-18.245,-18.233,-18.232,-18.219,-18.23,-18.243,-18.271,-18.273,-18.296,-18.324,-18.364,-18.384,-18.413,-18.458,-18.508,-18.53,-18.562,-18.573,-18.604,-18.626,-18.648,-18.651,-18.641,-18.649,-18.673,-18.674,-18.683,-18.673,-18.676,-18.67,-18.682,-18.677,-18.677,-18.657,-18.67,-18.671,-18.675,-18.668,-18.66,-18.647,-18.663,-18.657,-18.664,-18.661,-18.664,-18.666,-18.666,-18.652,-18.656,-18.656,-18.641,-18.644,-18.649,-18.654,-18.652,-18.634,-18.646,-18.647,-18.639,-18.641,-18.65,-18.662,-18.665,-18.658,-18.652,-18.652,-18.654,-18.65,-18.66,-18.651,-18.66,-18.669,-18.669,-18.667,-18.654,-18.66,-18.669,-18.664,-18.663,-18.664,-18.665,-18.67,-18.672,-18.673,-18.665,-18.657,-18.665,-18.661,-18.66,-18.663,-18.658,-18.673,-18.67,-18.678,-18.66,-18.661,-18.666,-18.661,-18.667,-18.652,-18.656,-18.656,-18.662,-18.665,-18.663,-18.664,-18.666,-18.676,-18.674,-18.662,-18.662,-18.661,-18.654,-18.672,-18.667,-18.66,-18.662,-18.655,-18.643,-18.643,-18.655,-18.65,-18.644,-18.647,-18.626,-18.615,-18.591,-18.581,-18.573,-18.579,-18.585,-18.608,-18.6,-18.614,-18.602,-18.603,-18.609,-18.631,-18.65,-18.665,-18.681,-18.677,-18.68,-18.683,-18.674,-18.673,-18.671,-18.676,-18.681,-18.683,-18.68,-18.677,-18.672,-18.691,-18.683,-18.676,-18.672,-18.661,-18.679,-18.706,-18.766,-18.807,-18.726,-18.561,-18.337,-18.095,-17.757,-17.337,-17.245,-17.345,-17.736,-18.2,-18.586,-18.798,-18.765,-18.691,-18.642,-18.605,-18.592,-18.623,-18.609,-18.615,-18.608,-18.612,-18.598,-18.601,-18.593,-18.6,-18.597,-18.605,-18.585,-18.587,-18.572,-18.572,-18.572,-18.573,-18.564,-18.559,-18.554,-18.55,-18.546,-18.546,-18.516,-18.517,-18.518,-18.504,-18.501,-18.488,-18.475,-18.471,-18.469,-18.455,-18.435,-18.417,-18.412,-18.396,-18.376,-18.347,-18.335,-18.319,-18.306,-18.295,-18.276,-18.255,-18.239,-18.224,-18.206,-18.19,-18.181,-18.184,-18.182,-18.184,-18.18,-18.186,-18.191,-18.211,-18.239,-18.263,-18.29,-18.323,-18.361,-18.415,-18.432,-18.461,-18.498,-18.526,-18.548,-18.558,-18.576,-18.586,-18.599,-18.603,-18.63,-18.614,-18.635,-18.629,-18.637,-18.631,-18.627,-18.626,-18.627,-18.629,-18.64,-18.614,-18.621,-18.611,-18.61,-18.621,-18.602,-18.607,-18.611,-18.619,-18.613,-18.603,-18.609,-18.602,-18.614,-18.617,-18.608,-18.608,-18.598,-18.601,-18.613,-18.609,-18.601,-18.599,-18.62,-18.621,-18.614,-18.607,-18.605,-18.614,-18.622,-18.618,-18.621,-18.619,-18.617,-18.628,-18.628,-18.622,-18.627,-18.631,-18.642,-18.627,-18.625,-18.633,-18.633,-18.645,-18.632,-18.627,-18.633,-18.631,-18.631,-18.63,-18.622,-18.625,-18.644,-18.638,-18.637,-18.628,-18.63,-18.627,-18.63,-18.633,-18.637,-18.641,-18.637,-18.645,-18.644,-18.636,-18.633,-18.635,-18.632,-18.638,-18.637,-18.634,-18.63,-18.634,-18.63,-18.631,-18.625,-18.643,-18.637,-18.641,-18.633,-18.628,-18.63,-18.637,-18.635,-18.638,-18.634,-18.637,-18.653,-18.656,-18.647,-18.636,-18.641,-18.647,-18.64,-18.642,-18.632,-18.633,-18.641,-18.64,-18.64,-18.631,-18.626,-18.641,-18.654,-18.643,-18.632,-18.631,-18.633,-18.643,-18.644,-18.645,-18.634,-18.634,-18.637,-18.636,-18.637,-18.634,-18.64,-18.638,-18.647,-18.647,-18.632,-18.625,-18.622,-18.604,-18.607,-18.604,-18.594,-18.592,-18.595,-18.582,-18.55,-18.526,-18.528,-18.546,-18.565,-18.572,-18.572,-18.58,-18.59,-18.599,-18.608,-18.623,-18.657,-18.652,-18.655,-18.651,-18.646,-18.648,-18.659,-18.661,-18.64,-18.642,-18.654,-18.653,-18.655,-18.656,-18.648,-18.656,-18.659,-18.67,-18.674,-18.724,-18.766,-18.719,-18.575,-18.462,-18.234,-17.946,-17.52,-17.259,-17.324,-17.695,-18.145,-18.538,-18.774,-18.733,-18.683,-18.602,-18.583,-18.596,-18.606,-18.584,-18.601,-18.598,-18.604,-18.592,-18.588,-18.577,-18.582,-18.579,-18.58,-18.57,-18.561,-18.566,-18.561,-18.564,-18.555,-18.55,-18.552,-18.544,-18.528,-18.523,-18.513,-18.516,-18.512,-18.508,-18.507,-18.489,-18.484,-18.482,-18.462,-18.454,-18.451,-18.438,-18.421,-18.41,-18.383,-18.367,-18.348,-18.34,-18.322,-18.307,-18.285,-18.273,-18.259,-18.247,-18.244,-18.212,-18.205,-18.201,-18.193,-18.186,-18.178,-18.171,-18.165,-18.177,-18.199,-18.203,-18.225,-18.258,-18.277,-18.324,-18.354,-18.386,-18.427,-18.444,-18.466,-18.488,-18.522,-18.536,-18.553,-18.581,-18.583,-18.584,-18.583,-18.599,-18.611,-18.608,-18.605,-18.604,-18.6,-18.607,-18.615,-18.601,-18.605,-18.602,-18.606,-18.611,-18.591,-18.595,-18.595,-18.594,-18.589,-18.586,-18.593,-18.591,-18.594,-18.594,-18.588,-18.579,-18.567,-18.582,-18.577,-18.576,-18.58,-18.581,-18.571,-18.588,-18.589,-18.583,-18.585,-18.592,-18.599,-18.603,-18.596,-18.603,-18.596,-18.604,-18.607,-18.594,-18.593,-18.59,-18.602,-18.616,-18.601,-18.608,-18.607,-18.611,-18.604,-18.608,-18.607,-18.61,-18.616,-18.617,-18.615,-18.604,-18.611,-18.627,-18.616,-18.604,-18.605,-18.606,-18.61,-18.607,-18.61,-18.604,-18.616,-18.609,-18.618,-18.607,-18.607,-18.608,-18.619,-18.607,-18.612,-18.613,-18.614,-18.616,-18.619,-18.61,-18.612,-18.605,-18.614,-18.616,-18.611,-18.613,-18.616,-18.611,-18.619,-18.614,-18.603,-18.596,-18.614,-18.617,-18.622,-18.608,-18.608,-18.613,-18.614,-18.61,-18.607,-18.611,-18.607,-18.614,-18.616,-18.608,-18.608,-18.613,-18.607,-18.61,-18.607,-18.604,-18.598,-18.605,-18.599,-18.596,-18.581,-18.58,-18.585,-18.576,-18.56,-18.567,-18.536,-18.509,-18.501,-18.506,-18.52,-18.529,-18.536,-18.55,-18.566,-18.57,-18.573,-18.596,-18.611,-18.62,-18.617,-18.614,-18.629,-18.632,-18.625,-18.622,-18.635,-18.635,-18.641,-18.64,-18.63,-18.631,-18.631,-18.639,-18.646,-18.635,-18.643,-18.681,-18.759,-18.75,-18.624,-18.414,-18.175,-17.869,-17.454,-17.222,-17.315,-17.722,-18.169,-18.589,-18.768,-18.724,-18.693,-18.625,-18.58,-18.571,-18.576,-18.586,-18.592,-18.59,-18.592,-18.566,-18.567,-18.581,-18.568,-18.572,-18.57,-18.553,-18.564,-18.569,-18.555,-18.549,-18.549,-18.538,-18.54,-18.546,-18.542,-18.529,-18.517,-18.518,-18.509,-18.5,-18.492,-18.488,-18.485,-18.473,-18.457,-18.445,-18.44,-18.43,-18.422,-18.401,-18.387,-18.376,-18.364,-18.36,-18.339,-18.315,-18.296,-18.291,-18.277,-18.251,-18.238,-18.227,-18.215,-18.212,-18.199,-18.188,-18.183,-18.191,-18.202,-18.194,-18.193,-18.208,-18.237,-18.266,-18.297,-18.324,-18.353,-18.397,-18.433,-18.476,-18.496,-18.522,-18.552,-18.57,-18.593,-18.598,-18.606,-18.606,-18.62,-18.626,-18.627,-18.63,-18.632,-18.642,-18.644,-18.628,-18.62,-18.626,-18.629,-18.635,-18.63,-18.625,-18.61,-18.626,-18.616,-18.616,-18.615,-18.61,-18.615,-18.618,-18.61,-18.602,-18.608,-18.606,-18.609,-18.614,-18.612,-18.606,-18.611,-18.616,-18.618,-18.613,-18.601,-18.613,-18.627,-18.619,-18.626,-18.614,-18.623,-18.623,-18.624,-18.624,-18.632,-18.63,-18.623,-18.624,-18.633,-18.632,-18.639,-18.65,-18.628,-18.634,-18.625,-18.643,-18.649,-18.642,-18.647,-18.637,-18.632,-18.639,-18.648,-18.652,-18.648,-18.634,-18.643,-18.654,-18.647,-18.641,-18.639,-18.633,-18.646,-18.648,-18.645,-18.64,-18.642,-18.644,-18.642,-18.643,-18.632,-18.651,-18.657,-18.662,-18.647,-18.639,-18.631,-18.656,-18.655,-18.649,-18.645,-18.631,-18.637,-18.64,-18.649,-18.646,-18.643,-18.656,-18.67,-18.643,-18.637,-18.644,-18.638,-18.649,-18.636,-18.64,-18.617,-18.599,-18.601,-18.6,-18.602,-18.589,-18.569,-18.535,-18.536,-18.549,-18.575,-18.574,-18.588,-18.596,-18.596,-18.604,-18.648,-18.648,-18.659,-18.661,-18.653,-18.659,-18.674,-18.672,-18.679,-18.693,-18.659,-18.669,-18.667,-18.669,-18.666,-18.669,-18.676,-18.674,-18.695,-18.733,-18.789,-18.741,-18.686,-18.513,-18.255,-17.98,-17.59,-17.348,-17.345,-17.712,-18.137,-18.576,-18.818,-18.797,-18.727,-18.675,-18.637,-18.619,-18.62,-18.628,-18.617,-18.612,-18.634,-18.62,-18.618,-18.61,-18.623,-18.612,-18.605,-18.591,-18.602,-18.585,-18.602,-18.591,-18.588,-18.576,-18.574,-18.57,-18.576,-18.551,-18.543,-18.548,-18.546,-18.55,-18.528,-18.523,-18.511,-18.501,-18.508,-18.48,-18.468,-18.464,-18.46,-18.448,-18.42,-18.411,-18.397,-18.372,-18.369,-18.342,-18.318,-18.319,-18.313,-18.295,-18.274,-18.261,-18.259,-18.238,-18.255,-18.228,-18.226,-18.227,-18.228,-18.234,-18.227,-18.255,-18.275,-18.313,-18.334,-18.361,-18.393,-18.434,-18.442,-18.477,-18.528,-18.533,-18.552,-18.595,-18.591,-18.609,-18.614,-18.611,-18.63,-18.642,-18.644,-18.641,-18.648,-18.644,-18.648,-18.653,-18.631,-18.626,-18.634,-18.642,-18.632,-18.639,-18.628,-18.614,-18.616,-18.626,-18.62,-18.615,-18.606,-18.619,-18.626,-18.622,-18.615,-18.607,-18.612,-18.625,-18.614,-18.607,-18.608,-18.618,-18.62,-18.63,-18.616,-18.623,-18.617,-18.621,-18.623,-18.635,-18.631,-18.62,-18.627,-18.635,-18.63,-18.64,-18.626,-18.626,-18.629,-18.636,-18.635,-18.646,-18.648,-18.64,-18.634,-18.647,-18.638,-18.635,-18.641,-18.64,-18.637,-18.657,-18.644,-18.651,-18.651,-18.64,-18.64,-18.639,-18.652,-18.651,-18.655,-18.643,-18.648,-18.647,-18.651,-18.645,-18.631,-18.607,-18.629,-18.623,-18.607,-18.595,-18.599,-18.577,-18.541,-18.51,-18.524,-18.558,-18.571,-18.58,-18.587,-18.572,-18.589,-18.609,-18.615,-18.639,-18.652,-18.646,-18.659,-18.669,-18.672,-18.659,-18.659,-18.664,-18.679,-18.665,-18.653,-18.66,-18.674,-18.671,-18.663,-18.657,-18.67,-18.671,-18.705,-18.76,-18.765,-18.663,-18.468,-18.169,-17.854,-17.473,-17.309,-17.356,-17.774,-18.216,-18.639,-18.797,-18.762,-18.714,-18.655,-18.613,-18.58,-18.588,-18.585,-18.614,-18.596,-18.597,-18.58,-18.603,-18.59,-18.593,-18.558,-18.583,-18.576,-18.572,-18.557,-18.55,-18.544,-18.551,-18.553,-18.553,-18.525,-18.534,-18.526,-18.52,-18.51,-18.507,-18.497,-18.5,-18.484,-18.481,-18.459,-18.45,-18.441,-18.431,-18.419,-18.407,-18.407,-18.377,-18.361,-18.348,-18.333,-18.321,-18.314,-18.29,-18.272,-18.261,-18.233,-18.229,-18.214,-18.213,-18.187,-18.18,-18.176,-18.193,-18.179,-18.198,-18.198,-18.205,-18.231,-18.243,-18.26,-18.287,-18.321,-18.355,-18.402,-18.426,-18.462,-18.48,-18.515,-18.541,-18.558,-18.562,-18.576,-18.587,-18.603,-18.594,-18.606,-18.599,-18.614,-18.612,-18.613,-18.611,-18.61,-18.588,-18.595,-18.607,-18.603,-18.6,-18.605,-18.602,-18.613,-18.606,-18.598,-18.602,-18.596,-18.615,-18.587,-18.587,-18.602,-18.592,-18.603,-18.611,-18.595,-18.605,-18.6,-18.604,-18.602,-18.607,-18.608,-18.616,-18.617,-18.613,-18.61,-18.613,-18.62,-18.625,-18.622,-18.613,-18.626,-18.626,-18.634,-18.63,-18.624,-18.611,-18.621,-18.619,-18.629,-18.622,-18.624,-18.62,-18.633,-18.645,-18.63,-18.629,-18.631,-18.636,-18.644,-18.634,-18.622,-18.622,-18.61,-18.635,-18.633,-18.635,-18.638,-18.633,-18.638,-18.636,-18.63,-18.631,-18.629,-18.615,-18.609,-18.598,-18.59,-18.577,-18.583,-18.538,-18.52,-18.511,-18.516,-18.529,-18.55,-18.55,-18.555,-18.567,-18.584,-18.602,-18.611,-18.641,-18.645,-18.656,-18.649,-18.647,-18.651,-18.659,-18.659,-18.659,-18.643,-18.648,-18.656,-18.657,-18.669,-18.681,-18.65,-18.643,-18.657,-18.716,-18.772,-18.732,-18.584,-18.356,-18.072,-17.756,-17.375,-17.261,-17.448,-17.889,-18.331,-18.695,-18.767,-18.756,-18.734,-18.655,-18.615,-18.568,-18.6,-18.598,-18.606,-18.596,-18.596,-18.593,-18.61,-18.591,-18.58,-18.566,-18.586,-18.576,-18.583,-18.55,-18.564,-18.563,-18.566,-18.548,-18.541,-18.536,-18.528,-18.527,-18.526,-18.507,-18.508,-18.494,-18.492,-18.493,-18.478,-18.469,-18.45,-18.439,-18.443,-18.409,-18.39,-18.386,-18.379,-18.368,-18.341,-18.321,-18.292,-18.28,-18.277,-18.27,-18.239,-18.224,-18.212,-18.199,-18.185,-18.178,-18.177
