14.621,14.622,14.612,14.609,14.612,14.62,14.617,14.611,14.606,14.609,14.612,14.607,14.603,14.601,14.602,14.604,14.606,14.601,14.591,14.593,14.599,14.607,14.599,14.59,14.59,14.597,14.603,14.592,14.586,14.584,14.595,14.594,14.592,14.584,14.58,14.586,14.593,14.593,14.587,14.583,14.59,14.593,14.594,14.587,14.586,14.586,14.595,14.59,14.584,14.582,14.593,14.597,14.606,14.611,14.614,14.628,14.631,14.634,14.643,14.655,14.678,14.684,14.673,14.663,14.648,14.637,14.638,14.634,14.625,14.599,14.579,14.57,14.577,14.571,14.572,14.562,14.569,14.574,14.579,14.565,14.565,14.562,14.577,14.572,14.564,14.554,14.539,14.518,14.529,14.619,14.709,14.937,15.167,15.355,15.371,15.07,14.917,14.778,14.537,14.434,14.448,14.413,14.455,14.526,14.576,14.601,14.62,14.635,14.644,14.64,14.642,14.636,14.644,14.658,14.664,14.663,14.667,14.675,14.685,14.685,14.686,14.69,14.699,14.711,14.717,14.718,14.727,14.739,14.748,14.76,14.767,14.775,14.791,14.806,14.826,14.835,14.851,14.87,14.896,14.92,14.937,14.955,14.977,15.001,15.028,15.042,15.049,15.057,15.07,15.085,15.086,15.084,15.073,15.068,15.056,15.032,14.993,14.957,14.921,14.895,14.851,14.813,14.776,14.756,14.732,14.707,14.694,14.675,14.664,14.657,14.648,14.636,14.624,14.627,14.624,14.63,14.618,14.618,14.612,14.619,14.622,14.613,14.607,14.608,14.61,14.614,14.612,14.606,14.601,14.609,14.606,14.612,14.605,14.607,14.614,14.623,14.62,14.617,14.613,14.619,14.627,14.631,14.619,14.619,14.624,14.623,14.63,14.623,14.618,14.623,14.625,14.628,14.625,14.622,14.623,14.624,14.627,14.623,14.616,14.62,14.623,14.624,14.62,14.617,14.617,14.623,14.626,14.626,14.621,14.623,14.623,14.632,14.627,14.626,14.626,14.633,14.664,14.697,14.7,14.642,14.597,14.59,14.589,14.59,14.592,14.601,14.607,14.616,14.611,14.61,14.613,14.621,14.625,14.62,14.615,14.616,14.623,14.63,14.622,14.617,14.622,14.627,14.631,14.628,14.627,14.621,14.624,14.623,14.619,14.616,14.618,14.624,14.637,14.637,14.63,14.627,14.634,14.646,14.639,14.63,14.627,14.722,14.719,14.707,14.712,14.694,14.689,14.675,14.682,14.68,14.68,14.664,14.669,14.67,14.676,14.666,14.66,14.643,14.645,14.649,14.656,14.644,14.649,14.647,14.658,14.658,14.657,14.655,14.663,14.667,14.675,14.665,14.664,14.666,14.672,14.672,14.671,14.666,14.667,14.676,14.683,14.678,14.679,14.677,14.686,14.691,14.687,14.681,14.677,14.681,14.691,14.685,14.679,14.677,14.683,14.688,14.682,14.675,14.673,14.681,14.684,14.681,14.672,14.676,14.678,14.683,14.673,14.672,14.672,14.678,14.682,14.679,14.672,14.671,14.673,14.682,14.681,14.674,14.672,14.677,14.685,14.68,14.678,14.673,14.681,14.688,14.684,14.677,14.676,14.677,14.687,14.69,14.682,14.683,14.681,14.688,14.69,14.68,14.675,14.685,14.688,14.689,14.684,14.685,14.687,14.693,14.694,14.684,14.681,14.683,14.688,14.694,14.688,14.684,14.681,14.69,14.687,14.685,14.683,14.682,14.689,14.699,14.703,14.707,14.725,14.727,14.731,14.738,14.74,14.759,14.788,14.789,14.77,14.765,14.749,14.743,14.74,14.739,14.727,14.705,14.676,14.674,14.671,14.664,14.664,14.664,14.664,14.671,14.669,14.665,14.668,14.667,14.678,14.671,14.664,14.652,14.641,14.623,14.634,14.744,14.962,15.185,15.411,15.521,15.257,15.136,15.013,14.868,14.622,14.515,14.536,14.517,14.604,14.651,14.715,14.72,14.747,14.743,14.754,14.746,14.752,14.75,14.765,14.763,14.772,14.766,14.778,14.783,14.801,14.798,14.803,14.806,14.824,14.835,14.851,14.852,14.862,14.873,14.888,14.895,14.908,14.917,14.94,14.96,14.972,14.983,15,15.021,15.049,15.068,15.087,15.101,15.124,15.151,15.173,15.179,15.19,15.205,15.22,15.223,15.216,15.207,15.199,15.195,15.183,15.152,15.116,15.081,15.045,15.016,14.974,14.936,14.898,14.876,14.855,14.827,14.797,14.782,14.772,14.763,14.751,14.74,14.734,14.734,14.733,14.729,14.716,14.715,14.713,14.718,14.712,14.706,14.692,14.671,14.665,14.664,14.663,14.674,14.673,14.673,14.668,14.671,14.675,14.683,14.675,14.672,14.668,14.677,14.68,14.682,14.673,14.675,14.679,14.684,14.684,14.684,14.676,14.685,14.69,14.692,14.684,14.685,14.688,14.696,14.696,14.693,14.688,14.692,14.698,14.701,14.697,14.695,14.696,14.708,14.724,14.733,14.737,14.733,14.743,14.768,14.78,14.802,14.791,14.779,14.781,14.771,14.757,14.752,14.748,14.748,14.72,14.687,14.681,14.682,14.681,14.686,14.678,14.678,14.682,14.688,14.686,14.68,14.672,14.676,14.683,14.681,14.666,14.644,14.626,14.665,14.797,14.904,15.119,15.346,15.506,15.365,14.654,14.63,14.662,14.627,14.651,14.62,14.651,14.628,14.657,14.629,14.646,14.63,14.657,14.633,14.639,14.623,14.644,14.633,14.65,14.624,14.635,14.621,14.64,14.629,14.634,14.61,14.62,14.617,14.631,14.611,14.614,14.607,14.625,14.633,14.639,14.646,14.658,14.651,14.673,14.676,14.701,14.718,14.715,14.706,14.704,14.698,14.689,14.675,14.682,14.669,14.644,14.608,14.608,14.61,14.605,14.599,14.98,14.972,14.911,14.91,14.865,14.857,14.79,14.791,14.745,14.748,14.703,14.706,14.671,14.689,14.666,14.67,14.644,14.666,14.648,14.67,14.643,14.656,14.643,14.662,14.647,14.657,14.631,14.641,14.633,14.649,14.637,14.633,14.62,14.636,14.634,14.643,14.631,14.639,14.638,14.656,14.647,14.644,14.639,14.646,14.647,14.658,14.645,14.646,14.647,14.658,14.663,14.655,14.653,14.658,14.662,14.666,14.658,14.652,14.653,14.655,14.658,14.657,14.648,14.648,14.652,14.657,14.654,14.645,14.643,14.645,14.651,14.645,14.641,14.634,14.639,14.647,14.647,14.634,14.632,14.635,14.641,14.638,14.633,14.625,14.626,14.628,14.634,14.619,14.619,14.621,14.631,14.629,14.626,14.621,14.629,14.633,14.642,14.633,14.633,14.629,14.637,14.637,14.642,14.634,14.634,14.637,14.648,14.638,14.638,14.626,14.637,14.639,14.638,14.628,14.633,14.632,14.642,14.637,14.629,14.624,14.625,14.631,14.641,14.631,14.626,14.626,14.632,14.634,14.627,14.624,14.634,14.64,14.656,14.664,14.663,14.655,14.667,14.68,14.683,14.704,14.716,14.697,14.7,14.689,14.674,14.66,14.663,14.666,14.657,14.623,14.596,14.595,14.601,14.595,14.587,14.58,14.587,14.589,14.594,14.585,14.578,14.579,14.587,14.592,14.576,14.552,14.534,14.541,14.636,14.824,15.042,15.268,15.434,15.268,15.049,14.907,14.829,14.578,14.428,14.449,14.427,14.493,14.56,14.633,14.646,14.661,14.655,14.671,14.667,14.68,14.666,14.679,14.681,14.697,14.697,14.706,14.701,14.713,14.722,14.733,14.725,14.732,14.735,14.76,14.768,14.779,14.774,14.786,14.801,14.813,14.814,14.831,14.848,14.87,14.888,14.897,14.904,14.922,14.947,14.981,15,15.017,15.033,15.058,15.079,15.093,15.097,15.102,15.112,15.126,15.12,15.108,15.092,15.078,15.072,15.043,15.003,14.959,14.928,14.895,14.862,14.823,14.787,14.758,14.738,14.717,14.688,14.667,14.661,14.657,14.655,14.64,14.632,14.629,14.63,14.634,14.626,14.617,14.616,14.616,14.622,14.612,14.603,14.589,14.594,14.593,14.584,14.569,14.561,14.561,14.574,14.575,14.574,14.574,14.585,14.594,14.598,14.595,14.593,14.599,14.606,14.611,14.608,14.601,14.603,14.615,14.617,14.611,14.612,14.611,14.618,14.62,14.623,14.614,14.612,14.615,14.623,14.623,14.617,14.614,14.619,14.626,14.622,14.61,14.61,14.614,14.618,14.618,14.608,14.606,14.614,14.618,14.621,14.613,14.614,14.616,14.621,14.622,14.614,14.611,14.613,14.619,14.622,14.616,14.609,14.617,14.62,14.62,14.612,14.609,14.61,14.613,14.621,14.616,14.606,14.602,14.604,14.613,14.612,14.603,14.606,14.615,14.622,14.614,14.609,14.611,14.613,14.621,14.618,14.613,14.61,14.612,14.621,14.622,14.614,14.612,14.615,14.625,14.627,14.621,14.614,14.615,14.623,14.624,14.618,14.615,14.62,14.623,14.626,14.623,14.622,14.62,14.624,14.626,14.626,14.621,14.631,14.638,14.649,14.657,14.661,14.661,14.671,14.693,14.705,14.722,14.732,14.724,14.717,14.719,14.698,14.684,14.683,14.69,14.688,14.656,14.621,14.617,14.618,14.618,14.609,14.599,14.601,14.61,14.609,14.599,14.598,14.596,14.6,14.607,14.602,14.586,14.557,14.55,14.603,14.739,14.971,15.181,15.393,15.44,15.13,14.978,14.848,14.588,14.471,14.47,14.464,14.47,14.555,14.61,14.662,14.681,14.701,14.71,14.719,14.722,14.711,14.709,14.715,14.73,14.738,14.735,14.737,14.743,14.752,14.758,14.762,14.77,14.781,14.793,14.811,14.815,14.813,14.818,14.832,14.854,14.859,14.871,14.891,14.906,14.933,14.949,14.964,14.977,14.987,15.026,15.049,15.064,15.078,15.102,15.124,15.141,15.145,15.151,15.166,15.174,15.176,15.166,15.15,15.14,15.123,15.097,15.054,15.03,14.996,14.959,14.934,14.893,14.852,14.822,14.802,14.784,14.758,14.733,14.718,14.711,14.708,14.687,14.67,14.659,14.66,14.658,14.653,14.642,14.636,14.636,14.636,14.629,14.611,14.601,14.594,14.601,14.593,14.585,14.577,14.58,14.584,14.582,14.58,14.58,14.582,14.582,14.584,14.575,14.573,14.566,14.569,14.568,14.562,14.551,14.555,14.56,14.565,14.571,14.567,14.579,14.583,14.594,14.592,14.592,14.591,14.595,14.606,14.605,14.598,14.597,14.597,14.605,14.607,14.6,14.598,14.603,14.612,14.614,14.606,14.601,14.603,14.609,14.612,14.602,14.603,14.604,14.613,14.616,14.612,14.603,14.608,14.612,14.62,14.612,14.61,14.612,14.617,14.625,14.62,14.611,14.615,14.624,14.628,14.626,14.624,14.623,14.625,14.634,14.632,14.628,14.627,14.634,14.638,14.646,14.64,14.637,14.637,14.645,14.651,14.646,14.645,14.651,14.65,14.638,14.626,14.613,14.617,14.62,14.623,14.622,14.618,14.623,14.631,14.633,14.63,14.622,14.624,14.63,14.636,14.628,14.626,14.626,14.628,14.637,14.633,14.631,14.628,14.634,14.64,14.637,14.631,14.633,14.637,14.644,14.656,14.66,14.667,14.675,14.682,14.693,14.7,14.711,14.725,14.729,14.718,14.713,14.69,14.683,14.684,14.689,14.684,14.657,14.631,14.629,14.631,14.626,14.618,14.623,14.631,14.633,14.64,14.63,14.628,14.627,14.636,14.636,14.632,14.622,14.6,14.587,14.604,14.714,14.931,15.148,15.382,15.497,15.218,15.026,14.892,14.821,14.584,14.472,14.5,14.48,14.572,14.632,14.712,14.728,14.767,14.769,14.796,14.783,14.788,14.785,14.801,14.803,14.818,14.812,14.816,14.819,14.836,14.833,14.84,14.843,14.864,14.876,14.886,14.887,14.889,14.899,14.919,14.925,14.935,14.942,14.959,14.975,14.993,14.994,15.013,15.033,15.06,15.082,15.096,15.11,15.132,15.158,15.18,15.187,15.19,15.2,15.21,15.216,15.215,15.208,15.2,15.194,15.178,15.162,15.126,15.091,15.06,15.028,14.99,14.944,14.9,14.873,14.849,14.826,14.797,14.781,14.767,14.766,14.752,14.74,14.725,14.728,14.728,14.731,14.723,14.716,14.716,14.722,14.725,14.716,14.704,14.704,14.703,14.703,14.69,14.683,14.676,14.682,14.678,14.673,14.668,14.668,14.675,14.697,14.7,14.702,14.703,14.712,14.724,14.73,14.727,14.729,14.739,14.747,14.748,14.75,14.748,14.756,14.764,14.765,14.762,14.758,14.755,14.765,14.766,14.762,14.755,14.761,14.768,14.775,14.769,14.768,14.768,14.775,14.775,14.774,14.771,14.773,14.78,14.785,14.781,14.777,14.776,14.78,14.786,14.786,14.778,14.777,14.779,14.786,14.782,14.779,14.771,14.774,14.779,14.775,14.768,14.764,14.768,14.773,14.776,14.771,14.769,14.766,14.777,14.778,14.772,14.768,14.771,14.773,14.779,14.77,14.767,14.768,14.767,14.773,14.763,14.757,14.759,14.76,14.767,14.76,14.751,14.739,14.75,14.757,14.755,14.744,14.739,14.743,14.744,14.742,14.734,14.735,14.742,14.751,14.749,14.746,14.741,14.738,14.747,14.755,14.749,14.745,14.751,14.756,14.77,14.77,14.779,14.783,14.792,14.804,14.809,14.826,14.845,14.834,14.833,14.832,14.811,14.795,14.793,14.788,14.783,14.752,14.73,14.723,14.731,14.726,14.716,14.709,14.718,14.725,14.729,14.724,14.715,14.711,14.722,14.725,14.711,14.698,14.685,14.667,14.675,14.763,14.967,15.187,15.431,15.568,15.334,15.114,14.955,14.781,14.61,14.578,14.597,14.554,14.595,14.663,14.721,14.748,14.767,14.781,14.791,14.784,14.788,14.782,14.799,14.801,14.811,14.799,14.805,14.814,14.832,14.827,14.831,14.823,14.832,14.84,14.854,14.845,14.851,14.859,14.878,14.882,14.887,14.897,14.912,14.931,14.95,14.958,14.973,14.991,15.022,15.04,15.05,15.068,15.084,15.116,15.131,15.151,15.151,15.165,15.177,15.19,15.192,15.182,15.174,15.168,15.153,15.122,15.081,15.048,15.025,15.001,14.967,14.93,14.882,14.861,14.839,14.819,14.791,14.762,14.749,14.738,14.731,14.714,14.693,14.697,14.695,14.696,14.683,14.687,14.677,14.68,14.678,14.682,14.664,14.661,14.667,14.676,14.664,14.653,14.646,14.653,14.65,14.647,14.637,14.648,14.654,14.661,14.657,14.651,14.638,14.64,14.647,14.649,14.642,14.639,14.644,14.645,14.651,14.641,14.643,14.643,14.648,14.652,14.642,14.641,14.643,14.646,14.66,14.651,14.643,14.65,14.653,14.671,14.659,14.653,14.648,14.658,14.658,14.658,14.652,14.636,14.639,14.647,14.646,14.635,14.638,14.64,14.649,14.65,14.641,14.634,14.633,14.646,14.65,14.641,14.638,14.64,14.651,14.659,14.652,14.643,14.646,14.653,14.656,14.648,14.645,14.645,14.657,14.669,14.664,14.658,14.656,14.666,14.677,14.672,14.662,14.653,14.665,14.671,14.67,14.668,14.675,14.695,14.715,14.723,14.708,14.704,14.719,14.741,14.768,14.774,14.757,14.751,14.758,14.75,14.733,14.721,14.724,14.718,14.694,14.67,14.661,14.66,14.667,14.677,14.672,14.664,14.664,14.668,14.68,14.675,14.671,14.667,14.676,14.68,14.662,14.624,14.613,14.659,14.819,15.058,15.277,15.394,15.508,15.337,15.112,14.917,14.715,14.594,14.623,14.627,14.55,14.58,14.642,14.717,14.748,14.765,14.764,14.779,14.782,14.793,14.784,14.785,14.782,14.802,14.804,14.805,14.797,14.799,14.81,14.831,14.828,14.831,14.838,14.855,14.867,14.873,14.867,14.879,14.895,14.921,14.927,14.931,14.941,14.961,14.988,15.01,15.021,15.037,15.064,15.095,15.119,15.13,15.146,15.164,15.188,15.203,15.202,15.207,15.213,15.216,15.22,15.203,15.182,15.158,15.138,15.108,15.069,15.023,14.982,14.951,14.926,14.889,14.858,14.828,14.818,14.804,14.786,14.768,14.765,14.757,14.76,14.748,14.74,14.731,14.733,14.735,14.734,14.722,14.714,14.717,14.721,14.723,14.707,14.703,14.706,14.713,14.711,14.708,14.701,14.699,14.71,14.718,14.711,14.704,14.705,14.711,14.718,14.713,14.707,14.71,14.721,14.726,14.724,14.719,14.72,14.728,14.733,14.731,14.726,14.721,14.73,14.738,14.737,14.73,14.723,14.721,14.731,14.729,14.719,14.715,14.72,14.729,14.729,14.718,14.718,14.725,14.727,14.732,14.726,14.721,14.719,14.724,14.727,14.722,14.713,14.713,14.717,14.722,14.716,14.712,14.707,14.713,14.716,14.712,14.703,14.702,14.707,14.716,14.714,14.703,14.701,14.703,14.711,14.708,14.702,14.701,14.706,14.718,14.714,14.708,14.705,14.71,14.712,14.717,14.712,14.708,14.712,14.725,14.738,14.74,14.748,14.755,14.755,14.761,14.767,14.765,14.792,14.812,14.805,14.792,14.777,14.773,14.772,14.771,14.772,14.758,14.739,14.715,14.705,14.701,14.689,14.692,14.691,14.699,14.697,14.691,14.689,14.698,14.701,14.7,14.691,14.676,14.666,14.657,14.649,14.701,14.842,15.076,15.299,15.507,15.519,15.23,15.101,14.954,14.652,14.523,14.519,14.535,14.609,14.688,14.732,14.749,14.75,14.766,14.779,14.784,14.78,14.784,14.79,14.805,14.809,14.811,14.816,14.829,14.84,14.846,14.84,14.845,14.86,14.876,14.88,14.88,14.886,14.896,14.907,14.925,14.926,14.927,14.943,14.965,14.984,14.993,15.005,15.023,15.049,15.075,15.089,15.106,15.126,15.154,15.169,15.181,15.193,15.198,15.215,15.227,15.236,15.222,15.212,15.205,15.195,15.165,15.127,15.085,15.053,15.022,14.983,14.941,14.906,14.89,14.869,14.849,14.818,14.789,14.782,14.771,14.771,14.755,14.748,14.74,14.743,14.747,14.737,14.733,14.736,14.733,14.738,14.732,14.73,14.717,14.719,14.724,14.724,14.715,14.708,14.712,14.722,14.719,14.712,14.716,14.722,14.732,14.735,14.729,14.73,14.735,14.744,14.746,14.742,14.737,14.741,14.747,14.754,14.747,14.748,14.749,14.757,14.762,14.752,14.753,14.754,14.759,14.764,14.76,14.755,14.757,14.765,14.77,14.767,14.76,14.761,14.766,14.772,14.775,14.768,14.768,14.771,14.784,14.784,14.777,14.773,14.779,14.785,14.79,14.779,14.779,14.779,14.788,14.791,14.782,14.778,14.778,14.786,14.784,14.781,14.776,14.776,14.78,14.788,14.783,14.777,14.778,14.784,14.787,14.781,14.779,14.774,14.782,14.79,14.786,14.778,14.777,14.781,14.787,14.781,14.775,14.773,14.778,14.785,14.783,14.778,14.774,14.78,14.787,14.784,14.781,14.775,14.778,14.784,14.795,14.788,14.789,14.787,14.798,14.798,14.789,14.788,14.792,14.803,14.811,14.813,14.819,14.835,14.836,14.84,14.85,14.852,14.871,14.901,14.902,14.886,14.874,14.862,14.857,14.861,14.857,14.845,14.823,14.795,14.794,14.787,14.776,14.777,14.779,14.783,14.788,14.779,14.776,14.778,14.783,14.787,14.778,14.774,14.767,14.756,14.741,14.74,14.843,15.058,15.286,15.517,15.65,15.588,15.287,15.151,15.032,14.745,14.626,14.63,14.64,14.708,14.778,14.823,14.847,14.862,14.879,14.874,14.877,14.881,14.887,14.896,14.904,14.902,14.907,14.907,14.925,14.932,14.935,14.938,14.958,14.977,14.993,14.992,14.998,15.004,15.018,15.031,15.035,15.037,15.057,15.064,15.086,15.099,15.113,15.131,15.156,15.185,15.205,15.218,15.236,15.264,15.288,15.299,15.299,15.302,15.319,15.334,15.336,15.327,15.324,15.321,15.321,15.307,15.275,15.244,15.208,15.186,15.153,15.11,15.069,15.041,15.022,14.999,14.968,14.942,14.929,14.92,14.908,14.901,14.888,14.88,14.875,14.882,14.876,14.868,14.861,14.867,14.866,14.85,14.827,14.812,14.806,14.804,14.798,14.79,14.78,14.786,14.788,14.789,14.78,14.775,14.774,14.783,14.79,14.787,14.792,14.803,14.811,14.819,14.817,14.814,14.819,14.829,14.836,14.83,14.829,14.838,14.841,14.844,14.847,14.841,14.843,14.85,14.855,14.853,14.844,14.848,14.852,14.86,14.854,14.849,14.844,14.851,14.857,14.852,14.849,14.846,14.849,14.85,14.85,14.846,14.838,14.843,14.847,14.846,14.839,14.833,14.837,14.841,14.844,14.842,14.833,14.827,14.836,14.835,14.828,14.822,14.818,14.82,14.825,14.818,14.815,14.81,14.813,14.822,14.816,14.809,14.808,14.813,14.818,14.815,14.808,14.808,14.81,14.812,14.813,14.805,14.801,14.802,14.81,14.805,14.796,14.793,14.79,14.796,14.794,14.786,14.786,14.791,14.787,14.792,14.784,14.775,14.78,14.779,14.782,14.783,14.772,14.772,14.775,14.778,14.771,14.761,14.759,14.765,14.769,14.763,14.761,14.769,14.783,14.802,14.797,14.797,14.806,14.824,14.858,14.875,14.85,14.841,14.838,14.835,14.826,14.811,14.809,14.795,14.774,14.746,14.736,14.727,14.728,14.734,14.735,14.73,14.728,14.725,14.729,14.737,14.732,14.723,14.72,14.724,14.719,14.69,14.678,14.715,14.862,15.097,15.31,15.512,15.567,15.257,15.167,15.032,14.857,14.627,14.559,14.586,14.578,14.668,14.699,14.769,14.794,14.832,14.826,14.841,14.837,14.851,14.84,14.845,14.836,14.849,14.846,14.858,14.844,14.851,14.85,14.868,14.877,14.887,14.885,14.89,14.895,14.907,14.902,14.904,14.909,14.931,14.944,14.952,14.953,14.966,14.986,15.008,15.025,15.038,15.054,15.076,15.101,15.119,15.132,15.145,15.164,15.182,15.195,15.201,15.2,15.21,15.217,15.21,15.204,15.181,15.16,15.136,15.109,15.068,15.025,14.99,14.963,14.934,14.905,14.871,14.848,14.833,14.827,14.807,14.791,14.78,14.779,14.777,14.774,14.764,14.759,14.759,14.763,14.763,14.752,14.748,14.752,14.753,14.754,14.744,14.744,14.74,14.75,14.748,14.744,14.742,14.747,14.757,14.763,14.761,14.759,14.758,14.764,14.77,14.765,14.759,14.758,14.762,14.768,14.757,14.753,14.751,14.757,14.759,14.75,14.746,14.743,14.743,14.749,14.745,14.735,14.732,14.447,14.423,14.435,14.392,14.39,14.423,14.6,14.825,15.065,15.23,15.227,14.946,14.801,14.64,14.394,14.3,14.327,14.301,14.304,14.354,14.418,14.457,14.493,14.496,14.509,14.496,14.511,14.513,14.529,14.523,14.528,14.526,14.546,14.553,14.559,14.551,14.559,14.564,14.583,14.585,14.886,14.927,14.931,14.966,14.966,15,15.013,15.052,15.055,15.084,15.092,15.127,15.128,15.146,15.137,15.156,15.15,15.168,15.148,15.139,15.111,15.097,15.064,15.041,14.99,14.953,14.897,14.653,14.636,14.66,14.631,14.65,14.626,14.656,14.64,14.652,14.63,14.651,14.635,14.657,14.641,14.649,14.631,14.65,14.646,14.661,14.642,14.653,14.644,14.661,14.652,14.658,14.644,14.663,14.657,14.666,14.652,14.652,14.652,14.659,14.647,14.645,14.641,14.639,14.636,14.766,14.775,14.783,14.807,14.817,14.822,14.822,14.836,14.843,14.861,14.856,14.87,14.875,14.897,14.908,14.926,14.934,14.955,14.977,15.009,15.022,15.044,15.058,15.093,15.116,15.142,15.149,15.174,15.187,15.202,15.21,15.218,15.21,15.215,15.21,15.207,15.178,15.157,15.12,15.099,15.06,15.021,14.977,14.949,14.915,14.894,14.856,14.831,14.806,14.824,14.832,14.838,14.83,14.838,14.845,14.864,14.864,14.867,14.867,14.874,14.884,14.895,14.895,14.9,14.905,14.922,14.929,14.936,14.938,14.953,14.973,14.987,14.995,15.013,15.028,15.06,15.069,15.087,15.102,15.123,15.147,15.179,15.197,15.21,15.225,15.249,15.267,15.273,15.276,15.283,15.292,15.287,15.273,15.249,15.217,15.201,15.173,15.134,15.088,15.046,15.009,14.82,14.805,14.803,14.789,14.802,14.791,14.796,14.78,14.782,14.785,14.8,14.793,14.793,14.782,14.788,14.786,14.794,14.78,14.777,14.773,14.788,14.783,14.784,14.771,14.763,14.763,14.77,14.764,14.771,14.77,14.782,14.79,14.787,14.784,14.786,14.793,14.835,14.837,14.837,14.836,14.828,14.829,14.832,14.843,14.838,14.832,14.83,14.841,14.839,14.836,14.827,14.829,14.831,14.84,14.833,14.832,14.824,14.832,14.834,14.84,14.83,14.828,14.823,14.837,14.833,14.828,14.82,14.824,14.824,14.828,14.922,14.936,14.912,14.915,14.906,14.908,14.886,14.886,14.874,14.87,14.846,14.822,14.801,14.802,14.796,14.804,14.802,14.794,14.784,14.795,14.794,14.799,14.785,14.787,14.784,14.789,14.762,14.75,14.737,14.801,14.973,15.215,15.424,15.611,15.566,15.291,15.15,14.996,14.717,14.62,14.638,14.649,14.717,14.777,14.829,14.856,14.863,14.873,14.868,14.873,14.884,14.89,14.893,14.892,14.895,14.908,14.922,14.929,14.928,14.934,14.944,14.962,14.978,14.981,14.986,14.992,15.006,15.02,15.022,15.024,15.041,15.054,15.142,15.112,15.073,15.041,15.002,14.987,14.969,14.953,14.932,14.924,14.914,14.916,14.916,14.906,14.894,14.898,14.898,14.902,14.891,14.873,14.863,14.861,14.856,14.851,14.837,14.84,14.834,14.836,14.828,14.827,14.823,14.831,14.836,14.835,14.832,14.821,14.829,14.831,14.83,14.821,14.816,14.82,14.823,14.823,14.824,14.822,14.826,14.841,14.845,14.838,14.838,14.833,14.844,14.851,14.851,14.845,14.852,14.859,14.864,14.863,14.859,14.859,14.868,14.87,14.87,14.862,14.867,14.872,14.881,14.877,14.876,14.871,14.877,14.883,14.887,14.881,14.88,14.882,14.893,14.894,14.892,14.889,14.897,14.899,14.905,14.897,14.9,14.902,14.907,14.913,14.911,14.908,14.908,14.915,14.918,14.912,14.907,14.907,14.914,14.923,14.921,14.914,14.918,14.921,14.928,14.921,14.922,14.92,14.923,15.35,15.387,15.344,15.358,15.32,15.327,15.273,15.256,15.193,15.181,15.132,15.12,15.062,15.049,15.02,15.017,14.988,14.982,14.944,14.943,14.928,14.946,14.921,14.925,14.911,14.92,14.913,14.916,14.902,14.908,14.901,14.909,14.896,14.897,14.887,14.894,14.901,14.903,14.896,14.892,14.893,14.902,14.908,14.899,14.897,14.905,14.912,14.916,14.911,14.905,14.911,14.915,14.919,14.917,14.911,14.912,14.926,14.923,14.923,14.911,14.912,14.914,14.922,14.909,14.905,14.895,14.904,14.906,14.902,14.888,14.887,14.886,14.895,14.885,14.882,14.873,14.879,14.881,14.888,14.872,14.873,14.87,14.881,14.874,14.87,14.863,14.871,14.867,14.875,14.863,14.865,14.862,14.873,14.876,14.876,14.866,14.872,14.876,14.885,14.876,14.874,14.87,14.88,14.886,14.885,14.878,14.882,14.886,14.896,14.891,14.892,14.871,14.876,14.879,14.876,14.861,14.837,14.84,14.94,15.139,15.352,15.569,15.67,15.444,15.216,15.023,14.819,14.682,14.699,14.695,14.634,14.661,14.721,14.791,14.812,14.839,14.846,14.846,14.853,14.872,14.882,14.887,14.879,14.891,14.901,14.914,14.913,14.917,14.923,14.935,14.943,14.945,14.958,14.96,14.973,14.992,14.997,15.007,15.018,15.041,15.053,15.075,15.088,15.107,15.124,15.159,15.176,15.203,15.215,15.242,15.273,15.297,15.312,15.322,15.35,15.369,15.39,15.39,15.393,15.398,15.404,15.401,15.384,15.354,15.326,15.299,15.27,15.225,15.182,15.149,15.118,15.1,15.076,15.033,14.99,14.959,14.937,14.915,14.875,14.863,14.848,14.843,14.825,14.816,14.802,14.81,14.814,14.814,14.81,14.811,14.819,14.826,14.827,14.826,14.812,14.815,14.814,14.813,14.799,14.793,14.784,14.784,14.784,14.776,14.764,14.764,14.76,14.751,14.735,14.725,14.722,14.73,14.74,14.734,14.73,14.732,14.74,14.754,14.763,14.763,14.774,14.785,14.8,14.799,14.792,14.794,14.8,14.807,14.805,14.802,14.799,14.799,14.8,14.799,14.79,14.783,14.782,14.79,14.792,14.783,14.781,14.781,14.784,14.783,14.78,14.78,14.794,14.808,14.815,14.832,14.823,14.812,14.821,14.832,14.832,14.834,14.86,14.857,14.852,14.851,14.843,14.836,14.832,14.83,14.813,14.787,14.769,14.768,14.77,14.774,14.769,14.77,14.778,14.788,14.791,14.787,14.786,14.792,14.806,14.805,14.794,14.774,14.75,14.753,14.831,15.009,15.24,15.357,15.575,15.659,15.414,15.225,15.048,14.82,14.72,14.746,14.699,14.679,14.752,14.81,14.853,14.868,14.877,14.887,14.894,14.894,14.887,14.888,14.891,14.902,14.905,14.903,14.905,14.918,14.929,14.934,14.931,14.932,14.942,14.956,14.962,14.967,14.973,14.991,15.013,15.024,15.032,15.049,15.069,15.095,15.121,15.136,15.152,15.177,15.208,15.24,15.256,15.271,15.295,15.313,15.335,15.343,15.349,15.356,15.36,15.372,15.369,15.35,15.336,15.317,15.295,15.263,15.211,15.163,15.125,15.091,15.054,15.01,14.978,14.952,14.935,14.913,14.894,14.882,14.877,14.873,14.869,14.858,14.851,14.847,14.855,14.859,14.853,14.847,14.851,14.86,14.867,14.865,14.862,14.862,14.874,14.878,14.877,14.874,14.873,14.879,14.89,14.889,14.887,14.887,14.894,14.903,14.901,14.894,14.894,14.897,14.906,14.903,14.898,14.893,14.898,14.901,14.9,14.89,14.881,14.878,14.875,14.876,14.871,14.864,14.862,14.87,14.873,14.864,14.86,14.856,14.865,14.869,14.862,14.856,14.857,14.86,14.867,14.863,14.856,14.853,14.858,14.866,14.866,14.863,14.861,14.87,14.852,14.844,14.917,15.096,15.338,15.56,15.737,15.647,15.406,15.271,15.104,14.812,14.72,14.738,14.753,14.848,14.899,14.948,14.964,14.975,14.985,14.985,14.98,14.985,14.99,15.001,14.997,14.997,15,15.012,15.019,15.017,15.011,15.016,15.026,15.037,15.039,15.042,15.044,15.059,15.075,15.086,15.09,15.098,15.115,15.134,15.154,15.166,15.18,15.204,15.233,15.256,15.271,15.293,15.317,15.346,15.364,15.369,15.381,15.397,15.412,15.426,15.428,15.423,15.424,15.421,15.411,15.4,15.365,15.314,15.28,15.251,15.207,15.166,15.137,15.11,15.098,15.07,15.04,15.019,15.005,14.999,14.984,14.968,14.954,14.954,14.953,14.945,14.935,14.935,14.937,14.937,14.933,14.93,14.928,14.929,14.936,14.941,14.936,14.932,14.931,14.937,14.945,14.94,14.939,14.943,14.951,14.958,14.957,14.955,14.958,14.965,14.969,14.963,14.959,14.959,14.967,14.974,14.974,14.968,14.968,14.973,14.977,14.976,14.974,14.968,14.973,14.977,14.976,14.968,14.966,14.973,14.977,14.98,14.974,14.968,14.968,14.975,14.978,14.973,14.97,14.97,14.977,14.979,14.936,14.935,14.934,14.925,14.927,14.929,14.93,14.921,14.9,14.872,14.891,15.003,15.216,15.433,15.657,15.786,15.568,15.378,15.223,15.001,14.808,14.773,14.785,14.79,14.887,14.934,14.975,14.993,15.016,15.006,15.016,15.018,15.033,15.023,15.028,15.031,15.049,15.057,15.062,15.061,15.077,15.081,15.086,15.081,15.095,15.096,15.111,15.118,15.125,15.13,15.148,15.163,15.179,15.188,15.2,15.219,15.244,15.26,15.274,15.293,15.317,15.341,15.361,15.377,15.384,15.4,15.423,15.437,15.445,15.447,15.452,15.459,15.462,15.448,15.43,15.411,15.385,15.357,15.315,15.275,15.236,15.21,15.181,15.166,15.129,15.107,15.093,15.087,15.074,15.055,15.04,15.038,15.039,15.031,15.023,15.016,15.014,15.02,15.017,15.007,14.994,14.994,14.993,14.997,14.988,14.987,14.986,14.989,14.999,14.996,14.994,14.998,15.01,15.02,15.015,15.016,15.02,15.032,15.036,15.036,15.027,15.031,15.037,15.047,15.046,15.044,15.04,15.049,15.057,15.06,15.051,15.053,15.054,15.062,15.057,15.05,15.049,15.057,15.06,15.061,15.057,15.053,15.055,15.063,15.069,15.067,15.066,15.068,15.075,15.083,15.076,15.075,15.075,15.08,15.087,15.083,15.077,15.079,15.084,15.084,15.077,15.071,15.067,15.07,15.077,15.073,15.065,15.066,15.07,15.08,15.08,15.075,15.081,15.087,15.099,15.099,15.095,15.1,15.104,15.106,15.112,15.106,15.102,15.104,15.109,15.111,15.1,15.1,15.101,15.104,15.106,15.1,15.095,15.097,15.103,15.105,15.332,15.357,15.353,15.388,15.4,15.438,15.44,15.468,15.478,15.518,15.527,15.552,15.546,15.569,15.578,15.601,15.601,15.601,15.592,15.597,15.584,15.571,15.537,15.507,15.472,15.446,15.406,15.366,15.33,15.304,15.28,15.269,15.239,15.213,15.198,15.191,15.183,15.165,15.155,15.152,15.151,15.15,15.141,15.132,15.131,15.136,15.137,15.13,15.127,15.126,15.129,15.134,15.135,15.124,15.125,15.126,15.136,15.133,15.13,15.125,15.136,15.142,15.145,15.138,15.142,15.145,15.152,15.146,15.142,15.137,15.141,15.143,15.157,15.153,15.154,15.155,15.161,15.158,15.156,15.145,15.153,15.158,15.154,15.149,15.151,15.152,15.159,15.163,15.159,15.149,15.148,15.149,15.159,15.156,15.151,15.147,15.153,15.159,15.156,15.148,15.151,15.153,15.162,15.16,15.154,15.149,15.151,15.153,15.153,15.146,15.147,15.146,15.156,15.161,15.154,15.154,15.15,15.156,15.155,15.148,15.146,15.144,15.156,15.158,15.153,15.147,15.144,15.145,15.156,15.151,15.145,15.141,15.149,15.158,15.154,15.15,15.15,15.152,15.156,15.151,15.146,15.149,15.15,15.163,15.156,15.15,15.145,15.151,15.158,15.167,15.164,15.167,15.179,15.201,15.192,15.184,15.199,15.212,15.246,15.265,15.243,15.23,15.228,15.234,15.219,15.212,15.205,15.192,15.18,15.151,15.138,15.129,15.129,15.141,15.142,15.135,15.13,15.132,15.135,15.138,15.128,15.128,15.133,15.132,15.129,15.105,15.072,15.074,15.176,15.394,15.613,15.842,15.949,15.725,15.527,15.349,15.146,15.01,15.014,15.016,14.966,15.008,15.06,15.092,15.134,15.159,15.152,15.157,15.145,15.163,15.166,15.172,15.155,15.158,15.16,15.172,15.162,15.169,15.169,15.181,15.188,15.202,15.202,15.207,15.216,15.239,15.243,15.248,15.255,15.277,15.299,15.308,15.312,15.328,15.338,15.37,15.385,15.393,15.414,15.438,15.46,15.478,15.484,15.494,15.514,15.533,15.549,15.547,15.543,15.546,15.552,15.546,15.523,15.494,15.474,15.446,15.42,15.379,15.343,15.309,15.287,15.276,15.249,15.213,15.193,15.176,15.167,15.149,15.136,15.122,15.123,15.124,15.116,15.104,15.104,15.104,15.112,15.104,15.095,15.091,15.094,15.097,15.099,15.089,15.083,15.083,15.09,15.09,15.08,15.076,15.084,15.093,15.102,15.093,15.089,15.088,15.099,15.1,15.093,15.09,15.087,15.09,15.095,15.09,15.084,15.078,15.084,15.09,15.089,15.078,15.078,15.077,15.081,15.072,15.059,15.053,15.056,15.059,15.06,15.048,15.04,15.038,15.042,15.039,15.027,15.02,15.023,15.024,15.025,15.017,15.014,15.013,15.022,15.025,15.022,15.012,15.014,15.018,15.019,15.015,15.006,15.005,15.01,15.015,15.008,15.002,14.999,15.006,15.014,15.009,15.002,15.004,15.012,15.022,15.018,15.013,15.013,15.018,15.025,15.036,15.036,15.043,15.059,15.077,15.085,15.07,15.069,15.086,15.095,15.124,15.134,15.119,15.117,15.127,15.123,15.107,15.097,15.097,15.089,15.079,15.044,15.026,15.022,15.027,15.036,15.032,15.026,15.025,15.029,15.032,15.028,15.02,15.022,15.028,15.024,15.016,14.985,14.96,14.996,15.128,15.354,15.559,15.772,15.847,15.588,15.436,15.281,15.01,14.879,14.891,14.871,14.882,14.968,15.02,15.055,15.071,15.081,15.074,15.086,15.094,15.106,15.097,15.098,15.103,15.116,15.123,15.129,15.128,15.139,15.148,15.161,15.16,15.164,15.166,15.177,15.188,15.194,15.196,15.203,15.217,15.235,15.243,15.253,15.266,15.29,15.313,15.333,15.347,15.366,15.39,15.417,15.435,15.446,15.453,15.469,15.488,15.503,15.509,15.508,15.513,15.519,15.518,15.498,15.477,15.452,15.432,15.401,15.358,15.317,15.285,15.255,15.228,15.208,15.18,15.149,15.14,15.125,15.111,15.091,15.085,15.078,15.084,15.075,15.067,15.063,15.063,15.065,15.063,15.052,15.052,15.048,15.05,15.049,15.044,15.036,15.041,15.045,15.05,15.044,15.044,15.045,15.056,15.056,15.05,15.044,15.046,15.055,15.056,15.05,15.049,15.051,15.058,15.065,15.063,15.058,15.058,15.06,15.065,15.067,15.059,15.058,15.066,15.074,15.067,15.063,15.059,15.062,15.07,15.069,15.066,15.063,15.063,15.074,15.077,15.068,15.065,15.068,15.074,15.075,15.066,15.06,15.063,15.069,15.073,15.064,15.062,15.066,15.07,15.074,15.069,15.065,15.067,15.076,15.079,15.076,15.068,15.068,15.07,15.076,15.069,15.06,15.06,15.065,15.069,15.069,15.061,15.064,15.067,15.073,15.074,15.064,15.061,15.066,15.076,15.076,15.066,15.065,15.068,15.075,15.075,15.071,15.068,15.073,15.078,15.08,15.077,15.076,15.077,15.083,15.089,15.084,15.081,15.083,15.087,15.093,15.092,15.093,15.097,15.115,15.133,15.132,15.119,15.123,15.141,15.157,15.18,15.187,15.17,15.165,15.171,15.16,15.145,15.135,15.14,15.142,15.116,15.082,15.073,15.069,15.073,15.075,15.066,15.062,15.065,15.072,15.071,15.065,15.058,15.061,15.069,15.068,15.05,15.022,15.011,15.073,15.228,15.455,15.663,15.867,15.873,15.587,15.446,15.304,15.02,14.945,14.925,14.918,14.94,15.022,15.082,15.123,15.14,15.138,15.144,15.145,15.159,15.157,15.16,15.156,15.169,15.179,15.192,15.188,15.191,15.196,15.208,15.214,15.22,15.221,15.235,15.249,15.262,15.259,15.262,15.271,15.29,15.304,15.317,15.326,15.346,15.367,15.393,15.401,15.411,15.43,15.458,15.484,15.505,15.519,15.537,15.548,15.561,15.56,15.56,15.566,15.573,15.576,15.568,15.551,15.532,15.515,15.492,15.474,15.434,15.39,15.358,15.328,15.296,15.256,15.227,15.204,15.191,15.176,15.152,15.138,15.132,15.13,15.122,15.103,15.097,15.098,15.097,15.101,15.093,15.083,15.076,15.067,15.059,15.043,15.026,15.023,15.026,15.024,15.018,15.016,15.021,15.031,15.04,15.038,15.032,15.034,15.039,15.05,15.053,15.049,15.047,15.052,15.059,15.066,15.057,15.056,15.061,15.07,15.072,15.065,15.065,15.067,15.073,15.079,15.074,15.068,15.064,15.069,15.074,15.072,15.068,15.07,15.074,15.08,15.074,15.069,15.07,15.079,15.082,15.078,15.074,15.076,15.084,15.088,15.085,15.08,15.078,15.081,15.088,15.087,15.08,15.08,15.081,15.089,15.088,15.079,15.076,15.077,15.081,15.078,15.07,15.071,15.075,15.08,15.087,15.083,15.076,15.078,15.084,15.089,15.089,15.081,15.081,15.084,15.087,15.081,15.077,15.077,15.082,15.086,15.081,15.072,15.07,15.075,15.078,15.077,15.073,15.073,15.078,15.083,15.077,15.077,15.071,15.076,15.087,15.082,15.076,15.074,15.081,15.087,15.082,15.079,15.076,15.083,15.095,15.104,15.106,15.109,15.124,15.127,15.127,15.136,15.141,15.168,15.191,15.176,15.164,15.155,15.143,15.14,15.138,15.135,15.125,15.103,15.075,15.074,15.068,15.063,15.062,15.068,15.076,15.072,15.067,15.063,15.068,15.073,15.068,15.062,15.055,15.05,15.039,15.019,15.029,15.139,15.359,15.581,15.806,15.905,15.637,15.467,15.337,15.109,14.933,14.905,14.913,14.935,15.034,15.067,15.096,15.109,15.137,15.158,15.17,15.158,15.167,15.165,15.18,15.175,15.185,15.185,15.2,15.209,15.218,15.213,15.224,15.238,15.256,15.256,15.259,15.261,15.273,15.287,15.3,15.303,15.312,15.328,15.348,15.365,15.377,15.396,15.425,15.451,15.479,15.494,15.508,15.532,15.563,15.574,15.587,15.593,15.605,15.622,15.629,15.632,15.623,15.618,15.615,15.606,15.578,15.543,15.499,15.465,15.427,15.386,15.345,15.311,15.296,15.275,15.243,15.216,15.193,15.186,15.172,15.166,15.145,15.134,15.126,15.13,15.126,15.115,15.104,15.105,15.106,15.095,15.079,15.071,15.063,15.062,15.059,15.054,15.044,15.034,15.038,15.038,15.03,15.029,15.027,15.031,15.033,15.024,15.022,15.035,15.044,15.06,15.058,15.055,15.052,15.063,15.072,15.077,15.071,15.077,15.081,15.089,15.089,15.086,15.08,15.088,15.093,15.094,15.094,15.086,15.09,15.099,15.1,15.097,15.093,15.095,15.099,15.105,15.097,15.092,15.094,15.099,15.102,15.099,15.093,15.091,15.099,15.105,15.098,15.093,15.093,15.093,15.098,15.098,15.09,15.087,15.095,15.1,15.097,15.092,15.092,15.097,15.104,15.104,15.098,15.096,15.103,15.109,15.108,15.103,15.101,15.105,15.11,15.113,15.108,15.104,15.107,15.114,15.119,15.114,15.111,15.118,15.125,15.129,15.125,15.122,15.127,15.134,15.141,15.137,15.136,15.134,15.144,15.15,15.148,15.146,15.149,15.15,15.157,15.153,15.15,15.15,15.157,15.162,15.163,15.159,15.16,15.162,15.167,15.169,15.167,15.165,15.175,15.185,15.196,15.202,15.214,15.219,15.224,15.236,15.244,15.263,15.288,15.281,15.271,15.262,15.247,15.24,15.24,15.241,15.235,15.211,15.179,15.173,15.173
