3.5468,3.5445,3.5416,3.5337,3.5492,3.5565,3.565,3.5667,3.5538,3.5531,3.5642,3.5703,3.5692,3.5559,3.566,3.5668,3.5778,3.5822,3.5903,3.5963,3.6004,3.6065,3.6067,3.6183,3.625,3.6405,3.6419,3.6615,3.6642,3.6764,3.7034,3.7282,3.7458,3.7658,3.7589,3.783,3.8038,3.8172,3.8205,3.8333,3.8401,3.8515,3.8426,3.8409,3.8265,3.8219,3.8196,3.8057,3.7734,3.7531,3.7241,3.7023,3.675,3.6627,3.6279,3.6225,3.6119,3.6036,3.6056,3.5976,3.5829,3.5785,3.573,3.5591,3.543,3.5543,3.5622,3.5652,3.5563,3.551,3.5564,3.5606,3.5667,3.558,3.5492,3.5428,3.5454,3.5488,3.5475,3.5487,3.5457,3.5581,3.5531,3.5489,3.5432,3.5343,3.542,3.5526,3.5549,3.5527,3.5386,3.5407,3.5401,3.5454,3.5325,3.5306,3.5424,3.5269,3.5383,3.5294,3.5267,3.5372,3.5316,3.5345,3.5267,3.5232,3.5291,3.5379,3.5327,3.5334,3.53,3.5328,3.5351,3.5375,3.5359,3.5373,3.5273,3.5483,3.5541,3.5481,3.547,3.5574,3.5651,3.561,3.5644,3.5811,3.5864,3.6089,3.6274,3.6146,3.6018,3.5899,3.5761,3.5751,3.5558,3.5254,3.5091,3.4826,3.4939,3.4901,3.4699,3.4648,3.4678,3.4641,3.4726,3.4572,3.4478,3.4522,3.4579,3.4555,3.4473,3.439,3.4454,3.4486,3.45,3.4498,3.451,3.4368,3.4041,3.3808,3.4062,3.4892,3.6313,3.8009,4.0799,4.2243,4.2199,4.165,4.0392,3.6865,3.4332,3.4551,3.4662,3.4547,3.4806,3.4776,3.4656,3.4674,3.4679,3.4502,3.4516,3.4397,3.4286,3.4381,3.4442,3.4421,3.4441,3.4479,3.4642,3.475,3.4767,3.4715,3.4649,3.477,3.472,3.4725,3.4662,3.4712,3.4845,3.4902,3.493,3.4873,3.4848,3.4851,3.4942,3.5081,3.5122,3.5187,3.5272,3.5394,3.5563,3.5604,3.5733,3.5948,3.6222,3.6396,3.6442,3.6558,3.666,3.6864,3.71,3.7182,3.7133,3.718,3.7249,3.7264,3.7246,3.7171,3.7063,3.697,3.6766,3.6536,3.6317,3.6145,3.5879,3.5721,3.5399,3.5247,3.5125,3.5031,3.4948,3.4875,3.4799,3.465,3.4734,3.4792,3.4685,3.465,3.4649,3.4711,3.4793,3.4747,3.4679,3.4637,3.468,3.4687,3.4678,3.4555,3.4457,3.4577,3.4635,3.4548,3.4433,3.4471,3.4544,3.4696,3.4701,3.458,3.4581,3.4605,3.4683,3.4673,3.4591,3.4636,3.4668,3.4703,3.4691,3.4613,3.4481,3.4532,3.4474,3.464,3.4493,3.4526,3.4601,3.4597,3.4659,3.463,3.458,3.4581,3.4649,3.4679,3.4534,3.4571,3.4589,3.4561,3.4685,3.4664,3.4651,3.4623,3.4588,3.4678,3.4577,3.4457,3.4635,3.4589,3.4538,3.4507,3.4477,3.4482,3.4612,3.4681,3.4711,3.4652,3.4656,3.4695,3.478,3.4883,3.4862,3.4808,3.4918,3.5068,3.5116,3.5297,3.5398,3.5328,3.5359,3.523,3.4857,3.4751,3.4582,3.4491,3.4391,3.4258,3.4163,3.4182,3.421,3.4191,3.4126,3.404,3.4094,3.4104,3.4118,3.4031,3.3948,3.3938,3.3983,3.3985,3.3896,3.3906,3.3883,3.394,3.3968,3.3693,3.3264,3.3364,3.4321,3.5589,3.7138,3.9488,4.1479,4.1712,4.1366,4.0297,3.7068,3.4014,3.4193,3.4302,3.4136,3.4155,3.4047,3.413,3.4214,3.4267,3.4089,3.4047,3.4016,3.4121,3.4011,3.3937,3.3936,3.4114,3.4175,3.4208,3.4112,3.4187,3.4173,3.4349,3.4418,3.4327,3.4385,3.4364,3.4421,3.4452,3.4312,3.4366,3.4381,3.4468,3.4567,3.4596,3.4658,3.4733,3.4816,3.4929,3.5047,3.5134,3.5263,3.5424,3.5549,3.5541,3.5566,3.5731,3.5999,3.6185,3.6244,3.638,3.6517,3.6577,3.6655,3.6629,3.6611,3.6579,3.6723,3.6646,3.6495,3.6338,3.6044,3.5881,3.5751,3.5572,3.5296,3.5028,3.4883,3.4744,3.4607,3.4341,3.4277,3.4199,3.4133,3.4097,3.3958,3.3898,3.3863,3.3856,3.3944,3.384,3.3841,3.3903,3.3913,3.3906,3.3803,3.367,3.3631,3.3591,3.3602,3.3553,3.3492,3.3485,3.3547,3.3551,3.3457,3.3372,3.3414,3.346,3.3464,3.3242,3.3196,3.328,3.3302,3.3432,3.3353,3.3272,3.3217,3.3134,3.318,3.31,3.307,3.3132,3.3139,3.3214,3.3158,3.3003,3.3055,3.3044,3.3091,3.3023,3.2981,3.2946,3.3055,3.3256,3.3197,3.3089,3.2993,3.2952,3.2892,3.2798,3.2731,3.2739,3.2809,3.2833,3.2709,3.2826,3.2726,3.2805,3.2899,3.2856,3.2832,3.2936,3.2985,3.3008,3.3146,3.3217,3.3202,3.3588,3.3614,3.351,3.3332,3.3157,3.3005,3.2847,3.2598,3.2302,3.2197,3.2081,3.2185,3.22,3.2103,3.1964,3.2051,3.217,3.2207,3.2121,3.1998,3.2009,3.2066,3.2076,3.1995,3.193,3.2018,3.2075,3.2066,3.2071,3.2098,3.1681,3.1336,3.1435,3.2178,3.3372,3.4821,3.7296,3.913,3.9577,3.9581,3.825,3.5684,3.304,3.2467,3.2228,3.1903,3.2038,3.2237,3.2327,3.2275,3.2327,3.23,3.2498,3.2484,3.2385,3.2304,3.2471,3.2477,3.2478,3.2427,3.2531,3.2588,3.2775,3.2712,3.2772,3.2844,3.3002,3.3024,3.3072,3.3081,3.3095,3.3149,3.3238,3.3287,3.3266,3.3369,3.3477,3.366,3.3903,3.4033,3.4138,3.4335,3.4571,3.4623,3.4727,3.483,3.5161,3.5413,3.5529,3.5674,3.5784,3.5891,3.6192,3.6296,3.6439,3.6519,3.6552,3.6636,3.6698,3.6677,3.6526,3.6485,3.6389,3.6209,3.5971,3.5834,3.5625,3.5468,3.5457,3.5351,3.513,3.4986,3.4857,3.4897,3.4766,3.4635,3.461,3.4613,3.4624,3.4668,3.458,3.4601,3.4613,3.4641,3.4738,3.4757,3.4729,3.4763,3.4876,3.4925,3.479,3.4759,3.4674,3.4864,3.4931,3.4881,3.4878,3.4994,3.5108,3.5161,3.501,3.5043,3.5134,3.5216,3.5338,3.5258,3.5252,3.5312,3.5306,3.5335,3.522,3.5198,3.5297,3.5385,3.5382,3.5419,3.5341,3.5353,3.5371,3.5404,3.5411,3.5393,3.5324,3.5394,3.5313,3.5317,3.5306,3.5384,3.5365,3.5453,3.5286,3.5168,3.5252,3.5322,3.5334,3.5325,3.5169,3.5105,3.5185,3.5174,3.517,3.5086,3.5148,3.5272,3.5329,3.5367,3.5306,3.5295,3.5445,3.5496,3.5677,3.5685,3.5779,3.5944,3.6039,3.6198,3.6215,3.6023,3.6028,3.595,3.5758,3.5562,3.5381,3.5289,3.5229,3.5049,3.4903,3.4873,3.4868,3.4833,3.4841,3.47,3.4723,3.4697,3.4808,3.4838,3.4673,3.4654,3.4759,3.4752,3.4914,3.4782,3.4738,3.4751,3.4719,3.4519,3.4068,3.4296,3.5246,3.675,3.8413,4.1119,4.2516,4.2468,4.215,4.0735,3.7221,3.4666,3.5009,3.5046,3.5085,3.5058,3.5038,3.4936,3.4986,3.5012,3.5065,3.484,3.4833,3.4804,3.4901,3.5011,3.4921,3.4854,3.5012,3.5121,3.5139,3.5125,3.5154,3.5174,3.5281,3.5335,3.5315,3.5148,3.5179,3.541,3.5486,3.5432,3.5395,3.5445,3.5552,3.5656,3.5654,3.5725,3.5865,3.598,3.6106,3.6136,3.6181,3.635,3.6429,3.6642,3.6795,3.6935,3.7032,3.7292,3.7446,3.7552,3.7552,3.7584,3.7671,3.7787,3.7837,3.7758,3.7722,3.7718,3.7698,3.7468,3.7221,3.7122,3.6889,3.6712,3.6552,3.624,3.6013,3.5873,3.5763,3.5615,3.5502,3.5427,3.5432,3.5371,3.5255,3.5187,3.5135,3.5157,3.5203,3.5185,3.5091,3.5112,3.5059,3.5153,3.5195,3.5067,3.5028,3.5035,3.5041,3.5063,3.5066,3.5,3.4988,3.5024,3.5073,3.5066,3.4979,3.5001,3.5093,3.5179,3.5094,3.5095,3.5113,3.5162,3.5163,3.5159,3.5011,3.4998,3.5014,3.5002,3.4931,3.492,3.4937,3.4968,3.506,3.5045,3.498,3.4961,3.4973,3.4975,3.4964,3.4846,3.4841,3.4895,3.4943,3.4936,3.4862,3.4812,3.4774,3.4681,3.468,3.461,3.4499,3.4621,3.4626,3.4515,3.4387,3.441,3.4488,3.4497,3.4549,3.4487,3.4398,3.4391,3.4397,3.4481,3.4457,3.4634,3.4679,3.4782,3.4789,3.4894,3.5039,3.5215,3.5138,3.5055,3.4955,3.4749,3.4532,3.4334,3.4222,3.4078,3.3758,3.3662,3.3702,3.3651,3.3568,3.347,3.3381,3.339,3.3481,3.334,3.3233,3.3142,3.3227,3.3262,3.3243,3.313,3.2972,3.303,3.3111,3.3133,3.3027,3.2503,3.2677,3.3457,3.4638,3.6134,3.8612,3.9997,4.0614,4.0974,3.9376,3.6607,3.373,3.344,3.3467,3.3111,3.3108,3.3172,3.3283,3.3164,3.3078,3.3091,3.3216,3.3174,3.3235,3.3068,3.2993,3.3044,3.3116,3.3143,3.3068,3.2916,3.3092,3.3062,3.3173,3.3213,3.3231,3.3211,3.3339,3.3398,3.3334,3.3201,3.332,3.3402,3.3471,3.3394,3.3484,3.363,3.3799,3.3892,3.3958,3.4033,3.4073,3.418,3.4385,3.4439,3.4527,3.4807,3.5,3.5198,3.5301,3.5374,3.5462,3.5689,3.5876,3.5833,3.5818,3.5841,3.588,3.5932,3.5869,3.5787,3.5536,3.5448,3.5367,3.5127,3.4914,3.4651,3.4509,3.4372,3.4175,3.4029,3.3859,3.3761,3.3763,3.3762,3.3714,3.362,3.3595,3.3548,3.3484,3.3444,3.3381,3.3392,3.3495,3.3622,3.3523,3.3606,3.3521,3.3577,3.3585,3.3561,3.3538,3.3623,3.3651,3.3757,3.3763,3.3785,3.3833,3.3935,3.3985,3.3997,3.3942,3.3969,3.4001,3.4137,3.4186,3.4112,3.4158,3.4128,3.4168,3.4237,3.4126,3.4158,3.4286,3.4366,3.4366,3.4299,3.4304,3.4277,3.4388,3.448,3.4442,3.437,3.4403,3.44,3.4451,3.4351,3.4439,3.4489,3.4483,3.4479,3.4411,3.4369,3.4396,3.4408,3.4398,3.4323,3.4323,3.4344,3.4333,3.4468,3.4377,3.4441,3.4501,3.4651,3.4675,3.4728,3.48,3.4914,3.5017,3.5271,3.5315,3.5377,3.5594,3.5611,3.541,3.5388,3.5266,3.5026,3.4975,3.4927,3.4821,3.4539,3.4395,3.4428,3.4521,3.443,3.4328,3.4359,3.4413,3.4405,3.4385,3.4262,3.434,3.4371,3.4411,3.4408,3.4337,3.4275,3.4258,3.4289,3.4377,3.4309,3.3987,3.3697,3.4205,3.5229,3.6527,3.8293,4.1137,4.2251,4.2246,4.1658,3.991,3.6322,3.4755,3.4737,3.4591,3.4524,3.4489,3.4752,3.4679,3.4855,3.4685,3.4783,3.4617,3.4814,3.4544,3.458,3.4576,3.4739,3.4804,3.4939,3.4882,3.4968,3.497,3.5097,3.4936,3.4988,3.4965,3.5207,3.5319,3.5327,3.5173,3.5277,3.5379,3.5475,3.5406,3.5496,3.5506,3.5675,3.5705,3.591,3.5924,3.6027,3.6108,3.6319,3.646,3.6537,3.6723,3.6862,3.7217,3.7297,3.7411,3.7544,3.7708,3.7832,3.8003,3.7957,3.8067,3.8074,3.8183,3.8115,3.7972,3.7774,3.7656,3.7537,3.7398,3.7111,3.6878,3.6638,3.6588,3.641,3.6271,3.6003,3.596,3.5942,3.5954,3.5869,3.5724,3.5668,3.5779,3.5762,3.5758,3.5598,3.5784,3.5757,3.5824,3.5729,3.5709,3.5728,3.5795,3.5811,3.5768,3.5727,3.5767,3.554,3.5629,3.5643,3.5617,3.5641,3.5736,3.5762,3.5786,3.5697,3.5753,3.5914,3.6027,3.5987,3.592,3.5868,3.5879,3.5958,3.5941,3.5835,3.5821,3.5889,3.5943,3.595,3.5884,3.5884,3.5903,3.6006,3.602,3.5888,3.5891,3.5915,3.5944,3.5927,3.5922,3.5949,3.592,3.5983,3.5902,3.5748,3.5713,3.5806,3.5813,3.5803,3.5712,3.5615,3.5601,3.5638,3.5737,3.5637,3.5469,3.5484,3.556,3.5646,3.556,3.5412,3.5425,3.5463,3.5426,3.5347,3.5238,3.5215,3.5293,3.535,3.5311,3.5339,3.5441,3.5534,3.566,3.5694,3.5532,3.5721,3.5848,3.5992,3.612,3.6137,3.6026,3.6018,3.596,3.5742,3.549,3.534,3.5146,3.5074,3.4929,3.4723,3.462,3.4722,3.4785,3.4724,3.4655,3.466,3.4593,3.4639,3.4561,3.4445,3.4357,3.4348,3.4304,3.4359,3.4279,3.4249,3.4245,3.4264,3.4163,3.3657,3.3559,3.4515,3.5773,3.7389,3.9778,4.1774,4.1998,4.1828,4.065,3.7757,3.4712,3.4388,3.4452,3.431,3.4302,3.4273,3.4296,3.4232,3.4322,3.4339,3.4277,3.4133,3.4217,3.423,3.4255,3.4163,3.4252,3.4246,3.4416,3.4352,3.425,3.4153,3.4247,3.4354,3.4422,3.4336,3.4376,3.4441,3.4499,3.4475,3.4434,3.4405,3.4493,3.4456,3.4482,3.4462,3.4578,3.4692,3.4904,3.5042,3.5102,3.5121,3.5297,3.5404,3.57,3.5711,3.5657,3.5761,3.6156,3.6318,3.6278,3.6403,3.657,3.6722,3.6777,3.6749,3.6641,3.6472,3.6447,3.6372,3.624,3.5935,3.5783,3.5633,3.5394,3.5113,3.4805,3.4656,3.461,3.4579,3.439,3.4219,3.4029,3.4032,3.4078,3.4009,3.3945,3.3956,3.3981,3.4063,3.4054,3.3995,3.3953,3.4006,3.3979,3.3905,3.3841,3.3839,3.3836,3.3881,3.3897,3.3867,3.3898,3.3932,3.4003,3.4056,3.3993,3.3978,3.394,3.4098,3.4118,3.4043,3.4059,3.4144,3.4219,3.4291,3.4223,3.4119,3.421,3.4295,3.4282,3.4189,3.4077,3.4204,3.4259,3.4321,3.4306,3.4231,3.4266,3.4379,3.4407,3.4384,3.4247,3.436,3.4381,3.4464,3.4482,3.4367,3.4413,3.4468,3.4483,3.4434,3.4283,3.4305,3.432,3.4348,3.4353,3.4389,3.4411,3.4452,3.4598,3.4624,3.4668,3.4724,3.4855,3.4988,3.5102,3.5063,3.515,3.5361,3.5496,3.5654,3.5789,3.5759,3.568,3.5638,3.5477,3.5266,3.5219,3.5085,3.5016,3.4839,3.4674,3.459,3.4538,3.4627,3.4641,3.4587,3.4571,3.4585,3.4645,3.4619,3.453,3.4558,3.4614,3.466,3.4697,3.4688,3.4609,3.4547,3.4568,3.46,3.417,3.3788,3.4356,3.5455,3.6896,3.8666,4.1356,4.2373,4.2631,4.2017,3.9964,3.6467,3.4943,3.5148,3.4975,3.5017,3.4984,3.5152,3.5054,3.5154,3.5124,3.5204,3.5073,3.5148,3.5119,3.5122,3.498,3.5034,3.5147,3.5375,3.534,3.5376,3.5388,3.5442,3.5522,3.5628,3.5551,3.5545,3.5591,3.5783,3.5707,3.5708,3.5648,3.5754,3.5868,3.5923,3.5988,3.6095,3.6154,3.6342,3.6376,3.6465,3.661,3.666,3.6738,3.6964,3.7118,3.7177,3.7392,3.7653,3.7871,3.7935,3.8114,3.8202,3.8351,3.8506,3.8491,3.8442,3.8321,3.826,3.8236,3.8004,3.7855,3.7559,3.7372,3.7202,3.687,3.6599,3.6491,3.6436,3.6245,3.6112,3.5977,3.5908,3.5931,3.5928,3.5829,3.573,3.5754,3.5711,3.5847,3.5821,3.5735,3.5651,3.5691,3.5767,3.5753,3.5696,3.5673,3.5593,3.5675,3.5736,3.5694,3.566,3.5774,3.5766,3.5736,3.5643,3.5694,3.5809,3.5878,3.592,3.6011,3.5828,3.5828,3.5958,3.6037,3.5972,3.5971,3.5995,3.6013,3.5987,3.5966,3.5976,3.6066,3.6018,3.6085,3.5962,3.5946,3.5938,3.5931,3.5959,3.5938,3.584,3.5837,3.5961,3.5989,3.5986,3.5959,3.5933,3.5978,3.6015,3.5991,3.5928,3.5993,3.6014,3.5977,3.5938,3.5875,3.5863,3.5926,3.5962,3.5946,3.5878,3.5839,3.5862,3.5859,3.5906,3.5854,3.5866,3.586,3.5913,3.5842,3.584,3.5802,3.5828,3.5912,3.5886,3.5826,3.5837,3.5873,3.6009,3.6072,3.6066,3.614,3.6288,3.6396,3.65,3.6599,3.6727,3.6932,3.7094,3.708,3.691,3.675,3.6641,3.654,3.6499,3.6258,3.6079,3.5844,3.575,3.5784,3.5734,3.5654,3.5597,3.5684,3.5739,3.5648,3.5601,3.5635,3.5669,3.5699,3.5636,3.557,3.5579,3.5531,3.5568,3.5562,3.5383,3.5277,3.4961,3.4881,3.5606,3.6729,3.8211,4.0216,4.3071,4.3561,4.3125,4.2555,4.0235,3.6479,3.5549,3.5745,3.5637,3.5772,3.5871,3.5987,3.5784,3.5763,3.5678,3.5846,3.5774,3.5689,3.5625,3.5759,3.5722,3.5903,3.5831,3.5948,3.5943,3.6106,3.6129,3.6145,3.5963,3.6115,3.6153,3.6199,3.62,3.624,3.6239,3.634,3.6347,3.6362,3.6351,3.6413,3.652,3.6721,3.6768,3.6828,3.6909,3.7073,3.7241,3.726,3.737,3.7407,3.756,3.7829,3.7983,3.8112,3.8334,3.851,3.8661,3.8688,3.8686,3.8723,3.8847,3.8879,3.8887,3.8871,3.8659,3.8582,3.8506,3.8343,3.8142,3.7825,3.7635,3.7505,3.7264,3.7061,3.69,3.6789,3.679,3.6663,3.6528,3.6452,3.6436,3.6458,3.6506,3.6317,3.6373,3.6379,3.643,3.6458,3.6381,3.6333,3.629,3.6357,3.6418,3.6364,3.6291,3.6321,3.6376,3.6388,3.6298,3.6237,3.631,3.6369,3.6373,3.6271,3.6255,3.628,3.6356,3.6382,3.6319,3.6294,3.632,3.6345,3.6349,3.6351,3.6241,3.6258,3.6352,3.642,3.6455,3.6305,3.6312,3.6347,3.638,3.6416,3.6368,3.6323,3.638,3.6413,3.6442,3.6397,3.6405,3.6504,3.6488,3.6521,3.6466,3.6386,3.6418,3.638,3.6389,3.6327,3.6312,3.6364,3.6413,3.6346,3.636,3.6318,3.6334,3.6361,3.6392,3.6348,3.6307,3.6176,3.6223,3.6234,3.6184,3.6174,3.6111,3.6182,3.618,3.6124,3.601,3.6009,3.607,3.6194,3.6141,3.6038,3.5997,3.6051,3.6212,3.6213,3.6194,3.6276,3.6399,3.644,3.656,3.6568,3.6641,3.6797,3.6942,3.713,3.7262,3.7343,3.7129,3.7038,3.7111,3.6807,3.6696,3.6511,3.6368,3.6213,3.5965,3.5907,3.5923,3.5934,3.588,3.5797,3.576,3.5787,3.5795,3.5817,3.5736,3.5703,3.5675,3.5712,3.5789,3.5709,3.5667,3.5743,3.5855,3.5804,3.5464,3.5031,3.5214,3.6273,3.7667,3.9234,4.1776,4.3446,4.3539,4.3494,4.2681,4.0477,3.6625,3.5863,3.6103,3.5938,3.5825,3.5818,3.5898,3.587,3.5854,3.5828,3.5779,3.5788,3.5847,3.5676,3.5623,3.5631,3.5729,3.5772,3.5974,3.5833,3.5857,3.591,3.5923,3.5924,3.5917,3.5915,3.5894,3.5958,3.5912,3.5775,3.5866,3.5891,3.6027,3.5992,3.5921,3.5933,3.595,3.6031,3.6192,3.6185,3.6363,3.6559,3.6687,3.6849,3.6892,3.6968,3.7206,3.7346,3.7426,3.7558,3.7615,3.7771,3.7936,3.8054,3.8114,3.8099,3.809,3.803,3.8006,3.7767,3.7602,3.7495,3.7372,3.7237,3.7028,3.6648,3.6274,3.6135,3.6097,3.5784,3.5438,3.5473,3.534,3.5347,3.5306,3.5152,3.5104,3.5079,3.5127,3.4947,3.5012,3.4979,3.4927,3.4985,3.4957,3.4789,3.4764,3.4862,3.4826,3.4783,3.4657,3.473,3.4792,3.4819,3.4797,3.4741,3.4655,3.4795,3.4802,3.4744,3.4666,3.4672,3.4694,3.4699,3.4767,3.4719,3.4688,3.4649,3.4615,3.4613,3.4676,3.4608,3.4568,3.464,3.4733,3.4712,3.4743,3.4687,3.4807,3.4829,3.4801,3.4783,3.4685,3.4833,3.4878,3.4824,3.4743,3.479,3.4823,3.4905,3.4941,3.4758,3.4689,3.4807,3.4875,3.4858,3.4782,3.472,3.4666,3.469,3.4705,3.4615,3.4564,3.465,3.4658,3.472,3.4547,3.4525,3.473,3.4655,3.4396,3.4467,3.4522,3.4691,3.4864,3.514,3.4943,3.5,3.516,3.5247,3.5556,3.5655,3.5467,3.5383,3.5291,3.5099,3.4964,3.4784,3.4625,3.4294,3.4179,3.4208,3.4171,3.4085,3.4045,3.4061,3.4122,3.4088,3.3938,3.3997,3.4043,3.4056,3.4104,3.3997,3.4099,3.4055,3.4067,3.4041,3.399,3.3936,3.3994,3.3397,3.3458,3.4385,3.5673,3.7118,3.9537,4.0834,4.1574,4.1646,3.984,3.7104,3.4928,3.4461,3.4101,3.3891,3.4025,3.4199,3.4306,3.439,3.4325,3.4261,3.4451,3.4488,3.4498,3.4405,3.4445,3.4397,3.4371,3.441,3.4543,3.462,3.469,3.455,3.4625,3.4723,3.4907,3.496,3.501,3.5092,3.5013,3.5115,3.5059,3.4904,3.5005,3.5167,3.5178,3.5273,3.5241,3.536,3.5546,3.5689,3.5846,3.6038,3.6092,3.6303,3.6394,3.6526,3.6592,3.6852,3.7056,3.727,3.7269,3.7269,3.7232,3.749,3.7664,3.7694,3.7655,3.7596,3.7518,3.7365,3.719,3.6927,3.6768,3.6511,3.6426,3.6186,3.58,3.5637,3.559,3.5533,3.5473,3.533,3.5106,3.5253,3.5266,3.5329,3.5141,3.5095,3.5151,3.5182,3.5066,3.5032,3.4907,3.4899,3.4998,3.5158,3.5171,3.507,3.502,3.5065,3.5072,3.5151,3.507,3.5111,3.5325,3.5379,3.5358,3.5365,3.5317,3.5409,3.5486,3.5432,3.5375,3.543,3.5489,3.5579,3.5566,3.5425,3.5362,3.5337,3.5358,3.5333,3.5289,3.5267,3.5428,3.5492,3.552,3.5457,3.5502,3.562,3.5625,3.5625,3.5642,3.565,3.5683,3.5644,3.5586,3.5519,3.5501,3.5446,3.5507,3.5543,3.5484,3.5435,3.5431,3.5545,3.5654,3.5608,3.562,3.5637,3.5746,3.5861,3.5864,3.5784,3.5994,3.6111,3.6384,3.646,3.6341,3.6332,3.64,3.6254,3.6126,3.5932,3.5764,3.5695,3.5456,3.5349,3.5309,3.5306,3.5374,3.5416,3.5335,3.5249,3.5311,3.5296,3.5377,3.5283,3.525,3.5344,3.5358,3.5362,3.5193,3.5166,3.5312,3.5301,3.5226,3.4666,3.4474,3.4747,3.5595,3.6961,3.8546,4.1087,4.2578,4.3166,4.2844,4.1196,3.8034,3.5673,3.552,3.5345,3.5181,3.5241,3.5456,3.5603,3.5607,3.5634,3.5569,3.5377,3.5446,3.5433,3.5479,3.5377,3.5317,3.5413,3.5525,3.5635,3.5651,3.5633,3.5662,3.584,3.5866,3.5749,3.581,3.5782,3.5942,3.5916,3.5937,3.5853,3.5842,3.6033,3.6041,3.6146,3.6131,3.6216,3.6355,3.6582,3.6715,3.6777,3.6929,3.7165,3.7254,3.7423,3.748,3.77,3.7822,3.788,3.801,3.8036,3.8093,3.8232,3.8446,3.8447,3.8431,3.8369,3.8455,3.8448,3.8187,3.795,3.7729,3.7494,3.7354,3.7223,3.6949,3.6863,3.6649,3.6537,3.6354,3.6133,3.6041,3.6025,3.6064,3.6006,3.5971,3.5849,3.5843,3.5871,3.5889,3.588,3.5846,3.5869,3.5908,3.5935,3.588,3.5808,3.585,3.5837,3.5786,3.5651,3.5796,3.5799,3.5752,3.5827,3.5816,3.5814,3.5823,3.5919,3.5956,3.5996,3.5965,3.5993,3.6039,3.6079,3.6092,3.5971,3.5983,3.6023,3.6083,3.6064,3.6001,3.5946,3.6035,3.5969,3.5981,3.5983,3.5967,3.5998,3.6025,3.6207,3.6167,3.6148,3.6187,3.6236,3.6149,3.6057,3.5983,3.6004,3.6122,3.6107,3.6089,3.6058,3.6099,3.6167,3.6143,3.62,3.6233,3.6307,3.6568,3.6683,3.6583,3.6742,3.6868,3.6977,3.7016,3.7216,3.7149,3.7032,3.697,3.6969,3.671,3.658,3.6388,3.6262,3.6037,3.592,3.5888,3.5867,3.587,3.5941,3.5885,3.5863,3.5884,3.5752,3.5913,3.5897,3.5777,3.5703,3.577,3.5888,3.5889,3.5841,3.5951,3.5912,3.5954,3.5501,3.5391,3.5884,3.6976,3.8538,4.047,4.1906,4.3795,4.4281,4.3843,4.25,3.9179,3.6406,3.6219,3.6197,3.5987,3.6269,3.6263,3.6382,3.6329,3.6419,3.6262,3.6365,3.6296,3.6422,3.6388,3.6349,3.6265,3.6409,3.6399,3.6503,3.6509,3.6498,3.6525,3.6685,3.6669,3.6668,3.6586,3.6634,3.6754,3.6727,3.6771,3.6915,3.6998,3.7024,3.7005,3.7131,3.714,3.7269,3.7352,3.7536,3.7611,3.7631,3.7776,3.802,3.8187,3.8307,3.8424,3.8533,3.8757,3.8947,3.9154,3.9169,3.9264,3.9376,3.9468,3.9594,3.9608,3.9558,3.9549,3.9397,3.9344,3.9076,3.8864,3.863,3.8546,3.8336,3.809,3.7802,3.7539,3.7573,3.7418,3.7327,3.7222,3.7141,3.7156,3.7174,3.7134,3.6985,3.7067,3.7135,3.7027,3.6976,3.6964,3.6926,3.6995,3.7039,3.7021,3.6974,3.7022,3.7053,3.7099,3.699,3.6967,3.6987,3.7152,3.7085,3.7172,3.6978,3.7166,3.7179,3.738,3.7351,3.7254,3.7176,3.7245,3.7319,3.7287,3.731,3.7287,3.7444,3.7385,3.7427,3.7258,3.7272,3.7218,3.7385,3.7338,3.7331,3.7337,3.7451,3.7488,3.7497,3.728,3.7413,3.7508,3.7508,3.7539,3.7435,3.7437,3.7424,3.748,3.7457,3.7329,3.731,3.7399,3.7529,3.7504,3.7395,3.7403,3.7405,3.7515,3.7495,3.7442,3.7352,3.7453,3.7462,3.7526,3.7367,3.7342,3.7304,3.7407,3.7478,3.7512,3.7538,3.7566,3.7645,3.7607,3.7686,3.7717,3.7772,3.7987,3.8145,3.8157,3.8204,3.8349,3.8468,3.8372,3.8346,3.8182,3.8031,3.8003,3.7822,3.7692,3.7428,3.7265,3.7346,3.7443,3.7347,3.7233,3.7165,3.7097,3.7272,3.7222,3.7087,3.7128,3.7159,3.7084,3.7079,3.702,3.7006,3.7076,3.7118,3.7085,3.7068,3.6932,3.6502,3.6841,3.7772,3.8985,4.0533,4.3101,4.5177,4.5398,4.4922,4.3563,4.2157,3.8352,3.7337,3.7531,3.7335,3.7465,3.745,3.7521,3.7394,3.7447,3.7349,3.7451,3.7377,3.7444,3.7334,3.7457,3.7514,3.7593,3.7519,3.7592,3.7554,3.7705,3.7728,3.7751,3.7709,3.7827,3.782,3.7928,3.7945,3.7879,3.787,3.8158,3.8073,3.8124,3.8088,3.8112,3.8207,3.8346,3.8423,3.8468,3.8544,3.863,3.8777,3.8943,3.9,3.9135,3.9279,3.9552,3.969,3.9879,4.0044,4.0289,4.0397,4.0506,4.0534,4.0665,4.0783,4.0814,4.0844,4.0749,4.0589,4.0398,4.034,4.0041,3.9774,3.9379,3.9188,3.899,3.8876,3.8703,3.8399,3.8333,3.8368,3.8229,3.8102,3.804,3.8067,3.8075,3.8092,3.8092,3.8067,3.7947,3.8072,3.8095,3.809,3.7963,3.8058,3.8083,3.8133,3.8163,3.7997,3.8066,3.8103,3.8105,3.8059,3.7972,3.7931,3.7926,3.8048,3.8044,3.7964,3.8004,3.8035,3.8029,3.8063,3.8028,3.8114,3.8125,3.8186,3.8258,3.8148,3.8093,3.8111,3.8097,3.8158,3.8088,3.8097,3.8111,3.8103,3.8178,3.8159,3.8095,3.8165,3.8172,3.8173,3.813,3.7994,3.8089,3.8107,3.8179,3.8087,3.8042,3.8085,3.8078,3.8105,3.8119,3.8073,3.808,3.8154,3.8132,3.807,3.8002,3.8068,3.8149,3.8181,3.8196,3.8102,3.8118,3.8039,3.8058,3.7974,3.7871,3.7917,3.7915,3.7921,3.7946,3.7879,3.7908,3.7871,3.7913,3.8002,3.7966,3.7995,3.8035,3.815,3.8313,3.8379,3.8328,3.8502,3.8663,3.8683,3.8767,3.8967,3.8935,3.889,3.8842,3.8775,3.852,3.84,3.8221,3.8185,3.7942,3.7765,3.7768,3.7858,3.7843,3.7707,3.7654,3.7717,3.7758,3.7718,3.7649,3.7605,3.7627,3.7718,3.7717,3.761,3.7571,3.7595,3.7599,3.761,3.7594,3.7268,3.688,3.7132,3.8215,3.9522,4.098,4.3592,4.5445,4.5561,4.5419,4.4706,4.2394,3.839,3.7531,3.7851,3.7647,3.7757,3.7942,3.7948,3.7861,3.7868,3.773,3.778,3.7705,3.7709,3.7637,3.7609,3.7695,3.7788,3.7771,3.7826,3.7788,3.7885,3.797,3.805,3.7978,3.7991,3.804,3.8086,3.8141,3.8127,3.8063,3.8107,3.8192,3.8266,3.8236,3.8196,3.8373,3.8508,3.8652,3.8717,3.8788,3.8873,3.8942,3.9103,3.9215,3.9385,3.9607,3.9829,4.0018,4.0124,4.0188,4.0308,4.0536,4.0668,4.0764,4.0702,4.0704,4.0771,4.0813,4.0739,4.0593,4.0393,4.0288,4.005,3.9866,3.951,3.931,3.9219,3.9058,3.8854,3.86,3.8442,3.8363,3.8268,3.8244,3.8186,3.8105,3.8114,3.8202,3.815,3.7969,3.7882,3.7958,3.8058,3.8019,3.794,3.7942,3.7976,3.8044,3.8021,3.7958,3.7843,3.7881,3.7908,3.7866,3.7925,3.7898,3.7872,3.7882,3.797,3.7924,3.7885,3.785,3.7889,3.7948,3.7942,3.7869,3.7831,3.7891,3.7928,3.7887,3.7834,3.7853,3.7875,3.7811,3.7807,3.7726,3.7734,3.766,3.7775,3.7812,3.7799,3.7833,3.7891,3.79,3.7881,3.7747,3.7705,3.7736,3.774,3.772,3.7648,3.768,3.7682,3.7725,3.7653,3.7549,3.7526,3.7509,3.7558,3.7602,3.7442,3.7392,3.743,3.75,3.7551,3.7485,3.7541,3.7444,3.7383,3.734,3.7317,3.7278,3.723,3.7357,3.7372,3.7377,3.7285,3.7475,3.7466,3.7491,3.7343,3.7384,3.7461,3.737,3.7444,3.737,3.7391,3.7365,3.7404,3.7647,3.7763,3.7701,3.7629,3.7938,3.824,3.8273,3.8407,3.8415,3.8478,3.8492,3.8282,3.815,3.794,3.7837,3.7834,3.7437,3.7452,3.7301,3.7358,3.7312,3.7373,3.7364,3.7319,3.7309,3.7369,3.7274,3.7201,3.7164,3.7071,3.7017,3.7168,3.7146,3.7213,3.7191,3.7307,3.7324,3.6769,3.6422,3.6662,3.7666,3.8899,4.0414,4.2777,4.4695,4.5142,4.4876,4.3508,4.0362,3.7305,3.7239,3.7215,3.7063,3.7173,3.7142,3.7265,3.722,3.7164,3.7089,3.7049,3.7006,3.7084,3.7069,3.7003,3.7069,3.7105,3.7236,3.7214,3.7178,3.7185,3.7222,3.7299,3.7268,3.7329,3.7344,3.7429,3.7399,3.7373,3.7354,3.7368,3.7417,3.7449,3.751,3.7518,3.754,3.7688,3.7751,3.7903,3.7997,3.8042,3.8239,3.8502,3.8639,3.8768,3.8977,3.9237,3.9437,3.9556,3.969,3.9768,3.9968,4.0102,4.0281,4.0336,4.0363,4.0398,4.0368,4.0307,4.0185,4.0009,3.9795,3.9726,3.9507,3.9215,3.8873,3.8642,3.8585,3.8545,3.8482,3.8216,3.8203,3.8193,3.8176,3.8122,3.8041,3.7925,3.7984,3.8065,3.8061,3.798,3.7954,3.8022,3.7999,3.799,3.7906,3.7896,3.7912,3.7936,3.798,3.7879,3.7827,3.78,3.785,3.7925,3.7855,3.779,3.7863,3.7894,3.7907,3.7861,3.7837,3.7871,3.7887,3.7923,3.793,3.7921,3.7902,3.7945,3.8018,3.7967,3.7886,3.7866,3.7854,3.796,3.7894,3.784,3.7841,3.7833,3.785,3.7761,3.7745,3.779,3.7739,3.7785,3.7827,3.7773,3.7824,3.7836,3.7931,3.7888,3.7773,3.781,3.7866,3.7797,3.7729,3.7728,3.7717,3.7776,3.7813,3.7734,3.7682,3.7654,3.7725,3.7726,3.7715,3.7646,3.767,3.774,3.7723,3.7668,3.7552,3.7571,3.76,3.7607,3.7616,3.7545,3.7524,3.7602,3.7703,3.7768,3.7683,3.775,3.7738,3.7756,3.782,3.7946,3.7984,3.807,3.8267,3.8414,3.8466,3.867,3.8748,3.8633,3.8532,3.847,3.8242,3.8105,3.7998,3.7872,3.7613,3.7525,3.7523,3.7493,3.7572,3.7485,3.7457,3.7463,3.7547,3.7497,3.7465,3.7371,3.734,3.74,3.7452,3.7429,3.736,3.7375,3.7406,3.7396,3.7421,3.7177,3.678,3.679,3.7631,3.8889,4.0289,4.2443,4.4986,4.5261,4.4853,4.3982,4.1056,3.7679,3.743,3.76,3.7312,3.7478,3.7453,3.7559,3.7528,3.7469,3.7302,3.7386,3.7304,3.7423,3.7288,3.7344,3.7311,3.7477,3.7537,3.7554,3.7564,3.7702,3.7692,3.7787,3.7695,3.7747,3.7719,3.7792,3.7918,3.8039,3.7879,3.7954,3.8011,3.8105,3.8061,3.8056,3.816,3.8274,3.84,3.8577,3.8569,3.8725,3.8839,3.8989,3.9052,3.9228,3.9322,3.9528,3.9779,3.9967,4.0129,4.028,4.0452,4.0625,4.0703,4.0624,4.0718,4.0686,4.0693,4.0575,4.0496,4.036,4.0206,3.9982,3.9783,3.9596,3.9355,3.9002,3.8886,3.8815,3.856,3.8443,3.8407,3.8235,3.8209,3.8078,3.8017,3.7952,3.7998,3.7942,3.7895,3.7777,3.7804,3.7798,3.7722,3.7793,3.7763,3.7759,3.7789,3.771,3.7627,3.7562,3.7537,3.7446,3.757,3.7498,3.7477,3.7476,3.7564,3.75,3.7575,3.7453,3.7523,3.7568,3.759,3.7534,3.7315,3.7413,3.7287,3.7338,3.7362,3.7231,3.7294,3.7237,3.7332,3.7216,3.7169,3.713,3.7157,3.7065,3.7165,3.7174,3.7106,3.7027,3.7118,3.7083,3.6971,3.6983,3.6968,3.6997,3.7138,3.7141,3.7024,3.7054,3.6962,3.6958,3.6859,3.6859,3.6806,3.6905,3.6884,3.6826,3.6742,3.669,3.6682,3.6775,3.6601,3.6689,3.6681,3.6635,3.6725,3.6619,3.6561,3.6559,3.657,3.6555,3.6511,3.6434,3.644,3.6535,3.657,3.6524,3.6502,3.647,3.6447,3.6545,3.6526,3.6726,3.6658,3.6808,3.6854,3.689,3.7126,3.7317,3.7372,3.7096,3.7077,3.6788,3.6634,3.6543,3.6534,3.6399,3.6206,3.6069,3.6038,3.5949,3.5969,3.5944,3.587,3.5926,3.6022,3.5899,3.5821,3.5784,3.5803,3.575,3.5804,3.5878,3.5753,3.5704,3.5779,3.5674,3.5694,3.5172,3.4857,3.5293,3.6372,3.7673,3.9395,4.2092,4.3005,4.3479,4.2981,4.1004,3.7918,3.6241,3.5961,3.5615,3.561,3.5531,3.5565,3.5576,3.5723,3.5562,3.5664,3.5652,3.5686,3.5713,3.5698,3.5538,3.5762,3.577,3.5706,3.5718,3.5769,3.5863,3.5879,3.5886,3.5825,3.5869,3.5951,3.5976,3.5981,3.596,3.5944,3.6022,3.6031,3.608,3.6055,3.6079,3.62,3.629,3.6337,3.6473,3.6521,3.6773,3.6845,3.6985,3.705,3.7134,3.7409,3.7619,3.788,3.8004,3.8148,3.8318,3.8393,3.8533,3.8432,3.8412,3.8468,3.8567,3.848,3.8392,3.8128,3.7973,3.7834,3.7493,3.7319,3.7126,3.6847,3.6747,3.6559,3.643,3.6147,3.6052,3.5937,3.5957,3.5666,3.5682,3.5692,3.5709,3.5707,3.5687,3.5585,3.553,3.56,3.5609,3.5636,3.55,3.5518,3.5632,3.5627,3.556,3.5568,3.5343,3.5465,3.5633,3.5626,3.5599,3.5582,3.5704,3.5717,3.5683,3.5699,3.5608,3.5718,3.5767,3.575,3.5794,3.5709,3.5739,3.5921,3.5801,3.5725,3.5655,3.565,3.5707,3.5857,3.5776,3.5749,3.5791,3.5963,3.5876,3.586,3.583,3.589,3.5987,3.5884,3.5909,3.5837,3.5752,3.573,3.5703,3.569,3.5632,3.564,3.5666,3.5693,3.5696,3.5618,3.5633,3.5699,3.5753,3.5699,3.557,3.5636,3.5745,3.5777,3.5802,3.572,3.5637,3.5653,3.5678,3.5711,3.5744,3.5852,3.5829,3.5938,3.6035,3.6129,3.6209,3.6224,3.6267,3.6453,3.65,3.6483,3.6611,3.67,3.6652,3.6635,3.6424,3.6262,3.6178,3.6,3.5751,3.5587,3.5612,3.5674,3.5761,3.5623,3.5593,3.5607,3.5657,3.5699,3.5663,3.5503,3.5525,3.5526,3.5545,3.5766,3.5715,3.5677,3.5734,3.5745,3.5769,3.5464,3.4953,3.5043,3.5913,3.6508,3.776,3.9553,4.236,4.3473,4.3732,4.3097,4.0947,3.7687,3.6205,3.6296,3.5831,3.5847,3.5907,3.6067,3.5903,3.5872,3.5779,3.5836,3.5727,3.578,3.5545,3.5441,3.5393,3.571,3.5868,3.5992,3.5975,3.6067,3.6321,3.6605,3.6729,3.6927,3.7207,3.7338,3.7227,3.7188,3.6977,3.6995,3.7026,3.7269,3.7304,3.7409,3.7606,3.7861,3.8008,3.8028,3.8131,3.8355,3.8583,3.8818,3.8946,3.9142,3.9265,3.9538,3.987,4.0289,4.0267,4.0331,4.0306,4.0338,4.0246,4.0012,3.9862,3.9706,3.9663,3.9591,3.9315,3.904,3.8925,3.8793,3.8209,3.7641,3.7562,3.7177,3.6672,3.6158,3.602,3.5856,3.6052,3.6326,3.6558,3.6554,3.6357,3.602,3.5628,3.5243,3.4886,3.4725,3.4803,3.5043,3.5321,3.5516,3.5827,3.6128,3.6358,3.6485,3.6706,3.6637,3.674,3.6754,3.647,3.6084,3.5722,3.5614,3.5653,3.5712,3.5606,3.5518,3.5582,3.5704,3.5895,3.6056,3.6084,3.5987,3.5776,3.5696,3.5832,3.5766,3.5919,3.6063,3.6132,3.6084,3.6144,3.6229,3.6367,3.6347,3.635,3.6223,3.6194,3.6193,3.6132,3.5984,3.5805,3.5684,3.5286,3.525,3.5477,3.5532,3.547,3.5323,3.5304,3.5319,3.5216,3.5264,3.5423,3.5491,3.5615,3.5539,3.5544,3.5646,3.5756,3.5801,3.5831,3.5614,3.5738,3.5766,3.577,3.542,3.5337,3.5149,3.5375,3.5609,3.5657,3.5552,3.554,3.5864,3.6078,3.6193,3.5921,3.5788,3.6378,3.6475,3.6505,3.6681,3.6711,3.685,3.7051,3.688,3.6611,3.6685,3.6502,3.647,3.6159,3.5759,3.5753,3.5613,3.5546,3.555,3.5299,3.5256,3.555,3.57,3.551,3.5275,3.5057,3.509,3.4953,3.5006,3.4921,3.4957,3.5048,3.4901,3.4755,3.4824,3.4912,3.4957,3.4672,3.4986,3.5719,3.6843,3.757,3.9338,4.2459,4.3586,4.3586,4.3138,4.0959,3.7013,3.5542,3.5709,3.5595,3.5672,3.5618,3.5668,3.5443,3.5603,3.5533,3.5606,3.5327,3.5495,3.557,3.5732,3.5835,3.5932,3.5888,3.6033,3.6199,3.635,3.6335,3.6313,3.6208,3.6129,3.6144,3.6105,3.6067,3.6369,3.6457,3.6406,3.6391,3.6382,3.6403,3.6434,3.6597,3.6703,3.6754,3.6589,3.6724,3.6984,3.7147,3.7279,3.717,3.7442,3.7668,3.7941,3.8032,3.8224,3.8547,3.8776,3.8799,3.8813,3.899,3.9065,3.9072,3.9109,3.9011,3.9002,3.903,3.9003,3.8962,3.8617,3.839,3.8203,3.8081,3.7814,3.7523,3.7226,3.7236,3.715,3.7072,3.7044,3.6825,3.6624,3.6693,3.6838,3.6733,3.6705,3.6596,3.6577,3.6644,3.6727,3.6622,3.6679,3.6749,3.68,3.6792,3.6758,3.6715,3.6691,3.6827,3.6996,3.7004,3.6896,3.6877,3.6928,3.7037,3.6851,3.6958,3.7023,3.7103,3.715,3.7069,3.71,3.721,3.718,3.7189,3.7164,3.7029,3.7014,3.7167,3.7317,3.7232,3.7045,3.7057,3.7088,3.707,3.7047,3.7049,3.6907,3.7083,3.7296,3.7337,3.7238,3.7377,3.7396,3.7516,3.7601,3.7561,3.7582,3.7651,3.7542,3.7531,3.7547,3.7538,3.752,3.7609,3.7507,3.7347,3.7146,3.7172,3.7185,3.7327,3.7194,3.7257,3.723,3.7282,3.7314,3.7106,3.7027,3.7187,3.7223,3.7205,3.7158,3.6999,3.7054,3.7155,3.7189,3.7142,3.7114,3.7208,3.7346,3.7402,3.7515,3.7545,3.7622,3.7828,3.8011,3.802,3.8166,3.814,3.8047,3.8019,3.7787,3.7612,3.7517,3.7462,3.7358,3.7092,3.6938,3.6987,3.7052,3.6956,3.6813,3.6656,3.6519,3.6773,3.6924,3.7034,3.6961,3.6853,3.6865,3.6912,3.6971,3.6805,3.6919,3.6791,3.698,3.6703,3.6178,3.6295,3.7294,3.8524,3.9268,4.0905,4.3854,4.485,4.4976,4.4583,4.2451,3.8693,3.7224,3.7535,3.727,3.7221,3.7239,3.7315,3.7391,3.7432,3.7251,3.7198,3.7144,3.7216,3.7102,3.7249,3.7017,3.717,3.7374,3.7384,3.7253,3.7304,3.7431,3.7478,3.7522,3.7515,3.7493,3.7517,3.7565,3.7669,3.7559,3.7517,3.7518,3.7591,3.7664,3.7671,3.7702,3.7737,3.7958,3.8074,3.8075,3.8205,3.8378,3.8485,3.86,3.8822,3.8876,3.9122,3.9426,3.9526,3.9622,3.9639,3.9642,3.9926,4.0017,4.0178,4.0231,4.0169,4.0262,4.0248,4.0369,4.0161,4.0017,3.9842,3.9692,3.9396,3.9056,3.8754,3.8504,3.8216,3.8256,3.8118,3.7871,3.7706,3.7741,3.7893,3.7788,3.7666,3.7629,3.7734,3.7863,3.7689,3.7574,3.7595,3.7646,3.7622,3.7579,3.7491,3.7329,3.7343,3.7437,3.7327,3.7299,3.7256,3.7295,3.7364,3.7441,3.7387,3.74,3.7373,3.7406,3.7372,3.7261,3.7457,3.7452,3.7498,3.7519,3.7365,3.7417,3.7499,3.7536,3.7509,3.7437,3.7386,3.7351,3.7183,3.7383,3.7229,3.7266,3.7109,3.753,3.7339,3.7178,3.7151,3.7432,3.7466,3.7277,3.7307,3.7316,3.7321,3.7359,3.7564,3.742,3.7262,3.7336,3.7365,3.7441,3.7576,3.742,3.7529,3.7479,3.7506,3.7324,3.7302,3.7306,3.7179,3.7256,3.7517,3.7396,3.7356,3.7468,3.7667,3.7412,3.7486,3.7407,3.7415,3.749,3.7344,3.711,3.7082,3.7049,3.7108,3.688,3.6876,3.7018,3.7147,3.7104,3.7031,3.6866,3.6881,3.704,3.7315,3.7507,3.7612,3.7517,3.7574,3.8021,3.8188,3.8192,3.8032,3.7995,3.7855,3.7718,3.7522,3.7286,3.7282,3.7218,3.7251,3.6931,3.6822,3.6901,3.6969,3.6865,3.6832,3.6611,3.6829,3.6798,3.652,3.6593,3.6662,3.6763,3.6842,3.6729,3.6601,3.6484,3.6572,3.6514,3.6735,3.6248,3.6083,3.6636,3.7852,3.9395,4.1377,4.3654,4.4408,4.478,4.3915,4.1435,3.8365,3.7252,3.7084,3.6909,3.6914,3.6888,3.6998,3.6991,3.716,3.7154,3.7205,3.6898,3.7094,3.7282,3.7339,3.7314,3.7232,3.7323,3.7465,3.7438,3.7314,3.7405,3.7359,3.7512,3.7562,3.7574,3.751,3.7595,3.7637,3.7754,3.7787,3.8025,3.8056,3.824,3.8233,3.809,3.8007,3.8216,3.8458,3.8609,3.8584,3.8674,3.8822,3.8919,3.9187,3.9486,3.9631,3.9877,4.0171,4.0508,4.0686,4.0802,4.0912,4.0974,4.1133,4.1077,4.1055,4.1121,4.1132,4.1041,4.0849,4.0601,4.0401,4.0435,4.0216,3.9983,3.97,3.9552,3.9378,3.9341,3.9166,3.9022,3.8837,3.879,3.877,3.8802,3.8655,3.8686,3.8763,3.874,3.8717,3.8631,3.8609,3.8636,3.8707,3.8662,3.85,3.8362,3.8397,3.8441,3.8423,3.8357,3.8245,3.8405,3.8464,3.8575,3.8538,3.8612,3.8762,3.8906,3.9028,3.9,3.8853,3.8906,3.8966,3.9032,3.8882,3.8692,3.8733,3.8857,3.897,3.8915,3.8973,3.8857,3.8947,3.9045,3.9064,3.9003,3.9062,3.9026,3.9015,3.9019,3.9007,3.9005,3.9076,3.9115,3.9144,3.9115,3.9031,3.9243,3.9394,3.941,3.9484,3.9594,3.9712,3.9796,3.98,3.9657,3.9648,3.9648,3.9699,3.9634,3.9429,3.922,3.9173,3.9195,3.9091,3.9039,3.8985,3.8982,3.9061,3.9144,3.9115,3.9103,3.9291,3.9319,3.9465,3.9397,3.9443,3.9627,3.9848,3.9921,4.0012,4.0107,4.0273,4.0422,4.0326,4.0098,3.9921,3.9755,3.9725,3.9596,3.9482,3.9186,3.9075,3.904,3.9029,3.8896,3.8751,3.8772,3.883,3.8804,3.8753,3.8741,3.8767,3.8851,3.886,3.8895,3.8856,3.888,3.8947,3.8972,3.8885,3.8404,3.7971,3.8346,3.9344,3.995,4.1278,4.3206,4.6022,4.696,4.6747,4.6071,4.3607,3.9603,3.867,3.9065,3.8713,3.9153,3.9217,3.9272,3.9248,3.927,3.9012,3.9135,3.9009,3.908,3.9103,3.9116,3.9118,3.9389,3.9328,3.9409,3.9358,3.957,3.966,4.0067,3.9764,3.9705,3.9734,3.9771,3.9954,3.9696,3.9267,3.9462,3.9595,3.9746,3.9811,3.988,3.9961,4.017,4.0377,4.0406,4.0512,4.0695,4.08,4.0954,4.1344,4.2176,4.2048,4.1388,4.1445,4.2239,4.2336,4.2248,4.2439,4.2733,4.28,4.2713,4.2887,4.2618,4.2544,4.2816,4.2911,4.266,4.2958,4.3014,4.3191,4.2628,4.2086,4.1674,4.1607,4.1328,4.0616,4.0366,4.0471,4.0481,4.0386,4.0425,4.0543,4.0656,4.0706,4.081,4.0857,4.0638,4.0772,4.0757,4.0708,4.0536,4.0356,4.026,4.0549,4.0629,4.064,4.0422,4.045,4.0491,4.0535,4.0524,4.0383,4.0462,4.0628,4.0841,4.0901,4.0906,4.0951,4.1115,4.1323,4.1219,4.1065,4.1072,4.1059,4.1045,4.1239,4.1065,4.0798,4.0734,4.0846,4.0937,4.0857,4.0657,4.0703,4.0711,4.074,4.0742,4.0531,4.0676,4.075,4.0822,4.0845,4.0839,4.0732,4.0814,4.0819,4.0727,4.0891,4.0858,4.0763,4.0898,4.0649,4.0567,4.046,4.0698,4.0815,4.049,4.043,4.0627,4.0805,4.0795,4.0747,4.0659,4.061,4.0745,4.0725,4.0735,4.096,4.0881,4.1144,4.1391,4.1459,4.1499,4.1508,4.1541,4.1477,4.1545,4.1236,4.0764,4.1032,4.1138,4.0877,4.0751,4.0755,4.0693,4.0547,4.0534,4.0501,4.0543,4.0718,4.0731,4.0467,4.0322,4.0271,4.0499,4.0553,4.0501,4.0417,4.0535,4.0372,4.0449,4.052,4.0312,3.9821,3.9734,4.0541,4.1836,4.3198,4.516,4.791,4.8393,4.8164,4.7365,4.4445,4.0885,4.0639,4.0869,4.0285,4.0381,4.048,4.0891,4.0812,4.089,4.0722,4.078,4.067,4.0751,4.0596,4.0754,4.0644,4.0768,4.0809,4.0955,4.034,4.0523,4.0723,4.0922,4.1071,4.0993,4.0995,4.0904,4.1007,4.1096,4.1011,4.1109,4.1064,4.1055,4.1326,4.1099,4.1137,4.1345,4.161,4.1618,4.1529,4.16,4.1736,4.1898,4.1918,4.2185,4.2302,4.247,4.2497,4.2894,4.2854,4.2799,4.2944,4.3019,4.3289,4.2707,4.3226,4.3119,4.333,4.3006,4.3031,4.3008,4.2825,4.26,4.2479,4.2436,4.204,4.1769,4.1465,4.1479,4.1063,4.1125,4.1054,4.0897,4.0878,4.0681,4.0405,4.0282,4.014,4.0339,4.0219,4.0029,4.0058,4.0027,4.027,4.0275,4.0022,3.9742,4.0373,4.025,4.0449,4.0413,4.0155,4.0451,4.0232,4.0595,4.0414,4.007,4.0439,4.0689,4.0593,4.1175,4.129,4.0762,4.0744,4.009,3.9945,3.9765,3.9787,4.0179,4.043,4.0576,4.0411,4.0335,4.0452,4.05,4.0355,4.0021,3.9755,3.9769,3.9912,3.9837,3.9608,3.9716,3.9932,3.9573,3.9923,3.9725,3.97,3.9703,3.9604,3.9522,3.9636,3.9693,3.9226,3.9642,3.9329,3.928,3.948,3.9102,3.9102,3.9571,3.9768,3.9824,3.9605,4.0234,4.0492
