-5.7371,-5.4072,-4.3536,-3.5741,-3.0418,-2.8709,-2.7356,-2.8391,-3.2675,-3.6069,-3.9625,-4.1933,-4.4069,-4.5036,-4.5747,-4.5636,-4.6088,-4.597,-4.635,-4.621,-4.6482,-4.6327,-4.6658,-4.6574,-4.6826,-4.6737,-4.6965,-4.688,-4.7158,-4.7099,-4.7324,-4.7226,-4.7422,-4.7401,-4.7618,-4.757,-4.7726,-4.7673,-4.7834,-4.7794,-4.7858,-4.7813,-4.7875,-4.7883,-4.7983,-4.7958,-4.8015,-4.7908,-4.7946,-4.7882,-4.7877,-4.7809,-4.7775,-4.7735,-4.7695,-4.7663,-4.7687,-4.7695,-4.7707,-4.7782,-4.7921,-4.7975,-4.7971,-4.7974,-4.7868,-4.7747,-4.7518,-4.7333,-4.7091,-4.6898,-4.6656,-4.6515,-4.6258,-4.6179,-4.6037,-4.5986,-4.5826,-4.5809,-4.5721,-4.5733,-4.5692,-4.5747,-4.5696,-4.5688,-4.5655,-4.5731,-4.5676,-4.5712,-4.5662,-4.5705,-4.5663,-4.5713,-4.5638,-4.5662,-4.5636,-4.5698,-4.566,-4.5671,-4.5581,-4.5618,-4.557,-4.5634,-4.5546,-4.5561,-4.5498,-4.5533,-4.5473,-4.5468,-4.539,-4.5426,-4.5387,-4.5416,-4.5361,-4.5362,-4.5298,-4.5301,-4.5261,-4.5311,-4.5246,-4.528,-4.5238,-4.5282,-4.5294,-4.5383,-4.5512,-4.5694,-4.5823,-4.5952,-4.5943,-4.6008,-4.6063,-4.6029,-4.563,-4.5427,-4.5292,-4.5319,-4.5403,-4.5466,-4.5422,-4.5557,-4.5509,-4.5346,-4.5143,-4.5052,-4.4953,-4.4887,-4.4888,-4.4872,-4.4852,-4.4807,-4.4788,-4.4792,-4.524,-4.7032,-4.8621,-5.1456,-5.434,-5.7809,-5.9257,-5.7173,-4.5918,-3.2045,-2.3558,-2.1155,-2.2415,-2.4926,-2.9281,-3.3833,-3.8461,-4.1494,-4.3834,-4.4692,-4.5357,-4.5287,-4.57,-4.5682,-4.5987,-4.5924,-4.6232,-4.6165,-4.6385,-4.6341,-4.6549,-4.6511,-4.6688,-4.6654,-4.6871,-4.6869,-4.706,-4.706,-4.7192,-4.718,-4.7319,-4.7357,-4.7521,-4.7551,-4.7679,-4.7706,-4.7853,-4.7883,-4.8006,-4.8021,-4.8138,-4.8187,-4.8228,-4.8193,-4.8224,-4.8228,-4.8218,-4.8182,-4.8165,-4.8153,-4.8114,-4.8147,-4.816,-4.8176,-4.8195,-4.8277,-4.8331,-4.8396,-4.8341,-4.8204,-4.802,-4.7813,-4.7542,-4.7254,-4.6926,-4.6697,-4.6437,-4.6265,-4.6119,-4.5928,-4.5726,-4.5666,-4.5509,-4.5471,-4.5351,-4.5333,-4.5283,-4.5288,-4.5193,-4.5203,-4.5117,-4.5185,-4.5197,-4.521,-4.5135,-4.5177,-4.5165,-4.5228,-4.5194,-4.5206,-4.5155,-4.5182,-4.5143,-4.5192,-4.5127,-4.5121,-4.5104,-4.5144,-4.5093,-4.507,-4.5034,-4.5057,-4.4997,-4.5032,-4.4939,-4.4974,-4.4916,-4.4926,-4.4869,-4.4878,-4.4823,-4.4801,-4.4759,-4.4748,-4.472,-4.4696,-4.4659,-4.4752,-4.4842,-4.4992,-4.5059,-4.5213,-4.528,-4.5364,-4.5329,-4.5464,-4.5438,-4.5173,-4.4895,-4.4789,-4.4791,-4.4873,-4.4863,-4.4916,-4.5059,-4.4887,-4.4596,-4.4479,-4.4376,-4.4343,-4.4267,-4.4222,-4.4227,-4.4218,-4.4178,-4.414,-4.4116,-4.4225,-4.5369,-4.8063,-5.0923,-5.3767,-5.7432,-5.8806,-5.6724,-4.5163,-3.1324,-2.3112,-2.0886,-2.1772,-2.4525,-2.885,-3.3645,-3.8161,-3.9811,-4.2356,-4.3783,-4.441,-4.4633,-4.4909,-4.505,-4.5204,-4.5301,-4.5416,-4.5496,-4.5579,-4.5646,-4.5728,-4.5823,-4.5942,-4.6039,-4.611,-4.6167,-4.6225,-4.6344,-4.6449,-4.6508,-4.6574,-4.6663,-4.6778,-4.6846,-4.6942,-4.7024,-4.707,-4.7168,-4.7234,-4.7299,-4.7321,-4.7354,-4.7388,-4.7421,-4.7408,-4.7421,-4.7383,-4.7355,-4.7335,-4.7308,-4.7279,-4.7302,-4.7267,-4.7328,-4.7404,-4.7502,-4.7521,-4.7619,-4.7612,-4.7587,-4.7379,-4.7168,-4.6896,-4.6672,-4.6499,-4.6261,-4.5932,-4.5735,-4.5517,-4.5381,-4.5191,-4.5095,-4.4955,-4.4922,-4.4845,-4.4817,-4.4726,-4.4754,-4.4692,-4.4725,-4.4688,-4.4683,-4.4651,-4.4713,-4.4675,-4.4717,-4.4668,-4.4692,-4.4708,-4.4705,-4.4671,-4.4681,-4.4637,-4.4671,-4.4624,-4.463,-4.459,-4.4609,-4.4577,-4.4573,-4.458,-4.4539,-4.4472,-4.4478,-4.444,-4.4452,-4.4425,-4.4391,-4.4324,-4.4318,-4.4311,-4.4319,-4.4308,-4.428,-4.425,-4.4241,-4.4225,-4.4221,-4.4216,-4.4268,-4.4367,-4.4465,-4.4533,-4.464,-4.4768,-4.4835,-4.4883,-4.4916,-4.4956,-4.4763,-4.449,-4.4392,-4.4367,-4.4377,-4.4396,-4.4444,-4.4582,-4.445,-4.4216,-4.4072,-4.3971,-4.3941,-4.3908,-4.3872,-4.3849,-4.3819,-4.3827,-4.3762,-4.3729,-4.3798,-4.4795,-4.7186,-4.9975,-5.2527,-5.6114,-5.7681,-5.7797,-5.3347,-4.0837,-2.6107,-2.2612,-2.2689,-2.2918,-2.6057,-3.0107,-3.4949,-3.8519,-4.148,-4.2967,-4.395,-4.4119,-4.4511,-4.4534,-4.475,-4.4696,-4.4969,-4.497,-4.5157,-4.5103,-4.5252,-4.5234,-4.5412,-4.5423,-4.5585,-4.559,-4.5743,-4.577,-4.5945,-4.5979,-4.6083,-4.61,-4.6222,-4.6231,-4.6329,-4.6346,-4.6431,-4.6454,-4.6557,-4.6558,-4.6573,-4.6556,-4.6585,-4.6641,-4.6636,-4.6605,-4.6568,-4.6536,-4.6532,-4.6556,-4.6488,-4.6461,-4.6369,-4.6466,-4.6542,-4.6615,-4.6684,-4.6798,-4.6848,-4.6956,-4.687,-4.6775,-4.6567,-4.6387,-4.611,-4.5898,-4.5673,-4.5472,-4.5263,-4.5082,-4.4877,-4.4779,-4.4644,-4.4592,-4.4507,-4.4476,-4.4345,-4.4427,-4.4369,-4.4355,-4.4334,-4.4422,-4.4383,-4.4373,-4.4371,-4.4403,-4.4344,-4.4382,-4.4358,-4.442,-4.4398,-4.4334,-4.4295,-4.4349,-4.4346,-4.4352,-4.4238,-4.4273,-4.4197,-4.4213,-4.4169,-4.4186,-4.4135,-4.4148,-4.4109,-4.4144,-4.4057,-4.4002,-4.3996,-4.4047,-4.402,-4.4097,-4.4123,-4.4271,-4.4372,-4.4485,-4.4539,-4.4505,-4.4499,-4.4645,-4.4759,-4.4678,-4.4235,-4.403,-4.3955,-4.4027,-4.4118,-4.408,-4.4167,-4.4188,-4.4035,-4.3842,-4.3668,-4.359,-4.3564,-4.3563,-4.3566,-4.3552,-4.3487,-4.3447,-4.3451,-4.349,-4.418,-4.6352,-4.9006,-5.1092,-5.4029,-5.6157,-5.5256,-4.996,-3.9313,-3.2577,-2.8336,-2.6455,-2.5554,-2.6015,-2.9769,-3.3212,-3.6803,-3.9449,-4.1589,-4.2954,-4.369,-4.3813,-4.4115,-4.4135,-4.4408,-4.4393,-4.4599,-4.4555,-4.476,-4.4787,-4.4972,-4.4909,-4.5027,-4.504,-4.5211,-4.5237,-4.5358,-4.5357,-4.5498,-4.5511,-4.5631,-4.5637,-4.5747,-4.5738,-4.5876,-4.5889,-4.5948,-4.5922,-4.5974,-4.5978,-4.6021,-4.6001,-4.603,-4.5962,-4.5965,-4.5923,-4.5887,-4.5781,-4.5767,-4.5717,-4.5704,-4.5645,-4.5645,-4.5675,-4.577,-4.5902,-4.6017,-4.6081,-4.6102,-4.6059,-4.6008,-4.5879,-4.5669,-4.5449,-4.5217,-4.5008,-4.4801,-4.4607,-4.443,-4.4294,-4.4161,-4.4106,-4.4049,-4.4025,-4.3984,-4.3987,-4.3958,-4.3945,-4.3944,-4.3937,-4.3932,-4.3977,-4.3979,-4.3995,-4.3975,-4.4001,-4.3984,-4.4018,-4.3974,-4.3968,-4.3964,-4.3985,-4.3926,-4.3917,-4.3853,-4.3854,-4.3872,-4.387,-4.3817,-4.3815,-4.3766,-4.3766,-4.3745,-4.3717,-4.367,-4.3642,-4.3648,-4.364,-4.3618,-4.3705,-4.3757,-4.3888,-4.4045,-4.4198,-4.4267,-4.4342,-4.4398,-4.449,-4.4515,-4.4193,-4.376,-4.3666,-4.3637,-4.3758,-4.3723,-4.3737,-4.383,-4.3806,-4.3538,-4.3375,-4.3272,-4.3242,-4.3203,-4.316,-4.3127,-4.3121,-4.3093,-4.3108,-4.3064,-4.3176,-4.4173,-4.6822,-4.9871,-5.2621,-5.6129,-5.7538,-5.5323,-4.3742,-2.9823,-2.1317,-1.9086,-2.0468,-2.3279,-2.7543,-3.2093,-3.4646,-3.8233,-4.1205,-4.2529,-4.3506,-4.3501,-4.403,-4.3919,-4.4336,-4.4201,-4.4537,-4.4366,-4.471,-4.4554,-4.4856,-4.4726,-4.4991,-4.4903,-4.5168,-4.5055,-4.5278,-4.5189,-4.5407,-4.5412,-4.5626,-4.561,-4.5781,-4.5785,-4.5991,-4.6002,-4.6128,-4.6148,-4.6277,-4.6323,-4.6428,-4.6442,-4.6454,-4.6451,-4.6467,-4.6471,-4.6475,-4.642,-4.6384,-4.641,-4.6398,-4.6403,-4.64,-4.65,-4.6551,-4.6693,-4.6738,-4.6773,-4.6723,-4.6673,-4.6437,-4.6235,-4.5883,-4.5649,-4.5456,-4.5245,-4.4944,-4.4775,-4.45,-4.4414,-4.4218,-4.4184,-4.4021,-4.3999,-4.3871,-4.391,-4.3817,-4.3842,-4.3748,-4.3793,-4.3732,-4.3814,-4.3743,-4.3819,-4.3783,-4.3892,-4.3844,-4.3933,-4.3867,-4.3946,-4.3909,-4.4002,-4.3931,-4.3994,-4.3928,-4.399,-4.3962,-4.4024,-4.3957,-4.4002,-4.3936,-4.4019,-4.3973,-4.3993,-4.3917,-4.3944,-4.3897,-4.393,-4.3878,-4.3942,-4.3971,-4.4122,-4.4236,-4.4402,-4.4534,-4.4634,-4.4619,-4.4735,-4.4771,-4.4652,-4.4232,-4.4202,-4.408,-4.4168,-4.4245,-4.4209,-4.431,-4.4381,-4.4217,-4.3947,-4.3842,-4.3777,-4.376,-4.3757,-4.3679,-4.3695,-4.37,-4.3722,-4.3683,-4.3673,-4.3748,-4.4677,-4.7215,-5.0345,-5.312,-5.6957,-5.8706,-5.7284,-4.6418,-3.2228,-2.2908,-2.0123,-2.1128,-2.3791,-2.8234,-3.2801,-3.7571,-4.0763,-4.3059,-4.3606,-4.4413,-4.4622,-4.5031,-4.5081,-4.538,-4.5365,-4.5588,-4.5611,-4.5856,-4.5839,-4.605,-4.6006,-4.6255,-4.6253,-4.6466,-4.6512,-4.6676,-4.6761,-4.6941,-4.6934,-4.7066,-4.7123,-4.7305,-4.7386,-4.7513,-4.758,-4.7686,-4.7737,-4.7907,-4.7936,-4.7978,-4.7992,-4.8054,-4.8072,-4.8104,-4.8085,-4.8068,-4.8054,-4.8056,-4.8042,-4.8019,-4.8021,-4.8037,-4.8141,-4.8263,-4.8383,-4.8515,-4.865,-4.8675,-4.8638,-4.8524,-4.8321,-4.8078,-4.7854,-4.763,-4.7409,-4.7159,-4.7054,-4.6864,-4.6739,-4.6634,-4.6523,-4.6453,-4.6406,-4.6324,-4.6311,-4.6275,-4.6273,-4.6285,-4.6299,-4.6326,-4.6344,-4.6366,-4.6424,-4.6465,-4.6502,-4.6526,-4.6545,-4.6589,-4.663,-4.6638,-4.6667,-4.6635,-4.6677,-4.6697,-4.6746,-4.675,-4.6717,-4.6709,-4.6727,-4.6713,-4.6704,-4.6706,-4.669,-4.6684,-4.6704,-4.6684,-4.667,-4.6614,-4.6635,-4.6641,-4.6651,-4.6603,-4.6591,-4.6548,-4.6596,-4.6603,-4.6619,-4.6671,-4.682,-4.6953,-4.7149,-4.7257,-4.7351,-4.7371,-4.7427,-4.7542,-4.7562,-4.7255,-4.7057,-4.6977,-4.7029,-4.7083,-4.7059,-4.7148,-4.7302,-4.7172,-4.6885,-4.6809,-4.6753,-4.672,-4.67,-4.6677,-4.6671,-4.6617,-4.6618,-4.6602,-4.6622,-4.6685,-4.762,-5.0085,-5.2966,-5.5572,-5.9253,-6.0907,-6.0113,-5.0434,-3.7386,-2.8779,-2.5493,-2.5282,-2.6909,-2.9032,-3.2976,-3.8046,-4.1605,-4.4562,-4.6042,-4.7099,-4.7192,-4.7686,-4.7724,-4.8096,-4.8026,-4.83,-4.8195,-4.8451,-4.8397,-4.8632,-4.8597,-4.8893,-4.8897,-4.9058,-4.9084,-4.9244,-4.921,-4.9413,-4.9479,-4.9662,-4.9614,-4.9772,-4.9809,-4.9922,-4.9913,-5.001,-4.9985,-5.0076,-5.0099,-5.0182,-5.0203,-5.0206,-5.017,-5.0156,-5.0174,-5.0149,-5.0087,-5.0072,-5.0067,-5.0082,-5.005,-4.9989,-5.0077,-5.0113,-5.0262,-5.0371,-5.054,-5.0671,-5.0747,-5.0707,-5.0637,-5.0491,-5.0337,-5.0061,-4.985,-4.9601,-4.9397,-4.9145,-4.9034,-4.885,-4.877,-4.8558,-4.8579,-4.8448,-4.8459,-4.8367,-4.8396,-4.837,-4.8445,-4.843,-4.8471,-4.8396,-4.8435,-4.8422,-4.8537,-4.8516,-4.8535,-4.8482,-4.8485,-4.8508,-4.8602,-4.8585,-4.8601,-4.8519,-4.8569,-4.862,-4.8605,-4.8557,-4.858,-4.8551,-4.8562,-4.8465,-4.8517,-4.8442,-4.8485,-4.8482,-4.85,-4.843,-4.846,-4.8417,-4.8449,-4.8395,-4.8437,-4.8393,-4.837,-4.8374,-4.8385,-4.8346,-4.8418,-4.8528,-4.8642,-4.8786,-4.889,-4.8989,-4.9081,-4.9097,-4.9183,-4.9137,-4.8849,-4.8615,-4.8566,-4.8572,-4.8661,-4.8645,-4.8704,-4.8838,-4.8789,-4.8697,-4.8503,-4.8427,-4.8395,-4.8351,-4.8342,-4.8267,-4.8244,-4.8266,-4.8251,-4.8231,-4.8303,-4.9268,-5.1693,-5.433,-5.6565,-5.9611,-6.1168,-6.0175,-5.2868,-4.6685,-3.8868,-3.2731,-3.1722,-2.9795,-3.1293,-3.4956,-3.8948,-4.2223,-4.5139,-4.6847,-4.828,-4.863,-4.8997,-4.914,-4.9433,-4.9502,-4.9698,-4.976,-4.9881,-4.9956,-5.0073,-5.0111,-5.0241,-5.0299,-5.0457,-5.0533,-5.0619,-5.0689,-5.0834,-5.0934,-5.1046,-5.1088,-5.1158,-5.1243,-5.1312,-5.1384,-5.1414,-5.1452,-5.1499,-5.1576,-5.1591,-5.162,-5.1585,-5.1594,-5.1606,-5.1607,-5.1563,-5.1543,-5.1486,-5.1448,-5.1383,-5.1352,-5.1306,-5.1366,-5.1412,-5.1579,-5.1609,-5.1757,-5.1804,-5.1905,-5.1866,-5.1823,-5.1636,-5.1473,-5.1222,-5.1092,-5.0805,-5.0618,-5.0357,-5.0229,-5.0065,-4.9973,-4.982,-4.9794,-4.9723,-4.9751,-4.9713,-4.9687,-4.9668,-4.9715,-4.9714,-4.9781,-4.9708,-4.9733,-4.971,-4.9793,-4.9771,-4.9796,-4.9752,-4.9779,-4.9762,-4.9812,-4.9764,-4.9791,-4.978,-4.9785,-4.9784,-4.9782,-4.9755,-4.9745,-4.9743,-4.9763,-4.9732,-4.9712,-4.9647,-4.9682,-4.9625,-4.9606,-4.957,-4.9566,-4.9542,-4.956,-4.9517,-4.9514,-4.9473,-4.9467,-4.9475,-4.9505,-4.9481,-4.9464,-4.9439,-4.9468,-4.9461,-4.9436,-4.9452,-4.9472,-4.9604,-4.9764,-4.9926,-5.0027,-5.01,-5.0147,-5.0171,-5.0175,-5.0146,-4.9882,-4.9749,-4.9697,-4.9608,-4.9688,-4.9727,-4.9801,-4.9854,-4.976,-4.9542,-4.9385,-4.9346,-4.9302,-4.926,-4.9203,-4.9195,-4.9174,-4.9184,-4.9145,-4.9125,-4.9111,-4.9699,-5.182,-5.5162,-5.7811,-6.1598,-6.3747,-6.352,-5.4346,-3.9963,-2.836,-2.4725,-2.5643,-2.7817,-3.2271,-3.6466,-3.9287,-4.3346,-4.6737,-4.8332,-4.9423,-4.9505,-5.0049,-4.9967,-5.0374,-5.0244,-5.0476,-5.0416,-5.074,-5.0647,-5.093,-5.0842,-5.1107,-5.1045,-5.1288,-5.1188,-5.1405,-5.1388,-5.1596,-5.1582,-5.1756,-5.1735,-5.1921,-5.1973,-5.2144,-5.2131,-5.2278,-5.2314,-5.245,-5.2489,-5.2566,-5.2593,-5.2618,-5.264,-5.2692,-5.2688,-5.2639,-5.2642,-5.2603,-5.261,-5.2596,-5.2584,-5.2572,-5.2635,-5.268,-5.2749,-5.2784,-5.2919,-5.2926,-5.2937,-5.277,-5.2648,-5.2366,-5.2282,-5.1933,-5.1706,-5.1364,-5.114,-5.0871,-5.074,-5.0519,-5.0413,-5.0239,-5.0226,-5.0079,-5.0089,-4.9924,-4.9919,-4.9855,-4.9898,-4.9843,-4.9853,-4.9806,-4.9882,-4.9833,-4.9918,-4.988,-4.9934,-4.9895,-5.0003,-4.9929,-5.0001,-4.9938,-4.9987,-4.9948,-5.0033,-4.9974,-4.9994,-4.9932,-4.9944,-4.99,-4.9945,-4.9835,-4.9848,-4.979,-4.9809,-4.975,-4.972,-4.9663,-4.9665,-4.9608,-4.9628,-4.9522,-4.9529,-4.9492,-4.9486,-4.9432,-4.9448,-4.9381,-4.9401,-4.9359,-4.9369,-4.9328,-4.9319,-4.9305,-4.9316,-4.9344,-4.9301,-4.9251,-4.9294,-4.9265,-4.9244,-4.9238,-4.9225,-4.9259,-4.9347,-4.9554,-4.9682,-4.978,-4.9861,-4.9904,-4.9901,-4.9887,-4.9945,-4.9747,-4.9552,-4.952,-4.9533,-4.9608,-4.9608,-4.9616,-4.96,-4.9483,-4.9262,-4.9186,-4.9049,-4.9029,-4.896,-4.8893,-4.8862,-4.8884,-4.8834,-4.8866,-4.8803,-4.8768,-4.9277,-5.127,-5.4507,-5.7197,-6.0895,-6.3301,-6.3458,-5.5527,-4.1543,-2.9599,-2.5139,-2.5363,-2.7266,-2.9519,-3.3306,-3.8737,-4.2796,-4.617,-4.7802,-4.8929,-4.908,-4.9591,-4.9555,-4.9921,-4.9827,-5.0141,-5.0058,-5.0362,-5.0257,-5.0508,-5.0408,-5.0694,-5.0576,-5.0836,-5.0781,-5.1001,-5.0967,-5.1161,-5.1154,-5.1352,-5.1306,-5.1486,-5.1504,-5.1679,-5.1658,-5.1787,-5.1788,-5.1899,-5.1916,-5.1972,-5.1953,-5.2009,-5.2013,-5.2044,-5.203,-5.2003,-5.197,-5.195,-5.1927,-5.1886,-5.1866,-5.1845,-5.1862,-5.1901,-5.1956,-5.2043,-5.2153,-5.2238,-5.2268,-5.2153,-5.2123,-5.1935,-5.1714,-5.1435,-5.1203,-5.0897,-5.0665,-5.041,-5.0259,-5.0052,-4.9943,-4.9769,-4.9701,-4.9575,-4.955,-4.9429,-4.9425,-4.9356,-4.9383,-4.9323,-4.9361,-4.9289,-4.9328,-4.9335,-4.9376,-4.9343,-4.9382,-4.9351,-4.9436,-4.942,-4.9456,-4.9393,-4.9456,-4.9425,-4.9456,-4.94,-4.9406,-4.9339,-4.9394,-4.9334,-4.9369,-4.9284,-4.9278,-4.9192,-4.9203,-4.9127,-4.9102,-4.9016,-4.9023,-4.8983,-4.9016,-4.8923,-4.8921,-4.8873,-4.8896,-4.8822,-4.8823,-4.8748,-4.8751,-4.87,-4.8721,-4.8707,-4.8697,-4.865,-4.8681,-4.8655,-4.8677,-4.8604,-4.86,-4.856,-4.8615,-4.858,-4.8573,-4.8577,-4.8581,-4.8519,-4.8512,-4.8477,-4.8476,-4.8439,-4.8442,-4.8468,-4.8461,-4.8431,-4.8438,-4.8435,-4.8447,-4.8399,-4.8438,-4.8457,-4.8538,-4.8684,-4.8816,-4.8827,-4.8979,-4.9028,-4.9039,-4.902,-4.9077,-4.9148,-4.8935,-4.8713,-4.8692,-4.8818,-4.8793,-4.8829,-4.8847,-4.871,-4.8471,-4.8375,-4.8365,-4.8302,-4.8226,-4.8175,-4.8127,-4.8141,-4.8125,-4.8078,-4.8003,-4.8061,-4.8707,-5.0789,-5.3751,-5.6181,-5.9726,-6.185,-6.1813,-5.439,-4.1329,-3.1412,-2.6979,-2.6612,-2.776,-3.1269,-3.3342,-3.8043,-4.2005,-4.4953,-4.6894,-4.7907,-4.8423,-4.862,-4.8938,-4.898,-4.9139,-4.917,-4.9387,-4.9399,-4.9578,-4.9571,-4.968,-4.9702,-4.9821,-4.9811,-4.9928,-5.0022,-5.016,-5.0201,-5.0327,-5.0372,-5.0474,-5.047,-5.0609,-5.0695,-5.0783,-5.0854,-5.0914,-5.0917,-5.1007,-5.0994,-5.1053,-5.106,-5.1131,-5.1135,-5.1082,-5.1039,-5.0978,-5.0965,-5.0996,-5.0913,-5.0835,-5.0808,-5.0827,-5.0934,-5.0953,-5.097,-5.1013,-5.115,-5.1213,-5.1291,-5.1149,-5.1003,-5.0908,-5.0682,-5.0448,-5.0166,-4.9904,-4.9688,-4.9501,-4.9372,-4.9229,-4.9031,-4.8854,-4.8833,-4.8693,-4.8645,-4.8603,-4.8577,-4.8549,-4.8563,-4.8545,-4.8607,-4.8524,-4.8561,-4.8573,-4.8558,-4.8493,-4.8516,-4.852,-4.8549,-4.8552,-4.8599,-4.8637,-4.8613,-4.857,-4.8517,-4.8411,-4.8404,-4.8419,-4.8449,-4.8421,-4.8389,-4.8368,-4.8341,-4.8341,-4.8288,-4.8251,-4.82,-4.8136,-4.8156,-4.8172,-4.8128,-4.8059,-4.8026,-4.8024,-4.8,-4.7977,-4.7969,-4.7973,-4.7998,-4.7972,-4.7969,-4.7883,-4.7857,-4.7853,-4.7854,-4.7865,-4.7807,-4.7808,-4.7823,-4.7825,-4.7819,-4.7784,-4.7777,-4.776,-4.774,-4.7749,-4.7742,-4.7764,-4.7829,-4.7963,-4.8066,-4.8175,-4.8227,-4.8351,-4.8428,-4.8406,-4.8405,-4.8462,-4.8232,-4.8043,-4.7959,-4.8113,-4.8075,-4.8033,-4.8149,-4.8127,-4.8077,-4.7844,-4.7731,-4.7687,-4.7622,-4.7576,-4.7526,-4.752,-4.7478,-4.7477,-4.7442,-4.7419,-4.7796,-4.9258,-5.2078,-5.4499,-5.7198,-6.0229,-6.0497,-5.7828,-5.2743,-4.1078,-3.2106,-2.8161,-2.7674,-2.8561,-3.11,-3.5452,-3.9468,-4.3068,-4.518,-4.6962,-4.7512,-4.8059,-4.8101,-4.8488,-4.8457,-4.8757,-4.8781,-4.9044,-4.8942,-4.9131,-4.9088,-4.93,-4.9275,-4.9505,-4.946,-4.972,-4.9701,-4.9856,-4.9871,-4.9998,-5.0003,-5.0146,-5.0274,-5.0378,-5.0347,-5.0426,-5.0407,-5.0553,-5.0652,-5.0706,-5.0665,-5.0737,-5.0776,-5.0803,-5.0707,-5.076,-5.0703,-5.0687,-5.0651,-5.0661,-5.0572,-5.0525,-5.0514,-5.0491,-5.0487,-5.0491,-5.0578,-5.0603,-5.0697,-5.0734,-5.0661,-5.0499,-5.0333,-5.0101,-4.9905,-4.96,-4.9378,-4.9159,-4.9006,-4.8757,-4.8607,-4.8452,-4.8391,-4.8306,-4.8348,-4.8203,-4.8178,-4.8109,-4.8147,-4.8074,-4.8108,-4.804,-4.809,-4.8048,-4.8114,-4.8051,-4.8066,-4.8059,-4.8079,-4.8036,-4.8135,-4.8016,-4.8087,-4.8028,-4.8078,-4.8012,-4.8038,-4.7967,-4.8001,-4.7945,-4.798,-4.7869,-4.7876,-4.7806,-4.7833,-4.7773,-4.7752,-4.7698,-4.7672,-4.7637,-4.7677,-4.7595,-4.7623,-4.7552,-4.7554,-4.7541,-4.7554,-4.7468,-4.7484,-4.7447,-4.7487,-4.7436,-4.7425,-4.7368,-4.739,-4.74,-4.7422,-4.7355,-4.7332,-4.735,-4.7363,-4.7349,-4.7296,-4.7261,-4.7249,-4.7258,-4.7244,-4.7213,-4.719,-4.7205,-4.7222,-4.7302,-4.7378,-4.7534,-4.7673,-4.7785,-4.7862,-4.7811,-4.782,-4.7898,-4.7728,-4.7594,-4.7534,-4.7401,-4.7488,-4.7511,-4.7552,-4.7595,-4.7472,-4.7314,-4.7163,-4.7084,-4.6987,-4.6917,-4.682,-4.6794,-4.6814,-4.6795,-4.6734,-4.6717,-4.668,-4.7037,-4.857,-5.1668,-5.4319,-5.7797,-6.0701,-6.1558,-5.6009,-4.2735,-2.9426,-2.3421,-2.2976,-2.4547,-2.8253,-3.2457,-3.7597,-4.1726,-4.4399,-4.4488,-4.6046,-4.6894,-4.7205,-4.7566,-4.7584,-4.7896,-4.7847,-4.8099,-4.8055,-4.8273,-4.8219,-4.8459,-4.8421,-4.8633,-4.8593,-4.8769,-4.8775,-4.8994,-4.895,-4.9133,-4.9079,-4.9252,-4.9264,-4.9435,-4.9413,-4.9569,-4.9584,-4.9749,-4.9758,-4.9846,-4.9883,-5.0006,-4.9997,-5.0058,-5.0068,-5.0109,-5.009,-5.0128,-5.0085,-5.0076,-5.0005,-5.0011,-4.997,-5.0005,-5.0009,-5.0048,-5.0097,-5.0157,-5.0178,-5.02,-5.0119,-5.0008,-4.9828,-4.9589,-4.9339,-4.9026,-4.8871,-4.8608,-4.8374,-4.8202,-4.7975,-4.7838,-4.7677,-4.758,-4.7488,-4.7375,-4.7312,-4.7259,-4.7241,-4.7206,-4.7175,-4.7125,-4.7123,-4.7166,-4.7161,-4.7171,-4.7163,-4.7136,-4.7194,-4.7168,-4.7185,-4.7178,-4.7166,-4.7162,-4.7201,-4.714,-4.7143,-4.7148,-4.7137,-4.7119,-4.7111,-4.705,-4.7029,-4.697,-4.6986,-4.6947,-4.6956,-4.6876,-4.6903,-4.6885,-4.6866,-4.6831,-4.681,-4.6739,-4.6743,-4.6694,-4.668,-4.6615,-4.6608,-4.6548,-4.6574,-4.6521,-4.6506,-4.6482,-4.6514,-4.6456,-4.6492,-4.6448,-4.6427,-4.6421,-4.6433,-4.6392,-4.6388,-4.6344,-4.6397,-4.6388,-4.6373,-4.6374,-4.6459,-4.6605,-4.6792,-4.6894,-4.6959,-4.698,-4.6982,-4.6981,-4.7047,-4.6858,-4.6666,-4.6587,-4.6573,-4.6654,-4.6659,-4.668,-4.6705,-4.6542,-4.6323,-4.6179,-4.6096,-4.6021,-4.6,-4.5961,-4.5971,-4.5905,-4.5911,-4.5873,-4.5842,-4.59,-4.6649,-4.8892,-5.1959,-5.4544,-5.8274,-6.0128,-5.9703,-5.054,-3.6724,-2.645,-2.2812,-2.3089,-2.5007,-2.7232,-3.1236,-3.6602,-4.0367,-4.3459,-4.4993,-4.5997,-4.6134,-4.658,-4.6522,-4.6905,-4.6848,-4.7136,-4.7035,-4.7268,-4.7207,-4.7418,-4.7367,-4.7595,-4.7508,-4.7709,-4.764,-4.7832,-4.781,-4.8035,-4.8062,-4.827,-4.8211,-4.834,-4.8361,-4.8478,-4.849,-4.859,-4.8613,-4.8728,-4.8751,-4.8837,-4.8804,-4.8834,-4.8848,-4.8867,-4.8877,-4.887,-4.8786,-4.8787,-4.8708,-4.8701,-4.8676,-4.8656,-4.8651,-4.8642,-4.872,-4.8748,-4.8867,-4.8913,-4.8951,-4.8891,-4.8795,-4.8679,-4.8471,-4.8183,-4.8018,-4.7703,-4.7464,-4.7142,-4.6998,-4.68,-4.6713,-4.6561,-4.6469,-4.6308,-4.6279,-4.6191,-4.6193,-4.6107,-4.6041,-4.602,-4.6093,-4.6068,-4.6072,-4.6045,-4.6104,-4.6057,-4.6104,-4.6026,-4.6053,-4.6033,-4.6074,-4.6035,-4.6088,-4.6014,-4.6086,-4.6,-4.6026,-4.5965,-4.5966,-4.5932,-4.5952,-4.5901,-4.5861,-4.5841,-4.588,-4.5848,-4.584,-4.5782,-4.5746,-4.57,-4.5676,-4.563,-4.5604,-4.5532,-4.554,-4.5492,-4.5545,-4.5495,-4.5488,-4.5427,-4.5401,-4.5366,-4.541,-4.5344,-4.5327,-4.5258,-4.5312,-4.5303,-4.5287,-4.5279,-4.5281,-4.5309,-4.5287,-4.5294,-4.5381,-4.5525,-4.5736,-4.5777,-4.5858,-4.5832,-4.5845,-4.5896,-4.5909,-4.5626,-4.5481,-4.5414,-4.5409,-4.5521,-4.5429,-4.5497,-4.5568,-4.5538,-4.5294,-4.5155,-4.5034,-4.4952,-4.4908,-4.4912,-4.4885,-4.4836,-4.4808,-4.4852,-4.4842,-4.5204,-4.6876,-4.9742,-5.1881,-5.4711,-5.7483,-5.7277,-5.4203,-4.3584,-3.4695,-2.8909,-2.7524,-2.6546,-2.6344,-2.9498,-3.3157,-3.7359,-4.0111,-4.2648,-4.3919,-4.4965,-4.5002,-4.548,-4.5402,-4.5775,-4.5711,-4.5993,-4.5886,-4.6156,-4.6093,-4.6362,-4.6243,-4.6461,-4.6406,-4.663,-4.6565,-4.6756,-4.667,-4.6874,-4.687,-4.7084,-4.7037,-4.7177,-4.7174,-4.7316,-4.7348,-4.748,-4.7424,-4.7527,-4.7522,-4.76,-4.7579,-4.7601,-4.7606,-4.7628,-4.7585,-4.7594,-4.7523,-4.7499,-4.7454,-4.743,-4.7388,-4.7376,-4.7368,-4.7329,-4.7427,-4.75,-4.7567,-4.761,-4.7644,-4.7591,-4.7581,-4.7391,-4.7222,-4.6978,-4.6797,-4.6541,-4.6345,-4.6089,-4.5939,-4.5775,-4.5718,-4.5534,-4.5503,-4.5352,-4.537,-4.53,-4.5334,-4.5225,-4.5273,-4.5231,-4.5289,-4.5264,-4.5255,-4.5196,-4.5255,-4.5213,-4.5271,-4.5203,-4.5243,-4.5192,-4.5216,-4.5151,-4.5177,-4.5114,-4.5158,-4.5111,-4.5148,-4.5088,-4.5089,-4.5043,-4.5074,-4.5004,-4.5033,-4.4925,-4.4952,-4.4903,-4.4935,-4.4841,-4.4871,-4.4819,-4.4822,-4.4768,-4.4799,-4.4746,-4.475,-4.4691,-4.475,-4.4713,-4.4694,-4.4624,-4.4645,-4.4636,-4.4681,-4.4612,-4.4626,-4.4601,-4.4667,-4.4754,-4.4903,-4.5063,-4.5199,-4.525,-4.5309,-4.5315,-4.537,-4.5346,-4.5117,-4.492,-4.4821,-4.4731,-4.4844,-4.4902,-4.4871,-4.5003,-4.4927,-4.4688,-4.4517,-4.4483,-4.4376,-4.4318,-4.4289,-4.4255,-4.4275,-4.4214,-4.4176,-4.417,-4.4327,-4.5536,-4.8361,-5.1286,-5.423,-5.77,-5.8892,-5.591,-4.3758,-2.9639,-2.1629,-2.0017,-2.1463,-2.453,-2.885,-3.3797,-3.8251,-4.1269,-4.2522,-4.3788,-4.453,-4.4648,-4.5081,-4.5083,-4.5344,-4.5329,-4.5569,-4.5522,-4.5743,-4.5629,-4.5875,-4.5878,-4.6082,-4.605,-4.6231,-4.6239,-4.6438,-4.6398,-4.6559,-4.6586,-4.6714,-4.675,-4.6906,-4.696,-4.7085,-4.7111,-4.7274,-4.7342,-4.742,-4.7446,-4.7511,-4.757,-4.7627,-4.7673,-4.7676,-4.7684,-4.7665,-4.7676,-4.7662,-4.7646,-4.7577,-4.762,-4.7603,-4.7639,-4.7615,-4.7675,-4.7699,-4.778,-4.7773,-4.7735,-4.7565,-4.74,-4.7119,-4.6882,-4.6562,-4.6446,-4.6146,-4.5914,-4.5657,-4.5525,-4.5283,-4.5174,-4.5,-4.495,-4.4842,-4.4805,-4.471,-4.4719,-4.4652,-4.4645,-4.4567,-4.4567,-4.4538,-4.4631,-4.458,-4.461,-4.4547,-4.4616,-4.4587,-4.4628,-4.4601,-4.4622,-4.4553,-4.4606,-4.456,-4.4561,-4.449,-4.4495,-4.4466,-4.4478,-4.4438,-4.4373,-4.4337,-4.4363,-4.4347,-4.4332,-4.428,-4.427,-4.424,-4.4257,-4.4233,-4.4174,-4.4134,-4.4118,-4.4089,-4.4089,-4.4028,-4.4024,-4.3965,-4.3996,-4.3969,-4.3933,-4.391,-4.3921,-4.3881,-4.3894,-4.3876,-4.3922,-4.4009,-4.4179,-4.4338,-4.4443,-4.4465,-4.4494,-4.4521,-4.4579,-4.4355,-4.4114,-4.3957,-4.3918,-4.3995,-4.4053,-4.4012,-4.4081,-4.4143,-4.4025,-4.3762,-4.3634,-4.3565,-4.3509,-4.3501,-4.3458,-4.3427,-4.3369,-4.3381,-4.335,-4.349,-4.467,-4.7439,-5.0259,-5.3184,-5.5332,-5.754,-5.7814,-5.0257,-3.6808,-2.5167,-2.0554,-2.0347,-2.2083,-2.5955,-3.0537,-3.5286,-3.9023,-4.1505,-4.2949,-4.3547,-4.3833,-4.4088,-4.4213,-4.4303,-4.4399,-4.4544,-4.4585,-4.47,-4.4742,-4.4863,-4.4899,-4.501,-4.5081,-4.5206,-4.5298,-4.5386,-4.5426,-4.5522,-4.5552,-4.5713,-4.5767,-4.5873,-4.5902,-4.6002,-4.6107,-4.6201,-4.6253,-4.6298,-4.6369,-4.6448,-4.6513,-4.6581,-4.6567,-4.6581,-4.6597,-4.6612,-4.6558,-4.6572,-4.6489,-4.6506,-4.6486,-4.6505,-4.6461,-4.6492,-4.6538,-4.6629,-4.6669,-4.6705,-4.6659,-4.6615,-4.6467,-4.6274,-4.5995,-4.5724,-4.5444,-4.5192,-4.4944,-4.4712,-4.4503,-4.4357,-4.4257,-4.4128,-4.3985,-4.3905,-4.3837,-4.3816,-4.3761,-4.3714,-4.3693,-4.3664,-4.3688,-4.3711,-4.3689,-4.3687,-4.3669,-4.3696,-4.3691,-4.367,-4.3672,-4.3645,-4.3632,-4.3635,-4.3614,-4.3605,-4.3567,-4.3522,-4.3532,-4.3504,-4.347,-4.3459,-4.3439,-4.3418,-4.3397,-4.3339,-4.3301,-4.3278,-4.3291,-4.3289,-4.3259,-4.3227,-4.3226,-4.3184,-4.315,-4.31,-4.3091,-4.3057,-4.3035,-4.2995,-4.2969,-4.2934,-4.2914,-4.294,-4.2957,-4.2905,-4.2888,-4.2938,-4.3058,-4.32,-4.3286,-4.3385,-4.3498,-4.3527,-4.3554,-4.3589,-4.3601,-4.3313,-4.3131,-4.3058,-4.3053,-4.3132,-4.3145,-4.315,-4.3267,-4.3113,-4.2889,-4.2757,-4.2625,-4.261,-4.2559,-4.2509,-4.2485,-4.2474,-4.2476,-4.2407,-4.2357,-4.2648,-4.4341,-4.7293,-4.9681,-5.2881,-5.5831,-5.6186,-5.2213,-4.0105,-2.8789,-2.2677,-2.1536,-2.111,-2.2608,-2.6638,-3.0993,-3.5309,-3.8515,-4.0838,-4.201,-4.2639,-4.2765,-4.3072,-4.3152,-4.341,-4.3382,-4.3598,-4.354,-4.3726,-4.3709,-4.3826,-4.3815,-4.4016,-4.4022,-4.4166,-4.4136,-4.4285,-4.4301,-4.4488,-4.4517,-4.461,-4.4627,-4.4786,-4.4842,-4.4987,-4.4941,-4.4975,-4.5026,-4.5129,-4.5154,-4.5231,-4.5279,-4.528,-4.5293,-4.5305,-4.5314,-4.5263,-4.521,-4.5185,-4.5191,-4.5204,-4.5184,-4.5137,-4.5148,-4.5164,-4.5269,-4.5304,-4.5348,-4.5377,-4.5408,-4.5374,-4.5248,-4.5086,-4.4926,-4.4647,-4.4409,-4.4118,-4.3903,-4.3666,-4.3544,-4.3358,-4.3203,-4.3117,-4.305,-4.2895,-4.2872,-4.283,-4.2857,-4.2783,-4.2814,-4.2819,-4.2867,-4.2836,-4.2816,-4.2787,-4.2846,-4.276,-4.275,-4.2724,-4.2747,-4.2721,-4.2702,-4.2661,-4.2676,-4.2646,-4.2662,-4.261,-4.2568,-4.2488,-4.2514,-4.2471,-4.2492,-4.2415,-4.2387,-4.2365,-4.2396,-4.2362,-4.2348,-4.2322,-4.2306,-4.2249,-4.2247,-4.2237,-4.2204,-4.2143,-4.2205,-4.2205,-4.2169,-4.2156,-4.222,-4.2326,-4.2421,-4.2526,-4.2613,-4.2716,-4.2729,-4.2779,-4.289,-4.288,-4.2561,-4.2317,-4.2254,-4.2268,-4.2335,-4.2312,-4.2355,-4.2477,-4.2501,-4.2302,-4.2105,-4.1979,-4.1941,-4.187,-4.1838,-4.1785,-4.1778,-4.1753,-4.1726,-4.1732,-4.2368,-4.4498,-4.7202,-4.923,-5.2123,-5.3591,-5.3957,-5.259,-4.3291,-3.3786,-2.734,-2.5213,-2.3465,-2.4093,-2.767,-3.1205,-3.4932,-3.768,-3.9929,-4.1266,-4.2041,-4.2144,-4.2495,-4.2519,-4.2779,-4.2809,-4.2908,-4.2791,-4.301,-4.3088,-4.3305,-4.3288,-4.3423,-4.3364,-4.3525,-4.355,-4.3736,-4.3776,-4.3959,-4.3947,-4.4044,-4.4066,-4.4219,-4.4278,-4.445,-4.451,-4.4543,-4.4596,-4.4672,-4.4716,-4.4819,-4.4936,-4.506,-4.5035,-4.4911,-4.493,-4.4971,-4.4892,-4.4862,-4.487,-4.4821,-4.4733,-4.4672,-4.4672,-4.4694,-4.4862,-4.4889,-4.4912,-4.4807,-4.4748,-4.453,-4.4422,-4.4256,-4.4119,-4.3809,-4.3615,-4.3471,-4.3373,-4.3207,-4.31,-4.2913,-4.2838,-4.2487,-4.2254,-4.2169,-4.2266,-4.2419,-4.24,-4.2312,-4.2324,-4.229,-4.2563,-4.2684,-4.2409,-4.2153,-4.2337,-4.2314,-4.2197,-4.2166,-4.2274,-4.2391,-4.2498,-4.2502,-4.2374,-4.2113,-4.2219,-4.2303,-4.2415,-4.2418,-4.2587,-4.2383,-4.226,-4.2203,-4.23,-4.2482,-4.2396,-4.1972,-4.1836,-4.1797,-4.1906,-4.2014,-4.213,-4.2084,-4.199,-4.199,-4.1979,-4.2021,-4.1911,-4.1862,-4.1935,-4.2036,-4.1959,-4.1884,-4.2034,-4.2214,-4.2477,-4.2598,-4.2448,-4.2447,-4.2538,-4.2621,-4.2224,-4.1786,-4.1482,-4.1553,-4.1821,-4.2041,-4.2223,-4.22,-4.167,-4.1335,-4.1526,-4.153,-4.1294,-4.1175,-4.1243,-4.1402,-4.122,-4.1069,-4.0966,-4.1374,-4.2544,-4.5062,-4.7827,-5.0291,-5.3887,-5.5287,-5.3642,-4.2717,-2.8977,-2.0032,-1.7382,-1.8419,-2.0958,-2.5298,-3.0044,-3.4586,-3.6273,-3.8577,-3.9815,-4.0476,-4.0562,-4.0884,-4.1378,-4.1725,-4.2028,-4.2486,-4.2727,-4.2615,-4.2351,-4.2547,-4.2933,-4.3405,-4.3437,-4.332,-4.3069,-4.3226,-4.3543,-4.3602,-4.3463,-4.3329,-4.337,-4.3746,-4.4178,-4.4282,-4.4077,-4.4305,-4.4362,-4.4425,-4.4413,-4.455,-4.4547,-4.4555,-4.4793,-4.4893,-4.4826,-4.4676,-4.4616,-4.4614,-4.4634,-4.462,-4.456,-4.4599,-4.4942,-4.4878,-4.4591,-4.4625,-4.4737,-4.4788,-4.4731,-4.4494,-4.4236,-4.3844,-4.3537,-4.3434,-4.3347,-4.2988,-4.2842,-4.2651,-4.2517,-4.2084,-4.1733,-4.1813,-4.1876,-4.1588,-4.1535,-4.1453,-4.1389,-4.1413,-4.1385,-4.1274,-4.128,-4.1415,-4.1405,-4.1489,-4.1513,-4.1308,-4.1176,-4.1135,-4.1341,-4.1622,-4.1454,-4.1311,-4.126,-4.1373,-4.135,-4.136,-4.1376,-4.1295,-4.1185,-4.1252,-4.1083,-4.1205,-4.1353,-4.1346,-4.1119,-4.0878,-4.0909,-4.0962,-4.1344,-4.1366,-4.0968,-4.0659,-4.0754,-4.0748,-4.0656,-4.0637,-4.0793,-4.1035,-4.1178,-4.1039,-4.1064,-4.1235,-4.1608,-4.169,-4.1271,-4.1165,-4.1653,-4.1878,-4.154,-4.1246,-4.099,-4.0674,-4.0732,-4.0818,-4.1167,-4.1495,-4.1096,-4.0524,-4.0431,-4.0515,-4.0628,-4.065,-4.0691,-4.0519,-4.0241,-4.0102,-4.0322,-4.0394,-4.1055,-4.2821,-4.5633,-4.8062,-5.1941,-5.4759,-5.5063,-4.8255,-3.4582,-2.2657,-1.7504,-1.73,-1.8114,-2.1152,-2.5061,-2.9978,-3.4303,-3.7468,-3.934,-4.037,-4.0731,-4.1046,-4.1259,-4.1375,-4.1455,-4.1649,-4.1745,-4.1993,-4.2082,-4.2091,-4.1947,-4.1827,-4.2047,-4.2229,-4.2398,-4.2419,-4.2507,-4.2812,-4.2856,-4.2658,-4.2681,-4.2954,-4.3118,-4.326,-4.3267,-4.3375,-4.3335,-4.3392,-4.3613,-4.3865,-4.3958,-4.3721,-4.3658,-4.3688,-4.3798,-4.3838,-4.3694,-4.3756,-4.3768,-4.3655,-4.3614,-4.3787,-4.39,-4.4076,-4.4015,-4.3819,-4.3787,-4.3808,-4.3802,-4.3807,-4.3626,-4.3555,-4.3497,-4.3319,-4.2745,-4.2235,-4.2024,-4.1906,-4.207,-4.1967,-4.1518,-4.133,-4.1273,-4.1068,-4.1172,-4.105,-4.084,-4.0739,-4.0708,-4.08,-4.0946,-4.0972,-4.0988,-4.0917,-4.103,-4.116,-4.1126,-4.0873,-4.0901,-4.0896,-4.0804,-4.0791,-4.0764,-4.0861,-4.0961,-4.079,-4.0753,-4.0761,-4.089,-4.1027,-4.0913,-4.0712,-4.0518,-4.0459,-4.0613,-4.0689,-4.0773,-4.063,-4.0555,-4.0619,-4.0438,-4.0228,-4.0361,-4.0664,-4.0635,-4.0388,-4.027,-4.0214,-4.0343,-4.0367,-4.0454,-4.0801,-4.1158,-4.1313,-4.1017,-4.0781,-4.0974,-4.119,-4.0719,-4.0441,-4.0371,-4.0435,-4.0645,-4.064,-4.0599,-4.0593,-4.0545,-4.038,-4.0185,-4.0077,-3.9987,-3.9941,-4.0111,-4.0047,-3.9905,-3.9698,-3.9716,-3.9798,-4.053,-4.2598,-4.5474,-4.7646,-5.1211,-5.3779,-5.3733,-5.1891,-4.101,-2.8888,-2.146,-1.9248,-1.9052,-2.0882,-2.5075,-2.9475,-3.3643,-3.6659,-3.8849,-3.9798,-4.0304,-4.0431,-4.0721,-4.0555,-4.0701,-4.066,-4.0977,-4.0891,-4.0998,-4.0904,-4.1135,-4.1222,-4.1429,-4.1545,-4.1676,-4.1774,-4.1861,-4.176,-4.2,-4.1986,-4.2217,-4.2283,-4.2326,-4.2137,-4.2156,-4.2184,-4.2326,-4.2557,-4.2664,-4.2685,-4.2766,-4.2769,-4.274,-4.2732,-4.2623,-4.2638,-4.2747,-4.2758,-4.2604,-4.251,-4.2462,-4.247,-4.2497,-4.2447,-4.2469,-4.254,-4.2601,-4.2789,-4.3162,-4.307,-4.271,-4.2663,-4.2405,-4.2093,-4.1843,-4.1657,-4.1516,-4.1251,-4.0948,-4.0962,-4.081,-4.071,-4.0592,-4.0577,-4.0324,-4.022,-4.0133,-4.0262,-4.0442,-4.0451,-4.0248,-4.0269,-4.0214,-4.03,-4.0278,-4.0292,-4.0251,-4.0284,-4.0173,-4.0359,-4.0548,-4.0322,-4.0131,-4.0182,-4.0165,-4.0185,-4.0242,-4.0262,-4.0068,-4.0018,-3.9947,-3.9851,-3.9861,-3.9898,-3.9948,-4.0004,-3.9929,-3.9939,-3.9909,-3.9876,-3.9803,-3.9854,-3.9869,-3.9735,-3.9492,-3.977,-4.0022,-4.0082,-3.9989,-4.0013,-4.0169,-4.0366,-4.0517,-4.0626,-4.0446,-4.0032,-3.9801,-4,-4.0103,-3.9895,-3.9792,-3.9744,-3.9868,-3.9996,-3.982,-3.9707,-3.9531,-3.9408,-3.9452,-3.9547,-3.9446,-3.9362,-3.9256,-3.9369,-3.945,-3.9969,-4.1821,-4.4452,-4.6717,-4.8233,-5.1149,-5.1803,-5.042,-4.178,-3.1786,-2.5382,-2.2765,-2.121,-2.1563,-2.5014,-2.8405,-3.2447,-3.5166,-3.7539,-3.878,-3.9633,-3.9579,-3.9941,-3.9757,-4.0284,-4.0236,-4.0327,-4.0327,-4.0618,-4.0634,-4.0946,-4.0937,-4.1074,-4.0995,-4.108,-4.104,-4.1304,-4.1415,-4.1474,-4.1566,-4.1759,-4.1644,-4.1685,-4.1619,-4.1954,-4.2078,-4.2163,-4.2033,-4.2036,-4.2149,-4.2265,-4.2243,-4.2229,-4.2382,-4.2362,-4.2288,-4.2277,-4.2434,-4.2233,-4.2009,-4.1958,-4.2147,-4.2126,-4.2182,-4.2061,-4.2134,-4.2166,-4.2322,-4.2397,-4.2486,-4.216,-4.2009,-4.1721,-4.1542,-4.1399,-4.151,-4.1305,-4.0694,-4.0174,-4.0291,-4.0318,-4.0339,-4.0137,-4.0152,-4.0047,-3.9985,-3.9703,-3.9765,-3.9909,-4.022,-4.0012,-3.9839,-3.9844,-3.9979,-3.988,-3.9869,-3.996,-3.9924,-3.9779,-4.0044,-4.0017,-3.9931,-3.9681,-3.9746,-3.9707,-3.9829,-4.0026,-4.0026,-3.9672,-3.9594,-3.9539,-3.9684,-3.9744,-3.9805,-3.9655,-3.9583,-3.9372,-3.9555,-3.9591,-3.961,-3.957,-3.9754,-3.9635,-3.9407,-3.9188,-3.9289,-3.9375,-3.9622,-3.9624,-3.9529,-3.9453,-3.9718,-4.0025,-4.0166,-4.0133,-4.0105,-4.0068,-4.0029,-4.0029,-3.9837,-3.9789,-3.9561,-3.9476,-3.9442,-3.9571,-3.9884,-3.9966,-3.9543,-3.9264,-3.9229,-3.9138,-3.9014,-3.9044,-3.9081,-3.9022,-3.891,-3.8876,-3.8905,-3.9046,-3.9681,-4.2025,-4.507,-4.7781,-5.1442,-5.3364,-5.2626,-4.305,-2.8943,-1.8746,-1.5223,-1.5932,-1.8087,-2.2553,-2.7019,-3.1819,-3.5375,-3.7859,-3.8365,-3.9155,-3.9429,-3.9765,-3.9879,-3.9956,-3.9954,-4.0267,-4.027,-4.0554,-4.0537,-4.0729,-4.068,-4.088,-4.1107,-4.1377,-4.1298,-4.119,-4.1086,-4.1112,-4.1091,-4.1272,-4.1435,-4.1947,-4.2085,-4.1975,-4.1803,-4.2042,-4.2239,-4.241,-4.2358,-4.2405,-4.233,-4.242,-4.2528,-4.259,-4.2474,-4.2428,-4.244,-4.2522,-4.2669,-4.2755,-4.2669,-4.2567,-4.2451,-4.2394,-4.2441,-4.2662,-4.2765,-4.2754,-4.2668,-4.2534,-4.2308,-4.2074,-4.1836,-4.1833,-4.1476,-4.1155,-4.0645,-4.0202,-4.0242,-4.0121,-4.0095,-4.0005,-3.9863,-3.9608,-3.9635,-3.9501,-3.9513,-3.9511,-3.9762,-3.9887,-3.9637,-3.931,-3.9346,-3.9309,-3.9506,-3.9682,-3.9693,-3.9412,-3.9471,-3.9479,-3.9507,-3.9469,-3.9575,-3.9513,-3.9435,-3.9403,-3.9529,-3.9509,-3.9475,-3.9402,-3.948,-3.9592,-3.9429,-3.9226,-3.9157,-3.9155,-3.9162,-3.9089,-3.9187,-3.9102,-3.9124,-3.9019,-3.9109,-3.9258,-3.9123,-3.9024,-3.8897,-3.8748,-3.8802,-3.8881,-3.9088,-3.9097,-3.9195,-3.9284,-3.9379,-3.9365,-3.9465,-3.9587,-3.9925,-3.9748,-3.9194,-3.8817,-3.8869,-3.893,-3.9092,-3.915,-3.9344,-3.938,-3.9052,-3.8662,-3.8685,-3.8557,-3.852,-3.8523,-3.866,-3.844,-3.8274,-3.8287,-3.8348,-3.8357,-3.8704,-4.0274,-4.3175,-4.584,-4.9318,-5.242,-5.3095,-4.8272,-3.5255,-2.2371,-1.6306,-1.5421,-1.5518,-1.7872,-2.2013,-2.6947,-3.1614,-3.4926,-3.6989,-3.818,-3.8774,-3.9132,-3.929,-3.937,-3.9461,-3.9495,-3.9695,-3.9716,-3.9649,-3.9725,-3.9813,-3.9895,-4.0019,-4.0211,-4.0391,-4.0495,-4.0711,-4.0827,-4.0749,-4.065,-4.0601,-4.0948,-4.1321,-4.1188,-4.102,-4.1065,-4.1163,-4.1299,-4.1472,-4.1587,-4.168,-4.17,-4.1626,-4.1747,-4.1718,-4.1756,-4.1853,-4.1842,-4.1735,-4.1416,-4.1306,-4.1285,-4.1303,-4.1427,-4.1564,-4.1785,-4.1893,-4.2007,-4.1972,-4.1943,-4.1766,-4.1799,-4.1431,-4.0899,-4.0481,-4.0273,-4.0101,-3.9863,-3.9641,-3.945,-3.9272,-3.9183,-3.9102,-3.903,-3.895,-3.8944,-3.898,-3.9001,-3.8973,-3.8819,-3.8642,-3.8721,-3.879,-3.883,-3.8768,-3.8689,-3.8743,-3.8809,-3.8662,-3.8583,-3.8711,-3.8962,-3.895,-3.8806,-3.8741,-3.8786,-3.8801,-3.8691,-3.8558,-3.8476,-3.8444,-3.8456,-3.8608,-3.8587,-3.8467,-3.8441,-3.8366,-3.8321,-3.8242,-3.8172,-3.816,-3.8211,-3.8351,-3.8323,-3.84,-3.8525,-3.8581,-3.8331,-3.791,-3.7796,-3.7867,-3.8002,-3.8026,-3.8048,-3.8023,-3.802,-3.8158,-3.845,-3.8736,-3.8701,-3.8517,-3.8544,-3.8745,-3.8708,-3.8628,-3.8486,-3.826,-3.8187,-3.8107,-3.813,-3.8229,-3.8198,-3.8322,-3.8312,-3.8077,-3.7858,-3.7762,-3.7867,-3.7879,-3.7802,-3.7731,-3.7539,-3.7418,-3.7444,-3.7554,-3.77,-3.8545,-4.0949,-4.3733,-4.6378,-5.0215,-5.1934,-5.0971,-4.0801,-2.7402,-1.8829,-1.5709,-1.5754,-1.7742,-2.1924,-2.6429,-3.0695,-3.382,-3.5232,-3.6759,-3.7821,-3.7886,-3.823,-3.8115,-3.8516,-3.8493,-3.8696,-3.8503,-3.8746,-3.888,-3.9209,-3.9041,-3.923,-3.9194,-3.9312,-3.9442,-3.966,-3.9552,-3.9698,-3.9764,-3.9736,-3.957,-3.9926,-4.0003,-4.0105,-4.0022,-4.0137,-4.0132,-4.0301,-4.0447,-4.0729,-4.0697,-4.053,-4.0356,-4.0369,-4.0631,-4.0644,-4.0433,-4.0512,-4.0476,-4.0306,-4.021,-4.0121,-4.0147,-4.0131,-4.0281,-4.0406,-4.0658,-4.0956,-4.1008,-4.0874,-4.0723,-4.0294,-3.9867,-3.9506,-3.9371,-3.9145,-3.8986,-3.8792,-3.8624,-3.8383,-3.8292,-3.8158,-3.8238,-3.8244,-3.8188,-3.8073,-3.806,-3.7886,-3.7861,-3.7796,-3.7766,-3.7612,-3.7745,-3.7686,-3.7815,-3.7755,-3.7635,-3.7587,-3.7669,-3.7943,-3.7989,-3.7743,-3.7734,-3.7857,-3.8009,-3.7713,-3.7528,-3.7312,-3.7343,-3.7431,-3.7511,-3.7452,-3.7362,-3.7333,-3.7516,-3.7511,-3.7384,-3.7153,-3.7129,-3.7153,-3.7333,-3.7403,-3.7454,-3.7114,-3.6939,-3.6935,-3.7114,-3.7221,-3.714,-3.7191,-3.7184,-3.7013,-3.7001,-3.6941,-3.6839,-3.6912,-3.7031,-3.7249,-3.7399,-3.747,-3.75,-3.7605,-3.7774,-3.7604,-3.7555,-3.7437,-3.7403,-3.7478,-3.7224,-3.7153,-3.7164,-3.7082,-3.6937,-3.7025,-3.704,-3.699,-3.6999,-3.7088,-3.6988,-3.6633,-3.6435,-3.6543,-3.6853,-3.7018,-3.6769,-3.6544,-3.7353,-3.9782,-4.2464,-4.4802,-4.6448,-4.9194,-4.9099,-4.608,-3.5502,-2.622,-2.0338,-1.8783,-1.8004,-1.9159,-2.3637,-2.7279,-3.0999,-3.3335,-3.5318,-3.6095,-3.6812,-3.6843,-3.7413,-3.7137,-3.7701,-3.7448,-3.7782,-3.7594,-3.7923,-3.7906,-3.8306,-3.8092,-3.8391,-3.8542,-3.8883,-3.8606,-3.8737,-3.8628,-3.8703,-3.8764,-3.9114,-3.9148,-3.9312,-3.9293,-3.9415,-3.9263,-3.9259,-3.93,-3.9547,-3.9765,-3.9875,-3.9699,-3.9485,-3.9541,-3.9616,-3.9723,-3.9782,-3.9656,-3.9451,-3.9364,-3.9368,-3.9321,-3.9336,-3.9526,-3.9596,-3.9585,-3.953,-3.9685,-3.9639,-3.9603,-3.95,-3.9539,-3.9241,-3.8874,-3.8549,-3.8426,-3.8196,-3.8103,-3.7843,-3.7791,-3.7653,-3.756,-3.7281,-3.7234,-3.7109,-3.7206,-3.7168,-3.7304,-3.7285,-3.738,-3.7114,-3.7045,-3.7044,-3.7301,-3.7217,-3.726,-3.701,-3.7088,-3.7059,-3.7042,-3.6951,-3.7056,-3.7246,-3.7378,-3.7147,-3.6953,-3.6875,-3.6922,-3.6854,-3.6854,-3.6791,-3.6974,-3.6903,-3.7071,-3.6823,-3.6735,-3.6619,-3.6735,-3.6709,-3.6838,-3.6978,-3.6958,-3.6598,-3.6745,-3.6619,-3.6588,-3.6419,-3.6439,-3.6505,-3.6596,-3.6655,-3.6908,-3.6766,-3.6592,-3.6482,-3.6322,-3.6252,-3.6303,-3.6367,-3.651,-3.6488,-3.6395,-3.6435,-3.6542,-3.6728,-3.6955,-3.7162,-3.7357,-3.7481,-3.7342,-3.7148,-3.6713,-3.6539,-3.6409,-3.6544,-3.6699,-3.657,-3.6557,-3.6756,-3.6913,-3.684,-3.6465,-3.6199,-3.6092,-3.5973,-3.6102,-3.6062,-3.591,-3.5933,-3.5925,-3.5927,-3.6192,-3.7843,-4.0967,-4.3706,-4.7108,-4.9062,-5.0589,-4.9689,-3.9171,-2.5084,-1.4906,-1.2101,-1.2832,-1.5409,-1.9568,-2.452,-2.9166,-3.2661,-3.4921,-3.6222,-3.6611,-3.6703,-3.6731,-3.6873,-3.708,-3.7272,-3.7438,-3.7558,-3.7484,-3.7573,-3.756,-3.7686,-3.7834,-3.8112,-3.8254,-3.8241,-3.8207,-3.8335,-3.8438,-3.8538,-3.865,-3.8651,-3.8817,-3.8942,-3.8954,-3.9051,-3.9021,-3.9202,-3.9339,-3.9473,-3.9482,-3.945,-3.9436,-3.9617,-3.9637,-3.9568,-3.9513,-3.9539,-3.9514,-3.9647,-3.9567,-3.9487,-3.9385,-3.946,-3.9609,-3.9679,-3.9671,-3.9544,-3.9434,-3.9542,-3.955,-3.9363,-3.9143,-3.9037,-3.8856,-3.844,-3.7883,-3.757,-3.7414,-3.7358,-3.7282,-3.7175,-3.7082,-3.6912,-3.6652,-3.6627,-3.6581,-3.6632,-3.6655,-3.6516,-3.6355,-3.6423,-3.6527,-3.6592,-3.6585,-3.6691,-3.6817,-3.6815,-3.6599,-3.6454,-3.6448,-3.6557,-3.6714,-3.6634,-3.648,-3.6381,-3.6387,-3.6405,-3.6455,-3.6632,-3.6588,-3.6504,-3.6489,-3.6355,-3.6302,-3.6298,-3.6381,-3.6422,-3.6366,-3.6121,-3.6065,-3.6165,-3.6191,-3.6234,-3.6129,-3.6113,-3.6179,-3.6046,-3.6174,-3.6251,-3.6189,-3.5978,-3.5781,-3.5818,-3.5848,-3.5977,-3.6171,-3.6067,-3.5832,-3.5747,-3.5704,-3.582,-3.6004,-3.6026,-3.616,-3.6392,-3.6387,-3.6381,-3.6295,-3.6352,-3.6475,-3.6564,-3.6432,-3.6426,-3.6324,-3.607,-3.6096,-3.6095,-3.6155,-3.6285,-3.6352,-3.6012,-3.5668,-3.5581,-3.5646,-3.5546,-3.5551,-3.5486,-3.5453,-3.538,-3.5422,-3.5374,-3.5825,-3.7525,-4.0585,-4.321,-4.6821,-4.9579,-4.9932,-4.8704,-3.8338,-2.4283,-1.4797,-1.2072,-1.2642,-1.5312,-1.9768,-2.4479,-2.897,-3.2064,-3.4385,-3.521,-3.5803,-3.5938,-3.634,-3.6425,-3.6638,-3.667,-3.6875,-3.6731,-3.6876,-3.6913,-3.7102,-3.7115,-3.7278,-3.7215,-3.7459,-3.7532,-3.7682,-3.7612,-3.7621,-3.7694,-3.7868,-3.7912,-3.8253,-3.8446,-3.8485,-3.8303,-3.8356,-3.8456,-3.8596,-3.8778,-3.9,-3.8846,-3.8661,-3.8559,-3.8784,-3.9002,-3.8911,-3.8599,-3.8496,-3.8485,-3.8466,-3.857,-3.8639,-3.8681,-3.8724,-3.8824,-3.8894,-3.8917,-3.903,-3.8926,-3.8743,-3.8692,-3.8353,-3.8085,-3.7791,-3.7508,-3.7255,-3.713,-3.697,-3.6921,-3.6692,-3.6578,-3.6452,-3.6432,-3.6122,-3.59,-3.5735,-3.5802,-3.5777,-3.5847,-3.5903,-3.6012,-3.597,-3.5836,-3.574,-3.5767,-3.5786,-3.5853,-3.5876,-3.5899,-3.6055,-3.6138,-3.6017,-3.5867,-3.5736,-3.5722,-3.5631,-3.5747,-3.5842,-3.5859,-3.5681,-3.5645,-3.5625,-3.5708,-3.568,-3.5629,-3.5546,-3.5518,-3.5507,-3.5735,-3.5684,-3.5529,-3.5316,-3.5328,-3.5369,-3.5401,-3.5249,-3.5217,-3.5102,-3.5108,-3.5185,-3.5235,-3.516,-3.5271,-3.524,-3.5082,-3.5086,-3.5161,-3.5168,-3.5153,-3.5062,-3.5076,-3.5236,-3.5325,-3.5374,-3.5613,-3.5937,-3.5924,-3.5701,-3.5768,-3.5751,-3.551,-3.545,-3.5504,-3.563,-3.5562,-3.5486,-3.5643,-3.5603,-3.5478,-3.5401,-3.5215,-3.5027,-3.493,-3.493,-3.4904,-3.4935,-3.5047,-3.5033,-3.4983,-3.4853,-3.5222,-3.6802,-3.9716,-4.2263,-4.5501,-4.8622,-4.9225,-4.8641,-3.9958,-2.6696,-1.7123,-1.3519,-1.3519,-1.5402,-1.9344,-2.3786,-2.8198,-3.1589,-3.3905,-3.5176,-3.5704,-3.5801,-3.6111,-3.6221,-3.6482,-3.6574,-3.6731,-3.6756,-3.6969,-3.7104,-3.7299,-3.7277,-3.7434,-3.7577,-3.7783,-3.7793,-3.7961,-3.833,-3.8692,-3.8404,-3.8431,-3.8418,-3.8605,-3.8802,-3.8852,-3.8914,-3.8949,-3.9077,-3.9206,-3.9396,-3.9513,-3.9584,-3.9641,-3.9654,-3.9811,-4.0013,-3.997,-3.9947,-3.9812,-3.9797,-3.9792,-3.9965,-4.0178,-4.0162,-4.0061,-4.0146,-4.017,-4.0327,-4.035
