16.708,16.724,16.751,16.756,16.752,16.717,16.723,16.726,16.738,16.754,16.768,16.784,16.798,16.811,16.83,16.836,16.846,16.845,16.869,16.878,16.911,16.932,16.949,16.963,16.979,16.97,16.972,16.968,16.962,16.964,16.96,16.955,16.949,16.948,16.931,16.895,16.858,16.825,16.808,16.781,16.754,16.725,16.701,16.687,16.682,16.641,16.62,16.594,16.55,16.533,16.499,16.473,16.483,16.475,16.468,16.449,16.43,16.445,16.458,16.499,16.504,16.534,16.552,16.575,16.593,16.609,16.594,16.596,16.623,16.639,16.638,16.634,16.643,16.643,16.651,16.65,16.648,16.689,16.716,16.708,16.683,16.67,16.68,16.691,16.702,16.715,16.71,16.706,16.708,16.71,16.719,16.717,16.712,16.707,16.714,16.724,16.739,16.729,16.752,16.748,16.766,16.764,16.766,16.767,16.774,16.787,16.79,16.787,16.783,16.788,16.782,16.808,16.796,16.775,16.78,16.774,16.755,16.763,16.768,16.802,16.829,16.826,16.769,16.732,16.725,16.752,16.813,16.787,16.806,16.778,16.712,16.657,16.645,16.68,16.699,16.698,16.736,16.776,16.755,16.774,16.759,16.744,16.729,16.716,16.724,16.743,16.77,16.782,16.82,16.781,16.707,16.702,16.691,16.664,16.637,16.637,16.632,16.646,16.638,16.635,16.631,16.652,16.652,16.647,16.644,16.611,16.58,16.632,16.62,16.561,16.552,16.604,16.759,16.933,17.099,17.237,17.101,16.869,16.727,16.585,16.414,16.371,16.385,16.424,16.508,16.553,16.586,16.588,16.622,16.656,16.684,16.674,16.699,16.708,16.717,16.71,16.761,16.792,16.821,16.861,16.873,16.887,16.937,16.95,16.976,16.949,16.967,16.983,16.976,16.94,16.977,17.021,17.057,17.069,17.092,17.163,17.181,17.178,17.219,17.249,17.251,17.21,17.178,17.201,17.2,17.209,17.163,17.179,17.207,17.204,17.156,17.137,17.128,17.119,17.095,17.085,17.042,16.976,16.927,16.919,16.894,16.852,16.808,16.782,16.747,16.711,16.689,16.679,16.676,16.678,16.674,16.68,16.711,16.709,16.71,16.705,16.696,16.694,16.697,16.708,16.716,16.723,16.723,16.726,16.718,16.708,16.689,16.682,16.689,16.695,16.697,16.708,16.723,16.748,16.758,16.77,16.766,16.771,16.792,16.814,16.829,16.833,16.843,16.845,16.847,16.853,16.851,16.858,16.86,16.841,16.833,16.823,16.826,16.837,16.851,16.84,16.838,16.83,16.815,16.823,16.821,16.827,16.831,16.816,16.81,16.802,16.779,16.769,16.75,16.743,16.725,16.694,16.679,16.679,16.674,16.668,16.665,16.637,16.636,16.636,16.64,16.62,16.62,16.63,16.64,16.663,16.683,16.693,16.689,16.702,16.719,16.731,16.74,16.765,16.773,16.773,16.77,16.767,16.753,16.736,16.731,16.733,16.715,16.683,16.669,16.672,16.67,16.661,16.661,16.676,16.669,16.666,16.664,16.662,16.66,16.662,16.668,16.67,16.662,16.656,16.668,16.765,16.94,17.128,17.312,17.43,17.34,17.06,16.906,16.819,16.643,16.612,16.629,16.628,16.659,16.728,16.807,16.837,16.833,16.831,16.84,16.823,16.855,16.876,16.895,16.909,16.927,16.901,16.887,16.877,16.881,16.886,16.891,16.915,16.942,16.959,16.957,16.972,16.985,16.999,17.022,17.032,17.043,17.043,17.054,17.059,17.044,17.06,17.048,17.04,17.05,17.045,17.135,17.186,17.173,17.145,17.125,17.131,17.13,17.143,17.157,17.16,17.138,17.117,17.088,17.061,17.03,17.004,16.967,16.957,16.922,16.89,16.869,16.845,16.816,16.8,16.772,16.752,16.742,16.723,16.719,16.707,16.706,16.687,16.672,16.667,16.674,16.673,16.692,16.713,16.714,16.706,16.709,16.708,16.725,16.736,16.757,16.768,16.786,16.786,16.796,16.802,16.81,16.825,16.818,16.793,16.772,16.798,16.84,16.902,16.89,16.891,16.905,16.878,16.889,16.898,16.909,16.906,16.901,16.918,16.915,16.917,16.913,16.909,16.898,16.894,16.892,16.891,16.902,16.904,16.899,16.895,16.892,16.9,16.902,16.894,16.88,16.869,16.865,16.861,16.86,16.857,16.857,16.866,16.892,16.895,16.88,16.877,16.887,16.909,16.908,16.927,16.914,16.902,16.897,16.886,16.873,16.854,16.837,16.816,16.778,16.751,16.743,16.744,16.754,16.762,16.749,16.741,16.733,16.718,16.708,16.691,16.681,16.673,16.666,16.657,16.616,16.597,16.61,16.697,16.878,17.051,17.25,17.305,17.211,17.004,16.809,16.654,16.534,16.59,16.615,16.565,16.584,16.646,16.702,16.72,16.733,16.72,16.734,16.772,16.81,16.778,16.76,16.75,16.772,16.79,16.819,16.816,16.802,16.847,16.843,16.818,16.802,16.829,16.856,16.87,16.888,16.913,16.914,16.904,16.905,16.927,16.921,16.941,16.916,16.957,17.008,17.047,17.065,17.067,17.054,17.086,17.116,17.112,17.087,17.073,17.073,17.051,17.084,17.091,17.088,17.1,17.071,17.06,17.018,16.967,16.93,16.897,16.846,16.802,16.761,16.7,16.706,16.691,16.672,16.676,16.726,16.752,16.718,16.704,16.674,16.645,16.643,16.598,16.582,16.566,16.556,16.584,16.583,16.543,16.507,16.533,16.525,16.495,16.488,16.501,16.514,16.504,16.498,16.53,16.562,16.574,16.559,16.54,16.579,16.6,16.562,16.558,16.577,16.629,16.642,16.587,16.584,16.581,16.577,16.535,16.508,16.489,16.458,16.452,16.444,16.447,16.472,16.455,16.484,16.478,16.48,16.477,16.491,16.548,16.585,16.645,16.676,16.661,16.659,16.694,16.692,16.71,16.724,16.703,16.762,16.815,16.837,16.85,16.814,16.774,16.76,16.796,16.8,16.796,16.783,16.793,16.787,16.768,16.735,16.734,16.708,16.661,16.66,16.599,16.613,16.607,16.584,16.631,16.646,16.666,16.672,16.678,16.675,16.677,16.671,16.672,16.658,16.646,16.643,16.7,16.83,17.003,17.161,17.311,17.221,16.951,16.788,16.638,16.405,16.341,16.365,16.414,16.518,16.576,16.602,16.602,16.618,16.62,16.651,16.655,16.661,16.662,16.665,16.641,16.644,16.619,16.632,16.594,16.567,16.573,16.609,16.61,16.577,16.548,16.536,16.517,16.514,16.53,16.557,16.576,16.596,16.632,16.651,16.676,16.692,16.744,16.805,16.84,16.852,16.868,16.874,16.885,16.893,16.902,16.907,16.908,16.909,16.904,16.908,16.891,16.879,16.857,16.797,16.758,16.72,16.682,16.636,16.601,16.574,16.555,16.532,16.515,16.496,16.494,16.488,16.482,16.483,16.482,16.478,16.481,16.485,16.485,16.471,16.463,16.454,16.446,16.433,16.414,16.399,16.402,16.404,16.395,16.388,16.387,16.387,16.398,16.392,16.387,16.391,16.387,16.395,16.4,16.402,16.41,16.423,16.444,16.465,16.474,16.488,16.51,16.532,16.557,16.57,16.574,16.588,16.597,16.602,16.581,16.577,16.582,16.6,16.6,16.6,16.609,16.595,16.574,16.548,16.53,16.546,16.591,16.586,16.575,16.566,16.561,16.55,16.549,16.565,16.555,16.518,16.492,16.498,16.55,16.57,16.568,16.604,16.595,16.563,16.585,16.581,16.541,16.543,16.557,16.592,16.569,16.52,16.496,16.45,16.434,16.442,16.414,16.367,16.303,16.31,16.305,16.287,16.283,16.291,16.292,16.276,16.281,16.266,16.281,16.278,16.289,16.313,16.329,16.324,16.315,16.324,16.409,16.608,16.813,17.008,17.137,16.987,16.761,16.612,16.47,16.35,16.26,16.277,16.275,16.355,16.463,16.519,16.543,16.584,16.585,16.571,16.562,16.53,16.516,16.516,16.553,16.579,16.576,16.59,16.61,16.616,16.632,16.612,16.606,16.623,16.616,16.599,16.583,16.588,16.616,16.618,16.619,16.613,16.634,16.64,16.685,16.707,16.735,16.747,16.777,16.81,16.842,16.867,16.914,16.96,17.006,17.077,17.126,17.164,17.198,17.254,17.321,17.393,17.433,17.436,17.415,17.365,17.333,17.28,17.225,17.187,17.114,17.07,17.026,17.009,16.98,16.935,16.884,16.848,16.815,16.812,16.792,16.761,16.742,16.714,16.682,16.662,16.634,16.619,16.617,16.608,16.606,16.593,16.568,16.545,16.532,16.529,16.523,16.519,16.51,16.506,16.519,16.499,16.476,16.473,16.467,16.478,16.463,16.458,16.448,16.441,16.44,16.432,16.44,16.438,16.429,16.454,16.465,16.463,16.481,16.497,16.515,16.524,16.549,16.557,16.595,16.628,16.631,16.633,16.632,16.635,16.627,16.626,16.621,16.612,16.616,16.622,16.609,16.608,16.594,16.614,16.627,16.631,16.638,16.639,16.658,16.68,16.659,16.638,16.651,16.657,16.689,16.724,16.711,16.698,16.699,16.683,16.656,16.632,16.628,16.604,16.581,16.561,16.552,16.547,16.539,16.54,16.547,16.537,16.536,16.535,16.53,16.53,16.532,16.514,16.507,16.51,16.484,16.456,16.447,16.518,16.607,16.807,17.008,17.177,17.14,16.866,16.701,16.58,16.391,16.365,16.395,16.368,16.437,16.491,16.559,16.568,16.595,16.603,16.607,16.617,16.624,16.62,16.63,16.638,16.644,16.654,16.663,16.654,16.679,16.703,16.706,16.711,16.7,16.698,16.693,16.68,16.701,16.714,16.722,16.722,16.734,16.749,16.77,16.788,16.793,16.809,16.839,16.863,16.903,16.937,16.952,16.991,17.007,17.014,17.017,17.025,17.023,17.023,17.011,17.009,16.99,16.983,16.962,16.931,16.876,16.84,16.805,16.773,16.737,16.689,16.649,16.631,16.601,16.59,16.574,16.548,16.536,16.524,16.508,16.501,16.494,16.487,16.468,16.467,16.456,16.446,16.434,16.435,16.423,16.411,16.4,16.376,16.362,16.352,16.349,16.342,16.336,16.334,16.339,16.331,16.332,16.332,16.329,16.334,16.332,16.322,16.32,16.324,16.324,16.326,16.329,16.341,16.339,16.344,16.35,16.35,16.355,16.36,16.361,16.374,16.371,16.373,16.38,16.389,16.41,16.407,16.405,16.397,16.401,16.421,16.436,16.431,16.422,16.422,16.426,16.42,16.42,16.435,16.422,16.394,16.377,16.354,16.334,16.326,16.318,16.298,16.276,16.269,16.288,16.301,16.349,16.375,16.391,16.458,16.492,16.497,16.514,16.515,16.555,16.596,16.627,16.603,16.571,16.522,16.507,16.565,16.706,16.887,17.1,17.239,17.13,16.998,16.785,16.595,16.429,16.434,16.549,16.517,16.528,16.617,16.69,16.715,16.718,16.711,16.733,16.734,16.718,16.714,16.727,16.725,16.739,16.75,16.758,16.75,16.768,16.771,16.79,16.791,16.79,16.799,16.8,16.804,16.829,16.813,16.826,16.843,16.857,16.874,16.891,16.897,16.912,16.936,16.94,16.951,16.976,16.992,17.016,17.043,17.036,17.053,17.063,17.059,17.057,17.031,17.006,16.987,16.957,16.916,16.894,16.856,16.81,16.776,16.746,16.711,16.688,16.666,16.656,16.65,16.62,16.618,16.613,16.601,16.599,16.584,16.583,16.582,16.579,16.587,16.578,16.579,16.569,16.574,16.573,16.572,16.562,16.567,16.562,16.567,16.557,16.549,16.545,16.549,16.547,16.544,16.537,16.545,16.543,16.544,16.536,16.521,16.503,16.509,16.499,16.496,16.489,16.483,16.486,16.496,16.493,16.487,16.48,16.485,16.498,16.502,16.505,16.509,16.511,16.523,16.532,16.538,16.537,16.546,16.549,16.555,16.556,16.558,16.565,16.588,16.618,16.636,16.653,16.669,16.67,16.676,16.681,16.684,16.681,16.703,16.726,16.704,16.685,16.679,16.67,16.655,16.645,16.628,16.598,16.573,16.561,16.557,16.55,16.543,16.542,16.546,16.543,16.541,16.536,16.536,16.53,16.527,16.514,16.505,16.494,16.473,16.452,16.489,16.617,16.82,17.024,17.244,17.295,17.026,16.951,16.791,16.558,16.333,16.3,16.337,16.385,16.499,16.548,16.582,16.581,16.609,16.611,16.622,16.605,16.61,16.595,16.603,16.601,16.606,16.602,16.62,16.631,16.65,16.661,16.681,16.687,16.7,16.703,16.709,16.711,16.728,16.737,16.748,16.75,16.763,16.786,16.808,16.814,16.826,16.84,16.856,16.878,16.903,16.922,16.933,16.943,16.948,16.954,16.947,16.942,16.936,16.937,16.924,16.909,16.879,16.853,16.833,16.799,16.756,16.72,16.683,16.663,16.636,16.619,16.589,16.572,16.552,16.539,16.527,16.52,16.515,16.512,16.51,16.509,16.502,16.502,16.496,16.493,16.487,16.486,16.476,16.483,16.48,16.483,16.471,16.462,16.45,16.45,16.44,16.433,16.418,16.413,16.409,16.414,16.408,16.409,16.405,16.411,16.414,16.423,16.432,16.453,16.488,16.525,16.552,16.562,16.567,16.566,16.552,16.55,16.551,16.55,16.551,16.555,16.551,16.534,16.522,16.519,16.522,16.519,16.505,16.491,16.479,16.479,16.49,16.498,16.503,16.51,16.51,16.518,16.52,16.526,16.536,16.546,16.569,16.575,16.566,16.565,16.58,16.583,16.597,16.616,16.607,16.597,16.595,16.584,16.564,16.547,16.539,16.517,16.493,16.478,16.472,16.475,16.48,16.476,16.47,16.468,16.468,16.466,16.465,16.453,16.445,16.437,16.438,16.43,16.403,16.376,16.398,16.517,16.618,16.833,17.046,17.241,17.24,16.954,16.795,16.643,16.388,16.313,16.338,16.352,16.457,16.53,16.589,16.603,16.617,16.61,16.619,16.614,16.623,16.617,16.616,16.608,16.62,16.628,16.641,16.641,16.646,16.647,16.657,16.655,16.657,16.652,16.663,16.667,16.676,16.675,16.68,16.687,16.701,16.715,16.725,16.736,16.762,16.784,16.806,16.825,16.845,16.861,16.883,16.9,16.909,16.917,16.918,16.922,16.923,16.921,16.914,16.904,16.894,16.877,16.845,16.816,16.781,16.751,16.723,16.69,16.658,16.635,16.617,16.602,16.584,16.57,16.556,16.554,16.551,16.552,16.551,16.544,16.538,16.531,16.526,16.518,16.507,16.504,16.5,16.496,16.471,16.458,16.46,16.461,16.447,16.427,16.413,16.412,16.408,16.408,16.406,16.405,16.4,16.405,16.405,16.402,16.402,16.405,16.408,16.418,16.417,16.417,16.417,16.418,16.421,16.418,16.424,16.428,16.43,16.439,16.439,16.443,16.437,16.432,16.43,16.428,16.419,16.417,16.413,16.417,16.412,16.407,16.403,16.404,16.402,16.41,16.4,16.394,16.389,16.392,16.387,16.384,16.38,16.384,16.386,16.389,16.382,16.381,16.385,16.389,16.387,16.382,16.382,16.383,16.381,16.381,16.384,16.392,16.393,16.397,16.405,16.409,16.409,16.413,16.428,16.441,16.457,16.476,16.481,16.483,16.497,16.503,16.502,16.518,16.546,16.539,16.534,16.526,16.52,16.508,16.498,16.498,16.481,16.451,16.429,16.427,16.428,16.42,16.415,16.414,16.419,16.418,16.417,16.41,16.406,16.41,16.414,16.409,16.396,16.374,16.356,16.37,16.471,16.667,16.866,17.083,17.204,16.96,16.774,16.629,16.545,16.31,16.237,16.271,16.272,16.381,16.436,16.51,16.516,16.544,16.542,16.565,16.557,16.564,16.554,16.566,16.565,16.579,16.57,16.576,16.576,16.591,16.596,16.602,16.594,16.599,16.604,16.615,16.613,16.617,16.619,16.639,16.655,16.67,16.68,16.704,16.724,16.75,16.758,16.776,16.797,16.819,16.835,16.851,16.857,16.863,16.875,16.881,16.887,16.88,16.876,16.871,16.863,16.844,16.823,16.789,16.765,16.747,16.72,16.679,16.648,16.615,16.595,16.573,16.554,16.532,16.517,16.502,16.504,16.488,16.478,16.469,16.468,16.461,16.452,16.438,16.44,16.428,16.434,16.42,16.418,16.414,16.415,16.416,16.412,16.405,16.408,16.406,16.419,16.42,16.422,16.421,16.424,16.422,16.419,16.413,16.413,16.416,16.419,16.415,16.416,16.411,16.418,16.417,16.421,16.415,16.416,16.418,16.423,16.426,16.421,16.423,16.424,16.428,16.426,16.422,16.423,16.417,16.416,16.423,16.422,16.424,16.421,16.42,16.415,16.409,16.403,16.404,16.403,16.4,16.395,16.381,16.371,16.372,16.375,16.374,16.372,16.371,16.375,16.381,16.378,16.371,16.362,16.365,16.368,16.369,16.363,16.369,16.366,16.371,16.369,16.361,16.363,16.364,16.365,16.366,16.361,16.352,16.352,16.364,16.369,16.361,16.358,16.357,16.37,16.381,16.386,16.394,16.409,16.413,16.405,16.399,16.4,16.407,16.413,16.45,16.449,16.432,16.429,16.423,16.416,16.398,16.382,16.363,16.343,16.315,16.306,16.304,16.302,16.301,16.299,16.3,16.294,16.29,16.286,16.287,16.289,16.285,16.281,16.28,16.273,16.251,16.233,16.29,16.461,16.686,16.903,17.055,16.926,16.786,16.59,16.411,16.239,16.204,16.268,16.22,16.203,16.257,16.325,16.378,16.414,16.438,16.459,16.456,16.464,16.456,16.465,16.458,16.46,16.449,16.462,16.467,16.481,16.487,16.499,16.507,16.524,16.532,16.543,16.545,16.562,16.573,16.584,16.588,16.602,16.615,16.633,16.644,16.661,16.676,16.695,16.714,16.736,16.749,16.758,16.77,16.78,16.795,16.797,16.795,16.792,16.795,16.795,16.783,16.766,16.749,16.74,16.719,16.689,16.657,16.622,16.595,16.567,16.547,16.516,16.497,16.484,16.474,16.459,16.445,16.435,16.436,16.436,16.433,16.424,16.425,16.422,16.423,16.422,16.418,16.415,16.415,16.414,16.42,16.41,16.401,16.395,16.402,16.408,16.411,16.408,16.414,16.417,16.426,16.425,16.427,16.426,16.435,16.44,16.44,16.434,16.436,16.444,16.446,16.45,16.445,16.439,16.441,16.439,16.437,16.426,16.426,16.43,16.431,16.43,16.425,16.419,16.422,16.422,16.425,16.424,16.417,16.418,16.419,16.417,16.409,16.4,16.397,16.393,16.39,16.386,16.377,16.379,16.378,16.383,16.376,16.372,16.364,16.373,16.378,16.375,16.367,16.368,16.368,16.372,16.37,16.365,16.364,16.366,16.365,16.361,16.357,16.355,16.354,16.364,16.369,16.373,16.382,16.404,16.412,16.404,16.404,16.408,16.417,16.438,16.459,16.442,16.435,16.434,16.434,16.432,16.417,16.412,16.394,16.376,16.351,16.334,16.329,16.329,16.333,16.337,16.334,16.33,16.331,16.334,16.343,16.338,16.333,16.328,16.327,16.307,16.28,16.282,16.375,16.567,16.778,16.999,17.135,16.934,16.766,16.624,16.381,16.166,16.142,16.164,16.209,16.308,16.357,16.386,16.394,16.418,16.422,16.436,16.431,16.443,16.44,16.455,16.444,16.453,16.453,16.469,16.474,16.485,16.488,16.504,16.505,16.52,16.514,16.523,16.524,16.537,16.543,16.555,16.556,16.568,16.581,16.599,16.612,16.628,16.645,16.667,16.686,16.706,16.711,16.725,16.739,16.746,16.753,16.753,16.752,16.755,16.751,16.744,16.725,16.702,16.685,16.657,16.627,16.585,16.544,16.512,16.485,16.457,16.428,16.403,16.396,16.381,16.369,16.358,16.35,16.338,16.334,16.33,16.324,16.319,16.316,16.314,16.315,16.304,16.301,16.296,16.298,16.297,16.298,16.294,16.297,16.297,16.302,16.296,16.293,16.295,16.304,16.311,16.316,16.314,16.316,16.322,16.332,16.334,16.335,16.334,16.338,16.338,16.343,16.337,16.336,16.34,16.349,16.356,16.359,16.355,16.359,16.359,16.366,16.359,16.361,16.359,16.362,16.359,16.356,16.353,16.352,16.352,16.355,16.351,16.349,16.343,16.345,16.345,16.346,16.34,16.339,16.339,16.341,16.337,16.332,16.33,16.336,16.339,16.338,16.334,16.336,16.335,16.341,16.344,16.344,16.344,16.346,16.351,16.352,16.351,16.348,16.354,16.358,16.362,16.361,16.364,16.367,16.37,16.37,16.37,16.367,16.368,16.371,16.375,16.375,16.372,16.372,16.376,16.38,16.378,16.375,16.375,16.379,16.383,16.381,16.377,16.379,16.38,16.38,16.389,16.39,16.403,16.414,16.436,16.447,16.434,16.432,16.447,16.461,16.481,16.504,16.488,16.476,16.479,16.473,16.461,16.447,16.448,16.441,16.428,16.393,16.376,16.373,16.377,16.376,16.371,16.369,16.369,16.371,16.372,16.369,16.364,16.365,16.37,16.367,16.342,16.324,16.31,16.37,16.529,16.745,16.946,17.128,17.092,16.832,16.693,16.536,16.253,16.175,16.203,16.225,16.312,16.372,16.429,16.444,16.455,16.459,16.472,16.473,16.484,16.484,16.482,16.48,16.486,16.493,16.5,16.502,16.513,16.518,16.528,16.535,16.533,16.532,16.543,16.548,16.561,16.567,16.573,16.586,16.602,16.622,16.64,16.653,16.676,16.698,16.724,16.745,16.761,16.775,16.796,16.813,16.821,16.824,16.826,16.834,16.84,16.84,16.831,16.823,16.81,16.795,16.773,16.744,16.712,16.677,16.646,16.617,16.58,16.551,16.527,16.506,16.49,16.48,16.461,16.446,16.437,16.432,16.421,16.413,16.409,16.408,16.409,16.406,16.399,16.395,16.393,16.391,16.383,16.38,16.381,16.387,16.39,16.39,16.381,16.378,16.38,16.386,16.391,16.389,16.388,16.391,16.393,16.396,16.394,16.398,16.401,16.403,16.401,16.4,16.398,16.399,16.404,16.413,16.41,16.412,16.415,16.421,16.424,16.424,16.422,16.424,16.426,16.43,16.424,16.42,16.42,16.422,16.424,16.419,16.417,16.415,16.414,16.419,16.415,16.409,16.408,16.41,16.411,16.411,16.401,16.402,16.403,16.41,16.409,16.403,16.404,16.407,16.41,16.412,16.409,16.41,16.41,16.415,16.423,16.424,16.421,16.422,16.425,16.425,16.422,16.419,16.419,16.422,16.427,16.423,16.417,16.421,16.422,16.427,16.424,16.422,16.422,16.426,16.429,16.431,16.426,16.427,16.424,16.428,16.424,16.422,16.422,16.423,16.426,16.422,16.421,16.421,16.422,16.427,16.428,16.426,16.424,16.423,16.425,16.425,16.424,16.42,16.421,16.422,16.425,16.424,16.428,16.432,16.441,16.452,16.46,16.459,16.453,16.458,16.477,16.479,16.515,16.516,16.5,16.503,16.49,16.482,16.472,16.469,16.464,16.441,16.405,16.401,16.399,16.398,16.397,16.395,16.392,16.396,16.399,16.399,16.395,16.395,16.401,16.403,16.4,16.385,16.358,16.339,16.376,16.499,16.706,16.897,17.012,17.169,17.048,16.824,16.686,16.5,16.261,16.221,16.241,16.257,16.351,16.402,16.458,16.46,16.481,16.481,16.498,16.495,16.5,16.492,16.502,16.499,16.51,16.503,16.513,16.512,16.521,16.527,16.533,16.525,16.534,16.539,16.551,16.551,16.563,16.57,16.587,16.602,16.614,16.618,16.638,16.654,16.685,16.709,16.727,16.744,16.766,16.785,16.8,16.811,16.82,16.828,16.831,16.836,16.836,16.828,16.827,16.824,16.817,16.801,16.773,16.751,16.716,16.69,16.656,16.619,16.588,16.558,16.541,16.518,16.49,16.479,16.468,16.465,16.451,16.443,16.439,16.44,16.434,16.432,16.427,16.422,16.417,16.419,16.417,16.412,16.405,16.406,16.406,16.412,16.399,16.399,16.397,16.398,16.395,16.393,16.392,16.397,16.401,16.401,16.397,16.402,16.398,16.409,16.411,16.408,16.405,16.402,16.404,16.412,16.412,16.409,16.403,16.408,16.41,16.41,16.407,16.405,16.407,16.417,16.417,16.413,16.408,16.401,16.405,16.407,16.401,16.401,16.402,16.402,16.401,16.394,16.391,16.391,16.394,16.396,16.385,16.383,16.378,16.378,16.38,16.379,16.369,16.367,16.371,16.373,16.363,16.358,16.363,16.366,16.369,16.36,16.362,16.358,16.365,16.369,16.363,16.359,16.359,16.357,16.355,16.352,16.348,16.346,16.343,16.341,16.343,16.336,16.336,16.336,16.338,16.338,16.331,16.332,16.337,16.339,16.342,16.337,16.333,16.335,16.333,16.34,16.331,16.332,16.333,16.341,16.344,16.338,16.333,16.341,16.344,16.35,16.354,16.355,16.366,16.379,16.376,16.378,16.384,16.389,16.404,16.444,16.428,16.418,16.42,16.419,16.412,16.398,16.394,16.368,16.369,16.335,16.321,16.314,16.313,16.313,16.316,16.315,16.31,16.311,16.314,16.318,16.325,16.319,16.317,16.315,16.292,16.266,16.258,16.309,16.468,16.694,16.912,17.066,16.995,16.743,16.537,16.367,16.221,16.252,16.275,16.201,16.205,16.269,16.326,16.37,16.4,16.408,16.424,16.427,16.433,16.434,16.439,16.437,16.437,16.44,16.453,16.463,16.475,16.48,16.489,16.497,16.514,16.522,16.532,16.539,16.548,16.557,16.574,16.579,16.594,16.605,16.624,16.642,16.658,16.672,16.7,16.721,16.749,16.761,16.772,16.788,16.797,16.802,16.805,16.802,16.806,16.808,16.801,16.799,16.785,16.768,16.75,16.726,16.692,16.657,16.628,16.604,16.578,16.55,16.518,16.496,16.481,16.468,16.457,16.442,16.426,16.426,16.424,16.418,16.414,16.407,16.407,16.408,16.41,16.406,16.403,16.404,16.403,16.4,16.397,16.396,16.392,16.394,16.392,16.393,16.396,16.396,16.405,16.413,16.409,16.405,16.408,16.408,16.408,16.404,16.398,16.395,16.399,16.406,16.404,16.408,16.407,16.416,16.419,16.424,16.42,16.421,16.424,16.433,16.434,16.433,16.432,16.429,16.432,16.43,16.422,16.421,16.424,16.429,16.427,16.427,16.421,16.422,16.423,16.421,16.418,16.417,16.416,16.417,16.418,16.418,16.416,16.419,16.42,16.429,16.425,16.429,16.432,16.439,16.442,16.442,16.439,16.441,16.444,16.449,16.443,16.446,16.446,16.453,16.459,16.457,16.452,16.452,16.452,16.454,16.456,16.455,16.461,16.461,16.473,16.481,16.491,16.509,16.504,16.503,16.511,16.515,16.521,16.532,16.551,16.541,16.531,16.529,16.526,16.522,16.52,16.503,16.488,16.467,16.45,16.446,16.441,16.437,16.435,16.438,16.438,16.432,16.425,16.422,16.419,16.421,16.419,16.408,16.392,16.366,16.363,16.387,16.508,16.72,16.929,17.153,17.242,16.988,16.831,16.676,16.398,16.273,16.281,16.273,16.311,16.404,16.463,16.502,16.514,16.538,16.541,16.559,16.557,16.559,16.553,16.562,16.565,16.573,16.576,16.583,16.588,16.6,16.604,16.611,16.619,16.637,16.651,16.654,16.661,16.666,16.676,16.686,16.695,16.707,16.718,16.742,16.76,16.776,16.794,16.821,16.84,16.863,16.887,16.894,16.914,16.927,16.927,16.972,16.971,16.929,16.954,16.969,16.963,16.941,16.9,16.889,16.866,16.81,16.783,16.743,16.706,16.675,16.664,16.624,16.587,16.631,16.617,16.604,16.591,16.565,16.563,16.559,16.551,16.52,16.509,16.475,16.468,16.464,16.438,16.428,16.428,16.423,16.412,16.413,16.415,16.404,16.39,16.403,16.404,16.38,16.402,16.411,16.43,16.43,16.448,16.449,16.454,16.47,16.48,16.481,16.49,16.49,16.489,16.496,16.489,16.483,16.48,16.468,16.483,16.488,16.481,16.481,16.484,16.487,16.472,16.47,16.466,16.481,16.474,16.471,16.464,16.454,16.433,16.426,16.42,16.398,16.393,16.383,16.374,16.381,16.378,16.371,16.378,16.375,16.378,16.368,16.358,16.383,16.386,16.372,16.372,16.367,16.37,16.366,16.376,16.379,16.373,16.375,16.378,16.385,16.376,16.372,16.379,16.387,16.379,16.379,16.379,16.374,16.378,16.372,16.386,16.382,16.377,16.375,16.388,16.386,16.389,16.381,16.389,16.388,16.374,16.372,16.361,16.361,16.369,16.367,16.366,16.382,16.376,16.388,16.368,16.375,16.381,16.374,16.393,16.415,16.394,16.383,16.368,16.358,16.357,16.331,16.319,16.301,16.267,16.237,16.235,16.224,16.227,16.218,16.217,16.208,16.204,16.197,16.199,16.205,16.192,16.186,16.177,16.16,16.14,16.129,16.172,16.307,16.52,16.731,16.915,16.916,16.678,16.632,16.499,16.228,15.997,15.958,16.008,16.08,16.167,16.213,16.236,16.238,16.255,16.252,16.257,16.249,16.251,16.268,16.258,16.256,16.259,16.267,16.274,16.289,16.284,16.279,16.285,16.29,16.297,16.294,16.305,16.3,16.307,16.322,16.328,16.327,16.349,16.363,16.37,16.383,16.416,16.425,16.452,16.459,16.483,16.496,16.523,16.539,16.545,16.568,16.563,16.567,16.578,16.584,16.585,16.561,16.554,16.547,16.532,16.499,16.467,16.436,16.403,16.379,16.351,16.311,16.274,16.272,16.245,16.236,16.218,16.199,16.19,16.182,16.18,16.166,16.15,16.137,16.146,16.15,16.135,16.133,16.112,16.119,16.113,16.107,16.104,16.099,16.091,16.112,16.104,16.098,16.09,16.087,16.099,16.101,16.104,16.084,16.093,16.109,16.107,16.1,16.1,16.097,16.085,16.097,16.089,16.087,16.095,16.081,16.095,16.092,16.09,16.092,16.098,16.094,16.094,16.096,16.085,16.085,16.095,16.089,16.084,16.076,16.085,16.085,16.087,16.07,16.065,16.065,16.084,16.068,16.056,16.063,16.067,16.058,16.063,16.058,16.055,16.06,16.052,16.058,16.055,16.051,16.045,16.05,16.054,16.045,16.045,16.042,16.041,16.035,16.03,16.048,16.043,16.045,16.04,16.043,16.037,16.032,16.04,16.044,16.032,16.035,16.036,16.041,16.045,16.028,16.033,16.043,16.027,16.043,16.048,16.036,16.038,16.034,16.038,16.035,16.034,16.02,16.033,16.039,16.055,16.051,16.058,16.088,16.093,16.081,16.087,16.103,16.101,16.107,16.129,16.135,16.114,16.112,16.111,16.099,16.091,16.073,16.069,16.048,16.018,15.996,15.988,15.986,15.986,15.98,15.97,15.962,15.96,15.956,15.958,15.954,15.944,15.944,15.952,15.922,15.897,15.895,15.976,16.161,16.37,16.565,16.704,16.517,16.36,16.238,15.994,15.828,15.707,15.74,15.799,15.886,15.948,15.989,16,16.016,16.029,16.04,16.037,16.031,16.046,16.046,16.045,16.052,16.046,16.068,16.073,16.083,16.08,16.082,16.089,16.096,16.114,16.127,16.136,16.145,16.151,16.148,16.171,16.193,16.203,16.224,16.223,16.261,16.275,16.283,16.303,16.321,16.349,16.351,16.367,16.38,16.412,16.409,16.413,16.425,16.425,16.421,16.414,16.399,16.38,16.363,16.33,16.294,16.277,16.242,16.207,16.181,16.15,16.109,16.09,16.073,16.059,16.044,16.028,16.023,16.007,16.014,16.001,16.003,15.992,16.001,15.996,15.991,15.979,15.986,15.978,15.989,15.99,15.983,15.989,15.993,16.007,15.999,15.999,15.995,16.002,16.011,16.008,16.006,16.014,16.016,16.023,16.023,16.023,16.022,16.024,16.028,16.03,16.029,16.025,16.025,16.027,16.03,16.03,16.035,16.042,16.039,16.032,16.021,16.016,16.015,16.013,16.018,16.016,16.012,16.013,16.01,16.014,16.009,16.003,15.999,16.001,16.003,15.998,15.99,15.984,15.982,15.98,15.972,15.967,15.958,15.962,15.961,15.963,15.958,15.961,15.964,15.969,15.975,15.974,15.97,15.972,15.976,15.981,15.972,15.973,15.977,15.984,15.986,15.989,15.986,15.991,15.999,16.006,16.01,16.01,16.014,16.024,16.029,16.03,16.031,16.034,16.041,16.046,16.046,16.045,16.047,16.05,16.053,16.058,16.054,16.054,16.057,16.057,16.059,16.058,16.059,16.063,16.069,16.073,16.074,16.078,16.088,16.102,16.116,16.129,16.123,16.121,16.129,16.143,16.145,16.171,16.188,16.18,16.173,16.172,16.162,16.143,16.138,16.13,16.109,16.076,16.062,16.061,16.062,16.059,16.056,16.055,16.058,16.062,16.054,16.053,16.052,16.051,16.052,16.05,16.032,16.007,15.994,16.056,16.207,16.422,16.612,16.794,16.836,16.583,16.405,16.263,16.054,15.888,15.896,15.909,15.959,16.048,16.106,16.145,16.15,16.162,16.168,16.178,16.179,16.18,16.173,16.181,16.183,16.195,16.199,16.21,16.211,16.223,16.223,16.235,16.238,16.249,16.257,16.271,16.27,16.271,16.277,16.291,16.307,16.318,16.325,16.345,16.363,16.386,16.41,16.431,16.45,16.47,16.492,16.506,16.515,16.525,16.536,16.544,16.549,16.545,16.542,16.535,16.529,16.521,16.512,16.486,16.448,16.417,16.385,16.349,16.312,16.282,16.255,16.23,16.206,16.18,16.165,16.151,16.142,16.129,16.123,16.117,16.119,16.114,16.115,16.106,16.103,16.102,16.102,16.098,16.094,16.089,16.091,16.094,16.099,16.096,16.095,16.094,16.098,16.1,16.103,16.104,16.104,16.106,16.113,16.108,16.107,16.109,16.114,16.113,16.111,16.109,16.111,16.115,16.119,16.112,16.113,16.114,16.117,16.123,16.124,16.124,16.122,16.123,16.126,16.126,16.125,16.124,16.128,16.124,16.125,16.119,16.119,16.121,16.125,16.125,16.122,16.126,16.123,16.125,16.125,16.122,16.12,16.126,16.126,16.127,16.124,16.114,16.118,16.123,16.125,16.121,16.117,16.116,16.117,16.123,16.12,16.12,16.119,16.12,16.123,16.12,16.118,16.116,16.118,16.123,16.122,16.121,16.116,16.117,16.121,16.125,16.118,16.121,16.123,16.123,16.12,16.117,16.11,16.116,16.118,16.118,16.113,16.112,16.117,16.118,16.118,16.119,16.119,16.119,16.12,16.121,16.114,16.114,16.121,16.127,16.13,16.137,16.143,16.156,16.166,16.158,16.156,16.168,16.177,16.19,16.227,16.215,16.2,16.203,16.198,16.183,16.172,16.159,16.138,16.13,16.104,16.099,16.085,16.081,16.083,16.084,16.085,16.081,16.081,16.074,16.072,16.067,16.054,16.045,16.038,16.012,15.994,15.999,16.045,16.219,16.445,16.655,16.809,16.693,16.43,16.236,16.09,15.917,15.927,15.949,15.903,15.95,16.011,16.073,16.1,16.121,16.135,16.145,16.148,16.16,16.151,16.153,16.156,16.151,16.145,16.154,16.163,16.167,16.167,16.175,16.178,16.19,16.194,16.202,16.201,16.21,16.207,16.205,16.208,16.214,16.222,16.233,16.25,16.266,16.282,16.309,16.336,16.371,16.393,16.415,16.434,16.45,16.464,16.463,16.473,16.475,16.48,16.484,16.479,16.461,16.446,16.426,16.397,16.359,16.321,16.289,16.259,16.226,16.195,16.161,16.138,16.119,16.102,16.086,16.075,16.071,16.068,16.069,16.065,16.057,16.057,16.06,16.066,16.064,16.061,16.055,16.059,16.058,16.06,16.058,16.059,16.069,16.068,16.068,16.079,16.086,16.094,16.101,16.111,16.111,16.108,16.108,16.111,16.112,16.111,16.107,16.105,16.106,16.108,16.102,16.106,16.105,16.109,16.115,16.116,16.111,16.113,16.112,16.116,16.117,16.113,16.11,16.11,16.109,16.112,16.107,16.11,16.112,16.115,16.116,16.111,16.111,16.111,16.112,16.114,16.11,16.104,16.105,16.103,16.108,16.103,16.099,16.101,16.105,16.107,16.108,16.107,16.107,16.112,16.114,16.113,16.11,16.113,16.116,16.121,16.12,16.121,16.121,16.125,16.134,16.132,16.131,16.13,16.139,16.148,16.158,16.164,16.182,16.191,16.186,16.189,16.193,16.203,16.212,16.238,16.258,16.243,16.237,16.243,16.241,16.231,16.22,16.207,16.187,16.167,16.16,16.153,16.152,16.154,16.156,16.165,16.166,16.166,16.166,16.171,16.181,16.18,16.178,16.176,16.163,16.14,16.124,16.182,16.348,16.582,16.801,16.965,16.999,16.784,16.591,16.442,16.221,16.093,16.125,16.104,16.106,16.197,16.253,16.31,16.331,16.353,16.363,16.372,16.371,16.376,16.376,16.38,16.382,16.383,16.386,16.396,16.406,16.413,16.415,16.423,16.434,16.447,16.45,16.454,16.458,16.469,16.474,16.478,16.481,16.491,16.499,16.513,16.53,16.538,16.555,16.575,16.601,16.621,16.637,16.654,16.672,16.686,16.693,16.693,16.697,16.697,16.696,16.685,16.669,16.657,16.635,16.607,16.576,16.534,16.499,16.463,16.438,16.405,16.377,16.349,16.328,16.314,16.304,16.284,16.272,16.264,16.262,16.254,16.252,16.242,16.239,16.237,16.234,16.229,16.221,16.218,16.215,16.212,16.207,16.2,16.203,16.205,16.205,16.2,16.191,16.19,16.196,16.201,16.206,16.202,16.201,16.204,16.205,16.205,16.205,16.203,16.204,16.207,16.208,16.204,16.2,16.2,16.204,16.205,16.202,16.2,16.202,16.205,16.209,16.209,16.205,16.206,16.205,16.21,16.208,16.202,16.201,16.204,16.205,16.2,16.194,16.192,16.193,16.197,16.195,16.192,16.189,16.19,16.192,16.19,16.187,16.185,16.183,16.188,16.189,16.184,16.182,16.186,16.19,16.193,16.187,16.188,16.188,16.191,16.191,16.185,16.182,16.185,16.188,16.189,16.187,16.184,16.18,16.185,16.188,16.189,16.187,16.182,16.179,16.186,16.185,16.177,16.191,16.198,16.195,16.183,16.19,16.186,16.182,16.173,16.195,16.221,16.219,16.241,16.236,16.243,16.236,16.222,16.281,16.304,16.318,16.317,16.297,16.313,16.309,16.311,16.309,16.309,16.314,16.283,16.269,16.261,16.251,16.255,16.26,16.269,16.257,16.259,16.243,16.26,16.257,16.242,16.244,16.242,16.226,16.224,16.195,16.206,16.327,16.539,16.739,16.937,17.044,16.781,16.597,16.469,16.23,16.044,16.038,16.063,16.073,16.158,16.197,16.252,16.257,16.269,16.276,16.262,16.267,16.264,16.257,16.261,16.25,16.257,16.26,16.28,16.276,16.278,16.277,16.278,16.286,16.299,16.297,16.303,16.302,16.307,16.323,16.318,16.336,16.335,16.352,16.369,16.378,16.394,16.412,16.436,16.458,16.471,16.481,16.493,16.513,16.527,16.539,16.545,16.549,16.552,16.559,16.556,16.542,16.528,16.511,16.488,16.457,16.42,16.385,16.352,16.324,16.306,16.278,16.244,16.222,16.198,16.182,16.163,16.15,16.139,16.134,16.128,16.118,16.109,16.107,16.104,16.103,16.095,16.087,16.083,16.086,16.08,16.076,16.065,16.061,16.063,16.066,16.06,16.057,16.055,16.054,16.056,16.059,16.058,16.06,16.062,16.069,16.072,16.071,16.071,16.073,16.081,16.089,16.084,16.084,16.083,16.091,16.094,16.097,16.097,16.097,16.106,16.111,16.114,16.11,16.113,16.118,16.125,16.125,16.12,16.122,16.125,16.129,16.129,16.126,16.125,16.126,16.126,16.128,16.124,16.125,16.128,16.132,16.127,16.122,16.123,16.125,16.125,16.126,16.124,16.122,16.121,16.124,16.125,16.121,16.118,16.122,16.125,16.128,16.126,16.126,16.127,16.132,16.135,16.131,16.13,16.129,16.135,16.143,16.145,16.141,16.144,16.147,16.153,16.152,16.15,16.15,16.153,16.156,16.154,16.154,16.153,16.16,16.171,16.177,16.181,16.186,16.203,16.211,16.204,16.199,16.208,16.22,16.24,16.265,16.247,16.242,16.239,16.233,16.228,16.214,16.205,16.188,16.162,16.147,16.134,16.125,16.126,16.124,16.127,16.122,16.121,16.116,16.12,16.119,16.114,16.113,16.114,16.105,16.079,16.052,16.076,16.202,16.311,16.527,16.738,16.894,16.8,16.543,16.403,16.243,15.996,15.943,15.972,15.983,16.079,16.127,16.192,16.204,16.228,16.221,16.235,16.229,16.242,16.238,16.252,16.251,16.259,16.259,16.277,16.278,16.284,16.283,16.297,16.302,16.316,16.316,16.324,16.327,16.343,16.352,16.354,16.361,16.374,16.39,16.41,16.427,16.442,16.461,16.485,16.507,16.53,16.545,16.566,16.581,16.597,16.609,16.604,16.61,16.61,16.615,16.613,16.609,16.592,16.576,16.555,16.534,16.498,16.463,16.423,16.385,16.352,16.324,16.293,16.268,16.245,16.233,16.212,16.205,16.199,16.196,16.19,16.184,16.174,16.174,16.17,16.174,16.168,16.164,16.159,16.158,16.148,16.139,16.133,16.134,16.128,16.135,16.122,16.121,16.113,16.115,16.11,16.116,16.113,16.113,16.115,16.113,16.114,16.112,16.117,16.121,16.124,16.128,16.12,16.126,16.122,16.131,16.132,16.129,16.123,16.135,16.136,16.14,16.14,16.137,16.134,16.139,16.14,16.135,16.131,16.128,16.129,16.133,16.126,16.118,16.118,16.12,16.118,16.117,16.11,16.106,16.109,16.109,16.109,16.107,16.1,16.101,16.102,16.1,16.1,16.099,16.106,16.108,16.107,16.1,16.102,16.102,16.109,16.11,16.102,16.1,16.093,16.103,16.101,16.092,16.091,16.087,16.09,16.097,16.103,16.11,16.135,16.13,16.134,16.13,16.136,16.149,16.161,16.19,16.207,16.185,16.182,16.18,16.176,16.161,16.145,16.128,16.107,16.084,16.07,16.062,16.064,16.064,16.068,16.068,16.064,16.059,16.06,16.058,16.064,16.058,16.056,16.056,16.049,16.025,16.006,16.033,16.164,16.391,16.604,16.798,16.823,16.693,16.455,16.233,16.059,15.944,16.015,16.019,15.952,15.968,16.038,16.099,16.141,16.164,16.178,16.185,16.19,16.198,16.201,16.204,16.201,16.205,16.21,16.215,16.221,16.231,16.246,16.259,16.275,16.282,16.295,16.306,16.316,16.326,16.339,16.342,16.353,16.372,16.385,16.392,16.407,16.42,16.439,16.466,16.486,16.503,16.525,16.546,16.564,16.58,16.588,16.592,16.594,16.598,16.596,16.588,16.575,16.558,16.547,16.519,16.487,16.451,16.414,16.388,16.36,16.333,16.302,16.277,16.257,16.247,16.231,16.217,16.205,16.203,16.202,16.198,16.191,16.188,16.184,16.188,16.187,16.177,16.172,16.171,16.175,16.173,16.166,16.164,16.166,16.169,16.17,16.165,16.161,16.163,16.169,16.18,16.177,16.176,16.174,16.179,16.186,16.185,16.182,16.183,16.188,16.188,16.187,16.182,16.182,16.193,16.194,16.193,16.193,16.193,16.198,16.2,16.203,16.204,16.199,16.202,16.205,16.21,16.206,16.206,16.205,16.211,16.214
