10.049,10.065,10.042,10.008,10.065,10.075,10.022,10.003,10.043,10.025,10.012,10.003,10.005,10.025,10.006,10.009,10.008,10.011,10.023,10.044,10.026,9.9842,9.9994,10.032,10.024,10.018,10,10.018,9.9967,9.9789,9.9801,9.9767,9.9934,9.9962,10.013,10.003,10.012,10.034,10.047,10.032,10.034,10.053,10.047,10.062,10.079,10.096,10.111,10.098,10.073,10.053,10.04,10.042,9.979,9.9719,9.9914,9.9803,9.9829,9.9712,9.9529,9.9614,9.9368,9.938,10.008,10.035,9.9991,9.9205,9.9472,10.001,10.132,10.414,10.737,10.991,11.074,11.121,11.031,10.533,10.027,9.8806,9.9378,10.032,10.074,10.079,10.036,10.043,10.075,10.089,10.08,10.037,10.03,10.048,10.046,10.024,10.028,10.053,10.058,10.059,10.057,10.075,10.059,10.04,10.071,10.07,10.071,10.105,10.11,10.103,10.13,10.133,10.122,10.115,10.126,10.144,10.13,10.137,10.167,10.176,10.188,10.189,10.197,10.224,10.261,10.304,10.275,10.24,10.289,10.306,10.317,10.355,10.383,10.381,10.398,10.403,10.413,10.428,10.426,10.396,10.34,10.323,10.325,10.296,10.23,10.177,10.158,10.135,10.117,10.108,10.115,10.082,10.08,10.03,9.9683,10.001,10.019,10.036,10.036,10.033,10.03,10.023,10.031,10.049,10.047,10.036,10.015,9.9959,9.9772,10.011,10.018,9.99,10.001,10.03,10.022,10.011,10.013,10.051,10.047,10.037,10.011,10.023,10.033,10.027,10.054,10.034,10.027,10.027,10.048,10.043,10.05,10.059,10.045,10.01,10.025,10.017,10.003,9.9842,9.9903,10.033,10.035,10.013,10.006,10.017,10.004,9.9989,10.026,10.012,10.004,10.003,10.016,10.001,9.9859,9.9726,9.9821,10.001,10.005,10.004,9.9868,10.01,10.007,9.9845,10.002,10.015,10.003,10.009,9.9746,9.9589,9.9637,10.003,10.002,9.9824,9.9788,10.013,9.9992,10.004,10.024,10.02,10.026,10.03,10.061,10.078,10.091,10.093,10.074,10.068,10.058,10.068,10.046,10.028,10.005,9.9976,9.9879,9.9597,9.9477,9.9418,9.9668,9.9917,9.9828,9.9766,9.9679,9.949,9.9312,9.959,10.001,10.123,10.377,10.769,11.049,11.12,11.098,11.004,10.565,10.072,9.9094,9.9881,10.026,10.044,10.069,10.046,10.065,10.082,10.077,10.049,10.045,10.037,10.057,10.074,10.065,10.054,10.084,10.051,10.039,10.027,10.047,10.073,10.099,10.096,10.108,10.098,10.123,10.125,10.144,10.107,10.103,10.099,10.128,10.153,10.157,10.152,10.181,10.2,10.2,10.204,10.192,10.222,10.253,10.234,10.25,10.287,10.293,10.286,10.286,10.315,10.315,10.367,10.406,10.429,10.431,10.397,10.424,10.412,10.397,10.386,10.368,10.326,10.291,10.308,10.288,10.261,10.21,10.145,10.11,10.075,10.083,10.067,10.073,10.061,10.051,10.063,10.061,10.047,10.022,10.041,10.026,10.026,9.9994,10.037,10.046,10.045,10.046,10.049,10.054,9.9964,10.008,10.066,10.087,10.062,10.072,10.038,10.028,10.035,10.031,10.034,10.026,10.076,10.059,10.06,10.06,10.051,10.017,10.036,10.078,10.081,10.032,10.006,10.018,10.031,10.065,10.082,10.049,10.022,9.991,10.025,10.026,10.021,10.019,10.033,10.069,10.08,10.041,10.029,9.9991,9.9965,10.018,10.018,10.029,10.022,10.027,10.034,10.018,9.9995,9.9806,10.005,10.037,10.06,10.041,9.9889,10.016,10.065,10.082,10.072,10.078,10.071,10.068,10.071,10.101,10.094,10.085,10.114,10.118,10.102,10.065,10.039,10.041,10.014,9.9911,9.9988,9.9789,9.9716,9.9773,10.014,10.021,9.9929,9.9961,10,9.9957,9.9711,10.027,10.131,10.287,10.59,10.969,11.124,11.136,11.116,11.012,10.532,10.029,9.9033,9.9673,10.051,10.089,10.074,10.098,10.119,10.125,10.081,10.04,10.051,10.033,10.079,10.105,10.133,10.097,10.104,10.081,10.097,10.076,10.073,10.095,10.111,10.119,10.141,10.159,10.15,10.14,10.157,10.153,10.165,10.172,10.17,10.176,10.168,10.18,10.191,10.21,10.237,10.264,10.261,10.239,10.282,10.313,10.305,10.306,10.321,10.369,10.361,10.372,10.381,10.399,10.411,10.44,10.473,10.488,10.45,10.452,10.416,10.389,10.368,10.354,10.328,10.289,10.246,10.217,10.176,10.157,10.132,10.103,10.086,10.085,10.097,10.12,10.096,10.06,10.047,10.077,10.09,10.112,10.107,10.046,10.033,10.068,10.076,10.065,10.03,10.029,10.036,10.051,10.071,10.096,10.098,10.085,10.075,10.064,10.088,10.085,10.092,10.07,10.059,10.067,10.055,10.07,10.098,10.049,10.037,10.062,10.078,10.091,10.094,10.089,10.049,10.038,10.048,10.032,10.062,10.066,10.061,10.051,10.042,10.024,10.007,10.031,10.083,10.095,10.073,10.043,10.048,10.03,10.003,9.9872,10.034,10.057,10.049,10.042,10.035,10.023,10.039,10.056,10.071,10.097,10.069,10.062,10.037,10.046,10.016,10.035,10.045,10.037,10.044,10.108,10.125,10.083,10.04,10.063,10.109,10.102,10.118,10.14,10.168,10.128,10.142,10.13,10.097,10.03,10.042,10.073,10.098,10.048,9.972,10,10.013,10.017,10.046,10.05,10.007,9.9781,9.9896,10.025,10.04,10.113,10.313,10.612,10.946,11.11,11.139,11.174,11.109,10.647,10.104,9.9646,10.064,10.13,10.134,10.102,10.075,10.078,10.102,10.133,10.123,10.093,10.065,10.068,10.072,10.078,10.093,10.107,10.096,10.105,10.139,10.138,10.109,10.124,10.18,10.172,10.12,10.149,10.203,10.15,10.127,10.148,10.152,10.182,10.187,10.251,10.21,10.17,10.184,10.224,10.26,10.301,10.309,10.305,10.283,10.277,10.3,10.345,10.405,10.401,10.447,10.437,10.42,10.423,10.434,10.464,10.484,10.496,10.475,10.457,10.459,10.434,10.375,10.306,10.279,10.268,10.277,10.237,10.177,10.133,10.138,10.153,10.145,10.127,10.079,10.064,10.069,10.062,10.071,10.079,10.088,10.095,10.083,10.082,10.068,10.076,10.087,10.101,10.088,10.077,10.076,10.076,10.076,10.078,10.115,10.106,10.048,10.032,10.075,10.095,10.103,10.094,10.08,10.076,10.064,10.091,10.112,10.127,10.089,10.078,10.092,10.082,10.064,10.104,10.104,10.099,10.082,10.071,10.093,10.061,10.052,10.055,10.048,10.055,10.071,10.067,10.085,10.075,10.057,10.057,10.062,10.054,10.072,10.08,10.076,10.068,10.038,10.009,10.011,10.036,10.052,10.09,10.078,10.038,10.044,10.06,10.052,10.017,10.025,10.029,10.058,10.07,10.075,10.085,10.084,10.118,10.118,10.08,10.086,10.089,10.093,10.087,10.111,10.156,10.171,10.142,10.076,10.094,10.1,10.085,10.037,10.009,10.017,10.056,10.091,10.037,9.9987,10.024,10.06,10.037,10.022,9.9997,9.9883,10.02,10.113,10.276,10.541,10.725,11.007,11.15,11.179,11.12,10.754,10.227,9.9648,10.032,10.108,10.168,10.187,10.139,10.084,10.094,10.096,10.108,10.108,10.112,10.094,10.118,10.101,10.091,10.069,10.102,10.091,10.077,10.066,10.103,10.137,10.173,10.174,10.157,10.157,10.15,10.14,10.155,10.216,10.217,10.194,10.185,10.174,10.19,10.216,10.222,10.213,10.225,10.233,10.293,10.308,10.282,10.309,10.327,10.391,10.402,10.385,10.395,10.413,10.396,10.462,10.488,10.47,10.519,10.536,10.489,10.46,10.471,10.426,10.41,10.376,10.331,10.319,10.277,10.219,10.193,10.128,10.116,10.131,10.153,10.124,10.102,10.068,10.078,10.089,10.072,10.028,10.071,10.13,10.094,10.059,10.044,10.144,10.144,10.098,10.042,10.035,10.035,10.067,10.057,10.082,10.087,10.014,9.9916,10.013,10.029,10.025,10.031,10.051,10.089,10.107,10.077,10.008,10.084,10.116,10.117,10.122,10.088,10.038,9.9962,10.017,10.013,10.013,10.032,10.03,10.034,10.096,10.102,10.079,10.047,10.016,10.031,10.051,10.018,10.047,10.058,10.03,10.029,9.9864,9.9172,9.9019,9.9567,10.023,10.007,9.9689,9.9554,9.9511,9.9698,10.043,10.076,10.074,10.015,9.9583,9.9966,10.036,10.024,10.003,9.975,9.9776,9.9424,9.962,9.9928,10.036,10.073,10.093,10.082,10.09,10.115,10.122,10.058,10.066,10.137,10.112,10.091,10.112,10.048,10,10.033,10.059,10.059,10.057,9.9971,9.9869,10.026,10.056,10.049,10.052,10.071,10.018,10.033,10.042,10.134,10.243,10.561,10.939,11.103,11.19,11.201,11.059,10.505,10.047,9.9959,10.074,10.156,10.172,10.195,10.189,10.179,10.106,10.05,10.088,10.139,10.136,10.151,10.182,10.181,10.116,10.107,10.079,10.081,10.057,10.037,10.074,10.124,10.161,10.191,10.197,10.187,10.161,10.115,10.103,10.154,10.201,10.199,10.189,10.254,10.281,10.262,10.221,10.243,10.27,10.289,10.313,10.305,10.271,10.315,10.376,10.437,10.465,10.46,10.464,10.443,10.466,10.492,10.551,10.551,10.556,10.561,10.583,10.581,10.544,10.49,10.422,10.382,10.402,10.366,10.262,10.228,10.226,10.229,10.227,10.17,10.156,10.144,10.141,10.143,10.158,10.18,10.171,10.124,10.116,10.136,10.114,10.113,10.122,10.131,10.104,10.083,10.034,10.018,10.106,10.208,10.214,10.179,10.161,10.165,10.136,10.142,10.155,10.166,10.181,10.17,10.1,10.057,10.072,10.133,10.189,10.172,10.142,10.123,10.18,10.207,10.148,10.097,10.139,10.182,10.167,10.148,10.143,10.15,10.161,10.141,10.12,10.13,10.176,10.193,10.174,10.107,10.062,10.104,10.142,10.139,10.126,10.129,10.129,10.159,10.181,10.18,10.113,10.106,10.141,10.155,10.115,10.102,10.089,10.112,10.142,10.134,10.152,10.148,10.153,10.168,10.176,10.158,10.17,10.238,10.263,10.265,10.258,10.25,10.221,10.223,10.206,10.148,10.128,10.064,10.099,10.102,10.111,10.139,10.163,10.12,10.067,10.071,10.107,10.112,10.138,10.14,10.123,10.175,10.338,10.628,11.042,11.228,11.278,11.245,11.132,10.75,10.244,10.076,10.097,10.22,10.262,10.274,10.199,10.184,10.173,10.131,10.174,10.223,10.225,10.214,10.225,10.258,10.215,10.22,10.233,10.221,10.249,10.241,10.212,10.212,10.247,10.276,10.246,10.256,10.289,10.284,10.286,10.271,10.269,10.31,10.311,10.326,10.326,10.317,10.342,10.387,10.401,10.356,10.348,10.375,10.419,10.431,10.453,10.467,10.487,10.479,10.508,10.526,10.553,10.557,10.576,10.605,10.594,10.606,10.6,10.604,10.608,10.568,10.523,10.491,10.471,10.444,10.393,10.334,10.288,10.241,10.246,10.249,10.245,10.213,10.207,10.22,10.251,10.221,10.16,10.153,10.195,10.223,10.21,10.211,10.196,10.205,10.242,10.242,10.216,10.176,10.193,10.208,10.21,10.176,10.174,10.204,10.205,10.215,10.221,10.202,10.178,10.206,10.226,10.244,10.225,10.207,10.205,10.22,10.231,10.226,10.221,10.211,10.189,10.188,10.195,10.191,10.217,10.202,10.173,10.131,10.162,10.221,10.209,10.191,10.159,10.162,10.149,10.19,10.185,10.179,10.184,10.185,10.204,10.197,10.176,10.173,10.205,10.206,10.178,10.212,10.212,10.222,10.204,10.258,10.286,10.245,10.232,10.267,10.283,10.252,10.251,10.272,10.262,10.22,10.166,10.166,10.155,10.175,10.199,10.208,10.221,10.184,10.171,10.193,10.162,10.136,10.153,10.149,10.145,10.151,10.223,10.348,10.596,10.95,11.29,11.322,11.237,11.153,10.691,10.219,10.067,10.104,10.185,10.286,10.273,10.247,10.251,10.249,10.262,10.263,10.261,10.243,10.239,10.256,10.254,10.245,10.232,10.239,10.263,10.283,10.288,10.27,10.283,10.283,10.286,10.317,10.351,10.366,10.343,10.342,10.332,10.318,10.339,10.329,10.338,10.332,10.337,10.37,10.413,10.404,10.421,10.445,10.44,10.463,10.45,10.439,10.472,10.475,10.493,10.543,10.548,10.539,10.578,10.598,10.624,10.652,10.671,10.638,10.583,10.555,10.566,10.557,10.487,10.426,10.419,10.416,10.403,10.339,10.304,10.302,10.253,10.237,10.248,10.253,10.272,10.27,10.235,10.239,10.288,10.253,10.214,10.201,10.229,10.235,10.236,10.234,10.219,10.232,10.248,10.266,10.244,10.205,10.199,10.236,10.266,10.258,10.248,10.279,10.278,10.245,10.237,10.261,10.274,10.285,10.299,10.254,10.237,10.222,10.238,10.255,10.246,10.205,10.203,10.228,10.256,10.268,10.271,10.248,10.254,10.228,10.217,10.224,10.221,10.257,10.245,10.238,10.266,10.268,10.256,10.29,10.281,10.249,10.27,10.316,10.325,10.312,10.285,10.306,10.304,10.319,10.311,10.267,10.222,10.215,10.185,10.193,10.187,10.194,10.217,10.218,10.224,10.208,10.165,10.198,10.2,10.192,10.201,10.269,10.441,10.601,10.991,11.316,11.372,11.306,11.208,11.05,10.291,10.122,10.228,10.202,10.273,10.243,10.297,10.277,10.267,10.202,10.265,10.312,10.292,10.257,10.276,10.3,10.291,10.239,10.278,10.284,10.328,10.361,10.359,10.306,10.309,10.308,10.333,10.326,10.34,10.36,10.355,10.335,10.342,10.334,10.341,10.387,10.419,10.406,10.391,10.407,10.434,10.438,10.464,10.464,10.485,10.533,10.548,10.563,10.552,10.541,10.509,10.519,10.566,10.616,10.64,10.652,10.641,10.652,10.629,10.619,10.585,10.568,10.548,10.475,10.428,10.396,10.405,10.384,10.339,10.329,10.324,10.323,10.277,10.229,10.254,10.287,10.268,10.266,10.267,10.286,10.295,10.268,10.263,10.25,10.204,10.228,10.255,10.278,10.243,10.252,10.259,10.283,10.279,10.266,10.255,10.267,10.261,10.285,10.29,10.285,10.299,10.289,10.252,10.251,10.269,10.253,10.237,10.271,10.288,10.288,10.271,10.285,10.27,10.234,10.22,10.223,10.25,10.277,10.282,10.246,10.247,10.246,10.268,10.256,10.258,10.244,10.251,10.25,10.24,10.226,10.263,10.274,10.283,10.265,10.286,10.335,10.349,10.337,10.319,10.332,10.322,10.292,10.28,10.261,10.232,10.194,10.206,10.227,10.275,10.254,10.214,10.216,10.22,10.188,10.19,10.21,10.237,10.234,10.207,10.171,10.211,10.387,10.682,11.102,11.324,11.355,11.34,11.29,10.979,10.432,10.11,10.205,10.277,10.319,10.338,10.349,10.309,10.264,10.275,10.3,10.298,10.283,10.294,10.305,10.304,10.305,10.335,10.322,10.291,10.259,10.243,10.277,10.325,10.353,10.365,10.378,10.395,10.353,10.345,10.353,10.364,10.36,10.369,10.411,10.429,10.451,10.431,10.408,10.394,10.402,10.44,10.509,10.521,10.487,10.485,10.537,10.564,10.589,10.581,10.581,10.6,10.622,10.649,10.643,10.684,10.718,10.684,10.66,10.661,10.612,10.566,10.554,10.546,10.507,10.454,10.417,10.396,10.388,10.364,10.33,10.324,10.283,10.287,10.291,10.293,10.282,10.282,10.286,10.271,10.263,10.284,10.274,10.294,10.275,10.272,10.309,10.293,10.265,10.262,10.255,10.269,10.282,10.305,10.255,10.249,10.299,10.302,10.257,10.258,10.286,10.292,10.286,10.288,10.297,10.272,10.258,10.287,10.3,10.266,10.271,10.289,10.319,10.307,10.242,10.24,10.251,10.264,10.286,10.259,10.289,10.266,10.247,10.263,10.287,10.289,10.253,10.219,10.248,10.254,10.246,10.216,10.233,10.263,10.236,10.245,10.27,10.312,10.316,10.318,10.282,10.28,10.302,10.316,10.334,10.335,10.336,10.339,10.321,10.306,10.296,10.237,10.237,10.265,10.239,10.228,10.205,10.184,10.187,10.197,10.195,10.22,10.235,10.26,10.232,10.171,10.197,10.324,10.428,10.636,11.012,11.268,11.387,11.378,11.251,10.77,10.293,10.139,10.212,10.349,10.338,10.319,10.308,10.309,10.284,10.284,10.319,10.301,10.291,10.275,10.287,10.287,10.303,10.296,10.318,10.334,10.31,10.299,10.338,10.337,10.335,10.304,10.304,10.369,10.389,10.384,10.383,10.373,10.383,10.391,10.386,10.386,10.402,10.414,10.435,10.445,10.443,10.446,10.432,10.481,10.531,10.575,10.563,10.592,10.584,10.593,10.59,10.59,10.619,10.626,10.682,10.71,10.679,10.674,10.687,10.668,10.636,10.59,10.558,10.539,10.479,10.44,10.434,10.43,10.396,10.397,10.394,10.349,10.302,10.277,10.294,10.331,10.313,10.293,10.278,10.306,10.314,10.264,10.217,10.252,10.277,10.269,10.262,10.256,10.266,10.287,10.292,10.316,10.343,10.317,10.287,10.268,10.272,10.261,10.279,10.293,10.314,10.3,10.267,10.284,10.296,10.315,10.335,10.317,10.296,10.264,10.275,10.256,10.256,10.253,10.278,10.3,10.29,10.286,10.276,10.262,10.256,10.233,10.246,10.262,10.26,10.259,10.266,10.256,10.242,10.248,10.274,10.278,10.264,10.259,10.264,10.237,10.241,10.257,10.289,10.292,10.27,10.27,10.286,10.304,10.299,10.303,10.311,10.338,10.351,10.333,10.356,10.325,10.293,10.275,10.245,10.248,10.266,10.26,10.242,10.242,10.211,10.232,10.242,10.234,10.209,10.196,10.197,10.215,10.191,10.225,10.293,10.455,10.745,11.133,11.347,11.333,11.318,11.199,10.624,10.176,10.156,10.215,10.296,10.328,10.317,10.314,10.321,10.322,10.323,10.295,10.3,10.276,10.296,10.303,10.316,10.306,10.294,10.313,10.348,10.352,10.314,10.332,10.341,10.341,10.354,10.35,10.347,10.377,10.383,10.37,10.378,10.376,10.382,10.4,10.411,10.438,10.43,10.422,10.456,10.46,10.478,10.508,10.514,10.517,10.502,10.542,10.566,10.577,10.587,10.61,10.587,10.609,10.647,10.67,10.707,10.687,10.64,10.662,10.689,10.65,10.607,10.591,10.575,10.51,10.454,10.424,10.399,10.384,10.356,10.341,10.311,10.34,10.374,10.335,10.32,10.331,10.32,10.302,10.311,10.322,10.332,10.28,10.25,10.275,10.293,10.312,10.321,10.305,10.262,10.269,10.307,10.336,10.331,10.305,10.26,10.287,10.32,10.322,10.356,10.35,10.333,10.301,10.323,10.333,10.299,10.264,10.296,10.289,10.279,10.296,10.328,10.308,10.293,10.325,10.319,10.284,10.268,10.3,10.313,10.321,10.332,10.281,10.265,10.272,10.289,10.314,10.309,10.288,10.262,10.267,10.278,10.291,10.283,10.263,10.262,10.291,10.304,10.293,10.291,10.289,10.305,10.35,10.34,10.348,10.372,10.377,10.379,10.352,10.318,10.317,10.358,10.342,10.322,10.283,10.231,10.252,10.264,10.264,10.246,10.224,10.239,10.235,10.239,10.246,10.244,10.223,10.193,10.231,10.412,10.698,11.08,11.327,11.397,11.409,11.335,10.861,10.587,10.256,10.199,10.248,10.252,10.34,10.363,10.389,10.345,10.349,10.296,10.298,10.288,10.318,10.312,10.338,10.321,10.354,10.356,10.346,10.295,10.31,10.322,10.363,10.34,10.351,10.402,10.458,10.442,10.405,10.356,10.383,10.389,10.398,10.409,10.447,10.445,10.435,10.44,10.451,10.467,10.451,10.456,10.48,10.504,10.535,10.553,10.575,10.581,10.607,10.619,10.638,10.649,10.647,10.682,10.726,10.709,10.679,10.714,10.728,10.662,10.587,10.585,10.566,10.527,10.493,10.424,10.413,10.391,10.37,10.373,10.355,10.34,10.344,10.337,10.327,10.341,10.314,10.282,10.294,10.323,10.334,10.328,10.288,10.293,10.293,10.326,10.315,10.282,10.284,10.328,10.319,10.303,10.327,10.352,10.35,10.324,10.283,10.298,10.298,10.346,10.372,10.332,10.317,10.339,10.304,10.297,10.319,10.385,10.363,10.344,10.343,10.326,10.296,10.285,10.296,10.284,10.27,10.294,10.33,10.34,10.326,10.348,10.35,10.321,10.27,10.269,10.321,10.321,10.27,10.251,10.295,10.313,10.304,10.28,10.262,10.276,10.319,10.283,10.282,10.272,10.287,10.258,10.267,10.321,10.312,10.31,10.292,10.3,10.349,10.375,10.378,10.363,10.292,10.293,10.322,10.338,10.355,10.385,10.363,10.342,10.337,10.319,10.262,10.226,10.266,10.253,10.253,10.268,10.297,10.319,10.302,10.288,10.251,10.232,10.221,10.236,10.221,10.251,10.386,10.634,11.012,11.324,11.41,11.396,11.337,10.93,10.422,10.186,10.262,10.352,10.36,10.373,10.398,10.369,10.339,10.345,10.345,10.352,10.342,10.328,10.31,10.308,10.3,10.299,10.319,10.344,10.369,10.378,10.377,10.379,10.385,10.406,10.343,10.395,10.411,10.406,10.412,10.415,10.426,10.423,10.439,10.442,10.463,10.436,10.427,10.448,10.47,10.506,10.533,10.537,10.532,10.553,10.588,10.562,10.591,10.619,10.663,10.672,10.672,10.714,10.712,10.714,10.727,10.729,10.734,10.73,10.763,10.751,10.688,10.583,10.545,10.529,10.5,10.47,10.467,10.449,10.416,10.41,10.391,10.358,10.366,10.331,10.313,10.356,10.365,10.322,10.321,10.348,10.343,10.305,10.322,10.349,10.365,10.358,10.328,10.286,10.312,10.335,10.346,10.328,10.329,10.358,10.388,10.38,10.364,10.372,10.346,10.337,10.307,10.318,10.337,10.373,10.332,10.322,10.356,10.357,10.344,10.376,10.327,10.309,10.357,10.32,10.298,10.309,10.333,10.331,10.331,10.353,10.348,10.342,10.295,10.298,10.308,10.321,10.351,10.332,10.321,10.306,10.286,10.288,10.295,10.3,10.313,10.324,10.319,10.356,10.305,10.299,10.286,10.284,10.32,10.291,10.29,10.315,10.334,10.339,10.336,10.369,10.351,10.363,10.376,10.343,10.345,10.386,10.408,10.376,10.4,10.396,10.361,10.296,10.288,10.287,10.318,10.295,10.27,10.276,10.282,10.277,10.29,10.309,10.287,10.281,10.276,10.288,10.286,10.324,10.399,10.609,10.914,11.277,11.413,11.45,11.388,11.037,10.551,10.304,10.34,10.416,10.408,10.365,10.375,10.359,10.368,10.385,10.389,10.354,10.363,10.371,10.399,10.386,10.36,10.337,10.333,10.366,10.377,10.4,10.4,10.393,10.439,10.445,10.445,10.426,10.405,10.402,10.414,10.454,10.475,10.488,10.469,10.466,10.467,10.484,10.495,10.531,10.51,10.512,10.542,10.554,10.575,10.584,10.599,10.623,10.641,10.647,10.687,10.677,10.69,10.706,10.737,10.78,10.79,10.806,10.814,10.774,10.759,10.732,10.664,10.615,10.61,10.612,10.584,10.544,10.514,10.499,10.459,10.414,10.407,10.398,10.356,10.347,10.355,10.374,10.377,10.377,10.397,10.366,10.354,10.368,10.382,10.383,10.354,10.357,10.387,10.367,10.363,10.373,10.361,10.361,10.34,10.397,10.397,10.358,10.367,10.371,10.337,10.373,10.402,10.404,10.385,10.342,10.343,10.388,10.375,10.376,10.392,10.388,10.37,10.367,10.359,10.336,10.362,10.353,10.345,10.365,10.384,10.381,10.392,10.368,10.323,10.343,10.347,10.328,10.336,10.327,10.323,10.336,10.363,10.38,10.356,10.351,10.343,10.307,10.322,10.33,10.343,10.354,10.33,10.344,10.376,10.341,10.307,10.314,10.361,10.37,10.356,10.364,10.378,10.387,10.389,10.402,10.388,10.394,10.411,10.407,10.412,10.421,10.439,10.402,10.379,10.331,10.302,10.276,10.299,10.319,10.331,10.347,10.336,10.313,10.288,10.285,10.303,10.28,10.262,10.264,10.316,10.357,10.498,10.785,11.186,11.394,11.442,11.434,11.266,10.759,10.329,10.263,10.323,10.415,10.435,10.416,10.394,10.373,10.345,10.373,10.391,10.392,10.373,10.396,10.386,10.388,10.389,10.397,10.382,10.416,10.429,10.404,10.412,10.431,10.429,10.449,10.457,10.458,10.447,10.422,10.453,10.47,10.463,10.475,10.516,10.542,10.505,10.489,10.528,10.539,10.539,10.564,10.586,10.584,10.588,10.632,10.629,10.658,10.651,10.671,10.669,10.69,10.718,10.742,10.727,10.77,10.796,10.79,10.81,10.765,10.739,10.748,10.716,10.645,10.648,10.649,10.59,10.505,10.47,10.463,10.487,10.429,10.425,10.438,10.411,10.398,10.429,10.418,10.404,10.395,10.401,10.411,10.389,10.368,10.355,10.364,10.399,10.422,10.386,10.406,10.405,10.389,10.368,10.379,10.409,10.412,10.419,10.412,10.384,10.386,10.414,10.448,10.419,10.408,10.391,10.373,10.387,10.403,10.406,10.409,10.427,10.394,10.395,10.411,10.383,10.373,10.397,10.404,10.384,10.395,10.399,10.392,10.379,10.378,10.377,10.373,10.392,10.375,10.394,10.391,10.371,10.375,10.363,10.346,10.36,10.397,10.406,10.413,10.404,10.417,10.423,10.42,10.431,10.445,10.42,10.417,10.449,10.478,10.479,10.481,10.428,10.409,10.384,10.375,10.36,10.36,10.359,10.351,10.366,10.384,10.369,10.356,10.342,10.332,10.342,10.342,10.372,10.377,10.41,10.505,10.754,11.084,11.443,11.545,11.502,11.415,10.985,10.438,10.265,10.334,10.35,10.382,10.46,10.43,10.405,10.395,10.452,10.462,10.432,10.456,10.482,10.453,10.44,10.429,10.429,10.44,10.453,10.474,10.491,10.489,10.47,10.462,10.486,10.481,10.483,10.479,10.49,10.506,10.536,10.528,10.507,10.552,10.568,10.562,10.573,10.588,10.567,10.572,10.595,10.621,10.623,10.643,10.681,10.704,10.69,10.655,10.663,10.703,10.744,10.785,10.749,10.801,10.822,10.819,10.833,10.829,10.838,10.824,10.772,10.716,10.699,10.678,10.657,10.635,10.631,10.594,10.534,10.506,10.497,10.467,10.473,10.492,10.498,10.468,10.452,10.479,10.495,10.485,10.426,10.412,10.463,10.511,10.48,10.433,10.469,10.459,10.475,10.469,10.469,10.482,10.483,10.442,10.409,10.451,10.471,10.472,10.459,10.465,10.445,10.419,10.441,10.461,10.454,10.487,10.492,10.469,10.446,10.457,10.474,10.476,10.47,10.468,10.447,10.439,10.445,10.42,10.426,10.444,10.446,10.416,10.407,10.408,10.39,10.395,10.411,10.439,10.456,10.442,10.394,10.414,10.42,10.431,10.454,10.451,10.449,10.476,10.451,10.415,10.431,10.434,10.44,10.462,10.494,10.482,10.451,10.483,10.495,10.452,10.401,10.405,10.415,10.432,10.418,10.408,10.357,10.371,10.378,10.397,10.399,10.417,10.434,10.389,10.35,10.326,10.369,10.514,10.78,11.147,11.438,11.539,11.594,11.519,11.365,10.766,10.373,10.368,10.429,10.518,10.521,10.52,10.498,10.468,10.458,10.48,10.465,10.457,10.496,10.455,10.397,10.422,10.437,10.452,10.448,10.485,10.498,10.481,10.478,10.508,10.516,10.519,10.536,10.538,10.516,10.504,10.501,10.508,10.511,10.539,10.563,10.582,10.566,10.58,10.604,10.613,10.608,10.631,10.603,10.62,10.628,10.665,10.684,10.707,10.745,10.748,10.782,10.827,10.848,10.821,10.817,10.817,10.799,10.807,10.811,10.799,10.771,10.739,10.743,10.667,10.632,10.638,10.601,10.547,10.511,10.491,10.488,10.461,10.44,10.43,10.444,10.465,10.455,10.41,10.42,10.439,10.439,10.389,10.399,10.424,10.428,10.392,10.39,10.406,10.439,10.462,10.441,10.401,10.438,10.438,10.451,10.424,10.406,10.435,10.443,10.451,10.433,10.413,10.419,10.433,10.443,10.441,10.393,10.383,10.4,10.417,10.429,10.435,10.428,10.433,10.45,10.431,10.412,10.386,10.396,10.394,10.402,10.429,10.452,10.451,10.382,10.386,10.38,10.366,10.362,10.393,10.404,10.403,10.378,10.374,10.398,10.419,10.416,10.416,10.431,10.471,10.454,10.446,10.451,10.469,10.498,10.503,10.491,10.462,10.416,10.354,10.347,10.354,10.379,10.373,10.381,10.366,10.353,10.343,10.31,10.327,10.362,10.362,10.385,10.354,10.321,10.367,10.56,10.857,11.234,11.387,11.495,11.497,11.429,11.086,10.531,10.287,10.354,10.412,10.416,10.427,10.409,10.445,10.447,10.497,10.472,10.421,10.389,10.418,10.403,10.429,10.45,10.473,10.45,10.429,10.431,10.455,10.463,10.493,10.466,10.471,10.489,10.501,10.479,10.497,10.511,10.517,10.521,10.545,10.556,10.571,10.539,10.546,10.548,10.551,10.572,10.607,10.626,10.648,10.664,10.666,10.7,10.674,10.668,10.712,10.743,10.747,10.744,10.745,10.771,10.787,10.797,10.794,10.824,10.84,10.793,10.765,10.734,10.691,10.646,10.615,10.59,10.554,10.53,10.484,10.462,10.448,10.453,10.468,10.476,10.459,10.451,10.425,10.419,10.422,10.431,10.412,10.394,10.409,10.385,10.403,10.447,10.429,10.428,10.428,10.444,10.457,10.451,10.423,10.422,10.437,10.439,10.434,10.451,10.43,10.417,10.412,10.417,10.428,10.405,10.409,10.437,10.436,10.45,10.425,10.433,10.452,10.441,10.409,10.39,10.407,10.418,10.404,10.403,10.394,10.428,10.44,10.413,10.382,10.373,10.395,10.43,10.411,10.381,10.401,10.424,10.408,10.411,10.451,10.475,10.469,10.498,10.493,10.475,10.47,10.478,10.477,10.429,10.39,10.363,10.38,10.393,10.414,10.387,10.364,10.349,10.324,10.331,10.36,10.35,10.357,10.378,10.37,10.356,10.404,10.526,10.774,11.155,11.444,11.525,11.486,11.411,11.286,10.708,10.317,10.337,10.332,10.387,10.474,10.49,10.443,10.446,10.442,10.443,10.445,10.459,10.451,10.458,10.465,10.483,10.476,10.484,10.492,10.49,10.465,10.473,10.5,10.484,10.516,10.533,10.547,10.539,10.518,10.504,10.517,10.539,10.531,10.573,10.573,10.594,10.598,10.618,10.61,10.607,10.626,10.618,10.656,10.675,10.652,10.696,10.698,10.704,10.718,10.773,10.781,10.769,10.805,10.824,10.806,10.787,10.785,10.805,10.801,10.814,10.79,10.732,10.713,10.68,10.648,10.607,10.555,10.524,10.542,10.511,10.506,10.502,10.493,10.505,10.496,10.472,10.457,10.472,10.488,10.472,10.473,10.446,10.461,10.478,10.476,10.42,10.442,10.471,10.471,10.453,10.458,10.467,10.486,10.462,10.468,10.467,10.476,10.478,10.492,10.519,10.532,10.488,10.467,10.456,10.472,10.506,10.484,10.461,10.485,10.471,10.476,10.499,10.495,10.467,10.427,10.438,10.472,10.463,10.465,10.46,10.447,10.454,10.473,10.495,10.528,10.495,10.481,10.502,10.471,10.502,10.531,10.542,10.53,10.521,10.584,10.604,10.541,10.5,10.492,10.498,10.456,10.411,10.416,10.433,10.444,10.441,10.445,10.442,10.44,10.448,10.435,10.441,10.443,10.439,10.449,10.395,10.428,10.51,10.716,11.069,11.432,11.605,11.584,11.537,11.236,10.664,10.333,10.38,10.395,10.473,10.492,10.521,10.537,10.517,10.529,10.55,10.564,10.526,10.513,10.499,10.522,10.515,10.504,10.5,10.476,10.499,10.514,10.535,10.588,10.599,10.579,10.556,10.569,10.571,10.535,10.531,10.557,10.575,10.591,10.607,10.648,10.653,10.663,10.689,10.671,10.676,10.66,10.689,10.685,10.684,10.698,10.721,10.742,10.763,10.763,10.8,10.803,10.817,10.866,10.881,10.84,10.881,10.883,10.893,10.872,10.829,10.799,10.789,10.785,10.766,10.718,10.643,10.617,10.59,10.557,10.549,10.55,10.559,10.555,10.532,10.478,10.501,10.499,10.527,10.533,10.53,10.526,10.518,10.495,10.496,10.497,10.498,10.508,10.514,10.532,10.517,10.515,10.534,10.529,10.501,10.485,10.487,10.534,10.543,10.523,10.511,10.516,10.542,10.518,10.491,10.515,10.524,10.516,10.483,10.503,10.534,10.543,10.504,10.524,10.521,10.539,10.522,10.511,10.481,10.481,10.471,10.464,10.491,10.528,10.511,10.513,10.504,10.52,10.512,10.494,10.529,10.582,10.597,10.552,10.536,10.577,10.585,10.597,10.571,10.553,10.559,10.58,10.524,10.461,10.445,10.442,10.45,10.453,10.479,10.489,10.459,10.45,10.465,10.462,10.471,10.472,10.449,10.446,10.478,10.638,10.919,11.285,11.548,11.612,11.633,11.534,10.98,10.486,10.407,10.437,10.488,10.53,10.574,10.568,10.565,10.526,10.517,10.513,10.527,10.536,10.523,10.504,10.52,10.527,10.554,10.549,10.556,10.542,10.558,10.569,10.601,10.611,10.59,10.588,10.611,10.591,10.592,10.592,10.601,10.627,10.603,10.612,10.621,10.645,10.666,10.646,10.667,10.69,10.699,10.743,10.754,10.757,10.755,10.781,10.795,10.794,10.831,10.825,10.837,10.886,10.883,10.912,10.902,10.893,10.892,10.859,10.841,10.814,10.788,10.751,10.732,10.707,10.665,10.645,10.646,10.62,10.561,10.54,10.536,10.53,10.539,10.544,10.541,10.549,10.524,10.526,10.524,10.503,10.493,10.49,10.488,10.478,10.505,10.511,10.525,10.502,10.516,10.523,10.509,10.541,10.52,10.499,10.487,10.494,10.534,10.54,10.539,10.548,10.564,10.545,10.512,10.459,10.498,10.518,10.514,10.497,10.493,10.52,10.502,10.525,10.529,10.531,10.509,10.521,10.529,10.497,10.486,10.505,10.503,10.523,10.537,10.529,10.516,10.519,10.478,10.46,10.482,10.512,10.527,10.564,10.572,10.553,10.549,10.546,10.582,10.609,10.59,10.575,10.571,10.541,10.52,10.504,10.505,10.496,10.483,10.475,10.499,10.505,10.464,10.424,10.459,10.475,10.469,10.471,10.469,10.48,10.454,10.51,10.605,10.888,11.061,11.387,11.571,11.601,11.586,11.348,10.797,10.416,10.457,10.518,10.589,10.57,10.564,10.536,10.554,10.538,10.556,10.574,10.564,10.543,10.515,10.559,10.611,10.554,10.516,10.54,10.57,10.551,10.56,10.573,10.598,10.594,10.631,10.627,10.644,10.633,10.626,10.636,10.638,10.634,10.623,10.62,10.664,10.693,10.708,10.706,10.7,10.71,10.754,10.776,10.784,10.742,10.747,10.787,10.803,10.841,10.891,10.915,10.917,10.913,10.906,10.933,10.936,10.945,10.939,10.905,10.886,10.871,10.854,10.803,10.746,10.681,10.649,10.651,10.635,10.614,10.598,10.605,10.596,10.57,10.524,10.532,10.543,10.558,10.543,10.552,10.564,10.55,10.538,10.543,10.522,10.524,10.555,10.562,10.537,10.537,10.531,10.521,10.534,10.534,10.54,10.579,10.565,10.551,10.55,10.543,10.527,10.535,10.529,10.547,10.561,10.552,10.559,10.559,10.552,10.53,10.525,10.547,10.539,10.533,10.536,10.518,10.521,10.552,10.541,10.498,10.509,10.537,10.542,10.516,10.514,10.54,10.51,10.508,10.514,10.511,10.537,10.574,10.551,10.477,10.483,10.526,10.523,10.518,10.519,10.517,10.548,10.557,10.537,10.541,10.559,10.592,10.58,10.568,10.584,10.599,10.605,10.62,10.616,10.599,10.576,10.491,10.451,10.476,10.488,10.498,10.497,10.495,10.503,10.489,10.469,10.48,10.492,10.514,10.523,10.483,10.454,10.467,10.614,10.861,11.308,11.59,11.643,11.634,11.569,11.089,10.605,10.421,10.438,10.562,10.613,10.628,10.58,10.601,10.589,10.565,10.541,10.552,10.554,10.589,10.622,10.608,10.586,10.593,10.594,10.578,10.584,10.588,10.605,10.604,10.609,10.603,10.602,10.588,10.593,10.602,10.662,10.672,10.698,10.716,10.66,10.663,10.668,10.699,10.717,10.709,10.745,10.76,10.755,10.732,10.714,10.739,10.803,10.838,10.831,10.848,10.865,10.917,10.927,10.955,10.962,10.985,10.972,10.945,10.923,10.936,10.95,10.857,10.832,10.802,10.792,10.76,10.7,10.672,10.676,10.67,10.607,10.537,10.552,10.588,10.612,10.566,10.555,10.538,10.573,10.581,10.533,10.545,10.553,10.543,10.487,10.491,10.508,10.558,10.551,10.549,10.547,10.526,10.55,10.55,10.548,10.563,10.598,10.606,10.542,10.471,10.468,10.515,10.551,10.56,10.529,10.538,10.591,10.591,10.508,10.516,10.56,10.609,10.621,10.584,10.515,10.459,10.496,10.509,10.522,10.524,10.476,10.475,10.547,10.574,10.568,10.584,10.577,10.551,10.517,10.549,10.604,10.612,10.584,10.51,10.494,10.566,10.549,10.491,10.49,10.552,10.568,10.541,10.558,10.602,10.603,10.608,10.616,10.626,10.592,10.551,10.579,10.646,10.645,10.646,10.646,10.635,10.589,10.58,10.57,10.514,10.526,10.538,10.568,10.535,10.5,10.492,10.477,10.511,10.518,10.511,10.476,10.477,10.533,10.499,10.475,10.554,10.741,10.879,11.27,11.594,11.651,11.627,11.51,11.068,10.59,10.42,10.47,10.594,10.641,10.643,10.568,10.585,10.598,10.597,10.586,10.521,10.482,10.49,10.519,10.542,10.563,10.565,10.501,10.505,10.559,10.552,10.583,10.613,10.624,10.597,10.565,10.567,10.555,10.594,10.626,10.625,10.615,10.596,10.62,10.681,10.651,10.664,10.685,10.689,10.684,10.71,10.72,10.715,10.733,10.777,10.838,10.828,10.821,10.838,10.858,10.867,10.866,10.858,10.866,10.892,10.938,10.955,10.937,10.887,10.851,10.833,10.814,10.768,10.731,10.739,10.718,10.664,10.609,10.607,10.608,10.597,10.566,10.534,10.514,10.524,10.545,10.541,10.545,10.497,10.473,10.498,10.501,10.501,10.499,10.514,10.527,10.491,10.501,10.547,10.566,10.542,10.508,10.505,10.526,10.485,10.521,10.533,10.517,10.514,10.516,10.506,10.5,10.519,10.543,10.543,10.516,10.502,10.486,10.499,10.515,10.511,10.497,10.486,10.501,10.53,10.538,10.513,10.52,10.505,10.455,10.45,10.478,10.506,10.547,10.531,10.5,10.48,10.471,10.47,10.504,10.508,10.511,10.516,10.511,10.53,10.528,10.55,10.559,10.57,10.582,10.571,10.552,10.573,10.56,10.557,10.531,10.502,10.491,10.507,10.515,10.498,10.498,10.483,10.469,10.418,10.477,10.514,10.481,10.454,10.421,10.436,10.453,10.557,10.605,10.743,11.011,11.409,11.637,11.633,11.558,11.341,10.787,10.413,10.415,10.435,10.52,10.598,10.611,10.646,10.566,10.512,10.509,10.526,10.539,10.528,10.528,10.559,10.573,10.527,10.527,10.547,10.586,10.592,10.603,10.595,10.563,10.571,10.613,10.621,10.659,10.651,10.636,10.584,10.627,10.639,10.662,10.66,10.641,10.693,10.659,10.664,10.686,10.671,10.697,10.735,10.791,10.772,10.749,10.836,10.835,10.783,10.793,10.809,10.842,10.887,10.862,10.862,10.889,10.898,10.926,10.911,10.861,10.825,10.804,10.774,10.735,10.68,10.669,10.66,10.606,10.602,10.637,10.622,10.581,10.567,10.523,10.506,10.539,10.596,10.617,10.586,10.55,10.514,10.537,10.594,10.547,10.507,10.521,10.486,10.491,10.543,10.565,10.546,10.537,10.575,10.595,10.551,10.534,10.531,10.589,10.622,10.631,10.619,10.594,10.542,10.514,10.538,10.56,10.56,10.533,10.545,10.594,10.592,10.577,10.575,10.617,10.575,10.546,10.553,10.623,10.615,10.573,10.551,10.54,10.573,10.562,10.618,10.634,10.643,10.62,10.596,10.614,10.575,10.591,10.654,10.654,10.612,10.625,10.652,10.644,10.598,10.541,10.526,10.542,10.554,10.527,10.499,10.512,10.563,10.507,10.509,10.503,10.489,10.5,10.521,10.519,10.462,10.46,10.597,10.837,11.178,11.512,11.68,11.699,11.644,11.559,11.033,10.484,10.393,10.471,10.547,10.605,10.641,10.597,10.554,10.554,10.603,10.585,10.557,10.528,10.526,10.587,10.614,10.624,10.63,10.616,10.592,10.59,10.65,10.648,10.636,10.568,10.6,10.624,10.651,10.681,10.674,10.649,10.634,10.651,10.641,10.653,10.673,10.676,10.685,10.7,10.763,10.794,10.821,10.81,10.815,10.833,10.838,10.858,10.859,10.837,10.856,10.886,10.876,10.93,10.934,10.97,10.974,10.964,10.959,10.949,10.957,10.936,10.873,10.891,10.825,10.725,10.685,10.669,10.679,10.663,10.61,10.635,10.657,10.592,10.56,10.574,10.582,10.57,10.611,10.615,10.634,10.606,10.568,10.564,10.545,10.569,10.612,10.631,10.586,10.56,10.571,10.598,10.646,10.644,10.629,10.588,10.562,10.569,10.587,10.635,10.607,10.593,10.602,10.601,10.607,10.642,10.654,10.611,10.618,10.593,10.589,10.592,10.639,10.644,10.621,10.624,10.586,10.579,10.567,10.572,10.592,10.624,10.613,10.631,10.631,10.591,10.584,10.603,10.677,10.649,10.628,10.635,10.644,10.648,10.663,10.72,10.722,10.716,10.7,10.679,10.655,10.644,10.573,10.561,10.571,10.562,10.568,10.609,10.616,10.581,10.568,10.577,10.575,10.578,10.596,10.587,10.558,10.538,10.563,10.682,10.932,11.252,11.583,11.736,11.768,11.73,11.391,10.816,10.464,10.525,10.586,10.647,10.686,10.653,10.639,10.664,10.635,10.646,10.66,10.631,10.631,10.614,10.657,10.682,10.664,10.67,10.659,10.705,10.693,10.68,10.676,10.672,10.688,10.706,10.723,10.717,10.7,10.711,10.755,10.778,10.756,10.734,10.738,10.769,10.795,10.781,10.622,10.613,10.651,10.636,10.635,10.61,10.629,10.645,10.659,10.619,10.617,10.607,10.64,10.625,10.597,10.604,10.64,10.636,10.639,10.606,10.576,10.563,10.555,10.568,10.596,10.593,10.586,10.575,10.562,10.584,10.609,10.621,10.592,10.575,10.591,10.597,10.599,10.596,10.619,10.607,10.617,10.619,10.622,10.637,10.672,10.684,10.688,10.677,10.664,10.652,10.63,10.598,10.555,10.551,10.556,10.523,10.52,10.543,10.563,10.56,10.56,10.524,10.52,10.548
