-8.5838,-8.5824,-8.5842,-8.5823,-8.5818,-8.5795,-8.5811,-8.5799,-8.5806,-8.5771,-8.5768,-8.5732,-8.5738,-8.5713,-8.5737,-8.5704,-8.5707,-8.5662,-8.5641,-8.5623,-8.5647,-8.5614,-8.5611,-8.5589,-8.562,-8.561,-8.5592,-8.5585,-8.5605,-8.5635,-8.5732,-8.5779,-8.5845,-8.5914,-8.5946,-8.5975,-8.5999,-8.5996,-8.6038,-8.5871,-8.5733,-8.5637,-8.5603,-8.568,-8.5767,-8.5771,-8.5934,-8.5902,-8.5724,-8.562,-8.5565,-8.5525,-8.5501,-8.5461,-8.5445,-8.5448,-8.5406,-8.5368,-8.5347,-8.5411,-8.6271,-8.8556,-9.1383,-9.4043,-9.7692,-9.9296,-9.7585,-8.6912,-7.2853,-6.4013,-6.2288,-6.219,-6.4305,-6.9237,-7.323,-7.8139,-8.1407,-8.3831,-8.5087,-8.5738,-8.5903,-8.6251,-8.6302,-8.6532,-8.654,-8.6744,-8.675,-8.6894,-8.6858,-8.7041,-8.7051,-8.7212,-8.7235,-8.7387,-8.7405,-8.7578,-8.7617,-8.7781,-8.7793,-8.7944,-8.7995,-8.8146,-8.8208,-8.8352,-8.8395,-8.8534,-8.859,-8.87,-8.8733,-8.8793,-8.8832,-8.8865,-8.8882,-8.8898,-8.8903,-8.8846,-8.8829,-8.8802,-8.8761,-8.872,-8.8719,-8.8707,-8.873,-8.8772,-8.8817,-8.884,-8.8863,-8.8825,-8.8724,-8.8548,-8.8345,-8.8053,-8.7808,-8.7499,-8.7253,-8.6966,-8.677,-8.6554,-8.6432,-8.628,-8.6169,-8.6059,-8.5995,-8.5923,-8.5891,-8.582,-8.5788,-8.5723,-8.5738,-8.5704,-8.5753,-8.573,-8.578,-8.5792,-8.5818,-8.578,-8.5816,-8.5789,-8.5801,-8.5788,-8.5805,-8.5792,-8.5843,-8.5803,-8.5811,-8.5791,-8.5783,-8.5763,-8.5781,-8.5744,-8.5733,-8.5651,-8.5673,-8.5645,-8.5632,-8.5592,-8.5553,-8.5488,-8.5495,-8.5454,-8.5428,-8.5417,-8.5394,-8.5323,-8.5342,-8.5306,-8.5285,-8.5264,-8.5275,-8.5255,-8.5276,-8.5251,-8.523,-8.5229,-8.5298,-8.5342,-8.5473,-8.5494,-8.5536,-8.5547,-8.5537,-8.5567,-8.5516,-8.5323,-8.5286,-8.52,-8.518,-8.5258,-8.5301,-8.5334,-8.5455,-8.5389,-8.5209,-8.5117,-8.5036,-8.4952,-8.49,-8.4871,-8.4859,-8.4868,-8.486,-8.4827,-8.4831,-8.4956,-8.5951,-8.8327,-9.0887,-9.3473,-9.6856,-9.7931,-9.6309,-8.6182,-7.3961,-6.6615,-6.3749,-6.3891,-6.6501,-7.1111,-7.5587,-7.9499,-8.1916,-8.3811,-8.4265,-8.5038,-8.5178,-8.5531,-8.5571,-8.5841,-8.5838,-8.6016,-8.5987,-8.6186,-8.623,-8.6395,-8.6365,-8.6492,-8.6535,-8.673,-8.6712,-8.6889,-8.6921,-8.7025,-8.7029,-8.7141,-8.721,-8.7379,-8.7407,-8.7505,-8.7508,-8.7618,-8.7685,-8.7731,-8.7737,-8.7787,-8.7755,-8.782,-8.7802,-8.7794,-8.7689,-8.7667,-8.7631,-8.7569,-8.7536,-8.7467,-8.7411,-8.7354,-8.7346,-8.7385,-8.7501,-8.7582,-8.7633,-8.7618,-8.7586,-8.7433,-8.7298,-8.7022,-8.6759,-8.6521,-8.6258,-8.6107,-8.5929,-8.5687,-8.5555,-8.5368,-8.5315,-8.5181,-8.5121,-8.4988,-8.4981,-8.4902,-8.4896,-8.4839,-8.4867,-8.4848,-8.4842,-8.4829,-8.4869,-8.4823,-8.488,-8.4799,-8.4835,-8.4785,-8.4834,-8.4822,-8.4836,-8.4767,-8.4749,-8.4735,-8.475,-8.4705,-8.4664,-8.4619,-8.4659,-8.4603,-8.4602,-8.4485,-8.4484,-8.4461,-8.4472,-8.4396,-8.436,-8.4376,-8.4322,-8.4281,-8.4277,-8.4232,-8.4206,-8.4149,-8.4124,-8.4127,-8.41,-8.4074,-8.406,-8.4037,-8.4078,-8.407,-8.4107,-8.4122,-8.4164,-8.4224,-8.4267,-8.424,-8.4318,-8.4309,-8.416,-8.3898,-8.3785,-8.3669,-8.375,-8.3807,-8.3823,-8.3974,-8.4021,-8.387,-8.3714,-8.3675,-8.3605,-8.3506,-8.3505,-8.3461,-8.3454,-8.3382,-8.3366,-8.3311,-8.3409,-8.431,-8.6525,-8.9039,-9.1314,-9.4552,-9.5899,-9.464,-8.6199,-7.4841,-7.0747,-6.5327,-6.4022,-6.4183,-6.6731,-7.1303,-7.5294,-7.8721,-8.0619,-8.236,-8.3032,-8.3638,-8.3581,-8.3999,-8.3905,-8.4262,-8.4149,-8.4449,-8.4314,-8.4598,-8.4439,-8.4673,-8.4587,-8.4824,-8.4753,-8.4971,-8.4902,-8.5116,-8.5028,-8.5203,-8.5171,-8.5409,-8.5419,-8.5566,-8.5503,-8.5658,-8.5652,-8.5759,-8.5746,-8.5843,-8.5805,-8.5859,-8.5824,-8.5859,-8.5783,-8.5778,-8.5714,-8.57,-8.559,-8.5547,-8.5454,-8.5421,-8.5388,-8.5382,-8.5384,-8.5425,-8.5468,-8.5499,-8.5499,-8.5408,-8.5279,-8.5065,-8.4889,-8.4595,-8.4345,-8.4051,-8.3821,-8.3591,-8.3431,-8.3212,-8.3086,-8.2943,-8.2868,-8.2751,-8.2681,-8.258,-8.2587,-8.2533,-8.2537,-8.247,-8.2495,-8.2434,-8.2477,-8.2421,-8.2471,-8.2393,-8.2436,-8.2373,-8.2403,-8.2315,-8.2318,-8.2277,-8.2295,-8.2259,-8.2264,-8.2196,-8.2202,-8.2129,-8.2174,-8.2107,-8.2114,-8.2041,-8.204,-8.1986,-8.1993,-8.1917,-8.1884,-8.1829,-8.1845,-8.1769,-8.1783,-8.1698,-8.1665,-8.1611,-8.1648,-8.158,-8.159,-8.1509,-8.1487,-8.1427,-8.1457,-8.1434,-8.1411,-8.1349,-8.1358,-8.1294,-8.1289,-8.1243,-8.1255,-8.1227,-8.1239,-8.1297,-8.1389,-8.1435,-8.1454,-8.1435,-8.1412,-8.1385,-8.1468,-8.1387,-8.121,-8.1094,-8.1003,-8.1009,-8.1132,-8.1088,-8.1217,-8.1233,-8.1126,-8.0936,-8.0838,-8.0746,-8.0679,-8.0673,-8.0642,-8.0612,-8.0611,-8.0544,-8.0507,-8.0477,-8.1013,-8.2868,-8.5741,-8.8183,-9.1818,-9.4019,-9.3734,-8.5566,-7.1899,-6.0881,-5.6848,-5.7346,-6.0014,-6.0368,-6.6595,-7.2116,-7.5214,-7.8306,-7.9371,-8.0619,-8.044,-8.1142,-8.0801,-8.1395,-8.1082,-8.1593,-8.1275,-8.1727,-8.1423,-8.1868,-8.1617,-8.1959,-8.1731,-8.2084,-8.189,-8.2219,-8.2066,-8.2375,-8.222,-8.2494,-8.2394,-8.265,-8.2565,-8.2812,-8.2751,-8.2975,-8.2946,-8.3095,-8.3086,-8.3224,-8.3158,-8.3267,-8.3239,-8.3309,-8.3232,-8.3282,-8.3217,-8.3195,-8.3157,-8.314,-8.3079,-8.3079,-8.3096,-8.3082,-8.3135,-8.3117,-8.3164,-8.309,-8.3011,-8.2809,-8.2737,-8.2446,-8.2202,-8.1864,-8.1619,-8.13,-8.1117,-8.0891,-8.074,-8.055,-8.0492,-8.0345,-8.0336,-8.019,-8.0186,-8.0039,-8.0101,-7.9972,-7.9997,-7.9914,-7.9952,-7.9862,-7.9975,-7.9903,-7.9981,-7.9869,-7.9929,-7.9847,-7.9922,-7.9817,-7.9894,-7.9824,-7.9885,-7.9804,-7.9864,-7.975,-7.9804,-7.9714,-7.9774,-7.9645,-7.9673,-7.9565,-7.9611,-7.9504,-7.9539,-7.9432,-7.9436,-7.9316,-7.935,-7.9229,-7.9261,-7.9144,-7.9148,-7.9041,-7.9056,-7.8992,-7.9018,-7.8943,-7.8977,-7.8895,-7.8913,-7.883,-7.8863,-7.8833,-7.8897,-7.8865,-7.8986,-7.902,-7.9092,-7.9045,-7.9047,-7.9013,-7.9088,-7.9033,-7.8843,-7.8714,-7.8675,-7.8583,-7.8716,-7.8717,-7.8766,-7.8855,-7.8819,-7.8644,-7.8523,-7.8442,-7.8371,-7.832,-7.8288,-7.8275,-7.8222,-7.8181,-7.8146,-7.8157,-7.8558,-7.9186,-8.1452,-8.4111,-8.6694,-9.0325,-9.1709,-9.0143,-7.9681,-6.6532,-5.8368,-5.5513,-5.6118,-5.9331,-6.4101,-6.8838,-7.2777,-7.5296,-7.7109,-7.7916,-7.8266,-7.845,-7.8731,-7.8804,-7.901,-7.9032,-7.9221,-7.9204,-7.9344,-7.9352,-7.9503,-7.9544,-7.9684,-7.9732,-7.9865,-7.9886,-7.9997,-8.006,-8.0168,-8.0194,-8.0299,-8.0378,-8.0461,-8.0567,-8.0614,-8.0671,-8.0717,-8.0799,-8.0865,-8.0892,-8.0956,-8.1026,-8.0987,-8.0973,-8.0943,-8.0925,-8.0882,-8.0923,-8.0853,-8.0802,-8.0727,-8.072,-8.0652,-8.0697,-8.069,-8.082,-8.0821,-8.0906,-8.0859,-8.0808,-8.0599,-8.0459,-8.0182,-7.9957,-7.9631,-7.9436,-7.9129,-7.9067,-7.8848,-7.8681,-7.8472,-7.8394,-7.8246,-7.8219,-7.8111,-7.8091,-7.8,-7.8014,-7.7921,-7.7916,-7.7896,-7.7949,-7.7937,-7.8002,-7.7966,-7.7989,-7.7911,-7.7944,-7.7929,-7.7981,-7.7912,-7.7944,-7.7906,-7.7902,-7.7862,-7.7873,-7.7795,-7.7818,-7.7774,-7.7802,-7.7777,-7.7753,-7.7684,-7.7698,-7.7622,-7.7603,-7.7589,-7.7592,-7.7561,-7.7555,-7.7512,-7.7487,-7.7425,-7.7426,-7.7404,-7.7397,-7.7368,-7.7336,-7.7278,-7.7315,-7.7285,-7.7354,-7.7382,-7.7456,-7.7476,-7.7478,-7.7547,-7.7561,-7.7579,-7.7617,-7.754,-7.7256,-7.7162,-7.7075,-7.7158,-7.7266,-7.7244,-7.7355,-7.7425,-7.7307,-7.7156,-7.7044,-7.6981,-7.6908,-7.6926,-7.6897,-7.6892,-7.6824,-7.6806,-7.6799,-7.687,-7.7576,-7.9637,-8.2142,-8.4316,-8.7522,-8.9386,-8.8482,-8.17,-7.0374,-6.2867,-5.8606,-5.7324,-5.7353,-5.9847,-6.4251,-6.8405,-7.1694,-7.4025,-7.5542,-7.6584,-7.6992,-7.7183,-7.7418,-7.7537,-7.7675,-7.7736,-7.7855,-7.7914,-7.8018,-7.8099,-7.8168,-7.8178,-7.8259,-7.8338,-7.8432,-7.8532,-7.8574,-7.8662,-7.8741,-7.8809,-7.8925,-7.8982,-7.9022,-7.9105,-7.9171,-7.9224,-7.9236,-7.9302,-7.9386,-7.9436,-7.942,-7.9428,-7.939,-7.9387,-7.937,-7.9308,-7.9265,-7.9169,-7.9096,-7.9068,-7.9038,-7.9028,-7.8982,-7.9032,-7.906,-7.9159,-7.9199,-7.9222,-7.9147,-7.9146,-7.8979,-7.8779,-7.8529,-7.8326,-7.8076,-7.783,-7.7586,-7.7388,-7.7176,-7.7031,-7.6916,-7.6832,-7.6731,-7.6656,-7.6622,-7.6613,-7.6556,-7.6507,-7.6488,-7.6548,-7.6514,-7.6535,-7.654,-7.6538,-7.6526,-7.6509,-7.6531,-7.6505,-7.6451,-7.6474,-7.6461,-7.6487,-7.645,-7.6421,-7.6407,-7.637,-7.6351,-7.6323,-7.6303,-7.6296,-7.6277,-7.623,-7.6235,-7.6195,-7.6167,-7.616,-7.6137,-7.6105,-7.6091,-7.6035,-7.5997,-7.5957,-7.5929,-7.5907,-7.5884,-7.5875,-7.587,-7.5835,-7.5853,-7.585,-7.5885,-7.5953,-7.602,-7.607,-7.6129,-7.6123,-7.6129,-7.6185,-7.621,-7.6012,-7.5797,-7.569,-7.5659,-7.5753,-7.5798,-7.583,-7.5938,-7.599,-7.5863,-7.5678,-7.5611,-7.5527,-7.5449,-7.542,-7.54,-7.5388,-7.5376,-7.5327,-7.5307,-7.5478,-7.6664,-7.9199,-8.1652,-8.4443,-8.7705,-8.8491,-8.8381,-8.5754,-6.8246,-5.784,-5.4148,-5.3504,-5.6095,-5.9665,-6.4575,-6.8382,-7.187,-7.3391,-7.5171,-7.5241,-7.5972,-7.5739,-7.6276,-7.6006,-7.6423,-7.6184,-7.6621,-7.6383,-7.6766,-7.6563,-7.6919,-7.6724,-7.706,-7.6892,-7.7199,-7.7085,-7.7363,-7.7278,-7.7523,-7.7452,-7.7677,-7.7635,-7.7834,-7.7768,-7.7947,-7.7928,-7.807,-7.8084,-7.823,-7.8228,-7.828,-7.8261,-7.8312,-7.8286,-7.8313,-7.8258,-7.8223,-7.8186,-7.8126,-7.8101,-7.8052,-7.8059,-7.803,-7.809,-7.8114,-7.8187,-7.8136,-7.8155,-7.8018,-7.7896,-7.7612,-7.7403,-7.7045,-7.6842,-7.6513,-7.6339,-7.6068,-7.5948,-7.5694,-7.5634,-7.5444,-7.5475,-7.5302,-7.53,-7.5171,-7.5211,-7.5064,-7.5103,-7.502,-7.508,-7.4991,-7.5069,-7.4984,-7.5085,-7.4995,-7.5093,-7.5004,-7.5067,-7.4977,-7.5068,-7.499,-7.5055,-7.495,-7.5027,-7.4941,-7.5011,-7.4907,-7.4952,-7.4876,-7.4948,-7.4859,-7.4891,-7.4783,-7.4822,-7.4736,-7.4754,-7.4648,-7.4679,-7.4579,-7.463,-7.4546,-7.4559,-7.4448,-7.4487,-7.4413,-7.4456,-7.4375,-7.4436,-7.4436,-7.4557,-7.4604,-7.4715,-7.4669,-7.4696,-7.4677,-7.4769,-7.474,-7.4532,-7.4376,-7.43,-7.4238,-7.4354,-7.4371,-7.4426,-7.4569,-7.4539,-7.4322,-7.4231,-7.4131,-7.4066,-7.3994,-7.3993,-7.3962,-7.3953,-7.3915,-7.3898,-7.3878,-7.3929,-7.4597,-7.6682,-7.9439,-8.19,-8.5641,-8.7492,-8.669,-7.7321,-6.3653,-5.4091,-5.0805,-5.1403,-5.44,-5.9259,-6.3746,-6.8044,-7.0793,-7.2741,-7.3682,-7.4028,-7.4209,-7.4541,-7.4594,-7.4811,-7.4849,-7.5036,-7.5033,-7.5179,-7.5201,-7.5319,-7.5338,-7.5465,-7.5493,-7.5615,-7.5662,-7.5806,-7.5839,-7.5948,-7.5964,-7.6082,-7.6153,-7.6247,-7.6342,-7.6418,-7.6502,-7.6596,-7.667,-7.6733,-7.6788,-7.6825,-7.6912,-7.6886,-7.6945,-7.6906,-7.6919,-7.6856,-7.6853,-7.6784,-7.6776,-7.6708,-7.6735,-7.6669,-7.6743,-7.6721,-7.6843,-7.6867,-7.6924,-7.6829,-7.6755,-7.6551,-7.6342,-7.6033,-7.5813,-7.5449,-7.5242,-7.4947,-7.487,-7.4645,-7.4538,-7.4323,-7.4301,-7.4167,-7.4124,-7.3981,-7.3965,-7.3835,-7.383,-7.3762,-7.3802,-7.3735,-7.3797,-7.377,-7.379,-7.375,-7.3837,-7.3772,-7.3838,-7.3777,-7.3831,-7.3767,-7.3823,-7.3763,-7.3806,-7.3785,-7.3816,-7.373,-7.3745,-7.3697,-7.3714,-7.3616,-7.3609,-7.3609,-7.3629,-7.3557,-7.3571,-7.3502,-7.3494,-7.3432,-7.3416,-7.3362,-7.3344,-7.3301,-7.33,-7.3238,-7.3215,-7.3208,-7.3231,-7.3233,-7.3295,-7.3382,-7.3441,-7.3465,-7.3479,-7.345,-7.3503,-7.3541,-7.3512,-7.3271,-7.3148,-7.314,-7.3202,-7.3283,-7.3278,-7.3425,-7.3351,-7.3237,-7.3082,-7.3041,-7.2989,-7.2935,-7.2924,-7.2889,-7.288,-7.2872,-7.2854,-7.2853,-7.2855,-7.3475,-7.5377,-7.8012,-8.0261,-8.3846,-8.5922,-8.5486,-7.8228,-6.5965,-5.6905,-5.256,-5.1665,-5.3551,-5.7685,-5.9935,-6.4489,-6.808,-7.0288,-7.1984,-7.2705,-7.3226,-7.3275,-7.3574,-7.3574,-7.3859,-7.3848,-7.4063,-7.4003,-7.4164,-7.4145,-7.4375,-7.4383,-7.4607,-7.4544,-7.4707,-7.4677,-7.4833,-7.4872,-7.5022,-7.5043,-7.5217,-7.5198,-7.5392,-7.5378,-7.5455,-7.5426,-7.5574,-7.5613,-7.5711,-7.5675,-7.5746,-7.5708,-7.5769,-7.574,-7.5756,-7.5653,-7.5619,-7.5537,-7.5523,-7.5463,-7.5493,-7.5375,-7.5411,-7.5474,-7.5594,-7.5631,-7.5764,-7.5802,-7.5765,-7.5652,-7.5505,-7.5265,-7.5155,-7.4896,-7.4605,-7.4366,-7.4091,-7.3916,-7.3771,-7.3625,-7.3452,-7.3403,-7.3325,-7.3303,-7.326,-7.3187,-7.3154,-7.3174,-7.3108,-7.3098,-7.3141,-7.3161,-7.3165,-7.3154,-7.3142,-7.3146,-7.3134,-7.3148,-7.3123,-7.313,-7.3069,-7.3075,-7.3083,-7.3125,-7.3099,-7.3126,-7.3008,-7.3036,-7.3013,-7.2976,-7.293,-7.29,-7.2888,-7.2905,-7.2889,-7.2857,-7.2801,-7.2792,-7.2747,-7.2789,-7.278,-7.2911,-7.2959,-7.3008,-7.3029,-7.3055,-7.3038,-7.3087,-7.3138,-7.3153,-7.2844,-7.2566,-7.2523,-7.2643,-7.2705,-7.2758,-7.2823,-7.2935,-7.283,-7.272,-7.2594,-7.2504,-7.2433,-7.2421,-7.2397,-7.243,-7.2382,-7.2399,-7.2378,-7.2352,-7.2743,-7.4427,-7.7058,-7.9143,-8.1956,-8.4643,-8.3987,-8.0331,-6.9402,-6.1347,-5.6224,-5.4287,-5.3954,-5.616,-6.0797,-6.4499,-6.7876,-6.8805,-7.0728,-7.1828,-7.2682,-7.2754,-7.3116,-7.3114,-7.3397,-7.3368,-7.3599,-7.3547,-7.3778,-7.3758,-7.3956,-7.3938,-7.4134,-7.4136,-7.4315,-7.4312,-7.4437,-7.4416,-7.4587,-7.4601,-7.4784,-7.4784,-7.4933,-7.4952,-7.5064,-7.5087,-7.5179,-7.5209,-7.5265,-7.5288,-7.5341,-7.5378,-7.536,-7.5303,-7.5296,-7.5314,-7.5274,-7.5225,-7.5138,-7.5095,-7.5075,-7.508,-7.504,-7.5093,-7.5129,-7.525,-7.5321,-7.5397,-7.5317,-7.5268,-7.5064,-7.491,-7.4661,-7.4464,-7.4303,-7.4122,-7.3908,-7.3758,-7.3558,-7.346,-7.333,-7.3279,-7.316,-7.3124,-7.3071,-7.3125,-7.3103,-7.3159,-7.3146,-7.3215,-7.3181,-7.3228,-7.3205,-7.3252,-7.3194,-7.3236,-7.3222,-7.3283,-7.3238,-7.3278,-7.3243,-7.3281,-7.3254,-7.3302,-7.3252,-7.3263,-7.3225,-7.327,-7.3242,-7.3242,-7.3226,-7.3239,-7.3201,-7.3233,-7.3194,-7.3184,-7.3167,-7.3205,-7.321,-7.3309,-7.3316,-7.3462,-7.3512,-7.3568,-7.3586,-7.3646,-7.3711,-7.374,-7.3437,-7.3204,-7.316,-7.3212,-7.326,-7.3304,-7.3353,-7.3534,-7.3532,-7.3388,-7.325,-7.3161,-7.3121,-7.3096,-7.3077,-7.308,-7.308,-7.3066,-7.3053,-7.3048,-7.3417,-7.4912,-7.7728,-7.9023,-8.1415,-8.5056,-8.6496,-8.5257,-7.543,-6.2604,-5.4339,-5.1203,-5.1886,-5.4692,-5.9113,-6.3573,-6.7556,-7.0312,-7.2182,-7.3187,-7.3683,-7.3886,-7.4051,-7.4143,-7.433,-7.4401,-7.4577,-7.4593,-7.4749,-7.4799,-7.4959,-7.5016,-7.5161,-7.52,-7.5337,-7.5393,-7.554,-7.5624,-7.575,-7.5817,-7.5945,-7.597,-7.6088,-7.6172,-7.6285,-7.638,-7.6483,-7.6561,-7.665,-7.6687,-7.6758,-7.6799,-7.6843,-7.6817,-7.6851,-7.6818,-7.6788,-7.6773,-7.6724,-7.6686,-7.6694,-7.6694,-7.6729,-7.6746,-7.6798,-7.6834,-7.6935,-7.6939,-7.6855,-7.6717,-7.6532,-7.6294,-7.6025,-7.5749,-7.5478,-7.5215,-7.5026,-7.4839,-7.467,-7.4584,-7.4487,-7.4374,-7.4299,-7.4232,-7.4195,-7.4146,-7.4092,-7.4077,-7.4067,-7.4035,-7.4025,-7.4033,-7.4067,-7.4076,-7.4087,-7.4115,-7.4115,-7.4106,-7.4125,-7.4123,-7.4104,-7.4099,-7.4128,-7.413,-7.412,-7.4092,-7.4092,-7.4089,-7.4068,-7.4053,-7.405,-7.4022,-7.3988,-7.3998,-7.3952,-7.3913,-7.387,-7.3854,-7.3842,-7.3859,-7.3892,-7.3929,-7.3994,-7.4075,-7.4125,-7.411,-7.4115,-7.4171,-7.4192,-7.4037,-7.376,-7.3658,-7.364,-7.3764,-7.3777,-7.3878,-7.397,-7.3966,-7.3788,-7.3634,-7.3534,-7.3461,-7.3397,-7.3377,-7.3354,-7.3325,-7.3327,-7.3266,-7.3244,-7.328,-7.3986,-7.6117,-7.8914,-8.1428,-8.5201,-8.6648,-8.7069,-8.2271,-6.9354,-5.6702,-5.1113,-5.0229,-5.1941,-5.6544,-6.0742,-6.5614,-6.904,-7.136,-7.273,-7.3369,-7.3624,-7.3871,-7.3982,-7.4157,-7.4218,-7.4314,-7.4317,-7.4445,-7.4459,-7.4596,-7.4657,-7.4775,-7.4816,-7.4952,-7.5001,-7.5115,-7.5158,-7.5272,-7.5349,-7.5448,-7.5533,-7.5627,-7.5725,-7.581,-7.5836,-7.5948,-7.6008,-7.606,-7.6153,-7.6236,-7.6249,-7.6265,-7.628,-7.6281,-7.6258,-7.6223,-7.6175,-7.6143,-7.6112,-7.6098,-7.6136,-7.6129,-7.6194,-7.6216,-7.6302,-7.6389,-7.649,-7.6491,-7.6444,-7.6273,-7.6092,-7.5863,-7.5633,-7.534,-7.5122,-7.4894,-7.4723,-7.4559,-7.4448,-7.4344,-7.4284,-7.418,-7.4182,-7.4155,-7.4174,-7.4161,-7.4173,-7.4181,-7.4248,-7.4268,-7.4314,-7.4339,-7.4431,-7.4482,-7.4561,-7.4605,-7.4685,-7.4735,-7.485,-7.4891,-7.496,-7.4989,-7.5052,-7.5095,-7.5169,-7.5233,-7.5266,-7.5316,-7.5361,-7.5407,-7.5488,-7.5509,-7.5598,-7.5611,-7.5656,-7.5655,-7.5738,-7.5768,-7.5849,-7.5915,-7.5969,-7.6044,-7.6212,-7.6365,-7.6471,-7.6563,-7.6667,-7.6735,-7.6887,-7.7009,-7.6999,-7.6747,-7.6736,-7.6843,-7.7012,-7.7131,-7.7266,-7.7489,-7.7501,-7.7418,-7.7349,-7.7333,-7.7356,-7.7444,-7.7537,-7.7577,-7.7609,-7.7651,-7.7718,-7.7781,-7.7918,-7.8677,-8.0757,-8.3453,-8.5825,-8.9484,-9.1594,-9.1079,-8.889,-7.7801,-6.6777,-6.0714,-5.8403,-5.8762,-6.1667,-6.634,-7.0786,-7.4437,-7.6697,-7.8507,-7.9275,-7.9841,-7.9985,-8.0409,-8.0478,-8.0818,-8.0854,-8.1079,-8.1092,-8.1377,-8.14,-8.1606,-8.1649,-8.1919,-8.196,-8.2212,-8.2268,-8.247,-8.2507,-8.2737,-8.2785,-8.2953,-8.3036,-8.3194,-8.3238,-8.3363,-8.3403,-8.3457,-8.3503,-8.3614,-8.3645,-8.3729,-8.3724,-8.3751,-8.3694,-8.3693,-8.3638,-8.3652,-8.3591,-8.3576,-8.3442,-8.3458,-8.345,-8.3495,-8.3564,-8.3616,-8.3682,-8.3784,-8.3852,-8.3834,-8.3782,-8.3608,-8.3367,-8.3087,-8.2846,-8.2543,-8.2282,-8.1996,-8.1744,-8.1515,-8.1387,-8.12,-8.1103,-8.093,-8.0825,-8.0737,-8.0616,-8.0485,-8.0489,-8.0393,-8.0412,-8.0319,-8.0273,-8.0163,-8.0158,-8.004,-8.0002,-7.9891,-7.9856,-7.9756,-7.9757,-7.9668,-7.9635,-7.9512,-7.95,-7.9386,-7.9332,-7.9242,-7.9163,-7.9084,-7.9048,-7.8965,-7.8917,-7.8783,-7.8707,-7.864,-7.8646,-7.8519,-7.8472,-7.8369,-7.833,-7.8246,-7.8166,-7.8102,-7.8047,-7.8021,-7.8045,-7.8029,-7.8087,-7.807,-7.8077,-7.805,-7.8033,-7.8072,-7.8088,-7.7857,-7.7629,-7.7534,-7.7518,-7.7553,-7.7484,-7.7371,-7.7436,-7.7424,-7.7251,-7.7053,-7.695,-7.6888,-7.6811,-7.6755,-7.6743,-7.6724,-7.672,-7.6662,-7.662,-7.6729,-7.7795,-8.0112,-8.2474,-8.4888,-8.812,-8.9258,-8.8563,-8.3877,-7.2295,-6.3507,-5.8489,-5.7035,-5.7511,-6.0413,-6.4803,-6.8874,-7.2068,-7.3961,-7.5463,-7.6124,-7.658,-7.6631,-7.689,-7.687,-7.7053,-7.7,-7.7199,-7.7131,-7.7282,-7.7191,-7.7347,-7.7317,-7.7444,-7.7437,-7.751,-7.7463,-7.7582,-7.7531,-7.762,-7.7582,-7.7695,-7.77,-7.7799,-7.7771,-7.7804,-7.7777,-7.7837,-7.783,-7.7811,-7.7798,-7.7801,-7.7766,-7.7693,-7.7638,-7.7567,-7.752,-7.7421,-7.7341,-7.7258,-7.7186,-7.7117,-7.7115,-7.71,-7.7175,-7.7225,-7.7313,-7.7332,-7.738,-7.7285,-7.7148,-7.6903,-7.6676,-7.6402,-7.6209,-7.5927,-7.5684,-7.5427,-7.5317,-7.5131,-7.5006,-7.4817,-7.4792,-7.4647,-7.4605,-7.4528,-7.4528,-7.4509,-7.4499,-7.4436,-7.4479,-7.4453,-7.4491,-7.4449,-7.4488,-7.444,-7.4471,-7.4454,-7.4483,-7.4432,-7.4484,-7.4472,-7.446,-7.4415,-7.4448,-7.4431,-7.4473,-7.4452,-7.4453,-7.4404,-7.4429,-7.4396,-7.439,-7.4338,-7.4334,-7.4313,-7.4299,-7.4259,-7.427,-7.4238,-7.4219,-7.4181,-7.4196,-7.4149,-7.4172,-7.417,-7.4185,-7.418,-7.4219,-7.4269,-7.4336,-7.4385,-7.444,-7.4436,-7.4454,-7.4467,-7.4551,-7.4413,-7.4217,-7.4096,-7.406,-7.4086,-7.4173,-7.4169,-7.4284,-7.4339,-7.422,-7.4069,-7.4011,-7.3948,-7.3918,-7.3898,-7.3915,-7.3919,-7.3926,-7.3935,-7.3932,-7.3999,-7.4761,-7.5692,-7.836,-8.0918,-8.409,-8.7204,-8.7589,-8.3079,-7.0735,-5.8723,-5.3021,-5.1942,-5.3456,-5.7495,-6.1674,-6.6418,-6.9897,-7.2184,-7.3678,-7.4342,-7.4549,-7.4802,-7.5051,-7.5169,-7.5326,-7.5437,-7.557,-7.5641,-7.5751,-7.5825,-7.5941,-7.6035,-7.6153,-7.6256,-7.6366,-7.6438,-7.6581,-7.6685,-7.6822,-7.687,-7.6971,-7.7067,-7.7197,-7.7259,-7.7354,-7.7458,-7.7556,-7.7622,-7.7715,-7.7815,-7.7851,-7.7874,-7.7905,-7.7895,-7.7905,-7.7902,-7.7854,-7.7828,-7.7796,-7.7725,-7.7652,-7.7645,-7.7662,-7.7746,-7.7805,-7.7902,-7.7948,-7.7983,-7.7916,-7.7813,-7.7601,-7.7356,-7.7073,-7.6853,-7.6575,-7.635,-7.6146,-7.6066,-7.5864,-7.575,-7.561,-7.5534,-7.5439,-7.5367,-7.5333,-7.5309,-7.527,-7.5274,-7.526,-7.528,-7.5286,-7.5311,-7.5293,-7.5299,-7.5315,-7.5321,-7.5346,-7.5364,-7.5376,-7.5401,-7.5423,-7.5409,-7.541,-7.5424,-7.542,-7.5446,-7.5449,-7.5417,-7.5392,-7.5391,-7.5359,-7.536,-7.532,-7.5293,-7.5278,-7.5276,-7.5247,-7.5211,-7.5181,-7.5138,-7.5104,-7.5095,-7.5071,-7.5025,-7.5023,-7.4985,-7.4981,-7.4986,-7.5004,-7.5077,-7.5167,-7.5239,-7.5254,-7.5283,-7.5262,-7.5261,-7.5323,-7.5344,-7.5121,-7.4995,-7.4902,-7.4904,-7.501,-7.4993,-7.5117,-7.5195,-7.5069,-7.4888,-7.4829,-7.4753,-7.4678,-7.4618,-7.4635,-7.4609,-7.4611,-7.4576,-7.4523,-7.451,-7.4698,-7.5811,-7.8361,-8.0974,-8.3909,-8.7355,-8.8517,-8.5577,-7.3935,-6.0528,-5.3609,-5.1781,-5.2829,-5.6634,-6.1197,-6.3539,-6.7988,-7.1166,-7.3075,-7.4323,-7.4759,-7.5047,-7.5239,-7.5429,-7.5533,-7.5702,-7.5741,-7.587,-7.5932,-7.6037,-7.6108,-7.6191,-7.6244,-7.6344,-7.6368,-7.6487,-7.6576,-7.6689,-7.6755,-7.6877,-7.6934,-7.7048,-7.708,-7.7163,-7.7251,-7.7314,-7.7378,-7.7469,-7.7521,-7.7611,-7.7632,-7.7646,-7.762,-7.7626,-7.7617,-7.7578,-7.7546,-7.7498,-7.743,-7.7425,-7.7386,-7.735,-7.7346,-7.7366,-7.7456,-7.7594,-7.7675,-7.7718,-7.7657,-7.7547,-7.7375,-7.7162,-7.7047,-7.6752,-7.6469,-7.6247,-7.5992,-7.5798,-7.5621,-7.5461,-7.5345,-7.5243,-7.5152,-7.5057,-7.499,-7.4974,-7.4949,-7.4875,-7.4873,-7.4873,-7.4899,-7.4917,-7.4918,-7.4911,-7.495,-7.4958,-7.495,-7.4964,-7.4969,-7.4993,-7.5021,-7.5055,-7.5057,-7.5062,-7.5052,-7.5066,-7.5012,-7.5005,-7.4994,-7.4981,-7.4993,-7.4969,-7.4964,-7.4903,-7.49,-7.4843,-7.4781,-7.4781,-7.4786,-7.4747,-7.4723,-7.4739,-7.4714,-7.4658,-7.464,-7.463,-7.4609,-7.4587,-7.4579,-7.4592,-7.4566,-7.4524,-7.4493,-7.4545,-7.4603,-7.4688,-7.4768,-7.4826,-7.4887,-7.4882,-7.4903,-7.4966,-7.5013,-7.4946,-7.4765,-7.4673,-7.4634,-7.473,-7.4807,-7.4812,-7.4909,-7.4998,-7.4917,-7.4733,-7.4672,-7.4631,-7.4587,-7.4546,-7.4514,-7.4504,-7.4552,-7.4549,-7.4544,-7.4581,-7.5178,-7.7119,-7.985,-8.0989,-8.3672,-8.7073,-8.7678,-8.5471,-7.4615,-6.3162,-5.6715,-5.4361,-5.4201,-5.6922,-6.1442,-6.5925,-6.962,-7.1955,-7.372,-7.4558,-7.5095,-7.5183,-7.5413,-7.541,-7.5723,-7.5755,-7.5951,-7.5908,-7.6148,-7.6127,-7.6361,-7.6366,-7.656,-7.6597,-7.6762,-7.6754,-7.692,-7.6943,-7.7118,-7.7173,-7.7314,-7.7342,-7.7426,-7.7457,-7.7576,-7.7619,-7.7749,-7.7776,-7.7878,-7.7896,-7.793,-7.7924,-7.7968,-7.7938,-7.7915,-7.7886,-7.7849,-7.7829,-7.7796,-7.7734,-7.7707,-7.7698,-7.7683,-7.7698,-7.776,-7.7862,-7.796,-7.8055,-7.8041,-7.8004,-7.7874,-7.7697,-7.748,-7.7254,-7.6956,-7.6739,-7.6497,-7.6341,-7.6124,-7.6003,-7.5918,-7.5842,-7.5723,-7.5675,-7.56,-7.5594,-7.5549,-7.5565,-7.5528,-7.5562,-7.5562,-7.5607,-7.5582,-7.5634,-7.5588,-7.5628,-7.5636,-7.569,-7.566,-7.5703,-7.5679,-7.5717,-7.5698,-7.5725,-7.5682,-7.5706,-7.5679,-7.5706,-7.5655,-7.5713,-7.5652,-7.5646,-7.5619,-7.565,-7.5593,-7.5571,-7.5525,-7.5525,-7.5497,-7.5495,-7.5471,-7.5462,-7.5397,-7.5419,-7.538,-7.5383,-7.5339,-7.5359,-7.533,-7.5329,-7.5288,-7.5275,-7.528,-7.5373,-7.5419,-7.5521,-7.5568,-7.5621,-7.5663,-7.5676,-7.5677,-7.5707,-7.566,-7.5477,-7.5427,-7.5345,-7.5401,-7.5459,-7.5453,-7.5572,-7.5595,-7.5465,-7.5286,-7.5261,-7.5209,-7.5135,-7.5089,-7.5082,-7.5066,-7.5065,-7.5048,-7.5024,-7.5,-7.5205,-7.653,-7.9212,-8.168,-8.4667,-8.7879,-8.8577,-8.4968,-7.3015,-6.0275,-5.4,-5.2551,-5.2841,-5.5418,-6.0041,-6.4425,-6.8761,-7.175,-7.3668,-7.4801,-7.5311,-7.5543,-7.5788,-7.5935,-7.6093,-7.6202,-7.6338,-7.6379,-7.6505,-7.6539,-7.6665,-7.6692,-7.6825,-7.6872,-7.6992,-7.7055,-7.714,-7.7268,-7.7368,-7.748,-7.7567,-7.7642,-7.7721,-7.7823,-7.7902,-7.7996,-7.8055,-7.8176,-7.8242,-7.8292,-7.8289,-7.8354,-7.8361,-7.8393,-7.8358,-7.8352,-7.8322,-7.8311,-7.8253,-7.8228,-7.8167,-7.8205,-7.8157,-7.8224,-7.8254,-7.8367,-7.8396,-7.8433,-7.8369,-7.8266,-7.8164,-7.7973,-7.7701,-7.7459,-7.7147,-7.6927,-7.6656,-7.6473,-7.627,-7.6107,-7.597,-7.5876,-7.5777,-7.5719,-7.5651,-7.5617,-7.5546,-7.5532,-7.5494,-7.5489,-7.5484,-7.5497,-7.5516,-7.5548,-7.5546,-7.5573,-7.5573,-7.5603,-7.5609,-7.5623,-7.5576,-7.5592,-7.559,-7.5605,-7.5574,-7.5587,-7.5547,-7.5543,-7.553,-7.5538,-7.55,-7.5509,-7.5474,-7.5438,-7.5413,-7.5377,-7.5349,-7.532,-7.5291,-7.5284,-7.5243,-7.525,-7.521,-7.5194,-7.5174,-7.5158,-7.5131,-7.5138,-7.5152,-7.5137,-7.512,-7.5114,-7.5092,-7.5046,-7.5066,-7.5035,-7.5043,-7.5053,-7.5089,-7.5162,-7.5244,-7.5299,-7.5351,-7.5391,-7.5407,-7.54,-7.5392,-7.544,-7.5341,-7.5176,-7.5167,-7.5158,-7.5192,-7.5243,-7.5286,-7.5313,-7.5228,-7.5055,-7.4976,-7.4934,-7.4881,-7.482,-7.4808,-7.4794,-7.4827,-7.4802,-7.4802,-7.4749,-7.4779,-7.5518,-7.7606,-8.04,-8.2889,-8.6566,-8.852,-8.7839,-7.8618,-6.4937,-5.519,-5.1917,-5.2287,-5.5096,-6.0028,-6.4527,-6.7141,-7.032,-7.2969,-7.4115,-7.5068,-7.5075,-7.5582,-7.5498,-7.5876,-7.5746,-7.6119,-7.5963,-7.6276,-7.6154,-7.6421,-7.6322,-7.6624,-7.6533,-7.6767,-7.6652,-7.688,-7.6781,-7.7027,-7.705,-7.7299,-7.7257,-7.7462,-7.7457,-7.7607,-7.7651,-7.7765,-7.776,-7.788,-7.7914,-7.8007,-7.803,-7.8094,-7.8111,-7.8126,-7.8082,-7.8057,-7.8025,-7.801,-7.7957,-7.7907,-7.7901,-7.7898,-7.7937,-7.7959,-7.8053,-7.8086,-7.8163,-7.8138,-7.8104,-7.7908,-7.7724,-7.7437,-7.7319,-7.7035,-7.6792,-7.6514,-7.6316,-7.6073,-7.5931,-7.5759,-7.5662,-7.5506,-7.55,-7.5387,-7.5359,-7.5231,-7.5238,-7.5175,-7.5236,-7.5202,-7.5241,-7.5191,-7.5241,-7.5147,-7.5245,-7.5216,-7.5255,-7.5239,-7.5306,-7.5252,-7.5324,-7.5259,-7.5325,-7.5271,-7.5351,-7.5275,-7.5307,-7.524,-7.5222,-7.5197,-7.5227,-7.5181,-7.52,-7.5111,-7.5119,-7.5005,-7.5046,-7.5003,-7.5009,-7.496,-7.4967,-7.4927,-7.4935,-7.4848,-7.4885,-7.4826,-7.4825,-7.4773,-7.4792,-7.4769,-7.4805,-7.4771,-7.4789,-7.4758,-7.477,-7.4764,-7.4822,-7.4829,-7.4922,-7.4982,-7.5082,-7.5119,-7.513,-7.5098,-7.5164,-7.5069,-7.4881,-7.4832,-7.4859,-7.4908,-7.4934,-7.4963,-7.5043,-7.5039,-7.4921,-7.4759,-7.4703,-7.4666,-7.4596,-7.4578,-7.4566,-7.4557,-7.4557,-7.4514,-7.4526,-7.4567,-7.5215,-7.7254,-7.8705,-8.0991,-8.3957,-8.7065,-8.768,-8.4775,-7.3631,-6.2304,-5.6283,-5.4019,-5.4243,-5.7099,-6.1837,-6.6326,-6.9964,-7.208,-7.3842,-7.4553,-7.514,-7.5068,-7.5483,-7.5445,-7.5768,-7.5697,-7.5979,-7.5963,-7.6217,-7.6207,-7.6388,-7.6406,-7.6605,-7.6637,-7.686,-7.6853,-7.7012,-7.707,-7.7261,-7.7307,-7.7408,-7.7469,-7.7616,-7.7617,-7.7741,-7.7851,-7.7973,-7.7978,-7.8062,-7.8119,-7.8216,-7.8231,-7.8277,-7.8238,-7.8236,-7.8258,-7.8234,-7.8239,-7.8141,-7.8143,-7.8073,-7.8106,-7.8101,-7.8154,-7.8198,-7.8345,-7.8454,-7.8619,-7.8634,-7.8683,-7.8536,-7.844,-7.8184,-7.8016,-7.7692,-7.7594,-7.7384,-7.7251,-7.7102,-7.7009,-7.6843,-7.6816,-7.671,-7.6746,-7.666,-7.6689,-7.662,-7.669,-7.6606,-7.6734,-7.6719,-7.6847,-7.6796,-7.6881,-7.6785,-7.692,-7.6903,-7.6994,-7.6983,-7.7096,-7.7026,-7.7117,-7.7083,-7.7137,-7.7074,-7.7162,-7.7128,-7.7184,-7.7166,-7.7214,-7.718,-7.7226,-7.7193,-7.7243,-7.7188,-7.7213,-7.7175,-7.7232,-7.7208,-7.7215,-7.7186,-7.7248,-7.7239,-7.7269,-7.7222,-7.7235,-7.7253,-7.7296,-7.7276,-7.7355,-7.7415,-7.7527,-7.7625,-7.7678,-7.772,-7.7763,-7.7764,-7.7817,-7.7875,-7.7818,-7.7572,-7.7514,-7.7488,-7.756,-7.7691,-7.7722,-7.79,-7.7968,-7.7861,-7.7728,-7.7696,-7.7656,-7.7655,-7.7639,-7.766,-7.7641,-7.7659,-7.7646,-7.7655,-7.775,-7.8584,-8.0755,-8.3377,-8.5711,-8.9036,-9.0623,-8.9605,-8.1806,-7.027,-6.2636,-5.8912,-5.8181,-5.9741,-6.3471,-6.569,-6.988,-7.3329,-7.5469,-7.7153,-7.8011,-7.8533,-7.8635,-7.8996,-7.9024,-7.9314,-7.9312,-7.955,-7.9528,-7.9736,-7.9739,-7.9962,-7.9989,-8.0183,-8.013,-8.0365,-8.0371,-8.0545,-8.057,-8.0757,-8.0794,-8.0967,-8.0993,-8.1172,-8.1179,-8.1355,-8.1381,-8.1546,-8.1549,-8.1673,-8.1683,-8.1796,-8.1742,-8.1816,-8.1767,-8.1818,-8.1764,-8.1791,-8.1734,-8.1729,-8.164,-8.1663,-8.1617,-8.1675,-8.1696,-8.1814,-8.1878,-8.1927,-8.1934,-8.187,-8.1715,-8.1577,-8.1468,-8.1232,-8.0962,-8.0722,-8.0469,-8.0302,-8.0097,-7.995,-7.9818,-7.9751,-7.9632,-7.9572,-7.9532,-7.9515,-7.952,-7.9531,-7.9514,-7.9507,-7.9541,-7.9548,-7.9551,-7.9557,-7.9566,-7.9566,-7.9555,-7.9577,-7.9601,-7.958,-7.9627,-7.961,-7.9626,-7.9597,-7.9608,-7.9579,-7.9598,-7.9552,-7.9566,-7.9528,-7.9538,-7.9484,-7.9502,-7.9467,-7.9454,-7.9421,-7.9409,-7.9369,-7.9347,-7.9325,-7.9322,-7.9271,-7.924,-7.9253,-7.925,-7.9201,-7.9197,-7.9162,-7.9154,-7.9123,-7.914,-7.9102,-7.9124,-7.9119,-7.9134,-7.9131,-7.9221,-7.9266,-7.937,-7.9372,-7.9397,-7.9369,-7.9411,-7.9443,-7.9396,-7.9164,-7.9098,-7.8974,-7.9019,-7.9132,-7.9162,-7.9174,-7.9295,-7.9211,-7.9052,-7.8937,-7.887,-7.8811,-7.8785,-7.873,-7.8726,-7.8687,-7.8673,-7.8642,-7.8684,-7.9302,-8.1345,-8.4235,-8.5484,-8.8511,-9.1767,-9.247,-8.8239,-7.5771,-6.2545,-5.6364,-5.5397,-5.7009,-6.1378,-6.5673,-7.0591,-7.4161,-7.6532,-7.8047,-7.871,-7.902,-7.9225,-7.9331,-7.946,-7.9587,-7.9698,-7.9795,-7.9867,-7.9953,-8.0039,-8.0117,-8.019,-8.0278,-8.0355,-8.0431,-8.0475,-8.0575,-8.0642,-8.0736,-8.0799,-8.0906,-8.0945,-8.1011,-8.1101,-8.1194,-8.1296,-8.1401,-8.144,-8.1521,-8.1587,-8.164,-8.1676,-8.1695,-8.1685,-8.1686,-8.166,-8.1627,-8.1583,-8.1559,-8.1498,-8.1513,-8.1497,-8.1472,-8.1473,-8.1512,-8.1533,-8.1583,-8.1525,-8.1463,-8.1324,-8.1135,-8.0851,-8.0552,-8.0251,-7.9972,-7.9704,-7.95,-7.9255,-7.9086,-7.8993,-7.8877,-7.8734,-7.8614,-7.8528,-7.8455,-7.8377,-7.8331,-7.8282,-7.8264,-7.8219,-7.8212,-7.8171,-7.8193,-7.8157,-7.8201,-7.8199,-7.8208,-7.8158,-7.8175,-7.8153,-7.8161,-7.8155,-7.8153,-7.8108,-7.8096,-7.8048,-7.8034,-7.7994,-7.7936,-7.7905,-7.7912,-7.786,-7.7824,-7.7752,-7.7716,-7.7669,-7.7643,-7.7613,-7.7584,-7.7535,-7.7479,-7.7439,-7.7398,-7.7356,-7.7329,-7.7286,-7.7246,-7.7218,-7.7183,-7.7162,-7.7128,-7.71,-7.7093,-7.7054,-7.7012,-7.7035,-7.7051,-7.7116,-7.7193,-7.7208,-7.7219,-7.7182,-7.7165,-7.7175,-7.7168,-7.6965,-7.6891,-7.677,-7.6791,-7.6878,-7.6844,-7.6932,-7.6978,-7.6834,-7.6616,-7.6551,-7.6505,-7.6435,-7.636,-7.6315,-7.6259,-7.6231,-7.6192,-7.617,-7.613,-7.6384,-7.776,-8.0533,-8.3021,-8.6223,-8.9278,-8.9986,-8.5282,-7.2794,-6.5501,-5.6193,-5.268,-5.3472,-5.6148,-6.1328,-6.5655,-7.0222,-7.2688,-7.4916,-7.5498,-7.6297,-7.6171,-7.6696,-7.6476,-7.692,-7.67,-7.7082,-7.6863,-7.7217,-7.6996,-7.7299,-7.7156,-7.7458,-7.7331,-7.7603,-7.7512,-7.7751,-7.7642,-7.7863,-7.7813,-7.7992,-7.7935,-7.8137,-7.811,-7.8292,-7.8275,-7.842,-7.8413,-7.8498,-7.8487,-7.8595,-7.8566,-7.8629,-7.8593,-7.8635,-7.8584,-7.8528,-7.8473,-7.8442,-7.8369,-7.8314,-7.8292,-7.8292,-7.8324,-7.8339,-7.844,-7.8437,-7.8483,-7.84,-7.8378,-7.8183,-7.8026,-7.7725,-7.7497,-7.7134,-7.6915,-7.6586,-7.6421,-7.6182,-7.611,-7.589,-7.5798,-7.567,-7.566,-7.5511,-7.5545,-7.5424,-7.5428,-7.5282,-7.5334,-7.5265,-7.5353,-7.5313,-7.5387,-7.5334,-7.5368,-7.5286,-7.5349,-7.5261,-7.5326,-7.5285,-7.5359,-7.5258,-7.5317,-7.5248,-7.5305,-7.5213,-7.5267,-7.5147,-7.5162,-7.5067,-7.5163,-7.5067,-7.5114,-7.5014,-7.5022,-7.496,-7.5004,-7.4903,-7.4863,-7.4807,-7.4853,-7.4774,-7.4773,-7.474,-7.4754,-7.4709,-7.4694,-7.4631,-7.4601,-7.4549,-7.4626,-7.4595,-7.4589,-7.4534,-7.453,-7.4502,-7.4545,-7.463,-7.4732,-7.4776,-7.4851,-7.4805,-7.4801,-7.48,-7.4837,-7.4776,-7.4562,-7.4477,-7.4442,-7.4528,-7.4587,-7.4629,-7.4792,-7.4729,-7.4565,-7.4385,-7.4285,-7.4209,-7.4232,-7.4182,-7.4124,-7.4137,-7.4126,-7.4068,-7.4021,-7.4116,-7.4874,-7.6918,-7.9451,-8.1668,-8.4944,-8.6789,-8.5973,-7.9221,-6.7625,-5.9857,-5.551,-5.4241,-5.5428,-5.8977,-6.1356,-6.552,-6.9041,-7.119,-7.2821,-7.374,-7.4291,-7.4428,-7.4743,-7.476,-7.5005,-7.4938,-7.5131,-7.5138,-7.5347,-7.5319,-7.545,-7.5502,-7.5649,-7.5603,-7.5753,-7.5785,-7.5894,-7.5893,-7.6028,-7.6099,-7.6225,-7.6247,-7.6348,-7.6358,-7.6433,-7.6442,-7.6525,-7.6591,-7.663,-7.6611,-7.6597,-7.6589,-7.661,-7.6617,-7.6586,-7.6515,-7.6451,-7.6436,-7.635,-7.6247,-7.6183,-7.616,-7.6117,-7.62,-7.6224,-7.6303,-7.6392,-7.645,-7.641,-7.6364,-7.6183,-7.6029,-7.5898,-7.5677,-7.5401,-7.5216,-7.4958,-7.4789,-7.4553,-7.4456,-7.426,-7.4221,-7.4098,-7.4086,-7.3968,-7.3965,-7.3919,-7.3945,-7.3915,-7.3911,-7.3863,-7.391,-7.3857,-7.3898,-7.3881,-7.3902,-7.3811,-7.3885,-7.387,-7.3864,-7.3786,-7.3823,-7.3778,-7.3826,-7.379,-7.3783,-7.3737,-7.3723,-7.3694,-7.3694,-7.3668,-7.3678,-7.3629,-7.3633,-7.3591,-7.3553,-7.3465,-7.3494,-7.3436,-7.3418,-7.3399,-7.3404,-7.3371,-7.3352,-7.3308,-7.3298,-7.3258,-7.3253,-7.3259,-7.3275,-7.3272,-7.3312,-7.337,-7.3438,-7.3481,-7.356,-7.3539,-7.3561,-7.3569,-7.3597,-7.345,-7.3227,-7.313,-7.3055,-7.3152,-7.321,-7.3229,-7.3385,-7.3431,-7.3335,-7.319,-7.309,-7.3024,-7.2942,-7.2951,-7.2926,-7.2925,-7.2876,-7.2854,-7.2803,-7.298,-7.4105,-7.6604,-7.9079,-8.174,-8.5069,-8.5891,-8.5464,-7.9134,-6.6649,-6.0924,-5.2215,-5.1466,-5.354,-5.6826,-6.1607,-6.555,-6.9133,-7.069,-7.2559,-7.2709,-7.3454,-7.322,-7.3779,-7.3549,-7.403,-7.3728,-7.4135,-7.3913,-7.4301,-7.4106,-7.4436,-7.4279,-7.4574,-7.4433,-7.474,-7.4641,-7.4926,-7.4839,-7.5044,-7.5014,-7.5218,-7.518,-7.5397,-7.5372,-7.5511,-7.5486,-7.5635,-7.5639,-7.5758,-7.5763,-7.5856,-7.5831,-7.5876,-7.587,-7.5876,-7.5852,-7.5832,-7.578,-7.5734,-7.571,-7.5665,-7.5665,-7.5636,-7.5677,-7.5683,-7.5758,-7.5735,-7.5754,-7.5591,-7.5497,-7.5243,-7.5048,-7.4704,-7.4485,-7.4147,-7.3977,-7.3673,-7.358,-7.3342,-7.3308,-7.3112,-7.3089,-7.296,-7.2978,-7.2833,-7.2902,-7.2772,-7.2822,-7.2692,-7.2777,-7.2674,-7.2787,-7.2692,-7.2766,-7.269,-7.2775,-7.2709,-7.2777,-7.2677,-7.2768,-7.2675,-7.2742,-7.2664,-7.2728,-7.2644,-7.2682,-7.2613,-7.2657,-7.2566,-7.2612,-7.2503,-7.2561,-7.2465,-7.2485,-7.2397,-7.2442,-7.2336,-7.2384,-7.2287,-7.2309,-7.2211,-7.2256,-7.2195,-7.2204,-7.2141,-7.2156,-7.2085,-7.2129,-7.2065,-7.2073,-7.2018,-7.2043,-7.201,-7.2041,-7.2055,-7.216,-7.2224,-7.2326,-7.2326,-7.2346,-7.2331,-7.2317,-7.2351,-7.2299,-7.212,-7.202,-7.1944,-7.2043,-7.2137,-7.2099,-7.2235,-7.2254,-7.2085,-7.1916,-7.1862,-7.1824,-7.1758,-7.1728,-7.1708,-7.1681,-7.1677,-7.1605,-7.161,-7.1634,-7.2359,-7.4459,-7.7289,-7.9761,-8.3492,-8.536,-8.4568,-7.5074,-6.1317,-5.1479,-4.8339,-4.893,-5.1817,-5.6724,-5.8769,-6.3618,-6.7198,-6.9496,-7.1029,-7.16,-7.197,-7.2155,-7.2354,-7.2419,-7.2631,-7.2621,-7.2783,-7.2794,-7.2939,-7.2969,-7.3129,-7.3147,-7.3292,-7.3256,-7.3402,-7.3447,-7.3573,-7.3616,-7.3767,-7.3797,-7.3957,-7.3996,-7.4168,-7.4188,-7.4331,-7.4365,-7.4517,-7.4547,-7.4678,-7.4675,-7.4803,-7.4759,-7.4812,-7.4784,-7.4833,-7.4762,-7.4775,-7.4683,-7.4698,-7.4609,-7.4648,-7.46,-7.4637,-7.4607,-7.4678,-7.4673,-7.4753,-7.4666,-7.4583,-7.4394,-7.4215,-7.405,-7.3804,-7.3478,-7.3236,-7.2954,-7.2765,-7.254,-7.2391,-7.2287,-7.2118,-7.197,-7.1936,-7.181,-7.1807,-7.1703,-7.172,-7.1646,-7.1639,-7.1603,-7.1624,-7.164,-7.1658,-7.1639,-7.1669,-7.1631,-7.1665,-7.1627,-7.1643,-7.1638,-7.1632,-7.1625,-7.1637,-7.1615,-7.162,-7.1594,-7.1567,-7.1552,-7.1532,-7.1505,-7.1497,-7.1491,-7.1462,-7.1412,-7.1377,-7.1374,-7.1322,-7.1326,-7.1276,-7.1245,-7.1222,-7.1188,-7.1162,-7.1173,-7.1118,-7.1079,-7.104,-7.1052,-7.1008,-7.1002,-7.0977,-7.0999,-7.0965,-7.1005,-7.1077,-7.1146,-7.1207,-7.1243,-7.1282,-7.13,-7.1294,-7.1369,-7.1244,-7.1053,-7.0928,-7.0919,-7.0995,-7.1135,-7.1074,-7.1183,-7.121,-7.1103,-7.09,-7.0846,-7.076,-7.0753,-7.0707,-7.0738,-7.0724,-7.0716,-7.066,-7.0657,-7.0692,-7.1422,-7.3451,-7.6245,-7.8704,-8.066,-8.3659,-8.4396,-8.0355,-6.8447,-5.6,-4.9981,-4.8197,-4.9544,-5.3333,-5.8079,-6.2753,-6.6374,-6.8516,-7.0181,-7.0743,-7.1197,-7.1276,-7.1582,-7.1505,-7.1757,-7.1755,-7.1994,-7.1983,-7.2149,-7.2138,-7.234,-7.2332,-7.2491,-7.2523,-7.2735,-7.2707,-7.287,-7.291,-7.3061,-7.3102,-7.3234,-7.3296,-7.3389,-7.3429,-7.355,-7.3598,-7.3719,-7.3746,-7.3834,-7.3873,-7.3937,-7.3931,-7.3961,-7.3921,-7.3937,-7.3937,-7.387,-7.382,-7.3806,-7.3772,-7.3734,-7.3701,-7.3691,-7.3719,-7.3741,-7.3895,-7.3966,-7.4042,-7.4036,-7.3919,-7.3759,-7.3551,-7.3334,-7.3094,-7.278,-7.2551,-7.2321,-7.2173,-7.1979,-7.1836,-7.1723,-7.167,-7.1579,-7.1531,-7.1437,-7.1449,-7.1348,-7.1329,-7.1297,-7.1356,-7.133,-7.1376,-7.1316,-7.132,-7.1288,-7.1369,-7.1349,-7.1375,-7.1333,-7.1394,-7.1335,-7.1393,-7.1321,-7.1331,-7.1348,-7.1392,-7.1265,-7.1309,-7.1232,-7.123,-7.1201,-7.1221,-7.1151,-7.1199,-7.1107,-7.1066,-7.104,-7.1116,-7.1098,-7.1065,-7.1011,-7.0959,-7.0947,-7.0995,-7.0923,-7.0896,-7.0881,-7.0851,-7.0849,-7.0871,-7.0843,-7.0899,-7.0906,-7.1034,-7.1093,-7.1198,-7.1122,-7.1143,-7.1172,-7.1268,-7.12,-7.09,-7.0744,-7.0749,-7.0789,-7.0896,-7.0886,-7.0936,-7.1013,-7.1003,-7.0785,-7.0672,-7.0611,-7.0571,-7.0561,-7.0555,-7.0583,-7.0545,-7.0536,-7.0506,-7.052,-7.1156,-7.3141,-7.5632,-7.7722,-8.0806,-8.298,-8.2159,-7.6558,-6.5465,-5.8032,-5.3351,-5.1684,-5.2121,-5.5006,-5.9565,-6.1599,-6.5086,-6.7446,-6.9,-7.0187,-7.0688,-7.0969,-7.1152,-7.1283,-7.1415,-7.1527,-7.1631,-7.1692,-7.1775,-7.1868,-7.1964,-7.2027,-7.2134,-7.2205,-7.2259,-7.2299,-7.2391,-7.2473,-7.2539,-7.2653,-7.2703,-7.2789,-7.2857,-7.291,-7.2944,-7.3022,-7.3041,-7.3101,-7.3116,-7.315,-7.3156,-7.3211,-7.323,-7.3232,-7.3183,-7.313,-7.304,-7.3019,-7.2941,-7.2884,-7.2809,-7.2784,-7.2749,-7.2818,-7.2845,-7.296,-7.3025,-7.3079,-7.3061,-7.3032,-7.2887,-7.2683,-7.2545,-7.2344,-7.2118,-7.1905,-7.1682,-7.1514,-7.1304,-7.1203,-7.1098,-7.1049,-7.095,-7.0901,-7.0836,-7.0842,-7.0807,-7.0801,-7.0752,-7.0786,-7.078,-7.0831,-7.0819,-7.0843,-7.0834,-7.0819,-7.0815,-7.0806,-7.0785,-7.0777,-7.0762,-7.0785,-7.0756,-7.075,-7.0709,-7.0755,-7.0736,-7.0708,-7.0673,-7.0681,-7.0662,-7.0674,-7.066,-7.0638,-7.061,-7.0585,-7.0533,-7.0526,-7.0482,-7.0467,-7.0449,-7.0462,-7.0416,-7.0402,-7.0388,-7.0371,-7.0362,-7.0357,-7.0415,-7.0445,-7.0522,-7.0628,-7.0641,-7.0677,-7.0714,-7.0712,-7.0753,-7.0737,-7.0458,-7.0313,-7.0208,-7.0243,-7.0368,-7.0363,-7.0487,-7.0559,-7.0455,-7.0289,-7.0237,-7.0171,-7.0114,-7.0073,-7.0056,-7.0058,-7.0019,-6.9999,-6.9967,-7.0004,-7.0504,-7.2288,-7.5151,-7.7494,-8.0933,-8.3275,-8.2894,-7.6015,-6.3337,-5.7255,-5.0324,-4.7892,-4.9057,-5.1857,-5.6494,-6.0824,-6.4888,-6.7197,-6.9212,-6.9855,-7.0519,-7.0506,-7.0956,-7.0841,-7.1209,-7.108,-7.1392,-7.1261,-7.1584,-7.1434,-7.1722,-7.162,-7.1849,-7.1781,-7.2019,-7.1968,-7.2203,-7.2134,-7.2355,-7.2353,-7.2548,-7.2539,-7.2726,-7.2735,-7.2909,-7.2959,-7.3097,-7.3102,-7.3194,-7.3236,-7.3319,-7.3326,-7.3389,-7.3361,-7.3366,-7.3323,-7.3335,-7.3289,-7.3273,-7.319,-7.3167,-7.3145,-7.316,-7.3192,-7.3244,-7.3305,-7.3262,-7.3283,-7.3179,-7.3074,-7.2842,-7.2596,-7.2294,-7.2051,-7.1741,-7.153,-7.1254,-7.1087,-7.0855,-7.0769,-7.062,-7.0561,-7.0425,-7.0394,-7.0298,-7.0286,-7.0229,-7.0255,-7.0171,-7.0178,-7.0126,-7.0183,-7.0139,-7.0206,-7.0152,-7.0208,-7.0141,-7.023,-7.016,-7.0192,-7.0137,-7.0179,-7.0138,-7.0178,-7.0126,-7.0168,-7.0089,-7.0116,-7.007,-7.0083,-7.001,-7.0031,-6.9985,-6.9994,-6.9932,-6.9945,-6.9881,-6.9884,-6.9802,-6.9838,-6.9766,-6.9779,-6.9711,-6.973,-6.9678,-6.9688,-6.9636,-6.9646,-6.962,-6.9647,-6.9602,-6.9661,-6.9711,-6.9797,-6.9856,-6.9912,-6.9897,-6.9925,-6.993,-7.0003,-6.9912,-6.9683,-6.9533,-6.9506,-6.953,-6.9629,-6.9603,-6.9718,-6.9812,-6.9712,-6.951,-6.9423,-6.9369,-6.9343,-6.9272,-6.925,-6.9235,-6.9208,-6.9177,-6.916,-6.9196,-6.9851,-7.066,-7.3303,-7.5931,-7.8998,-8.2295,-8.3092,-7.906,-6.6733,-5.3564,-4.7248,-4.602,-4.755,-5.1825,-5.6174,-6.1032,-6.4661,-6.7061,-6.8606,-6.9254,-6.9468,-6.9698,-6.9897,-7.0048,-7.0165,-7.0253,-7.0363,-7.0422,-7.0545,-7.0608,-7.0696,-7.0753,-7.0862,-7.0931,-7.1039,-7.111,-7.1204,-7.1277,-7.1394,-7.1434,-7.1505,-7.1595,-7.1689,-7.1806,-7.1897,-7.1975,-7.2068,-7.2151,-7.2198,-7.2291,-7.2311,-7.2335,-7.2333,-7.2351,-7.236,-7.2346,-7.2303,-7.2253,-7.2235,-7.2232,-7.2183,-7.2171,-7.2165,-7.221,-7.2254,-7.2329,-7.2339,-7.2356,-7.2308,-7.2194,-7.198,-7.1757,-7.1475,-7.1216,-7.0926,-7.0704,-7.0452,-7.0272,-7.0145,-7.0023,-6.9883,-6.9812,-6.9672,-6.9596,-6.9541,-6.9516,-6.9441,-6.9428,-6.9381,-6.9388,-6.9365,-6.9381,-6.9349,-6.9409,-6.9387,-6.9399,-6.9394,-6.9414,-6.9406,-6.9395,-6.9406,-6.9419,-6.9368,-6.9375,-6.937,-6.9377,-6.9368,-6.9358,-6.931,-6.9296,-6.9276,-6.9239,-6.9206,-6.9186,-6.916,-6.9134,-6.9126,-6.9113,-6.9094,-6.9051,-6.9011,-6.8954,-6.8929,-6.8901,-6.8892,-6.8908,-6.8867,-6.8841,-6.8828,-6.8802,-6.8787,-6.8771,-6.8761,-6.8794,-6.8783,-6.8831,-6.889,-6.8969,-6.9013,-6.9085,-6.911,-6.911,-6.9139,-6.9168,-6.9013,-6.8803,-6.8731,-6.8735,-6.8833,-6.887,-6.8939,-6.9013,-6.9022,-6.8867,-6.8732,-6.8637,-6.8584,-6.8554,-6.8511,-6.8465,-6.8441,-6.8463,-6.8458,-6.8443,-6.8558,-6.9584,-7.1994,-7.4533,-7.7282,-8.0769,-8.1919,-7.9903,-6.9176,-6.2257,-5.2336,-4.6865,-4.658,-4.7854,-5.2782,-5.6793,-6.1842,-6.4433,-6.6974,-6.7856,-6.8829,-6.8712,-6.9342,-6.9084,-6.9583,-6.9339,-6.9804,-6.9552,-6.9908,-6.9695,-7.0014,-6.9908,-7.0261,-7.0069,-7.0354,-7.022,-7.0506,-7.0477,-7.0757,-7.0661,-7.0907,-7.0853,-7.1067,-7.1022,-7.1209,-7.1181,-7.1364,-7.1312,-7.145,-7.1438,-7.1498,-7.1474,-7.1534,-7.1519,-7.1523,-7.1518,-7.1499,-7.1438,-7.1389,-7.1302,-7.1211,-7.1204,-7.1189,-7.1308,-7.1298,-7.1393,-7.1408,-7.1515,-7.1506,-7.1579,-7.1423,-7.1335,-7.1046,-7.0848,-7.0532,-7.037,-7.0101,-6.9924,-6.9628,-6.9565,-6.9346,-6.9274,-6.9115,-6.9125,-6.9013,-6.9077,-6.8937,-6.8921,-6.8867,-6.8983,-6.8851,-6.8921,-6.8817,-6.891,-6.8875,-6.8966,-6.8902,-6.8966,-6.8868,-6.8913,-6.8826,-6.8923,-6.8785,-6.892,-6.887,-6.8967,-6.8871,-6.8921,-6.8808,-6.8827,-6.879,-6.8858,-6.8758,-6.8803,-6.8653,-6.8739,-6.8668,-6.8718,-6.8637,-6.8689,-6.8596,-6.8626,-6.8529,-6.8556,-6.8485,-6.8539,-6.8506
