2.7381,2.728,2.7033,2.6818,2.668,2.6568,2.6492,2.6355,2.6253,2.6238,2.6171,2.6157,2.6122,2.6079,2.6068,2.6072,2.604,2.6098,2.6051,2.6045,2.6021,2.6032,2.6058,2.6055,2.6044,2.6057,2.6051,2.6086,2.6026,2.616,2.6731,2.8543,3.1723,3.403,3.5146,3.5876,2.9892,2.2566,2.0709,1.9891,2.0693,2.2129,2.4074,2.5398,2.5834,2.6383,2.6536,2.6691,2.6703,2.6731,2.6774,2.6817,2.69,2.6957,2.699,2.7038,2.7081,2.7157,2.7236,2.7277,2.7326,2.7418,2.7502,2.752,2.7585,2.7656,2.7731,2.7879,2.8011,2.8086,2.816,2.8291,2.8424,2.855,2.8711,2.8819,2.8992,2.9212,2.938,2.954,2.9731,2.9905,2.9989,3.0195,3.0341,3.0476,3.0625,3.0757,3.0913,3.0955,3.0984,3.0975,3.0939,3.0798,3.0545,3.0245,2.9836,2.9456,2.9035,2.8625,2.8254,2.8052,2.7756,2.7502,2.7271,2.7075,2.6917,2.6789,2.6747,2.6683,2.662,2.6557,2.6536,2.6518,2.65,2.6464,2.6471,2.6458,2.6524,2.6527,2.6529,2.6501,2.6541,2.6573,2.6595,2.6595,2.6583,2.6599,2.6623,2.6596,2.6592,2.6582,2.6624,2.6642,2.6658,2.6568,2.6541,2.6556,2.6607,2.6587,2.6572,2.6563,2.6536,2.6522,2.6554,2.6521,2.6496,2.6487,2.651,2.6499,2.6494,2.6488,2.6528,2.6592,2.6773,2.6839,2.678,2.6796,2.6794,2.6827,2.7197,2.7597,2.7617,2.7391,2.7259,2.705,2.6909,2.6843,2.6685,2.6633,2.6579,2.6528,2.6429,2.6424,2.6388,2.636,2.6321,2.631,2.6301,2.6295,2.6278,2.6236,2.6198,2.624,2.6259,2.6275,2.6222,2.622,2.6247,2.622,2.6274,2.6773,2.8267,3.1231,3.3845,3.4768,3.6008,3.4524,2.7254,2.2099,2.0905,2.0404,2.142,2.3258,2.4907,2.6034,2.6591,2.6729,2.6864,2.69,2.6945,2.6954,2.6998,2.7087,2.7148,2.721,2.7222,2.7247,2.7311,2.7398,2.7459,2.749,2.7527,2.7642,2.7715,2.7811,2.784,2.7921,2.7988,2.8138,2.8252,2.8332,2.8446,2.8582,2.8662,2.882,2.8945,2.9084,2.926,2.9451,2.964,2.9794,2.9961,3.011,3.0314,3.0489,3.0603,3.0742,3.0808,3.1028,3.119,3.1241,3.1265,3.1256,3.1207,3.1071,3.0861,3.0507,3.0125,2.9719,2.9345,2.8932,2.8559,2.8186,2.789,2.7668,2.7442,2.726,2.7121,2.7009,2.6948,2.6873,2.6834,2.6764,2.6766,2.6788,2.6758,2.674,2.675,2.6727,2.6803,2.6744,2.6747,2.6754,2.6748,2.6819,2.6833,2.681,2.681,2.6822,2.6867,2.6876,2.6874,2.6856,2.6858,2.6911,2.6899,2.69,2.6874,2.6853,2.6905,2.6916,2.6902,2.6837,2.6858,2.6879,2.6879,2.6844,2.6835,2.6837,2.6821,2.6844,2.6833,2.6825,2.6843,2.6855,2.6877,2.6928,2.6945,2.7044,2.7207,2.7273,2.723,2.719,2.7203,2.7641,2.8086,2.8006,2.7771,2.7694,2.7491,2.7335,2.7256,2.7117,2.6984,2.7008,2.6937,2.6912,2.6808,2.6728,2.6762,2.6748,2.6736,2.6672,2.6681,2.6704,2.6713,2.6683,2.6686,2.6718,2.671,2.6699,2.6705,2.6652,2.6672,2.6633,2.6928,2.781,3.0132,3.3161,3.4525,3.6516,3.442,2.6979,2.2381,2.1262,2.1054,2.153,2.2815,2.4711,2.6065,2.6809,2.7156,2.7148,2.7284,2.7294,2.7387,2.741,2.7441,2.7462,2.7586,2.765,2.7741,2.7726,2.7802,2.7831,2.7913,2.8009,2.8068,2.8124,2.8214,2.8264,2.8411,2.8434,2.8521,2.8671,2.8781,2.8871,2.8977,2.9081,2.9248,2.9422,2.9625,2.971,2.9891,3.0012,3.0193,3.0353,3.0518,3.0632,3.0803,3.0991,3.1216,3.1349,3.148,3.1626,3.1733,3.1803,3.1807,3.1734,3.1601,3.1421,3.1107,3.0727,3.054,3.0138,2.9733,2.9368,2.8975,2.8678,2.8341,2.8123,2.7955,2.782,2.767,2.7528,2.7459,2.7439,2.7401,2.7374,2.7288,2.7277,2.7332,2.7398,2.733,2.7298,2.7253,2.7343,2.7401,2.7376,2.7326,2.7402,2.7437,2.7502,2.7419,2.7413,2.7373,2.746,2.7431,2.7485,2.7518,2.7553,2.752,2.746,2.7421,2.7412,2.7437,2.7487,2.7472,2.7479,2.7366,2.7422,2.7388,2.7443,2.7439,2.7342,2.7365,2.7415,2.7428,2.7469,2.7448,2.7446,2.7542,2.7638,2.7697,2.7683,2.7739,2.7809,2.7877,2.8115,2.8582,2.8576,2.8303,2.814,2.7978,2.7944,2.782,2.7606,2.7568,2.75,2.7465,2.7452,2.7457,2.7457,2.7373,2.7374,2.7351,2.7341,2.7283,2.7286,2.7227,2.7245,2.7294,2.7336,2.7273,2.7327,2.7295,2.7276,2.7298,2.7356,2.7641,2.8582,3.099,3.4227,3.5971,3.7504,3.4153,2.628,2.217,2.1066,2.1155,2.2446,2.3959,2.5658,2.6846,2.745,2.7754,2.7769,2.7844,2.7827,2.7946,2.791,2.804,2.8089,2.8197,2.8205,2.8226,2.825,2.8414,2.8426,2.8535,2.8518,2.8618,2.865,2.8789,2.8859,2.8991,2.8989,2.9104,2.9218,2.9276,2.9328,2.9432,2.9565,2.9698,2.9873,2.9986,3.0139,3.0313,3.0447,3.0687,3.0832,3.0999,3.1113,3.1223,3.1391,3.1471,3.1613,3.1772,3.1845,3.1877,3.188,3.1894,3.1848,3.1822,3.1598,3.125,3.0859,3.0466,3.0084,2.9637,2.9202,2.888,2.8657,2.8426,2.8313,2.8047,2.7911,2.7806,2.775,2.77,2.7534,2.7496,2.7542,2.7558,2.7519,2.7478,2.7437,2.7418,2.7434,2.7516,2.748,2.7496,2.7502,2.7502,2.7541,2.7522,2.7555,2.7622,2.764,2.7625,2.755,2.7508,2.7581,2.7597,2.7641,2.757,2.7486,2.7479,2.7518,2.7517,2.7595,2.7563,2.7533,2.7504,2.7463,2.7411,2.7405,2.739,2.7354,2.7437,2.7462,2.753,2.7626,2.7755,2.7764,2.7768,2.7674,2.7753,2.8167,2.8497,2.8502,2.8325,2.8084,2.7915,2.789,2.7844,2.7622,2.7429,2.7419,2.7419,2.7405,2.7302,2.7201,2.7241,2.7266,2.7308,2.7228,2.7199,2.7208,2.7151,2.7203,2.7093,2.7065,2.7152,2.7199,2.7234,2.7156,2.7086,2.716,2.7398,2.8353,3.0622,3.3903,3.569,3.7379,3.5102,2.7388,2.2037,2.0807,2.0526,2.1152,2.2794,2.4298,2.5818,2.6853,2.7452,2.7586,2.7589,2.7634,2.7751,2.7763,2.7751,2.7768,2.7813,2.7966,2.808,2.8171,2.8185,2.8192,2.8127,2.833,2.84,2.8378,2.8425,2.8519,2.8622,2.8774,2.8841,2.8933,2.9078,2.9205,2.9329,2.937,2.9424,2.9569,2.9803,2.9886,2.9922,3.0072,3.0214,3.0412,3.0625,3.0714,3.0893,3.1054,3.1165,3.1312,3.1444,3.1521,3.1586,3.1604,3.1628,3.1632,3.1417,3.1169,3.083,3.0624,3.0267,2.9898,2.9519,2.9118,2.8734,2.8422,2.827,2.8054,2.7912,2.7747,2.7585,2.7447,2.731,2.7279,2.7278,2.7225,2.7205,2.7183,2.719,2.7193,2.7198,2.7165,2.714,2.7187,2.7297,2.7296,2.7298,2.7266,2.7372,2.7313,2.7361,2.7373,2.735,2.7296,2.7326,2.7363,2.737,2.738,2.7363,2.7305,2.729,2.7258,2.728,2.7265,2.7311,2.7324,2.7328,2.7357,2.7436,2.7628,2.7582,2.7484,2.747,2.7486,2.7711,2.8151,2.8281,2.8321,2.8094,2.7889,2.78,2.7601,2.7508,2.731,2.7242,2.7285,2.7149,2.7103,2.7081,2.7085,2.7116,2.7058,2.7006,2.7092,2.7047,2.6976,2.699,2.691,2.6983,2.6994,2.7038,2.6999,2.6994,2.7076,2.7059,2.7113,2.7566,2.8675,3.1361,3.4533,3.5978,3.7555,3.406,2.5953,2.2866,2.1089,2.0277,2.1278,2.3055,2.4752,2.602,2.6945,2.7332,2.7582,2.7518,2.7732,2.7673,2.7784,2.7833,2.8024,2.8016,2.7927,2.783,2.7928,2.8121,2.8307,2.822,2.8209,2.826,2.8466,2.843,2.8566,2.8656,2.8768,2.883,2.894,2.8925,2.9065,2.9211,2.9361,2.9544,2.9715,2.9796,2.9951,3.0082,3.0233,3.0372,3.0534,3.0706,3.0891,3.1038,3.121,3.1348,3.1457,3.154,3.1609,3.1746,3.1817,3.1719,3.1575,3.1291,3.1157,3.0873,3.0479,3.0088,2.9763,2.9405,2.8933,2.8647,2.8304,2.8051,2.7875,2.7804,2.758,2.7534,2.7484,2.7489,2.731,2.7249,2.7197,2.7223,2.7315,2.7337,2.7178,2.706,2.7151,2.729,2.7284,2.7268,2.7221,2.7276,2.7355,2.734,2.734,2.734,2.7319,2.7329,2.7261,2.7316,2.7328,2.7335,2.7424,2.7467,2.7378,2.7328,2.7373,2.7388,2.7406,2.7448,2.7492,2.7584,2.7714,2.7766,2.7592,2.7805,2.8059,2.833,2.8253,2.8105,2.7997,2.7809,2.7764,2.7698,2.7478,2.7333,2.7206,2.7199,2.7211,2.7108,2.7063,2.7045,2.7036,2.7068,2.7043,2.7011,2.709,2.7055,2.7043,2.7068,2.715,2.7078,2.697,2.6967,2.695,2.6954,2.7032,2.7554,2.8725,3.1504,3.4638,3.5843,3.755,3.419,2.5758,2.1485,2.0265,2.0158,2.1124,2.2746,2.4559,2.5997,2.6924,2.7396,2.7422,2.7543,2.7605,2.7598,2.7614,2.7737,2.7856,2.7848,2.7974,2.8014,2.7976,2.8044,2.8102,2.8208,2.8382,2.8351,2.8354,2.8494,2.8599,2.8747,2.8788,2.8889,2.9024,2.912,2.9246,2.9314,2.9376,2.9621,2.9844,2.995,3.0088,3.0151,3.0317,3.0505,3.0699,3.0864,3.1075,3.1247,3.1438,3.1544,3.1611,3.1721,3.1814,3.1935,3.1942,3.184,3.166,3.1396,3.1135,3.0844,3.0681,3.0149,2.957,2.9191,2.8874,2.8606,2.8333,2.813,2.7921,2.765,2.7638,2.7466,2.7303,2.7286,2.7309,2.7365,2.7259,2.718,2.7093,2.7088,2.7216,2.7133,2.7131,2.7203,2.7247,2.7235,2.7277,2.7215,2.7234,2.7288,2.7343,2.7268,2.72,2.7248,2.7337,2.7335,2.731,2.7265,2.7287,2.7267,2.7331,2.7334,2.7267,2.7273,2.7315,2.7417,2.7577,2.7516,2.7545,2.7597,2.759,2.7748,2.808,2.8302,2.8235,2.8047,2.7935,2.7838,2.7576,2.7401,2.7331,2.7315,2.72,2.7105,2.7017,2.701,2.7003,2.7,2.6906,2.6908,2.7017,2.7015,2.6878,2.6832,2.6869,2.6975,2.7066,2.6982,2.6815,2.6832,2.6918,2.6954,2.7013,2.7364,2.8659,3.1581,3.4846,3.6026,3.7742,3.3416,2.4882,2.1234,2.0199,2.0635,2.2141,2.2946,2.4707,2.6141,2.6903,2.7378,2.7452,2.7608,2.7493,2.7565,2.765,2.7704,2.7684,2.7839,2.7845,2.7982,2.7945,2.8057,2.8031,2.8183,2.8123,2.8304,2.8341,2.8532,2.8511,2.8638,2.8657,2.8796,2.885,2.903,2.9022,2.9197,2.9353,2.9588,2.975,2.9937,3.0077,3.0278,3.0404,3.0531,3.0664,3.0901,3.1072,3.1237,3.1353,3.1588,3.1735,3.1848,3.1851,3.1937,3.1882,3.1848,3.1737,3.1458,3.1145,3.0755,3.0345,2.9881,2.9649,2.9258,2.8817,2.8508,2.8283,2.8041,2.7802,2.7575,2.7464,2.7518,2.7399,2.7287,2.7277,2.7208,2.7176,2.7177,2.7081,2.7037,2.7074,2.7113,2.7251,2.722,2.7182,2.7135,2.7171,2.7288,2.7321,2.7188,2.7212,2.7154,2.721,2.7196,2.7207,2.7167,2.7256,2.7295,2.7266,2.7167,2.7199,2.7143,2.714,2.7139,2.7183,2.7132,2.7153,2.7226,2.7316,2.7408,2.7314,2.7299,2.7404,2.749,2.7774,2.8103,2.8193,2.7912,2.7824,2.7729,2.7608,2.7434,2.7334,2.7094,2.7079,2.6998,2.6968,2.6953,2.6958,2.6844,2.6809,2.6859,2.6864,2.6851,2.6823,2.6774,2.6739,2.6804,2.6816,2.6796,2.6818,2.6825,2.6873,2.6852,2.6831,2.6975,2.7709,2.9961,3.3359,3.5422,3.6714,3.6174,2.9242,2.2286,2.0458,1.9922,2.1136,2.1988,2.3823,2.5546,2.647,2.7207,2.7261,2.7423,2.7355,2.7467,2.7459,2.7652,2.764,2.7744,2.768,2.784,2.7912,2.802,2.794,2.8032,2.8032,2.8183,2.8266,2.8335,2.8351,2.8439,2.8507,2.8663,2.8746,2.894,2.9042,2.9219,2.9316,2.9427,2.9516,2.9679,2.9852,3.005,3.0294,3.0423,3.0563,3.0741,3.0922,3.1077,3.1159,3.1306,3.1482,3.1653,3.1803,3.1922,3.1962,3.1894,3.1705,3.1556,3.1275,3.0905,3.0488,3.004,2.9788,2.9413,2.8984,2.8635,2.8349,2.8152,2.792,2.7787,2.759,2.7489,2.7379,2.7231,2.7194,2.717,2.7134,2.7144,2.7141,2.7074,2.7124,2.7153,2.721,2.7181,2.7172,2.7173,2.7204,2.7232,2.7219,2.714,2.7105,2.7181,2.7236,2.7238,2.723,2.7286,2.7312,2.7281,2.7192,2.717,2.7191,2.7219,2.7261,2.7278,2.7239,2.725,2.724,2.7221,2.7157,2.7185,2.7168,2.7205,2.732,2.7429,2.7455,2.7471,2.7552,2.7585,2.7845,2.7998,2.8208,2.8142,2.7928,2.7768,2.7538,2.7465,2.7404,2.7216,2.7189,2.7089,2.7023,2.7001,2.6959,2.6963,2.692,2.6826,2.68,2.6815,2.6802,2.6794,2.6806,2.6765,2.6759,2.6775,2.6751,2.6732,2.6734,2.6806,2.6805,2.6849,2.7376,2.9139,3.2319,3.4851,3.6011,3.7178,3.1257,2.6559,2.2371,2.0829,2.0803,2.1767,2.4127,2.532,2.6729,2.6878,2.733,2.7116,2.7549,2.728,2.7587,2.7303,2.7577,2.741,2.7674,2.7471,2.7731,2.7607,2.791,2.7786,2.798,2.7865,2.8086,2.8042,2.8249,2.8139,2.8395,2.8401,2.8649,2.8612,2.8822,2.8863,2.9058,2.9156,2.935,2.9346,2.9535,2.9695,2.9931,3.0134,3.0336,3.0472,3.0625,3.0836,3.1041,3.1175,3.1252,3.142,3.1559,3.1681,3.1713,3.1716,3.1605,3.1503,3.132,3.103,3.0585,3.0267,2.9857,2.9502,2.9003,2.8663,2.8287,2.8056,2.7806,2.7586,2.7313,2.7274,2.7144,2.7149,2.6992,2.7037,2.6916,2.6987,2.6945,2.6974,2.6869,2.6934,2.6864,2.6958,2.6889,2.6939,2.6882,2.6964,2.699,2.7046,2.6978,2.7029,2.6982,2.7037,2.6926,2.7003,2.6923,2.7025,2.7014,2.7065,2.7001,2.7046,2.7011,2.7092,2.6971,2.6993,2.6875,2.6959,2.6929,2.6961,2.6913,2.6972,2.6955,2.7034,2.7037,2.7095,2.7241,2.7302,2.7225,2.7291,2.7244,2.7633,2.7975,2.807,2.78,2.7628,2.7395,2.7344,2.7263,2.7076,2.6995,2.6926,2.6865,2.6845,2.6797,2.6741,2.6733,2.6741,2.6745,2.6781,2.6755,2.6713,2.672,2.6713,2.6705,2.6715,2.6744,2.681,2.6851,2.6843,2.6752,2.6768,2.7263,2.7747,3.0014,3.324,3.4807,3.6802,3.5716,2.8454,2.2809,2.1516,2.1021,2.2055,2.3835,2.5408,2.6576,2.7095,2.7292,2.7371,2.7431,2.7413,2.7486,2.7508,2.7622,2.7621,2.7694,2.7689,2.7781,2.7813,2.7884,2.7867,2.7982,2.8018,2.8121,2.8138,2.824,2.8243,2.8397,2.8442,2.8596,2.8601,2.8712,2.8833,2.8977,2.9081,2.923,2.9342,2.9573,2.9718,2.9884,3.0019,3.0251,3.0395,3.0662,3.0782,3.0971,3.1095,3.1273,3.1441,3.1535,3.1562,3.1703,3.1735,3.1773,3.1675,3.1502,3.1158,3.0809,3.0351,2.9975,2.9512,2.9114,2.8772,2.8458,2.8167,2.7908,2.7675,2.7514,2.7434,2.7365,2.7234,2.717,2.7081,2.709,2.7029,2.7065,2.6967,2.7003,2.7,2.7049,2.6977,2.7001,2.6989,2.7038,2.705,2.7039,2.7028,2.7071,2.708,2.7089,2.7104,2.7067,2.7072,2.7079,2.7112,2.7122,2.7076,2.7049,2.7081,2.7042,2.7038,2.7052,2.6999,2.6989,2.7014,2.6951,2.6942,2.6907,2.6936,2.6978,2.6981,2.6941,2.6956,2.6954,2.6939,2.6999,2.7004,2.7045,2.7238,2.7299,2.7344,2.7289,2.7271,2.7547,2.8042,2.8164,2.8026,2.7769,2.7654,2.7486,2.7423,2.7302,2.7109,2.708,2.7069,2.7005,2.697,2.6895,2.6889,2.6855,2.6864,2.6815,2.6813,2.683,2.6845,2.6848,2.6822,2.6782,2.6809,2.6813,2.6847,2.6824,2.6817,2.6767,2.6889,2.7451,2.9129,3.2098,3.4473,3.5563,3.6804,3.1126,2.371,2.2373,2.1412,2.1154,2.2221,2.4001,2.5558,2.6574,2.7137,2.7257,2.7396,2.7369,2.7417,2.7503,2.7551,2.7572,2.7642,2.7679,2.7743,2.7804,2.7835,2.7861,2.7934,2.8034,2.8102,2.8129,2.8197,2.828,2.8413,2.8496,2.86,2.8677,2.8841,2.8974,2.9137,2.9217,2.9369,2.9485,2.962,2.9694,2.9807,3.0006,3.0223,3.0414,3.0634,3.0799,3.099,3.1188,3.1367,3.1541,3.1615,3.1724,3.1845,3.198,3.199,3.1915,3.1746,3.1532,3.1421,3.1137,3.072,3.0246,2.984,2.946,2.9091,2.8773,2.8469,2.8246,2.799,2.7851,2.7696,2.757,2.7454,2.7368,2.7299,2.7238,2.7234,2.726,2.731,2.7386,2.7322,2.7312,2.7218,2.7228,2.7256,2.727,2.7263,2.7296,2.7333,2.7372,2.7396,2.7336,2.7331,2.7345,2.7401,2.7431,2.7423,2.7402,2.7425,2.7432,2.7481,2.7423,2.7374,2.7369,2.7332,2.7362,2.7321,2.7341,2.7335,2.7312,2.7332,2.7288,2.728,2.7277,2.7235,2.7231,2.7236,2.7177,2.7234,2.739,2.7558,2.7623,2.7562,2.7555,2.7518,2.7582,2.7971,2.833,2.8295,2.8069,2.7972,2.7812,2.7711,2.7582,2.7439,2.7357,2.7348,2.7279,2.7199,2.7196,2.712,2.7115,2.7064,2.7004,2.7028,2.7024,2.7005,2.6961,2.7003,2.7071,2.703,2.7061,2.7002,2.703,2.6965,2.6977,2.7014,2.7236,2.7906,3.0082,3.329,3.5148,3.6693,3.4963,2.7897,2.239,2.1068,2.0752,2.1984,2.3597,2.5233,2.6473,2.6782,2.7348,2.7401,2.7496,2.7505,2.7597,2.7608,2.7712,2.7771,2.784,2.779,2.7894,2.7962,2.8195,2.8124,2.8112,2.8172,2.8224,2.8324,2.8418,2.8503,2.8568,2.865,2.8741,2.8876,2.8984,2.8983,2.903,2.9263,2.9432,2.9451,2.9623,2.9782,3.003,3.0157,3.0363,3.0513,3.0707,3.0825,3.1001,3.106,3.119,3.1386,3.159,3.1749,3.1812,3.1882,3.1825,3.1824,3.1665,3.1395,3.1001,3.0696,3.0246,2.9921,2.9468,2.9096,2.8929,2.8633,2.8387,2.8136,2.7852,2.7719,2.755,2.7474,2.7314,2.7265,2.7208,2.722,2.7223,2.7148,2.7084,2.7149,2.7179,2.719,2.7156,2.7228,2.7181,2.7181,2.7128,2.7136,2.7068,2.7105,2.7169,2.7218,2.7258,2.7254,2.7229,2.7191,2.7157,2.717,2.7107,2.7097,2.7112,2.722,2.7242,2.719,2.7102,2.7044,2.7036,2.6999,2.6943,2.7021,2.7084,2.7164,2.7296,2.7359,2.7329,2.746,2.737,2.7347,2.7686,2.7953,2.8097,2.8025,2.7884,2.7696,2.7461,2.7321,2.7241,2.7104,2.7043,2.6986,2.6933,2.6889,2.6905,2.6873,2.6866,2.6889,2.6847,2.6917,2.6868,2.6749,2.6747,2.6802,2.6878,2.6844,2.6686,2.6642,2.669,2.6744,2.6743,2.6897,2.7617,2.9675,3.3067,3.5137,3.6537,3.5457,2.8628,2.1957,2.0496,2.0095,2.0439,2.2001,2.3483,2.5217,2.6082,2.6807,2.7037,2.7176,2.7247,2.7265,2.7234,2.733,2.7433,2.7491,2.744,2.7572,2.7696,2.7751,2.7797,2.7817,2.783,2.7928,2.802,2.8033,2.8152,2.8182,2.8314,2.8425,2.8446,2.8586,2.8709,2.8777,2.8943,2.9056,2.9164,2.9309,2.9509,2.9605,2.9753,2.9889,3.0022,3.024,3.0408,3.0603,3.0794,3.0857,3.0981,3.1145,3.1281,3.1267,3.1342,3.1369,3.1318,3.1184,3.0908,3.0495,3.0285,2.9853,2.9536,2.925,2.8843,2.8422,2.816,2.787,2.7618,2.7464,2.7354,2.7186,2.7108,2.7022,2.6882,2.6816,2.6842,2.6846,2.6867,2.6858,2.6836,2.6882,2.6906,2.6875,2.6821,2.6834,2.6898,2.6952,2.6959,2.6986,2.6972,2.6967,2.6986,2.7002,2.6985,2.7023,2.7094,2.7125,2.7135,2.7106,2.7056,2.7031,2.7012,2.7005,2.7012,2.7005,2.6955,2.6941,2.7025,2.7057,2.7166,2.7304,2.7325,2.7381,2.7388,2.7312,2.7686,2.786,2.8123,2.8103,2.7775,2.7599,2.7415,2.7363,2.7258,2.7084,2.7107,2.7076,2.7007,2.6911,2.6824,2.6833,2.6875,2.6929,2.6884,2.6833,2.6822,2.6881,2.6843,2.6771,2.6723,2.6735,2.6735,2.6794,2.6817,2.6745,2.6723,2.6955,2.7541,2.9449,3.2747,3.5061,3.6172,3.6682,3.0706,2.5892,2.172,2.0356,2.0693,2.1784,2.3726,2.5093,2.6613,2.6968,2.7417,2.7178,2.7512,2.7352,2.7656,2.7451,2.7689,2.7562,2.7815,2.7774,2.8001,2.7852,2.801,2.7888,2.8128,2.8056,2.823,2.8213,2.843,2.8481,2.8639,2.8546,2.8715,2.8761,2.8967,2.9042,2.9243,2.9305,2.9521,2.9564,2.9757,2.9876,3.0057,3.0258,3.0446,3.0638,3.0773,3.095,3.1122,3.131,3.1468,3.1561,3.1589,3.1683,3.172,3.1751,3.1611,3.1467,3.129,3.1081,3.0669,3.0275,2.9779,2.9411,2.9014,2.8701,2.8279,2.806,2.7788,2.7706,2.7526,2.7401,2.7242,2.7233,2.7181,2.718,2.7118,2.7173,2.7083,2.7121,2.7028,2.7068,2.6971,2.7052,2.711,2.7128,2.7101,2.7158,2.7065,2.7197,2.7193,2.7303,2.7212,2.7239,2.7162,2.7268,2.7219,2.7237,2.7192,2.722,2.7195,2.7282,2.7189,2.7199,2.7142,2.7176,2.7189,2.7193,2.7118,2.7111,2.7118,2.7121,2.7112,2.7177,2.7265,2.7335,2.7441,2.7473,2.7424,2.7433,2.7412,2.7764,2.8036,2.8188,2.7981,2.7859,2.7696,2.7591,2.7498,2.7336,2.7223,2.7195,2.7094,2.7013,2.6991,2.6949,2.6909,2.6906,2.6923,2.6917,2.6896,2.6882,2.6837,2.6803,2.686,2.6891,2.6917,2.6872,2.6837,2.6845,2.6858,2.6868,2.7181,2.7537,2.9429,3.2696,3.5044,3.6208,3.6908,3.0804,2.3387,2.1553,2.0796,2.161,2.2984,2.4867,2.6214,2.6982,2.7298,2.7318,2.7457,2.7459,2.7553,2.7506,2.7575,2.763,2.7761,2.7762,2.7808,2.7825,2.7925,2.796,2.8062,2.8045,2.8146,2.8201,2.8327,2.8407,2.8521,2.8591,2.8707,2.8719,2.8856,2.8887,2.9014,2.9122,2.9309,2.9401,2.9612,2.9715,2.9957,3.0143,3.0368,3.0494,3.0664,3.0841,3.1027,3.1169,3.1346,3.147,3.157,3.1686,3.1821,3.1855,3.1831,3.1747,3.1585,3.1352,3.1029,3.0576,3.0168,2.9784,2.94,2.8965,2.8611,2.8287,2.8087,2.7851,2.7664,2.7576,2.7472,2.7376,2.7344,2.7242,2.7178,2.7095,2.7128,2.7116,2.7102,2.7086,2.7088,2.7102,2.716,2.717,2.7151,2.7133,2.7167,2.7169,2.7208,2.721,2.7214,2.7199,2.726,2.7266,2.727,2.7236,2.7281,2.7323,2.7325,2.7296,2.7262,2.7257,2.724,2.7212,2.7179,2.7132,2.7169,2.7191,2.716,2.7172,2.7104,2.709,2.7077,2.7104,2.712,2.7118,2.7155,2.7267,2.7431,2.741,2.739,2.742,2.7398,2.7743,2.8134,2.8147,2.8034,2.7832,2.7686,2.7492,2.7367,2.7296,2.7101,2.7146,2.7044,2.6992,2.6905,2.6924,2.687,2.6911,2.6854,2.6882,2.6855,2.6866,2.6865,2.6852,2.6814,2.6834,2.6859,2.6894,2.6844,2.6869,2.6865,2.6859,2.7037,2.77,2.9828,3.3058,3.4864,3.6501,3.5984,2.9064,2.2959,2.1546,2.1153,2.1361,2.2473,2.4487,2.5886,2.6817,2.7208,2.7246,2.7382,2.7439,2.7453,2.7475,2.7525,2.7567,2.7628,2.7681,2.7725,2.7749,2.7831,2.7884,2.7951,2.8008,2.8028,2.8104,2.8186,2.8281,2.8328,2.8446,2.8517,2.8598,2.8737,2.8814,2.8931,2.9063,2.9205,2.9372,2.9515,2.9662,2.9749,2.9948,3.0126,3.031,3.0452,3.0615,3.0805,3.0984,3.1109,3.122,3.1337,3.1468,3.1587,3.1612,3.1645,3.1552,3.1435,3.1155,3.0817,3.0628,3.0206,2.9792,2.9405,2.9038,2.8659,2.832,2.8086,2.7798,2.7661,2.7438,2.7318,2.7233,2.7204,2.7124,2.7044,2.7005,2.7026,2.7039,2.7049,2.6974,2.6961,2.6969,2.6988,2.6967,2.6954,2.6911,2.6989,2.6995,2.7032,2.701,2.7021,2.7039,2.7034,2.7043,2.7045,2.6996,2.7044,2.709,2.7074,2.7081,2.6997,2.7019,2.7004,2.7024,2.6969,2.6947,2.6951,2.6965,2.6964,2.69,2.6881,2.6871,2.6897,2.6901,2.6862,2.6888,2.6879,2.6923,2.7037,2.7131,2.721,2.7207,2.7233,2.7185,2.7352,2.7797,2.8045,2.7896,2.7696,2.7532,2.7332,2.7244,2.7152,2.6997,2.6949,2.6882,2.6805,2.6777,2.6741,2.6727,2.6652,2.6656,2.6614,2.6625,2.6607,2.6582,2.6572,2.6567,2.6594,2.6576,2.6581,2.6579,2.6576,2.6597,2.6612,2.6615,2.7028,2.843,3.1362,3.4106,3.5021,3.692,3.2219,2.438,2.1748,2.0839,2.125,2.2351,2.4469,2.5707,2.6572,2.6884,2.7035,2.7087,2.7153,2.7128,2.7171,2.7218,2.7326,2.7369,2.7393,2.7462,2.7486,2.7551,2.7624,2.7704,2.7678,2.7754,2.7833,2.795,2.7985,2.8039,2.8064,2.8219,2.8303,2.838,2.8503,2.8601,2.8756,2.891,2.8997,2.9134,2.9316,2.9506,2.9688,2.982,3.0005,3.0168,3.0387,3.0568,3.0707,3.0788,3.0899,3.1096,3.1225,3.1345,3.1349,3.1449,3.1409,3.1302,3.1101,3.0776,3.0408,3.0023,2.966,2.9268,2.8822,2.8476,2.8163,2.7895,2.7753,2.7519,2.7329,2.7206,2.7077,2.7027,2.6897,2.6877,2.6817,2.6806,2.6812,2.683,2.6799,2.6814,2.6851,2.6844,2.6804,2.6811,2.6867,2.6867,2.6884,2.6886,2.6859,2.6798,2.6833,2.6918,2.6867,2.6821,2.6824,2.6861,2.6858,2.6857,2.6834,2.6915,2.6903,2.6864,2.6856,2.6865,2.6829,2.6856,2.6862,2.6818,2.673,2.6704,2.6718,2.6757,2.6781,2.6765,2.6802,2.6918,2.7054,2.7138,2.7114,2.7135,2.7057,2.7264,2.7684,2.7837,2.7829,2.7636,2.7438,2.7232,2.7064,2.696,2.6829,2.6831,2.6771,2.6627,2.6538,2.6533,2.6511,2.6481,2.6445,2.6434,2.6449,2.6488,2.6466,2.6386,2.6336,2.6371,2.6389,2.6368,2.6441,2.6403,2.646,2.6413,2.6451,2.697,2.8588,3.1622,3.4174,3.5222,3.6025,3.0512,2.2983,2.1585,2.0498,2.0306,2.1537,2.3191,2.4906,2.5969,2.663,2.6729,2.6842,2.6923,2.7002,2.6989,2.7027,2.7023,2.7163,2.7193,2.7229,2.7215,2.7274,2.7345,2.7391,2.7507,2.7604,2.7628,2.7696,2.7698,2.7771,2.7879,2.7984,2.8152,2.8256,2.8265,2.8339,2.844,2.8615,2.8793,2.8932,2.896,2.911,2.9261,2.9512,2.9727,2.9863,3.0012,3.0155,3.0349,3.0501,3.0565,3.0645,3.085,3.0985,3.1024,3.1045,3.1007,3.0997,3.0805,3.072,3.0372,2.9946,2.9468,2.912,2.8741,2.8321,2.7911,2.7586,2.7361,2.7222,2.7045,2.6875,2.672,2.6634,2.6642,2.6568,2.6524,2.6513,2.6475,2.6453,2.6456,2.6391,2.6455,2.651,2.6436,2.6371,2.6419,2.6375,2.6456,2.6458,2.6474,2.6447,2.6409,2.6434,2.6526,2.6511,2.6433,2.6421,2.643,2.6454,2.6461,2.6396,2.6479,2.6474,2.6475,2.6417,2.6364,2.6314,2.6379,2.6347,2.6342,2.6359,2.6451,2.6557,2.662,2.6519,2.6525,2.6613,2.6607,2.6965,2.7329,2.7371,2.7248,2.7017,2.6929,2.676,2.6641,2.6439,2.6363,2.6308,2.6273,2.6218,2.6145,2.6151,2.6137,2.6104,2.6037,2.6029,2.6007,2.6056,2.6062,2.6042,2.5946,2.5917,2.5956,2.5918,2.5905,2.5913,2.5918,2.6027,2.6349,2.7209,2.9646,3.2975,3.4131,3.5329,3.5326,2.9638,2.1951,1.9763,1.9199,1.9734,2.161,2.297,2.4636,2.5508,2.6189,2.6322,2.6426,2.637,2.6504,2.6444,2.6504,2.6428,2.6647,2.664,2.6726,2.667,2.6819,2.696,2.707,2.7017,2.7138,2.7169,2.7332,2.7427,2.7429,2.7473,2.75,2.7589,2.7736,2.7829,2.7915,2.8043,2.8134,2.8275,2.8381,2.8526,2.8679,2.878,2.8981,2.9253,2.9408,2.9528,2.9617,2.9799,2.9893,2.996,3.0115,3.0246,3.0304,3.0335,3.0471,3.0315,3.013,2.9993,2.9714,2.9346,2.8854,2.8473,2.8081,2.7757,2.7335,2.7056,2.6817,2.6553,2.6323,2.628,2.6149,2.6109,2.604,2.5947,2.5803,2.5706,2.5665,2.5736,2.5819,2.5793,2.573,2.5763,2.5815,2.5814,2.5754,2.5674,2.5708,2.5832,2.5918,2.5905,2.5836,2.5861,2.5896,2.5942,2.5917,2.5889,2.5811,2.5906,2.5901,2.5894,2.5858,2.5954,2.6085,2.6193,2.6166,2.6237,2.6187,2.6241,2.6579,2.6873,2.6896,2.6842,2.6664,2.6494,2.6252,2.6126,2.5983,2.5913,2.5858,2.5723,2.5686,2.5689,2.569,2.5658,2.5644,2.5596,2.5606,2.5542,2.5546,2.5569,2.5507,2.551,2.547,2.556,2.557,2.5533,2.5499,2.5564,2.5692,2.606,2.6895,2.9136,3.2488,3.4248,3.5287,3.3626,2.654,2.0141,1.9178,1.8552,1.9055,2.0731,2.2197,2.4028,2.5101,2.5876,2.6102,2.6221,2.6176,2.6253,2.626,2.6309,2.6348,2.6481,2.6597,2.6667,2.6687,2.6752,2.6833,2.6856,2.6912,2.6977,2.7051,2.7175,2.7251,2.7345,2.7359,2.7551,2.7637,2.7755,2.7802,2.7935,2.8093,2.8296,2.8413,2.8537,2.8569,2.875,2.8947,2.9224,2.9337,2.9452,2.9629,2.9795,2.9989,3.012,3.0245,3.0341,3.0462,3.0562,3.0542,3.0451,3.0412,3.0211,2.9917,2.9743,2.9352,2.8901,2.8539,2.8086,2.7742,2.7423,2.7171,2.6928,2.6789,2.6606,2.6477,2.631,2.6273,2.6248,2.6242,2.6145,2.6062,2.6031,2.6081,2.6127,2.6142,2.6115,2.6138,2.6154,2.6188,2.6115,2.6165,2.6167,2.6225,2.6239,2.6274,2.6262,2.63,2.6217,2.6304,2.6286,2.6365,2.6336,2.64,2.6425,2.6422,2.6454,2.6531,2.6638,2.668,2.6654,2.6678,2.6872,2.7301,2.7532,2.7419,2.7145,2.7011,2.6827,2.6728,2.6603,2.6479,2.6378,2.6365,2.6358,2.6263,2.6199,2.614,2.6144,2.6172,2.6137,2.6113,2.6077,2.6123,2.6135,2.6139,2.6146,2.6183,2.6212,2.6189,2.6173,2.6174,2.611,2.6172,2.6682,2.7958,3.0811,3.3867,3.4863,3.6763,3.3069,2.4611,2.0943,2.0041,2.0215,2.1571,2.3348,2.4825,2.596,2.6296,2.6657,2.6748,2.681,2.684,2.6947,2.6977,2.701,2.7028,2.7162,2.7229,2.7293,2.7338,2.739,2.745,2.7516,2.7613,2.7657,2.772,2.7807,2.7889,2.8019,2.807,2.8149,2.8247,2.8395,2.8457,2.8617,2.8724,2.8914,2.9124,2.9326,2.948,2.9652,2.9852,3.0053,3.0227,3.0399,3.0552,3.0617,3.0766,3.094,3.1064,3.1141,3.1242,3.1301,3.1319,3.1227,3.1049,3.0802,3.0466,3.007,2.9637,2.9173,2.8769,2.8432,2.8116,2.798,2.7707,2.7427,2.7292,2.7189,2.7072,2.696,2.6876,2.6896,2.686,2.6838,2.6802,2.6748,2.6754,2.6782,2.6774,2.6735,2.6735,2.6769,2.6798,2.6825,2.6824,2.6804,2.6843,2.6884,2.692,2.6891,2.6909,2.6893,2.6949,2.6972,2.6935,2.6905,2.6911,2.6956,2.6945,2.6958,2.6978,2.7008,2.7146,2.73,2.7298,2.7272,2.7294,2.7331,2.7656,2.7939,2.8003,2.7832,2.7688,2.7525,2.7334,2.7222,2.7076,2.6984,2.6962,2.6839,2.6809,2.6772,2.6716,2.6737,2.6702,2.6655,2.6626,2.664,2.6652,2.6641,2.66,2.6604,2.6615,2.6633,2.6601,2.6613,2.659,2.6584,2.6566,2.6719,2.7385,2.9529,3.2794,3.4716,3.6486,3.5879,2.8794,2.27,2.1399,2.0887,2.1768,2.3418,2.5134,2.6301,2.6867,2.7057,2.71,2.7194,2.7141,2.7256,2.7243,2.7345,2.736,2.7443,2.749,2.7543,2.7549,2.7634,2.7712,2.7801,2.7839,2.7877,2.7907,2.8071,2.8085,2.819,2.8326,2.8408,2.8597,2.8822,2.9064,2.9331,2.9625,3.0012,3.0148,3.025,3.0322,3.041,3.0524,3.0692,3.0804,3.0866,3.1036,3.1197,3.1321,3.1406,3.1456,3.1539,3.1651,3.1744,3.1748,3.1686,3.1555,3.1367,3.1057,3.0641,3.0185,2.9742,2.932,2.8924,2.8564,2.8174,2.7908,2.7684,2.7511,2.7402,2.7256,2.7124,2.7085,2.7025,2.6989,2.6867,2.6859,2.6862,2.6899,2.685,2.6851,2.6843,2.6812,2.6834,2.6855,2.6832,2.6822,2.6878,2.6929,2.6908,2.6919,2.6875,2.6896,2.6922,2.6925,2.6864,2.6877,2.6867,2.6923,2.6926,2.6904,2.6886,2.6932,2.695,2.702,2.7137,2.7179,2.7161,2.723,2.7229,2.7176,2.7489,2.7848,2.7938,2.7855,2.7626,2.7432,2.7269,2.7192,2.701,2.6873,2.684,2.6774,2.6702,2.6692,2.6636,2.6609,2.656,2.6599,2.66,2.6598,2.6561,2.6525,2.6541,2.6541,2.6541,2.6524,2.6495,2.6528,2.6546,2.6514,2.6466,2.678,2.7814,3.035,3.2044,3.4174,3.5621,3.5948,2.9857,2.2937,2.1439,2.0681,2.1587,2.2945,2.4907,2.5939,2.6687,2.684,2.6991,2.6998,2.6995,2.7005,2.714,2.713,2.7266,2.7205,2.7309,2.7336,2.7442,2.7477,2.7532,2.7538,2.767,2.7712,2.7829,2.7841,2.7928,2.8009,2.8145,2.8208,2.8309,2.8379,2.8477,2.8615,2.8798,2.891,2.9039,2.9177,2.9352,2.9577,2.9707,2.9858,2.9994,3.0211,3.0396,3.0561,3.07,3.0872,3.1022,3.1157,3.1245,3.1292,3.1316,3.1301,3.126,3.1092,3.0814,3.0471,3.0097,2.9696,2.9224,2.8842,2.8464,2.8126,2.7839,2.7631,2.7419,2.7214,2.7089,2.701,2.693,2.6871,2.6758,2.6762,2.6741,2.6765,2.6701,2.6749,2.6739,2.674,2.6712,2.6739,2.6707,2.6725,2.6739,2.6798,2.6731,2.6759,2.6757,2.6759,2.6742,2.6756,2.6743,2.6766,2.68,2.681,2.6755,2.6756,2.6761,2.6831,2.6825,2.6786,2.6739,2.6726,2.6747,2.6894,2.7005,2.7046,2.6988,2.6987,2.6967,2.6993,2.7341,2.7652,2.7749,2.7585,2.743,2.7228,2.6997,2.6911,2.6667,2.6643,2.6606,2.6591,2.6548,2.6479,2.6386,2.6363,2.6315,2.6329,2.6353,2.6365,2.6267,2.6272,2.6286,2.6321,2.6278,2.6195,2.6184,2.6197,2.6261,2.6257,2.6369,2.685,2.8351,3.1275,3.282,3.4273,3.5855,3.342,2.6218,2.1121,2.0149,1.9904,2.1248,2.2804,2.4574,2.5692,2.6382,2.6554,2.6637,2.6646,2.6641,2.6698,2.6761,2.6765,2.6874,2.6877,2.6821,2.6911,2.7025,2.7092,2.7167,2.722,2.7275,2.7326,2.7429,2.7417,2.7432,2.7517,2.7536,2.7684,2.7781,2.7869,2.7951,2.8076,2.8189,2.8273,2.8423,2.8652,2.8843,2.896,2.9004,2.9129,2.9318,2.9505,2.9725,2.9922,3.0088,3.0248,3.0323,3.0441,3.0554,3.0568,3.0677,3.0694,3.0646,3.0462,3.0163,2.9799,2.9455,2.9076,2.8637,2.8196,2.7809,2.7513,2.7229,2.6957,2.6743,2.6615,2.6488,2.6415,2.6374,2.6257,2.5997,2.599,2.6006,2.6021,2.6046,2.6028,2.6023,2.6021,2.602,2.6029,2.606,2.6073,2.6127,2.598,2.5975,2.5987,2.6084,2.6097,2.6123,2.6074,2.6017,2.5993,2.599,2.5998,2.6034,2.5964,2.6033,2.6029,2.6019,2.5945,2.6039,2.6163,2.6248,2.6276,2.6315,2.6288,2.6306,2.6575,2.698,2.7179,2.702,2.6755,2.6506,2.6379,2.6231,2.611,2.598,2.5928,2.5868,2.5837,2.577,2.5774,2.5724,2.572,2.5642,2.5659,2.5683,2.5698,2.5636,2.5619,2.5606,2.5634,2.5647,2.561,2.5575,2.5572,2.5587,2.5642,2.604,2.6824,2.9106,3.2478,3.4295,3.5638,3.5057,2.9565,2.157,1.92,1.8724,1.9365,2.1216,2.2487,2.4274,2.5159,2.5916,2.5987,2.6052,2.6058,2.6186,2.6122,2.6236,2.6248,2.6465,2.6437,2.6524,2.6554,2.6608,2.6671,2.6808,2.6793,2.6866,2.689,2.7045,2.7086,2.7152,2.7212,2.731,2.7362,2.7583,2.7669,2.7791,2.7846,2.7923,2.7996,2.8208,2.8333,2.8486,2.8624,2.884,2.9008,2.9147,2.9301,2.9411,2.9601,2.9723,2.9833,2.979,2.9989,3.0109,3.026,3.0278,3.0281,3.0064,2.9753,2.9434,2.9059,2.867,2.8287,2.7873,2.7515,2.7153,2.6898,2.667,2.6484,2.6353,2.6198,2.5933,2.5891,2.5815,2.5774,2.5756,2.5744,2.5765,2.5756,2.575,2.5737,2.5733,2.5828,2.5818,2.5814,2.577,2.5744,2.5721,2.5802,2.5842,2.5846,2.5815,2.5886,2.5882,2.5954,2.5941,2.5894,2.5871,2.5886,2.5857,2.5933,2.6017,2.6109,2.6259,2.6238,2.6201,2.6228,2.63,2.6754,2.6973,2.6961,2.6712,2.6563,2.6451,2.6253,2.6191,2.6028,2.5983,2.5891,2.5712,2.5687,2.5663,2.5702,2.5712,2.568,2.5632,2.5564,2.5488,2.5552,2.5606,2.5633,2.5618,2.5602,2.5603,2.5668,2.5699,2.562,2.5593,2.5697,2.6193,2.7459,3.0184,3.3246,3.4348,3.5512,3.2097,2.388,1.9598,1.8751,1.9114,2.0541,2.1437,2.2959,2.4542,2.5393,2.6041,2.6101,2.6209,2.6174,2.6322,2.6323,2.64,2.6379,2.652,2.6589,2.6685,2.6693,2.6718,2.6785,2.6898,2.6958,2.703,2.7086,2.7165,2.7221,2.7347,2.7411,2.7516,2.7582,2.7741,2.7821,2.8017,2.8096,2.8248,2.8448,2.8637,2.8794,2.8902,2.9046,2.9183,2.9299,2.9459,2.9614,2.9827,2.9972,3.0119,3.0187,3.027,3.031,3.0424,3.0498,3.0499,3.0235,2.9958,2.9644,2.932,2.8935,2.8531,2.8294,2.7902,2.7546,2.7293,2.6963,2.6723,2.6487,2.6363,2.6303,2.6221,2.6077,2.6001,2.5978,2.5975,2.5966,2.5961,2.595,2.5934,2.5937,2.5928,2.5952,2.5974,2.603,2.6053,2.6052,2.6029,2.6031,2.6098,2.6161,2.6134,2.6121,2.6067,2.6147,2.6133,2.615,2.6152,2.6156,2.6133,2.6241,2.6332,2.6443,2.6438,2.6459,2.6502,2.6598,2.6927,2.7251,2.7246,2.7038,2.6896,2.6631,2.6472,2.6429,2.6236,2.6164,2.6028,2.5986,2.597,2.5939,2.5916,2.5906,2.5868,2.5867,2.5847,2.5889,2.584,2.5808,2.5805,2.5841,2.5853,2.5808,2.5864,2.5829,2.586,2.5827,2.5885,2.6152,2.7008,2.9359,3.2642,3.4262,3.5761,3.4423,2.6914,2.1061,1.9797,1.9436,2.064,2.2359,2.4108,2.5409,2.5991,2.6313,2.6375,2.652,2.6458,2.6541,2.6534,2.6616,2.6645,2.6743,2.6774,2.6888,2.6935,2.7065,2.7079,2.7121,2.7125,2.7239,2.7299,2.7422,2.7473,2.7581,2.772,2.7799,2.7891,2.8001,2.8046,2.8213,2.8365,2.8526,2.8605,2.881,2.8994,2.9211,2.9351,2.9494,2.9671,2.9893,3.0078,3.0265,3.0352,3.0484,3.0519,3.0666,3.0805,3.0878,3.0842,3.082,3.069,3.0483,3.0157,2.9722,2.9378,2.9037,2.8614,2.8199,2.7834,2.7496,2.7274,2.7063,2.685,2.6766,2.667,2.6548,2.6541,2.648,2.6418,2.6346,2.6361,2.6349,2.6342,2.6268,2.6309,2.6316,2.6395,2.6399,2.6361,2.6378,2.6465,2.6509,2.6516,2.647,2.6502,2.6499,2.6587,2.6532,2.657,2.657,2.6576,2.6565,2.6599,2.654,2.6568,2.6591,2.6672,2.6711,2.6769,2.688,2.6922,2.691,2.6969,2.6904,2.7136,2.7511,2.7712,2.7518,2.7275,2.711,2.6999,2.6815,2.6719,2.6562,2.6507,2.647,2.641,2.6392,2.6313,2.6304,2.6306,2.6318,2.6323,2.6277,2.624,2.6253,2.6269,2.632,2.6277,2.627,2.6275,2.6276,2.6287,2.6253,2.6166,2.6415,2.7268,2.9655,3.2843,3.4076,3.5085,3.6761,3.1578,2.3602,2.1163,2.0425,2.0936,2.2222,2.421,2.5537,2.6303,2.6732,2.6778,2.6911,2.687,2.6978,2.6993,2.7141,2.7134,2.7207,2.7196,2.7312,2.7326,2.7421,2.7419,2.749,2.7516,2.7637,2.7689,2.7807,2.7834,2.7954,2.8034,2.8161,2.8242,2.834,2.8455,2.8547,2.8673,2.8786,2.8914,2.9091,2.925,2.946,2.9571,2.9786,2.9985,3.019,3.0375,3.0491,3.066,3.0838,3.098,3.1155,3.1238,3.1307,3.1337,3.1367,3.1308,3.1155,3.0837,3.0528,3.0127,2.9733,2.9286,2.8876,2.8478,2.8163,2.7874,2.7599,2.7377,2.7209,2.7061,2.697,2.6861,2.681,2.6783,2.674,2.6711,2.6681,2.6648,2.6635,2.6676,2.6673,2.6681,2.6648,2.6667,2.671,2.6758,2.6737,2.672,2.6746,2.6804,2.6808,2.6814,2.6768,2.6762,2.6793,2.681,2.6796,2.6779,2.6762,2.6768,2.679,2.68,2.6773,2.6805,2.6805,2.6933,2.6969,2.7088,2.7079,2.7143,2.7167,2.7114,2.7358,2.7738,2.7887,2.7781,2.7545,2.7347,2.7193,2.7083,2.6963,2.6796,2.675,2.6657,2.6623,2.6594,2.6542,2.6497,2.6495,2.6495,2.6508,2.6506,2.6454,2.6425,2.6427,2.6463,2.6465,2.6435,2.6417,2.644,2.6466,2.6481,2.6422,2.6674,2.7545,2.9932,3.299,3.4346,3.5145,3.6473,3.092,2.3441,2.1382,2.0658,2.1314,2.2638,2.4629,2.585,2.6596,2.6869,2.6958,2.7064,2.7013,2.709,2.7114,2.7202,2.7235,2.7302,2.7294,2.735,2.7393,2.7541,2.7557,2.7632,2.7624,2.7739,2.7828,2.791,2.7938,2.8032,2.8127,2.8234,2.8336,2.8389,2.8536,2.8677,2.8742,2.8905,2.9026,2.9185,2.9356,2.9555,2.9718,2.9908,3.0062,3.0237,3.0405,3.0611,3.0736,3.0881,3.1036,3.1184,3.1332,3.1381,3.1384,3.1405,3.137,3.1242,3.0922,3.0601,3.0205,2.9822,2.9414,2.8959,2.8591,2.8253,2.7965,2.7702,2.7494,2.728,2.7166,2.7079,2.7004,2.6923,2.6919,2.6877,2.69,2.6872,2.6866,2.681,2.6824,2.6828,2.6851,2.6831,2.6861,2.6848,2.6895,2.6911,2.6892,2.6898,2.6927,2.6973,2.7014,2.7021,2.6946,2.6933,2.6987,2.7022,2.6991,2.691,2.6873,2.6895,2.693,2.6917,2.6894,2.689,2.6892,2.6941,2.6955,2.7026,2.718,2.7193,2.725,2.7213,2.7179,2.7347,2.7804,2.8052,2.7973,2.7718,2.7531,2.7376,2.7336,2.7181,2.703,2.7016,2.6979,2.6965,2.6927,2.6903,2.686,2.6834,2.6812,2.6838,2.6793,2.6738,2.6822,2.6851,2.6872,2.6842,2.6802,2.6836,2.688,2.6907,2.688,2.6878,2.7144,2.7857,3.0025,3.313,3.4439,3.5451,3.6886,3.1822,2.4083,2.1609,2.0837,2.1464,2.2831,2.4732,2.6095,2.6923,2.7456,2.7523,2.7613,2.7522,2.762,2.7679,2.7714,2.7681,2.7808,2.7787,2.787,2.7952,2.799,2.7961,2.7966,2.8027,2.8127,2.8156,2.8192,2.8143,2.8272,2.8399,2.8563,2.8638,2.885,2.9029,2.911,2.923,2.9384,2.9477,2.9663,2.9845,3.0097,3.025,3.0471,3.0683,3.0949,3.1103,3.1223,3.1295,3.1436,3.1652,3.1802,3.198,3.2112,3.2156,3.2232,3.2137,3.201,3.175,3.14,3.1157,3.0795,3.0221,2.975,2.9417,2.9064,2.8776,2.846,2.8201,2.7996,2.7842,2.7734,2.7614,2.7516,2.7509,2.7421,2.742,2.7358,2.7379,2.7322,2.7295,2.7334,2.7359,2.7345,2.7391,2.7388,2.7412,2.7414,2.7357,2.7352,2.7409,2.7484,2.7515,2.738,2.733,2.7309,2.7413,2.7407,2.7372,2.7293,2.7326,2.7368,2.7453,2.7359,2.7398,2.7505,2.7607,2.7592,2.7734,2.7703,2.7746,2.7881,2.8201,2.8268,2.8253,2.8043,2.7892,2.7788,2.76,2.75,2.7399,2.7391,2.731,2.7212,2.7047,2.7011,2.7044,2.7056,2.6958,2.6931,2.6956,2.7005,2.7082,2.7082,2.698,2.6899,2.6941,2.6997,2.6991,2.691,2.6945,2.7052,2.7375,2.8125,3.0155,3.3548,3.546,3.6615,3.447,2.7687,2.3487,2.062,1.9656,2.0512,2.2036,2.3627,2.5229,2.6464,2.7085,2.7437,2.7341,2.7563,2.7561,2.7764,2.7606,2.7722,2.7659,2.7854,2.7836,2.7953,2.7915,2.8072,2.8137,2.8321,2.8216,2.8285,2.8277,2.8573,2.8557,2.8678,2.8605,2.878,2.8979,2.9083,2.9088,2.9284,2.9359,2.9448,2.9597,2.981,2.9971,3.0154,3.032,3.0413,3.0542,3.0715,3.0929,3.1102,3.1219,3.1315,3.1396,3.1476,3.1532,3.1551,3.16,3.1486,3.1412,3.1212,3.0893,3.052,3.0076,2.9626,2.9294,2.8986,2.8644,2.8302,2.7993,2.7779,2.7609,2.7464,2.736,2.7306,2.7257,2.7132,2.7165,2.715,2.7169,2.7093,2.7169,2.7151,2.7208,2.7157,2.719,2.7276,2.726,2.7187,2.7182,2.7191,2.726,2.7293,2.7285,2.7277,2.7343,2.7347,2.7348,2.732,2.7352,2.7337,2.7401,2.745,2.7562,2.7598,2.7672,2.774,2.7813,2.808,2.8308,2.8289,2.8242,2.8051,2.7764,2.7674,2.7674,2.7598,2.7508,2.7312,2.7188,2.7077,2.7137,2.7095,2.712,2.7058,2.7107,2.7056,2.7058,2.6967,2.6999,2.6984,2.6965,2.7028,2.7074,2.6975,2.6925,2.6914,2.7019,2.7076,2.7419,2.8207,3.0081,3.3353,3.5591,3.6369,3.5904,3.0001,2.2011,1.989,1.9671,2.0707,2.261,2.4162,2.5744,2.6209,2.7077,2.7483,2.7582,2.7588,2.7568,2.7662,2.7827,2.7891,2.7969,2.8008,2.7991,2.8045,2.812,2.8235,2.8309
