12.757,12.755,12.754,12.753,12.75,12.75,12.751,12.751,12.752,12.748,12.748,12.749,12.747,12.749,12.745,12.743,12.745,12.748,12.749,12.753,12.753,12.755,12.753,12.741,12.745,12.774,12.822,12.823,12.805,12.8,12.791,12.78,12.774,12.766,12.754,12.74,12.739,12.736,12.732,12.73,12.725,12.724,12.722,12.719,12.716,12.715,12.713,12.711,12.712,12.71,12.712,12.711,12.713,12.71,12.714,12.705,12.638,12.513,12.479,12.627,12.917,13.186,13.53,13.746,13.375,12.936,12.745,12.711,12.73,12.699,12.776,12.795,12.79,12.774,12.759,12.751,12.748,12.748,12.749,12.748,12.751,12.754,12.756,12.761,12.764,12.768,12.77,12.775,12.778,12.781,12.784,12.79,12.793,12.799,12.804,12.81,12.815,12.826,12.833,12.839,12.849,12.86,12.869,12.883,12.898,12.904,12.923,12.93,12.942,12.962,12.979,12.997,13.014,13.037,13.056,13.073,13.095,13.115,13.135,13.154,13.171,13.187,13.198,13.205,13.204,13.194,13.186,13.162,13.125,13.08,13.039,12.991,12.952,12.913,12.877,12.845,12.818,12.797,12.778,12.768,12.755,12.747,12.741,12.738,12.737,12.737,12.731,12.731,12.726,12.725,12.723,12.722,12.72,12.719,12.718,12.719,12.716,12.717,12.715,12.719,12.717,12.714,12.714,12.716,12.716,12.714,12.713,12.714,12.716,12.717,12.715,12.712,12.713,12.714,12.711,12.709,12.706,12.705,12.703,12.706,12.704,12.703,12.701,12.702,12.699,12.698,12.696,12.696,12.693,12.695,12.696,12.688,12.691,12.691,12.689,12.692,12.69,12.691,12.692,12.692,12.689,12.69,12.691,12.69,12.69,12.688,12.688,12.686,12.686,12.687,12.686,12.687,12.685,12.685,12.684,12.687,12.685,12.683,12.683,12.684,12.683,12.684,12.684,12.685,12.686,12.685,12.683,12.682,12.686,12.683,12.682,12.682,12.681,12.683,12.684,12.681,12.684,12.687,12.69,12.685,12.69,12.686,12.675,12.674,12.701,12.751,12.761,12.743,12.736,12.725,12.712,12.705,12.7,12.682,12.674,12.672,12.67,12.665,12.661,12.661,12.659,12.657,12.655,12.653,12.653,12.652,12.65,12.651,12.648,12.649,12.648,12.647,12.649,12.651,12.626,12.522,12.417,12.447,12.67,12.982,13.109,13.422,13.681,13.344,12.88,12.667,12.636,12.654,12.664,12.728,12.741,12.722,12.711,12.695,12.693,12.689,12.695,12.692,12.693,12.692,12.7,12.698,12.706,12.706,12.712,12.714,12.722,12.724,12.733,12.731,12.741,12.744,12.752,12.758,12.766,12.773,12.783,12.79,12.794,12.802,12.815,12.826,12.84,12.85,12.863,12.878,12.889,12.905,12.925,12.94,12.959,12.977,12.997,13.017,13.037,13.058,13.075,13.088,13.107,13.122,13.14,13.154,13.163,13.166,13.159,13.145,13.117,13.085,13.041,12.996,12.954,12.91,12.873,12.835,12.802,12.779,12.768,12.748,12.734,12.725,12.711,12.708,12.699,12.698,12.695,12.693,12.692,12.688,12.688,12.688,12.687,12.686,12.685,12.686,12.683,12.682,12.681,12.68,12.681,12.683,12.678,12.682,12.68,12.68,12.679,12.679,12.678,12.68,12.679,12.68,12.678,12.677,12.677,12.676,12.674,12.676,12.675,12.677,12.673,12.676,12.673,12.671,12.669,12.668,12.668,12.669,12.664,12.667,12.663,12.664,12.661,12.66,12.66,12.66,12.662,12.66,12.662,12.663,12.662,12.663,12.663,12.661,12.659,12.661,12.661,12.661,12.659,12.659,12.661,12.66,12.662,12.659,12.659,12.66,12.661,12.659,12.658,12.657,12.659,12.66,12.659,12.656,12.656,12.654,12.652,12.651,12.653,12.653,12.654,12.654,12.655,12.651,12.654,12.654,12.654,12.656,12.656,12.659,12.663,12.663,12.666,12.66,12.651,12.654,12.679,12.727,12.743,12.721,12.715,12.703,12.694,12.687,12.68,12.673,12.659,12.654,12.653,12.646,12.646,12.644,12.641,12.64,12.641,12.639,12.637,12.64,12.634,12.634,12.632,12.633,12.634,12.633,12.632,12.633,12.627,12.569,12.44,12.392,12.523,12.81,13.085,13.402,13.652,13.318,12.842,12.635,12.597,12.623,12.634,12.707,12.714,12.712,12.7,12.68,12.673,12.67,12.672,12.67,12.673,12.676,12.679,12.679,12.684,12.688,12.694,12.695,12.701,12.705,12.708,12.711,12.717,12.721,12.728,12.733,12.743,12.747,12.754,12.763,12.774,12.78,12.793,12.802,12.815,12.829,12.843,12.857,12.875,12.889,12.896,12.913,12.936,12.955,12.973,12.992,13.014,13.032,13.055,13.074,13.091,13.114,13.128,13.14,13.149,13.15,13.147,13.134,13.107,13.088,13.051,13.006,12.962,12.919,12.879,12.84,12.807,12.777,12.754,12.737,12.72,12.709,12.698,12.693,12.689,12.683,12.683,12.679,12.678,12.678,12.675,12.672,12.669,12.668,12.667,12.667,12.668,12.668,12.672,12.67,12.672,12.669,12.668,12.668,12.671,12.67,12.668,12.67,12.67,12.673,12.667,12.666,12.665,12.667,12.668,12.668,12.666,12.658,12.66,12.657,12.663,12.665,12.665,12.663,12.663,12.656,12.656,12.658,12.656,12.659,12.655,12.664,12.659,12.66,12.657,12.656,12.653,12.647,12.653,12.655,12.654,12.653,12.648,12.646,12.646,12.649,12.647,12.646,12.64,12.644,12.643,12.643,12.641,12.642,12.64,12.644,12.642,12.641,12.642,12.649,12.647,12.647,12.646,12.649,12.645,12.645,12.641,12.641,12.645,12.651,12.655,12.656,12.652,12.647,12.642,12.64,12.645,12.68,12.723,12.726,12.703,12.694,12.688,12.679,12.673,12.672,12.657,12.642,12.638,12.631,12.634,12.628,12.628,12.628,12.628,12.624,12.624,12.621,12.623,12.621,12.616,12.619,12.621,12.62,12.623,12.619,12.615,12.599,12.523,12.427,12.448,12.656,12.966,13.2,13.508,13.494,12.964,12.567,12.4,12.402,12.485,12.565,12.656,12.667,12.68,12.673,12.665,12.666,12.668,12.661,12.663,12.665,12.671,12.679,12.679,12.684,12.68,12.682,12.686,12.696,12.705,12.706,12.711,12.71,12.724,12.722,12.731,12.738,12.743,12.758,12.767,12.779,12.779,12.789,12.799,12.811,12.831,12.851,12.861,12.882,12.902,12.91,12.922,12.942,12.96,12.986,13.012,13.029,13.049,13.063,13.084,13.107,13.127,13.143,13.15,13.154,13.15,13.139,13.111,13.086,13.05,13.023,12.968,12.921,12.879,12.838,12.805,12.771,12.747,12.727,12.714,12.699,12.69,12.674,12.674,12.669,12.667,12.661,12.66,12.655,12.65,12.648,12.647,12.645,12.647,12.653,12.658,12.653,12.646,12.646,12.645,12.646,12.647,12.645,12.645,12.645,12.647,12.65,12.651,12.65,12.651,12.655,12.65,12.648,12.65,12.647,12.65,12.65,12.649,12.647,12.644,12.65,12.649,12.644,12.646,12.646,12.644,12.647,12.65,12.651,12.646,12.646,12.634,12.648,12.648,12.64,12.634,12.631,12.632,12.635,12.638,12.627,12.625,12.629,12.63,12.627,12.629,12.631,12.639,12.64,12.63,12.633,12.633,12.629,12.635,12.661,12.703,12.711,12.695,12.683,12.673,12.668,12.659,12.648,12.628,12.625,12.625,12.623,12.624,12.623,12.625,12.619,12.619,12.614,12.62,12.615,12.616,12.614,12.617,12.618,12.617,12.614,12.614,12.618,12.618,12.593,12.553,12.462,12.445,12.611,12.904,13.151,13.422,13.546,13.11,12.621,12.419,12.367,12.436,12.522,12.616,12.663,12.677,12.677,12.668,12.671,12.666,12.668,12.666,12.668,12.67,12.676,12.68,12.687,12.682,12.693,12.699,12.702,12.708,12.717,12.717,12.722,12.724,12.738,12.742,12.751,12.762,12.765,12.768,12.779,12.788,12.8,12.812,12.826,12.841,12.855,12.873,12.884,12.901,12.923,12.935,12.957,12.989,13.001,13.021,13.039,13.06,13.077,13.102,13.12,13.136,13.149,13.157,13.161,13.158,13.141,13.113,13.075,13.026,12.983,12.939,12.894,12.851,12.834,12.803,12.774,12.752,12.735,12.723,12.712,12.708,12.701,12.699,12.697,12.692,12.69,12.686,12.684,12.686,12.685,12.683,12.681,12.68,12.683,12.682,12.687,12.686,12.68,12.68,12.679,12.68,12.681,12.685,12.685,12.687,12.687,12.688,12.689,12.69,12.692,12.696,12.697,12.696,12.696,12.695,12.697,12.696,12.696,12.695,12.69,12.687,12.686,12.688,12.681,12.685,12.684,12.679,12.679,12.675,12.673,12.674,12.677,12.676,12.672,12.672,12.673,12.671,12.677,12.673,12.674,12.68,12.68,12.688,12.687,12.69,12.687,12.677,12.683,12.714,12.738,12.76,12.743,12.733,12.728,12.718,12.71,12.701,12.689,12.679,12.678,12.673,12.669,12.666,12.666,12.665,12.663,12.662,12.665,12.662,12.66,12.661,12.662,12.663,12.661,12.661,12.662,12.664,12.663,12.651,12.57,12.457,12.457,12.646,12.947,13.207,13.569,13.675,13.234,12.982,12.733,12.648,12.668,12.638,12.728,12.741,12.749,12.731,12.728,12.713,12.717,12.713,12.719,12.716,12.725,12.723,12.731,12.731,12.735,12.733,12.742,12.74,12.747,12.752,12.761,12.764,12.773,12.779,12.785,12.79,12.8,12.808,12.816,12.826,12.833,12.842,12.857,12.862,12.874,12.886,12.901,12.914,12.935,12.952,12.971,12.988,13.006,13.031,13.051,13.072,13.093,13.118,13.135,13.155,13.17,13.187,13.194,13.199,13.198,13.185,13.159,13.125,13.08,13.035,12.993,12.95,12.91,12.874,12.843,12.819,12.796,12.781,12.767,12.758,12.753,12.749,12.746,12.744,12.741,12.74,12.736,12.737,12.736,12.734,12.735,12.73,12.73,12.733,12.728,12.726,12.724,12.728,12.724,12.72,12.725,12.727,12.722,12.725,12.725,12.724,12.728,12.728,12.727,12.729,12.727,12.729,12.729,12.73,12.731,12.735,12.732,12.735,12.733,12.731,12.73,12.731,12.73,12.733,12.732,12.733,12.732,12.735,12.731,12.732,12.728,12.731,12.731,12.731,12.73,12.732,12.732,12.731,12.731,12.732,12.734,12.733,12.734,12.735,12.738,12.736,12.743,12.747,12.753,12.752,12.749,12.737,12.743,12.78,12.824,12.817,12.803,12.797,12.793,12.784,12.775,12.767,12.754,12.742,12.739,12.734,12.731,12.731,12.728,12.728,12.722,12.723,12.721,12.723,12.721,12.72,12.722,12.722,12.721,12.72,12.722,12.719,12.721,12.711,12.631,12.51,12.498,12.681,12.983,13.256,13.62,13.749,13.327,12.943,12.777,12.751,12.737,12.719,12.803,12.816,12.808,12.795,12.78,12.776,12.769,12.772,12.769,12.777,12.778,12.78,12.785,12.789,12.793,12.795,12.8,12.801,12.804,12.808,12.816,12.821,12.826,12.831,12.838,12.846,12.853,12.859,12.87,12.878,12.892,12.899,12.909,12.924,12.936,12.953,12.964,12.973,12.987,13.006,13.027,13.046,13.062,13.086,13.109,13.128,13.149,13.172,13.192,13.21,13.229,13.245,13.254,13.258,13.252,13.231,13.216,13.181,13.136,13.091,13.043,13.003,12.959,12.924,12.892,12.865,12.84,12.821,12.806,12.798,12.786,12.78,12.774,12.771,12.77,12.771,12.766,12.766,12.763,12.76,12.761,12.757,12.758,12.755,12.758,12.755,12.754,12.754,12.752,12.754,12.755,12.755,12.755,12.751,12.751,12.752,12.753,12.753,12.751,12.754,12.753,12.748,12.749,12.747,12.747,12.749,12.747,12.75,12.746,12.747,12.747,12.748,12.746,12.742,12.743,12.744,12.744,12.739,12.736,12.74,12.738,12.74,12.737,12.733,12.733,12.736,12.736,12.735,12.734,12.733,12.735,12.732,12.733,12.734,12.732,12.731,12.731,12.729,12.731,12.731,12.729,12.729,12.73,12.728,12.728,12.729,12.736,12.739,12.738,12.738,12.734,12.726,12.725,12.749,12.801,12.813,12.792,12.784,12.773,12.764,12.755,12.747,12.734,12.723,12.722,12.718,12.716,12.713,12.713,12.711,12.712,12.709,12.711,12.707,12.706,12.704,12.705,12.706,12.705,12.706,12.709,12.708,12.707,12.699,12.621,12.498,12.482,12.657,12.96,13.234,13.585,13.742,13.559,13.076,12.795,12.746,12.736,12.721,12.787,12.815,12.789,12.788,12.757,12.769,12.747,12.762,12.753,12.765,12.753,12.768,12.759,12.774,12.765,12.781,12.773,12.786,12.78,12.792,12.79,12.8,12.797,12.813,12.813,12.828,12.83,12.844,12.845,12.858,12.862,12.87,12.875,12.891,12.901,12.921,12.936,12.949,12.966,12.983,13.002,13.017,13.039,13.059,13.076,13.102,13.123,13.146,13.166,13.187,13.198,13.209,13.231,13.236,13.236,13.226,13.21,13.177,13.14,13.091,13.046,12.999,12.953,12.913,12.882,12.851,12.828,12.806,12.795,12.785,12.779,12.766,12.762,12.752,12.752,12.749,12.749,12.746,12.751,12.747,12.749,12.738,12.745,12.738,12.741,12.736,12.737,12.735,12.734,12.735,12.736,12.738,12.741,12.732,12.738,12.735,12.739,12.727,12.733,12.73,12.734,12.73,12.729,12.722,12.72,12.721,12.726,12.721,12.724,12.722,12.722,12.723,12.721,12.72,12.72,12.717,12.717,12.715,12.714,12.714,12.719,12.719,12.721,12.717,12.716,12.711,12.712,12.713,12.707,12.708,12.707,12.712,12.714,12.716,12.709,12.704,12.704,12.7,12.7,12.7,12.704,12.711,12.713,12.71,12.71,12.712,12.708,12.703,12.7,12.72,12.764,12.791,12.773,12.753,12.748,12.737,12.732,12.725,12.713,12.703,12.702,12.699,12.685,12.676,12.679,12.682,12.684,12.681,12.67,12.667,12.671,12.669,12.677,12.686,12.677,12.675,12.677,12.682,12.681,12.689,12.636,12.521,12.472,12.629,12.775,13.077,13.353,13.642,13.51,12.933,12.599,12.47,12.519,12.599,12.683,12.742,12.76,12.754,12.741,12.728,12.738,12.732,12.735,12.728,12.734,12.74,12.748,12.749,12.747,12.743,12.752,12.756,12.758,12.761,12.761,12.777,12.786,12.788,12.798,12.803,12.807,12.81,12.818,12.828,12.839,12.853,12.864,12.875,12.885,12.899,12.915,12.932,12.95,12.963,12.978,12.995,13.015,13.04,13.06,13.082,13.098,13.124,13.135,13.155,13.17,13.18,13.193,13.203,13.203,13.196,13.177,13.14,13.1,13.052,13.006,12.96,12.917,12.878,12.842,12.81,12.785,12.775,12.757,12.739,12.731,12.724,12.715,12.711,12.705,12.705,12.7,12.696,12.694,12.689,12.684,12.685,12.684,12.689,12.683,12.69,12.686,12.685,12.683,12.689,12.684,12.688,12.685,12.685,12.682,12.684,12.684,12.685,12.685,12.687,12.685,12.686,12.69,12.682,12.681,12.68,12.682,12.684,12.683,12.679,12.674,12.672,12.671,12.674,12.674,12.673,12.675,12.672,12.669,12.668,12.668,12.67,12.67,12.672,12.674,12.674,12.677,12.676,12.671,12.667,12.695,12.731,12.737,12.714,12.71,12.7,12.692,12.683,12.675,12.663,12.658,12.658,12.652,12.653,12.649,12.65,12.647,12.646,12.647,12.646,12.639,12.644,12.642,12.646,12.643,12.644,12.644,12.641,12.641,12.637,12.611,12.507,12.412,12.412,12.556,12.847,13.134,13.47,13.674,13.313,12.838,12.634,12.573,12.59,12.604,12.677,12.702,12.701,12.695,12.681,12.68,12.678,12.68,12.679,12.687,12.682,12.688,12.689,12.695,12.698,12.701,12.703,12.711,12.714,12.721,12.718,12.733,12.735,12.743,12.747,12.753,12.76,12.766,12.771,12.78,12.787,12.804,12.81,12.823,12.836,12.85,12.864,12.883,12.899,12.914,12.933,12.957,12.974,12.999,13.017,13.04,13.052,13.069,13.092,13.108,13.124,13.137,13.148,13.147,13.139,13.118,13.107,13.073,13.026,12.963,12.919,12.88,12.844,12.817,12.788,12.778,12.759,12.743,12.728,12.722,12.712,12.708,12.706,12.704,12.699,12.699,12.698,12.696,12.695,12.694,12.692,12.691,12.688,12.69,12.689,12.686,12.687,12.687,12.689,12.689,12.689,12.69,12.689,12.69,12.691,12.69,12.692,12.691,12.689,12.69,12.689,12.688,12.689,12.692,12.69,12.689,12.69,12.69,12.69,12.691,12.687,12.69,12.689,12.689,12.688,12.684,12.685,12.683,12.684,12.684,12.688,12.688,12.69,12.693,12.697,12.697,12.703,12.696,12.69,12.699,12.734,12.767,12.762,12.747,12.742,12.731,12.721,12.708,12.7,12.683,12.681,12.679,12.677,12.672,12.672,12.668,12.666,12.662,12.663,12.659,12.661,12.659,12.659,12.655,12.658,12.657,12.655,12.66,12.66,12.654,12.587,12.518,12.428,12.474,12.716,13.03,13.319,13.676,13.586,13.064,12.772,12.666,12.666,12.641,12.718,12.743,12.747,12.733,12.718,12.712,12.709,12.708,12.706,12.708,12.709,12.715,12.715,12.716,12.718,12.724,12.726,12.733,12.734,12.742,12.744,12.753,12.757,12.763,12.77,12.774,12.779,12.789,12.793,12.805,12.815,12.826,12.836,12.848,12.86,12.876,12.889,12.903,12.92,12.939,12.96,12.982,13.001,13.023,13.034,13.057,13.077,13.1,13.119,13.141,13.158,13.174,13.185,13.193,13.189,13.172,13.145,13.11,13.063,13.014,12.97,12.924,12.882,12.846,12.829,12.801,12.779,12.758,12.746,12.735,12.728,12.721,12.715,12.713,12.708,12.708,12.707,12.706,12.703,12.703,12.701,12.699,12.698,12.699,12.696,12.697,12.694,12.696,12.693,12.691,12.692,12.694,12.69,12.692,12.689,12.693,12.693,12.692,12.689,12.689,12.688,12.69,12.688,12.688,12.685,12.688,12.685,12.683,12.683,12.684,12.684,12.686,12.684,12.682,12.678,12.677,12.677,12.675,12.677,12.675,12.674,12.673,12.676,12.674,12.679,12.685,12.685,12.686,12.685,12.677,12.678,12.706,12.75,12.758,12.739,12.734,12.724,12.713,12.702,12.691,12.684,12.672,12.669,12.664,12.661,12.659,12.658,12.656,12.655,12.652,12.648,12.648,12.649,12.647,12.651,12.65,12.648,12.651,12.651,12.651,12.65,12.642,12.561,12.435,12.415,12.591,12.902,13.187,13.545,13.679,13.258,12.857,12.685,12.657,12.659,12.682,12.736,12.74,12.727,12.716,12.707,12.697,12.699,12.695,12.7,12.7,12.7,12.701,12.709,12.705,12.711,12.713,12.719,12.724,12.729,12.733,12.741,12.745,12.749,12.754,12.76,12.766,12.775,12.782,12.793,12.8,12.808,12.821,12.832,12.844,12.858,12.871,12.886,12.901,12.923,12.941,12.961,12.971,12.992,13.01,13.034,13.053,13.076,13.095,13.116,13.134,13.149,13.165,13.174,13.174,13.165,13.146,13.11,13.068,13.028,12.977,12.952,12.912,12.866,12.832,12.798,12.777,12.754,12.74,12.727,12.718,12.702,12.7,12.693,12.692,12.691,12.69,12.687,12.689,12.685,12.687,12.684,12.685,12.68,12.68,12.678,12.679,12.676,12.677,12.675,12.68,12.676,12.677,12.673,12.675,12.673,12.674,12.671,12.672,12.672,12.672,12.671,12.67,12.671,12.671,12.671,12.669,12.669,12.669,12.666,12.663,12.661,12.658,12.665,12.665,12.661,12.666,12.663,12.656,12.655,12.655,12.658,12.657,12.653,12.655,12.659,12.66,12.656,12.656,12.656,12.654,12.656,12.661,12.659,12.662,12.661,12.663,12.663,12.665,12.659,12.653,12.664,12.704,12.746,12.731,12.718,12.709,12.691,12.684,12.676,12.667,12.657,12.651,12.646,12.643,12.639,12.638,12.642,12.636,12.639,12.633,12.632,12.632,12.637,12.63,12.627,12.625,12.63,12.626,12.624,12.625,12.624,12.573,12.457,12.389,12.513,12.649,12.949,13.214,13.541,13.541,13.023,12.793,12.563,12.509,12.56,12.618,12.685,12.693,12.691,12.675,12.672,12.667,12.67,12.662,12.665,12.664,12.671,12.674,12.682,12.68,12.687,12.686,12.692,12.695,12.701,12.702,12.705,12.713,12.725,12.726,12.733,12.744,12.753,12.755,12.759,12.759,12.774,12.79,12.803,12.812,12.829,12.845,12.861,12.877,12.892,12.902,12.924,12.942,12.966,12.993,13.018,13.042,13.06,13.069,13.085,13.108,13.122,13.139,13.15,13.151,13.148,13.13,13.097,13.056,13.012,12.961,12.916,12.876,12.837,12.808,12.777,12.752,12.738,12.72,12.708,12.695,12.689,12.681,12.675,12.678,12.674,12.667,12.662,12.661,12.659,12.661,12.658,12.659,12.656,12.66,12.659,12.659,12.656,12.656,12.652,12.653,12.652,12.654,12.649,12.656,12.655,12.66,12.656,12.656,12.654,12.658,12.657,12.665,12.657,12.653,12.651,12.652,12.648,12.649,12.651,12.648,12.643,12.643,12.645,12.646,12.646,12.642,12.639,12.637,12.637,12.637,12.634,12.637,12.632,12.629,12.627,12.632,12.63,12.634,12.633,12.631,12.632,12.636,12.643,12.641,12.645,12.642,12.634,12.619,12.639,12.679,12.708,12.694,12.687,12.685,12.666,12.662,12.652,12.642,12.628,12.622,12.621,12.617,12.614,12.611,12.613,12.61,12.609,12.605,12.603,12.603,12.6,12.6,12.602,12.601,12.599,12.598,12.603,12.601,12.6,12.582,12.496,12.397,12.421,12.635,12.943,13.193,13.515,13.49,12.977,12.609,12.449,12.43,12.487,12.534,12.615,12.655,12.666,12.662,12.651,12.641,12.638,12.641,12.644,12.644,12.643,12.646,12.648,12.655,12.658,12.663,12.666,12.67,12.673,12.68,12.685,12.689,12.696,12.705,12.707,12.716,12.724,12.728,12.741,12.751,12.763,12.77,12.78,12.79,12.803,12.819,12.825,12.841,12.855,12.872,12.892,12.908,12.925,12.946,12.967,12.985,13.004,13.024,13.045,13.063,13.076,13.092,13.1,13.101,13.096,13.09,13.065,13.031,12.989,12.948,12.901,12.86,12.825,12.787,12.761,12.73,12.712,12.695,12.684,12.673,12.664,12.66,12.658,12.652,12.653,12.651,12.649,12.643,12.645,12.645,12.642,12.643,12.64,12.641,12.64,12.64,12.643,12.64,12.64,12.641,12.642,12.642,12.638,12.64,12.642,12.641,12.641,12.638,12.642,12.641,12.644,12.642,12.646,12.643,12.638,12.637,12.638,12.638,12.636,12.635,12.634,12.634,12.632,12.63,12.629,12.632,12.629,12.627,12.626,12.626,12.625,12.623,12.623,12.621,12.622,12.62,12.619,12.622,12.619,12.619,12.62,12.619,12.619,12.617,12.617,12.615,12.616,12.619,12.618,12.621,12.625,12.628,12.628,12.627,12.615,12.613,12.643,12.694,12.692,12.679,12.671,12.664,12.659,12.652,12.641,12.633,12.622,12.617,12.613,12.606,12.608,12.605,12.601,12.599,12.598,12.595,12.595,12.591,12.587,12.589,12.591,12.59,12.594,12.591,12.592,12.592,12.593,12.553,12.428,12.345,12.43,12.682,12.986,13.292,13.637,13.45,12.958,12.709,12.649,12.648,12.618,12.649,12.68,12.687,12.664,12.651,12.638,12.637,12.635,12.636,12.633,12.639,12.639,12.641,12.641,12.641,12.647,12.651,12.652,12.658,12.663,12.668,12.673,12.679,12.684,12.691,12.697,12.707,12.711,12.724,12.728,12.738,12.748,12.755,12.767,12.78,12.793,12.805,12.813,12.83,12.843,12.861,12.882,12.9,12.922,12.941,12.964,12.986,13.003,13.022,13.04,13.06,13.076,13.091,13.098,13.098,13.091,13.083,13.058,13.024,12.986,12.941,12.901,12.858,12.819,12.783,12.754,12.73,12.707,12.69,12.678,12.667,12.659,12.655,12.647,12.644,12.645,12.642,12.644,12.639,12.639,12.638,12.64,12.637,12.637,12.632,12.634,12.635,12.632,12.629,12.631,12.631,12.628,12.629,12.629,12.627,12.628,12.625,12.626,12.624,12.624,12.621,12.622,12.621,12.62,12.619,12.619,12.618,12.618,12.615,12.617,12.614,12.618,12.615,12.615,12.617,12.615,12.616,12.615,12.618,12.615,12.614,12.615,12.612,12.612,12.612,12.609,12.61,12.613,12.609,12.609,12.61,12.608,12.607,12.608,12.608,12.609,12.606,12.606,12.603,12.603,12.602,12.601,12.604,12.607,12.612,12.608,12.614,12.613,12.598,12.596,12.624,12.68,12.692,12.674,12.662,12.655,12.65,12.641,12.634,12.624,12.609,12.607,12.601,12.596,12.593,12.591,12.588,12.589,12.589,12.587,12.585,12.584,12.587,12.581,12.583,12.582,12.582,12.582,12.582,12.58,12.578,12.539,12.418,12.335,12.421,12.677,12.986,13.279,13.619,13.422,13.146,12.795,12.618,12.624,12.591,12.645,12.671,12.688,12.654,12.656,12.629,12.641,12.626,12.64,12.631,12.647,12.636,12.65,12.639,12.652,12.648,12.66,12.654,12.668,12.661,12.679,12.674,12.686,12.682,12.697,12.698,12.709,12.714,12.725,12.731,12.741,12.75,12.762,12.764,12.777,12.79,12.803,12.816,12.831,12.848,12.864,12.885,12.904,12.92,12.942,12.964,12.982,13.006,13.021,13.039,13.055,13.075,13.084,13.093,13.097,13.098,13.083,13.064,13.027,12.989,12.943,12.903,12.86,12.82,12.78,12.752,12.722,12.706,12.683,12.67,12.658,12.65,12.643,12.64,12.634,12.635,12.626,12.626,12.622,12.624,12.62,12.623,12.619,12.619,12.616,12.617,12.614,12.617,12.612,12.615,12.613,12.615,12.613,12.612,12.61,12.612,12.61,12.61,12.604,12.607,12.607,12.608,12.606,12.607,12.605,12.606,12.603,12.603,12.598,12.603,12.6,12.6,12.597,12.599,12.594,12.596,12.596,12.596,12.596,12.593,12.59,12.593,12.591,12.591,12.593,12.594,12.593,12.595,12.595,12.591,12.591,12.593,12.591,12.59,12.59,12.594,12.596,12.594,12.595,12.591,12.594,12.594,12.591,12.589,12.595,12.595,12.593,12.59,12.591,12.59,12.598,12.6,12.6,12.599,12.59,12.588,12.608,12.654,12.678,12.657,12.644,12.63,12.625,12.617,12.609,12.597,12.592,12.588,12.585,12.581,12.579,12.576,12.575,12.571,12.57,12.573,12.573,12.569,12.571,12.569,12.566,12.569,12.571,12.574,12.575,12.574,12.566,12.537,12.415,12.335,12.423,12.684,12.986,13.263,13.585,13.374,12.849,12.591,12.519,12.552,12.555,12.641,12.664,12.654,12.646,12.623,12.625,12.616,12.621,12.62,12.624,12.621,12.628,12.63,12.639,12.638,12.641,12.636,12.646,12.649,12.662,12.657,12.668,12.67,12.679,12.678,12.692,12.703,12.714,12.714,12.725,12.726,12.742,12.757,12.773,12.784,12.797,12.805,12.819,12.834,12.855,12.874,12.893,12.916,12.926,12.946,12.967,12.993,13.017,13.037,13.052,13.066,13.081,13.096,13.107,13.116,13.114,13.096,13.072,13.037,12.99,12.949,12.906,12.869,12.846,12.811,12.769,12.733,12.706,12.694,12.683,12.673,12.66,12.657,12.641,12.64,12.642,12.639,12.632,12.63,12.629,12.641,12.638,12.643,12.63,12.622,12.622,12.621,12.629,12.64,12.633,12.632,12.625,12.63,12.637,12.64,12.634,12.628,12.628,12.631,12.633,12.642,12.643,12.644,12.637,12.634,12.633,12.627,12.622,12.626,12.624,12.626,12.624,12.623,12.624,12.623,12.621,12.621,12.625,12.623,12.624,12.626,12.618,12.615,12.62,12.618,12.617,12.617,12.621,12.613,12.615,12.62,12.615,12.619,12.619,12.63,12.626,12.622,12.616,12.624,12.617,12.634,12.66,12.711,12.694,12.68,12.686,12.652,12.655,12.642,12.631,12.64,12.643,12.643,12.653,12.659,12.654,12.689,12.671,12.625,12.617,12.619,12.626,12.604,12.588,12.594,12.6,12.598,12.593,12.591,12.584,12.579,12.531,12.424,12.418,12.572,12.872,13.163,13.457,13.602,13.523,12.996,12.723,12.605,12.595,12.649,12.676,12.728,12.732,12.73,12.689,12.675,12.675,12.663,12.64,12.594,12.613,12.625,12.599,12.62,12.605,12.633,12.636,12.625,12.602,12.615,12.618,12.617,12.564,12.577,12.598,12.621,12.627,12.646,12.657,12.698,12.697,12.709,12.715,12.743,12.752,12.776,12.789,12.813,12.818,12.84,12.862,12.882,12.889,12.909,12.913,12.913,12.948,12.946,12.971,13.016,13.026,13.024,13.051,13.049,13.071,13.082,13.048,13.021,13.006,12.985,12.967,12.919,12.847,12.8,12.751,12.719,12.677,12.66,12.646,12.634,12.634,12.614,12.613,12.608,12.6,12.591,12.598,12.595,12.585,12.579,12.579,12.589,12.586,12.553,12.552,12.584,12.555,12.594,12.586,12.579,12.584,12.572,12.568,12.582,12.595,12.606,12.623,12.632,12.621,12.6,12.608,12.58,12.596,12.624,12.621,12.607,12.57,12.577,12.581,12.579,12.582,12.579,12.566,12.58,12.601,12.6,12.573,12.537,12.555,12.558,12.541,12.547,12.59,12.579,12.54,12.506,12.498,12.508,12.557,12.534,12.52,12.508,12.503,12.504,12.496,12.509,12.535,12.573,12.612,12.614,12.598,12.589,12.579,12.554,12.563,12.549,12.547,12.535,12.535,12.532,12.531,12.534,12.531,12.536,12.549,12.544,12.519,12.515,12.538,12.534,12.518,12.524,12.554,12.543,12.524,12.51,12.52,12.506,12.462,12.392,12.42,12.651,12.961,13.156,13.421,13.347,12.749,12.324,12.185,12.227,12.373,12.478,12.574,12.612,12.618,12.609,12.588,12.578,12.578,12.574,12.583,12.593,12.598,12.601,12.605,12.606,12.607,12.61,12.613,12.632,12.632,12.638,12.638,12.648,12.652,12.664,12.679,12.687,12.689,12.693,12.701,12.714,12.733,12.745,12.759,12.776,12.794,12.809,12.822,12.846,12.867,12.896,12.9,12.911,12.925,12.953,12.973,12.997,13.012,13.038,13.048,13.058,13.071,13.084,13.088,13.102,13.083,13.056,13.024,12.993,12.94,12.886,12.863,12.839,12.798,12.75,12.706,12.69,12.665,12.649,12.639,12.63,12.604,12.597,12.602,12.585,12.579,12.597,12.576,12.58,12.572,12.569,12.561,12.569,12.568,12.57,12.56,12.559,12.567,12.578,12.591,12.589,12.597,12.586,12.581,12.577,12.577,12.587,12.589,12.597,12.589,12.588,12.595,12.615,12.679,12.671,12.658,12.654,12.647,12.641,12.636,12.63,12.622,12.618,12.613,12.605,12.602,12.598,12.597,12.597,12.595,12.598,12.594,12.599,12.599,12.597,12.604,12.614,12.599,12.581,12.599,12.649,12.677,12.645,12.622,12.628,12.626,12.602,12.595,12.596,12.571,12.571,12.57,12.559,12.568,12.546,12.546,12.552,12.548,12.541,12.532,12.533,12.53,12.539,12.538,12.537,12.54,12.536,12.528,12.517,12.521,12.473,12.344,12.276,12.379,12.635,12.946,13.303,13.644,13.38,12.903,12.707,12.658,12.638,12.587,12.644,12.642,12.636,12.611,12.583,12.577,12.571,12.572,12.573,12.576,12.57,12.577,12.578,12.587,12.595,12.596,12.592,12.596,12.603,12.607,12.611,12.62,12.623,12.627,12.632,12.633,12.636,12.647,12.659,12.674,12.676,12.679,12.695,12.7,12.713,12.729,12.733,12.749,12.763,12.781,12.797,12.807,12.826,12.843,12.86,12.878,12.899,12.918,12.933,12.955,12.97,12.985,12.992,13.001,12.99,12.978,12.948,12.918,12.877,12.841,12.813,12.777,12.737,12.712,12.679,12.657,12.633,12.621,12.612,12.6,12.594,12.59,12.585,12.586,12.583,12.579,12.584,12.583,12.574,12.574,12.576,12.568,12.565,12.568,12.569,12.569,12.569,12.567,12.566,12.565,12.568,12.565,12.56,12.562,12.563,12.564,12.566,12.564,12.564,12.562,12.563,12.561,12.563,12.562,12.563,12.564,12.559,12.56,12.562,12.559,12.555,12.554,12.565,12.56,12.56,12.559,12.561,12.561,12.573,12.582,12.584,12.582,12.574,12.585,12.615,12.652,12.649,12.634,12.624,12.614,12.605,12.594,12.585,12.568,12.567,12.565,12.563,12.558,12.555,12.558,12.551,12.548,12.547,12.544,12.542,12.543,12.542,12.541,12.543,12.537,12.537,12.535,12.535,12.518,12.439,12.31,12.277,12.34,12.578,12.93,13.282,13.664,13.494,13.002,12.752,12.689,12.646,12.582,12.638,12.645,12.63,12.608,12.596,12.594,12.586,12.585,12.59,12.588,12.59,12.592,12.595,12.593,12.597,12.602,12.608,12.611,12.615,12.602,12.617,12.651,12.665,12.657,12.632,12.64,12.646,12.649,12.654,12.676,12.714,12.737,12.742,12.744,12.752,12.759,12.767,12.774,12.787,12.812,12.827,12.831,12.846,12.836,12.862,12.878,12.896,12.883,12.931,13.048,13.1,13.077,13.02,13.013,12.976,12.873,12.796,12.803,12.804,12.762,12.564,12.455,12.636,12.723,12.565,12.437,12.421,12.652,12.783,12.804,12.842,12.788,12.726,12.69,12.667,12.658,12.677,12.68,12.656,12.646,12.651,12.64,12.588,12.49,12.486,12.488,12.5,12.509,12.518,12.522,12.532,12.54,12.547,12.555,12.563,12.562,12.568,12.565,12.566,12.564,12.564,12.569,12.596,12.614,12.606,12.594,12.583,12.577,12.573,12.569,12.563,12.562,12.557,12.563,12.556,12.555,12.561,12.563,12.567,12.571,12.577,12.582,12.579,12.556,12.581,12.636,12.68,12.682,12.66,12.644,12.629,12.617,12.604,12.587,12.579,12.571,12.562,12.565,12.557,12.558,12.551,12.551,12.545,12.545,12.545,12.544,12.542,12.543,12.539,12.542,12.538,12.54,12.536,12.539,12.525,12.437,12.308,12.296,12.478,12.802,13.108,13.303,13.635,13.417,12.883,12.649,12.562,12.574,12.536,12.626,12.632,12.624,12.602,12.59,12.582,12.584,12.583,12.583,12.583,12.59,12.589,12.59,12.593,12.599,12.602,12.607,12.61,12.618,12.622,12.628,12.634,12.635,12.646,12.653,12.662,12.671,12.679,12.688,12.698,12.707,12.714,12.727,12.736,12.756,12.773,12.79,12.804,12.822,12.843,12.861,12.883,12.908,12.931,12.949,12.972,12.989,13.012,13.031,13.047,13.061,13.073,13.082,13.089,13.079,13.062,13.029,12.989,12.938,12.893,12.853,12.811,12.771,12.741,12.711,12.688,12.662,12.652,12.645,12.636,12.632,12.631,12.626,12.62,12.612,12.607,12.604,12.612,12.612,12.613,12.615,12.62,12.614,12.61,12.604,12.611,12.606,12.611,12.604,12.605,12.609,12.612,12.605,12.609,12.601,12.605,12.609,12.606,12.599,12.606,12.602,12.603,12.605,12.608,12.603,12.606,12.604,12.603,12.599,12.601,12.599,12.605,12.607,12.603,12.606,12.598,12.597,12.606,12.605,12.61,12.618,12.614,12.605,12.629,12.659,12.681,12.684,12.664,12.658,12.652,12.64,12.62,12.603,12.605,12.601,12.597,12.594,12.594,12.586,12.585,12.591,12.591,12.592,12.58,12.589,12.587,12.585,12.586,12.587,12.583,12.586,12.592,12.587,12.575,12.513,12.407,12.374,12.501,12.807,13.104,13.396,13.57,13.198,12.644,12.507,12.363,12.38,12.481,12.542,12.626,12.641,12.648,12.637,12.639,12.627,12.634,12.623,12.634,12.634,12.649,12.646,12.652,12.652,12.659,12.665,12.673,12.665,12.664,12.675,12.686,12.694,12.697,12.7,12.71,12.713,12.73,12.734,12.745,12.753,12.77,12.785,12.793,12.809,12.814,12.828,12.834,12.852,12.882,12.902,12.926,12.941,12.96,12.978,13.003,13.032,13.05,13.067,13.089,13.112,13.121,13.122,13.118,13.121,13.107,13.077,13.035,12.986,12.94,12.898,12.853,12.812,12.773,12.749,12.724,12.702,12.681,12.666,12.658,12.656,12.641,12.637,12.638,12.64,12.632,12.626,12.624,12.622,12.623,12.624,12.621,12.624,12.613,12.608,12.609,12.615,12.614,12.615,12.609,12.61,12.613,12.615,12.614,12.611,12.61,12.612,12.614,12.612,12.611,12.611,12.61,12.61,12.604,12.606,12.605,12.605,12.603,12.597,12.602,12.608,12.608,12.617,12.611,12.616,12.614,12.61,12.607,12.627,12.664,12.684,12.677,12.658,12.65,12.636,12.623,12.609,12.593,12.591,12.585,12.584,12.58,12.575,12.579,12.577,12.572,12.573,12.568,12.57,12.57,12.562,12.567,12.565,12.567,12.561,12.561,12.559,12.554,12.547,12.475,12.411,12.347,12.425,12.703,13.009,13.296,13.577,13.344,12.767,12.505,12.403,12.441,12.495,12.573,12.612,12.625,12.625,12.616,12.606,12.605,12.604,12.606,12.604,12.61,12.609,12.612,12.612,12.616,12.621,12.621,12.623,12.627,12.635,12.636,12.64,12.641,12.649,12.658,12.659,12.664,12.675,12.679,12.687,12.7,12.709,12.713,12.721,12.735,12.75,12.763,12.779,12.799,12.816,12.832,12.85,12.873,12.889,12.899,12.924,12.943,12.96,12.979,12.993,13.011,13.022,13.029,13.03,13.021,12.998,12.963,12.921,12.879,12.831,12.79,12.753,12.719,12.705,12.679,12.656,12.641,12.627,12.615,12.616,12.608,12.603,12.599,12.596,12.593,12.591,12.588,12.584,12.582,12.582,12.581,12.576,12.578,12.578,12.579,12.576,12.577,12.578,12.576,12.577,12.58,12.579,12.577,12.579,12.578,12.577,12.578,12.577,12.581,12.582,12.583,12.582,12.581,12.581,12.58,12.579,12.578,12.58,12.575,12.575,12.576,12.575,12.575,12.575,12.569,12.574,12.572,12.573,12.574,12.572,12.575,12.581,12.589,12.593,12.594,12.591,12.58,12.6,12.634,12.659,12.646,12.63,12.621,12.611,12.603,12.591,12.581,12.571,12.566,12.563,12.56,12.558,12.555,12.552,12.55,12.549,12.542,12.547,12.542,12.545,12.541,12.544,12.543,12.544,12.543,12.542,12.541,12.533,12.444,12.365,12.272,12.319,12.553,12.912,13.307,13.719,13.577,13.102,12.85,12.754,12.685,12.605,12.66,12.648,12.641,12.605,12.598,12.588,12.589,12.585,12.588,12.58,12.59,12.584,12.592,12.59,12.6,12.598,12.603,12.603,12.611,12.615,12.618,12.62,12.627,12.629,12.636,12.641,12.647,12.652,12.657,12.663,12.674,12.68,12.689,12.699,12.71,12.722,12.737,12.748,12.764,12.78,12.799,12.817,12.834,12.855,12.874,12.885,12.903,12.921,12.939,12.955,12.973,12.993,13,13.005,13.001,12.988,12.96,12.928,12.884,12.844,12.798,12.766,12.73,12.702,12.686,12.664,12.64,12.624,12.609,12.604,12.594,12.59,12.583,12.586,12.582,12.582,12.579,12.577,12.574,12.572,12.57,12.572,12.567,12.569,12.568,12.568,12.567,12.569,12.565,12.563,12.565,12.566,12.561,12.563,12.564,12.558,12.556,12.564,12.556,12.557,12.558,12.56,12.557,12.559,12.555,12.556,12.557,12.555,12.554,12.552,12.555,12.554,12.552,12.555,12.554,12.553,12.553,12.555,12.551,12.552,12.553,12.551,12.55,12.553,12.55,12.55,12.553,12.554,12.55,12.552,12.553,12.551,12.554,12.554,12.554,12.554,12.56,12.566,12.578,12.579,12.576,12.569,12.56,12.574,12.618,12.638,12.62,12.612,12.602,12.59,12.583,12.578,12.564,12.555,12.552,12.547,12.547,12.542,12.542,12.537,12.538,12.536,12.537,12.533,12.532,12.534,12.537,12.535,12.536,12.532,12.533,12.536,12.535,12.531,12.475,12.336,12.271,12.367,12.638,12.825,13.162,13.626,13.623,13.182,12.857,12.755,12.672,12.595,12.638,12.649,12.627,12.609,12.588,12.588,12.575,12.581,12.576,12.583,12.576,12.582,12.577,12.584,12.585,12.593,12.592,12.6,12.602,12.604,12.608,12.617,12.619,12.625,12.628,12.638,12.641,12.65,12.652,12.666,12.667,12.681,12.686,12.694,12.706,12.72,12.733,12.746,12.758,12.777,12.791,12.81,12.825,12.835,12.854,12.883,12.903,12.921,12.94,12.953,12.971,12.986,13.001,13.013,13.013,13.012,12.993,12.964,12.929,12.889,12.85,12.805,12.772,12.737,12.707,12.683,12.661,12.642,12.637,12.619,12.609,12.602,12.601,12.597,12.592,12.59,12.591,12.587,12.586,12.581,12.584,12.58,12.579,12.576,12.577,12.576,12.574,12.574,12.573,12.574,12.573,12.575,12.572,12.572,12.57,12.57,12.573,12.566,12.571,12.567,12.568,12.568,12.57,12.568,12.566,12.568,12.569,12.564,12.568,12.566,12.566,12.567,12.566,12.563,12.562,12.564,12.564,12.561,12.559,12.557,12.558,12.557,12.556,12.555,12.556,12.554,12.552,12.555,12.553,12.552,12.554,12.555,12.556,12.554,12.553,12.553,12.551,12.555,12.554,12.55,12.551,12.55,12.551,12.553,12.549,12.549,12.55,12.549,12.552,12.547,12.548,12.553,12.548,12.549,12.549,12.548,12.548,12.549,12.548,12.547,12.545,12.546,12.546,12.544,12.545,12.546,12.548,12.556,12.558,12.559,12.562,12.553,12.55,12.577,12.62,12.624,12.607,12.603,12.59,12.584,12.573,12.565,12.55,12.546,12.544,12.542,12.539,12.532,12.533,12.529,12.526,12.525,12.522,12.521,12.522,12.522,12.522,12.519,12.515,12.515,12.514,12.514,12.514,12.515,12.491,12.384,12.266,12.284,12.474,12.803,13.147,13.596,13.568,13.083,12.781,12.674,12.617,12.545,12.607,12.61,12.599,12.586,12.564,12.555,12.546,12.549,12.548,12.548,12.548,12.553,12.554,12.558,12.557,12.562,12.566,12.571,12.569,12.574,12.582,12.585,12.591,12.593,12.598,12.604,12.608,12.618,12.624,12.632,12.642,12.65,12.659,12.668,12.679,12.689,12.702,12.714,12.729,12.743,12.756,12.773,12.781,12.799,12.815,12.833,12.85,12.871,12.889,12.906,12.924,12.947,12.959,12.977,12.985,12.99,12.98,12.967,12.941,12.907,12.873
