4.7389,4.736,4.7306,4.7338,4.7551,4.7894,4.8078,4.7822,4.7781,4.7899,4.8097,4.8382,4.8685,4.8628,4.8921,4.931,4.9479,4.9719,4.9682,5.0044,5.0087,5.051,5.0933,5.1042,5.1294,5.1508,5.1551,5.135,5.1217,5.0928,5.0781,5.0313,4.9903,4.989,4.9399,4.8902,4.8338,4.8051,4.7422,4.6725,4.6247,4.6109,4.6176,4.6115,4.5826,4.5823,4.566,4.5352,4.5208,4.516,4.5595,4.5394,4.5141,4.5089,4.4976,4.475,4.4897,4.5045,4.5369,4.5019,4.4784,4.4937,4.4831,4.514,4.514,4.4897,4.4761,4.4899,4.4837,4.4439,4.4489,4.461,4.4936,4.5013,4.485,4.4909,4.486,4.4881,4.4826,4.4882,4.471,4.4562,4.4762,4.4863,4.5083,4.4815,4.4223,4.4343,4.4491,4.4595,4.4424,4.4641,4.4532,4.4522,4.4417,4.4363,4.414,4.449,4.4283,4.4406,4.4372,4.4333,4.4335,4.441,4.4405,4.432,4.3982,4.4154,4.3994,4.4225,4.3979,4.3936,4.4043,4.422,4.4353,4.4025,4.3911,4.3985,4.3999,4.4154,4.4335,4.4254,4.3826,4.3831,4.4338,4.4351,4.4199,4.3998,4.4256,4.4193,4.4247,4.4327,4.4474,4.465,4.4755,4.4722,4.4602,4.4329,4.3916,4.3986,4.3768,4.3566,4.3535,4.3624,4.3643,4.3569,4.3496,4.3518,4.3667,4.3422,4.3358,4.2237,4.1228,3.964,3.9427,4.0936,4.4299,4.6323,5.3691,5.7888,5.9677,5.7076,5.0881,4.5978,4.4218,4.4606,4.3709,4.3419,4.2948,4.3452,4.33,4.38,4.3368,4.3333,4.2604,4.2983,4.2677,4.3024,4.2846,4.3098,4.2777,4.3147,4.2708,4.2832,4.3103,4.3298,4.3328,4.3413,4.331,4.3412,4.3132,4.3323,4.3419,4.3676,4.3573,4.3139,4.3371,4.3334,4.3572,4.3525,4.382,4.4131,4.4307,4.4155,4.4607,4.4792,4.5128,4.5168,4.56,4.6134,4.603,4.6201,4.6241,4.6415,4.6569,4.674,4.7027,4.7375,4.7377,4.7436,4.7296,4.7227,4.6983,4.6618,4.6238,4.5747,4.5531,4.5337,4.4555,4.3623,4.3156,4.3096,4.3071,4.2672,4.229,4.1772,4.1725,4.1683,4.1677,4.1684,4.1572,4.1355,4.1598,4.1496,4.1337,4.135,4.1516,4.1268,4.1413,4.1286,4.1166,4.1347,4.1572,4.1606,4.1363,4.0963,4.1078,4.1147,4.1457,4.1458,4.133,4.1521,4.1551,4.1302,4.1492,4.1708,4.1511,4.1152,4.1255,4.125,4.1576,4.1726,4.2055,4.2,4.1885,4.1594,4.1523,4.161,4.1557,4.1355,4.1589,4.1709,4.1438,4.1511,4.117,4.097,4.112,4.1194,4.1651,4.1463,4.1476,4.1077,4.0979,4.1403,4.1517,4.1441,4.1174,4.099,4.1133,4.1338,4.1371,4.1263,4.1345,4.1415,4.1373,4.1094,4.0845,4.1058,4.1301,4.1406,4.1381,4.1035,4.079,4.0839,4.0987,4.1195,4.1342,4.1121,4.1068,4.1423,4.1229,4.1316,4.1263,4.1129,4.077,4.0912,4.0997,4.1243,4.1542,4.1245,4.1384,4.1405,4.1437,4.1758,4.1997,4.1882,4.1785,4.1662,4.1713,4.1502,4.1252,4.1165,4.1087,4.0885,4.0452,4.0759,4.0661,4.0976,4.1106,4.0852,4.0748,4.0661,3.9686,3.8182,3.7001,3.7339,3.9036,4.2941,4.7386,5.3281,5.6893,5.8989,5.6116,4.9566,4.4581,4.3084,4.254,4.1761,4.1344,4.0958,4.1377,4.1164,4.1242,4.1204,4.1305,4.1027,4.1287,4.1253,4.1072,4.0819,4.0638,4.0789,4.0983,4.1019,4.124,4.1438,4.1467,4.127,4.1721,4.1905,4.1958,4.1701,4.1339,4.1287,4.1317,4.167,4.2016,4.2219,4.1939,4.205,4.2043,4.2076,4.2236,4.2292,4.2641,4.2932,4.3287,4.3519,4.3713,4.4124,4.4403,4.4511,4.4839,4.492,4.5411,4.5579,4.5723,4.601,4.6278,4.6219,4.6264,4.63,4.656,4.6245,4.5707,4.5289,4.4932,4.4737,4.4235,4.392,4.3352,4.3177,4.2904,4.256,4.1956,4.1731,4.1866,4.1503,4.1487,4.1678,4.103,4.1061,4.1091,4.1153,4.0988,4.1009,4.13,4.1349,4.1252,4.0813,4.0803,4.094,4.0959,4.098,4.1074,4.1122,4.1148,4.1104,4.0969,4.0881,4.1221,4.109,4.1246,4.125,4.1163,4.0959,4.0922,4.1016,4.0959,4.0719,4.0834,4.0865,4.1007,4.1259,4.1239,4.1266,4.1262,4.109,4.1011,4.1305,4.1401,4.1524,4.1637,4.1673,4.1504,4.1146,4.0828,4.0968,4.0974,4.102,4.08,4.0635,4.0857,4.1427,4.1603,4.13,4.0972,4.0814,4.0937,4.1182,4.1209,4.1113,4.1076,4.1015,4.1189,4.1068,4.0814,4.091,4.118,4.1366,4.1293,4.1445,4.1876,4.144,4.0976,4.1189,4.105,4.1068,4.103,4.146,4.1443,4.1144,4.1173,4.1078,4.1171,4.1332,4.1177,4.0898,4.0999,4.1213,4.1371,4.1483,4.1656,4.1846,4.1325,4.159,4.2109,4.2167,4.2082,4.2316,4.237,4.2089,4.1895,4.1588,4.1238,4.1436,4.1431,4.1542,4.1645,4.1023,4.0957,4.1036,4.1173,4.1133,4.1306,4.0618,3.8904,3.806,3.8067,3.9517,4.369,4.8505,5.4077,5.745,5.8353,5.4862,4.816,4.4329,4.2848,4.256,4.2481,4.2172,4.2127,4.202,4.2053,4.1924,4.1966,4.1997,4.2056,4.1876,4.1844,4.2351,4.2216,4.2127,4.2105,4.2099,4.2134,4.2193,4.2316,4.2716,4.2832,4.2661,4.2569,4.2131,4.2219,4.2515,4.2786,4.3045,4.2867,4.2858,4.2814,4.2911,4.3048,4.3294,4.3588,4.3444,4.3917,4.4388,4.424,4.4422,4.454,4.4737,4.5158,4.5692,4.6323,4.6397,4.6447,4.6727,4.6868,4.7217,4.7394,4.7954,4.8483,4.8094,4.7858,4.7682,4.7792,4.7623,4.73,4.6936,4.6735,4.6361,4.5849,4.5321,4.4526,4.4114,4.4031,4.3962,4.3914,4.363,4.3202,4.3145,4.335,4.3228,4.2962,4.3178,4.3091,4.3341,4.3409,4.313,4.2816,4.3026,4.32,4.2855,4.2972,4.2911,4.313,4.352,4.3593,4.3216,4.2993,4.3201,4.3552,4.3669,4.3632,4.3927,4.3733,4.3327,4.3235,4.3218,4.3171,4.3397,4.3905,4.4384,4.406,4.3887,4.3743,4.3939,4.3996,4.3911,4.3966,4.391,4.4123,4.4102,4.4044,4.416,4.3845,4.4216,4.4336,4.4396,4.4467,4.3752,4.4206,4.4318,4.4523,4.4618,4.45,4.4472,4.4317,4.4185,4.4012,4.3773,4.415,4.4269,4.4616,4.4688,4.418,4.4096,4.4418,4.4716,4.455,4.432,4.4367,4.4188,4.4335,4.4391,4.4711,4.531,4.4838,4.4715,4.4269,4.4411,4.4658,4.5134,4.5938,4.5724,4.5271,4.5332,4.5297,4.5567,4.5445,4.5165,4.4939,4.4525,4.4439,4.4694,4.4805,4.4932,4.4627,4.4416,4.4579,4.446,4.4398,4.4124,4.3319,4.2127,4.1409,4.256,4.5665,4.9509,5.1796,5.6248,5.9357,5.9779,5.5956,4.9855,4.6701,4.5756,4.5435,4.5218,4.4765,4.4957,4.5489,4.517,4.5329,4.5481,4.5573,4.5172,4.5231,4.5258,4.5504,4.5511,4.5987,4.6006,4.5952,4.5482,4.5738,4.5792,4.5985,4.5985,4.6307,4.632,4.6212,4.6089,4.6403,4.6472,4.6926,4.6561,4.6498,4.6445,4.6589,4.6951,4.7284,4.7283,4.739,4.7846,4.7879,4.8008,4.8112,4.8613,4.8899,4.9563,4.9701,4.9657,5.0008,5.0436,5.0681,5.0744,5.0979,5.1028,5.1289,5.1342,5.1383,5.1287,5.1375,5.1636,5.1213,5.0675,4.9878,4.9063,4.8418,4.8147,4.7931,4.7824,4.7135,4.6584,4.6965,4.6846,4.6305,4.615,4.6129,4.5944,4.6027,4.6288,4.6495,4.5936,4.5826,4.6006,4.5885,4.6071,4.6108,4.609,4.6144,4.6093,4.5864,4.5774,4.5864,4.6062,4.592,4.6007,4.5961,4.5927,4.6194,4.6381,4.6275,4.6263,4.6126,4.6406,4.6493,4.6401,4.6519,4.6459,4.6159,4.6719,4.6587,4.6265,4.6023,4.6068,4.5951,4.6368,4.6277,4.6258,4.6129,4.6506,4.6566,4.6421,4.6375,4.6525,4.6501,4.6354,4.6358,4.6298,4.6387,4.6801,4.6626,4.6472,4.6408,4.6571,4.6781,4.6739,4.6697,4.6923,4.6729,4.6523,4.6853,4.6982,4.7076,4.7012,4.6978,4.6694,4.6887,4.6912,4.69,4.7243,4.7295,4.7214,4.7399,4.7684,4.7764,4.7881,4.7908,4.7533,4.75,4.7373,4.7222,4.7159,4.7079,4.6842,4.6659,4.6874,4.6889,4.6803,4.7276,4.7115,4.6941,4.6547,4.5285,4.3328,4.2845,4.3329,4.5141,4.8964,5.3259,5.8319,6.1793,6.337,5.997,5.3769,4.9287,4.828,4.8121,4.7788,4.7134,4.708,4.7524,4.7587,4.8142,4.761,4.7109,4.6819,4.7346,4.7699,4.764,4.7128,4.7061,4.7396,4.774,4.7205,4.7285,4.7698,4.8029,4.8076,4.79,4.7523,4.7605,4.7916,4.8254,4.828,4.8292,4.8372,4.8529,4.8424,4.8302,4.8409,4.8927,4.9321,4.9244,4.9426,4.9471,4.978,5.0098,5.0466,5.0656,5.0478,5.0986,5.1566,5.2119,5.1916,5.1994,5.2122,5.2421,5.2835,5.306,5.3552,5.3541,5.3067,5.3092,5.2848,5.2564,5.2146,5.1715,5.1152,5.055,4.9916,4.9886,4.9738,4.9564,4.9126,4.8645,4.8481,4.8138,4.7892,4.7909,4.8025,4.7923,4.8139,4.7933,4.7891,4.8106,4.7906,4.752,4.801,4.8138,4.8602,4.8319,4.8205,4.791,4.7877,4.7721,4.7778,4.8083,4.8057,4.8129,4.8232,4.8188,4.8151,4.8091,4.7903,4.8031,4.8338,4.8827,4.8605,4.8193,4.7976,4.8284,4.8448,4.8455,4.8487,4.8352,4.8121,4.7869,4.7799,4.8598,4.843,4.8233,4.8076,4.8167,4.8389,4.8475,4.798,4.777,4.7888,4.783,4.81,4.8155,4.7993,4.7985,4.8019,4.8057,4.7986,4.805,4.8262,4.8503,4.8205,4.7849,4.7818,4.8249,4.8214,4.8006,4.8058,4.7913,4.78,4.7705,4.8255,4.8003,4.8089,4.7954,4.8208,4.8124,4.8351,4.8809,4.8815,4.8638,4.8669,4.8653,4.908,4.9212,4.9128,4.8768,4.8667,4.8692,4.8623,4.853,4.8315,4.8382,4.8254,4.831,4.8392,4.8694,4.8756,4.9007,4.7926,4.6083,4.4927,4.4959,4.6331,5.0528,5.4987,6.1151,6.521,6.6163,6.2769,5.6166,5.193,5.0387,5.0281,4.9725,4.9544,4.9198,4.9362,4.905,4.9163,4.8976,4.9243,4.9084,4.9156,4.9055,4.8866,4.877,4.9149,4.9243,4.9199,4.9015,4.944,4.9616,4.9892,4.9586,4.9195,4.9034,4.9167,4.9252,4.9382,4.9106,4.8984,4.9348,4.9559,4.9682,4.9956,4.9806,5.0035,5.0422,5.1105,5.0902,5.0769,5.0565,5.0916,5.1659,5.1954,5.1909,5.2243,5.2303,5.2474,5.3036,5.3355,5.3475,5.3859,5.4604,5.4368,5.4048,5.4066,5.4374,5.4713,5.4256,5.3424,5.2965,5.2654,5.2684,5.1707,5.1403,5.0858,5.0305,5.0156,4.9968,4.994,4.9709,4.9738,4.9551,4.9408,4.9157,4.8765,4.8741,4.8706,4.8891,4.8749,4.8971,4.8946,4.9353,4.9204,4.9153,4.8623,4.8475,4.8858,4.9731,4.9275,4.9031,4.837,4.847,4.8841,4.8932,4.9175,4.8878,4.9282,4.9039,4.8875,4.8793,4.907,4.9457,4.9177,4.8781,4.8662,4.861,4.9249,4.9623,4.9068,4.8619,4.8403,4.9008,4.9104,4.9064,4.8773,4.882,4.8841,4.9352,4.9327,4.893,4.8557,4.8755,4.8934,4.8813,4.9071,4.8977,4.9066,4.8806,4.8727,4.8953,4.873,4.8831,4.8968,4.9172,4.9237,4.9208,4.9119,4.9309,4.9648,4.9901,4.9857,4.9848,4.9766,4.9293,4.8941,4.8686,4.9284,4.9987,5.0595,5.1055,5.0595,5.0412,5.0318,5.0026,4.9742,4.9445,4.9706,4.9703,4.9578,4.9602,4.9318,4.8912,4.8877,4.9089,4.9157,4.9202,4.7686,4.579,4.522,4.6271,4.9551,5.361,5.8677,6.3235,6.6162,6.4513,5.9059,5.2879,5.1021,5.019,4.9733,4.9623,4.9453,4.9509,4.9441,4.9978,4.9892,5.0193,4.9725,4.984,4.9626,4.9457,4.9512,4.9715,4.9924,5.0335,5.0245,4.9886,5.0101,5.0583,5.0694,5.0512,5.0242,5.0096,5.0239,5.07,5.0385,5.0549,5.1007,5.099,5.1252,5.1082,5.158,5.1485,5.1372,5.1519,5.1354,5.1779,5.2505,5.2735,5.2896,5.3103,5.2893,5.2881,5.3217,5.3845,5.4294,5.4553,5.4881,5.5353,5.5757,5.5534,5.5129,5.5376,5.5961,5.5898,5.5709,5.5335,5.4709,5.4176,5.3584,5.3182,5.3085,5.2924,5.2449,5.2155,5.1542,5.1363,5.1053,5.0816,5.1078,5.099,5.0646,5.0458,5.0892,5.0665,5.0518,5.0344,5.0125,5.0335,5.0628,5.0641,5.067,5.0266,5.0088,5.0539,5.0976,5.0915,5.0481,5.0397,5.0684,5.0924,5.0824,5.0621,5.0818,5.1003,5.1035,5.074,5.046,5.0445,5.0434,5.0742,5.0974,5.073,5.0562,5.074,5.1076,5.122,5.1504,5.1419,5.0924,5.0766,5.0923,5.0685,5.0687,5.1015,5.1372,5.1037,5.099,5.0635,5.0396,5.0511,5.082,5.0742,5.0654,5.0836,5.1067,5.1121,5.0947,5.06,5.0754,5.06,5.0844,5.0989,5.0889,5.0774,5.0809,5.0635,5.0926,5.1011,5.0817,5.0856,5.0964,5.1017,5.1038,5.0845,5.084,5.1052,5.1127,5.1105,5.0872,5.0993,5.149,5.1701,5.1968,5.2052,5.1771,5.1535,5.1544,5.1655,5.1601,5.1176,5.0925,5.0833,5.0893,5.0983,5.103,5.142,5.1299,5.1085,5.0788,5.0677,5.031,4.9071,4.7555,4.7585,4.8871,5.3007,5.7439,6.3351,6.7158,6.9335,6.8354,6.3825,5.6965,5.3939,5.3482,5.2789,5.2707,5.2632,5.2517,5.2056,5.2081,5.1986,5.2324,5.2272,5.2146,5.1716,5.1593,5.1967,5.2279,5.2246,5.2226,5.1947,5.1986,5.232,5.2314,5.2303,5.269,5.2299,5.2259,5.2086,5.2659,5.2563,5.2928,5.3466,5.3199,5.2596,5.2401,5.2532,5.286,5.307,5.3513,5.3655,5.3867,5.4099,5.4032,5.4496,5.4689,5.5438,5.536,5.5359,5.5462,5.6011,5.6502,5.6851,5.7109,5.722,5.7035,5.7091,5.7403,5.7478,5.7267,5.6993,5.6784,5.6445,5.5989,5.5648,5.5138,5.5001,5.4528,5.3831,5.3374,5.3249,5.2946,5.2631,5.2379,5.2118,5.2353,5.1869,5.1772,5.176,5.1721,5.1671,5.1696,5.1952,5.198,5.1617,5.1672,5.1583,5.1495,5.1835,5.2313,5.2192,5.2261,5.2039,5.2008,5.1713,5.1409,5.1428,5.1664,5.189,5.2185,5.2018,5.1896,5.1851,5.1698,5.1953,5.2092,5.1983,5.2022,5.1847,5.1825,5.1954,5.1977,5.2104,5.1997,5.201,5.1606,5.1591,5.147,5.1585,5.1638,5.1721,5.2067,5.2129,5.1959,5.1849,5.1561,5.1631,5.1601,5.2066,5.2082,5.1702,5.1381,5.1578,5.1584,5.1933,5.1507,5.136,5.1439,5.1647,5.1705,5.1769,5.1698,5.1628,5.2003,5.1942,5.1736,5.1646,5.1434,5.1462,5.1778,5.2011,5.1836,5.1725,5.1562,5.171,5.1676,5.1428,5.167,5.1713,5.2051,5.2406,5.2522,5.2133,5.1889,5.2072,5.1993,5.2125,5.2504,5.2705,5.2736,5.248,5.2113,5.2211,5.2419,5.2006,5.1737,5.1572,5.1481,5.1555,5.1713,5.1652,5.1614,5.178,5.1786,5.1168,4.9423,4.7926,4.7913,4.9657,5.3711,5.8361,6.4058,6.7572,6.8817,6.5127,5.8726,5.4564,5.2984,5.292,5.2665,5.2202,5.2124,5.2149,5.2169,5.2361,5.2098,5.2198,5.2474,5.2603,5.2273,5.1889,5.1946,5.1925,5.1974,5.2216,5.225,5.2057,5.2068,5.2109,5.2379,5.2813,5.2863,5.2787,5.2785,5.279,5.2705,5.3332,5.3553,5.2963,5.2835,5.2815,5.3241,5.3576,5.3891,5.3874,5.3831,5.3897,5.3973,5.4135,5.4536,5.5207,5.5615,5.6143,5.6424,5.6187,5.6394,5.662,5.688,5.7049,5.7153,5.7594,5.7774,5.8121,5.8405,5.7925,5.72,5.6927,5.6839,5.6309,5.5882,5.5343,5.4725,5.4662,5.4315,5.3988,5.3457,5.303,5.2693,5.2493,5.242,5.2583,5.2875,5.2558,5.2476,5.2452,5.2128,5.2138,5.2067,5.2129,5.2465,5.2143,5.1913,5.1814,5.2168,5.2415,5.2406,5.2369,5.2417,5.2279,5.23,5.2439,5.2205,5.2433,5.246,5.2375,5.2339,5.2313,5.2463,5.2172,5.2312,5.2135,5.2209,5.2113,5.238,5.3012,5.2811,5.2473,5.2219,5.2456,5.2369,5.2232,5.2186,5.2043,5.2415,5.2663,5.2309,5.2143,5.2369,5.2429,5.2529,5.2286,5.1828,5.1916,5.2313,5.2306,5.202,5.1899,5.1935,5.2139,5.2341,5.2169,5.2083,5.2194,5.2155,5.2481,5.25,5.2377,5.223,5.2143,5.1942,5.1996,5.2141,5.2284,5.2293,5.2495,5.2004,5.2066,5.2152,5.2128,5.2124,5.2365,5.2437,5.2317,5.2815,5.3128,5.3568,5.3035,5.2863,5.2866,5.2991,5.3455,5.3319,5.3196,5.2741,5.2162,5.2011,5.2022,5.2062,5.2151,5.2237,5.2322,5.204,5.2095,5.2078,5.1941,5.0683,4.9102,4.8571,4.8865,5.1035,5.4997,5.9558,6.4396,6.7488,6.7952,6.3856,5.7453,5.4036,5.3275,5.286,5.2713,5.232,5.2359,5.2143,5.2123,5.2576,5.272,5.2704,5.2844,5.2869,5.2542,5.2858,5.2807,5.2648,5.2951,5.3258,5.2794,5.2767,5.3021,5.3273,5.2776,5.2717,5.3138,5.3098,5.2963,5.3121,5.3675,5.3628,5.3473,5.3215,5.3359,5.3804,5.4149,5.4188,5.454,5.4775,5.453,5.459,5.4877,5.5009,5.5381,5.5747,5.6021,5.6525,5.6731,5.6962,5.7307,5.7203,5.7373,5.7703,5.7771,5.7615,5.8131,5.8113,5.8015,5.7989,5.779,5.7546,5.7018,5.6487,5.5884,5.5368,5.4697,5.4356,5.4221,5.3897,5.3327,5.3325,5.3178,5.3088,5.3126,5.3009,5.2988,5.305,5.2733,5.2317,5.1909,5.2111,5.2186,5.2571,5.2321,5.2499,5.2267,5.2436,5.2295,5.2148,5.2345,5.2616,5.2563,5.2703,5.2882,5.2945,5.2904,5.2685,5.2581,5.2468,5.24,5.2165,5.2512,5.24,5.2597,5.2735,5.2833,5.2445,5.2389,5.2509,5.239,5.2262,5.2268,5.2481,5.2681,5.2955,5.2957,5.2484,5.24,5.2397,5.2555,5.2244,5.2382,5.2726,5.2424,5.2129,5.2383,5.2474,5.2376,5.2257,5.2041,5.207,5.2225,5.2291,5.2868,5.2451,5.2485,5.2516,5.2596,5.2293,5.2001,5.2535,5.2578,5.279,5.2191,5.2007,5.2329,5.2483,5.2508,5.2349,5.2249,5.2464,5.2574,5.2605,5.2412,5.2634,5.2923,5.3861,5.3851,5.3564,5.3079,5.288,5.312,5.304,5.2763,5.2473,5.2032,5.2243,5.2515,5.2524,5.2482,5.2486,5.2337,5.2525,5.2797,5.2422,5.1621,4.9766,4.8579,4.8643,5.0242,5.4105,5.8555,6.4691,6.834,6.9795,6.6466,6.0076,5.5346,5.4503,5.4657,5.4081,5.3166,5.2835,5.2851,5.2898,5.3271,5.3176,5.3446,5.3022,5.2882,5.2467,5.282,5.2917,5.3272,5.3129,5.3301,5.2886,5.3091,5.3058,5.3252,5.3365,5.3518,5.3103,5.3699,5.3817,5.3469,5.3368,5.3629,5.3971,5.409,5.3926,5.4261,5.4207,5.4318,5.4482,5.4549,5.4498,5.494,5.5465,5.5632,5.5643,5.5826,5.6047,5.6253,5.6541,5.6958,5.7361,5.784,5.8203,5.8136,5.8198,5.8313,5.8446,5.8658,5.8893,5.8587,5.8289,5.7633,5.7122,5.696,5.6383,5.6203,5.6113,5.5587,5.5048,5.4391,5.3624,5.3431,5.3569,5.356,5.3602,5.3545,5.3644,5.3432,5.3177,5.3061,5.2977,5.2518,5.2734,5.2605,5.2702,5.3156,5.3571,5.3493,5.2987,5.2726,5.2747,5.2713,5.2605,5.2874,5.3063,5.3173,5.3874,5.3472,5.2697,5.2804,5.31,5.3279,5.3301,5.3109,5.308,5.3205,5.3075,5.2767,5.2786,5.2892,5.3237,5.3399,5.3595,5.3409,5.3193,5.3318,5.2985,5.3132,5.3174,5.3231,5.3298,5.3024,5.3037,5.2962,5.286,5.2858,5.3163,5.304,5.306,5.3084,5.3224,5.2948,5.2685,5.2641,5.3074,5.3327,5.3377,5.3097,5.3005,5.2856,5.2923,5.2956,5.2946,5.3091,5.2998,5.3332,5.3324,5.3081,5.3001,5.3475,5.3413,5.2944,5.2852,5.2661,5.3186,5.3235,5.3438,5.3236,5.3201,5.3409,5.3728,5.3967,5.3776,5.4,5.3817,5.3983,5.4032,5.3829,5.3437,5.3185,5.3228,5.3346,5.3127,5.3241,5.3081,5.3107,5.2857,5.3075,5.3066,5.2747,5.1899,5.0045,4.9337,4.9231,5.0218,5.363,5.8124,6.3965,6.8212,7.0902,6.8997,6.3569,5.7043,5.5335,5.5152,5.4039,5.3572,5.3493,5.3766,5.3344,5.376,5.3418,5.3653,5.3414,5.3533,5.359,5.3903,5.3588,5.3722,5.3477,5.3561,5.3831,5.3978,5.3745,5.37,5.3682,5.3553,5.3592,5.3723,5.3821,5.413,5.408,5.4373,5.4494,5.448,5.4238,5.4463,5.4754,5.4789,5.5086,5.5143,5.5202,5.5378,5.5445,5.5849,5.6098,5.6303,5.6616,5.6772,5.7091,5.7359,5.7555,5.7903,5.8666,5.9183,5.8844,5.8611,5.8691,5.8586,5.8859,5.8812,5.8893,5.8726,5.8344,5.7656,5.7015,5.6637,5.6194,5.5587,5.5296,5.4894,5.4378,5.4146,5.3924,5.3844,5.3809,5.3813,5.3578,5.3368,5.361,5.3488,5.3471,5.348,5.3737,5.3733,5.3315,5.3185,5.3212,5.3197,5.3738,5.3675,5.3393,5.3399,5.3782,5.3512,5.3549,5.3303,5.327,5.3461,5.3246,5.3377,5.3455,5.3684,5.3477,5.3582,5.3709,5.3588,5.3111,5.3157,5.3326,5.3504,5.3759,5.3723,5.3953,5.3424,5.3213,5.3326,5.33,5.3506,5.3297,5.3448,5.3738,5.3617,5.3831,5.3564,5.3235,5.331,5.3429,5.3558,5.346,5.33,5.3185,5.326,5.3195,5.3519,5.3574,5.3731,5.3633,5.3711,5.3866,5.3345,5.3279,5.3094,5.3201,5.3419,5.3262,5.336,5.3552,5.3703,5.3616,5.3393,5.3384,5.3392,5.3501,5.3577,5.3427,5.3674,5.3646,5.3578,5.3505,5.3273,5.3445,5.3583,5.3702,5.3864,5.4065,5.408,5.4356,5.451,5.3806,5.3882,5.3835,5.3621,5.3517,5.3078,5.2913,5.3091,5.3502,5.3329,5.3245,5.3193,5.3189,5.2786,5.1893,4.9991,4.94,4.9804,5.2187,5.6292,6.0862,6.6273,6.7704,7.0238,6.7928,6.1959,5.5885,5.446,5.4778,5.4567,5.4038,5.3683,5.3553,5.2864,5.3288,5.3224,5.3878,5.3666,5.3971,5.354,5.3798,5.3486,5.3626,5.3574,5.3748,5.3642,5.3771,5.3609,5.4039,5.4088,5.4432,5.4092,5.4242,5.4093,5.4323,5.4292,5.4241,5.4305,5.4606,5.4896,5.4983,5.4787,5.4904,5.5055,5.5344,5.5209,5.5357,5.5564,5.5968,5.668,5.7451,5.7044,5.6714,5.7029,5.7641,5.7981,5.8345,5.855,5.8866,5.8952,5.9049,5.9177,5.9255,5.9353,5.9253,5.8833,5.8207,5.8233,5.797,5.7846,5.7067,5.6363,5.5624,5.5113,5.4928,5.4837,5.4722,5.437,5.4132,5.3991,5.3773,5.3854,5.3549,5.3819,5.3608,5.3536,5.3532,5.3683,5.3782,5.3916,5.3539,5.3573,5.3512,5.3722,5.3797,5.3978,5.3602,5.3298,5.3482,5.3633,5.3667,5.382,5.3821,5.3752,5.3586,5.3415,5.3456,5.3849,5.3745,5.3748,5.3817,5.4119,5.3918,5.3991,5.3837,5.3827,5.3515,5.3582,5.3981,5.3639,5.3597,5.3643,5.3564,5.3671,5.3684,5.3811,5.3897,5.3675,5.3477,5.3491,5.3436,5.3732,5.363,5.3799,5.3869,5.3686,5.344,5.3438,5.3358,5.3275,5.3336,5.3752,5.3659,5.3759,5.3506,5.3441,5.368,5.3798,5.3555,5.3372,5.3615,5.3709,5.3799,5.3847,5.3875,5.375,5.3893,5.4149,5.4114,5.4518,5.4452,5.4341,5.4159,5.4243,5.433,5.444,5.4115,5.4094,5.3792,5.3522,5.3553,5.3529,5.4052,5.3536,5.3456,5.3415,5.3517,5.3504,5.3349,5.167,4.9904,4.9745,5.0285,5.2737,5.685,6.1343,6.626,6.952,6.9701,6.5546,5.8276,5.5317,5.4671,5.4414,5.4332,5.3972,5.4076,5.4085,5.4487,5.444,5.4394,5.4201,5.4146,5.3815,5.3606,5.3493,5.375,5.412,5.3995,5.3931,5.4516,5.4325,5.4342,5.4358,5.4367,5.4105,5.4613,5.4511,5.5034,5.5098,5.4898,5.4729,5.4381,5.4647,5.4956,5.5138,5.5377,5.5305,5.5258,5.5423,5.5488,5.6028,5.69,5.6753,5.7205,5.7212,5.7407,5.7863,5.8191,5.804,5.8611,5.8872,5.9057,5.8998,5.9091,5.9244,5.957,5.9578,5.9441,5.9512,5.8986,5.8578,5.8408,5.7707,5.7073,5.6383,5.5676,5.5512,5.5468,5.5084,5.447,5.4303,5.4056,5.425,5.407,5.3761,5.3477,5.3771,5.3993,5.4319,5.4037,5.3538,5.3515,5.3476,5.355,5.3443,5.3567,5.3619,5.3748,5.4273,5.4395,5.4024,5.3572,5.3356,5.3372,5.3783,5.3733,5.3737,5.3979,5.4588,5.4423,5.3794,5.3358,5.3422,5.3685,5.3797,5.3922,5.4173,5.4364,5.3912,5.3922,5.3945,5.3936,5.3573,5.3622,5.4017,5.4205,5.4375,5.4302,5.4063,5.3954,5.3745,5.3817,5.3699,5.3935,5.4214,5.3955,5.3433,5.3307,5.3232,5.3544,5.3776,5.4009,5.4494,5.4067,5.3751,5.3777,5.3863,5.3587,5.3674,5.3533,5.3626,5.381,5.3877,5.3637,5.3525,5.3662,5.4064,5.426,5.3974,5.3547,5.3441,5.3539,5.4233,5.4428,5.437,5.3827,5.3602,5.3541,5.377,5.4063,5.4087,5.3924,5.4369,5.4404,5.4442,5.4569,5.4547,5.467,5.4547,5.4796,5.4884,5.48,5.3999,5.3688,5.3469,5.3652,5.4053,5.3801,5.3799,5.4079,5.3845,5.3707,5.2806,5.0764,4.9809,5.0283,5.1806,5.5696,6.0419,6.6291,6.873,7.1719,7.0833,6.5707,5.9363,5.6398,5.6095,5.4955,5.4964,5.4714,5.5007,5.4297,5.4402,5.4006,5.4382,5.4082,5.4372,5.4204,5.4628,5.4477,5.4543,5.4101,5.4393,5.4268,5.4376,5.4224,5.4638,5.4764,5.5301,5.4801,5.433,5.4155,5.42,5.4669,5.4929,5.4997,5.5246,5.5505,5.5718,5.5411,5.5367,5.5373,5.5694,5.633,5.6424,5.6681,5.6896,5.6977,5.7129,5.7278,5.7493,5.7927,5.8298,5.8601,5.9148,5.9055,5.905,5.94,5.9548,5.9819,6.0403,6.0735,6.0192,6.0106,5.9744,5.9201,5.8347,5.8125,5.7551,5.6955,5.6437,5.6171,5.5444,5.5578,5.5157,5.5103,5.4892,5.4661,5.4381,5.4466,5.4543,5.4704,5.5138,5.4822,5.4552,5.4123,5.3667,5.3832,5.4207,5.4949,5.4828,5.4361,5.4243,5.4182,5.4057,5.4478,5.4488,5.4535,5.4296,5.4342,5.4147,5.4223,5.4331,5.4659,5.45,5.4153,5.425,5.4709,5.4867,5.4946,5.4557,5.4274,5.4607,5.4496,5.5012,5.5178,5.4683,5.4116,5.3801,5.401,5.4305,5.4526,5.4725,5.4691,5.4401,5.4102,5.4143,5.4364,5.461,5.4654,5.4452,5.4287,5.4171,5.4331,5.4338,5.4202,5.4052,5.4391,5.4557,5.4456,5.4367,5.446,5.4166,5.422,5.4466,5.4721,5.442,5.4293,5.4171,5.4131,5.394,5.3915,5.4071,5.4426,5.465,5.4716,5.4659,5.4516,5.4258,5.4011,5.3932,5.4022,5.415,5.4457,5.4603,5.5173,5.4845,5.4339,5.4686,5.4889,5.4995,5.4862,5.4832,5.4952,5.5117,5.4823,5.4609,5.4143,5.4414,5.4507,5.4534,5.4142,5.3981,5.3701,5.3936,5.4105,5.4581,5.3973,5.3358,5.1799,5.0522,5.0463,5.1829,5.5781,6.0329,6.5927,6.9849,7.163,6.8873,6.6098,5.9436,5.6653,5.6387,5.5423,5.5199,5.4596,5.5063,5.441,5.4789,5.4262,5.4433,5.4343,5.4844,5.4359,5.4675,5.4425,5.4755,5.4734,5.4736,5.4543,5.4695,5.47,5.4824,5.4588,5.4612,5.4556,5.5081,5.5076,5.5357,5.5362,5.5296,5.5341,5.5275,5.4877,5.523,5.5447,5.6191,5.6539,5.6517,5.63,5.6215,5.6321,5.6745,5.6886,5.7186,5.7436,5.8006,5.8405,5.8591,5.8782,5.885,5.8897,5.9564,5.992,6.0101,6.0414,6.0159,6.0042,5.978,5.9602,5.9378,5.9192,5.8708,5.8224,5.7521,5.7118,5.6373,5.6238,5.6229,5.5596,5.5597,5.525,5.4582,5.4496,5.4262,5.4475,5.4664,5.4685,5.4659,5.4343,5.3947,5.402,5.4042,5.4104,5.4053,5.4442,5.4439,5.4482,5.4373,5.4448,5.4402,5.465,5.46,5.4184,5.4327,5.4022,5.4104,5.4485,5.4466,5.4591,5.4392,5.4161,5.392,5.421,5.4383,5.4655,5.4399,5.4238,5.4073,5.4676,5.5328,5.5058,5.4028,5.3986,5.4207,5.4442,5.4341,5.4408,5.4214,5.4359,5.4265,5.418,5.4001,5.4321,5.4392,5.4675,5.4184,5.4207,5.4651,5.4824,5.4315,5.4058,5.3968,5.4077,5.4354,5.4104,5.3841,5.3878,5.3992,5.4118,5.4295,5.4123,5.4123,5.4307,5.4275,5.4416,5.4294,5.4212,5.4061,5.3793,5.383,5.3578,5.3877,5.4433,5.4698,5.4327,5.3979,5.3951,5.4061,5.4038,5.4221,5.4478,5.4231,5.4008,5.4042,5.4714,5.4505,5.4499,5.4608,5.4552,5.4829,5.4556,5.4641,5.4534,5.4898,5.5013,5.4949,5.4281,5.3944,5.3849,5.3716,5.3855,5.4125,5.3989,5.4116,5.3977,5.3685,5.3398,5.251,5.0874,5.0407,5.1056,5.4088,5.7984,6.2921,6.7634,7.0607,6.9354,6.7175,6.1158,5.6189,5.5415,5.487,5.4689,5.4248,5.4514,5.4619,5.479,5.4558,5.4392,5.4246,5.42,5.3931,5.413,5.4297,5.4374,5.4177,5.4481,5.4464,5.4387,5.4246,5.4571,5.4402,5.4637,5.4392,5.4216,5.4597,5.5011,5.4938,5.4886,5.4951,5.54,5.5396,5.5354,5.554,5.5602,5.5426,5.5843,5.6205,5.5987,5.6502,5.6554,5.6723,5.6894,5.6956,5.7524,5.7925,5.8325,5.8743,5.865,5.8363,5.8787,5.9124,6.0013,6.0595,6.0054,5.9792,5.9766,5.959,5.9473,5.9473,5.8696,5.8567,5.8287,5.7654,5.6896,5.6162,5.606,5.5663,5.5,5.4864,5.4787,5.5019,5.4724,5.4079,5.3788,5.3855,5.4044,5.4266,5.4344,5.4312,5.3945,5.3844,5.3963,5.4366,5.4593,5.4359,5.4193,5.4214,5.4013,5.4129,5.4284,5.4079,5.3815,5.3809,5.3764,5.3963,5.4182,5.462,5.4522,5.425,5.3944,5.366,5.4479,5.4778,5.4297,5.3919,5.3913,5.4204,5.4439,5.4132,5.4356,5.4626,5.4448,5.418,5.3804,5.3848,5.3868,5.4217,5.4764,5.4375,5.4073,5.4062,5.3707,5.3703,5.3671,5.3773,5.3917,5.4117,5.4354,5.4071,5.3838,5.3978,5.3813,5.4153,5.4017,5.3883,5.3797,5.3915,5.41,5.444,5.4244,5.3802,5.3575,5.3852,5.3786,5.3668,5.373,5.3787,5.4016,5.3781,5.3845,5.4006,5.4238,5.4298,5.4169,5.3887,5.3752,5.3639,5.3961,5.4066,5.4134,5.4054,5.3808,5.3824,5.3962,5.3688,5.371,5.3704,5.3841,5.4024,5.413,5.4289,5.4057,5.4076,5.4346,5.5014,5.4915,5.474,5.4629,5.4513,5.4629,5.4289,5.4448,5.4018,5.3822,5.3798,5.3866,5.3723,5.3765,5.3803,5.3846,5.3735,5.3754,5.3216,5.1794,5.0106,4.9566,5.0242,5.211,5.6809,6.166,6.7597,7.116,7.1641,6.7871,6.0978,5.7231,5.5806,5.547,5.4803,5.4561,5.4335,5.4474,5.4634,5.4222,5.4237,5.4296,5.4071,5.4244,5.4175,5.452,5.4681,5.4476,5.4536,5.422,5.3993,5.4254,5.4278,5.4866,5.4999,5.4979,5.4591,5.4306,5.4768,5.4998,5.5102,5.5062,5.5092,5.4605,5.4866,5.5033,5.5971,5.5785,5.5816,5.5874,5.5766,5.6278,5.6389,5.6989,5.718,5.7303,5.7448,5.7737,5.8074,5.8381,5.9055,5.9103,5.9126,5.9153,5.9015,5.9084,5.9823,6.0391,6.0135,6.0082,5.9743,5.9358,5.882,5.8424,5.7752,5.7364,5.7061,5.6482,5.5846,5.5513,5.5047,5.5229,5.5535,5.5523,5.4625,5.4255,5.4246,5.4332,5.4176,5.4265,5.4073,5.4279,5.4343,5.4099,5.4385,5.4375,5.4239,5.4242,5.4203,5.402,5.4113,5.4221,5.466,5.4402,5.3957,5.382,5.4421,5.4098,5.3781,5.4133,5.4002,5.4022,5.4193,5.4348,5.4543,5.4344,5.4277,5.4353,5.4367,5.4732,5.4728,5.4334,5.3862,5.3944,5.448,5.4555,5.4705,5.4393,5.4141,5.4274,5.4155,5.419,5.4241,5.4242,5.3551,5.3735,5.4121,5.4375,5.4123,5.4404,5.4555,5.4438,5.3888,5.4073,5.385,5.3858,5.3836,5.4077,5.4425,5.417,5.3765,5.3935,5.414,5.3983,5.4016,5.3914,5.4216,5.4367,5.4715,5.4346,5.4277,5.4061,5.3887,5.3802,5.389,5.3926,5.3879,5.3771,5.3887,5.4251,5.4271,5.4219,5.4356,5.4453,5.4305,5.4448,5.4778,5.4237,5.4315,5.4601,5.4833,5.475,5.4411,5.3998,5.4951,5.5172,5.5306,5.4836,5.5219,5.5028,5.488,5.4898,5.4607,5.4522,5.4615,5.431,5.4697,5.6227,5.8134,5.8339,5.807,5.6821,5.3252,5.0909,4.9438,4.9434,5.0928,5.4351,5.9317,6.5141,6.8979,7.0961,6.8732,6.3244,5.7649,5.5715,5.6124,5.5815,5.541,5.4744,5.5,5.4771,5.4917,5.4505,5.4524,5.465,5.4777,5.422,5.4396,5.4407,5.4628,5.4812,5.5101,5.4298,5.4458,5.4425,5.4395,5.4387,5.4179,5.3911,5.383,5.4063,5.4145,5.3888,5.3898,5.4329,5.4224,5.4353,5.4298,5.4963,5.4914,5.5017,5.4918,5.5183,5.5104,5.5009,5.4789,5.3861,5.3336,5.3289,5.3452,5.3895,5.3928,5.379,5.3182,5.3057,5.3491,5.4176,5.496,5.5277,5.5736,5.6149,5.6068,5.6728,5.6576,5.678,5.6089,5.5599,5.5005,5.4287,5.4234,5.4327,5.4071,5.3584,5.3087,5.2697,5.2404,5.2409,5.2451,5.1933,5.2323,5.245,5.2008,5.2121,5.2086,5.1757,5.1735,5.2052,5.1722,5.1727,5.1797,5.2251,5.2285,5.2032,5.1818,5.1572,5.2027,5.2252,5.1805,5.1628,5.1496,5.1757,5.1899,5.1832,5.2203,5.2,5.1647,5.1784,5.2338,5.2153,5.1868,5.2031,5.1882,5.2216,5.2219,5.2157,5.2196,5.2365,5.2727,5.242,5.2091,5.2316,5.2628,5.282,5.2949,5.3285,5.266,5.2454,5.2834,5.2977,5.3039,5.3164,5.3222,5.3755,5.3295,5.3291,5.3373,5.3241,5.3656,5.3431,5.3309,5.3386,5.3826,5.3855,5.3846,5.3764,5.3572,5.3705,5.3588,5.3481,5.4039,5.3453,5.3009,5.3506,5.35,5.3218,5.3095,5.3278,5.3433,5.3117,5.2835,5.2426,5.233,5.2127,5.2043,5.2236,5.2308,5.2461,5.2612,5.2246,5.204,5.2444,5.2422,5.1789,5.1158,5.082,5.08,5.0464,5.0225,4.9622,4.9743,4.8995,4.9098,4.8001,4.7616,4.7806,4.6706,4.5584,4.5381,4.5709,4.7144,5.0884,5.436,5.9338,6.3206,6.5556,6.2197,5.6654,5.2274,5.1788,5.1709,5.1701,5.1889,5.1777,5.1912,5.2212,5.2434,5.2515,5.3204,5.3314,5.3215,5.2449,5.2408,5.3193,5.3476,5.3216,5.295,5.3249,5.3439,5.3017,5.3142,5.2919,5.3122,5.3656,5.4227,5.3518,5.3784,5.3361,5.3468,5.3607,5.4187,5.4052,5.4288,5.4334,5.4485,5.4712,5.4687,5.5506,5.5827,5.576,5.5578,5.5911,5.617,5.6419,5.6591,5.7022,5.7211,5.7748,5.7988,5.83,5.8575,5.847,5.8506,5.8496,5.8621,5.9101,5.918,5.8543,5.8027,5.7416,5.7533,5.6971,5.6343,5.5628,5.5179,5.4781,5.4871,5.4565,5.4693,5.4672,5.4845,5.3878,5.3605,5.3534,5.3514,5.4006,5.4319,5.4141,5.3803,5.3268,5.3198,5.3486,5.3564,5.3797,5.3863,5.3788,5.3423,5.3687,5.3645,5.3611,5.3489,5.3574,5.4021,5.4201,5.3812,5.4034,5.4111,5.3948,5.3694,5.3569,5.3383,5.37,5.3995,5.4167,5.4351,5.4364,5.4341,5.385,5.3544,5.3689,5.3763,5.444,5.4088,5.4184,5.3633,5.3462,5.3633,5.3965,5.418,5.4336,5.4089,5.4267,5.4213,5.4554,5.4565,5.4258,5.4251,5.4404,5.4199,5.4258,5.4424,5.443,5.4167,5.4407,5.4413,5.4651,5.4263,5.3842,5.3942,5.4194,5.4222,5.4252,5.4315,5.4317,5.4789,5.4604,5.4799,5.4535,5.4458,5.4522,5.4587,5.4316,5.4539,5.458,5.3561,5.3539,5.3227,5.338,5.3492,5.3539,5.3759,5.3864,5.3682,5.3572,5.2934,5.0839,4.9808,5.0221,5.1173,5.4175,5.8729,6.3806,6.7646,7.0013,6.819,6.2887,5.7626,5.6426,5.5643,5.5006,5.5019,5.4669,5.4884,5.4287,5.4573,5.4201,5.4356,5.4248,5.4611,5.4662,5.5452,5.544,5.523,5.4526,5.4609,5.4238,5.4666,5.4752,5.5254,5.5234,5.5016,5.4567,5.4724,5.4738,5.5134,5.536,5.536,5.5386,5.5525,5.5699,5.6163,5.5854,5.5958,5.5891,5.6301,5.6919,5.6761,5.6752,5.6529,5.7014,5.7734,5.7985,5.7718,5.7449,5.791,5.8674,5.894,5.93,5.9606,5.9607,6.0084,6.0267,5.9982,5.9835,5.9503,5.9839,5.9943,5.9327,5.8417,5.7607,5.7249,5.6936,5.6341,5.6306,5.5997,5.5788,5.5828,5.56,5.5332,5.5287,5.5122,5.521,5.4927,5.485,5.4675,5.4994,5.4989,5.5429,5.5368,5.5047,5.4796,5.4869,5.4869,5.4927,5.5138,5.5212,5.5139,5.5164,5.4974,5.5041,5.5133,5.5474,5.5354,5.5276,5.5033,5.4652,5.4655,5.4917,5.5071,5.5223,5.5352,5.5967,5.5738,5.5208,5.4859,5.504,5.5161,5.5321,5.523,5.5188,5.5374,5.5454,5.5208,5.4751,5.4777,5.4455,5.4593,5.5088,5.562,5.5494,5.4794,5.5115,5.5043,5.4816,5.4278,5.4341,5.4518,5.4288,5.4227,5.4132,5.386,5.3651,5.3613,5.3869,5.4444,5.3987,5.394,5.4128,5.4093,5.4245,5.4634,5.4866,5.4856,5.5014,5.5361,5.6006,5.5251,5.5085,5.5168,5.4826,5.4853,5.5247,5.5449,5.5269,5.4531,5.4396,5.439,5.447,5.4721,5.4377,5.2762,5.1346,5.1713,5.3447,5.7505,6.2086,6.7933,7.1542,7.3011,7.0927,6.5574,5.9028,5.6926,5.6714,5.6368,5.6702,5.6634,5.6508,5.5704,5.5474,5.5453,5.5549,5.5556,5.575,5.6001,5.5647,5.5446,5.5578,5.5791,5.6085,5.6084,5.6417,5.6225,5.6386,5.7147,5.6456,5.6058,5.6082,5.608,5.6568,5.6753,5.6766,5.7137,5.7153,5.726,5.7491,5.742,5.7406,5.7445,5.7645,5.7918,5.7919,5.8073,5.8794,5.9238,5.9508,5.9498,5.9745,6.0225,6.0728,6.0962,6.1241,6.1301,6.1185,6.1344,6.1473,6.1574,6.1617,6.1973,6.1941,6.1708,6.1526,6.0768,6.0331,5.9664,5.9101,5.8675,5.8154,5.7817,5.7803,5.7926,5.7259,5.6869,5.6466,5.6516,5.6455,5.6322,5.6418,5.6175,5.6317,5.6637,5.6154,5.6321,5.6145,5.6242,5.6188,5.6405,5.6271,5.624,5.6102,5.6242,5.6367,5.6401,5.6419,5.6136,5.6503,5.6551,5.6456,5.6242,5.6833,5.6886,5.6295,5.6196,5.629,5.6232,5.6548,5.6475,5.6414,5.6151,5.6052,5.6327,5.6279,5.6328,5.6394,5.6689,5.6639,5.6628,5.6608,5.6341,5.6276,5.6426,5.6648,5.6896,5.6855,5.6273,5.6193,5.6007,5.5976,5.6051,5.6354,5.6878,5.6894,5.6751,5.6066,5.6107,5.6216,5.6274,5.6475,5.6579,5.6694,5.6904,5.6738,5.6945,5.7327,5.7125,5.696,5.6867,5.6868,5.7013,5.724,5.6926,5.6884,5.666,5.6449,5.6367,5.6014,5.5793,5.5815,5.6002,5.6452,5.6409,5.657,5.5719,5.3518,5.216,5.2402,5.4297,5.8849,6.3953,6.8498,7.1063,7.2583,6.9437,6.2892,5.8611,5.783,5.7489,5.735,5.6971,5.6503,5.6673,5.6743,5.68,5.7043,5.7382,5.7325,5.7026,5.7029,5.7204,5.7294,5.7325,5.7493,5.7124,5.7035,5.7167,5.6989,5.7045,5.6976,5.732,5.768,5.769,5.793,5.7548,5.7377,5.747,5.7821,5.8419,5.8168,5.8157,5.8211,5.8364,5.8458,5.9203,5.9437,5.955,5.9474,5.9098,5.907,5.9744,6.0392,6.072,6.0121,6.0523,6.0672,6.1121,6.1623,6.1995,6.1917,6.2459,6.2216,6.2017,6.1794,6.1736,6.1593,6.1559,6.0719,5.9962,5.9877,5.9577,5.9745,5.8742,5.8171,5.7508,5.7181,5.7222,5.7376,5.7058,5.7066,5.7006,5.6899,5.6779,5.6862,5.6816,5.7003,5.6985,5.6479,5.6415,5.6698,5.6634,5.6578,5.7166,5.6903,5.6736,5.6856,5.6874,5.6535,5.6506,5.6889,5.6749,5.7037,5.7208,5.7167,5.6658,5.6316,5.6326,5.6705,5.702,5.7534,5.7375,5.712,5.6932,5.651,5.6628,5.647,5.6656,5.6763,5.6748,5.6464,5.6485,5.6852,5.6915,5.6615,5.6498,5.6558,5.666,5.6553,5.63,5.6377,5.6553,5.6891,5.671,5.6411,5.6664,5.6681,5.6511,5.6388,5.6487,5.651,5.658,5.701,5.7424,5.7696,5.7463,5.6776,5.665,5.6791,5.6879,5.7082,5.6873,5.6389,5.585,5.6457,5.629,5.6251,5.6229,5.6104,5.6079,5.6135,5.5437,5.3682,5.2245,5.2334,5.4184,5.7716,6.2266,6.7852,6.9894,7.1993,7.0866,6.6623,6.0563,5.8142,5.7815,5.7191,5.6992,5.7065,5.746,5.6993,5.7179,5.6576,5.7227,5.7004,5.7032,5.6684,5.689,5.6716,5.727,5.7316,5.7715,5.742,5.756,5.7318,5.7292,5.7368,5.762,5.7401,5.7972,5.8072,5.834,5.7891,5.8127,5.8241,5.88,5.9251,5.8838,5.8418,5.8783,5.9131,5.9542,5.9825,5.9445,5.9524,6.029,6.0537,6.0433,6.0509,6.0764,6.1487,6.2164,6.2849,6.3151,6.3053,6.2651,6.2742,6.3044,6.3192,6.3257,6.3363,6.3481,6.3485,6.287,6.2264,6.174,6.1358,6.0957,5.9957,5.9208,5.8889,5.8764,5.8535,5.8692,5.896,5.8516,5.8326,5.8108,5.8172,5.7872,5.7785,5.7886,5.7767,5.7714,5.7456,5.7544,5.7642,5.7487,5.7783,5.7852,5.7934,5.8048,5.8046,5.8014,5.773,5.7722,5.7946,5.797,5.8022,5.7804,5.7686,5.7787,5.8186,5.8202,5.8386,5.8172,5.8071,5.8689,5.8785,5.8206,5.7941,5.7977,5.8157,5.7825,5.799,5.8253,5.826,5.7977,5.7892,5.7749,5.8162,5.8397,5.863,5.8584,5.8756,5.8397,5.8198,5.8303,5.8569,5.8782,5.869,5.8677,5.8893,5.8741,5.8343,5.8289,5.8146,5.8054,5.8297,5.8289,5.8219,5.7935,5.8133,5.8124,5.8142,5.7841,5.7592,5.7317,5.5997,5.4631,5.4473,5.5854,5.9558,6.3582,6.9284,7.3032,7.4114,7.0629,6.7806,6.1475,5.9102,5.9267,5.8576,5.8497,5.8059,5.8905,5.8943,5.9059,5.8213,5.7928,5.7585,5.8123,5.7846,5.8293,5.7936,5.8341,5.8231,5.8526,5.8332,5.8566,5.8231,5.8502,5.8374,5.8731,5.8696,5.871,5.8622,5.8842,5.8984,5.9463,5.9157,5.9245,5.9261,5.9494,5.9451,5.9714,5.9965,6.0248,6.0033,6.0393,6.0633,6.1021,6.0901,6.1631,6.1661,6.2167,6.222,6.2223,6.2715,6.3407,6.3727,6.3846,6.3469,6.3346,6.3434,6.3645,6.3635,6.3005,6.2798,6.2511,6.2219,6.1583,6.0844,6.0579,6.024,5.9586,5.9208,5.8793,5.9024,5.8855,5.8697,5.8555,5.8517,5.8223,5.8192,5.8569,5.9084,5.8995,5.8914,5.8414,5.7926,5.8091,5.8609,5.8668,5.8899,5.902,5.9274,5.8698,5.8627,5.8704,5.8745,5.8743,5.8884,5.9066,5.8923,5.8725,5.8663,5.8508,5.8488,5.8227,5.8228,5.8228,5.8286,5.8546,5.8638,5.8657,5.8702,5.842,5.8114,5.7576,5.7522,5.7176,5.7202,5.7129,5.7063,5.6846,5.6881,5.716,5.7289,5.7407,5.7193,5.6894,5.6818,5.714,5.7425,5.7733,5.8049,5.8037,5.7806,5.748,5.7412,5.7159,5.744,5.7071,5.6833,5.6571,5.6547,5.6608,5.6559,5.6425,5.671,5.6797,5.6537,5.5011,5.3549,5.3361,5.476,5.8277,6.2589,6.7624,7.1138,7.2893,6.9887,6.4744,5.9373,5.8097,5.7875,5.7488,5.7408,5.728,5.7919,5.8068,5.8313,5.7766,5.8,5.7607,5.7478,5.7459,5.7883,5.7755,5.7845,5.8001,5.8071,5.7931,5.7856,5.764,5.7765,5.7906,5.809,5.8103,5.8275,5.8331,5.8427,5.8423,5.8357,5.8381,5.8412,5.8777,5.9071,5.9596,5.9393,5.9331,5.9538,5.97,6.0004,6.0087,6.04,6.056,6.0787,6.1227,6.1326,6.1361,6.1515,6.2261,6.2531,6.2598,6.2767,6.286,6.2876,6.316,6.3196,6.3175,6.2683,6.2543,6.2158,6.1478,6.0266,5.9841,5.9806,5.9669,5.9233,5.8771,5.8401,5.8256,5.808,5.7789,5.7591,5.778,5.7904,5.7912,5.7703,5.7282,5.7389,5.71,5.7175,5.7072,5.7655,5.7891,5.8232,5.8378,5.7633,5.7196,5.6971,5.674,5.6997,5.7603,5.7853,5.785,5.7277,5.7204,5.7552,5.7659,5.7678,5.7644,5.7724,5.7895,5.7512,5.7328,5.7405,5.7593,5.7633,5.7911,5.8284,5.8123,5.7432,5.7063,5.761,5.783,5.823,5.7995,5.7733,5.7848,5.7423,5.7341,5.7368,5.8067,5.8532,5.8537,5.8135,5.8978,5.978,5.9602,5.9062,5.8409,5.801,5.8267,5.8074,5.7694,5.7616,5.7764,5.7986,5.7898,5.7466,5.728,5.7206,5.6618,5.4899,5.4296,5.4352,5.6347,6.0226,6.3876,6.8137,7.0772,7.1864,6.8467,6.27,5.8719,5.8309,5.789,5.7767,5.7305,5.7088,5.7398,5.7969,5.8582,5.9117,5.9073,5.8027,5.7438,5.7617,5.8414,5.8458,5.8312,5.8399,5.8447
