9.8221,9.8296,9.8246,9.8414,9.8504,9.8209,9.8014,9.8065,9.8335,9.8398,9.8221,9.7998,9.7868,9.802,9.8477,9.8498,9.8231,9.804,9.819,9.8241,9.8202,9.8211,9.8395,9.8194,9.8149,9.8276,9.7907,9.7622,9.7793,9.8327,9.845,9.8253,9.7932,9.8169,9.8145,9.816,9.8185,9.8182,9.8175,9.781,9.7726,9.8249,9.8529,9.8852,9.8718,9.8614,9.859,9.8455,9.8474,9.8873,9.9077,9.9004,9.8967,9.9045,9.8901,9.8923,9.8739,9.8025,9.789,9.8012,9.8209,9.8148,9.792,9.808,9.8126,9.8015,9.7817,9.7826,9.805,9.8018,9.7699,9.7735,9.7638,9.803,9.9373,10.186,10.562,10.884,11.057,11.105,11.018,10.562,10.025,9.7827,9.805,9.8776,9.9079,9.9452,9.9166,9.9075,9.8929,9.9029,9.8924,9.8982,9.8882,9.8631,9.8557,9.8764,9.9069,9.9066,9.8847,9.8844,9.9042,9.923,9.9433,9.9563,9.9328,9.9299,9.9264,9.9257,9.9388,9.9607,9.9745,9.9771,9.9657,9.9769,10.017,9.9803,9.9882,10.002,10.034,10.046,10.05,10.035,10.062,10.089,10.115,10.127,10.118,10.125,10.16,10.188,10.197,10.208,10.199,10.24,10.274,10.304,10.308,10.288,10.311,10.3,10.283,10.216,10.165,10.131,10.115,10.095,10.037,9.9861,9.9506,9.9753,9.9826,9.94,9.9135,9.9112,9.9141,9.9161,9.8867,9.8591,9.8546,9.8632,9.888,9.8905,9.8796,9.8692,9.8786,9.8935,9.8882,9.8827,9.8561,9.8525,9.8813,9.8735,9.8808,9.8845,9.8915,9.8649,9.8744,9.8761,9.8892,9.8963,9.8844,9.8913,9.8989,9.9013,9.8911,9.8994,9.8866,9.8604,9.8538,9.8795,9.8731,9.8834,9.8821,9.8702,9.8956,9.8762,9.8717,9.8628,9.8668,9.8663,9.8529,9.8796,9.8681,9.8513,9.8475,9.8506,9.8368,9.8412,9.8655,9.8629,9.835,9.8295,9.8469,9.8905,9.8982,9.8651,9.8338,9.8379,9.8388,9.8452,9.8551,9.8509,9.8628,9.8615,9.8537,9.8396,9.8286,9.8537,9.8951,9.8871,9.8681,9.8832,9.8994,9.9055,9.9083,9.9072,9.9149,9.9397,9.9646,9.9734,9.9688,9.9504,9.9259,9.9217,9.8629,9.8542,9.8723,9.8834,9.8721,9.8733,9.8655,9.8754,9.8712,9.8787,9.8529,9.8522,9.8644,9.8703,9.8337,9.8289,9.8837,10.005,10.248,10.616,10.96,11.09,11.123,11.042,10.557,10.039,9.8124,9.847,9.9133,9.9687,9.9858,9.9692,9.959,9.9416,9.9597,9.946,9.9447,9.9553,9.9693,9.9636,9.9469,9.9245,9.9363,9.9506,9.9908,9.9921,9.9806,9.9928,10.009,10.009,10.001,10.007,10.009,10.006,10.015,9.988,10.038,10.042,10.058,10.045,10.071,10.055,10.089,10.104,10.107,10.098,10.092,10.12,10.157,10.165,10.181,10.185,10.186,10.2,10.223,10.282,10.277,10.276,10.3,10.315,10.343,10.334,10.302,10.312,10.317,10.296,10.255,10.222,10.194,10.144,10.128,10.088,10.035,9.99,9.969,9.9834,9.972,9.92,9.8951,9.9299,9.9319,9.9249,9.9249,9.946,9.9437,9.9228,9.9199,9.9295,9.9053,9.9084,9.8952,9.878,9.9081,9.936,9.9208,9.9283,9.9217,9.887,9.912,9.9234,9.9531,9.9388,9.9451,9.9334,9.9237,9.9226,9.9274,9.9275,9.8976,9.8968,9.921,9.9511,9.9179,9.9022,9.9101,9.9642,9.9243,9.9089,9.9203,9.9316,9.9382,9.9286,9.9021,9.8924,9.9274,9.9668,9.9552,9.9415,9.8938,9.8708,9.9017,9.8863,9.8608,9.8569,9.8875,9.9171,9.9267,9.9257,9.9228,9.9101,9.9107,9.8954,9.9154,9.9499,9.9457,9.9162,9.9038,9.8937,9.8993,9.9265,9.9186,9.9005,9.9056,9.933,9.9404,9.9494,9.9404,9.9598,9.9594,9.9166,9.9379,9.9687,9.9896,10.011,10.018,10.018,10.012,10.02,10.004,9.9677,9.9489,9.9182,9.8981,9.91,9.908,9.8842,9.8811,9.8986,9.8934,9.8729,9.8819,9.8848,9.8932,9.9103,9.9084,9.8852,9.9478,10.115,10.378,10.779,11.048,11.148,11.173,10.982,10.449,9.9909,9.8943,9.9421,10.005,10.048,10.013,9.9648,9.9442,9.9516,9.9838,10.008,9.9835,9.9643,9.9612,9.9635,9.9903,10.003,9.9959,10.006,9.9991,10.007,10.014,9.9929,10.001,10.022,10.019,9.9953,10.006,10.035,10.061,10.074,10.07,10.066,10.067,10.07,10.088,10.108,10.123,10.123,10.12,10.127,10.166,10.195,10.209,10.211,10.225,10.22,10.226,10.256,10.279,10.296,10.301,10.329,10.355,10.374,10.418,10.43,10.415,10.389,10.36,10.337,10.293,10.239,10.205,10.199,10.186,10.137,10.1,10.062,10.042,10.028,9.9996,9.9884,9.9885,9.9712,9.9654,9.958,9.9719,9.9696,9.9768,9.974,9.9835,9.9789,9.9898,9.9855,9.9555,9.9568,9.9781,9.9869,9.9736,9.9335,9.9333,9.959,9.9699,9.9655,9.9729,9.9594,9.9633,9.9852,9.9846,9.9853,9.9791,9.9819,9.9665,9.9765,9.9599,9.9501,9.9654,9.9689,9.9746,9.9644,9.947,9.9278,9.9465,9.974,9.9702,9.9508,9.9886,10.022,9.9779,9.9304,9.9303,9.9449,9.9408,9.956,9.9464,9.9521,9.9496,9.9416,9.9527,9.9623,9.9758,9.9419,9.9192,9.9057,9.9089,9.9469,9.9189,9.913,9.9384,9.9501,9.9625,9.9573,9.9502,9.9451,9.9498,9.9711,9.9849,9.9902,9.9945,9.9922,10.012,10.015,10.046,10.046,10.01,9.9869,9.9829,9.9607,9.9471,9.9153,9.8639,9.8857,9.9153,9.9277,9.9282,9.9241,9.9146,9.9158,9.8815,9.9191,9.9344,9.9027,9.855,9.8897,10.047,10.343,10.763,10.945,11.119,11.156,11.089,10.778,10.209,9.8808,9.8771,9.9472,9.9902,9.986,9.9585,9.9762,9.9919,10.027,10.011,10.02,9.9879,10.018,10.011,10.035,10.006,9.9545,9.9394,9.9938,10,10.021,10.018,10.023,10.05,10.066,10.054,10.042,10.036,10.056,10.058,10.095,10.077,10.078,10.078,10.083,10.113,10.13,10.126,10.139,10.157,10.167,10.179,10.209,10.216,10.224,10.214,10.206,10.254,10.277,10.304,10.326,10.315,10.335,10.357,10.386,10.393,10.388,10.375,10.359,10.37,10.324,10.256,10.187,10.17,10.185,10.169,10.112,10.08,10.007,9.9986,10.011,10.03,9.9993,9.9958,9.9883,10.009,10.022,10.009,9.9959,10.009,10.004,10.026,9.994,9.9902,9.9901,9.97,9.9974,10.011,9.9937,10.012,10.006,10.01,9.9949,9.9304,9.9789,9.9953,10.033,10.027,10.003,10.037,10.02,10.021,10.004,10.02,10.004,10.046,10.047,10.026,10.017,9.9815,9.9908,9.9905,9.9853,9.9949,9.9854,10.028,10.031,9.9902,9.9588,9.9766,10.032,10.036,10.016,9.9866,9.9985,10.02,10.001,10.02,10.001,10.005,9.9919,9.9925,9.9877,10.02,10.026,10.041,10.028,10.031,10.047,10.04,10.068,10.082,10.095,10.045,10.034,10.037,10.052,10.05,10.031,9.9861,9.9905,9.9839,9.9777,9.9639,9.9656,9.9643,9.958,9.9491,9.9627,9.9706,9.9779,9.9597,9.9688,9.9596,9.9754,10.152,10.456,10.819,11.083,11.165,11.156,11.018,10.412,9.9299,9.8777,9.9443,10.036,10.067,10.022,10.033,10.058,10.038,10.024,10.012,10.042,10.027,10.021,10.037,10.068,10.055,10.054,10.087,10.096,10.099,10.073,10.096,10.11,10.056,10.064,10.09,10.088,10.097,10.124,10.145,10.165,10.162,10.156,10.125,10.137,10.154,10.173,10.169,10.179,10.194,10.23,10.236,10.247,10.252,10.276,10.298,10.306,10.317,10.339,10.36,10.338,10.353,10.373,10.387,10.411,10.399,10.39,10.4,10.4,10.34,10.298,10.257,10.209,10.181,10.175,10.142,10.117,10.075,10.043,10.033,10.045,10.059,10.027,10.007,9.9907,9.9987,10.024,10.005,9.9679,9.9742,9.9799,10.027,10.008,10.016,9.9953,9.9977,10.003,9.985,9.9994,9.9801,9.9942,10.002,9.9898,9.9967,9.9911,9.9826,10.008,9.9858,10.001,10.028,10.027,9.9863,9.9751,9.9972,10.02,10.004,9.9991,10.005,10.018,10.013,9.9931,9.9887,9.9939,9.9926,9.9964,10.001,9.9708,9.9866,9.9835,10,9.9977,9.9709,9.9593,9.9585,9.9603,9.9754,9.9916,10.013,9.9819,9.9609,9.9682,9.997,10.005,10.001,9.9957,9.9942,10.014,10.016,10.014,10.012,10.036,10.043,10.064,10.055,10.038,10.018,9.982,9.9473,9.9272,9.9443,9.9411,9.9377,9.9429,9.9517,9.9535,9.9634,9.9875,9.9932,9.9659,9.9499,9.956,9.9442,9.8994,9.9126,10.003,10.156,10.457,10.867,11.086,11.152,11.143,10.96,10.384,9.9575,9.891,9.9389,10.025,10.064,10.067,10.061,10.05,10.04,10.053,10.025,10.033,10.032,10.039,10.044,10.053,10.032,10.043,10.024,10.025,10.033,10.032,10.018,10.053,10.107,10.118,10.122,10.084,10.089,10.104,10.121,10.117,10.104,10.107,10.117,10.156,10.168,10.161,10.151,10.183,10.216,10.222,10.228,10.244,10.254,10.277,10.284,10.302,10.32,10.354,10.37,10.366,10.369,10.402,10.42,10.453,10.492,10.46,10.412,10.366,10.335,10.293,10.26,10.233,10.211,10.197,10.146,10.106,10.091,10.059,10.042,10.052,10.059,10.052,10.033,10.025,10.014,9.9909,10.023,10.037,10.059,10.053,10.041,10.008,10.018,10.028,10.012,10.002,9.9716,9.9634,10.004,10.028,10.037,10.055,10.053,10.042,10.028,10.027,10.032,10.037,10.047,10.048,10.038,10.026,10.015,10.029,10.045,10.033,10.042,10.044,10.037,10.006,10.02,10.039,10.025,10.014,10.032,10.053,10.045,10.055,10.046,10.03,10.011,10.04,10.051,10.035,10.017,9.9957,10.028,10.058,10.059,10.065,10.048,10.05,10.054,10.083,10.081,10.079,10.066,10.068,10.116,10.127,10.113,10.103,10.069,10.05,10.022,10.021,10.019,10.016,10.021,10.016,10.021,10.012,10.009,10.018,9.9971,9.9724,9.9815,9.9692,9.9986,9.9732,10.005,10.078,10.235,10.587,10.988,11.187,11.237,11.212,10.941,10.387,10.006,9.9785,10.026,10.077,10.077,10.099,10.101,10.088,10.085,10.103,10.102,10.101,10.091,10.1,10.102,10.101,10.132,10.116,10.096,10.098,10.115,10.117,10.103,10.095,10.114,10.125,10.132,10.143,10.142,10.149,10.173,10.17,10.166,10.169,10.174,10.198,10.243,10.236,10.221,10.245,10.27,10.29,10.292,10.311,10.335,10.353,10.335,10.36,10.372,10.393,10.432,10.463,10.479,10.473,10.473,10.472,10.49,10.482,10.466,10.433,10.395,10.391,10.366,10.315,10.27,10.225,10.163,10.114,10.121,10.101,10.086,10.1,10.101,10.103,10.107,10.081,10.064,10.078,10.069,10.057,10.061,10.073,10.075,10.08,10.079,10.062,10.06,10.06,10.025,10.045,10.09,10.098,10.071,10.057,10.068,10.076,10.093,10.083,10.09,10.116,10.092,10.076,10.085,10.087,10.058,10.049,10.065,10.049,10.045,10.071,10.094,10.096,10.053,10.027,10.075,10.093,10.067,10.031,10.013,10.033,10.055,10.067,10.085,10.098,10.109,10.095,10.082,10.082,10.053,10.086,10.072,10.084,10.097,10.108,10.14,10.147,10.157,10.155,10.148,10.101,10.061,10.014,9.9878,9.9918,10.013,10.024,10.047,10.078,10.022,9.9935,10.008,10.01,10.012,10.009,10.031,10.021,10.006,10.038,10.114,10.33,10.711,11.081,11.208,11.24,11.195,10.757,10.19,9.919,9.9928,10.033,10.088,10.129,10.163,10.165,10.158,10.12,10.074,10.06,10.077,10.089,10.092,10.096,10.105,10.147,10.156,10.142,10.138,10.116,10.113,10.127,10.143,10.142,10.126,10.137,10.164,10.162,10.169,10.183,10.175,10.171,10.153,10.191,10.204,10.262,10.24,10.243,10.265,10.293,10.279,10.246,10.28,10.343,10.363,10.383,10.379,10.374,10.407,10.427,10.468,10.452,10.455,10.469,10.46,10.448,10.433,10.432,10.403,10.371,10.332,10.294,10.219,10.193,10.186,10.197,10.169,10.161,10.128,10.109,10.089,10.075,10.092,10.097,10.089,10.072,10.084,10.109,10.099,10.079,10.062,10.072,10.085,10.1,10.09,10.067,10.062,10.046,10.072,10.091,10.087,10.079,10.088,10.117,10.104,10.102,10.087,10.084,10.099,10.102,10.109,10.085,10.088,10.075,10.103,10.122,10.139,10.127,10.114,10.112,10.1,10.094,10.107,10.102,10.103,10.105,10.12,10.106,10.11,10.13,10.132,10.126,10.123,10.111,10.134,10.142,10.149,10.136,10.184,10.224,10.22,10.169,10.145,10.161,10.135,10.111,10.085,10.08,10.057,10.055,10.067,10.082,10.09,10.089,10.068,10.047,10.048,10.078,10.068,10.075,10.076,10.049,10.075,10.163,10.439,10.826,11.179,11.262,11.261,11.25,11.045,10.438,9.9861,10.003,10.063,10.164,10.201,10.184,10.183,10.171,10.145,10.153,10.119,10.147,10.148,10.149,10.164,10.173,10.171,10.192,10.177,10.176,10.172,10.174,10.208,10.224,10.235,10.226,10.224,10.245,10.237,10.262,10.268,10.256,10.279,10.263,10.258,10.29,10.334,10.335,10.311,10.291,10.319,10.346,10.34,10.374,10.427,10.44,10.43,10.435,10.464,10.511,10.526,10.535,10.536,10.544,10.566,10.559,10.555,10.538,10.52,10.503,10.472,10.424,10.395,10.362,10.318,10.276,10.248,10.202,10.21,10.212,10.207,10.199,10.174,10.199,10.177,10.164,10.154,10.184,10.21,10.167,10.152,10.148,10.171,10.157,10.169,10.184,10.161,10.149,10.174,10.203,10.189,10.183,10.192,10.196,10.197,10.176,10.171,10.163,10.208,10.211,10.179,10.204,10.192,10.178,10.172,10.191,10.197,10.183,10.169,10.182,10.183,10.195,10.196,10.187,10.142,10.159,10.192,10.205,10.216,10.197,10.218,10.254,10.231,10.222,10.23,10.233,10.24,10.248,10.245,10.276,10.293,10.281,10.232,10.233,10.237,10.201,10.183,10.164,10.156,10.127,10.167,10.145,10.157,10.156,10.149,10.174,10.178,10.181,10.18,10.18,10.179,10.151,10.169,10.289,10.546,10.922,11.226,11.347,11.389,11.319,10.888,10.328,10.06,10.133,10.216,10.275,10.266,10.282,10.299,10.264,10.264,10.254,10.248,10.243,10.233,10.23,10.271,10.272,10.279,10.273,10.272,10.255,10.261,10.282,10.302,10.31,10.316,10.313,10.311,10.323,10.336,10.34,10.364,10.381,10.364,10.34,10.357,10.379,10.427,10.409,10.373,10.404,10.437,10.452,10.444,10.466,10.492,10.509,10.535,10.588,10.583,10.552,10.579,10.597,10.641,10.655,10.662,10.655,10.677,10.641,10.578,10.54,10.508,10.49,10.456,10.427,10.4,10.363,10.335,10.302,10.284,10.269,10.258,10.273,10.241,10.214,10.249,10.303,10.261,10.222,10.198,10.212,10.238,10.265,10.267,10.243,10.215,10.21,10.215,10.224,10.238,10.242,10.223,10.226,10.242,10.235,10.232,10.262,10.262,10.257,10.246,10.241,10.257,10.264,10.264,10.259,10.244,10.256,10.246,10.23,10.213,10.234,10.269,10.297,10.258,10.202,10.227,10.235,10.211,10.221,10.224,10.256,10.292,10.255,10.224,10.234,10.249,10.234,10.248,10.265,10.25,10.288,10.279,10.285,10.302,10.317,10.306,10.315,10.319,10.308,10.284,10.264,10.202,10.217,10.201,10.206,10.197,10.206,10.196,10.169,10.18,10.179,10.184,10.179,10.196,10.197,10.169,10.151,10.186,10.322,10.589,10.952,11.25,11.356,11.429,11.357,10.902,10.349,10.121,10.19,10.318,10.319,10.304,10.304,10.324,10.294,10.285,10.248,10.253,10.293,10.308,10.278,10.255,10.243,10.271,10.267,10.279,10.294,10.3,10.289,10.298,10.301,10.322,10.329,10.337,10.329,10.344,10.355,10.368,10.349,10.35,10.379,10.401,10.389,10.386,10.392,10.418,10.436,10.441,10.445,10.466,10.485,10.515,10.558,10.566,10.553,10.575,10.591,10.596,10.611,10.645,10.673,10.686,10.674,10.662,10.622,10.59,10.565,10.53,10.494,10.453,10.423,10.404,10.392,10.334,10.347,10.336,10.307,10.282,10.275,10.258,10.25,10.261,10.244,10.239,10.245,10.259,10.271,10.248,10.23,10.252,10.262,10.25,10.237,10.218,10.232,10.241,10.26,10.262,10.285,10.308,10.272,10.245,10.249,10.245,10.247,10.238,10.25,10.259,10.273,10.275,10.269,10.277,10.263,10.238,10.243,10.236,10.235,10.244,10.247,10.242,10.256,10.251,10.244,10.231,10.23,10.221,10.238,10.251,10.257,10.256,10.251,10.245,10.237,10.201,10.211,10.214,10.223,10.222,10.203,10.199,10.22,10.254,10.257,10.262,10.25,10.256,10.275,10.277,10.287,10.278,10.298,10.312,10.315,10.327,10.297,10.275,10.235,10.228,10.212,10.216,10.221,10.231,10.184,10.16,10.158,10.179,10.178,10.181,10.206,10.198,10.213,10.184,10.173,10.19,10.278,10.482,10.81,11.188,11.336,11.41,11.401,11.114,10.546,10.149,10.162,10.205,10.314,10.34,10.306,10.277,10.27,10.252,10.273,10.267,10.261,10.267,10.267,10.286,10.279,10.281,10.29,10.295,10.276,10.271,10.255,10.258,10.294,10.309,10.329,10.347,10.368,10.355,10.32,10.326,10.338,10.351,10.358,10.393,10.395,10.375,10.375,10.384,10.413,10.439,10.434,10.462,10.473,10.48,10.494,10.521,10.521,10.559,10.572,10.581,10.598,10.63,10.663,10.675,10.683,10.676,10.667,10.664,10.649,10.619,10.575,10.532,10.468,10.417,10.398,10.358,10.344,10.341,10.319,10.325,10.321,10.286,10.295,10.279,10.251,10.243,10.24,10.244,10.254,10.267,10.255,10.264,10.253,10.259,10.262,10.248,10.258,10.252,10.259,10.276,10.274,10.22,10.228,10.247,10.268,10.287,10.274,10.245,10.227,10.243,10.262,10.257,10.276,10.263,10.251,10.271,10.263,10.259,10.242,10.252,10.262,10.259,10.257,10.255,10.251,10.249,10.238,10.251,10.238,10.237,10.237,10.257,10.251,10.256,10.275,10.277,10.254,10.277,10.298,10.301,10.299,10.289,10.32,10.341,10.342,10.323,10.305,10.276,10.282,10.255,10.242,10.247,10.254,10.247,10.254,10.217,10.224,10.223,10.222,10.212,10.209,10.233,10.228,10.221,10.203,10.182,10.213,10.308,10.511,10.858,11.232,11.425,11.452,11.398,11.098,10.5,10.144,10.193,10.243,10.311,10.313,10.32,10.334,10.353,10.324,10.298,10.289,10.299,10.298,10.294,10.296,10.293,10.309,10.316,10.326,10.329,10.345,10.355,10.357,10.36,10.37,10.364,10.364,10.37,10.402,10.411,10.419,10.427,10.409,10.415,10.393,10.432,10.464,10.438,10.443,10.435,10.474,10.494,10.486,10.497,10.498,10.532,10.549,10.571,10.59,10.622,10.632,10.631,10.628,10.659,10.703,10.685,10.691,10.671,10.621,10.601,10.582,10.55,10.527,10.488,10.478,10.454,10.407,10.361,10.338,10.302,10.321,10.34,10.326,10.298,10.31,10.295,10.298,10.283,10.295,10.297,10.305,10.286,10.267,10.308,10.318,10.3,10.284,10.286,10.309,10.302,10.295,10.293,10.292,10.303,10.313,10.298,10.288,10.291,10.303,10.324,10.324,10.334,10.311,10.299,10.302,10.311,10.321,10.325,10.297,10.303,10.304,10.298,10.314,10.304,10.306,10.322,10.3,10.306,10.306,10.294,10.281,10.288,10.29,10.307,10.31,10.306,10.301,10.302,10.327,10.366,10.371,10.342,10.348,10.352,10.355,10.363,10.364,10.351,10.337,10.3,10.268,10.275,10.27,10.255,10.255,10.281,10.3,10.291,10.271,10.254,10.261,10.257,10.253,10.258,10.251,10.258,10.286,10.331,10.549,10.91,11.266,11.438,11.475,11.474,11.183,10.579,10.188,10.209,10.265,10.343,10.372,10.37,10.367,10.35,10.333,10.336,10.323,10.344,10.351,10.352,10.356,10.351,10.377,10.375,10.36,10.341,10.341,10.367,10.354,10.376,10.393,10.401,10.412,10.407,10.404,10.409,10.41,10.416,10.403,10.421,10.44,10.456,10.486,10.494,10.491,10.508,10.526,10.525,10.533,10.538,10.553,10.555,10.579,10.591,10.623,10.662,10.68,10.693,10.662,10.693,10.73,10.73,10.733,10.698,10.658,10.642,10.622,10.597,10.572,10.513,10.455,10.424,10.413,10.402,10.381,10.363,10.366,10.334,10.323,10.321,10.338,10.315,10.314,10.316,10.319,10.298,10.291,10.306,10.311,10.317,10.331,10.339,10.346,10.328,10.321,10.312,10.305,10.331,10.324,10.317,10.313,10.321,10.321,10.317,10.312,10.313,10.324,10.34,10.353,10.347,10.338,10.337,10.323,10.335,10.338,10.328,10.315,10.319,10.315,10.315,10.331,10.342,10.333,10.308,10.316,10.308,10.316,10.301,10.31,10.318,10.327,10.309,10.328,10.324,10.328,10.339,10.362,10.353,10.344,10.355,10.376,10.394,10.387,10.373,10.356,10.332,10.321,10.302,10.287,10.29,10.282,10.283,10.273,10.281,10.277,10.29,10.284,10.272,10.263,10.259,10.259,10.253,10.226,10.257,10.407,10.672,11.046,11.238,11.421,11.519,11.479,11.256,10.648,10.265,10.239,10.303,10.36,10.416,10.387,10.373,10.333,10.35,10.349,10.344,10.355,10.359,10.356,10.339,10.333,10.355,10.362,10.349,10.349,10.362,10.384,10.409,10.399,10.386,10.379,10.421,10.423,10.417,10.412,10.433,10.449,10.452,10.475,10.477,10.464,10.456,10.484,10.486,10.497,10.51,10.529,10.555,10.566,10.579,10.603,10.624,10.642,10.651,10.666,10.662,10.682,10.709,10.737,10.735,10.718,10.708,10.722,10.716,10.697,10.65,10.604,10.563,10.512,10.479,10.443,10.419,10.383,10.357,10.354,10.365,10.366,10.36,10.329,10.314,10.315,10.335,10.332,10.316,10.32,10.31,10.311,10.328,10.363,10.342,10.317,10.302,10.307,10.296,10.323,10.339,10.32,10.33,10.327,10.308,10.298,10.308,10.3,10.297,10.323,10.344,10.343,10.349,10.344,10.315,10.314,10.315,10.318,10.324,10.353,10.341,10.323,10.331,10.33,10.316,10.287,10.296,10.309,10.314,10.3,10.286,10.29,10.278,10.28,10.286,10.289,10.301,10.32,10.339,10.34,10.326,10.359,10.377,10.368,10.347,10.344,10.37,10.381,10.395,10.381,10.376,10.328,10.303,10.302,10.284,10.272,10.246,10.226,10.237,10.252,10.26,10.261,10.264,10.267,10.259,10.269,10.256,10.235,10.201,10.225,10.371,10.644,11.043,11.35,11.423,11.521,11.506,11.269,10.726,10.296,10.251,10.333,10.387,10.388,10.373,10.343,10.328,10.325,10.34,10.333,10.331,10.32,10.326,10.321,10.34,10.336,10.337,10.341,10.353,10.364,10.382,10.39,10.386,10.381,10.384,10.392,10.41,10.418,10.399,10.408,10.44,10.436,10.443,10.452,10.474,10.466,10.46,10.479,10.497,10.485,10.502,10.509,10.54,10.551,10.576,10.601,10.615,10.624,10.641,10.673,10.694,10.696,10.719,10.733,10.752,10.741,10.741,10.715,10.665,10.618,10.584,10.541,10.509,10.483,10.456,10.433,10.388,10.369,10.35,10.355,10.339,10.337,10.336,10.314,10.296,10.303,10.317,10.314,10.319,10.32,10.307,10.325,10.307,10.32,10.332,10.309,10.295,10.312,10.322,10.31,10.31,10.308,10.298,10.29,10.3,10.318,10.319,10.318,10.304,10.322,10.322,10.32,10.312,10.294,10.319,10.337,10.303,10.295,10.285,10.303,10.312,10.303,10.308,10.305,10.308,10.314,10.302,10.297,10.293,10.305,10.299,10.312,10.322,10.295,10.306,10.308,10.296,10.296,10.306,10.342,10.345,10.318,10.352,10.341,10.357,10.36,10.373,10.375,10.352,10.347,10.313,10.284,10.267,10.284,10.267,10.281,10.28,10.274,10.249,10.25,10.254,10.295,10.297,10.254,10.272,10.234,10.219,10.274,10.449,10.724,11.103,11.406,11.515,11.521,11.479,11.159,10.583,10.19,10.248,10.291,10.334,10.386,10.368,10.369,10.354,10.348,10.343,10.359,10.357,10.369,10.373,10.354,10.343,10.341,10.36,10.378,10.386,10.402,10.406,10.382,10.37,10.399,10.428,10.438,10.409,10.415,10.431,10.43,10.429,10.465,10.459,10.489,10.5,10.509,10.493,10.502,10.496,10.508,10.518,10.54,10.546,10.597,10.606,10.61,10.622,10.662,10.646,10.653,10.662,10.692,10.707,10.718,10.739,10.738,10.718,10.676,10.669,10.654,10.627,10.578,10.552,10.483,10.458,10.426,10.42,10.413,10.385,10.363,10.381,10.379,10.368,10.352,10.354,10.347,10.351,10.321,10.318,10.341,10.361,10.344,10.34,10.331,10.327,10.388,10.368,10.35,10.338,10.342,10.368,10.37,10.371,10.37,10.384,10.364,10.374,10.326,10.325,10.347,10.374,10.373,10.37,10.375,10.373,10.367,10.359,10.365,10.37,10.363,10.345,10.354,10.375,10.363,10.343,10.349,10.351,10.363,10.367,10.337,10.344,10.353,10.38,10.389,10.377,10.375,10.379,10.398,10.399,10.405,10.401,10.426,10.422,10.435,10.429,10.415,10.412,10.383,10.346,10.33,10.336,10.324,10.324,10.332,10.315,10.317,10.335,10.335,10.347,10.329,10.307,10.326,10.354,10.305,10.271,10.298,10.473,10.78,11.168,11.476,11.558,11.573,11.453,10.856,10.337,10.228,10.277,10.333,10.392,10.414,10.419,10.443,10.424,10.417,10.385,10.385,10.402,10.419,10.419,10.42,10.422,10.412,10.392,10.411,10.417,10.432,10.437,10.448,10.455,10.457,10.454,10.467,10.476,10.48,10.488,10.495,10.517,10.527,10.506,10.519,10.507,10.532,10.54,10.559,10.568,10.59,10.619,10.639,10.625,10.637,10.655,10.666,10.67,10.672,10.689,10.724,10.737,10.752,10.774,10.787,10.798,10.808,10.806,10.793,10.727,10.679,10.647,10.606,10.557,10.517,10.489,10.456,10.457,10.451,10.449,10.431,10.42,10.418,10.423,10.389,10.375,10.379,10.391,10.387,10.402,10.401,10.413,10.407,10.398,10.382,10.394,10.418,10.414,10.384,10.382,10.395,10.406,10.392,10.382,10.409,10.414,10.417,10.44,10.411,10.404,10.402,10.415,10.426,10.427,10.431,10.414,10.412,10.416,10.435,10.429,10.422,10.4,10.384,10.409,10.418,10.397,10.396,10.414,10.409,10.378,10.382,10.388,10.37,10.371,10.393,10.394,10.384,10.382,10.404,10.404,10.414,10.426,10.419,10.422,10.437,10.448,10.448,10.455,10.495,10.484,10.473,10.464,10.422,10.405,10.378,10.379,10.382,10.362,10.375,10.349,10.367,10.374,10.367,10.366,10.363,10.354,10.355,10.372,10.384,10.344,10.306,10.395,10.599,10.923,11.332,11.581,11.636,11.649,11.398,10.793,10.353,10.323,10.383,10.431,10.468,10.505,10.479,10.478,10.48,10.448,10.43,10.428,10.432,10.435,10.447,10.446,10.462,10.467,10.46,10.481,10.476,10.486,10.471,10.462,10.474,10.514,10.522,10.519,10.518,10.543,10.539,10.522,10.531,10.563,10.592,10.582,10.565,10.559,10.556,10.566,10.592,10.624,10.642,10.641,10.677,10.703,10.719,10.714,10.721,10.731,10.749,10.79,10.806,10.811,10.827,10.84,10.849,10.832,10.819,10.798,10.759,10.736,10.704,10.657,10.614,10.585,10.559,10.527,10.499,10.465,10.46,10.482,10.462,10.444,10.44,10.432,10.429,10.429,10.429,10.435,10.432,10.441,10.442,10.449,10.442,10.441,10.422,10.437,10.467,10.451,10.44,10.433,10.439,10.428,10.406,10.433,10.445,10.44,10.456,10.449,10.453,10.446,10.435,10.436,10.442,10.439,10.442,10.449,10.442,10.462,10.452,10.439,10.426,10.443,10.432,10.417,10.416,10.41,10.443,10.435,10.417,10.419,10.441,10.421,10.41,10.408,10.415,10.421,10.415,10.418,10.416,10.424,10.402,10.399,10.411,10.388,10.393,10.412,10.451,10.451,10.44,10.423,10.455,10.466,10.46,10.465,10.479,10.508,10.507,10.504,10.484,10.474,10.466,10.452,10.442,10.402,10.417,10.42,10.392,10.395,10.389,10.376,10.387,10.386,10.396,10.409,10.419,10.387,10.363,10.359,10.402,10.445,10.619,10.948,11.397,11.623,11.685,11.672,11.418,10.836,10.425,10.395,10.446,10.518,10.525,10.513,10.483,10.493,10.464,10.458,10.453,10.468,10.483,10.484,10.469,10.46,10.477,10.511,10.51,10.502,10.484,10.483,10.502,10.524,10.524,10.546,10.574,10.552,10.529,10.536,10.549,10.572,10.572,10.567,10.566,10.571,10.6,10.62,10.615,10.63,10.652,10.671,10.7,10.692,10.697,10.738,10.741,10.758,10.77,10.773,10.779,10.789,10.817,10.855,10.87,10.897,10.898,10.908,10.886,10.855,10.805,10.771,10.708,10.669,10.655,10.599,10.57,10.565,10.543,10.52,10.514,10.491,10.482,10.472,10.482,10.496,10.482,10.449,10.453,10.469,10.444,10.459,10.475,10.48,10.457,10.457,10.459,10.452,10.453,10.459,10.464,10.454,10.468,10.474,10.476,10.465,10.452,10.456,10.457,10.452,10.453,10.462,10.479,10.462,10.459,10.465,10.464,10.476,10.494,10.489,10.468,10.452,10.478,10.488,10.48,10.47,10.471,10.476,10.437,10.432,10.437,10.44,10.45,10.447,10.443,10.416,10.406,10.45,10.433,10.435,10.421,10.427,10.444,10.452,10.438,10.421,10.432,10.441,10.439,10.447,10.464,10.464,10.469,10.469,10.459,10.445,10.465,10.482,10.481,10.487,10.497,10.524,10.564,10.528,10.491,10.494,10.472,10.431,10.409,10.401,10.416,10.411,10.414,10.421,10.418,10.42,10.404,10.42,10.431,10.429,10.425,10.387,10.383,10.372,10.456,10.655,10.995,11.398,11.623,11.718,11.687,11.583,11.099,10.581,10.384,10.419,10.526,10.523,10.516,10.474,10.491,10.481,10.502,10.483,10.492,10.473,10.493,10.478,10.468,10.456,10.498,10.486,10.491,10.503,10.507,10.507,10.504,10.523,10.531,10.527,10.537,10.529,10.537,10.574,10.573,10.587,10.581,10.59,10.583,10.578,10.604,10.613,10.626,10.672,10.701,10.701,10.638,10.67,10.692,10.715,10.743,10.745,10.769,10.811,10.84,10.855,10.873,10.873,10.87,10.889,10.902,10.876,10.855,10.82,10.792,10.762,10.729,10.671,10.628,10.604,10.576,10.55,10.519,10.505,10.517,10.526,10.515,10.488,10.472,10.479,10.466,10.454,10.453,10.472,10.457,10.468,10.472,10.459,10.454,10.472,10.467,10.482,10.483,10.462,10.439,10.446,10.459,10.469,10.451,10.435,10.456,10.467,10.472,10.468,10.482,10.494,10.461,10.483,10.477,10.478,10.465,10.466,10.466,10.453,10.451,10.443,10.453,10.48,10.47,10.467,10.461,10.446,10.453,10.445,10.451,10.454,10.448,10.436,10.417,10.419,10.437,10.433,10.436,10.431,10.443,10.442,10.433,10.433,10.418,10.433,10.436,10.436,10.418,10.437,10.456,10.484,10.497,10.476,10.431,10.45,10.456,10.453,10.455,10.467,10.496,10.518,10.53,10.485,10.485,10.469,10.434,10.413,10.411,10.409,10.408,10.382,10.395,10.42,10.443,10.448,10.43,10.415,10.377,10.398,10.391,10.371,10.336,10.451,10.693,11.036,11.44,11.643,11.678,11.61,11.222,10.666,10.349,10.378,10.439,10.502,10.527,10.508,10.514,10.485,10.47,10.457,10.471,10.465,10.489,10.487,10.497,10.487,10.487,10.466,10.482,10.48,10.48,10.484,10.483,10.486,10.539,10.525,10.52,10.499,10.526,10.545,10.559,10.558,10.558,10.547,10.543,10.538,10.576,10.606,10.631,10.627,10.641,10.641,10.659,10.661,10.662,10.679,10.688,10.712,10.721,10.764,10.803,10.807,10.817,10.806,10.819,10.831,10.841,10.843,10.813,10.795,10.786,10.749,10.703,10.672,10.641,10.613,10.599,10.578,10.544,10.519,10.487,10.472,10.46,10.48,10.461,10.467,10.479,10.475,10.469,10.487,10.466,10.462,10.462,10.462,10.443,10.449,10.458,10.468,10.448,10.464,10.472,10.476,10.476,10.48,10.484,10.477,10.473,10.479,10.489,10.49,10.489,10.486,10.472,10.496,10.487,10.5,10.494,10.497,10.474,10.471,10.464,10.454,10.486,10.501,10.506,10.481,10.478,10.481,10.487,10.485,10.493,10.468,10.481,10.469,10.478,10.498,10.51,10.52,10.507,10.516,10.521,10.528,10.522,10.551,10.564,10.58,10.581,10.574,10.57,10.568,10.536,10.483,10.456,10.467,10.469,10.459,10.444,10.438,10.432,10.469,10.494,10.463,10.464,10.479,10.47,10.449,10.423,10.449,10.544,10.779,11.152,11.511,11.683,11.72,11.694,11.267,10.703,10.409,10.436,10.473,10.519,10.55,10.582,10.589,10.581,10.579,10.551,10.545,10.529,10.557,10.57,10.541,10.543,10.56,10.569,10.594,10.608,10.599,10.581,10.599,10.59,10.585,10.601,10.608,10.6,10.597,10.623,10.657,10.658,10.657,10.66,10.669,10.679,10.697,10.728,10.717,10.733,10.761,10.737,10.739,10.77,10.79,10.803,10.844,10.842,10.852,10.867,10.884,10.909,10.918,10.919,10.934,10.946,10.923,10.915,10.899,10.89,10.855,10.796,10.742,10.728,10.73,10.683,10.631,10.616,10.584,10.584,10.589,10.591,10.601,10.607,10.605,10.576,10.572,10.541,10.555,10.592,10.568,10.546,10.536,10.542,10.551,10.554,10.553,10.553,10.537,10.547,10.584,10.596,10.579,10.577,10.571,10.576,10.57,10.579,10.582,10.591,10.597,10.617,10.623,10.626,10.613,10.615,10.607,10.589,10.569,10.562,10.576,10.588,10.595,10.59,10.583,10.584,10.591,10.572,10.602,10.598,10.606,10.619,10.609,10.584,10.616,10.609,10.62,10.629,10.621,10.635,10.667,10.687,10.693,10.694,10.681,10.652,10.658,10.645,10.63,10.62,10.59,10.564,10.573,10.566,10.577,10.593,10.578,10.579,10.558,10.568,10.585,10.594,10.566,10.546,10.546,10.691,10.945,11.328,11.515,11.73,11.831,11.846,11.651,11.02,10.583,10.556,10.627,10.7,10.709,10.685,10.68,10.677,10.685,10.677,10.687,10.691,10.703,10.687,10.677,10.662,10.67,10.683,10.74,10.744,10.715,10.688,10.687,10.707,10.722,10.718,10.754,10.765,10.776,10.78,10.777,10.743,10.756,10.772,10.816,10.838,10.841,10.827,10.838,10.854,10.872,10.885,10.918,10.896,10.935,10.97,10.966,10.98,10.994,11.011,11.013,11.035,11.054,11.087,11.082,11.081,11.062,11.052,11.041,11,10.956,10.935,10.911,10.86,10.822,10.8,10.793,10.792,10.794,10.769,10.744,10.729,10.712,10.727,10.715,10.707,10.68,10.691,10.689,10.696,10.702,10.7,10.685,10.683,10.676,10.699,10.729,10.709,10.685,10.69,10.706,10.697,10.692,10.691,10.691,10.695,10.712,10.723,10.711,10.709,10.713,10.717,10.741,10.733,10.721,10.72,10.712,10.713,10.715,10.709,10.724,10.738,10.744,10.728,10.708,10.707,10.704,10.719,10.733,10.714,10.68,10.691,10.68,10.708,10.697,10.696,10.699,10.719,10.73,10.729,10.719,10.724,10.747,10.764,10.755,10.73,10.774,10.812,10.813,10.8,10.748,10.736,10.721,10.695,10.698,10.688,10.68,10.686,10.682,10.655,10.678,10.673,10.677,10.664,10.673,10.675,10.677,10.647,10.615,10.638,10.758,10.99,11.335,11.717,11.83,11.94,11.989,11.816,11.26,10.775,10.654,10.69,10.773,10.779,10.784,10.76,10.754,10.753,10.758,10.744,10.742,10.733,10.735,10.731,10.777,10.782,10.749,10.742,10.773,10.767,10.779,10.792,10.811,10.795,10.81,10.821,10.855,10.853,10.826,10.809,10.809,10.825,10.834,10.841,10.841,10.862,10.892,10.901,10.894,10.906,10.932,10.944,10.965,10.969,11.007,11.016,11.015,11.042,11.078,11.102,11.109,11.113,11.143,11.154,11.166,11.152,11.127,11.106,11.068,11.04,11.016,10.99,10.939,10.889,10.87,10.846,10.814,10.786,10.784,10.775,10.757,10.758,10.727,10.741,10.744,10.762,10.722,10.723,10.741,10.742,10.734,10.753,10.735,10.721,10.708,10.712,10.713,10.729,10.731,10.721,10.712,10.726,10.733,10.744,10.737,10.727,10.719,10.74,10.754,10.768,10.737,10.746,10.75,10.719,10.71,10.7,10.722,10.73,10.742,10.743,10.736,10.707,10.692,10.711,10.715,10.724,10.72,10.699,10.714,10.715,10.706,10.698,10.721,10.746,10.72,10.696,10.686,10.691,10.697,10.705,10.732,10.754,10.778,10.747,10.72,10.714,10.735,10.744,10.754,10.783,10.819,10.8,10.776,10.753,10.749,10.736,10.699,10.675,10.689,10.692,10.712,10.696,10.673,10.683,10.672,10.656,10.665,10.654,10.662,10.69,10.683,10.651,10.635,10.718,10.81,11.079,11.47,11.788,11.928,11.968,11.841,11.357,10.837,10.63,10.666,10.729,10.778,10.791,10.771,10.746,10.741,10.731,10.743,10.751,10.751,10.743,10.731,10.741,10.745,10.733,10.756,10.773,10.775,10.765,10.756,10.776,10.79,10.825,10.804,10.783,10.797,10.802,10.797,10.803,10.826,10.822,10.822,10.856,10.875,10.878,10.896,10.897,10.898,10.901,10.892,10.916,10.948,10.968,10.987,11.009,11.023,11.035,11.051,11.059,11.083,11.086,11.12,11.128,11.124,11.114,11.107,11.067,11.039,11.022,10.985,10.956,10.875,10.83,10.807,10.823,10.817,10.763,10.742,10.714,10.691,10.695,10.714,10.706,10.708,10.718,10.688,10.692,10.708,10.737,10.7,10.682,10.702,10.71,10.699,10.683,10.672,10.69,10.683,10.679,10.696,10.696,10.674,10.67,10.68,10.698,10.698,10.705,10.697,10.696,10.685,10.678,10.699,10.723,10.715,10.666,10.649,10.647,10.669,10.69,10.681,10.665,10.679,10.666,10.692,10.673,10.652,10.641,10.671,10.7,10.663,10.653,10.643,10.642,10.649,10.648,10.662,10.683,10.66,10.646,10.659,10.655,10.666,10.68,10.671,10.663,10.685,10.703,10.718,10.729,10.741,10.709,10.69,10.682,10.698,10.674,10.626,10.629,10.628,10.629,10.636,10.633,10.634,10.634,10.62,10.613,10.607,10.596,10.595,10.601,10.596,10.591,10.64,10.758,11.005,11.356,11.722,11.838,11.849,11.762,11.232,10.725,10.554,10.606,10.669,10.7,10.72,10.707,10.714,10.696,10.694,10.689,10.698,10.705,10.728,10.7,10.68,10.696,10.706,10.714,10.712,10.713,10.712,10.706,10.728,10.734,10.743,10.746,10.743,10.731,10.744,10.759,10.77,10.786,10.789,10.784,10.803,10.805,10.811,10.845,10.84,10.844,10.858,10.868,10.879,10.889,10.907,10.923,10.932,10.971,10.953,10.97,10.994,11.045,11.047,11.045,11.037,11.03,11.035,11.029,11.005,10.966,10.959,10.922,10.876,10.848,10.84,10.823,10.787,10.753,10.728,10.72,10.704,10.698,10.694,10.681,10.67,10.67,10.678,10.688,10.666,10.671,10.649,10.659,10.655,10.677,10.686,10.67,10.649,10.656,10.657,10.653,10.649,10.65,10.648,10.654,10.678,10.668,10.679,10.699,10.714,10.706,10.708,10.681,10.655,10.646,10.674,10.668,10.668,10.673,10.689,10.685,10.674,10.678,10.684,10.679,10.661,10.674,10.668,10.652,10.642,10.64,10.655,10.664,10.672,10.675,10.652,10.674,10.687,10.692,10.683,10.668,10.681,10.695,10.716,10.707,10.731,10.752,10.743,10.743,10.716,10.695,10.68,10.645,10.626,10.657,10.663,10.651,10.632,10.622,10.618,10.604,10.593,10.631,10.628,10.624,10.62,10.595,10.564,10.614,10.724,10.831,11.108,11.511,11.761,11.826,11.84,11.701,11.092,10.629,10.589,10.625,10.679,10.718,10.723,10.707,10.7,10.681,10.686,10.682,10.684,10.682,10.702,10.689,10.718,10.72,10.717,10.712,10.692,10.701,10.739,10.74,10.74,10.738,10.744,10.748,10.735,10.727,10.742,10.753,10.767,10.782,10.799,10.805,10.801,10.811,10.824,10.839,10.86,10.867,10.876,10.875,10.902,10.915,10.925,10.941,10.971,10.984,10.988,10.985,11.021,11.028,11.046,11.061,11.072,11.055,11.041,11.028,11.012,10.976,10.929,10.886,10.847,10.821,10.798,10.775,10.772,10.765,10.734,10.698,10.691,10.682,10.677,10.685,10.674,10.686,10.699,10.707,10.664,10.662,10.679,10.679,10.649,10.658,10.672,10.676,10.668,10.669,10.662,10.663,10.674,10.672,10.682,10.684,10.693,10.692,10.672,10.654,10.665,10.667,10.685,10.681,10.691,10.698,10.683,10.678,10.691,10.695,10.692,10.682,10.682,10.699,10.71,10.701,10.684,10.662,10.655,10.681,10.684,10.687,10.669,10.667,10.68,10.68,10.682,10.684,10.677,10.689,10.666,10.664,10.65,10.657,10.661,10.657,10.671,10.706,10.729,10.729,10.703,10.709,10.75,10.758,10.758,10.75,10.735,10.718,10.683,10.659,10.655,10.646,10.62,10.603,10.617,10.62,10.623,10.63,10.617,10.62,10.616,10.617,10.6,10.599,10.58,10.607,10.738,10.853,11.148,11.559,11.826,11.853,11.761,11.317,10.801,10.568,10.611,10.677,10.701,10.715,10.7,10.703,10.69,10.699,10.674,10.689,10.681,10.694,10.698,10.682,10.678,10.691,10.698,10.711,10.706,10.709,10.699,10.714,10.728,10.767,10.761,10.755,10.721,10.736,10.73,10.734,10.742,10.768,10.783,10.806,10.809,10.814,10.818,10.833,10.844,10.858,10.875,10.882,10.89,10.918,10.933,10.937,10.963,10.974,11.02,11.038,11.036,11.029,11.039,11.06,11.096,11.081,11.063,11.028,10.985,10.951,10.904,10.862,10.855,10.819,10.772,10.739,10.723,10.714,10.699,10.69,10.692,10.68,10.672,10.661,10.663,10.647,10.658,10.659,10.662,10.678,10.703,10.691,10.647,10.635,10.648,10.653,10.661,10.659,10.653,10.645,10.67,10.671,10.67,10.674
