3.958,3.9739,3.9866,3.997,4.0103,4.018,4.0247,4.0172,4.0006,3.9829,3.9535,3.9193,3.8974,3.8621,3.8229,3.7824,3.7398,3.7144,3.6879,3.6692,3.648,3.6366,3.6243,3.6142,3.5998,3.5978,3.5985,3.5987,3.5907,3.5899,3.5818,3.5855,3.5817,3.5958,3.5953,3.5976,3.5942,3.5991,3.6026,3.6085,3.6089,3.6102,3.6148,3.6198,3.6144,3.6108,3.6114,3.6203,3.6246,3.6286,3.6264,3.6277,3.6282,3.6294,3.6278,3.6228,3.6178,3.6221,3.6255,3.6329,3.6435,3.6564,3.6574,3.6577,3.6616,3.659,3.679,3.7274,3.7501,3.7509,3.7235,3.6998,3.6767,3.6711,3.6666,3.6445,3.6374,3.6347,3.6347,3.6321,3.6303,3.6232,3.6207,3.623,3.618,3.6127,3.6089,3.6063,3.6117,3.6208,3.6233,3.6216,3.6203,3.6177,3.6198,3.6185,3.6159,3.6144,3.6476,3.7656,4.0414,4.3519,4.4911,4.7299,4.3796,3.571,3.1985,3.1216,3.0687,3.1502,3.3113,3.4726,3.592,3.6432,3.6835,3.6794,3.6957,3.6839,3.7048,3.7002,3.7159,3.711,3.7213,3.7197,3.7363,3.7367,3.7457,3.7425,3.7542,3.7571,3.7765,3.7738,3.7835,3.7887,3.8066,3.8115,3.8276,3.8289,3.8397,3.8517,3.8703,3.8804,3.895,3.9049,3.9263,3.9353,3.9562,3.9723,3.997,4.0138,4.037,4.0555,4.0685,4.0863,4.1025,4.1227,4.1357,4.1455,4.1445,4.1511,4.1459,4.1345,4.107,4.0744,4.0541,4.0166,3.9737,3.9337,3.8884,3.8547,3.822,3.8009,3.7762,3.7558,3.7339,3.7287,3.717,3.7096,3.6996,3.7004,3.6953,3.6957,3.6891,3.6921,3.6848,3.6876,3.6872,3.6913,3.6912,3.6938,3.6948,3.7016,3.7022,3.7024,3.7012,3.707,3.7068,3.7094,3.7055,3.7069,3.7087,3.7156,3.7147,3.7162,3.7103,3.7101,3.713,3.7169,3.7167,3.7157,3.7103,3.7161,3.7177,3.7181,3.7145,3.7171,3.7242,3.7387,3.7476,3.7497,3.7465,3.7518,3.7486,3.7748,3.8099,3.8299,3.815,3.8027,3.7845,3.7684,3.7581,3.7452,3.7342,3.7305,3.7224,3.7149,3.7138,3.7098,3.7096,3.7053,3.7037,3.7024,3.7035,3.7055,3.7054,3.698,3.6976,3.7019,3.7032,3.6977,3.6949,3.6914,3.6947,3.6827,3.6864,3.751,3.975,4.2961,4.481,4.5751,4.7983,4.3084,3.538,3.2817,3.1978,3.2364,3.3415,3.5377,3.6476,3.718,3.7393,3.7438,3.7521,3.7545,3.7581,3.7603,3.76,3.7716,3.7762,3.7837,3.784,3.7892,3.7947,3.8004,3.8109,3.8138,3.8167,3.82,3.8339,3.8453,3.8501,3.8549,3.8638,3.8737,3.8891,3.8941,3.9046,3.912,3.9272,3.9424,3.9555,3.9647,3.9806,3.9977,4.0183,4.0346,4.0536,4.0702,4.09,4.1092,4.1265,4.1379,4.1522,4.1615,4.1759,4.1787,4.177,4.1658,4.1572,4.1327,4.1007,4.0571,4.0133,3.9741,3.9344,3.8979,3.8637,3.8267,3.8028,3.7806,3.7648,3.7463,3.7309,3.7246,3.7192,3.7169,3.7116,3.7074,3.7041,3.7027,3.7057,3.7029,3.6998,3.7001,3.703,3.7067,3.7065,3.7047,3.7048,3.706,3.7124,3.7104,3.7069,3.7075,3.7099,3.7137,3.7135,3.7114,3.7094,3.7109,3.7109,3.7127,3.7099,3.7086,3.7074,3.7128,3.7113,3.7046,3.7057,3.7062,3.7142,3.7141,3.723,3.727,3.737,3.737,3.7417,3.7357,3.7396,3.7808,3.8165,3.8231,3.7951,3.7761,3.7579,3.7511,3.7461,3.7181,3.7131,3.7072,3.703,3.7026,3.6987,3.6931,3.6891,3.6908,3.6938,3.6913,3.6833,3.6823,3.6838,3.6857,3.6848,3.6812,3.6826,3.6877,3.6899,3.688,3.6768,3.6691,3.7046,3.7621,3.9828,4.2966,4.4579,4.7221,4.4987,3.7813,3.3403,3.2369,3.2171,3.2969,3.4819,3.6031,3.6863,3.7224,3.7343,3.7411,3.7422,3.7424,3.7423,3.7504,3.7623,3.7633,3.7695,3.7662,3.7795,3.7885,3.7966,3.7969,3.8049,3.8107,3.8218,3.8248,3.835,3.8385,3.8476,3.8614,3.8703,3.8742,3.8783,3.89,3.9013,3.9187,3.9307,3.9378,3.9532,3.9703,3.9842,3.9999,4.0207,4.0459,4.0705,4.0924,4.101,4.1096,4.1217,4.1378,4.1577,4.1616,4.1638,4.1635,4.1682,4.1592,4.1386,4.1003,4.0601,4.0253,3.9885,3.9523,3.9101,3.8739,3.8469,3.8167,3.7881,3.7627,3.7454,3.7381,3.7317,3.7309,3.7202,3.7128,3.7048,3.7108,3.7048,3.7015,3.6998,3.7044,3.7095,3.709,3.7058,3.7089,3.7089,3.7147,3.7145,3.7051,3.7056,3.7121,3.7211,3.7236,3.7117,3.7059,3.7028,3.7069,3.7083,3.7155,3.7052,3.7172,3.7192,3.7158,3.7121,3.7089,3.7103,3.7122,3.7148,3.7208,3.7225,3.7269,3.7307,3.7366,3.7436,3.7421,3.7567,3.7937,3.8191,3.8258,3.792,3.7813,3.7665,3.7562,3.7368,3.7164,3.7161,3.7136,3.7138,3.7076,3.6959,3.6967,3.6983,3.6909,3.6965,3.6916,3.6909,3.69,3.6942,3.6899,3.6855,3.6882,3.6917,3.6836,3.6855,3.6831,3.6815,3.7023,3.7222,3.8379,4.1157,4.4134,4.5827,4.6858,4.2237,3.4306,3.153,3.0639,3.1348,3.2934,3.4368,3.5746,3.6608,3.7144,3.7194,3.7201,3.7297,3.7349,3.7441,3.7541,3.7588,3.7478,3.7541,3.7689,3.7781,3.7851,3.7843,3.785,3.7917,3.8017,3.8091,3.8167,3.8239,3.8292,3.8434,3.8546,3.8585,3.8739,3.8843,3.8901,3.8983,3.9046,3.9075,3.9241,3.9564,3.9749,3.9845,3.9968,4.0172,4.032,4.0506,4.0599,4.0686,4.0843,4.1078,4.1211,4.135,4.1398,4.1446,4.1529,4.1484,4.1308,4.1075,4.0696,4.0389,3.9986,3.9599,3.9248,3.8811,3.8392,3.8028,3.7849,3.762,3.7432,3.7297,3.7202,3.7052,3.6927,3.6916,3.6938,3.6851,3.6825,3.6733,3.6666,3.6671,3.6722,3.681,3.6811,3.6654,3.6698,3.6697,3.6784,3.6749,3.6743,3.6671,3.6808,3.6864,3.6891,3.6886,3.6866,3.6805,3.687,3.691,3.693,3.698,3.7161,3.7171,3.7128,3.7135,3.7223,3.7629,3.7915,3.8004,3.7782,3.7512,3.7351,3.7202,3.7104,3.6979,3.681,3.6776,3.6739,3.6719,3.667,3.6537,3.6464,3.6435,3.6393,3.6439,3.6429,3.6423,3.6388,3.6355,3.6367,3.638,3.6385,3.6375,3.646,3.6432,3.6345,3.6359,3.6622,3.7514,3.9667,4.2866,4.4752,4.5975,4.438,3.7573,3.0704,2.9637,2.9169,2.9945,3.1741,3.3086,3.4804,3.5753,3.6534,3.6682,3.6749,3.6767,3.688,3.6925,3.7035,3.6978,3.7027,3.702,3.7138,3.713,3.728,3.7341,3.7439,3.7344,3.7415,3.745,3.7607,3.7577,3.7716,3.7799,3.79,3.7963,3.8085,3.8166,3.8327,3.8417,3.8591,3.8596,3.8796,3.8889,3.9033,3.9162,3.9356,3.9513,3.9737,3.9893,4.0023,4.0116,4.0177,4.0306,4.0504,4.0634,4.0645,4.0636,4.0611,4.0492,4.0181,3.9902,3.9675,3.9288,3.8903,3.8578,3.8152,3.7782,3.7459,3.7207,3.6897,3.6717,3.6478,3.639,3.6292,3.6238,3.6154,3.6073,3.6022,3.6077,3.6016,3.6032,3.5991,3.6058,3.6082,3.6109,3.6099,3.6038,3.6014,3.6076,3.6022,3.6086,3.5989,3.6118,3.6194,3.6216,3.6156,3.6172,3.6164,3.6251,3.629,3.6322,3.6363,3.6523,3.6561,3.664,3.6628,3.6704,3.6993,3.737,3.7316,3.7047,3.6836,3.6645,3.6565,3.6476,3.6322,3.6222,3.6163,3.6127,3.6087,3.6028,3.5914,3.5901,3.5903,3.5888,3.5918,3.5898,3.592,3.5836,3.5871,3.5858,3.5846,3.5881,3.5854,3.5843,3.5806,3.5728,3.5778,3.6085,3.7084,3.9565,4.2728,4.4094,4.5927,4.3773,3.6065,3.0859,2.9683,2.9872,3.1225,3.2819,3.4332,3.5413,3.6015,3.6271,3.629,3.6336,3.6279,3.6351,3.6405,3.6592,3.6604,3.6687,3.6628,3.6723,3.6785,3.6831,3.6811,3.6896,3.7023,3.7141,3.7181,3.7253,3.7306,3.7404,3.7454,3.7578,3.7602,3.7728,3.7871,3.803,3.8153,3.8281,3.8437,3.857,3.8793,3.8973,3.905,3.9223,3.9413,3.962,3.977,3.9903,4.0055,4.0155,4.0315,4.049,4.0569,4.0533,4.0507,4.0455,4.0308,4.0013,3.9631,3.9198,3.8818,3.8385,3.7956,3.754,3.7242,3.6944,3.6702,3.6471,3.6365,3.6198,3.6154,3.6109,3.6031,3.5914,3.5885,3.5865,3.5901,3.5857,3.5808,3.5791,3.579,3.5812,3.5807,3.5808,3.5826,3.5845,3.5923,3.5941,3.5913,3.5861,3.5865,3.5922,3.5947,3.5965,3.5959,3.5941,3.5971,3.6036,3.6111,3.617,3.633,3.636,3.6387,3.6395,3.6542,3.691,3.7078,3.711,3.6916,3.6735,3.6484,3.6335,3.6274,3.6089,3.5966,3.5897,3.5866,3.5886,3.5786,3.5667,3.5674,3.5651,3.5718,3.566,3.5631,3.5621,3.5657,3.5676,3.5721,3.5667,3.5633,3.5633,3.5682,3.5653,3.5559,3.5496,3.5776,3.699,3.9842,4.289,4.4353,4.6879,4.3034,3.4728,3.2304,3.0683,3.0123,3.1182,3.2651,3.4321,3.5377,3.5968,3.6119,3.6262,3.6309,3.6279,3.6304,3.6408,3.6468,3.6494,3.6487,3.6578,3.6679,3.6705,3.6756,3.675,3.6814,3.6889,3.6997,3.7066,3.7105,3.7186,3.7286,3.741,3.7515,3.7579,3.765,3.7799,3.7957,3.8102,3.8237,3.84,3.8451,3.8638,3.8797,3.8966,3.909,3.9327,3.9537,3.9706,3.9838,3.9978,4.0123,4.0333,4.0453,4.0491,4.0484,4.0476,4.0374,4.0225,3.9899,3.9703,3.9326,3.8895,3.8492,3.8075,3.7655,3.7293,3.7012,3.6791,3.6543,3.633,3.6201,3.6092,3.6058,3.5983,3.5908,3.5887,3.5827,3.5828,3.5823,3.5815,3.5756,3.5762,3.5802,3.5771,3.5762,3.5728,3.5792,3.5811,3.5853,3.5842,3.5824,3.5832,3.5906,3.5917,3.5878,3.5877,3.5895,3.5924,3.595,3.5968,3.5959,3.6027,3.6071,3.6184,3.6274,3.6344,3.636,3.6382,3.6401,3.6596,3.6921,3.714,3.7063,3.6879,3.6717,3.6495,3.6448,3.6348,3.6212,3.6134,3.6015,3.5943,3.5896,3.592,3.5865,3.5837,3.5821,3.5832,3.5814,3.58,3.5781,3.5759,3.5767,3.5786,3.5769,3.5784,3.5727,3.5734,3.5785,3.5713,3.5529,3.5665,3.6813,3.9529,4.2644,4.4246,4.6948,4.286,3.483,3.1717,3.0775,3.1023,3.2041,3.4036,3.4635,3.5555,3.602,3.6098,3.6224,3.6258,3.6284,3.629,3.631,3.6408,3.6474,3.6512,3.6559,3.6558,3.6652,3.6714,3.6791,3.6804,3.6865,3.6887,3.7003,3.7033,3.7119,3.7146,3.725,3.7339,3.7476,3.7526,3.7645,3.7763,3.7925,3.8072,3.8197,3.8336,3.8517,3.8727,3.8919,3.9053,3.9157,3.9329,3.9533,3.9732,3.9878,3.9981,4.0142,4.0317,4.0451,4.0492,4.0481,4.0389,4.0256,4.0015,3.968,3.9257,3.8815,3.8385,3.8013,3.7798,3.7432,3.7071,3.6805,3.6557,3.6396,3.6209,3.6107,3.6023,3.5985,3.5915,3.5903,3.579,3.5793,3.5778,3.5818,3.5739,3.5768,3.576,3.5784,3.5809,3.5789,3.5747,3.5743,3.5768,3.5829,3.5781,3.5805,3.5757,3.5793,3.5834,3.5764,3.5745,3.576,3.5754,3.5786,3.5779,3.5755,3.5736,3.5728,3.5764,3.5744,3.5738,3.5778,3.5905,3.6042,3.6036,3.5987,3.595,3.6056,3.6462,3.6759,3.6804,3.6528,3.6387,3.6243,3.6146,3.6101,3.5893,3.5796,3.5721,3.5698,3.5642,3.5589,3.5556,3.555,3.5553,3.5513,3.5462,3.5479,3.5493,3.5496,3.5472,3.5435,3.5464,3.5457,3.5465,3.5479,3.5448,3.5388,3.5306,3.5438,3.6184,3.8448,4.156,4.3172,4.5837,4.3266,3.5782,3.1561,3.0585,3.0644,3.1497,3.3339,3.4589,3.5164,3.572,3.5998,3.5961,3.6062,3.6026,3.6133,3.6151,3.6204,3.62,3.6313,3.6383,3.6462,3.6454,3.6524,3.6528,3.6678,3.6707,3.6808,3.6778,3.686,3.6921,3.7071,3.7135,3.7197,3.7279,3.7444,3.758,3.7655,3.7725,3.7896,3.8065,3.8259,3.839,3.8516,3.8714,3.8916,3.9131,3.9215,3.9371,3.9464,3.966,3.984,4.0015,4.0129,4.024,4.0399,4.0471,4.0472,4.0325,4.0075,3.9723,3.9345,3.8941,3.8483,3.8096,3.7751,3.7608,3.7318,3.6998,3.6671,3.646,3.6279,3.6176,3.5992,3.5926,3.586,3.585,3.5851,3.585,3.5844,3.579,3.5777,3.5813,3.5755,3.5708,3.5709,3.5783,3.5832,3.5853,3.5839,3.5855,3.5883,3.5926,3.5897,3.5799,3.5813,3.5817,3.5843,3.5839,3.5799,3.5848,3.5825,3.5836,3.5884,3.5882,3.5836,3.5827,3.5955,3.6118,3.6178,3.614,3.619,3.6195,3.6182,3.651,3.6844,3.7011,3.6814,3.6658,3.6423,3.6241,3.6106,3.5994,3.5982,3.5924,3.5817,3.5784,3.575,3.5721,3.5693,3.5712,3.569,3.5703,3.5698,3.5713,3.5646,3.5617,3.5584,3.562,3.5661,3.5744,3.5718,3.5658,3.5648,3.5562,3.5661,3.6249,3.815,4.1301,4.3545,4.5017,4.3767,3.7541,3.1556,3.0182,2.9808,3.084,3.2373,3.389,3.5145,3.5662,3.6027,3.5969,3.6133,3.6104,3.6279,3.6207,3.6292,3.6353,3.6577,3.6512,3.6541,3.6501,3.6656,3.6633,3.6778,3.6782,3.6961,3.699,3.7113,3.7086,3.7184,3.7258,3.742,3.7455,3.7591,3.7609,3.774,3.7863,3.8021,3.8168,3.8329,3.8404,3.8583,3.8805,3.8983,3.9076,3.9254,3.9434,3.9599,3.9642,3.9808,3.9938,4.0008,4.0188,4.033,4.0359,4.0412,4.034,4.0147,3.9979,3.9567,3.9094,3.8743,3.8381,3.8014,3.7677,3.7286,3.7014,3.6867,3.6671,3.6404,3.6263,3.613,3.609,3.6054,3.5998,3.5925,3.5963,3.598,3.5959,3.5895,3.5851,3.588,3.5927,3.5983,3.601,3.6008,3.6039,3.6007,3.601,3.5973,3.5982,3.5965,3.5997,3.5925,3.5974,3.5959,3.6064,3.6057,3.6038,3.5976,3.5973,3.5927,3.5968,3.609,3.6228,3.6203,3.6188,3.6129,3.626,3.6289,3.6528,3.6882,3.704,3.6955,3.6691,3.6521,3.6388,3.6285,3.6175,3.604,3.6036,3.5888,3.5812,3.5766,3.5776,3.5805,3.5797,3.5751,3.5737,3.5693,3.5648,3.5695,3.5744,3.5696,3.5738,3.567,3.5619,3.5603,3.5648,3.5655,3.566,3.568,3.6096,3.6716,3.8989,4.2319,4.4114,4.569,4.2892,3.5498,3.0369,2.9294,2.9435,3.0687,3.23,3.3903,3.5058,3.5682,3.6113,3.6087,3.6284,3.6328,3.6363,3.6375,3.6474,3.6471,3.6537,3.6538,3.6606,3.6684,3.686,3.6889,3.703,3.7092,3.7157,3.7203,3.7256,3.7273,3.7364,3.7513,3.7699,3.7774,3.7837,3.7901,3.795,3.8108,3.828,3.8413,3.8556,3.871,3.8886,3.9074,3.9167,3.932,3.9536,3.978,3.991,4.0009,4.0097,4.0202,4.0233,4.0352,4.0417,4.0451,4.0427,4.035,4.0158,3.9858,3.9461,3.9089,3.8725,3.8347,3.7998,3.7613,3.7316,3.7064,3.6895,3.6739,3.6591,3.6543,3.6413,3.6383,3.6349,3.629,3.6247,3.6287,3.6305,3.6333,3.6253,3.6248,3.6261,3.6328,3.6333,3.6369,3.6374,3.6393,3.6418,3.6432,3.6427,3.6413,3.6415,3.6488,3.651,3.657,3.6558,3.6583,3.6544,3.6585,3.6523,3.6509,3.6529,3.657,3.6681,3.6746,3.6836,3.6828,3.6884,3.6951,3.693,3.7134,3.7525,3.7712,3.7609,3.7409,3.7209,3.7031,3.7002,3.6975,3.682,3.6784,3.6707,3.6675,3.6681,3.663,3.6575,3.6534,3.6525,3.6534,3.653,3.6499,3.6466,3.6458,3.6494,3.6508,3.6483,3.6458,3.6423,3.649,3.6538,3.642,3.6464,3.7042,3.9101,4.2284,4.4442,4.5026,4.7535,4.374,3.5749,3.2354,3.1302,3.1527,3.2606,3.4632,3.5836,3.661,3.6913,3.7021,3.7108,3.7126,3.7107,3.7172,3.7213,3.733,3.7332,3.7372,3.7411,3.752,3.7579,3.771,3.7705,3.7723,3.7769,3.7882,3.7961,3.8032,3.8084,3.8203,3.8323,3.8484,3.8527,3.8605,3.8717,3.8811,3.898,3.9086,3.9215,3.9353,3.9543,3.9778,3.9943,4.0092,4.0265,4.0468,4.0655,4.083,4.0991,4.108,4.1251,4.1389,4.1483,4.1488,4.1497,4.1415,4.13,4.1013,4.0665,4.0277,3.9852,3.949,3.9135,3.8708,3.8363,3.8069,3.7841,3.763,3.745,3.7285,3.7217,3.7134,3.7115,3.7068,3.6988,3.691,3.6927,3.6959,3.6974,3.6928,3.6943,3.6951,3.7006,3.6958,3.697,3.6969,3.7012,3.7042,3.7082,3.7014,3.7016,3.7054,3.7087,3.7084,3.7106,3.7045,3.7056,3.7084,3.7106,3.7087,3.7087,3.708,3.7095,3.7067,3.703,3.7008,3.7036,3.7079,3.7176,3.7233,3.7379,3.7367,3.7378,3.7442,3.7381,3.7596,3.798,3.82,3.8079,3.7846,3.7671,3.7556,3.7478,3.7342,3.7209,3.7123,3.7087,3.7015,3.7032,3.695,3.6909,3.6892,3.6915,3.6924,3.694,3.6918,3.6896,3.6889,3.6911,3.6906,3.6876,3.6853,3.6868,3.6902,3.6884,3.6718,3.6814,3.7551,3.9826,4.1524,4.4145,4.5752,4.7219,4.2191,3.4762,3.268,3.1675,3.2369,3.3498,3.5475,3.6417,3.7143,3.7273,3.7477,3.745,3.7485,3.7439,3.7547,3.7527,3.7668,3.7658,3.7732,3.7722,3.7834,3.788,3.7986,3.7965,3.806,3.8096,3.8232,3.8258,3.833,3.8348,3.8491,3.8556,3.8686,3.8729,3.8793,3.8883,3.9053,3.9174,3.9319,3.9423,3.9588,3.9785,3.9984,4.0125,4.0245,4.0444,4.0634,4.0786,4.0961,4.1085,4.1238,4.14,4.1512,4.1594,4.16,4.1645,4.158,4.1466,4.1192,4.0824,4.0458,4.0085,3.9703,3.9302,3.8865,3.8524,3.8253,3.8046,3.7789,3.7599,3.7447,3.7391,3.7345,3.728,3.7187,3.7156,3.7097,3.7126,3.7115,3.7096,3.705,3.7085,3.7089,3.711,3.7041,3.7084,3.7078,3.7119,3.7131,3.7126,3.7098,3.713,3.7113,3.717,3.7134,3.7127,3.7139,3.7199,3.7187,3.7184,3.711,3.7131,3.7154,3.7182,3.7105,3.7076,3.7089,3.7082,3.7109,3.7079,3.7038,3.7032,3.7035,3.7086,3.7067,3.704,3.7029,3.7085,3.7108,3.7239,3.7332,3.7393,3.7404,3.7442,3.7329,3.754,3.7984,3.8227,3.8067,3.7973,3.7782,3.7577,3.7518,3.7448,3.7295,3.7166,3.7088,3.6999,3.7001,3.6983,3.6938,3.6906,3.6896,3.6927,3.691,3.6884,3.6857,3.6837,3.6865,3.6893,3.6857,3.6837,3.6843,3.6847,3.6886,3.6807,3.6658,3.6923,3.8231,4.1041,4.3929,4.5309,4.7294,4.2555,3.5175,3.2837,3.1921,3.1916,3.2714,3.4384,3.5794,3.6744,3.7134,3.7242,3.7335,3.7402,3.7353,3.743,3.7421,3.7544,3.7593,3.766,3.765,3.7767,3.779,3.7871,3.7854,3.7908,3.7931,3.801,3.8113,3.8166,3.8213,3.8275,3.8379,3.8479,3.8566,3.861,3.8728,3.887,3.9014,3.9115,3.925,3.9379,3.9551,3.967,3.9833,3.997,4.0131,4.0297,4.0486,4.0644,4.0811,4.092,4.1087,4.1242,4.1371,4.1423,4.1428,4.1423,4.1365,4.12,4.0916,4.0578,4.0388,4.004,3.9665,3.9228,3.8844,3.851,3.8204,3.799,3.7765,3.7517,3.7383,3.7287,3.7201,3.7151,3.7084,3.7027,3.7052,3.7044,3.708,3.7044,3.7036,3.7032,3.7058,3.7064,3.702,3.7021,3.7058,3.7065,3.7089,3.7054,3.7047,3.7046,3.7122,3.7096,3.71,3.7075,3.7105,3.7113,3.709,3.7049,3.7028,3.699,3.7033,3.7027,3.7043,3.7004,3.6995,3.6981,3.699,3.6959,3.6945,3.6947,3.6963,3.6963,3.6942,3.6915,3.6901,3.6878,3.6899,3.6925,3.6936,3.6948,3.7037,3.7153,3.7324,3.7294,3.7239,3.723,3.7306,3.7715,3.8043,3.7925,3.7747,3.7631,3.7451,3.7348,3.7276,3.715,3.6963,3.6952,3.6854,3.6773,3.6767,3.6782,3.6751,3.6717,3.6649,3.6635,3.6667,3.6669,3.6596,3.6546,3.6564,3.6626,3.662,3.6601,3.658,3.6556,3.6558,3.6463,3.6561,3.7205,3.9272,4.2378,4.43,4.6371,4.4478,3.7542,3.2839,3.1564,3.1319,3.2272,3.3843,3.5292,3.5909,3.65,3.6858,3.6852,3.6961,3.6976,3.7094,3.7061,3.716,3.7192,3.7237,3.7179,3.7227,3.7246,3.7472,3.754,3.7653,3.7602,3.7612,3.7608,3.7738,3.7791,3.7895,3.7915,3.8001,3.8106,3.8268,3.8296,3.8359,3.8479,3.8667,3.8856,3.9033,3.9108,3.9139,3.9355,3.9492,3.9647,3.9767,3.9913,4.0074,4.0199,4.0352,4.0524,4.0628,4.0816,4.0902,4.0974,4.0948,4.089,4.0802,4.0665,4.0333,3.9985,3.9646,3.9266,3.8839,3.8656,3.8216,3.7834,3.7589,3.7441,3.7272,3.7042,3.6862,3.6725,3.6683,3.6649,3.6584,3.6493,3.648,3.6488,3.6526,3.6491,3.6403,3.6437,3.6428,3.6543,3.6481,3.6525,3.6518,3.6523,3.649,3.6451,3.6463,3.6519,3.6547,3.6585,3.6536,3.6482,3.6417,3.6462,3.6527,3.6496,3.6469,3.6475,3.6544,3.6472,3.6481,3.6445,3.6448,3.6425,3.6375,3.6376,3.639,3.6415,3.6397,3.6373,3.634,3.6357,3.6326,3.6358,3.6353,3.6375,3.6346,3.6365,3.643,3.668,3.6715,3.6642,3.6658,3.6625,3.6893,3.7308,3.7449,3.7266,3.7026,3.6866,3.6781,3.6822,3.6623,3.6486,3.6437,3.6411,3.6338,3.6269,3.6186,3.6192,3.6213,3.6181,3.6159,3.6184,3.6173,3.6177,3.618,3.6154,3.6073,3.6073,3.6143,3.6085,3.6064,3.6025,3.6046,3.5945,3.6272,3.7468,4.0341,4.3379,4.5305,4.6333,4.1409,3.3448,3.0886,3.0077,3.0601,3.2166,3.3381,3.4895,3.5651,3.6329,3.6529,3.653,3.6543,3.6588,3.6642,3.67,3.6743,3.6775,3.6819,3.6877,3.6926,3.6952,3.7051,3.7143,3.7228,3.7255,3.733,3.7375,3.749,3.7563,3.7634,3.7646,3.7758,3.7842,3.7983,3.8053,3.8108,3.8177,3.8324,3.8485,3.8709,3.8838,3.8927,3.9058,3.9193,3.9417,3.9515,3.9659,3.9816,3.9975,4.0082,4.0102,4.0229,4.0364,4.0463,4.0514,4.0487,4.0338,4.0199,3.9959,3.9705,3.9362,3.9001,3.857,3.8241,3.7938,3.7651,3.7337,3.7182,3.6974,3.6802,3.6668,3.6552,3.6466,3.6363,3.6348,3.6327,3.6321,3.6273,3.6259,3.6278,3.6318,3.6227,3.6298,3.6313,3.6362,3.6424,3.6366,3.6291,3.6314,3.6349,3.638,3.644,3.6384,3.6435,3.6462,3.6517,3.6466,3.646,3.6502,3.6507,3.6457,3.6428,3.6404,3.6413,3.6447,3.6411,3.6405,3.6419,3.6411,3.6403,3.6435,3.6463,3.6419,3.6407,3.6446,3.6569,3.6669,3.6778,3.6771,3.6807,3.6856,3.6795,3.7081,3.7416,3.7537,3.7486,3.7318,3.712,3.6938,3.6921,3.6855,3.6639,3.6558,3.6464,3.6465,3.6453,3.6474,3.6396,3.6343,3.6313,3.6338,3.6363,3.631,3.6265,3.6276,3.6327,3.636,3.6355,3.6329,3.6322,3.6368,3.6395,3.6312,3.6202,3.6577,3.8127,4.1236,4.4,4.5457,4.6815,4.1749,3.4055,3.1865,3.1272,3.0977,3.2072,3.3645,3.515,3.6189,3.6699,3.6931,3.6961,3.7113,3.7097,3.7145,3.7148,3.7293,3.7279,3.7343,3.7363,3.7483,3.7546,3.7659,3.7664,3.7716,3.7727,3.7862,3.7921,3.8028,3.8138,3.8208,3.8245,3.8373,3.8419,3.8534,3.8606,3.8842,3.8969,3.915,3.9244,3.9403,3.9461,3.9642,3.9829,3.9943,4.0123,4.0285,4.0508,4.0688,4.0818,4.0918,4.1057,4.1204,4.1335,4.132,4.1337,4.1251,4.1218,4.0999,4.067,4.0443,4.0109,3.9719,3.9387,3.8965,3.8596,3.8306,3.8082,3.786,3.7659,3.7451,3.7385,3.7307,3.7279,3.7221,3.7176,3.7117,3.7146,3.714,3.7151,3.7145,3.7141,3.7103,3.7193,3.7167,3.7159,3.715,3.7223,3.7257,3.7305,3.7257,3.7267,3.7283,3.7344,3.7383,3.7372,3.7353,3.7385,3.7403,3.7433,3.7397,3.7424,3.7394,3.7448,3.7439,3.7413,3.7351,3.7364,3.7374,3.7398,3.739,3.7341,3.735,3.7406,3.7433,3.7393,3.7387,3.7397,3.7424,3.7466,3.7484,3.7456,3.75,3.7533,3.7662,3.7842,3.7874,3.7845,3.7815,3.7835,3.8109,3.8556,3.8618,3.8463,3.8292,3.8171,3.8063,3.8004,3.7912,3.7757,3.7721,3.7659,3.7573,3.7552,3.755,3.7547,3.748,3.7433,3.746,3.7476,3.7498,3.746,3.7422,3.7458,3.7461,3.75,3.7521,3.7489,3.7462,3.7499,3.7428,3.7319,3.762,3.9158,4.2157,4.4906,4.6471,4.8122,4.2823,3.5558,3.3438,3.2518,3.3027,3.4122,3.5175,3.6526,3.748,3.7851,3.8006,3.8042,3.812,3.8137,3.8209,3.8164,3.831,3.8342,3.8461,3.8466,3.8562,3.8568,3.8721,3.8718,3.8808,3.8789,3.8872,3.8936,3.9082,3.9064,3.9164,3.9192,3.9348,3.9465,3.9555,3.9639,3.9779,3.9871,4.0074,4.0196,4.0301,4.0455,4.0648,4.083,4.0937,4.1065,4.1276,4.1438,4.1624,4.1756,4.1897,4.2017,4.2147,4.2299,4.2403,4.239,4.2344,4.2265,4.2116,4.1831,4.1462,4.1078,4.0694,4.0514,4.0159,3.9762,3.9418,3.9129,3.8902,3.8705,3.8531,3.8368,3.8232,3.8182,3.8157,3.8077,3.7991,3.7992,3.7964,3.7976,3.7945,3.7934,3.7933,3.7973,3.8,3.7992,3.7965,3.796,3.8002,3.8043,3.8053,3.8029,3.802,3.8051,3.8111,3.81,3.809,3.8108,3.8119,3.8178,3.8152,3.8138,3.81,3.8105,3.8131,3.8147,3.8111,3.8079,3.8068,3.8101,3.8091,3.8059,3.8005,3.8041,3.804,3.8089,3.8062,3.8033,3.8055,3.8064,3.8077,3.8053,3.803,3.8025,3.8056,3.8152,3.8163,3.8232,3.8377,3.8434,3.8419,3.8376,3.8306,3.8653,3.9156,3.9149,3.8962,3.8779,3.8586,3.8562,3.852,3.8447,3.8245,3.8181,3.8144,3.8124,3.8083,3.8044,3.7982,3.7983,3.8008,3.8006,3.7953,3.7936,3.7941,3.7986,3.794,3.7911,3.7923,3.7946,3.7934,3.7986,3.7938,3.7792,3.7753,3.8246,4.0087,4.3143,4.5335,4.728,4.753,4.1357,3.5201,3.3642,3.299,3.3708,3.5149,3.6108,3.7229,3.7985,3.8321,3.8429,3.8489,3.8487,3.8497,3.8569,3.8622,3.8698,3.8708,3.8754,3.8811,3.8901,3.8983,3.9003,3.9019,3.9095,3.9093,3.9186,3.9235,3.9315,3.9385,3.9474,3.9601,3.9667,3.9722,3.9819,3.9968,4.0104,4.021,4.0321,4.0468,4.0629,4.0816,4.0953,4.1108,4.1179,4.1373,4.1571,4.1737,4.1852,4.2015,4.2158,4.2334,4.2468,4.2508,4.2592,4.2648,4.2627,4.2482,4.2251,4.1995,4.1651,4.133,4.0931,4.0717,4.034,3.9986,3.9682,3.942,3.9143,3.8889,3.8761,3.8667,3.8575,3.8447,3.8365,3.8342,3.8331,3.8317,3.8311,3.8228,3.8272,3.8291,3.8299,3.8301,3.8254,3.8268,3.8271,3.8306,3.8301,3.8301,3.8316,3.8334,3.8373,3.8376,3.8351,3.8376,3.8375,3.843,3.8405,3.8392,3.8383,3.8404,3.842,3.8426,3.8398,3.8388,3.84,3.8408,3.8404,3.8346,3.8315,3.8338,3.8374,3.8388,3.8362,3.8347,3.8364,3.8408,3.841,3.8377,3.8355,3.8368,3.84,3.8413,3.8406,3.8352,3.8408,3.8408,3.8415,3.8407,3.8396,3.8415,3.8495,3.8612,3.8739,3.8787,3.8756,3.8761,3.8689,3.8784,3.9183,3.956,3.9461,3.9296,3.9134,3.8926,3.8853,3.8771,3.865,3.8581,3.848,3.8435,3.8412,3.8391,3.8359,3.8348,3.83,3.8285,3.8299,3.8322,3.8344,3.8298,3.8302,3.8335,3.8357,3.833,3.8294,3.83,3.833,3.8249,3.8147,3.8496,4.0047,4.2993,4.5608,4.7247,4.8375,4.6035,3.8968,3.4855,3.3856,3.3501,3.4475,3.6117,3.7534,3.8275,3.874,3.8747,3.8859,3.8858,3.8927,3.8924,3.8992,3.9036,3.9194,3.916,3.9246,3.9256,3.9411,3.9413,3.9529,3.9504,3.9563,3.9613,3.974,3.9783,3.986,3.9885,4.005,4.0143,4.0248,4.0251,4.0377,4.0477,4.0616,4.0702,4.0839,4.0966,4.1062,4.1231,4.1448,4.1612,4.1766,4.193,4.2128,4.2395,4.2515,4.2635,4.2734,4.2892,4.3047,4.3102,4.3148,4.3148,4.3146,4.3057,4.288,4.2595,4.2211,4.1852,4.1456,4.1173,4.0784,4.0409,4.0078,3.9842,3.9602,3.937,3.9207,3.9137,3.9076,3.8986,3.8853,3.8813,3.8844,3.8826,3.8809,3.8765,3.8706,3.8713,3.8716,3.881,3.8802,3.8765,3.8753,3.8843,3.8858,3.8859,3.8815,3.8841,3.8835,3.8827,3.8847,3.8874,3.8826,3.8867,3.8873,3.884,3.877,3.878,3.8764,3.8814,3.8868,3.882,3.8794,3.8834,3.885,3.8832,3.8777,3.8698,3.8692,3.8723,3.8728,3.8787,3.8752,3.8743,3.8672,3.8769,3.872,3.8647,3.869,3.869,3.8747,3.8739,3.8731,3.8732,3.8785,3.8901,3.9,3.8973,3.8956,3.8999,3.9025,3.906,3.9375,3.9745,3.9716,3.9521,3.9355,3.9164,3.9096,3.9011,3.8804,3.8765,3.8678,3.8623,3.8579,3.86,3.8615,3.8603,3.8514,3.8492,3.8506,3.8521,3.8512,3.8519,3.8425,3.8436,3.847,3.8405,3.8402,3.8386,3.841,3.8392,3.8201,3.8378,3.9669,4.257,4.4258,4.6373,4.8515,4.6658,3.993,3.4343,3.3084,3.2588,3.3676,3.514,3.6744,3.7758,3.8467,3.874,3.8839,3.886,3.8907,3.891,3.8998,3.908,3.9091,3.9094,3.9147,3.9169,3.9294,3.944,3.9527,3.9493,3.9511,3.9624,3.9789,3.9847,3.9856,3.9787,3.9916,4.0088,4.0213,4.0309,4.0329,4.0373,4.0508,4.0705,4.0764,4.0891,4.1011,4.1173,4.1311,4.1449,4.1611,4.1795,4.1974,4.2164,4.2312,4.2359,4.247,4.2596,4.2711,4.2753,4.282,4.2865,4.283,4.2707,4.2541,4.2288,4.197,4.1631,4.1263,4.0881,4.0422,4.0139,3.9884,3.9624,3.9394,3.9159,3.8942,3.8866,3.8815,3.8754,3.8648,3.8559,3.8543,3.8608,3.8606,3.8563,3.8502,3.8537,3.8501,3.8549,3.8555,3.865,3.8579,3.8608,3.8565,3.8599,3.8642,3.8665,3.8616,3.867,3.871,3.8712,3.8725,3.8737,3.874,3.8714,3.8699,3.8693,3.8709,3.87,3.8662,3.865,3.8638,3.8653,3.8642,3.8618,3.8606,3.8553,3.8572,3.8587,3.8626,3.8622,3.8648,3.878,3.8909,3.8896,3.8933,3.892,3.8913,3.9281,3.9626,3.9723,3.948,3.9284,3.9172,3.9109,3.906,3.8884,3.8752,3.8737,3.8694,3.8626,3.8551,3.8457,3.8495,3.846,3.847,3.8427,3.8403,3.8353,3.8429,3.8373,3.8343,3.8339,3.8331,3.8361,3.8385,3.8369,3.8378,3.8274,3.8289,3.8751,4.0485,4.373,4.6223,4.7951,4.8103,4.2096,3.4887,3.3106,3.2494,3.3182,3.4768,3.5377,3.6926,3.7881,3.8548,3.8737,3.8775,3.8865,3.8939,3.9002,3.9023,3.9014,3.9048,3.9152,3.9277,3.9359,3.9402,3.9432,3.9448,3.9523,3.9561,3.9609,3.9627,3.9738,3.9851,3.99,3.9911,3.9999,4.0126,4.0289,4.0371,4.0474,4.0547,4.0664,4.0819,4.0985,4.1108,4.1225,4.1369,4.1476,4.1649,4.1738,4.1863,4.2018,4.2182,4.2342,4.2398,4.2459,4.2583,4.264,4.2671,4.2618,4.2396,4.218,4.1904,4.1577,4.1187,4.0778,4.057,4.0258,3.9928,3.9649,3.9327,3.9118,3.8929,3.8858,3.8686,3.8622,3.85,3.8463,3.8436,3.8382,3.8319,3.827,3.8288,3.8331,3.8331,3.8312,3.8289,3.8304,3.8303,3.8353,3.8333,3.8336,3.8327,3.8359,3.8425,3.8426,3.8406,3.8392,3.8434,3.8447,3.8405,3.8389,3.8391,3.8473,3.844,3.8433,3.8412,3.8403,3.8401,3.8401,3.8406,3.8349,3.8301,3.8377,3.8416,3.84,3.8309,3.8266,3.8261,3.8294,3.8282,3.8244,3.831,3.8377,3.8484,3.8645,3.8597,3.8595,3.863,3.8566,3.8891,3.9251,3.9352,3.9184,3.8997,3.8831,3.8664,3.8583,3.8448,3.8358,3.8313,3.822,3.8162,3.8159,3.814,3.8146,3.8054,3.8009,3.7978,3.7967,3.7954,3.7942,3.7962,3.7963,3.798,3.799,3.7951,3.7902,3.7912,3.7901,3.7788,3.7763,3.81,3.9665,4.2743,4.5507,4.7096,4.8655,4.3294,3.5845,3.371,3.2779,3.3249,3.4395,3.6226,3.7377,3.8074,3.832,3.8406,3.8475,3.8503,3.8515,3.8531,3.8502,3.8557,3.8628,3.8733,3.8778,3.8777,3.8853,3.8959,3.8979,3.903,3.9044,3.9117,3.9211,3.9311,3.9348,3.9404,3.9451,3.9522,3.9626,3.9724,3.9813,3.9909,4.0038,4.0189,4.0342,4.0455,4.0634,4.0799,4.1011,4.1144,4.13,4.1431,4.1607,4.1773,4.1959,4.2054,4.2132,4.2242,4.2392,4.2494,4.2485,4.2446,4.2334,4.218,4.1922,4.1571,4.1145,4.0732,4.0346,3.9961,3.957,3.923,3.8988,3.8766,3.8629,3.8514,3.8352,3.8214,3.8152,3.8123,3.8057,3.7955,3.794,3.7921,3.7945,3.7893,3.7873,3.7846,3.7876,3.7914,3.7887,3.7835,3.786,3.7864,3.7893,3.7938,3.7904,3.785,3.7884,3.7939,3.7971,3.7902,3.7915,3.792,3.7933,3.7941,3.7898,3.7883,3.7892,3.7931,3.792,3.7861,3.7866,3.786,3.7868,3.7853,3.784,3.7793,3.7791,3.78,3.7795,3.7766,3.7725,3.7719,3.7749,3.7742,3.7736,3.7695,3.7682,3.7741,3.7739,3.7713,3.7701,3.7669,3.7667,3.775,3.7781,3.7824,3.7935,3.8067,3.8056,3.7994,3.7887,3.7994,3.8474,3.881,3.8652,3.8414,3.8264,3.8107,3.8047,3.8032,3.7906,3.7701,3.7685,3.7621,3.7599,3.7566,3.7476,3.7461,3.747,3.7462,3.74,3.7386,3.739,3.7389,3.7419,3.7388,3.7351,3.7353,3.736,3.7399,3.7396,3.734,3.7194,3.732,3.8168,4.0486,4.362,4.5197,4.785,4.5626,3.8314,3.3993,3.2796,3.2512,3.3358,3.5115,3.6315,3.6899,3.7425,3.7764,3.7806,3.7919,3.7833,3.793,3.7928,3.8073,3.8,3.8117,3.8142,3.8276,3.8273,3.8354,3.8321,3.8461,3.8494,3.8597,3.8568,3.8633,3.8664,3.8795,3.8871,3.8964,3.9,3.9086,3.9201,3.9317,3.9409,3.9524,3.9627,3.9811,3.9946,4.0138,4.0269,4.045,4.0622,4.0753,4.0867,4.1023,4.1161,4.1357,4.1534,4.1704,4.1759,4.1885,4.1947,4.1972,4.1989,4.1827,4.1603,4.1325,4.1017,4.0627,4.0195,3.9776,3.9597,3.9262,3.8992,3.8659,3.8379,3.8194,3.8012,3.7912,3.7787,3.7674,3.7584,3.7557,3.7555,3.7467,3.7426,3.7408,3.7443,3.7461,3.7438,3.7417,3.743,3.7414,3.7482,3.749,3.7486,3.7455,3.748,3.7516,3.7531,3.7482,3.7491,3.7489,3.7535,3.7522,3.7489,3.7479,3.7522,3.7507,3.7556,3.7524,3.7502,3.7449,3.7475,3.7501,3.7461,3.7395,3.7425,3.7419,3.7485,3.7431,3.7389,3.7387,3.7428,3.7431,3.7435,3.7406,3.7429,3.7407,3.7448,3.7433,3.7419,3.7399,3.7419,3.7478,3.7527,3.7569,3.7725,3.7787,3.7805,3.7713,3.7632,3.7884,3.8438,3.8513,3.8373,3.8129,3.8046,3.7883,3.7857,3.7801,3.7599,3.7516,3.7465,3.7431,3.7403,3.7334,3.7302,3.7268,3.7284,3.7299,3.7236,3.7232,3.7221,3.7264,3.7235,3.7239,3.7211,3.724,3.7259,3.7293,3.7273,3.7156,3.7015,3.7338,3.8734,4.1576,4.432,4.5844,4.7752,4.2812,3.5484,3.3316,3.2401,3.2798,3.3222,3.4836,3.6213,3.7104,3.7555,3.7679,3.7766,3.7782,3.7775,3.7849,3.7918,3.7981,3.7964,3.8017,3.8101,3.8175,3.826,3.8293,3.8343,3.8396,3.8471,3.8557,3.8591,3.861,3.8681,3.8798,3.8915,3.8983,3.903,3.9123,3.9265,3.9416,3.951,3.9614,3.9717,3.9918,4.0096,4.0232,4.0316,4.0462,4.064,4.086,4.1051,4.1193,4.1306,4.1488,4.1644,4.1827,4.1896,4.198,4.2044,4.2034,4.198,4.1775,4.1522,4.1227,4.0895,4.0693,4.0311,3.9867,3.9532,3.9216,3.8933,3.8665,3.843,3.8203,3.8098,3.7993,3.7912,3.779,3.7729,3.7753,3.7727,3.7674,3.7641,3.7612,3.7651,3.7669,3.7682,3.7643,3.765,3.7636,3.7704,3.7732,3.7715,3.77,3.7727,3.7756,3.7751,3.7716,3.7754,3.7772,3.7817,3.7814,3.7785,3.7784,3.7793,3.7803,3.7805,3.7818,3.7817,3.7807,3.7841,3.7841,3.7832,3.7757,3.7758,3.7792,3.7806,3.7751,3.7739,3.7744,3.7792,3.7783,3.7785,3.7783,3.7748,3.7759,3.7802,3.7796,3.7784,3.7812,3.7887,3.7993,3.8099,3.8155,3.8127,3.8129,3.8077,3.827,3.8718,3.8906,3.8797,3.8688,3.8586,3.8364,3.8291,3.8187,3.8064,3.799,3.7934,3.7837,3.7794,3.7788,3.7792,3.7728,3.7713,3.7721,3.7729,3.7738,3.7689,3.7683,3.7676,3.7695,3.7705,3.77,3.7667,3.7678,3.7674,3.7656,3.7503,3.7654,3.8824,4.1468,4.4517,4.6022,4.829,4.423,3.6768,3.3984,3.2959,3.2779,3.3433,3.4954,3.6496,3.7519,3.7946,3.8184,3.8152,3.8281,3.8215,3.8301,3.8232,3.8382,3.8431,3.8544,3.8537,3.8618,3.8646,3.8779,3.8799,3.8863,3.8849,3.8954,3.9037,3.9158,3.9183,3.9274,3.9332,3.9447,3.951,3.9605,3.9671,3.9803,3.9931,4.0107,4.0233,4.0364,4.0508,4.0604,4.0774,4.0935,4.1037,4.1225,4.1401,4.1597,4.179,4.1902,4.2067,4.2165,4.2342,4.2387,4.2385,4.238,4.2337,4.2271,4.2067,4.1742,4.1569,4.116,4.0766,4.0393,3.998,3.9612,3.929,3.9035,3.8837,3.8592,3.8478,3.8351,3.8251,3.8191,3.8089,3.805,3.8019,3.8009,3.8008,3.7961,3.7905,3.7937,3.7932,3.7979,3.7983,3.7949,3.7987,3.8012,3.8055,3.7975,3.7949,3.7984,3.805,3.8096,3.8116,3.8041,3.8042,3.8059,3.8113,3.8098,3.8099,3.8049,3.8083,3.8028,3.8099,3.8072,3.806,3.8036,3.8076,3.8029,3.8011,3.7921,3.7939,3.7978,3.8008,3.7967,3.7978,3.8015,3.804,3.808,3.7992,3.7911,3.7934,3.8017,3.81,3.8146,3.8292,3.8271,3.8302,3.8305,3.8251,3.8577,3.8956,3.9028,3.8887,3.8692,3.8617,3.8383,3.8339,3.8289,3.8118,3.8099,3.8013,3.7929,3.7928,3.7922,3.7896,3.7811,3.7769,3.781,3.7747,3.7775,3.7741,3.7786,3.7767,3.7701,3.7681,3.7702,3.7674,3.7735,3.771,3.7611,3.7527,3.8036,3.9752,4.291,4.5407,4.7169,4.6961,4.107,3.4463,3.2767,3.2075,3.28,3.3659,3.4947,3.6541,3.7241,3.7928,3.8009,3.8183,3.8173,3.8211,3.8112,3.8265,3.828,3.8439,3.8375,3.8431,3.8461,3.8616,3.8616,3.867,3.8683,3.8835,3.8869,3.8974,3.8956,3.9066,3.9165,3.9286,3.9369,3.9417,3.9464,3.9616,3.9697,3.9842,3.995,4.0077,4.0291,4.0462,4.0558,4.0606,4.0737,4.0863,4.1007,4.1251,4.1403,4.1516,4.1683,4.1856,4.2023,4.2084,4.213,4.2085,4.2037,4.2015,4.1914,4.1567,4.1225,4.086,4.0696,4.0209,3.9812,3.9429,3.9152,3.8859,3.8608,3.8445,3.8216,3.8086,3.7956,3.7875,3.777,3.7661,3.761,3.7584,3.7656,3.7606,3.7598,3.7575,3.7577,3.7542,3.7567,3.7537,3.754,3.7606,3.7676,3.7579,3.7547,3.7555,3.7632,3.7694,3.7661,3.7643,3.7626,3.7674,3.771,3.7711,3.769,3.7628,3.7656,3.7644,3.7674,3.7623,3.76,3.7559,3.7588,3.7579,3.7565,3.7526,3.7531,3.7521,3.7543,3.7518,3.7539,3.7505,3.7542,3.7549,3.7574,3.7563,3.7592,3.7713,3.7833,3.7846,3.7871,3.789,3.7847,3.8097,3.8474,3.8629,3.8503,3.8292,3.8184,3.8032,3.7962,3.7786,3.7699,3.7698,3.7646,3.7569,3.7502,3.7482,3.7439,3.7434,3.7441,3.7429,3.738,3.7393,3.7364,3.7303,3.7303,3.7319,3.7372,3.7383,3.7336,3.7335,3.733,3.7324,3.7233,3.7519,3.8759,4.1608,4.4626,4.6358,4.7944,4.3528,3.5487,3.2566,3.1648,3.2022,3.3338,3.4723,3.6199,3.7127,3.7444,3.7698,3.7756,3.7838,3.7912,3.791,3.7944,3.7992,3.8104,3.8149,3.8197,3.8211,3.8243,3.8338,3.8424,3.8482,3.8525,3.8561,3.8683,3.8737,3.8812,3.8855,3.8936,3.9013,3.9103,3.9228,3.9289,3.9378,3.9513,3.9629,3.9755,3.9884,4.0018,4.0191,4.0396,4.0633,4.0714,4.0879,4.0942,4.1069,4.1244,4.1373,4.1429,4.1568,4.1665,4.1755,4.1803,4.1778,4.1707,4.1547,4.1292,4.1017,4.0596,4.0195,3.9856,3.9507,3.9158,3.896,3.8695,3.843,3.8292,3.8091,3.7914,3.7767,3.7751,3.7705,3.7649,3.7594,3.7556,3.7524,3.7537,3.7517,3.7472,3.7474,3.7513,3.7531,3.7572,3.7555,3.7591,3.7607,3.7653,3.7703,3.7673,3.766,3.7644,3.7696,3.775,3.7736,3.7746,3.7739,3.7762,3.7798,3.779,3.7772,3.7802,3.7802,3.7805,3.7787,3.7725,3.7686,3.7689,3.7733,3.7715,3.7697,3.7669,3.7682,3.7733,3.7743,3.7743,3.7838,3.7968,3.806,3.804,3.8024,3.7962,3.8097,3.85,3.8845,3.8775,3.8512,3.836,3.8215,3.8165,3.803,3.7829,3.7805,3.7774,3.7732,3.7664,3.7583,3.7561,3.7596,3.76,3.7597,3.7556,3.7513,3.7552,3.7569,3.7549,3.7502,3.7505,3.7533,3.757,3.7578,3.7535,3.744,3.7348,3.7712,3.931,4.2276,4.4971,4.6666,4.8353,4.8484,3.9091,3.4026,3.3228,3.2524,3.3728,3.5105,3.6713,3.735,3.8086,3.7924,3.8227,3.7983,3.8261,3.8114,3.8362,3.818,3.8428,3.83,3.8537,3.8479,3.8653,3.8532,3.8766,3.8703,3.8944,3.8891,3.9013,3.8994,3.9166,3.9208,3.9364,3.9357,3.9508,3.9585,3.9805,3.9921,4.0037,4.0092,4.0287,4.0404,4.059,4.07,4.085,4.1024,4.1209,4.1379,4.1511,4.1657,4.1859,4.202,4.2156,4.2304,4.2352,4.246,4.2501,4.2511,4.2381,4.2201,4.1921,4.1649,4.1259,4.0875,4.0414,4.0037,3.9693,3.9411,3.9056,3.8813,3.8573,3.85,3.8359,3.8263,3.8113,3.8091,3.8033,3.8097,3.8009,3.797,3.7877,3.793,3.7921,3.7949,3.7845,3.7847,3.785,3.7915,3.787,3.7893,3.7851,3.7943,3.7931,3.7981,3.79,3.7939,3.7918,3.8031,3.8,3.8026,3.7973,3.8005,3.8018,3.8065,3.8002,3.801,3.7983,3.8042,3.8018,3.8008,3.7973,3.7989,3.7975,3.8017,3.7945,3.7963,3.7959,3.8088,3.8207,3.8339,3.8276,3.829,3.8268,3.8433,3.8801,3.9099,3.9001,3.883,3.8688,3.8503,3.8385,3.8324,3.8124,3.8127,3.8078,3.7962,3.7894,3.7844,3.7851,3.7848,3.7773,3.7774,3.7758,3.777,3.7783,3.7755,3.7725,3.7697,3.7762,3.7764,3.7753,3.7712,3.7754,3.7738,3.7671,3.7857,3.8774,4.1167,4.4288,4.5856,4.8282,4.5148,3.7775,3.4114,3.3154,3.3071,3.3877,3.571,3.6936,3.7834,3.8121,3.8187,3.8192,3.8282,3.8318,3.8379,3.8369,3.8436,3.847,3.8569,3.8613,3.8684,3.8697,3.8784,3.8855,3.8895,3.894,3.9003,3.906,3.9179,3.9242,3.9242,3.9296,3.9372,3.9497,3.9597,3.9698,3.9743,3.99,4.0049,4.0204,4.0323,4.0448,4.0646,4.0844,4.1042,4.1237,4.136,4.1538,4.1729,4.1842,4.1978,4.2105,4.2218,4.2393,4.2455,4.2537,4.2438,4.2346,4.2179,4.1976,4.1593,4.1204,4.0767,4.0407,4.0027,3.9707,3.9307,3.9002,3.8833,3.8729,3.8507,3.8345,3.8164,3.8101,3.7979,3.797,3.7883,3.7901,3.7822,3.7832,3.7856,3.7839,3.7812,3.7851,3.7888,3.7913,3.7841,3.7835,3.7847,3.7856,3.7862,3.7877,3.7874,3.7886,3.7927,3.7955,3.7903,3.7914,3.785,3.7944,3.7952,3.7949,3.7854,3.7863,3.7878,3.7892,3.7853,3.7856,3.7802,3.7805,3.7852,3.7831,3.7829,3.7817,3.7845,3.7941,3.7992,3.8019,3.8016,3.807,3.812,3.8235,3.8628,3.8911,3.8927,3.8802,3.8585,3.8359,3.8238,3.8157,3.8067,3.7988,3.7917,3.7787,3.7687,3.7637,3.7656,3.7649,3.76,3.7609,3.7628,3.7553,3.7556,3.7493,3.7441,3.747,3.7487,3.7453,3.7419,3.7524,3.7587,3.7502,3.7373,3.7466,3.8195,4.0392,4.3605,4.5586,4.745,4.5006,3.7939,3.3126,3.1888,3.1604,3.2291,3.3689,3.5289,3.6682,3.738,3.774,3.7731,3.784,3.7802,3.7859,3.7923,3.7996,3.8035,3.8067,3.8083,3.8135,3.817,3.8316,3.8371,3.8425,3.8404,3.8411,3.8511,3.8632,3.8719,3.8806,3.8853,3.8989,3.9079,3.9063,3.9112,3.9294,3.9445,3.9535,3.9641,3.9686,3.9866,3.9975,4.0175,4.0394,4.055,4.0646,4.0783,4.0924,4.118,4.1299,4.146,4.1545,4.1659,4.1781,4.1854,4.1832,4.1859,4.1734,4.1555,4.1205,4.0949,4.0501,4.0076,3.97,3.9332,3.8956,3.8663,3.8411,3.8193,3.7879,3.77,3.7615,3.7493,3.7427,3.735,3.7279,3.7227,3.7203,3.7276,3.7318,3.7199,3.7174,3.7162,3.7164
