19.484,19.492,19.496,19.489,19.482,19.48,19.486,19.493,19.49,19.483,19.485,19.495,19.502,19.506,19.508,19.513,19.53,19.545,19.536,19.529,19.532,19.543,19.557,19.577,19.571,19.559,19.56,19.56,19.549,19.531,19.525,19.511,19.491,19.477,19.459,19.451,19.452,19.462,19.464,19.458,19.456,19.458,19.461,19.465,19.464,19.456,19.454,19.45,19.435,19.423,19.486,19.644,19.867,19.875,20.157,20.254,19.97,19.807,19.67,19.467,19.273,19.287,19.284,19.344,19.421,19.475,19.502,19.522,19.53,19.534,19.528,19.54,19.544,19.562,19.568,19.572,19.572,19.582,19.591,19.6,19.604,19.61,19.616,19.627,19.637,19.634,19.639,19.649,19.666,19.677,19.68,19.684,19.694,19.713,19.733,19.748,19.759,19.782,19.809,19.831,19.852,19.863,19.885,19.904,19.922,19.933,19.935,19.939,19.948,19.951,19.95,19.935,19.925,19.911,19.902,19.879,19.848,19.818,19.792,19.771,19.748,19.712,19.688,19.668,19.656,19.641,19.619,19.607,19.602,19.601,19.602,19.59,19.578,19.573,19.569,19.567,19.563,19.552,19.551,19.552,19.558,19.551,19.546,19.546,19.549,19.554,19.551,19.543,19.545,19.554,19.563,19.559,19.552,19.554,19.564,19.569,19.574,19.568,19.568,19.573,19.578,19.57,19.566,19.564,19.566,19.571,19.57,19.565,19.558,19.553,19.556,19.558,19.555,19.545,19.545,19.548,19.55,19.539,19.532,19.534,19.541,19.548,19.541,19.536,19.539,19.545,19.547,19.542,19.526,19.521,19.522,19.526,19.52,19.51,19.511,19.51,19.514,19.509,19.497,19.495,19.503,19.512,19.507,19.496,19.493,19.49,19.496,19.494,19.491,19.483,19.487,19.489,19.493,19.492,19.486,19.482,19.486,19.488,19.481,19.478,19.48,19.494,19.51,19.526,19.526,19.526,19.517,19.532,19.535,19.546,19.586,19.591,19.579,19.57,19.553,19.55,19.541,19.535,19.517,19.49,19.474,19.479,19.484,19.49,19.491,19.488,19.491,19.504,19.506,19.499,19.498,19.504,19.515,19.524,19.508,19.486,19.485,19.558,19.718,19.927,20.122,20.284,20.239,20.09,19.897,19.714,19.545,19.408,19.457,19.415,19.381,19.436,19.496,19.556,19.568,19.572,19.58,19.586,19.598,19.602,19.602,19.61,19.612,19.622,19.618,19.611,19.621,19.628,19.64,19.649,19.649,19.657,19.668,19.683,19.691,19.7,19.701,19.724,19.744,19.755,19.765,19.768,19.786,19.815,19.832,19.846,19.859,19.877,19.904,19.918,19.933,19.942,19.952,19.96,19.965,19.959,19.958,19.956,19.954,19.95,19.943,19.917,19.891,19.871,19.848,19.82,19.784,19.762,19.738,19.719,19.705,19.681,19.663,19.658,19.657,19.641,19.624,19.613,19.62,19.624,19.617,19.616,19.612,19.611,19.617,19.615,19.607,19.6,19.599,19.609,19.613,19.614,19.615,19.642,19.679,19.703,19.71,19.714,19.717,19.723,19.734,19.737,19.726,19.722,19.722,19.723,19.717,19.708,19.709,19.711,19.717,19.719,19.706,19.696,19.704,19.696,19.679,19.661,19.654,19.651,19.647,19.634,19.614,19.599,19.585,19.575,19.563,19.544,19.533,19.529,19.527,19.519,19.502,19.496,19.494,19.496,19.496,19.489,19.486,19.481,19.485,19.489,19.48,19.483,19.495,19.509,19.529,19.54,19.532,19.523,19.531,19.54,19.541,19.551,19.578,19.574,19.573,19.576,19.561,19.546,19.544,19.538,19.519,19.492,19.469,19.468,19.472,19.467,19.462,19.453,19.461,19.468,19.462,19.456,19.454,19.453,19.458,19.46,19.442,19.417,19.398,19.435,19.563,19.77,19.971,20.161,20.218,19.992,19.798,19.65,19.422,19.346,19.388,19.33,19.303,19.346,19.418,19.488,19.509,19.514,19.521,19.529,19.54,19.544,19.54,19.547,19.553,19.565,19.563,19.567,19.571,19.584,19.592,19.595,19.592,19.597,19.597,19.611,19.618,19.617,19.62,19.635,19.653,19.665,19.671,19.685,19.701,19.725,19.744,19.755,19.773,19.795,19.808,19.831,19.844,19.849,19.862,19.872,19.885,19.881,19.873,19.873,19.869,19.865,19.84,19.811,19.787,19.762,19.739,19.703,19.67,19.643,19.631,19.619,19.599,19.572,19.554,19.543,19.541,19.531,19.513,19.502,19.508,19.505,19.501,19.489,19.487,19.487,19.489,19.488,19.481,19.479,19.478,19.481,19.486,19.481,19.477,19.478,19.484,19.49,19.484,19.478,19.48,19.488,19.493,19.49,19.485,19.487,19.496,19.497,19.496,19.488,19.485,19.491,19.496,19.49,19.484,19.479,19.485,19.49,19.488,19.479,19.476,19.478,19.478,19.473,19.462,19.46,19.46,19.46,19.464,19.452,19.445,19.447,19.451,19.453,19.443,19.44,19.438,19.439,19.438,19.426,19.421,19.422,19.423,19.426,19.416,19.412,19.412,19.416,19.418,19.413,19.403,19.399,19.407,19.421,19.426,19.428,19.441,19.466,19.467,19.465,19.468,19.479,19.489,19.508,19.52,19.509,19.499,19.5,19.502,19.497,19.483,19.474,19.459,19.439,19.415,19.4,19.396,19.4,19.408,19.41,19.401,19.4,19.401,19.406,19.409,19.402,19.394,19.385,19.379,19.362,19.362,19.432,19.597,19.811,20.023,20.174,20.072,19.845,19.714,19.546,19.237,19.173,19.206,19.244,19.307,19.368,19.423,19.434,19.456,19.456,19.469,19.46,19.476,19.481,19.505,19.502,19.505,19.5,19.513,19.52,19.529,19.524,19.534,19.532,19.549,19.555,19.563,19.563,19.577,19.59,19.609,19.613,19.624,19.639,19.658,19.678,19.691,19.706,19.73,19.757,19.78,19.795,19.803,19.819,19.842,19.859,19.873,19.873,19.88,19.886,19.892,19.889,19.87,19.855,19.842,19.824,19.791,19.756,19.723,19.701,19.676,19.664,19.629,19.604,19.585,19.573,19.56,19.544,19.53,19.525,19.525,19.524,19.516,19.51,19.51,19.513,19.513,19.506,19.501,19.505,19.506,19.511,19.506,19.5,19.496,19.504,19.509,19.51,19.504,19.504,19.508,19.514,19.512,19.505,19.501,19.507,19.515,19.518,19.51,19.51,19.513,19.516,19.515,19.512,19.504,19.511,19.513,19.519,19.512,19.51,19.513,19.518,19.519,19.51,19.502,19.504,19.508,19.509,19.501,19.496,19.49,19.497,19.501,19.493,19.489,19.487,19.488,19.492,19.488,19.481,19.482,19.486,19.49,19.48,19.474,19.476,19.48,19.483,19.485,19.478,19.474,19.475,19.482,19.483,19.475,19.474,19.479,19.483,19.481,19.479,19.474,19.482,19.485,19.485,19.476,19.475,19.481,19.487,19.497,19.501,19.505,19.522,19.517,19.517,19.52,19.525,19.53,19.549,19.57,19.55,19.544,19.542,19.543,19.53,19.522,19.505,19.492,19.467,19.449,19.438,19.432,19.428,19.433,19.44,19.438,19.435,19.433,19.44,19.444,19.444,19.432,19.424,19.413,19.4,19.412,19.451,19.588,19.806,20.009,20.194,20.184,19.895,19.756,19.638,19.339,19.238,19.255,19.276,19.366,19.427,19.473,19.488,19.497,19.508,19.511,19.511,19.511,19.516,19.529,19.54,19.54,19.534,19.537,19.549,19.561,19.568,19.567,19.568,19.577,19.586,19.589,19.588,19.598,19.605,19.621,19.632,19.641,19.65,19.665,19.688,19.706,19.72,19.739,19.764,19.791,19.816,19.823,19.839,19.861,19.878,19.889,19.886,19.888,19.889,19.894,19.895,19.89,19.872,19.853,19.838,19.818,19.783,19.753,19.724,19.698,19.678,19.65,19.621,19.599,19.589,19.578,19.568,19.552,19.539,19.534,19.535,19.535,19.525,19.519,19.518,19.527,19.523,19.512,19.506,19.511,19.518,19.519,19.512,19.508,19.514,19.516,19.521,19.52,19.517,19.524,19.532,19.539,19.535,19.528,19.531,19.542,19.547,19.543,19.539,19.537,19.543,19.55,19.544,19.536,19.538,19.539,19.546,19.546,19.538,19.539,19.541,19.543,19.541,19.529,19.525,19.526,19.53,19.528,19.52,19.515,19.52,19.524,19.521,19.513,19.514,19.512,19.515,19.517,19.512,19.507,19.508,19.512,19.518,19.51,19.51,19.513,19.518,19.526,19.52,19.517,19.523,19.528,19.531,19.527,19.521,19.52,19.529,19.536,19.532,19.527,19.523,19.527,19.535,19.531,19.525,19.525,19.531,19.537,19.534,19.528,19.529,19.535,19.541,19.546,19.54,19.535,19.534,19.541,19.54,19.535,19.532,19.532,19.54,19.539,19.529,19.525,19.525,19.533,19.541,19.535,19.547,19.551,19.563,19.584,19.577,19.567,19.578,19.592,19.604,19.63,19.633,19.621,19.627,19.626,19.615,19.599,19.597,19.587,19.573,19.539,19.532,19.525,19.529,19.535,19.535,19.533,19.529,19.534,19.538,19.541,19.537,19.537,19.54,19.539,19.522,19.504,19.524,19.641,19.843,19.957,20.138,20.311,20.225,19.967,19.825,19.7,19.404,19.35,19.372,19.397,19.476,19.529,19.58,19.601,19.611,19.612,19.611,19.617,19.623,19.635,19.638,19.635,19.636,19.651,19.663,19.669,19.667,19.673,19.684,19.695,19.697,19.695,19.696,19.712,19.725,19.736,19.737,19.749,19.759,19.774,19.793,19.8,19.813,19.835,19.862,19.886,19.901,19.917,19.943,19.964,19.982,19.982,19.99,20.002,20.01,20.015,20.006,20,19.997,19.988,19.979,19.955,19.926,19.894,19.869,19.844,19.815,19.785,19.759,19.739,19.723,19.704,19.688,19.675,19.67,19.667,19.662,19.65,19.639,19.638,19.641,19.64,19.628,19.626,19.625,19.631,19.632,19.624,19.623,19.626,19.628,19.631,19.622,19.623,19.629,19.633,19.642,19.638,19.633,19.64,19.644,19.654,19.653,19.649,19.649,19.656,19.659,19.65,19.644,19.645,19.652,19.654,19.649,19.645,19.644,19.649,19.653,19.653,19.644,19.638,19.64,19.641,19.638,19.629,19.626,19.63,19.637,19.632,19.624,19.622,19.628,19.631,19.633,19.629,19.623,19.621,19.625,19.629,19.62,19.612,19.613,19.623,19.625,19.621,19.613,19.612,19.617,19.621,19.614,19.613,19.616,19.62,19.627,19.622,19.615,19.61,19.621,19.621,19.62,19.613,19.613,19.612,19.615,19.609,19.603,19.607,19.611,19.618,19.614,19.607,19.611,19.613,19.613,19.624,19.62,19.614,19.617,19.619,19.627,19.625,19.626,19.624,19.63,19.639,19.638,19.642,19.656,19.676,19.68,19.667,19.673,19.682,19.689,19.724,19.74,19.713,19.705,19.707,19.702,19.688,19.673,19.667,19.652,19.625,19.609,19.597,19.595,19.598,19.605,19.604,19.597,19.598,19.598,19.6,19.603,19.598,19.592,19.588,19.583,19.571,19.548,19.611,19.758,19.976,20.173,20.34,20.292,20.017,19.873,19.817,19.617,19.433,19.444,19.442,19.471,19.55,19.597,19.64,19.654,19.669,19.666,19.672,19.682,19.693,19.697,19.708,19.7,19.704,19.71,19.72,19.727,19.722,19.734,19.742,19.754,19.752,19.748,19.753,19.768,19.78,19.789,19.793,19.803,19.816,19.834,19.847,19.856,19.863,19.887,19.907,19.934,19.952,19.959,19.978,19.998,20.016,20.023,20.027,20.037,20.045,20.044,20.032,20.022,20.022,20.005,19.994,19.974,19.953,19.917,19.896,19.871,19.84,19.81,19.791,19.778,19.763,19.742,19.723,19.711,19.705,19.698,19.695,19.68,19.677,19.685,19.689,19.686,19.676,19.671,19.672,19.686,19.682,19.675,19.677,19.68,19.684,19.689,19.686,19.683,19.688,19.699,19.706,19.699,19.697,19.704,19.707,19.717,19.712,19.714,19.709,19.717,19.713,19.713,19.703,19.708,19.721,19.72,19.711,19.702,19.703,19.704,19.713,19.708,19.696,19.697,19.7,19.7,19.702,19.705,19.692,19.694,19.7,19.697,19.684,19.688,19.689,19.692,19.697,19.682,19.675,19.677,19.69,19.683,19.683,19.68,19.674,19.679,19.681,19.677,19.67,19.669,19.676,19.68,19.671,19.662,19.666,19.674,19.683,19.673,19.675,19.675,19.68,19.684,19.675,19.672,19.673,19.683,19.697,19.706,19.711,19.723,19.721,19.722,19.728,19.726,19.731,19.768,19.774,19.762,19.762,19.757,19.756,19.751,19.748,19.724,19.706,19.674,19.663,19.662,19.656,19.645,19.651,19.653,19.656,19.648,19.637,19.645,19.646,19.652,19.639,19.634,19.615,19.601,19.608,19.685,19.857,20.073,20.286,20.395,20.278,20.047,19.845,19.687,19.537,19.575,19.566,19.488,19.52,19.59,19.616,19.658,19.675,19.683,19.701,19.7,19.705,19.695,19.71,19.711,19.723,19.716,19.724,19.725,19.743,19.743,19.744,19.74,19.75,19.75,19.765,19.763,19.768,19.776,19.795,19.812,19.825,19.824,19.837,19.857,19.879,19.891,19.905,19.924,19.956,19.979,19.994,20.006,20.013,20.026,20.046,20.049,20.047,20.044,20.048,20.047,20.037,20.014,19.99,19.972,19.948,19.922,19.89,19.861,19.838,19.816,19.791,19.774,19.749,19.732,19.724,19.715,19.701,19.688,19.682,19.686,19.69,19.682,19.673,19.672,19.673,19.675,19.669,19.66,19.66,19.664,19.667,19.66,19.652,19.653,19.655,19.663,19.66,19.653,19.646,19.651,19.659,19.66,19.65,19.653,19.662,19.669,19.665,19.656,19.653,19.66,19.664,19.669,19.657,19.653,19.654,19.658,19.66,19.65,19.644,19.646,19.646,19.648,19.638,19.629,19.627,19.625,19.626,19.619,19.613,19.612,19.611,19.616,19.609,19.602,19.599,19.605,19.607,19.601,19.589,19.59,19.591,19.597,19.592,19.587,19.585,19.591,19.6,19.597,19.591,19.588,19.589,19.597,19.596,19.588,19.581,19.586,19.595,19.606,19.609,19.618,19.639,19.649,19.643,19.639,19.641,19.653,19.668,19.683,19.685,19.67,19.662,19.666,19.665,19.652,19.644,19.631,19.614,19.585,19.565,19.559,19.56,19.563,19.567,19.563,19.556,19.556,19.557,19.563,19.562,19.552,19.544,19.538,19.522,19.51,19.567,19.713,19.929,20.141,20.32,20.297,20.044,19.908,19.769,19.444,19.349,19.369,19.377,19.445,19.531,19.59,19.61,19.624,19.63,19.641,19.637,19.642,19.647,19.662,19.668,19.668,19.663,19.674,19.681,19.691,19.689,19.688,19.692,19.701,19.713,19.718,19.719,19.723,19.739,19.756,19.763,19.77,19.779,19.801,19.82,19.838,19.847,19.868,19.894,19.917,19.93,19.942,19.961,19.981,20,20.017,20.02,20.021,20.029,20.03,20.031,20.014,19.999,19.979,19.965,19.94,19.904,19.867,19.844,19.83,19.81,19.776,19.747,19.724,19.709,19.694,19.683,19.658,19.65,19.646,19.651,19.642,19.635,19.631,19.633,19.635,19.631,19.619,19.617,19.612,19.617,19.619,19.613,19.609,19.613,19.62,19.615,19.609,19.609,19.611,19.619,19.62,19.614,19.612,19.614,19.621,19.625,19.623,19.622,19.625,19.634,19.636,19.633,19.63,19.629,19.632,19.636,19.632,19.63,19.628,19.635,19.639,19.635,19.629,19.625,19.63,19.632,19.625,19.618,19.615,19.613,19.617,19.617,19.612,19.61,19.614,19.619,19.618,19.612,19.606,19.61,19.615,19.615,19.608,19.604,19.607,19.612,19.617,19.612,19.609,19.611,19.619,19.622,19.616,19.606,19.611,19.616,19.615,19.611,19.609,19.611,19.616,19.617,19.614,19.609,19.607,19.611,19.619,19.615,19.609,19.611,19.62,19.635,19.643,19.649,19.665,19.663,19.666,19.672,19.676,19.679,19.699,19.717,19.712,19.697,19.695,19.69,19.684,19.681,19.667,19.648,19.624,19.606,19.606,19.601,19.596,19.595,19.6,19.604,19.601,19.597,19.599,19.604,19.605,19.6,19.59,19.576,19.563,19.56,19.628,19.78,19.996,20.2,20.375,20.319,20.045,19.907,19.772,19.479,19.402,19.418,19.444,19.496,19.571,19.636,19.648,19.661,19.661,19.679,19.679,19.683,19.683,19.698,19.702,19.714,19.704,19.711,19.72,19.74,19.741,19.743,19.738,19.747,19.754,19.77,19.763,19.77,19.782,19.799,19.81,19.823,19.831,19.848,19.868,19.891,19.907,19.924,19.944,19.971,19.997,20.005,20.021,20.027,20.045,20.063,20.081,20.082,20.078,20.083,20.085,20.075,20.056,20.039,20.019,19.998,19.97,19.93,19.9,19.877,19.864,19.844,19.809,19.784,19.765,19.756,19.747,19.727,19.709,19.705,19.705,19.705,19.695,19.689,19.688,19.689,19.689,19.679,19.67,19.668,19.672,19.676,19.676,19.668,19.667,19.671,19.678,19.675,19.665,19.668,19.681,19.689,19.688,19.685,19.686,19.691,19.699,19.696,19.694,19.692,19.69,19.691,19.697,19.687,19.68,19.681,19.685,19.686,19.686,19.679,19.682,19.689,19.691,19.681,19.675,19.677,19.683,19.683,19.677,19.67,19.67,19.673,19.677,19.673,19.667,19.665,19.664,19.668,19.662,19.658,19.654,19.654,19.662,19.654,19.648,19.643,19.646,19.651,19.649,19.641,19.637,19.645,19.648,19.646,19.64,19.635,19.641,19.65,19.65,19.643,19.642,19.646,19.65,19.651,19.643,19.641,19.641,19.645,19.65,19.645,19.639,19.637,19.641,19.647,19.638,19.634,19.634,19.638,19.641,19.639,19.633,19.637,19.647,19.661,19.663,19.665,19.682,19.682,19.684,19.691,19.694,19.694,19.726,19.744,19.729,19.723,19.719,19.712,19.709,19.705,19.686,19.659,19.633,19.63,19.63,19.626,19.619,19.616,19.628,19.631,19.618,19.612,19.621,19.625,19.625,19.619,19.61,19.595,19.583,19.6,19.696,19.881,20.091,20.199,20.382,20.378,20.056,19.911,19.798,19.526,19.427,19.451,19.461,19.548,19.615,19.668,19.677,19.688,19.694,19.71,19.705,19.706,19.703,19.715,19.726,19.732,19.732,19.733,19.739,19.752,19.763,19.76,19.765,19.772,19.786,19.793,19.791,19.801,19.812,19.828,19.845,19.846,19.85,19.866,19.885,19.907,19.921,19.931,19.955,19.982,20.006,20.025,20.037,20.052,20.071,20.091,20.097,20.097,20.098,20.099,20.102,20.093,20.078,20.057,20.039,20.02,19.989,19.948,19.915,19.887,19.863,19.838,19.802,19.773,19.76,19.748,19.739,19.719,19.711,19.709,19.705,19.704,19.693,19.685,19.682,19.681,19.68,19.668,19.659,19.656,19.663,19.673,19.667,19.665,19.665,19.671,19.673,19.669,19.668,19.665,19.672,19.68,19.68,19.672,19.673,19.679,19.69,19.686,19.68,19.676,19.68,19.683,19.68,19.674,19.673,19.677,19.683,19.68,19.676,19.67,19.672,19.682,19.681,19.671,19.663,19.663,19.667,19.668,19.659,19.658,19.661,19.663,19.666,19.658,19.655,19.654,19.656,19.661,19.657,19.647,19.643,19.647,19.653,19.652,19.644,19.644,19.648,19.653,19.647,19.644,19.643,19.647,19.655,19.653,19.642,19.642,19.643,19.647,19.648,19.642,19.639,19.643,19.652,19.653,19.644,19.643,19.642,19.644,19.653,19.647,19.645,19.65,19.654,19.654,19.647,19.644,19.643,19.65,19.656,19.647,19.64,19.64,19.647,19.648,19.64,19.636,19.643,19.656,19.67,19.677,19.684,19.68,19.681,19.699,19.705,19.7,19.735,19.75,19.74,19.735,19.726,19.715,19.709,19.715,19.709,19.682,19.645,19.637,19.637,19.642,19.635,19.636,19.639,19.638,19.642,19.635,19.632,19.629,19.632,19.634,19.626,19.613,19.596,19.596,19.669,19.827,20.041,20.235,20.403,20.309,20.037,19.888,19.832,19.613,19.456,19.478,19.464,19.512,19.591,19.66,19.685,19.698,19.698,19.713,19.72,19.727,19.725,19.731,19.734,19.748,19.748,19.75,19.752,19.764,19.775,19.781,19.781,19.781,19.787,19.805,19.808,19.811,19.818,19.83,19.852,19.865,19.874,19.886,19.9,19.92,19.94,19.946,19.959,19.979,20.013,20.035,20.057,20.072,20.087,20.108,20.122,20.121,20.115,20.12,20.116,20.12,20.105,20.081,20.064,20.04,20.029,20.003,19.97,19.937,19.918,19.896,19.877,19.848,19.828,19.808,19.799,19.794,19.781,19.767,19.762,19.765,19.763,19.748,19.745,19.741,19.741,19.745,19.735,19.732,19.729,19.739,19.75,19.74,19.729,19.729,19.737,19.747,19.745,19.742,19.743,19.748,19.76,19.756,19.753,19.751,19.754,19.769,19.765,19.755,19.758,19.756,19.755,19.762,19.748,19.745,19.749,19.751,19.757,19.751,19.747,19.753,19.759,19.756,19.747,19.744,19.743,19.745,19.751,19.74,19.74,19.739,19.742,19.747,19.739,19.739,19.735,19.743,19.744,19.734,19.737,19.737,19.739,19.741,19.738,19.74,19.741,19.744,19.748,19.746,19.742,19.734,19.74,19.745,19.746,19.738,19.744,19.752,19.756,19.757,19.75,19.75,19.748,19.757,19.765,19.755,19.753,19.755,19.762,19.77,19.768,19.77,19.787,19.805,19.806,19.793,19.802,19.808,19.841,19.866,19.856,19.837,19.833,19.834,19.831,19.818,19.808,19.79,19.775,19.754,19.737,19.735,19.731,19.736,19.739,19.737,19.729,19.728,19.735,19.742,19.737,19.732,19.724,19.723,19.708,19.697,19.697,19.794,19.996,20.212,20.423,20.499,20.312,20.102,19.921,19.738,19.615,19.662,19.651,19.611,19.625,19.685,19.739,19.779,19.806,19.814,19.821,19.807,19.82,19.824,19.839,19.834,19.837,19.834,19.849,19.856,19.861,19.856,19.863,19.868,19.877,19.878,19.879,19.876,19.889,19.899,19.911,19.913,19.929,19.944,19.964,19.973,19.985,19.999,20.023,20.045,20.068,20.072,20.091,20.113,20.13,20.148,20.155,20.158,20.163,20.17,20.172,20.157,20.142,20.129,20.114,20.09,20.053,20.018,19.988,19.966,19.955,19.929,19.896,19.873,19.85,19.835,19.819,19.795,19.785,19.786,19.78,19.775,19.766,19.757,19.76,19.766,19.757,19.752,19.746,19.748,19.751,19.753,19.746,19.744,19.741,19.752,19.756,19.753,19.752,19.759,19.76,19.768,19.762,19.761,19.765,19.773,19.778,19.776,19.773,19.772,19.774,19.781,19.776,19.774,19.771,19.778,19.775,19.773,19.765,19.763,19.761,19.764,19.758,19.749,19.744,19.747,19.747,19.745,19.737,19.734,19.737,19.743,19.747,19.739,19.741,19.742,19.744,19.747,19.733,19.735,19.741,19.742,19.741,19.73,19.727,19.728,19.729,19.735,19.729,19.723,19.725,19.73,19.734,19.729,19.726,19.727,19.733,19.735,19.729,19.726,19.725,19.73,19.731,19.728,19.723,19.724,19.728,19.735,19.743,19.741,19.749,19.762,19.789,19.79,19.777,19.779,19.794,19.804,19.816,19.827,19.815,19.812,19.812,19.803,19.782,19.778,19.779,19.77,19.75,19.715,19.698,19.695,19.701,19.702,19.698,19.692,19.693,19.696,19.7,19.688,19.684,19.687,19.688,19.674,19.662,19.648,19.698,19.84,20.06,20.261,20.441,20.471,20.2,20.073,19.93,19.598,19.475,19.5,19.537,19.618,19.675,19.724,19.749,19.754,19.765,19.758,19.765,19.77,19.785,19.795,19.795,19.796,19.803,19.811,19.821,19.815,19.821,19.828,19.838,19.846,19.843,19.848,19.855,19.863,19.88,19.886,19.892,19.904,19.923,19.942,19.955,19.963,19.981,20.003,20.034,20.053,20.069,20.089,20.116,20.14,20.149,20.154,20.161,20.174,20.183,20.184,20.174,20.163,20.159,20.145,20.124,20.091,20.059,20.037,20.009,19.981,19.948,19.921,19.901,19.887,19.879,19.855,19.835,19.825,19.82,19.814,19.803,19.793,19.791,19.794,19.795,19.788,19.779,19.781,19.784,19.786,19.774,19.769,19.772,19.775,19.779,19.778,19.772,19.771,19.775,19.782,19.786,19.782,19.784,19.789,19.797,19.799,19.798,19.798,19.803,19.811,19.813,19.805,19.802,19.804,19.807,19.809,19.804,19.802,19.803,19.809,19.812,19.806,19.801,19.803,19.805,19.808,19.798,19.791,19.787,19.792,19.795,19.788,19.784,19.78,19.781,19.785,19.782,19.774,19.77,19.775,19.776,19.77,19.769,19.763,19.768,19.772,19.768,19.759,19.76,19.766,19.77,19.77,19.76,19.758,19.762,19.769,19.77,19.761,19.76,19.763,19.767,19.77,19.761,19.76,19.756,19.765,19.771,19.763,19.762,19.764,19.766,19.769,19.764,19.756,19.755,19.76,19.765,19.76,19.752,19.752,19.76,19.764,19.768,19.777,19.787,19.81,19.81,19.802,19.803,19.809,19.818,19.835,19.862,19.847,19.831,19.839,19.834,19.822,19.806,19.799,19.784,19.763,19.741,19.727,19.724,19.728,19.735,19.734,19.73,19.727,19.725,19.73,19.736,19.728,19.722,19.719,19.712,19.7,19.686,19.747,19.9,20.125,20.333,20.505,20.454,20.176,20.04,19.972,19.745,19.539,19.539,19.556,19.617,19.7,19.749,19.779,19.794,19.805,19.805,19.803,19.807,19.82,19.828,19.832,19.826,19.827,19.829,19.841,19.847,19.846,19.849,19.856,19.866,19.876,19.873,19.876,19.888,19.901,19.918,19.925,19.932,19.948,19.969,19.988,19.998,20.005,20.025,20.05,20.076,20.1,20.114,20.133,20.155,20.177,20.184,20.19,20.199,20.208,20.213,20.204,20.192,20.179,20.166,20.145,20.11,20.094,20.063,20.032,20.005,19.976,19.945,19.916,19.896,19.885,19.868,19.849,19.836,19.826,19.825,19.821,19.808,19.798,19.797,19.8,19.802,19.791,19.787,19.784,19.785,19.791,19.786,19.781,19.78,19.787,19.794,19.787,19.785,19.786,19.794,19.799,19.801,19.796,19.801,19.803,19.811,19.813,19.809,19.803,19.809,19.812,19.812,19.798,19.795,19.8,19.804,19.801,19.795,19.794,19.798,19.805,19.803,19.797,19.792,19.794,19.8,19.797,19.789,19.784,19.783,19.788,19.791,19.787,19.781,19.781,19.788,19.793,19.784,19.777,19.774,19.776,19.779,19.777,19.769,19.768,19.768,19.776,19.779,19.77,19.772,19.773,19.781,19.778,19.774,19.774,19.78,19.781,19.781,19.773,19.772,19.78,19.782,19.785,19.78,19.777,19.777,19.781,19.782,19.779,19.774,19.775,19.782,19.785,19.775,19.772,19.776,19.779,19.779,19.774,19.77,19.773,19.775,19.782,19.781,19.773,19.773,19.784,19.796,19.806,19.812,19.826,19.826,19.832,19.84,19.848,19.855,19.891,19.9,19.88,19.877,19.875,19.867,19.858,19.854,19.837,19.821,19.788,19.78,19.776,19.767,19.765,19.766,19.77,19.771,19.766,19.76,19.765,19.766,19.765,19.767,19.751,19.742,19.73,19.726,19.778,19.921,20.142,20.346,20.537,20.5,20.186,20.031,19.921,19.648,19.562,19.578,19.59,19.678,19.721,19.774,19.801,19.811,19.822,19.826,19.833,19.831,19.837,19.845,19.855,19.855,19.854,19.858,19.871,19.877,19.883,19.887,19.896,19.896,19.908,19.913,19.916,19.917,19.93,19.944,19.96,19.966,19.977,19.993,20.018,20.036,20.051,20.067,20.093,20.119,20.141,20.161,20.167,20.184,20.201,20.222,20.225,20.225,20.233,20.24,20.241,20.236,20.217,20.202,20.185,20.161,20.128,20.094,20.063,20.035,20.013,19.998,19.968,19.94,19.922,19.909,19.896,19.877,19.864,19.858,19.861,19.86,19.85,19.844,19.848,19.851,19.852,19.84,19.832,19.832,19.835,19.839,19.837,19.832,19.832,19.836,19.84,19.836,19.832,19.836,19.843,19.849,19.845,19.843,19.847,19.853,19.858,19.856,19.849,19.848,19.85,19.851,19.851,19.843,19.842,19.845,19.853,19.856,19.849,19.849,19.851,19.856,19.852,19.846,19.841,19.843,19.847,19.85,19.845,19.837,19.837,19.842,19.845,19.838,19.831,19.831,19.833,19.836,19.825,19.819,19.817,19.821,19.823,19.816,19.811,19.812,19.817,19.821,19.818,19.813,19.813,19.821,19.823,19.826,19.814,19.816,19.821,19.83,19.83,19.822,19.825,19.83,19.836,19.835,19.83,19.827,19.831,19.838,19.842,19.833,19.832,19.835,19.84,19.846,19.841,19.835,19.839,19.842,19.845,19.839,19.834,19.841,19.845,19.845,19.838,19.834,19.835,19.842,19.85,19.849,19.845,19.852,19.86,19.872,19.881,19.89,19.888,19.888,19.904,19.911,19.912,19.944,19.957,19.946,19.947,19.943,19.935,19.924,19.922,19.916,19.896,19.864,19.85,19.851,19.857,19.849,19.845,19.849,19.856,19.861,19.857,19.849,19.857,19.857,19.862,19.855,19.841,19.822,19.818,19.873,20.011,20.223,20.422,20.611,20.609,20.306,20.155,20.033,19.756,19.676,19.695,19.692,19.768,19.813,19.869,19.916,19.917,19.927,19.933,19.943,19.949,19.953,19.954,19.963,19.968,19.973,19.973,19.974,19.986,20.002,20.004,20.001,20,20.008,20.019,20.03,20.03,20.034,20.043,20.063,20.074,20.074,20.079,20.097,20.121,20.141,20.157,20.172,20.19,20.222,20.245,20.255,20.27,20.285,20.299,20.316,20.325,20.321,20.318,20.321,20.32,20.31,20.294,20.27,20.253,20.236,20.2,20.162,20.135,20.117,20.106,20.081,20.058,20.034,20.015,20.009,20,19.987,19.972,19.974,19.977,19.977,19.964,19.961,19.961,19.967,19.968,19.961,19.959,19.958,19.961,19.967,19.966,19.962,19.963,19.972,19.978,19.976,19.971,19.974,19.981,19.985,19.988,19.979,19.98,19.987,19.994,19.989,19.986,19.984,19.988,19.995,19.99,19.979,19.975,19.985,19.988,19.985,19.981,19.983,19.99,19.998,19.993,19.986,19.981,19.986,19.988,19.988,19.982,19.977,19.972,19.979,19.983,19.981,19.969,19.97,19.973,19.979,19.972,19.967,19.969,19.969,19.976,19.958,19.957,19.96,19.959,19.958,19.959,19.954,19.959,19.965,19.969,19.969,19.967,19.961,19.968,19.974,19.973,19.97,19.965,19.971,19.978,19.975,19.964,19.965,19.969,19.975,19.976,19.973,19.975,19.978,19.991,20,20.001,20.017,20.016,20.02,20.027,20.033,20.035,20.074,20.088,20.077,20.077,20.076,20.07,20.057,20.056,20.045,20.016,19.989,19.982,19.979,19.977,19.972,19.974,19.975,19.982,19.977,19.965,19.972,19.975,19.977,19.971,19.959,19.947,19.926,19.93,19.978,20.119,20.346,20.545,20.718,20.703,20.442,20.242,20.094,19.896,19.876,19.911,19.844,19.84,19.872,19.942,19.994,20.015,20.029,20.038,20.041,20.042,20.04,20.046,20.058,20.061,20.061,20.058,20.062,20.076,20.087,20.086,20.089,20.093,20.097,20.11,20.115,20.118,20.122,20.138,20.159,20.175,20.184,20.193,20.217,20.243,20.26,20.272,20.289,20.321,20.348,20.37,20.376,20.381,20.399,20.414,20.429,20.427,20.428,20.423,20.423,20.419,20.402,20.374,20.353,20.329,20.304,20.268,20.233,20.205,20.184,20.164,20.149,20.119,20.094,20.085,20.068,20.054,20.038,20.031,20.03,20.03,20.027,20.018,20.013,20.018,20.02,20.012,20.007,20.002,20.004,20.01,20.01,20.001,19.995,19.997,20.004,20.005,20.002,19.999,20.002,20.013,20.013,20.004,20.003,20.012,20.023,20.028,20.02,20.014,20.015,20.018,20.026,20.022,20.018,20.013,20.014,20.022,20.02,20.01,20.007,20.01,20.017,20.013,20.002,20,20.002,20.003,19.999,19.993,19.989,19.991,19.993,19.993,19.982,19.978,19.983,19.989,19.99,19.981,19.982,19.98,19.986,19.985,19.977,19.972,19.974,19.979,19.982,19.98,19.975,19.975,19.979,19.986,19.981,19.975,19.977,19.982,19.986,19.987,19.988,20.001,20.017,20.045,20.043,20.033,20.039,20.046,20.061,20.068,20.073,20.083,20.076,20.078,20.078,20.063,20.046,20.048,20.042,20.018,19.982,19.966,19.968,19.973,19.973,19.966,19.966,19.967,19.973,19.973,19.969,19.962,19.965,19.967,19.962,19.937,19.919,19.957,20.094,20.308,20.504,20.702,20.763,20.506,20.363,20.289,20.099,19.816,19.775,19.802,19.821,19.922,19.969,20.017,20.029,20.039,20.026,20.034,20.038,20.053,20.05,20.055,20.049,20.065,20.065,20.075,20.072,20.079,20.081,20.095,20.1,20.104,20.106,20.12,20.134,20.15,20.151,20.163,20.176,20.196,20.213,20.223,20.236,20.254,20.263,20.288,20.304,20.322,20.343,20.369,20.391,20.403,20.414,20.423,20.437,20.444,20.444,20.436,20.429,20.42,20.41,20.382,20.347,20.331,20.303,20.273,20.244,20.205,20.177,20.153,20.136,20.118,20.095,20.072,20.064,20.062,20.053,20.04,20.034,20.033,20.036,20.031,20.027,20.02,20.017,20.017,20.02,20.014,20.004,20.001,20.012,20.013,20.009,20.005,20.006,20.011,20.016,20.012,20.008,20.01,20.024,20.024,20.026,20.017,20.019,20.024,20.031,20.031,20.025,20.023,20.029,20.028,20.03,20.018,20.019,20.021,20.026,20.025,20.021,20.017,20.015,20.017,20.019,20.011,20.003,20.002,20.007,20.008,20.002,19.996,19.995,20,20,19.991,19.985,19.987,19.986,19.986,19.977,19.974,19.973,19.975,19.976,19.974,19.969,19.967,19.971,19.984,19.98,19.974,19.973,19.975,19.982,19.976,19.97,19.97,19.978,19.984,19.984,19.975,19.974,19.975,19.979,19.978,19.979,19.975,19.974,19.981,19.983,19.975,19.978,19.984,19.995,20.011,20.017,20.03,20.027,20.027,20.037,20.044,20.042,20.052,20.082,20.074,20.065,20.059,20.05,20.04,20.039,20.028,20.003,19.973,19.961,19.959,19.948,19.945,19.947,19.953,19.958,19.959,19.949,19.951,19.949,19.954,19.953,19.941,19.928,19.914,19.919,19.998,20.163,20.383,20.593,20.755,20.631,20.373,20.299,20.163,19.897,19.759,19.768,19.781,19.85,19.934,19.992,20.014,20.017,20.026,20.028,20.036,20.038,20.043,20.047,20.058,20.065,20.067,20.06,20.068,20.07,20.084,20.09,20.093,20.095,20.105,20.117,20.123,20.125,20.136,20.146,20.165,20.182,20.193,20.205,20.225,20.235,20.255,20.272,20.29,20.314,20.341,20.365,20.379,20.392,20.41,20.427,20.438,20.438,20.44,20.447,20.449,20.442,20.42,20.398,20.386,20.366,20.341,20.307,20.265,20.239,20.213,20.194,20.165,20.135,20.112,20.101,20.09,20.077,20.057,20.049,20.053,20.051,20.044,20.039,20.032,20.031,20.035,20.035,20.02,20.016,20.02,20.021,20.024,20.017,20.016,20.018,20.021,20.025,20.019,20.019,20.019,20.027,20.032,20.029,20.026,20.026,20.037,20.043,20.04,20.033,20.031,20.035,20.04,20.036,20.03,20.029,20.034,20.037,20.035,20.032,20.032,20.033,20.036,20.033,20.024,20.019,20.021,20.022,20.021,20.017,20.007,20.008,20.017,20.014,20.007,20.001,20.003,20.001,19.998,19.993,19.985,19.987,19.987,19.985,19.979,19.976,19.977,19.981,19.986,19.981,19.977,19.98,19.985,19.991,19.981,19.981,19.978,19.982,19.988,19.987,19.981,19.98,19.985,19.989,19.986,19.983,19.979,19.981,19.983,19.98,19.975,19.968,19.975,19.983,19.98,19.975,19.97,19.975,19.981,19.981,19.973,19.968,19.97,19.972,19.973,19.967,19.969,19.975,19.985,19.996,20.003,20.013,20.008,20.017,20.025,20.024,20.033,20.066,20.072,20.058,20.053,20.047,20.035,20.027,20.026,20.014,19.993,19.959,19.946,19.944,19.939,19.929,19.934,19.937,19.937,19.931,19.925,19.927,19.925,19.927,19.924,19.911,19.895,19.878,19.88,19.953,20.111,20.329,20.532,20.705,20.596,20.317,20.165,20.026,19.769,19.711,19.731,19.72,19.792,19.865,19.93,19.95,19.958,19.953,19.966,19.967,19.97,19.966,19.975,19.977,19.991,19.986,19.988,19.995,20.008,20.009,20.017,20.014,20.018,20.026,20.038,20.041,20.039,20.043,20.059,20.075,20.092,20.096,20.109,20.13,20.15,20.17,20.192,20.204,20.221,20.25,20.274,20.288,20.301,20.316,20.332,20.343,20.347,20.346,20.345,20.346,20.344,20.327,20.306,20.287,20.262,20.232,20.198,20.181,20.152,20.121,20.104,20.074,20.045,20.02,20.014,20.006,19.988,19.968,19.961,19.96,19.961,19.953,19.94,19.939,19.941,19.941,19.939,19.929,19.924,19.929,19.933,19.937,19.93,19.928,19.926,19.929,19.928,19.923,19.923,19.927,19.932,19.938,19.929,19.929,19.932,19.938,19.945,19.94,19.934,19.933,19.932,19.938,19.93,19.928,19.926,19.928,19.935,19.934,19.928,19.928,19.934,19.937,19.928,19.924,19.92,19.919,19.92,19.921,19.914,19.911,19.916,19.917,19.913,19.91,19.903,19.902,19.906,19.908,19.898,19.897,19.898,19.903,19.902,19.895,19.893,19.894,19.899,19.902,19.896,19.893,19.891,19.894,19.899,19.894,19.889,19.892,19.895,19.896,19.891,19.885,19.884,19.889,19.894,19.893,19.885,19.884,19.892,19.894,19.892,19.884,19.889,19.89,19.894,19.895,19.89,19.887,19.892,19.898,19.898,19.891,19.891,19.894,19.896,19.902,19.897,19.893,19.893,19.897,19.903,19.9,19.901,19.91,19.929,19.948,19.933,19.933,19.953,19.964,19.995,20,19.974,19.973,19.976,19.975,19.962,19.947,19.942,19.933,19.908,19.881,19.873,19.87,19.876,19.879,19.88,19.877,19.881,19.882,19.883,19.883,19.88,19.873,19.876,19.871,19.851,19.829,19.851,19.968,20.179,20.381,20.575,20.644,20.364,20.195,20.078,19.826,19.678,19.688,19.7,19.709,19.794,19.841,19.895,19.915,19.929,19.919,19.924,19.925,19.937,19.947,19.946,19.942,19.951,19.962,19.969,19.966,19.971,19.973,19.98,19.989,19.999,19.998,20,20.009,20.022,20.031,20.04,20.051,20.063,20.081,20.097,20.106,20.123,20.144,20.171,20.193,20.214,20.218,20.238,20.263,20.282,20.294,20.291,20.298,20.309,20.317,20.312,20.303,20.297,20.291,20.285,20.25,20.231,20.2,20.171,20.138,20.121,20.095,20.061,20.048,20.026,20.009,19.989,19.976,19.962,19.969,19.956,19.947,19.935,19.942,19.941,19.939,19.93,19.929,19.93,19.938,19.933,19.926,19.923,19.927,19.929,19.934,19.922,19.927,19.93,19.944,19.954,19.95,19.948,19.954,19.959,19.963,19.955,19.962,19.962,19.966,19.973,19.961,19.956,19.955,19.955,19.962,19.957,19.951,19.949,19.964,19.967,19.962,19.956,19.953,19.957,19.956,19.956,19.949,19.947,19.95,19.953,19.953,19.947,19.945,19.944,19.948,19.949,19.936,19.937,19.944,19.953,19.954,19.938,19.938,19.944,19.952,19.955,19.95,19.938,19.939,19.945,19.95,19.943,19.939,19.944,19.951,19.956,19.947,19.952,19.951,19.957,19.958,19.95,19.946,19.949,19.953,19.957,19.95,19.944,19.938,19.942,19.948,19.947,19.937,19.939,19.946,19.963,19.96,19.968,19.98,19.982,19.98,19.991,19.995,20.013,20.029,20.047,20.033,20.017,20.016,20.007,20.001,19.999,19.978,19.951,19.929,19.92,19.919,19.907,19.904,19.901,19.912,19.911,19.907,19.9,19.896,19.903,19.904,19.901,19.893,19.872,19.857,19.856,19.927,20.086,20.304,20.516,20.65,20.562,20.321,20.123,19.981,19.8,19.791,19.838,19.788,19.762,19.824,19.89,19.929,19.952,19.959,19.977,19.98,19.979,19.982,19.995,19.997,20.005,19.992,20,20.001,20.01,20.017,20.019,20.016,20.025,20.034,20.047,20.04,20.043,20.05,20.073,20.086,20.098,20.106,20.12,20.139,20.161,20.17,20.183,20.208,20.223,20.245,20.269,20.282,20.296,20.314,20.331,20.343,20.343,20.34,20.348,20.352,20.345,20.32,20.305,20.284,20.265,20.237,20.196,20.181,20.155,20.132,20.11,20.079,20.051,20.036,20.021,20.013,19.992,19.978,19.974,19.97,19.971,19.96,19.952,19.953,19.956,19.958,19.952,19.943,19.939,19.944,19.943,19.946,19.936,19.932,19.935,19.943,19.939,19.937,19.936,19.944,19.947,19.947,19.94,19.945,19.953,19.954,19.96,19.955,19.95,19.955,19.959,19.964,19.958,19.953,19.955,19.96,19.964,19.951,19.947,19.951,19.951,19.954,19.943,19.938,19.938,19.939,19.94,19.932,19.924,19.922,19.929,19.935,19.926,19.92,19.918,19.927,19.933,19.93,19.922,19.922,19.928,19.932,19.929,19.926,19.922,19.927,19.931,19.934,19.928,19.926,19.927,19.931,19.932,19.922,19.922,19.924,19.929,19.93,19.923,19.921,19.925,19.935,19.938,19.932,19.924,19.928,19.934,19.937,19.939,19.94,19.952,19.966,19.994,19.991,19.977,19.981,19.998,20.005,20.014,20.032,20.026,20.023,20.022,20.017,20.004,19.983,19.987,19.979,19.961,19.922,19.912,19.913,19.917,19.92,19.911,19.912,19.919,19.923,19.922,19.916,19.913,19.916,19.917,19.913,19.886,19.866,19.909,20.041,20.255,20.454,20.645,20.714,20.449,20.305,20.171,19.862,19.717,19.734,19.76,19.822,19.872,19.922,19.974,19.985,19.993,19.983,19.992,19.998,20.016,20.018,20.023,20.021,20.033,20.037,20.042,20.039,20.044,20.052,20.063,20.065,20.065,20.065,20.08,20.091,20.104,20.107,20.116,20.128,20.148,20.159,20.174,20.187,20.207,20.231,20.255,20.27,20.289,20.31,20.324,20.347,20.362,20.37,20.378,20.39,20.403,20.397,20.39,20.387,20.38,20.367,20.34,20.312,20.284,20.258,20.232,20.198,20.165,20.15,20.128,20.112,20.093,20.066,20.051,20.042,20.039,20.038,20.021,20.015,20.014,20.016,20.015,20.005
