7.9317,7.9444,7.9603,7.9699,7.9783,7.9812,7.9947,7.9985,8.0273,8.0366,8.0535,8.0611,8.0708,8.0782,8.0916,8.1008,8.1102,8.1236,8.1318,8.1394,8.1437,8.1418,8.1308,8.1117,8.1008,8.0881,8.061,8.0304,7.994,7.9721,7.9424,7.9148,7.8806,7.8588,7.8419,7.8266,7.8036,7.7902,7.7826,7.7828,7.7766,7.7645,7.7603,7.7583,7.7592,7.7522,7.7505,7.7437,7.7443,7.7534,7.7462,7.7484,7.7374,7.7418,7.7447,7.7535,7.7412,7.7451,7.7577,7.7715,7.7621,7.7516,7.755,7.7588,7.7633,7.771,7.7692,7.7633,7.7617,7.764,7.7718,7.7673,7.7665,7.7701,7.7783,7.7782,7.778,7.7843,7.7866,7.7782,7.7761,7.7832,7.7832,7.7876,7.7779,7.7781,7.7893,7.7918,7.7925,7.7822,7.7848,7.7905,7.7874,7.8064,7.8085,7.8104,7.8126,7.8053,7.8099,7.8152,7.8375,7.8389,7.8343,7.8266,7.8527,7.8905,7.9224,7.902,7.8771,7.8712,7.8727,7.872,7.8489,7.8404,7.8116,7.8221,7.8218,7.8171,7.8162,7.8306,7.8354,7.8338,7.8406,7.8397,7.8345,7.8248,7.8262,7.8243,7.8331,7.8162,7.7673,7.7145,7.7055,7.7224,7.8655,8.1972,8.661,8.7934,8.3934,7.827,7.5635,7.4612,7.5663,7.5875,7.6425,7.696,7.6953,7.7689,7.8267,7.9038,7.8973,7.9096,7.8963,7.9057,7.8945,7.9163,7.9054,7.9228,7.9155,7.9341,7.9379,7.9645,7.955,7.9604,7.9575,7.9644,7.9655,7.9865,7.9824,8.0003,8.0048,8.0149,8.0211,8.0325,8.0343,8.0424,8.0546,8.0711,8.0742,8.0815,8.094,8.1075,8.1171,8.1319,8.1461,8.1618,8.1774,8.1976,8.2096,8.2251,8.2438,8.2487,8.2625,8.2678,8.2779,8.2824,8.2893,8.2825,8.2756,8.2655,8.2422,8.2177,8.1872,8.1489,8.1149,8.0832,8.0618,8.0361,8.0085,7.9776,7.9665,7.9458,7.9381,7.9281,7.9239,7.9093,7.9076,7.9048,7.9029,7.9035,7.9041,7.9012,7.8993,7.8893,7.8845,7.8808,7.8923,7.9001,7.9034,7.8928,7.8887,7.8918,7.9018,7.9088,7.8996,7.8898,7.8936,7.8979,7.9082,7.9097,7.9046,7.9024,7.9076,7.9086,7.9171,7.9175,7.9244,7.918,7.9163,7.9166,7.9174,7.9162,7.9241,7.9175,7.9083,7.9055,7.9154,7.911,7.9235,7.9125,7.9077,7.8971,7.8983,7.9095,7.9127,7.9132,7.9111,7.9006,7.9032,7.9021,7.9104,7.9077,7.906,7.8981,7.8933,7.8999,7.9057,7.911,7.9061,7.9041,7.8916,7.8918,7.898,7.9167,7.9226,7.9092,7.91,7.9221,7.9175,7.9156,7.933,7.9867,8.0055,7.9804,7.974,7.9588,7.9429,7.9352,7.9371,7.9316,7.9147,7.8926,7.879,7.8759,7.8716,7.8802,7.8844,7.8774,7.877,7.8773,7.8725,7.8717,7.8725,7.8776,7.8803,7.8728,7.8287,7.741,7.6975,7.7046,7.7821,7.9822,8.3793,8.7661,8.7764,8.4119,7.8876,7.721,7.7481,7.7406,7.7632,7.7627,7.7881,7.8219,7.8914,7.9218,7.9069,7.9021,7.8989,7.9165,7.9161,7.921,7.9247,7.921,7.9313,7.9362,7.941,7.9414,7.9368,7.9469,7.9446,7.9507,7.9479,7.9488,7.9504,7.977,7.9815,7.9861,7.9872,7.9905,7.9985,8.0109,8.0176,8.0241,8.0371,8.0507,8.0636,8.0749,8.0721,8.0869,8.0991,8.112,8.1187,8.1316,8.1388,8.1556,8.169,8.1794,8.1838,8.2027,8.2144,8.2298,8.228,8.223,8.2267,8.2192,8.2093,8.1817,8.1503,8.1326,8.0954,8.0788,8.0543,8.0229,7.9981,7.9764,7.9668,7.9547,7.9308,7.9117,7.8994,7.8911,7.8913,7.8837,7.8847,7.8722,7.8724,7.8649,7.8679,7.871,7.8731,7.8624,7.8625,7.862,7.8567,7.847,7.8484,7.8517,7.8527,7.849,7.855,7.8548,7.8591,7.8608,7.8588,7.8537,7.8591,7.8584,7.8526,7.854,7.8562,7.8548,7.8598,7.8574,7.86,7.8543,7.8627,7.8679,7.8604,7.8595,7.852,7.8576,7.8657,7.8648,7.8683,7.8599,7.8592,7.8597,7.8568,7.8529,7.8573,7.8554,7.8606,7.8554,7.8526,7.8533,7.8573,7.8629,7.8594,7.839,7.8459,7.8462,7.8622,7.8652,7.8517,7.8507,7.8536,7.8576,7.8599,7.8545,7.8481,7.8481,7.8494,7.8502,7.8507,7.8508,7.8454,7.8457,7.8497,7.8477,7.8401,7.8544,7.8623,7.8625,7.8604,7.8718,7.8677,7.8649,7.8605,7.8981,7.9457,7.9405,7.9204,7.902,7.8869,7.8794,7.8786,7.8731,7.8627,7.8429,7.8238,7.8181,7.8241,7.8208,7.8227,7.8138,7.8101,7.8094,7.8124,7.8161,7.8144,7.8078,7.8092,7.8109,7.7769,7.6921,7.6391,7.6423,7.6953,7.8446,8.2171,8.6257,8.703,8.4017,7.898,7.6902,7.7224,7.745,7.7009,7.7359,7.7199,7.7613,7.8345,7.851,7.8389,7.8249,7.8378,7.8294,7.8437,7.8377,7.8366,7.8343,7.8478,7.8581,7.8655,7.865,7.8715,7.8556,7.8683,7.8696,7.8815,7.8808,7.8814,7.8838,7.8889,7.8936,7.9082,7.91,7.9185,7.9288,7.9315,7.9374,7.9445,7.9555,7.9643,7.9747,7.992,7.9954,8.0145,8.0293,8.0491,8.0583,8.0734,8.0878,8.1028,8.112,8.1236,8.1335,8.1468,8.1567,8.1623,8.1671,8.1576,8.163,8.1652,8.1464,8.1231,8.0908,8.0588,8.0316,7.9981,7.9685,7.9356,7.9154,7.8983,7.8809,7.8596,7.8386,7.8256,7.8239,7.8162,7.8055,7.7944,7.7896,7.782,7.7893,7.787,7.7899,7.7809,7.7851,7.7824,7.7799,7.7796,7.7728,7.7714,7.7729,7.7691,7.7664,7.7633,7.7636,7.7657,7.7633,7.7583,7.754,7.7581,7.7621,7.7623,7.7716,7.7587,7.7575,7.761,7.7621,7.7592,7.7601,7.7706,7.7739,7.7704,7.7729,7.769,7.7673,7.7637,7.7631,7.7568,7.7533,7.7527,7.759,7.7564,7.7599,7.7547,7.7529,7.7468,7.7467,7.7474,7.7442,7.7411,7.7444,7.7498,7.7481,7.748,7.7454,7.7454,7.745,7.7398,7.7415,7.7391,7.7376,7.7352,7.7348,7.7373,7.7344,7.736,7.7378,7.7387,7.7286,7.7256,7.7325,7.739,7.7333,7.7265,7.7251,7.7278,7.7283,7.7247,7.7251,7.7239,7.7269,7.7251,7.7241,7.7252,7.7158,7.715,7.7171,7.7179,7.7125,7.7148,7.7227,7.7236,7.718,7.7226,7.732,7.7346,7.7212,7.729,7.7695,7.8171,7.8023,7.7806,7.7648,7.7494,7.7515,7.7427,7.7275,7.713,7.6895,7.6886,7.6852,7.691,7.6921,7.6872,7.6857,7.6793,7.6762,7.6868,7.686,7.6864,7.68,7.6831,7.6865,7.6448,7.5475,7.5105,7.5146,7.5949,7.8046,8.2144,8.5375,8.4885,8.0657,7.7786,7.4966,7.5097,7.5722,7.5602,7.623,7.5727,7.6275,7.683,7.7248,7.7019,7.7065,7.688,7.7031,7.6946,7.7122,7.7058,7.7114,7.719,7.7301,7.723,7.74,7.7286,7.7414,7.7377,7.7603,7.758,7.7593,7.753,7.7685,7.7653,7.7833,7.7829,7.7921,7.7979,7.8155,7.8187,7.8271,7.8343,7.8407,7.8507,7.864,7.8718,7.8752,7.8839,7.9036,7.9141,7.9276,7.9363,7.9537,7.9623,7.9759,7.9862,8,8.0163,8.0194,8.0325,8.0389,8.0405,8.0334,8.0248,8.0126,7.994,7.9666,7.9362,7.9066,7.8859,7.8536,7.8217,7.7916,7.7755,7.7569,7.7398,7.7136,7.7042,7.6993,7.694,7.6882,7.6837,7.6654,7.672,7.6728,7.6759,7.6639,7.6611,7.6585,7.666,7.6578,7.6544,7.652,7.6558,7.6573,7.6619,7.6564,7.657,7.6512,7.6604,7.6528,7.6582,7.6515,7.6553,7.656,7.6629,7.6576,7.6539,7.6507,7.6587,7.6584,7.6661,7.6598,7.6601,7.6635,7.657,7.6538,7.6492,7.6518,7.653,7.6536,7.658,7.6527,7.6523,7.6513,7.6495,7.6495,7.6461,7.6442,7.6459,7.6465,7.6458,7.6416,7.6486,7.6455,7.6466,7.6339,7.6355,7.6385,7.6433,7.646,7.6449,7.641,7.6377,7.6366,7.6408,7.644,7.6443,7.6401,7.6382,7.6403,7.6433,7.642,7.636,7.6395,7.6332,7.637,7.633,7.6369,7.6306,7.6353,7.6331,7.6326,7.6287,7.6275,7.6321,7.6378,7.6327,7.6309,7.6284,7.6368,7.6315,7.6304,7.6228,7.622,7.6256,7.6288,7.6285,7.6286,7.6343,7.6368,7.6296,7.6296,7.6447,7.6439,7.6338,7.6428,7.6694,7.7148,7.7275,7.7079,7.6953,7.6723,7.666,7.6639,7.6544,7.6502,7.6241,7.602,7.599,7.6017,7.6032,7.6107,7.6044,7.6008,7.5953,7.6051,7.6037,7.601,7.5986,7.5941,7.5966,7.5689,7.4817,7.4273,7.422,7.4312,7.5371,7.803,8.2567,8.51,8.3224,7.8414,7.4212,7.4342,7.4809,7.4877,7.5319,7.4907,7.5052,7.5563,7.6318,7.6363,7.6224,7.6241,7.6195,7.6299,7.6272,7.6355,7.6335,7.635,7.643,7.6583,7.6585,7.6613,7.6545,7.6638,7.6668,7.6778,7.6829,7.6807,7.6839,7.6968,7.6982,7.7017,7.7064,7.7185,7.7226,7.7322,7.7414,7.7487,7.7586,7.7741,7.7803,7.7862,7.7951,7.8126,7.8274,7.8356,7.8441,7.8556,7.8624,7.8745,7.8809,7.8893,7.9003,7.9057,7.9239,7.9337,7.9394,7.9415,7.9414,7.9376,7.9332,7.914,7.8898,7.8585,7.8336,7.8038,7.7761,7.7486,7.7284,7.7013,7.6927,7.6731,7.6517,7.6364,7.6233,7.6146,7.6167,7.6028,7.591,7.5855,7.5893,7.5901,7.5847,7.5767,7.575,7.5771,7.5744,7.5775,7.5715,7.573,7.5771,7.5737,7.5758,7.5755,7.5814,7.585,7.5799,7.5784,7.5837,7.5824,7.589,7.5933,7.5948,7.5866,7.5877,7.5935,7.597,7.5955,7.5973,7.5943,7.5962,7.5924,7.5946,7.5916,7.5897,7.5911,7.5912,7.5954,7.5913,7.5933,7.5893,7.5927,7.589,7.584,7.585,7.585,7.5854,7.5851,7.5812,7.5819,7.581,7.5889,7.5966,7.5903,7.588,7.5877,7.5911,7.5917,7.5955,7.5853,7.5866,7.5939,7.5962,7.5917,7.5906,7.5885,7.5894,7.5936,7.5906,7.5865,7.5921,7.5896,7.5846,7.5888,7.5858,7.5862,7.5851,7.5882,7.5906,7.5818,7.589,7.587,7.5895,7.5877,7.5917,7.5935,7.5989,7.5973,7.5876,7.5824,7.5817,7.5822,7.5912,7.5997,7.5986,7.5907,7.5918,7.6096,7.6103,7.6032,7.6077,7.6506,7.6834,7.6915,7.6643,7.6553,7.6457,7.6419,7.6443,7.632,7.6183,7.5953,7.59,7.5839,7.5841,7.5841,7.5842,7.5909,7.592,7.5885,7.5839,7.5886,7.5893,7.5914,7.5856,7.5891,7.5785,7.517,7.4463,7.4369,7.4547,7.592,7.9273,8.3998,8.5524,8.199,7.6622,7.3008,7.3233,7.4173,7.4363,7.4789,7.4713,7.4777,7.5121,7.5853,7.6445,7.6393,7.6372,7.6327,7.6391,7.6428,7.6548,7.658,7.6582,7.6612,7.6762,7.6822,7.6909,7.6968,7.698,7.7048,7.7115,7.7133,7.7207,7.7247,7.7287,7.7356,7.7464,7.7528,7.761,7.7701,7.7845,7.7953,7.8035,7.8172,7.8268,7.8358,7.8513,7.8634,7.8733,7.8789,7.8958,7.9037,7.9142,7.924,7.9348,7.9484,7.9659,7.9757,7.9823,7.9904,7.9975,8.0129,8.0116,8.0121,7.9972,7.9912,7.9773,7.9577,7.9318,7.8987,7.8797,7.8564,7.8289,7.8063,7.7817,7.7614,7.7467,7.7406,7.719,7.7097,7.7022,7.692,7.6866,7.6824,7.6785,7.6741,7.6759,7.6845,7.6833,7.6801,7.6745,7.6758,7.6819,7.6853,7.685,7.6827,7.6838,7.6875,7.6931,7.6973,7.6958,7.691,7.6947,7.6998,7.7017,7.7023,7.7096,7.7159,7.7153,7.7126,7.711,7.7148,7.7182,7.7238,7.7226,7.7223,7.7167,7.7126,7.7108,7.7086,7.7061,7.7119,7.7123,7.7177,7.7202,7.711,7.7062,7.7054,7.71,7.7127,7.7129,7.7107,7.7098,7.7173,7.7142,7.7071,7.7087,7.7112,7.7172,7.7087,7.7151,7.7086,7.7071,7.7111,7.7123,7.7072,7.7115,7.7124,7.7139,7.7221,7.719,7.7139,7.7136,7.7198,7.7143,7.7095,7.7126,7.7193,7.7164,7.7197,7.719,7.7139,7.7157,7.7186,7.7233,7.7239,7.7235,7.7242,7.7237,7.7192,7.7187,7.7206,7.7192,7.7173,7.7199,7.7222,7.7231,7.7233,7.7213,7.7218,7.7235,7.7274,7.7228,7.7251,7.7343,7.7299,7.7253,7.7219,7.727,7.7477,7.7397,7.7248,7.7327,7.7793,7.822,7.8151,7.7892,7.7686,7.7619,7.7687,7.767,7.7545,7.7342,7.7158,7.7212,7.7211,7.7089,7.7146,7.7166,7.72,7.7187,7.7167,7.7124,7.7133,7.7198,7.7231,7.7159,7.694,7.635,7.5616,7.5499,7.5646,7.6751,7.9677,8.2039,8.5738,8.6342,8.2414,7.7391,7.5573,7.6465,7.6381,7.6545,7.6351,7.6345,7.6678,7.7633,7.7651,7.7566,7.7465,7.7572,7.7487,7.7617,7.7561,7.7625,7.7635,7.7778,7.7805,7.7842,7.7819,7.7976,7.7963,7.8003,7.8038,7.8101,7.8167,7.8269,7.8295,7.829,7.8423,7.8481,7.8548,7.8568,7.8581,7.8761,7.8784,7.8879,7.9105,7.9199,7.9288,7.942,7.9535,7.9557,7.9672,7.9877,8.0026,8.0146,8.0273,8.0307,8.0434,8.0607,8.0698,8.0714,8.0764,8.082,8.0904,8.0937,8.0944,8.078,8.0639,8.0419,8.0175,7.9856,7.9499,7.9209,7.9011,7.8743,7.8473,7.832,7.8101,7.7976,7.7955,7.7827,7.7761,7.7636,7.7559,7.7527,7.7603,7.7521,7.7412,7.7346,7.7366,7.7381,7.7425,7.7449,7.7483,7.7456,7.7485,7.7463,7.7474,7.7472,7.7539,7.7525,7.7585,7.7643,7.7598,7.7621,7.769,7.7667,7.7712,7.765,7.7667,7.7718,7.7822,7.7825,7.7858,7.7838,7.7956,7.7996,7.8066,7.8011,7.799,7.8022,7.8079,7.7975,7.7925,7.7917,7.7938,7.7955,7.7953,7.7897,7.7918,7.7917,7.795,7.7923,7.7939,7.7934,7.7892,7.7947,7.7911,7.7892,7.7951,7.8099,7.8088,7.7961,7.7848,7.7791,7.7698,7.7747,7.7676,7.762,7.7638,7.7664,7.7656,7.7654,7.7545,7.7543,7.7524,7.7517,7.7521,7.7454,7.7428,7.7432,7.7459,7.7439,7.7367,7.7285,7.723,7.7256,7.725,7.7198,7.7187,7.7214,7.7249,7.719,7.7107,7.7073,7.7123,7.7126,7.7122,7.7119,7.7042,7.7043,7.7087,7.7092,7.705,7.7022,7.6997,7.7081,7.708,7.7061,7.6958,7.6924,7.6973,7.7105,7.7091,7.7023,7.6937,7.7119,7.726,7.7185,7.7059,7.7219,7.7626,7.7964,7.7723,7.7503,7.7355,7.7391,7.7332,7.7146,7.699,7.6737,7.6722,7.6718,7.6678,7.6589,7.6585,7.6602,7.6628,7.6617,7.6565,7.6531,7.6493,7.6599,7.6565,7.6577,7.6259,7.5356,7.4852,7.4852,7.5352,7.7132,8.1035,8.5126,8.5952,8.4476,7.9834,7.5547,7.5645,7.6098,7.6095,7.6412,7.5939,7.623,7.6784,7.7356,7.7337,7.7198,7.7336,7.7275,7.7334,7.7324,7.7461,7.7464,7.7569,7.7561,7.7653,7.7647,7.7718,7.7866,7.7991,7.8008,7.8148,7.8153,7.8353,7.8354,7.8419,7.8439,7.8545,7.853,7.8597,7.8548,7.8641,7.8664,7.8767,7.8767,7.8851,7.8786,7.883,7.8876,7.8968,7.9047,7.9108,7.9133,7.9217,7.9274,7.9261,7.9284,7.9334,7.9433,7.9496,7.9429,7.9471,7.9477,7.9532,7.9461,7.9293,7.9094,7.8978,7.8794,7.8532,7.8288,7.7889,7.7649,7.7361,7.7139,7.684,7.6542,7.6479,7.648,7.635,7.6201,7.6149,7.6007,7.5925,7.6044,7.5921,7.5931,7.5874,7.5897,7.5879,7.5834,7.5787,7.5748,7.5827,7.5901,7.586,7.5761,7.5793,7.5925,7.5922,7.5968,7.5932,7.5866,7.5878,7.5994,7.5967,7.6062,7.5931,7.5963,7.6001,7.5987,7.5982,7.593,7.5937,7.5952,7.6008,7.598,7.5908,7.5948,7.5986,7.6006,7.5973,7.588,7.588,7.5964,7.6102,7.6108,7.6039,7.6032,7.6119,7.6254,7.6249,7.6151,7.6039,7.6064,7.5917,7.5822,7.5728,7.5678,7.5716,7.5799,7.5788,7.5744,7.5761,7.5796,7.5831,7.5821,7.5778,7.5943,7.597,7.6057,7.6079,7.6062,7.6101,7.6104,7.6211,7.6237,7.6219,7.6216,7.6143,7.6189,7.6188,7.6134,7.6122,7.6152,7.6161,7.6173,7.6185,7.6165,7.6306,7.6371,7.6387,7.6326,7.6353,7.6393,7.6423,7.6395,7.6498,7.6567,7.6625,7.6654,7.68,7.7121,7.7396,7.7602,7.7449,7.7281,7.715,7.7032,7.7001,7.6823,7.6652,7.6303,7.6282,7.6216,7.62,7.6226,7.6237,7.6127,7.6032,7.607,7.6054,7.5991,7.5986,7.5958,7.5966,7.5902,7.5472,7.4597,7.4369,7.4414,7.5313,7.7925,8.2456,8.5522,8.4252,8.1426,7.6226,7.3011,7.3788,7.4356,7.4784,7.5137,7.5094,7.523,7.5964,7.677,7.6917,7.6796,7.6781,7.6795,7.6801,7.6842,7.6913,7.6893,7.6948,7.6996,7.7014,7.6991,7.7,7.6953,7.6969,7.6985,7.6913,7.6885,7.685,7.6918,7.7003,7.6945,7.6904,7.6868,7.6931,7.7016,7.7072,7.709,7.711,7.7216,7.7344,7.7484,7.7622,7.78,7.8029,7.8357,7.869,7.8907,7.9058,7.9312,7.9606,7.9968,8.0157,8.0365,8.0532,8.067,8.0783,8.0797,8.0853,8.0843,8.0908,8.0849,8.0638,8.0275,8.0003,7.9686,7.9437,7.9131,7.8726,7.8381,7.8212,7.8023,7.7626,7.734,7.7136,7.6937,7.6845,7.6725,7.658,7.6484,7.6502,7.6446,7.6391,7.6242,7.6172,7.62,7.6263,7.6286,7.6162,7.6101,7.6033,7.6027,7.6009,7.5842,7.5891,7.6022,7.6118,7.6281,7.6316,7.6205,7.6141,7.6284,7.6248,7.6186,7.6162,7.6124,7.6016,7.5823,7.5684,7.5599,7.5516,7.5524,7.5488,7.5422,7.535,7.5298,7.5232,7.5328,7.5132,7.4945,7.4871,7.4901,7.483,7.4768,7.4791,7.4896,7.4968,7.4957,7.5011,7.4957,7.4963,7.5168,7.535,7.5458,7.5546,7.563,7.5744,7.596,7.6049,7.6091,7.6251,7.6387,7.645,7.6356,7.6372,7.6323,7.6389,7.6427,7.6416,7.6411,7.6398,7.6429,7.644,7.6439,7.644,7.6413,7.6404,7.6444,7.625,7.6183,7.625,7.6256,7.6444,7.6348,7.6357,7.6542,7.6657,7.6811,7.6863,7.6916,7.6889,7.6894,7.6976,7.7011,7.7154,7.714,7.7102,7.7145,7.7359,7.7288,7.7153,7.7288,7.7671,7.8021,7.7915,7.7638,7.7428,7.7328,7.7417,7.7388,7.719,7.6973,7.6907,7.6863,7.6878,7.6981,7.6884,7.6912,7.6878,7.6858,7.6775,7.6733,7.6773,7.692,7.6844,7.6764,7.6441,7.5581,7.4972,7.4829,7.5072,7.6452,7.798,8.2285,8.5726,8.5099,8.0939,7.601,7.5318,7.5755,7.5647,7.586,7.5514,7.5627,7.6098,7.666,7.6691,7.6539,7.6694,7.6647,7.6711,7.6633,7.6719,7.6642,7.6751,7.6781,7.6844,7.6864,7.6972,7.6999,7.7086,7.703,7.718,7.7182,7.7349,7.7401,7.7442,7.7402,7.7558,7.7568,7.7652,7.7709,7.7753,7.7791,7.7968,7.7979,7.8126,7.8191,7.8365,7.8515,7.8654,7.8709,7.8772,7.8864,7.9068,7.9319,7.9288,7.9414,7.955,7.9666,7.981,7.9866,7.994,8.0003,7.9982,8.0124,8.0072,7.9957,7.9791,7.962,7.9341,7.9086,7.8691,7.843,7.8122,7.7912,7.7581,7.741,7.7158,7.7156,7.7053,7.6886,7.6665,7.658,7.6539,7.6511,7.6378,7.6291,7.6266,7.6296,7.6297,7.6238,7.6162,7.6094,7.6088,7.6074,7.6082,7.5948,7.5965,7.5992,7.6017,7.6072,7.5925,7.587,7.5925,7.6042,7.6117,7.6044,7.6116,7.6131,7.6209,7.6198,7.6212,7.6195,7.6198,7.6295,7.6274,7.6235,7.6158,7.6187,7.6264,7.6355,7.6388,7.6334,7.6342,7.636,7.6318,7.6307,7.6295,7.6287,7.6358,7.6453,7.6384,7.6291,7.6288,7.6239,7.6163,7.6155,7.6305,7.631,7.6243,7.6329,7.6287,7.6302,7.6267,7.6264,7.6179,7.6244,7.6283,7.6202,7.6226,7.6241,7.6216,7.6216,7.6192,7.6184,7.6214,7.6212,7.6157,7.6131,7.609,7.6044,7.5999,7.5947,7.5944,7.5957,7.5942,7.5946,7.5901,7.5824,7.5817,7.5833,7.5873,7.58,7.5872,7.5926,7.5861,7.5857,7.5838,7.5837,7.5887,7.5869,7.5903,7.5958,7.6021,7.5932,7.5936,7.6178,7.6152,7.598,7.6094,7.652,7.6987,7.6976,7.6749,7.6628,7.6491,7.6296,7.6295,7.6075,7.602,7.587,7.5726,7.5613,7.5612,7.5694,7.5796,7.5934,7.5921,7.5851,7.579,7.588,7.5924,7.5919,7.592,7.5938,7.5602,7.477,7.4327,7.4216,7.4653,7.6426,8.0284,8.4417,8.5238,8.1885,7.662,7.4409,7.5027,7.507,7.4604,7.4764,7.4759,7.4849,7.5066,7.5966,7.6331,7.6514,7.6627,7.6422,7.6312,7.6127,7.5614,7.5478,7.6065,7.597,7.5895,7.6117,7.565,7.4819,7.5011,7.5483,7.5915,7.6413,7.6756,7.6533,7.6537,7.635,7.6041,7.6142,7.6258,7.6471,7.6465,7.6763,7.7,7.7189,7.7526,7.7769,7.8431,7.8788,7.938,7.9927,8.0331,8.1007,8.1328,8.1918,8.2321,8.2704,8.3075,8.3238,8.3427,8.3412,8.3346,8.2799,8.2175,8.1685,8.1618,8.2348,8.4378,8.6018,8.6878,8.7113,8.7128,8.686,8.6368,8.581,8.4986,8.4107,8.3631,8.2901,8.2083,8.1597,8.1192,8.0712,8.0157,7.963,7.8695,7.7735,7.6894,7.6234,7.5866,7.5472,7.5451,7.5641,7.5848,7.5741,7.546,7.5154,7.4924,7.4921,7.5216,7.5605,7.5957,7.6352,7.6499,7.6635,7.6703,7.6997,7.7363,7.8025,7.8281,7.8865,7.9424,8.0031,8.026,8.0526,8.0698,8.0911,8.1082,8.1245,8.1214,8.1497,8.1533,8.1539,8.1972,8.2102,8.2253,8.2447,8.255,8.2614,8.2983,8.331,8.339,8.333,8.3486,8.3698,8.3935,8.4067,8.4213,8.424,8.4481,8.4617,8.471,8.4771,8.4788,8.4781,8.4787,8.4838,8.5042,8.4928,8.4807,8.485,8.5186,8.5277,8.5383,8.562,8.555,8.554,8.5425,8.5429,8.5414,8.5232,8.521,8.5192,8.5327,8.534,8.5212,8.5248,8.5063,8.4902,8.4881,8.4957,8.4862,8.4856,8.4687,8.4624,8.4678,8.4412,8.4435,8.4368,8.3792,8.2819,8.1568,8.092,8.0285,8.0792,8.0992,8.0845,8.0564,8.0332,8.0463,8.0456,8.0442,8.0551,8.0599,8.0436,8.0399,8.0205,8.0417,8.0256,8.0224,8.0252,8.0396,8.0226,8.0365,8.0178,8.0236,8.0238,8.029,7.9781,7.887,7.8635,7.8563,7.9595,8.1948,8.6454,8.9463,8.8603,8.3967,7.9018,7.8625,7.9359,7.9208,7.946,7.9233,7.9133,7.9371,7.9876,8.0426,8.0331,8.0363,8.0262,8.0109,7.9999,8.0149,8.0129,8.0296,8.0384,8.0141,8.0038,8.0022,8.0302,8.0291,8.0238,8.0095,7.9992,8.0074,8.0241,8.036,8.0421,8.0617,8.0733,8.0814,8.0855,8.0877,8.0733,8.0687,8.0901,8.0861,8.0876,8.0761,8.0956,8.1012,8.1092,8.1187,8.1472,8.1474,8.1595,8.1703,8.1895,8.1937,8.2036,8.21,8.2129,8.2343,8.2485,8.2542,8.2477,8.2438,8.2176,8.1881,8.1626,8.1422,8.1244,8.0954,8.0635,8.0324,7.9932,7.9718,7.9417,7.9246,7.901,7.879,7.8717,7.853,7.8464,7.8337,7.8184,7.8189,7.8275,7.8162,7.7973,7.7997,7.7987,7.8135,7.8101,7.7831,7.7799,7.782,7.7983,7.7965,7.7989,7.8006,7.8059,7.8068,7.798,7.8018,7.8039,7.8175,7.8074,7.8189,7.8199,7.8141,7.8117,7.8083,7.8213,7.8178,7.806,7.8279,7.8097,7.8135,7.8057,7.8112,7.8064,7.8146,7.81,7.8063,7.8135,7.8114,7.8091,7.8176,7.8011,7.7851,7.8038,7.7992,7.7978,7.799,7.8055,7.805,7.7887,7.7787,7.7919,7.7885,7.7968,7.8053,7.7842,7.7751,7.7807,7.7714,7.7668,7.7693,7.7604,7.767,7.7839,7.7858,7.7845,7.7833,7.7744,7.7764,7.7795,7.7753,7.776,7.7681,7.7623,7.7737,7.7775,7.778,7.7768,7.7829,7.8077,7.8089,7.8038,7.7963,7.8077,7.8109,7.8093,7.8107,7.852,7.8918,7.8707,7.8564,7.8271,7.8129,7.8197,7.8324,7.8166,7.7832,7.7599,7.7588,7.7623,7.7683,7.7547,7.7584,7.7599,7.7648,7.7645,7.7701,7.7598,7.7574,7.7528,7.7526,7.7539,7.6831,7.5973,7.5843,7.5965,7.6958,7.9716,8.1912,8.5821,8.673,8.2969,7.8005,7.5738,7.6462,7.6538,7.6777,7.6911,7.6728,7.6972,7.7736,7.8049,7.8012,7.7995,7.7927,7.7886,7.7814,7.7786,7.7794,7.7805,7.8074,7.8124,7.8289,7.8235,7.8138,7.7996,7.8054,7.8179,7.8283,7.8487,7.8499,7.8467,7.8531,7.8508,7.8511,7.8679,7.8654,7.8687,7.8849,7.9076,7.9396,7.9456,7.9378,7.9496,7.9602,7.9761,7.9832,8.0151,8.0204,8.0216,8.0386,8.0543,8.0744,8.0914,8.0912,8.1056,8.1208,8.1299,8.1544,8.1546,8.1608,8.1499,8.1408,8.1171,8.0947,8.0792,8.0501,7.9998,7.9628,7.9432,7.9251,7.8972,7.8631,7.8337,7.8157,7.8126,7.8125,7.7884,7.7566,7.736,7.7145,7.72,7.7262,7.7109,7.7029,7.705,7.7056,7.7119,7.7253,7.752,7.8007,7.8829,7.9485,8.0024,8.0218,8.0174,7.9835,7.9437,7.8931,7.8386,7.7921,7.7775,7.7719,7.7782,7.7759,7.7716,7.7706,7.7696,7.751,7.7458,7.7592,7.7805,7.7874,7.7838,7.777,7.754,7.7603,7.7639,7.7562,7.7612,7.7686,7.7677,7.783,7.7762,7.7869,7.7857,7.7939,7.8154,7.8355,7.841,7.8406,7.8376,7.8439,7.8451,7.8489,7.8566,7.8486,7.8416,7.8437,7.8484,7.8443,7.8414,7.8379,7.8593,7.8533,7.8478,7.8557,7.8665,7.8675,7.8558,7.8515,7.8357,7.8316,7.853,7.855,7.8439,7.842,7.8293,7.8326,7.8292,7.8313,7.8313,7.8304,7.828,7.8274,7.8326,7.8287,7.8312,7.8174,7.8129,7.8212,7.8149,7.8187,7.826,7.8134,7.7967,7.8067,7.8083,7.8224,7.8092,7.8007,7.7816,7.811,7.8149,7.8008,7.7918,7.8084,7.8643,7.8882,7.8779,7.8423,7.8375,7.8155,7.8074,7.8034,7.7836,7.7694,7.7548,7.7581,7.7552,7.7374,7.7402,7.7417,7.7422,7.746,7.7454,7.7239,7.7015,7.7175,7.715,7.7165,7.7058,7.638,7.5477,7.524,7.5381,7.6182,7.8866,8.3236,8.5895,8.4567,8.0008,7.5724,7.5761,7.6283,7.6292,7.678,7.618,7.6419,7.7146,7.7534,7.7712,7.7625,7.7499,7.754,7.7727,7.7753,7.7754,7.7882,7.7917,7.7938,7.8064,7.7995,7.8058,7.8153,7.8382,7.8415,7.8468,7.8438,7.8495,7.8504,7.8742,7.8635,7.8706,7.8701,7.8895,7.9025,7.932,7.9205,7.9391,7.9341,7.9375,7.9529,7.9693,7.9747,7.9756,7.9991,8.0165,8.0311,8.0313,8.0501,8.0642,8.0843,8.108,8.1027,8.1082,8.1146,8.1409,8.1596,8.179,8.1668,8.1731,8.1771,8.1554,8.1388,8.1037,8.0852,8.0419,8.039,8.0008,7.9893,7.9532,7.9441,7.9165,7.9097,7.8894,7.866,7.8688,7.8461,7.8371,7.8136,7.8162,7.8232,7.8135,7.8251,7.8186,7.8104,7.8079,7.806,7.7897,7.7864,7.7851,7.8073,7.8058,7.8237,7.8099,7.8239,7.8179,7.826,7.8154,7.8177,7.8126,7.8374,7.8349,7.8187,7.827,7.827,7.8236,7.8132,7.8117,7.8262,7.8294,7.8197,7.8254,7.8113,7.8109,7.807,7.8149,7.8176,7.8063,7.8012,7.7977,7.7921,7.7951,7.7958,7.7937,7.7911,7.8036,7.8052,7.8105,7.7954,7.787,7.7805,7.7907,7.7928,7.7977,7.8001,7.7951,7.7884,7.7887,7.7936,7.7906,7.7905,7.7849,7.7854,7.7847,7.7836,7.7957,7.7966,7.7995,7.7779,7.7802,7.7935,7.7897,7.7833,7.7843,7.7836,7.7823,7.7862,7.7852,7.7703,7.7669,7.7729,7.7724,7.7761,7.7746,7.7776,7.7785,7.7776,7.7881,7.7755,7.7763,7.7792,7.7771,7.7673,7.7605,7.7658,7.7745,7.7773,7.7776,7.7787,7.78,7.7678,7.7663,7.7673,7.7709,7.7905,7.7904,7.7871,7.8041,7.8415,7.8756,7.8769,7.8559,7.8443,7.8289,7.8227,7.8298,7.8087,7.7971,7.7647,7.7535,7.7589,7.7663,7.7733,7.7675,7.7534,7.742,7.7504,7.7507,7.7591,7.7473,7.7451,7.7402,7.7294,7.6698,7.5926,7.5798,7.5965,7.7099,7.9854,8.4182,8.594,8.639,8.3165,7.7784,7.6024,7.661,7.7021,7.7151,7.7337,7.7103,7.7645,7.8449,7.864,7.8362,7.8309,7.8331,7.8527,7.8515,7.8706,7.8626,7.8711,7.8801,7.8995,7.8988,7.9029,7.8973,7.9136,7.9164,7.9342,7.9314,7.9436,7.9535,7.9627,7.9693,7.9674,7.9681,7.9852,7.9825,8.0022,8.006,8.0051,8.0057,8.0065,8.0118,8.0347,8.0512,8.0691,8.0692,8.0774,8.0682,8.0718,8.0874,8.0897,8.1162,8.1213,8.1359,8.1455,8.1544,8.1564,8.1503,8.1384,8.1392,8.1188,8.1184,8.1083,8.0928,8.0625,8.0323,8.0036,7.9622,7.9319,7.9023,7.8663,7.85,7.8375,7.8243,7.8026,7.7881,7.7616,7.755,7.7345,7.7317,7.7279,7.7215,7.7261,7.7081,7.6948,7.6866,7.691,7.6904,7.6755,7.6791,7.6641,7.6559,7.6491,7.6512,7.6468,7.648,7.6405,7.642,7.6381,7.6429,7.6487,7.6434,7.6385,7.6336,7.6272,7.6207,7.6256,7.623,7.617,7.6038,7.6033,7.6151,7.6234,7.616,7.6059,7.6127,7.6123,7.6211,7.6194,7.6162,7.6251,7.6239,7.6211,7.6163,7.6183,7.6144,7.6127,7.6069,7.5977,7.5936,7.5932,7.5943,7.5896,7.5889,7.5816,7.5775,7.5805,7.5833,7.5873,7.5884,7.576,7.5741,7.5599,7.5724,7.5806,7.576,7.5737,7.5692,7.5621,7.5547,7.5653,7.5643,7.5669,7.5621,7.5517,7.5504,7.555,7.5645,7.5677,7.5591,7.5401,7.5335,7.5475,7.5536,7.5587,7.5528,7.5455,7.5361,7.5374,7.5312,7.5077,7.497,7.5024,7.5286,7.5318,7.5305,7.5567,7.5816,7.6086,7.5918,7.5835,7.5675,7.5566,7.5602,7.5567,7.5344,7.5074,7.5134,7.5206,7.5197,7.5302,7.531,7.5221,7.5237,7.524,7.5185,7.5097,7.5217,7.5331,7.5297,7.5252,7.492,7.409,7.3723,7.363,7.4076,7.6199,8.0365,8.4536,8.4631,8.2324,7.6846,7.2337,7.2688,7.362,7.3841,7.4154,7.3943,7.3863,7.449,7.5294,7.5664,7.5586,7.5459,7.5472,7.5474,7.5432,7.5529,7.5424,7.5558,7.5583,7.5618,7.5571,7.5544,7.5624,7.5676,7.5679,7.5837,7.5875,7.5828,7.6002,7.6114,7.6115,7.6238,7.6371,7.6502,7.6474,7.6594,7.6608,7.6716,7.6871,7.6988,7.6942,7.7082,7.7244,7.7455,7.759,7.7676,7.78,7.7903,7.7944,7.811,7.826,7.8426,7.8515,7.8573,7.8642,7.8651,7.8698,7.874,7.8745,7.861,7.8466,7.8283,7.8024,7.7709,7.7508,7.7195,7.6853,7.6459,7.6233,7.61,7.6015,7.5785,7.5702,7.556,7.5449,7.5282,7.5167,7.5115,7.5047,7.5034,7.5002,7.4938,7.4942,7.4944,7.493,7.4937,7.4914,7.4887,7.4979,7.5081,7.5132,7.5167,7.5059,7.5298,7.5376,7.536,7.5343,7.534,7.5421,7.5365,7.5276,7.5303,7.5342,7.5384,7.5426,7.5459,7.5495,7.5468,7.547,7.5521,7.5521,7.5566,7.5548,7.5605,7.563,7.5626,7.5623,7.5632,7.5608,7.578,7.5828,7.5747,7.5759,7.5749,7.5733,7.5711,7.5812,7.5748,7.5676,7.5731,7.5737,7.5732,7.5805,7.5753,7.5768,7.5905,7.5972,7.5894,7.5896,7.5944,7.5997,7.602,7.6031,7.6096,7.615,7.6133,7.6261,7.6287,7.6305,7.6336,7.6635,7.6958,7.7103,7.7051,7.6896,7.6796,7.6615,7.6457,7.6438,7.6475,7.6463,7.6407,7.6539,7.67,7.6703,7.6714,7.6638,7.6503,7.6405,7.6409,7.6394,7.6371,7.6421,7.626,7.6325,7.6106,7.5356,7.443,7.4348,7.4451,7.5725,7.893,8.3785,8.611,8.3697,7.8489,7.4205,7.4355,7.4717,7.4675,7.4872,7.4781,7.4704,7.5147,7.5922,7.6314,7.619,7.6141,7.6136,7.6182,7.6285,7.6293,7.6276,7.6208,7.6264,7.6398,7.6404,7.6507,7.6632,7.6661,7.6698,7.6749,7.6809,7.685,7.6891,7.6891,7.7045,7.7094,7.7187,7.7182,7.7227,7.7375,7.7465,7.7544,7.7694,7.7766,7.7848,7.7971,7.8065,7.8152,7.8193,7.8421,7.863,7.8756,7.8885,7.9121,7.9178,7.927,7.9273,7.9335,7.9456,7.9588,7.9619,7.9439,7.9336,7.9072,7.9067,7.8929,7.8647,7.8522,7.8173,7.7864,7.7622,7.7278,7.7001,7.6668,7.6548,7.6365,7.6158,7.5984,7.5858,7.5821,7.5709,7.5645,7.5707,7.5665,7.5636,7.5618,7.5551,7.5549,7.5527,7.5523,7.5515,7.5521,7.5509,7.5544,7.556,7.5502,7.552,7.5571,7.5649,7.5687,7.5616,7.5757,7.5718,7.5832,7.587,7.5812,7.5785,7.5762,7.5778,7.5836,7.5818,7.5917,7.5846,7.5888,7.5872,7.5857,7.5853,7.5816,7.5713,7.5787,7.577,7.5784,7.5749,7.566,7.5733,7.5736,7.5738,7.5764,7.5673,7.5646,7.5579,7.5479,7.5502,7.5567,7.5624,7.5674,7.5664,7.5657,7.5638,7.5607,7.5652,7.5703,7.5619,7.5577,7.5572,7.5571,7.5618,7.5616,7.5682,7.5644,7.5753,7.5703,7.5677,7.5646,7.5616,7.5745,7.5781,7.5724,7.5729,7.5715,7.5753,7.5752,7.5767,7.5919,7.598,7.5893,7.5856,7.5921,7.6093,7.5993,7.6006,7.6292,7.6771,7.6885,7.6647,7.6524,7.6458,7.6454,7.6449,7.638,7.623,7.6083,7.5905,7.5914,7.5972,7.5924,7.5853,7.5846,7.5822,7.5808,7.5724,7.5718,7.5706,7.5726,7.5781,7.5717,7.5372,7.4409,7.3915,7.3881,7.448,7.6169,7.7972,8.2592,8.5551,8.4065,7.9558,7.5401,7.5368,7.541,7.5105,7.5198,7.483,7.4996,7.5737,7.616,7.6146,7.5987,7.6047,7.6048,7.6106,7.6067,7.6151,7.6137,7.6275,7.625,7.6357,7.6359,7.6411,7.6465,7.6483,7.6536,7.6628,7.667,7.6859,7.6823,7.6901,7.6892,7.7001,7.6945,7.7096,7.7181,7.7265,7.7391,7.7426,7.7485,7.7599,7.7668,7.7856,7.7941,7.8038,7.8179,7.8249,7.8392,7.8466,7.8573,7.8735,7.885,7.9037,7.9094,7.9164,7.9337,7.9364,7.9503,7.9583,7.9654,7.9554,7.9383,7.9195,7.9019,7.874,7.8443,7.8114,7.794,7.777,7.7529,7.7283,7.7181,7.7026,7.6923,7.6824,7.6735,7.6612,7.6662,7.6538,7.653,7.6501,7.6491,7.6535,7.656,7.6527,7.652,7.6536,7.6554,7.6554,7.655,7.6442,7.6504,7.6598,7.6664,7.6691,7.6722,7.677,7.6794,7.6774,7.6801,7.68,7.6835,7.6812,7.6933,7.687,7.6997,7.7016,7.702,7.7073,7.7097,7.7078,7.7068,7.7059,7.709,7.7059,7.7084,7.7088,7.7132,7.7205,7.7189,7.7195,7.7154,7.7202,7.7202,7.7249,7.7221,7.72,7.7161,7.7162,7.7136,7.7222,7.7272,7.724,7.7164,7.7167,7.724,7.7198,7.7214,7.7234,7.7299,7.7323,7.7291,7.7266,7.7269,7.7255,7.7319,7.7279,7.7278,7.7323,7.7343,7.7362,7.7343,7.7368,7.737,7.7382,7.7394,7.7484,7.7482,7.7548,7.761,7.756,7.749,7.7469,7.7489,7.7539,7.7615,7.7546,7.7478,7.7465,7.747,7.7527,7.7604,7.759,7.763,7.7703,7.7646,7.7577,7.7593,7.7816,7.7727,7.7695,7.8046,7.8487,7.8645,7.853,7.8322,7.8165,7.8064,7.8119,7.808,7.7998,7.7867,7.7672,7.7599,7.7616,7.7642,7.7637,7.7629,7.7614,7.7627,7.7671,7.7706,7.7689,7.7692,7.7773,7.7872,7.7544,7.6561,7.5974,7.597,7.6041,7.7236,8.0016,8.4516,8.713,8.5603,8.105,7.6844,7.6872,7.7305,7.7065,7.7343,7.6811,7.7003,7.7624,7.8119,7.8091,7.7892,7.7903,7.7917,7.8075,7.8018,7.804,7.7971,7.8122,7.8179,7.8246,7.8268,7.8298,7.8278,7.8357,7.8348,7.8419,7.8378,7.8511,7.8525,7.8559,7.8567,7.8622,7.8639,7.8697,7.8774,7.8854,7.8914,7.9012,7.9056,7.9159,7.9256,7.9386,7.9406,7.9544,7.973,7.9814,7.9964,8.0064,8.0252,8.0307,8.0429,8.0497,8.0618,8.0671,8.0828,8.0864,8.0959,8.0921,8.0875,8.0835,8.0746,8.0513,8.0338,8.0045,7.9808,7.9464,7.9101,7.8799,7.8438,7.8304,7.8137,7.7959,7.7796,7.7665,7.7481,7.739,7.7279,7.7129,7.7116,7.7044,7.7035,7.6994,7.7034,7.6972,7.6923,7.6933,7.6902,7.6932,7.687,7.688,7.6914,7.6906,7.6915,7.6842,7.6884,7.6874,7.6865,7.6825,7.6892,7.6904,7.7018,7.7032,7.698,7.6978,7.69,7.6935,7.6867,7.6821,7.6831,7.683,7.6777,7.6824,7.681,7.6768,7.6789,7.6878,7.6956,7.6961,7.6913,7.6732,7.7038,7.7108,7.6885,7.6865,7.6897,7.6841,7.6883,7.6853,7.6945,7.6931,7.695,7.6908,7.6839,7.6834,7.6799,7.6841,7.6777,7.6791,7.6803,7.6703,7.6742,7.675,7.6711,7.6731,7.6706,7.6822,7.6788,7.6866,7.6836,7.6863,7.6811,7.6809,7.6798,7.6739,7.6768,7.6726,7.6712,7.674,7.6713,7.6765,7.6864,7.6879,7.6798,7.6879,7.7084,7.7133,7.7168,7.7195,7.7426,7.7785,7.8032,7.794,7.7732,7.7565,7.7463,7.7496,7.7367,7.7281,7.7013,7.6922,7.6903,7.6977,7.6964,7.7003,7.6904,7.6888,7.6885,7.6815,7.6763,7.6738,7.6737,7.6745,7.6742,7.6497,7.5675,7.5266,7.5272,7.5948,7.8043,8.2097,8.6308,8.6525,8.1423,7.5885,7.4017,7.4229,7.5303,7.5449,7.5786,7.5799,7.5694,7.6246,7.6929,7.7397,7.733,7.7215,7.7219,7.7231,7.7238,7.7223,7.7227,7.7321,7.7439,7.7498,7.7563,7.7667,7.7768,7.8007,7.8139,7.8296,7.8369,7.8496,7.8517,7.8643,7.8753,7.8856,7.899,7.9084,7.9172,7.9178,7.9257,7.9365,7.9455,7.9513,7.9544,7.9617,7.9783,7.9943,8.0065,8.0131,8.0186,8.0257,8.0515,8.0716,8.0842,8.0989,8.1049,8.111,8.1213,8.1308,8.1309,8.1345,8.1315,8.1314,8.1199,8.1042,8.0717,8.042,8.0138,7.9842,7.9619,7.9382,7.9122,7.8836,7.8617,7.8484,7.8291,7.8164,7.8119,7.8063,7.7976,7.7933,7.7884,7.7872,7.7927,7.7841,7.7862,7.7776,7.7763,7.775,7.778,7.7829,7.7828,7.7764,7.7778,7.7862,7.7752,7.777,7.7802,7.783,7.7843,7.787,7.7898,7.7894,7.7885,7.7855,7.7843,7.7877,7.7929,7.7883,7.7918,7.791,7.7915,7.7927,7.7935,7.7883,7.7916,7.7803,7.7905,7.7817,7.7831,7.7794,7.7624,7.7656,7.7735,7.7827,7.7813,7.7808,7.7784,7.778,7.7804,7.7764,7.777,7.7722,7.7704,7.7713,7.7785,7.7753,7.778,7.7788,7.7857,7.7893,7.7928,7.7865,7.7936,7.7992,7.7989,7.7977,7.7942,7.7976,7.7943,7.7892,7.7875,7.7837,7.7829,7.7873,7.7841,7.7852,7.7833,7.7799,7.7667,7.7633,7.7695,7.7756,7.762,7.7651,7.8055,7.8386,7.8377,7.8236,7.8049,7.7931,7.7942,7.796,7.7978,7.7951,7.7727,7.776,7.7744,7.7772,7.7789,7.7841,7.7894,7.7891,7.7926,7.7919,7.7947,7.8002,7.8072,7.8122,7.8007,7.7489,7.6562,7.634,7.6435,7.7493,8.0168,8.2488,8.6798,8.8251,8.4914,7.9922,7.7439,7.7869,7.7653,7.7431,7.7343,7.7153,7.7352,7.8229,7.8386,7.8387,7.8223,7.8295,7.8278,7.8381,7.836,7.8518,7.8431,7.8532,7.8491,7.8646,7.8622,7.8671,7.8671,7.8785,7.8806,7.8847,7.8877,7.8967,7.8931,7.9059,7.9116,7.9152,7.9164,7.9222,7.9399,7.9363,7.9472,7.9559,7.9697,7.9821,7.9895,8.0029,8.0092,8.0247,8.0374,8.0567,8.0735,8.0866,8.0981,8.1041,8.1143,8.1269,8.1335,8.1371,8.1414,8.1456,8.1526,8.1486,8.1469,8.1338,8.1305,8.1114,8.0846,8.0594,8.034,8.0049,7.9866,7.9642,7.9531,7.9362,7.9255,7.912,7.9083,7.8975,7.8838,7.8752,7.8712,7.8602,7.8561,7.8519,7.8514,7.8393,7.8369,7.8335,7.8317,7.8297,7.8267,7.822,7.8226,7.815,7.8204,7.8204,7.831,7.8308,7.8261,7.8282,7.8379,7.8387,7.84,7.8431,7.8464,7.8507,7.8556,7.8553,7.8564,7.8652,7.8692,7.8731,7.8723,7.8728,7.8703,7.8684,7.8755,7.8731,7.8729,7.8722,7.876,7.8745,7.8794,7.8791,7.884,7.885,7.8937,7.8881,7.8916,7.8937,7.8904,7.8871,7.8892,7.8888,7.8859,7.8851,7.8861,7.8763,7.8816,7.8758,7.8756,7.8752,7.8727,7.8708,7.8633,7.8638,7.8606,7.8693,7.8717,7.8733,7.8714,7.8737,7.8719,7.8697,7.8699,7.8739,7.879,7.8806,7.8757,7.8755,7.8756,7.8818,7.8781,7.8691,7.8695,7.8716,7.8698,7.8761,7.8793,7.8767,7.8653,7.8781,7.886,7.8746,7.8699,7.8777,7.9257,7.949,7.9316,7.9121,7.8956,7.8919,7.8955,7.888,7.8725,7.8583,7.8432,7.8449,7.8408,7.8406,7.8397,7.8433,7.8394,7.8428,7.8333,7.8447,7.843,7.853,7.8501,7.8482,7.8361,7.7678,7.6867,7.6723,7.6877,7.805,8.1106,8.5745,8.8326,8.6587,8.2024,7.9516,7.8326,7.8435,7.8339,7.804,7.8088,7.7936,7.8488,7.8966,7.9106,7.8785,7.8936,7.8789,7.8881,7.8702,7.8771,7.8703,7.8767,7.8653,7.8756,7.8645,7.8731,7.8723,7.8862,7.8752,7.8842,7.8899,7.8988,7.8974,7.9054,7.9164,7.9256,7.9342,7.9432,7.9458,7.9607,7.9658,7.9808,7.9887,7.9959,8.0052,8.0169,8.0321,8.0466,8.0558,8.0681,8.0792,8.0867,8.0956,8.1075,8.1118,8.1314,8.1488,8.1591,8.1676,8.1698,8.1777,8.1831,8.1853,8.1764,8.1679,8.1543,8.1347,8.1059,8.0777,8.0524,8.0242,8.0015,7.9796,7.9492,7.9273,7.9097,7.8941,7.8825,7.8706,7.8512,7.849,7.847,7.8489,7.8272,7.831,7.8293,7.8385,7.8323,7.8379,7.8297,7.8358,7.8429,7.847,7.8419,7.8363,7.8328,7.8287,7.8264,7.8334,7.8337,7.8318,7.8294,7.8309,7.8309,7.8285,7.8263,7.8311,7.8304,7.8296,7.8261,7.8373,7.8386,7.8434,7.8491,7.8545,7.8516,7.8524,7.8465,7.8489,7.8528,7.8509,7.8556,7.8578,7.8497,7.8515,7.8495,7.8518,7.8509,7.8489,7.8481,7.8509,7.8405,7.8486,7.8467,7.8514,7.8495,7.852,7.8608,7.8611,7.863,7.8594,7.864,7.8647,7.8658,7.8667,7.8718,7.8672,7.8699,7.8652,7.8703,7.8699,7.8648,7.862,7.865,7.8653,7.8641,7.866,7.863,7.8635,7.8599,7.8576,7.8572,7.8571,7.8566,7.8578,7.8557,7.8601,7.8545,7.8504,7.8514,7.8509,7.848,7.8454,7.8502,7.8452,7.8459,7.84,7.8509,7.8557,7.8517,7.852,7.8495,7.8639,7.862,7.8487,7.8604,7.9036,7.9441,7.9233,7.9164,7.9078,7.9016,7.9146,7.9146,7.9079,7.8941,7.8717,7.8711,7.8851,7.8906,7.8834,7.8845,7.8851,7.8841,7.8793,7.8816,7.8775,7.8757,7.8762,7.876,7.8537,7.7824,7.7011,7.6891,7.7052,7.8276,7.9535,8.3673,8.7682,8.7847,8.4187,7.926,7.8119,7.8467,7.8338,7.8359,7.8184,7.8173,7.8683,7.9264,7.9301,7.9101,7.9195,7.9139,7.9144,7.9118,7.9188,7.9192,7.9304,7.9321,7.941,7.933,7.9437,7.9486,7.9451,7.9567,7.9596,7.9589,7.9738,7.9764,7.9912,7.9944,8.0016,8.0108,8.0204,8.0281,8.0336,8.0434,8.0472,8.0591,8.063,8.0783,8.089,8.0965,8.1053,8.1229,8.1292,8.1372,8.1518,8.1535,8.1649,8.1911,8.1987,8.2054,8.2068,8.2246,8.2318,8.2346,8.2453,8.2459,8.2431,8.2407,8.2301,8.2103,8.1888,8.1646,8.1376,8.1123,8.0909,8.0656,8.0444,8.0215,8.0048,7.99,7.9854,7.9679,7.9573,7.9505,7.9451,7.934,7.93,7.9279,7.9301,7.9348,7.9354,7.9344,7.9409,7.9425,7.9413,7.9358,7.9381,7.9389,7.9428,7.9452,7.9426,7.9469,7.9458,7.9509,7.951,7.9513,7.952,7.9504,7.9607,7.9539,7.9533,7.9609,7.9598,7.9617,7.9499,7.9584,7.9552,7.9591,7.9606,7.9599,7.954,7.9504,7.9469,7.9467,7.9439,7.9424,7.9434,7.9386,7.9398,7.9388,7.94,7.9362,7.943,7.9337,7.9371,7.9339,7.9327,7.9352,7.938,7.948,7.9395,7.9412,7.9332,7.9374,7.9351,7.9378,7.9418,7.9393,7.9418,7.9291,7.9349,7.9283,7.9411,7.94,7.9359,7.9382,7.9319,7.9307,7.9326,7.9281,7.9279,7.9333,7.931,7.9365,7.9398,7.9377,7.9344,7.9379,7.9348,7.9389,7.9373,7.9414,7.9339,7.9399,7.9371,7.9386,7.9325,7.9326,7.9344,7.9352,7.9269,7.9294,7.925,7.9306,7.933,7.9302,7.9335,7.9345,7.9412,7.9471,7.9482,7.9486,7.9409,7.9462,7.9675,7.9627,7.9458,7.9564,7.9853,8.0258,8.0289,8.0031,7.9829,7.9742,7.9727,7.9664,7.9572,7.9408,7.919,7.9075,7.9107,7.9049,7.9158,7.9162,7.9168,7.9153,7.9167,7.9147,7.9148,7.9127,7.911,7.9087,7.9058,7.8447,7.7571,7.7346,7.7363,7.8289,8.0876,8.534,8.8265
