4.3997,4.3982,4.4003,4.4391,4.4712,4.4792,4.4595,4.4529,4.431,4.4167,4.4092,4.3967,4.3878,4.3748,4.3681,4.3693,4.3718,4.3663,4.3614,4.3611,4.363,4.3602,4.3555,4.3522,4.3525,4.3555,4.3603,4.3545,4.3578,4.3525,4.3499,4.3507,4.3472,4.3383,4.354,4.4477,4.6855,4.9909,5.1896,5.3768,4.9674,4.2273,3.9413,3.8348,3.8675,3.9217,4.0513,4.2112,4.307,4.363,4.3855,4.3784,4.3859,4.395,4.3951,4.3969,4.3993,4.4097,4.4149,4.4198,4.4184,4.4229,4.4289,4.4364,4.4335,4.439,4.4498,4.4637,4.4689,4.4705,4.4713,4.4832,4.4962,4.5052,4.5212,4.5293,4.5451,4.5506,4.5649,4.5776,4.5916,4.6129,4.6261,4.6314,4.6407,4.6563,4.6833,4.7104,4.7266,4.733,4.7328,4.7455,4.7622,4.7739,4.7852,4.7944,4.7913,4.7714,4.7444,4.7133,4.6882,4.6538,4.6373,4.599,4.5573,4.5267,4.4954,4.4766,4.4498,4.4352,4.4203,4.4045,4.3885,4.3879,4.3749,4.3684,4.3665,4.3634,4.3601,4.3605,4.3677,4.3695,4.3662,4.3693,4.3726,4.3675,4.3678,4.3711,4.373,4.3726,4.3672,4.3689,4.3696,4.3734,4.3734,4.3762,4.383,4.3796,4.3841,4.3716,4.3702,4.3709,4.3678,4.3731,4.3782,4.3707,4.3699,4.3748,4.3737,4.3794,4.3903,4.3964,4.3919,4.3977,4.3914,4.3903,4.4264,4.4622,4.4796,4.4695,4.4459,4.4289,4.418,4.4105,4.3897,4.3765,4.3722,4.3675,4.3682,4.361,4.3541,4.3541,4.3534,4.3509,4.3625,4.3568,4.3469,4.3461,4.3473,4.3547,4.353,4.3467,4.3492,4.3471,4.3519,4.3533,4.3446,4.3443,4.4049,4.618,4.9475,5.1806,5.3653,5.1503,4.4489,3.9103,3.7807,3.7533,3.8139,3.9775,4.1064,4.2501,4.327,4.3819,4.389,4.3956,4.3918,4.3997,4.4003,4.4101,4.4169,4.422,4.4348,4.4354,4.4369,4.4431,4.4527,4.4636,4.4664,4.4672,4.4782,4.4869,4.4848,4.4904,4.5093,4.5193,4.5193,4.522,4.5336,4.5559,4.5627,4.5779,4.5907,4.6013,4.6142,4.6251,4.6433,4.656,4.672,4.6843,4.7087,4.724,4.7352,4.7427,4.7513,4.7679,4.7789,4.7835,4.7847,4.7859,4.7781,4.7528,4.7185,4.6807,4.6631,4.6269,4.5866,4.5571,4.5195,4.4928,4.4613,4.4384,4.4239,4.4059,4.3999,4.3972,4.382,4.3787,4.3719,4.3672,4.3634,4.3685,4.3605,4.3633,4.365,4.3613,4.36,4.3698,4.3763,4.3717,4.3674,4.3718,4.3765,4.379,4.3818,4.3878,4.3918,4.3805,4.382,4.3825,4.3865,4.3835,4.3855,4.3899,4.3811,4.3763,4.3792,4.3829,4.3891,4.3906,4.3954,4.3986,4.4077,4.4029,4.4058,4.4052,4.4174,4.4516,4.488,4.4871,4.4645,4.4546,4.4318,4.4211,4.4082,4.3964,4.3869,4.3763,4.3723,4.3724,4.37,4.3601,4.351,4.3523,4.3592,4.3617,4.3466,4.3449,4.3461,4.354,4.3551,4.3467,4.3523,4.3464,4.3493,4.3499,4.342,4.3247,4.3466,4.4442,4.7026,5.0153,5.2001,5.4173,5.0677,4.2612,3.8729,3.7642,3.7986,3.8633,4.0135,4.1663,4.286,4.3548,4.3946,4.4016,4.4036,4.3907,4.3868,4.3975,4.3998,4.4091,4.4105,4.4058,4.405,4.4114,4.4112,4.4296,4.4298,4.4263,4.4297,4.431,4.4478,4.4559,4.4641,4.4806,4.4887,4.5076,4.5212,4.5333,4.5437,4.5502,4.547,4.5513,4.579,4.6076,4.6155,4.6235,4.6433,4.6655,4.6817,4.6944,4.7002,4.7262,4.7313,4.7433,4.749,4.7588,4.7628,4.7507,4.7326,4.7164,4.7006,4.6819,4.6322,4.5953,4.5771,4.5388,4.5096,4.472,4.4495,4.4354,4.4093,4.4014,4.3893,4.3781,4.3693,4.3678,4.3686,4.3786,4.372,4.3775,4.375,4.3792,4.3851,4.3914,4.394,4.3899,4.3733,4.3647,4.3657,4.3798,4.3788,4.3759,4.3699,4.3598,4.3548,4.353,4.3502,4.3487,4.3383,4.3301,4.3369,4.3321,4.3314,4.3348,4.3327,4.3272,4.3266,4.3452,4.3322,4.334,4.3374,4.3245,4.3515,4.3927,4.4092,4.3916,4.378,4.3565,4.3385,4.3258,4.3037,4.2922,4.2856,4.2615,4.2604,4.2538,4.2526,4.2638,4.2807,4.2866,4.3019,4.3047,4.3437,4.3665,4.3617,4.3639,4.3641,4.3642,4.3486,4.3443,4.3489,4.3513,4.3236,4.2822,4.2968,4.4673,4.7863,5.0445,5.3148,5.4699,4.8524,4.1267,3.947,3.8629,3.9217,4.0476,4.2157,4.3086,4.3378,4.3449,4.3321,4.3502,4.342,4.3439,4.3368,4.3604,4.3817,4.3975,4.4201,4.4145,4.4069,4.4179,4.4177,4.4233,4.4075,4.405,4.3913,4.3619,4.3271,4.2616,4.2119,4.2034,4.1692,4.1323,4.1468,4.1827,4.1962,4.1979,4.1935,4.2001,4.2287,4.2714,4.2974,4.3126,4.3397,4.3805,4.4332,4.4661,4.5046,4.54,4.5538,4.5907,4.6268,4.6658,4.6648,4.6647,4.6521,4.634,4.6111,4.5782,4.5557,4.5218,4.5011,4.4812,4.4671,4.4512,4.4462,4.4246,4.4196,4.4179,4.4112,4.4172,4.4388,4.4457,4.4574,4.4665,4.4764,4.5012,4.5502,4.6421,4.7166,4.7483,4.7632,4.7766,4.7796,4.7779,4.7598,4.7575,4.7441,4.7237,4.6963,4.6588,4.6406,4.6245,4.6015,4.5766,4.5487,4.5433,4.5444,4.5338,4.5181,4.5083,4.5122,4.5183,4.5204,4.5121,4.4983,4.4916,4.5077,4.5439,4.5662,4.5601,4.5262,4.5114,4.492,4.4764,4.4624,4.4452,4.4472,4.4373,4.4271,4.417,4.4094,4.4006,4.4021,4.3967,4.4012,4.4075,4.4027,4.4121,4.4386,4.4454,4.4361,4.4426,4.4578,4.4601,4.4483,4.4442,4.4172,4.3759,4.4039,4.5693,4.7166,5.0278,5.2898,5.644,5.2766,4.5351,4.266,4.1724,4.2114,4.2782,4.4764,4.5431,4.5993,4.6018,4.6348,4.6414,4.7014,4.7029,4.7163,4.7207,4.7409,4.746,4.7878,4.7903,4.7756,4.7569,4.7497,4.7037,4.6782,4.6463,4.6551,4.6725,4.6691,4.639,4.6454,4.6565,4.6845,4.7145,4.7211,4.726,4.7373,4.752,4.7488,4.7723,4.7671,4.7741,4.783,4.8219,4.859,4.9124,4.9327,4.938,4.9319,4.9765,4.9696,4.9785,4.9895,4.9793,4.9699,4.9732,4.9754,4.9627,4.9177,4.8578,4.8183,4.8137,4.791,4.7371,4.6944,4.6537,4.6147,4.5709,4.5467,4.5261,4.5073,4.492,4.4817,4.4784,4.4747,4.4712,4.4651,4.4803,4.4915,4.5264,4.5316,4.5298,4.518,4.514,4.5032,4.504,4.5128,4.5322,4.5646,4.591,4.5834,4.581,4.574,4.5889,4.6111,4.6326,4.6413,4.6597,4.6675,4.7115,4.7297,4.7377,4.7445,4.7576,4.7824,4.8026,4.8004,4.7564,4.7152,4.6697,4.6468,4.615,4.5791,4.549,4.5303,4.5181,4.4963,4.4793,4.459,4.4497,4.4462,4.4441,4.4383,4.4332,4.427,4.4242,4.43,4.4264,4.4111,4.413,4.4061,4.4067,4.4028,4.4031,4.3937,4.3948,4.4634,4.6907,5.0094,5.176,5.39,5.219,4.456,3.9329,3.8326,3.8482,3.9695,4.1207,4.1955,4.3177,4.3872,4.4263,4.4306,4.4214,4.4217,4.4272,4.433,4.4365,4.4347,4.4297,4.4349,4.4421,4.451,4.4494,4.4549,4.4588,4.464,4.4628,4.467,4.4756,4.4903,4.4919,4.502,4.5106,4.5236,4.5367,4.5457,4.546,4.558,4.5747,4.5929,4.6006,4.6061,4.6265,4.6458,4.6596,4.6758,4.6982,4.7036,4.7091,4.7314,4.7392,4.7641,4.7693,4.7852,4.7816,4.7885,4.7779,4.7407,4.702,4.6681,4.6348,4.6036,4.5672,4.5263,4.5063,4.4706,4.4287,4.4183,4.4078,4.3962,4.3845,4.3797,4.3716,4.325,4.2935,4.2986,4.3496,4.4529,4.4755,4.4762,4.481,4.5163,4.5536,4.5609,4.5821,4.613,4.6351,4.6386,4.6221,4.6022,4.583,4.5644,4.5498,4.533,4.526,4.52,4.5088,4.5073,4.4994,4.4983,4.5032,4.4947,4.4838,4.4696,4.4496,4.4683,4.4967,4.4931,4.4664,4.4449,4.426,4.4033,4.3931,4.3861,4.3712,4.3589,4.3554,4.3517,4.3469,4.3429,4.3417,4.3418,4.3439,4.3462,4.3477,4.3449,4.3407,4.3395,4.3473,4.3516,4.3508,4.3435,4.3385,4.3377,4.3112,4.2657,4.2672,4.4138,4.7108,4.974,5.0468,5.4621,5.2833,4.5258,4.0346,3.9321,3.9251,3.9581,4.1856,4.2776,4.3459,4.3417,4.3521,4.3531,4.359,4.339,4.3479,4.3422,4.3579,4.3533,4.357,4.35,4.3661,4.3668,4.3823,4.3831,4.3952,4.403,4.4225,4.4212,4.4328,4.4307,4.4429,4.4473,4.4596,4.4618,4.4803,4.4925,4.5078,4.5245,4.5302,4.5329,4.5432,4.5572,4.5783,4.586,4.603,4.6136,4.6345,4.6537,4.6738,4.6827,4.6996,4.7169,4.73,4.7392,4.7446,4.7445,4.7365,4.7267,4.6937,4.6561,4.6133,4.5715,4.5326,4.4891,4.4528,4.4262,4.3984,4.3735,4.3556,4.3433,4.3317,4.3306,4.3302,4.3377,4.3331,4.3285,4.3235,4.3274,4.3321,4.3356,4.3279,4.3327,4.3375,4.3451,4.3414,4.3479,4.3541,4.3638,4.3672,4.3683,4.367,4.3712,4.366,4.3642,4.3561,4.3649,4.3699,4.3867,4.3982,4.414,4.4285,4.4278,4.4266,4.4417,4.4889,4.5471,4.581,4.5858,4.5697,4.5514,4.5211,4.5045,4.4908,4.4691,4.4497,4.4351,4.4185,4.4089,4.3932,4.3876,4.3719,4.3675,4.3548,4.3529,4.344,4.3391,4.3309,4.3309,4.3252,4.3236,4.3132,4.3176,4.3113,4.3044,4.2692,4.2358,4.2793,4.4883,4.8044,5.003,5.3901,5.1948,4.4199,3.9708,3.8912,3.907,3.9514,4.1637,4.2565,4.317,4.3233,4.33,4.3277,4.3354,4.3352,4.3378,4.3345,4.3427,4.3468,4.3518,4.3507,4.3577,4.3569,4.3601,4.3614,4.3664,4.3713,4.3788,4.3886,4.3939,4.397,4.4013,4.4152,4.429,4.445,4.4606,4.4718,4.4835,4.4988,4.5168,4.5363,4.5485,4.5671,4.585,4.6058,4.6194,4.6356,4.6498,4.6607,4.6746,4.6957,4.7064,4.7183,4.7271,4.7376,4.7441,4.7472,4.7293,4.7109,4.6804,4.6483,4.5964,4.5549,4.5143,4.4821,4.4447,4.4163,4.3998,4.3812,4.3642,4.36,4.3537,4.3928,4.4286,4.4336,4.4361,4.438,4.4277,4.4252,4.4165,4.4143,4.4021,4.3964,4.3896,4.3959,4.3935,4.397,4.3931,4.3951,4.3949,4.3991,4.3964,4.4016,4.3927,4.3917,4.3839,4.3836,4.3794,4.3805,4.3772,4.3814,4.3772,4.3753,4.3752,4.3716,4.367,4.3654,4.3597,4.3894,4.4177,4.4296,4.4169,4.3961,4.3772,4.3624,4.3438,4.323,4.3109,4.3007,4.2919,4.2862,4.2837,4.2821,4.2818,4.278,4.2794,4.2799,4.2766,4.2725,4.2712,4.2667,4.2747,4.2768,4.2701,4.2664,4.2644,4.2698,4.2696,4.2577,4.2857,4.4335,4.7092,4.9515,5.0402,5.2619,4.8407,4.1166,3.8804,3.8385,3.9112,3.9856,4.1653,4.2567,4.3131,4.336,4.344,4.3388,4.3395,4.3344,4.3465,4.3493,4.3646,4.3648,4.3692,4.3663,4.3714,4.3753,4.3871,4.3932,4.4003,4.4044,4.4188,4.4294,4.4388,4.4498,4.4658,4.4826,4.4996,4.5173,4.5291,4.545,4.558,4.5785,4.5956,4.6091,4.63,4.6443,4.661,4.672,4.6849,4.6975,4.7065,4.7187,4.7297,4.7317,4.7415,4.7515,4.7627,4.7686,4.769,4.7668,4.7613,4.7428,4.719,4.6842,4.6498,4.6086,4.5736,4.5384,4.5229,4.4805,4.4443,4.4282,4.4104,4.3956,4.381,4.3764,4.3672,4.3629,4.3577,4.355,4.3477,4.3459,4.3457,4.3476,4.3394,4.3441,4.3413,4.3466,4.344,4.3464,4.3428,4.3459,4.3432,4.3443,4.3433,4.3417,4.3455,4.3468,4.3453,4.3405,4.3403,4.3451,4.345,4.3466,4.3512,4.3602,4.3621,4.3659,4.3672,4.3637,4.3837,4.4237,4.4457,4.4553,4.4276,4.4142,4.4045,4.3979,4.3831,4.365,4.3578,4.3489,4.347,4.3429,4.3391,4.3373,4.3384,4.3402,4.3349,4.3298,4.3315,4.3332,4.3331,4.3345,4.3341,4.3331,4.3348,4.3384,4.336,4.3338,4.3129,4.291,4.3206,4.4689,4.7379,4.985,5.2048,5.0881,4.4623,3.958,3.8776,3.8807,3.9666,4.0964,4.1771,4.2778,4.3329,4.3658,4.3676,4.3581,4.3612,4.3617,4.3706,4.3757,4.3824,4.3894,4.3981,4.4014,4.4116,4.4187,4.4206,4.4282,4.4351,4.4406,4.4537,4.4591,4.4685,4.4734,4.4782,4.4829,4.487,4.494,4.5068,4.5189,4.5335,4.5489,4.5557,4.5625,4.5806,4.5936,4.6033,4.6134,4.6187,4.6244,4.6402,4.6562,4.6629,4.6849,4.6989,4.7026,4.7043,4.7081,4.7062,4.7025,4.6894,4.6658,4.6379,4.61,4.5752,4.5376,4.4987,4.4733,4.4443,4.4167,4.4025,4.3816,4.3642,4.3553,4.3418,4.3336,4.3317,4.3316,4.3412,4.3451,4.3398,4.3314,4.3268,4.3308,4.3437,4.3493,4.3483,4.3514,4.3499,4.3469,4.3562,4.3622,4.3594,4.359,4.3654,4.3692,4.3742,4.3805,4.3811,4.3802,4.3842,4.3804,4.3986,4.4145,4.4293,4.4389,4.4497,4.4702,4.5015,4.5526,4.6044,4.6429,4.6494,4.6186,4.5982,4.5908,4.5746,4.5561,4.5202,4.4993,4.484,4.4728,4.4648,4.451,4.4416,4.436,4.422,4.4188,4.4179,4.416,4.4063,4.3877,4.3822,4.3829,4.3845,4.3867,4.3847,4.3732,4.3712,4.3655,4.3737,4.4429,4.6464,4.8003,5.0585,5.266,5.1664,4.6132,3.9591,3.8077,3.7614,3.8757,4.0254,4.1725,4.2929,4.3475,4.3865,4.3777,4.3742,4.3618,4.3507,4.3478,4.3526,4.3587,4.3603,4.3564,4.3668,4.3689,4.3834,4.3996,4.4678,4.5518,4.5943,4.6141,4.6429,4.655,4.6656,4.6532,4.6381,4.6179,4.6104,4.6051,4.6061,4.6041,4.611,4.6252,4.6296,4.6258,4.6253,4.6395,4.6502,4.6632,4.683,4.7005,4.7153,4.73,4.7526,4.7736,4.7814,4.7934,4.8009,4.8024,4.7993,4.7829,4.7739,4.7495,4.7205,4.685,4.6359,4.5947,4.5544,4.5273,4.5075,4.4854,4.4616,4.4368,4.4224,4.4184,4.4228,4.4161,4.4016,4.4008,4.4038,4.401,4.3964,4.3915,4.3902,4.3955,4.4004,4.4032,4.3989,4.3949,4.3881,4.3941,4.3988,4.402,4.4006,4.4084,4.4066,4.4034,4.3969,4.4069,4.4068,4.4032,4.3969,4.3906,4.3934,4.3939,4.4258,4.4703,4.4807,4.4634,4.4489,4.4263,4.4103,4.3983,4.3753,4.3698,4.3608,4.3518,4.3389,4.332,4.3293,4.3289,4.327,4.3187,4.3121,4.3094,4.3076,4.3141,4.3141,4.304,4.2859,4.2915,4.2963,4.2879,4.2927,4.2974,4.3048,4.3225,4.3817,4.5779,4.8885,5.0998,5.28,5.0051,4.2996,3.7986,3.6926,3.7258,3.8642,4.0208,4.177,4.2896,4.3368,4.366,4.3603,4.3624,4.3577,4.3765,4.382,4.389,4.3918,4.4075,4.4122,4.4286,4.4243,4.4301,4.4324,4.4455,4.4493,4.4657,4.4715,4.4799,4.4777,4.4873,4.4973,4.5049,4.5167,4.5271,4.5409,4.5513,4.558,4.579,4.5885,4.6064,4.6171,4.6323,4.6431,4.664,4.6697,4.684,4.6933,4.7013,4.7121,4.7211,4.7377,4.7503,4.7562,4.7614,4.7646,4.7553,4.737,4.7134,4.6862,4.6528,4.6179,4.583,4.5491,4.5273,4.4974,4.4639,4.452,4.4407,4.429,4.4149,4.4034,4.4006,4.3988,4.395,4.396,4.3996,4.3954,4.3921,4.3873,4.3906,4.3937,4.3903,4.3946,4.3924,4.4016,4.4006,4.392,4.3984,4.4038,4.3937,4.3932,4.3958,4.4013,4.401,4.4015,4.409,4.4054,4.3916,4.3939,4.3913,4.4073,4.4427,4.4757,4.4805,4.4719,4.4513,4.4349,4.4203,4.4056,4.3848,4.3702,4.3657,4.3666,4.3651,4.3559,4.3543,4.3605,4.3525,4.3458,4.3535,4.3634,4.3602,4.3655,4.3662,4.3674,4.365,4.37,4.3687,4.3754,4.3826,4.3705,4.3399,4.3409,4.4394,4.6999,4.9984,5.1913,5.4244,4.9581,4.2008,3.9517,3.8808,3.901,3.9977,4.1394,4.274,4.3762,4.4127,4.4284,4.4186,4.426,4.4233,4.4397,4.4319,4.4399,4.4344,4.4439,4.4428,4.447,4.4468,4.4584,4.4562,4.4674,4.4694,4.4805,4.4708,4.4756,4.4821,4.4945,4.507,4.5098,4.5166,4.5195,4.5248,4.5399,4.5568,4.5722,4.5846,4.5934,4.6104,4.6205,4.6523,4.6729,4.6777,4.6948,4.709,4.7263,4.746,4.7578,4.7712,4.7782,4.791,4.7933,4.7946,4.781,4.7618,4.7288,4.6948,4.6621,4.6445,4.5991,4.5694,4.5399,4.5192,4.4967,4.4721,4.4562,4.4448,4.4372,4.4484,4.4643,4.4693,4.4647,4.4513,4.4542,4.4599,4.4665,4.4617,4.4557,4.4466,4.4435,4.4446,4.4387,4.4345,4.4319,4.4305,4.4281,4.4204,4.422,4.4271,4.4327,4.4327,4.4266,4.4196,4.4249,4.4389,4.4521,4.4492,4.4372,4.443,4.441,4.4821,4.5181,4.5336,4.5104,4.4954,4.4807,4.4705,4.4492,4.4363,4.4166,4.4089,4.4064,4.415,4.4008,4.4001,4.3933,4.3814,4.3871,4.3845,4.3832,4.3918,4.3893,4.3945,4.3834,4.3813,4.3883,4.3914,4.3849,4.384,4.3767,4.3359,4.3307,4.4479,4.703,4.868,5.1012,5.4601,5.1918,4.4681,4.087,4.0029,4.0165,4.0914,4.2385,4.3462,4.4041,4.4414,4.435,4.4306,4.4152,4.4245,4.4382,4.4528,4.4412,4.44,4.4478,4.4529,4.4501,4.4528,4.4605,4.4668,4.4677,4.4703,4.4721,4.4597,4.4719,4.4866,4.5015,4.5026,4.5007,4.5089,4.5211,4.5286,4.5393,4.548,4.555,4.5682,4.5893,4.6008,4.6058,4.6462,4.6549,4.6671,4.6933,4.7158,4.7139,4.7288,4.7577,4.7888,4.8017,4.8027,4.7988,4.7997,4.8168,4.8075,4.7894,4.7612,4.7228,4.6932,4.7199,4.7137,4.6869,4.6749,4.671,4.6459,4.6128,4.601,4.589,4.5797,4.5551,4.5397,4.5385,4.5314,4.5287,4.5069,4.5019,4.4979,4.4972,4.4881,4.4863,4.4714,4.4692,4.4623,4.4786,4.4775,4.4754,4.479,4.4788,4.4632,4.4613,4.4733,4.4779,4.4649,4.4542,4.4528,4.4585,4.4698,4.4852,4.4657,4.4581,4.477,4.4894,4.5084,4.5429,4.551,4.5307,4.5157,4.4945,4.4879,4.4708,4.4575,4.4601,4.4591,4.4426,4.44,4.4518,4.4275,4.4264,4.4254,4.422,4.4152,4.409,4.409,4.4036,4.4039,4.4059,4.4018,4.3974,4.3939,4.4044,4.3987,4.3828,4.3319,4.3121,4.3726,4.5655,4.8862,5.158,5.5297,5.1352,4.3963,4.1388,4.0946,4.1333,4.191,4.3751,4.4173,4.4839,4.4921,4.4954,4.4889,4.4912,4.4919,4.4847,4.4787,4.4768,4.4801,4.4966,4.5072,4.496,4.4933,4.5009,4.5045,4.5037,4.5168,4.5149,4.5168,4.5276,4.5434,4.5431,4.5499,4.5528,4.5704,4.5684,4.5789,4.5974,4.6167,4.6247,4.633,4.6519,4.6592,4.6718,4.6906,4.7058,4.7206,4.7382,4.7433,4.7549,4.7665,4.7803,4.7973,4.7987,4.8017,4.8045,4.8263,4.8181,4.7829,4.7479,4.7284,4.6921,4.6536,4.6116,4.5699,4.5525,4.5258,4.4987,4.4763,4.4516,4.4382,4.4278,4.4184,4.4026,4.3998,4.3919,4.4065,4.4009,4.4043,4.3961,4.3951,4.3854,4.3925,4.4024,4.4059,4.3999,4.3953,4.4097,4.4026,4.3958,4.393,4.3924,4.4013,4.3951,4.4043,4.401,4.4073,4.4046,4.4146,4.4129,4.419,4.4271,4.4329,4.4324,4.4252,4.4213,4.4346,4.4753,4.5156,4.5173,4.4863,4.4699,4.4559,4.4479,4.4306,4.4117,4.4105,4.3967,4.3942,4.385,4.3813,4.3853,4.384,4.3836,4.385,4.3795,4.3732,4.3691,4.369,4.3805,4.3779,4.3714,4.3753,4.3813,4.3774,4.3624,4.3281,4.2998,4.3422,4.5059,4.8204,4.9719,5.2641,5.3906,4.7658,4.1811,4.0554,4.035,4.0817,4.2106,4.333,4.403,4.4307,4.4242,4.4091,4.4269,4.419,4.4312,4.4345,4.4526,4.4408,4.4401,4.4421,4.4558,4.4636,4.4689,4.47,4.4921,4.496,4.4969,4.5011,4.5226,4.5534,4.6576,4.745,4.7677,4.7737,4.7765,4.7733,4.7879,4.8011,4.8087,4.8181,4.8201,4.831,4.8526,4.8537,4.8599,4.8552,4.8633,4.8764,4.8881,4.8841,4.9061,4.9424,4.9927,4.9985,4.9932,4.9891,4.9874,4.9699,4.9443,4.9165,4.8789,4.8452,4.7895,4.7401,4.6831,4.6419,4.6122,4.5858,4.5559,4.5147,4.4994,4.4864,4.4655,4.4503,4.4467,4.4455,4.4368,4.4344,4.4344,4.4436,4.4669,4.4683,4.4566,4.4489,4.4409,4.4375,4.4323,4.4446,4.4441,4.4371,4.4165,4.4102,4.4136,4.4081,4.3987,4.4095,4.4171,4.4275,4.42,4.4155,4.4168,4.4469,4.481,4.5057,4.517,4.5221,4.5366,4.5555,4.6036,4.6454,4.6425,4.617,4.6165,4.6089,4.6035,4.5804,4.5528,4.519,4.4977,4.5013,4.5149,4.516,4.5147,4.5097,4.4909,4.477,4.4599,4.4643,4.472,4.4839,4.4765,4.4791,4.4698,4.4537,4.4398,4.4302,4.417,4.3925,4.3482,4.3395,4.4457,4.6964,4.9805,5.2099,5.2636,4.7183,4.0482,3.9158,3.854,3.9561,4.0258,4.1459,4.3011,4.3381,4.3729,4.3641,4.3573,4.3443,4.3737,4.3797,4.3738,4.3637,4.3712,4.3699,4.3852,4.3868,4.3886,4.3992,4.4174,4.4163,4.4306,4.4415,4.4703,4.4796,4.4963,4.4847,4.4831,4.4863,4.4754,4.4888,4.503,4.5199,4.5281,4.5439,4.555,4.5617,4.5766,4.5844,4.5926,4.6058,4.6215,4.6215,4.6466,4.6692,4.6835,4.688,4.6975,4.7097,4.7368,4.729,4.7124,4.7063,4.6787,4.6551,4.6367,4.5971,4.544,4.5228,4.4891,4.4434,4.4162,4.3931,4.3774,4.3503,4.3442,4.3292,4.3099,4.3192,4.3029,4.2802,4.3021,4.2972,4.2785,4.2737,4.2625,4.2719,4.276,4.2661,4.2575,4.2612,4.2623,4.2641,4.2538,4.2435,4.2494,4.2478,4.2471,4.2339,4.222,4.2219,4.2277,4.2384,4.233,4.2315,4.2404,4.2511,4.2514,4.2484,4.2468,4.2474,4.2791,4.3228,4.3297,4.3141,4.2992,4.2871,4.2786,4.2685,4.2428,4.2509,4.2471,4.2272,4.2212,4.2163,4.2169,4.2174,4.2213,4.2365,4.2227,4.2168,4.2159,4.2086,4.2048,4.2048,4.205,4.2052,4.2019,4.2096,4.2064,4.201,4.1638,4.1838,4.2961,4.4189,4.7142,4.9712,5.1943,4.9194,4.2075,3.7912,3.676,3.726,3.8585,4.0125,4.1525,4.2159,4.2401,4.2705,4.239,4.2578,4.2514,4.2904,4.2782,4.2701,4.2638,4.2845,4.2815,4.2937,4.2994,4.307,4.3076,4.3128,4.3218,4.3275,4.3305,4.3487,4.3504,4.3565,4.3555,4.3708,4.3849,4.3979,4.4153,4.4289,4.4207,4.4304,4.4457,4.4748,4.4914,4.502,4.502,4.5225,4.5338,4.5402,4.5617,4.588,4.6025,4.5887,4.605,4.6208,4.6363,4.6379,4.6356,4.6296,4.616,4.5782,4.5494,4.5195,4.4829,4.4298,4.3959,4.3639,4.3574,4.3361,4.311,4.2843,4.2761,4.2589,4.2552,4.2433,4.2435,4.2356,4.2548,4.2467,4.2385,4.2458,4.2576,4.2338,4.2337,4.2267,4.2385,4.2357,4.2415,4.2472,4.2575,4.2422,4.2334,4.2409,4.2551,4.251,4.2638,4.2627,4.2785,4.2904,4.2921,4.2901,4.3074,4.3174,4.335,4.3296,4.3175,4.3228,4.3493,4.4004,4.4129,4.3783,4.374,4.3755,4.3724,4.3398,4.3289,4.3168,4.3072,4.2903,4.286,4.2758,4.2585,4.2571,4.2572,4.2593,4.2526,4.2502,4.255,4.2447,4.2352,4.234,4.2328,4.2331,4.2462,4.2566,4.2309,4.2179,4.1874,4.1547,4.1934,4.3842,4.7033,4.9653,5.326,5.0278,4.2974,3.979,3.9028,3.9154,3.9584,4.0495,4.1817,4.2601,4.2685,4.2975,4.2822,4.2924,4.2807,4.2939,4.2861,4.3119,4.2981,4.3232,4.3304,4.3482,4.3367,4.3669,4.3742,4.3884,4.3824,4.3973,4.3939,4.3986,4.407,4.4213,4.4232,4.4508,4.4568,4.4771,4.5023,4.5377,4.5593,4.5791,4.5843,4.5904,4.6013,4.6108,4.6006,4.6022,4.6121,4.62,4.6195,4.6352,4.6452,4.6489,4.6589,4.6669,4.6692,4.6839,4.6834,4.6651,4.6361,4.5999,4.5628,4.5374,4.5038,4.4638,4.4415,4.3906,4.3616,4.3405,4.3176,4.2999,4.2823,4.2754,4.2701,4.2563,4.249,4.2527,4.2548,4.2336,4.2351,4.2377,4.2435,4.2398,4.2447,4.2504,4.2556,4.2436,4.2405,4.2444,4.2465,4.2434,4.2468,4.2633,4.2573,4.2447,4.2544,4.2572,4.2529,4.259,4.2605,4.2608,4.2584,4.2541,4.2589,4.2637,4.2788,4.2756,4.2729,4.2649,4.2699,4.2788,4.3142,4.3457,4.3605,4.3308,4.3153,4.2894,4.288,4.2712,4.2559,4.2458,4.2358,4.2361,4.2419,4.2326,4.2296,4.2316,4.2315,4.2305,4.2252,4.2331,4.2338,4.2178,4.2258,4.229,4.2356,4.2338,4.2312,4.223,4.2123,4.1613,4.141,4.1508,4.2903,4.588,4.875,5.2201,5.2447,4.5858,4.0328,3.9439,3.9181,3.952,4.0933,4.2056,4.2641,4.2798,4.2755,4.2803,4.2761,4.2789,4.2826,4.2812,4.2797,4.2875,4.2933,4.2949,4.2914,4.3003,4.3051,4.3063,4.3167,4.3179,4.3213,4.332,4.3363,4.3416,4.3442,4.3554,4.359,4.3715,4.3791,4.3888,4.4013,4.4155,4.4292,4.437,4.4482,4.4648,4.4808,4.4975,4.513,4.5328,4.5454,4.5604,4.5729,4.5862,4.601,4.6105,4.6215,4.6319,4.6396,4.6477,4.6453,4.6256,4.5975,4.5775,4.5488,4.504,4.4569,4.4254,4.3944,4.3639,4.339,4.3179,4.2967,4.2851,4.2783,4.2692,4.2613,4.2565,4.2521,4.2444,4.243,4.2452,4.2404,4.2435,4.2416,4.2452,4.2444,4.2464,4.2503,4.2504,4.2514,4.2621,4.2597,4.259,4.2518,4.255,4.262,4.2607,4.2632,4.2664,4.2629,4.2566,4.2606,4.2613,4.2607,4.2637,4.2602,4.263,4.2665,4.2676,4.2774,4.2867,4.2882,4.2808,4.2809,4.2793,4.2932,4.3296,4.3653,4.3736,4.3514,4.3309,4.3146,4.3022,4.2911,4.2813,4.2756,4.2666,4.2626,4.2602,4.2614,4.2622,4.2573,4.2569,4.2596,4.2577,4.257,4.2591,4.2583,4.2571,4.2598,4.2657,4.2629,4.2572,4.2573,4.2502,4.2061,4.192,4.2642,4.4852,4.6422,4.8794,5.2045,5.1049,4.4536,3.9907,3.9255,3.905,3.9501,4.1076,4.222,4.2749,4.3053,4.2914,4.3039,4.3003,4.3071,4.3038,4.3145,4.3136,4.3249,4.3241,4.3392,4.3363,4.337,4.3387,4.3487,4.3506,4.3613,4.3664,4.3762,4.3753,4.3859,4.3949,4.4039,4.4108,4.424,4.4312,4.436,4.4389,4.4496,4.4682,4.4891,4.4971,4.5132,4.5343,4.5513,4.5671,4.5815,4.595,4.6101,4.6264,4.6396,4.6537,4.6668,4.6803,4.6929,4.6986,4.7011,4.698,4.6876,4.6681,4.6389,4.6066,4.5689,4.5351,4.498,4.461,4.4254,4.401,4.3754,4.3569,4.3415,4.3302,4.3134,4.3084,4.3074,4.3036,4.2954,4.2958,4.2969,4.2968,4.296,4.2927,4.2936,4.2961,4.2944,4.2976,4.2948,4.2985,4.2953,4.2971,4.3076,4.3075,4.3068,4.3112,4.313,4.3192,4.3215,4.3196,4.3168,4.3172,4.3149,4.3088,4.3055,4.3086,4.3089,4.3147,4.3164,4.3233,4.3277,4.3306,4.3269,4.3305,4.328,4.3373,4.3716,4.41,4.4227,4.3954,4.3763,4.3606,4.3561,4.3476,4.3294,4.3208,4.3117,4.3047,4.2982,4.2898,4.2904,4.2958,4.302,4.3017,4.2893,4.2938,4.2897,4.2853,4.3,4.2977,4.2895,4.2924,4.2881,4.2991,4.2957,4.2621,4.2389,4.2843,4.4774,4.7641,4.989,5.2434,5.1222,4.4875,3.9364,3.8265,3.8221,3.8947,4.0389,4.1898,4.2832,4.3024,4.3313,4.312,4.3084,4.3091,4.3225,4.3112,4.3306,4.325,4.3406,4.3432,4.3476,4.3534,4.3539,4.3409,4.3755,4.3767,4.382,4.3732,4.3815,4.4022,4.4122,4.4067,4.4144,4.4155,4.4308,4.4464,4.4681,4.4701,4.47,4.4861,4.4973,4.5207,4.5323,4.5426,4.5645,4.5785,4.5936,4.6103,4.6299,4.638,4.6457,4.6643,4.6751,4.6839,4.6967,4.6929,4.6946,4.6892,4.6917,4.6416,4.5914,4.5747,4.5508,4.5217,4.4811,4.4366,4.4144,4.4129,4.3877,4.3609,4.3585,4.3738,4.3596,4.3282,4.3276,4.3368,4.3375,4.3466,4.3427,4.345,4.3336,4.3343,4.3296,4.3361,4.3398,4.3436,4.3389,4.3374,4.3257,4.335,4.3314,4.3375,4.3356,4.3388,4.3471,4.3462,4.3467,4.3386,4.332,4.3368,4.3419,4.3418,4.3475,4.3383,4.3371,4.337,4.3269,4.3411,4.3528,4.3691,4.3547,4.3525,4.355,4.3586,4.3724,4.4044,4.4216,4.4401,4.4219,4.3984,4.3816,4.3659,4.3664,4.3712,4.3513,4.3237,4.3158,4.3136,4.3254,4.3268,4.3303,4.3268,4.3116,4.3103,4.3045,4.308,4.3162,4.3245,4.326,4.3278,4.327,4.3216,4.313,4.2983,4.2765,4.2733,4.3298,4.545,4.8761,5.1481,5.3151,4.8739,4.5193,3.9486,3.7786,3.7735,3.8417,4.0312,4.1576,4.3066,4.3126,4.3843,4.3389,4.3776,4.36,4.3924,4.3619,4.391,4.3772,4.4132,4.3812,4.4046,4.3899,4.4247,4.409,4.4231,4.4156,4.4464,4.4444,4.4608,4.4573,4.4667,4.46,4.4831,4.4823,4.5061,4.5176,4.5281,4.5291,4.5502,4.5465,4.5567,4.5714,4.6003,4.6112,4.6245,4.642,4.6459,4.6562,4.6733,4.6811,4.7035,4.7073,4.7187,4.7372,4.7387,4.7477,4.7336,4.7256,4.7147,4.6913,4.6456,4.6217,4.5863,4.5377,4.4986,4.4852,4.4533,4.4351,4.4023,4.392,4.38,4.3681,4.357,4.3721,4.3788,4.3781,4.3621,4.3665,4.3565,4.3456,4.3439,4.358,4.3522,4.3626,4.3531,4.3618,4.3566,4.3691,4.3681,4.381,4.3634,4.3688,4.3689,4.3751,4.373,4.3824,4.371,4.3703,4.3596,4.3765,4.3801,4.3824,4.3755,4.3898,4.3929,4.4142,4.4027,4.3967,4.3966,4.406,4.4277,4.4823,4.4953,4.4717,4.455,4.4477,4.4208,4.4165,4.4046,4.4024,4.3906,4.3842,4.385,4.3781,4.3821,4.3881,4.3748,4.3703,4.359,4.3642,4.3632,4.3716,4.3795,4.3791,4.3743,4.3702,4.3706,4.3726,4.3652,4.3598,4.3335,4.3281,4.404,4.6344,4.945,5.1406,5.4009,5.0215,4.2693,3.985,3.906,3.9662,4.0712,4.1481,4.3109,4.4046,4.4263,4.4377,4.4332,4.4449,4.4389,4.4457,4.449,4.4626,4.4581,4.4672,4.4756,4.4887,4.4817,4.4993,4.4938,4.4997,4.4999,4.5085,4.5123,4.5279,4.5334,4.5399,4.5619,4.5632,4.5834,4.596,4.6026,4.5992,4.6078,4.6238,4.6525,4.6651,4.677,4.6897,4.707,4.714,4.7281,4.7367,4.7592,4.7741,4.7851,4.7987,4.8128,4.8143,4.827,4.8277,4.824,4.815,4.8025,4.7706,4.7345,4.6997,4.6691,4.6312,4.6194,4.5884,4.5632,4.5195,4.5107,4.4897,4.4858,4.4784,4.4583,4.4531,4.4568,4.4517,4.4456,4.4445,4.4502,4.4547,4.4564,4.4501,4.4516,4.4421,4.4472,4.4494,4.4527,4.4537,4.4536,4.4525,4.4573,4.4631,4.4651,4.4614,4.47,4.4652,4.4705,4.4773,4.4785,4.4616,4.4598,4.4626,4.4648,4.4642,4.4689,4.4656,4.4748,4.4801,4.482,4.4895,4.4901,4.4856,4.4826,4.4784,4.5061,4.5452,4.5742,4.569,4.553,4.5308,4.5174,4.5144,4.5145,4.4893,4.4843,4.4814,4.4715,4.4748,4.4663,4.4617,4.4601,4.4686,4.4691,4.4619,4.455,4.4545,4.4555,4.4638,4.4656,4.4536,4.4535,4.4597,4.4647,4.4661,4.4174,4.3818,4.4296,4.6247,4.9514,5.207,5.6032,5.2805,4.5216,4.1737,4.0936,4.1173,4.182,4.3719,4.4386,4.4762,4.4926,4.5112,4.5177,4.5226,4.5095,4.5076,4.4989,4.5183,4.5204,4.5238,4.5242,4.5359,4.5366,4.5474,4.54,4.5501,4.5469,4.5608,4.5586,4.5764,4.5823,4.5975,4.5995,4.6102,4.6062,4.622,4.6401,4.6579,4.6752,4.6836,4.6876,4.7075,4.732,4.7492,4.7648,4.781,4.7876,4.799,4.8146,4.8247,4.8403,4.8528,4.8705,4.8808,4.8909,4.8927,4.8974,4.8953,4.8745,4.85,4.8159,4.7797,4.7411,4.7092,4.6831,4.6383,4.6168,4.5895,4.5676,4.5533,4.5356,4.5208,4.5096,4.5047,4.4923,4.4886,4.4824,4.4858,4.4851,4.4862,4.4946,4.4956,4.4853,4.4834,4.4838,4.4889,4.4906,4.4881,4.4859,4.4875,4.4915,4.4911,4.4866,4.4917,4.4948,4.4904,4.4865,4.4912,4.4919,4.4924,4.4812,4.4754,4.4774,4.48,4.4829,4.4865,4.4863,4.4884,4.4877,4.4982,4.5125,4.5035,4.4988,4.4947,4.5138,4.5514,4.5848,4.573,4.5555,4.5369,4.5277,4.5214,4.5067,4.4952,4.4845,4.4683,4.4662,4.4664,4.4628,4.4655,4.4703,4.4746,4.4794,4.466,4.4612,4.4623,4.4618,4.4629,4.4604,4.4571,4.4624,4.465,4.4694,4.4644,4.4266,4.3953,4.429,4.6095,4.9266,5.1615,5.5211,5.216,4.4868,4.1525,4.0844,4.1078,4.1577,4.3428,4.4307,4.4903,4.4967,4.4955,4.4884,4.4913,4.4925,4.4985,4.4995,4.5012,4.5011,4.5089,4.5105,4.5134,4.5181,4.5228,4.5279,4.5383,4.5415,4.5365,4.5406,4.5521,4.5551,4.5702,4.5757,4.5855,4.5907,4.6019,4.618,4.6343,4.6398,4.6586,4.6718,4.6802,4.6893,4.7047,4.7242,4.7436,4.7608,4.7777,4.789,4.7902,4.8056,4.8166,4.8297,4.8422,4.8513,4.8614,4.859,4.8451,4.8316,4.8076,4.7839,4.7456,4.7036,4.6617,4.6325,4.6053,4.5806,4.5502,4.5369,4.5131,4.5002,4.4923,4.4813,4.4711,4.4653,4.4587,4.462,4.4591,4.4614,4.4568,4.4591,4.4606,4.46,4.456,4.4571,4.4613,4.4669,4.4609,4.4642,4.4614,4.4643,4.4695,4.4744,4.4705,4.4712,4.4706,4.4759,4.4758,4.4782,4.4719,4.467,4.4639,4.4667,4.4642,4.4619,4.4613,4.4624,4.4625,4.4615,4.4574,4.4585,4.4574,4.4694,4.4833,4.4743,4.4696,4.4616,4.4839,4.5293,4.5585,4.5464,4.5229,4.5035,4.4909,4.4804,4.4798,4.4632,4.4575,4.4566,4.4472,4.4352,4.4364,4.4343,4.4318,4.4356,4.4348,4.4342,4.4324,4.4325,4.4307,4.4312,4.4422,4.4439,4.4316,4.4233,4.4248,4.4211,4.3854,4.3512,4.3852,4.5596,4.8597,5.0878,5.4206,5.1784,4.4872,4.1106,4.035,4.0496,4.095,4.2816,4.3825,4.4412,4.4471,4.4541,4.4521,4.4498,4.4471,4.4556,4.46,4.4652,4.4648,4.468,4.4761,4.4841,4.4851,4.4859,4.4977,4.5057,4.5095,4.5158,4.5184,4.5237,4.5343,4.5427,4.5516,4.5609,4.5658,4.5764,4.5829,4.5957,4.6072,4.6191,4.6382,4.6533,4.6671,4.679,4.6935,4.708,4.7238,4.7341,4.7457,4.76,4.7764,4.7849,4.8025,4.8118,4.8108,4.8189,4.8269,4.8233,4.8136,4.7907,4.7622,4.7261,4.6883,4.6494,4.6169,4.5839,4.5538,4.5368,4.5166,4.4941,4.4748,4.4605,4.4529,4.4407,4.4388,4.4271,4.431,4.426,4.4281,4.4247,4.4254,4.4205,4.4215,4.419,4.4198,4.4245,4.4263,4.4293,4.4294,4.4294,4.4325,4.4281,4.428,4.4323,4.4331,4.4303,4.4334,4.4364,4.4363,4.4335,4.4355,4.4391,4.4405,4.4373,4.4312,4.4331,4.4307,4.4283,4.4295,4.4294,4.4318,4.432,4.4386,4.4478,4.4558,4.4489,4.4527,4.4489,4.4563,4.4909,4.5292,4.5378,4.5109,4.5008,4.4887,4.4759,4.4636,4.4472,4.4365,4.4264,4.4208,4.4206,4.418,4.4153,4.4167,4.4194,4.4108,4.411,4.4082,4.4072,4.4115,4.4187,4.4049,4.406,4.4072,4.4079,4.413,4.4166,4.3889,4.3508,4.367,4.5077,4.7743,5.0356,5.2928,5.2295,4.6023,4.112,4.028,4.0075,4.0631,4.2172,4.3077,4.4039,4.4553,4.4706,4.4725,4.4696,4.4711,4.4686,4.4752,4.478,4.4864,4.486,4.4929,4.4951,4.5041,4.5095,4.5179,4.5224,4.5226,4.5191,4.5223,4.5298,4.5421,4.5474,4.5565,4.5621,4.5747,4.5822,4.5838,4.5938,4.6112,4.6217,4.6363,4.6469,4.6574,4.671,4.6888,4.7049,4.7132,4.7238,4.7342,4.7512,4.7687,4.7815,4.7891,4.803,4.821,4.8356,4.8399,4.8408,4.829,4.8074,4.7841,4.7487,4.7131,4.6757,4.6399,4.6229,4.5859,4.5607,4.5401,4.5142,4.4934,4.4753,4.4643,4.452,4.439,4.4354,4.4363,4.4334,4.4497,4.4464,4.4398,4.442,4.4425,4.4361,4.4352,4.4419,4.448,4.4468,4.4518,4.4588,4.4618,4.4646,4.4625,4.4746,4.4718,4.4639,4.4681,4.4652,4.4591,4.4608,4.4572,4.4623,4.4536,4.4538,4.4575,4.4681,4.4745,4.4628,4.4545,4.4493,4.4547,4.4554,4.4705,4.4849,4.4773,4.4717,4.4722,4.4686,4.5082,4.5561,4.5888,4.5775,4.5623,4.5325,4.5072,4.5032,4.4915,4.487,4.4731,4.4748,4.4785,4.4714,4.4768,4.4813,4.4813,4.4731,4.4631,4.4696,4.4652,4.4695,4.4584,4.4551,4.4542,4.4599,4.4695,4.4804,4.4742,4.4666,4.4538,4.4524,4.505,4.7064,5.0166,5.2781,5.4392,5.0167,4.2942,3.989,3.8813,3.9278,4.0101,4.1589,4.3333,4.4442,4.5177,4.5537,4.5618,4.5474,4.5498,4.5578,4.562,4.5482,4.5386,4.5381,4.5392,4.5405,4.5504,4.5506,4.5535,4.5537,4.574,4.5655,4.5678,4.5682,4.5794,4.5915,4.599,4.5988,4.6112,4.6135,4.6244,4.6296,4.6243,4.6386,4.6729,4.701,4.7087,4.7145,4.7275,4.7359,4.7532,4.755,4.7751,4.7932,4.8035,4.8039,4.8163,4.8375,4.8493,4.8528,4.8537,4.8419,4.8278,4.8065,4.7818,4.7502,4.7066,4.687,4.6675,4.6288,4.5909,4.5588,4.5468,4.5119,4.4969,4.478,4.4757,4.4735,4.4595,4.4382,4.4447,4.4687,4.4724,4.4471,4.4373,4.4346,4.4305,4.4319,4.4497,4.4565,4.4483,4.4457,4.4485,4.4621,4.4537,4.4497,4.4445,4.4521,4.4613,4.4688,4.4576,4.4561,4.4422,4.4533,4.4614,4.4608,4.4583,4.4573,4.447,4.4417,4.4501,4.4551,4.4509,4.4447,4.4459,4.4539,4.4582,4.4613,4.4505,4.458,4.4603,4.4895,4.5233,4.5416,4.5364,4.516,4.5021,4.4942,4.4792,4.4742,4.468,4.4588,4.4432,4.4418,4.4324,4.4323,4.4374,4.44,4.424,4.421,4.4217,4.422,4.4131,4.4171,4.4162,4.4189,4.4144,4.4222,4.4291,4.4299,4.4305,4.4054,4.3961,4.443,4.6388,4.956,5.1991,5.4363,5.1763,4.4606,3.9901,3.8566,3.8525,3.9447,4.109,4.257,4.3809,4.4436,4.4835,4.4755,4.4843,4.4795,4.4896,4.4863,4.4977,4.4989,4.5087,4.5082,4.5271,4.5254,4.5299,4.5274,4.5351,4.5448,4.5536,4.5602,4.5721,4.5736,4.58,4.5892,4.5983,4.6065,4.6093,4.6171,4.6292,4.655,4.6737,4.6794,4.6894,4.7061,4.7104,4.7299,4.7467,4.7544,4.7753,4.7839,4.7953,4.8087,4.8192,4.8338,4.8418,4.8475,4.8481,4.8484,4.8498,4.8398,4.8098,4.7765,4.7419,4.7255,4.7011,4.6676,4.6265,4.5952,4.5686,4.5485,4.5331,4.5139,4.5002,4.4915,4.4859,4.4817,4.4773,4.4714,4.4734,4.4732,4.4742,4.4718,4.4696,4.4633,4.468,4.4745,4.4718,4.4686,4.4689,4.4617,4.4676,4.4807,4.4827,4.4782,4.4702,4.4656,4.4635,4.4695,4.4749,4.4785,4.4822,4.4857,4.4804,4.4775,4.4799,4.4851,4.4853,4.477,4.4861,4.5004,4.496,4.4941,4.4958,4.5041,4.5413,4.5708,4.5767,4.5474,4.5236,4.5147,4.5191,4.5089,4.4803,4.4684,4.4633,4.4646,4.4562,4.4526,4.4576,4.4498,4.4451,4.4435,4.4441,4.4477,4.4432,4.4438,4.4441,4.4473,4.4461,4.4432,4.4437,4.4542,4.4531,4.4257,4.3873,4.3893,4.5385,4.8321,5.109,5.4011,5.4232,4.7901,4.1791,4.0388,4.0078,4.0872,4.2388,4.3293,4.4233,4.4878,4.5019,4.4947,4.4903,4.493,4.4842,4.4946,4.5037,4.5076,4.5092,4.5118,4.5159,4.5196,4.5176,4.5244,4.5358,4.5437,4.5457,4.5504,4.5576,4.5658,4.5739,4.587,4.5931,4.6027,4.6164,4.6235,4.6391,4.6492,4.6559,4.6723,4.6834,4.7019,4.7226,4.7391,4.7519,4.7587,4.7727,4.7919,4.8003,4.8174,4.8307,4.839,4.8546,4.8679,4.8671,4.8695,4.8658,4.8483,4.8232,4.7896,4.7572,4.7161,4.6839,4.6577,4.6385,4.5957,4.557,4.5381,4.5169,4.5002,4.4908,4.4902,4.4826,4.4808,4.4603,4.4559,4.4533,4.4567,4.4615,4.4517,4.449,4.4483,4.4513,4.4498,4.4554,4.4575,4.4659,4.4664,4.459,4.455,4.4565,4.4544,4.4585,4.4636,4.4693,4.4693,4.4655,4.4582,4.4647,4.468,4.4727,4.4742,4.4741,4.4712,4.4673,4.4654,4.4638,4.4634,4.4716,4.4838,4.4929,4.4936,4.4873,4.4834,4.4902,4.5243,4.5632,4.564,4.5369,4.5302,4.5146,4.5119,4.4968,4.4837,4.4811,4.4726,4.4615,4.4517,4.4481,4.4504,4.4505,4.4539,4.4505,4.4416,4.4438,4.4435,4.4434,4.4388,4.4521,4.4489,4.4457,4.4459,4.454,4.4571,4.4267,4.3765,4.3748,4.5057,4.7842,5.0791,5.3586,5.4485,4.8506,4.218,4.077,4.028,4.0839,4.2216,4.3781,4.4219,4.4799,4.4978,4.4912,4.4923,4.4871,4.4893,4.4901,4.4953,4.4943,4.5075,4.5063,4.5113,4.5171,4.5289,4.5311,4.5346,4.5358,4.5393,4.5434,4.5542,4.5663,4.5789,4.5827,4.5898,4.597,4.6091,4.619,4.6275,4.6397,4.6587,4.6672,4.6819,4.6937,4.7155,4.739,4.7615,4.7708,4.7761,4.7861,4.7968,4.8155,4.8349,4.8495,4.8688,4.8745,4.8737,4.8734,4.8739,4.8601,4.8403,4.8099,4.791,4.7329,4.6934,4.6689,4.6265,4.5922,4.5776,4.558,4.5383,4.5217,4.5038,4.4839,4.4734,4.4766,4.4774,4.4785,4.4682,4.4619,4.4582,4.4591,4.455,4.4582,4.4514,4.4538,4.4506,4.4506,4.452,4.4633,4.472,4.4714,4.474,4.4683,4.4611,4.4713,4.4812,4.4753,4.466,4.4789,4.4733,4.4693,4.475,4.4798,4.4652,4.4628,4.4617,4.4768,4.48,4.4744,4.4665,4.4575,4.4561,4.4603,4.4709,4.4681,4.4697,4.4972,4.4975,4.4678,4.4647,4.4767,4.512,4.5394,4.543,4.5454,4.5344,4.5112,4.499,4.4996,4.4811,4.4572,4.4562,4.4499,4.4413,4.4358,4.4417,4.4346,4.4292,4.4273,4.4202,4.421,4.432,4.4351,4.4256,4.4203,4.4232,4.4163,4.4159,4.418,4.4098,4.4152,4.3873,4.3646,4.4385,4.6542,4.952,5.1575,5.4569,5.0397,4.3349,4.0872,4.048,4.0356,4.0836,4.2533,4.3726,4.4566,4.4706,4.4984,4.4951,4.5026,4.4973,4.5127,4.4963,4.5042,4.507,4.5085,4.5084,4.5151,4.5169,4.5254,4.523,4.5389,4.5498,4.5475,4.5508,4.571,4.5496,4.5612,4.5732,4.5905,4.605,4.6148,4.615,4.6454,4.6391,4.6425,4.6629,4.6858,4.6995,4.7076,4.7184,4.7366,4.7449,4.7614,4.7854,4.7989,4.8177,4.8185,4.8346,4.8479,4.8451,4.8496,4.8703,4.8583,4.8321,4.8035,4.7781,4.7671,4.7383,4.6896,4.6659,4.6251,4.5905,4.5731,4.5504,4.5096,4.4913,4.4828,4.4824,4.468,4.4723,4.4592,4.4521,4.4446,4.4541,4.4554,4.4586,4.455,4.4505,4.4405,4.4602,4.4618,4.4561,4.4574,4.4603,4.4647,4.4681,4.4666,4.4646,4.4685,4.4684,4.4713,4.4783,4.4786,4.4673,4.4656,4.4613,4.4683,4.4765,4.4696,4.4727,4.4706,4.4547,4.4336,4.4288,4.427,4.436,4.4486,4.4388,4.4258,4.4262,4.441,4.4613,4.4682,4.4729,4.4675,4.4669,4.4455,4.4583,4.5201,4.558,4.5464,4.5287,4.5202,4.4983,4.4864,4.4756,4.4602,4.46,4.4522,4.4348,4.4405,4.4532,4.4566,4.4495,4.4525,4.433,4.4248,4.4277,4.4265,4.4082,4.3898,4.3966,4.4053,4.4148,4.4142,4.4036,4.408,4.371,4.3414,4.3913,4.5712,4.728,5.0176,5.2856,5.3566,4.7765,4.1756,4.0528,4.0039,4.0799,4.2037,4.3724,4.4408,4.4658,4.4497,4.4565,4.4529,4.458,4.4577,4.4798,4.4726,4.4786,4.4721,4.4777,4.4754,4.4927,4.4922,4.4983,4.5071,4.5105,4.507,4.5188,4.521,4.5341,4.5341,4.5408,4.546,4.564,4.5746,4.5847,4.5912,4.5958,4.6082,4.6254,4.6386,4.6527,4.6672,4.6909,4.7087,4.7141,4.7306,4.7365,4.7565,4.7758,4.7954,4.8052,4.8176,4.8237,4.8299,4.8388,4.8449,4.8311,4.8169,4.7881,4.7533,4.7104,4.675,4.6359,4.61,4.5695,4.5359,4.511,4.4932,4.4863,4.4726,4.453,4.4291,4.4219,4.4335,4.4198,4.421,4.4192,4.4246,4.4205,4.4238,4.4233,4.4209,4.4176,4.4256,4.429,4.4292,4.4221,4.4293,4.4284,4.418,4.4313,4.4393,4.4319,4.4263,4.409,4.4171,4.424,4.4242,4.4244,4.4244,4.4183,4.4174,4.4107,4.4037,4.4107,4.4174,4.4151
