-4.4222,-4.4734,-4.4944,-4.5133,-4.5427,-4.5609,-4.5647,-4.5697,-4.5733,-4.5962,-4.6069,-4.6089,-4.6104,-4.61,-4.624,-4.6432,-4.6495,-4.6494,-4.6539,-4.6693,-4.6933,-4.6933,-4.6941,-4.693,-4.7026,-4.7214,-4.7283,-4.7248,-4.728,-4.7311,-4.7502,-4.7526,-4.7499,-4.7444,-4.7454,-4.757,-4.7555,-4.7441,-4.7381,-4.7295,-4.7365,-4.7322,-4.7202,-4.7088,-4.7132,-4.7284,-4.7368,-4.7342,-4.7369,-4.7339,-4.7464,-4.746,-4.7251,-4.6977,-4.6737,-4.6569,-4.6419,-4.6115,-4.5825,-4.5593,-4.5571,-4.543,-4.5248,-4.5044,-4.4989,-4.5026,-4.5048,-4.4991,-4.4937,-4.4849,-4.4891,-4.5017,-4.5068,-4.4927,-4.4884,-4.4878,-4.4998,-4.4953,-4.4927,-4.486,-4.4925,-4.4983,-4.4969,-4.4856,-4.4778,-4.4846,-4.4951,-4.4891,-4.4852,-4.4734,-4.4801,-4.4878,-4.4856,-4.4758,-4.4674,-4.4611,-4.478,-4.4761,-4.4778,-4.4798,-4.4954,-4.5186,-4.5325,-4.5295,-4.5266,-4.54,-4.5509,-4.5577,-4.5185,-4.4557,-4.4375,-4.4524,-4.4675,-4.4618,-4.4637,-4.4749,-4.4827,-4.4751,-4.4526,-4.435,-4.4249,-4.4309,-4.4338,-4.4248,-4.418,-4.4157,-4.4149,-4.4228,-4.4571,-4.6146,-4.9247,-5.1845,-5.4928,-5.7951,-5.7554,-5.3864,-4.2697,-3.2097,-2.5753,-2.4459,-2.4422,-2.6607,-3.042,-3.4312,-3.6584,-3.9411,-4.2141,-4.3578,-4.4725,-4.4624,-4.5176,-4.5017,-4.5585,-4.54,-4.5737,-4.5471,-4.5886,-4.5871,-4.6188,-4.5976,-4.6216,-4.6119,-4.6539,-4.641,-4.6604,-4.6471,-4.6673,-4.6703,-4.6999,-4.6931,-4.7041,-4.696,-4.7259,-4.7365,-4.7462,-4.7399,-4.7539,-4.7671,-4.7799,-4.7756,-4.7796,-4.7754,-4.7887,-4.7956,-4.7917,-4.7839,-4.7729,-4.7772,-4.7841,-4.7782,-4.7674,-4.765,-4.7696,-4.7933,-4.794,-4.7933,-4.7808,-4.7873,-4.7796,-4.7609,-4.7231,-4.6984,-4.6777,-4.6713,-4.6356,-4.6129,-4.5772,-4.5681,-4.5568,-4.551,-4.5276,-4.5185,-4.5011,-4.5207,-4.5043,-4.5024,-4.4832,-4.4886,-4.4965,-4.5015,-4.4896,-4.4937,-4.4828,-4.501,-4.5021,-4.5052,-4.4931,-4.4972,-4.4973,-4.5162,-4.5013,-4.5019,-4.4897,-4.5049,-4.5023,-4.4994,-4.4847,-4.4909,-4.4924,-4.5021,-4.4908,-4.4939,-4.4866,-4.5082,-4.5273,-4.5423,-4.544,-4.5518,-4.5541,-4.5817,-4.5786,-4.558,-4.4905,-4.4678,-4.4712,-4.477,-4.4765,-4.4718,-4.4837,-4.4977,-4.4898,-4.4713,-4.4414,-4.4341,-4.434,-4.4351,-4.4243,-4.4204,-4.416,-4.4259,-4.4228,-4.4155,-4.4418,-4.6136,-4.9516,-5.2337,-5.5791,-5.8808,-5.9132,-5.8023,-4.7627,-3.3885,-2.394,-2.0713,-2.1261,-2.3961,-2.8204,-3.2414,-3.7091,-4.036,-4.2932,-4.3993,-4.4634,-4.471,-4.5229,-4.5291,-4.5535,-4.5425,-4.5608,-4.5603,-4.5975,-4.5907,-4.6044,-4.5957,-4.6291,-4.6394,-4.6541,-4.6462,-4.6625,-4.6669,-4.6954,-4.6881,-4.7002,-4.6987,-4.7183,-4.7303,-4.7405,-4.7342,-4.7431,-4.7427,-4.7716,-4.7727,-4.7796,-4.7745,-4.7838,-4.7933,-4.7989,-4.7894,-4.784,-4.7816,-4.7902,-4.7817,-4.7757,-4.7668,-4.7684,-4.782,-4.7895,-4.7887,-4.7926,-4.7977,-4.8134,-4.8155,-4.8031,-4.7746,-4.7476,-4.7292,-4.7108,-4.6762,-4.6423,-4.6144,-4.605,-4.5908,-4.568,-4.5492,-4.5348,-4.5321,-4.5407,-4.5299,-4.5169,-4.5099,-4.5113,-4.5216,-4.5198,-4.5139,-4.5112,-4.5193,-4.5294,-4.527,-4.5176,-4.5174,-4.5255,-4.5393,-4.5325,-4.5266,-4.5189,-4.5198,-4.5334,-4.536,-4.5278,-4.5186,-4.5134,-4.5253,-4.5229,-4.5163,-4.5057,-4.5046,-4.5071,-4.51,-4.4966,-4.4907,-4.4916,-4.5185,-4.5269,-4.5345,-4.534,-4.541,-4.558,-4.5726,-4.5698,-4.567,-4.5466,-4.5056,-4.4965,-4.4801,-4.4745,-4.4837,-4.4906,-4.5119,-4.5022,-4.4802,-4.4577,-4.4585,-4.4538,-4.4515,-4.4398,-4.4351,-4.4357,-4.4472,-4.4399,-4.4309,-4.4208,-4.4577,-4.5263,-4.7756,-5.2134,-5.5677,-5.8913,-5.9448,-5.4381,-4.167,-2.8659,-2.2564,-2.1487,-2.1419,-2.3706,-2.7977,-3.2319,-3.7043,-4.0349,-4.2719,-4.3911,-4.458,-4.4921,-4.5242,-4.5239,-4.5436,-4.548,-4.5823,-4.586,-4.593,-4.5899,-4.5996,-4.6095,-4.6384,-4.6358,-4.6428,-4.644,-4.6667,-4.6752,-4.6819,-4.6785,-4.6892,-4.7006,-4.7178,-4.7209,-4.7227,-4.7244,-4.7452,-4.7548,-4.752,-4.7507,-4.7477,-4.7571,-4.7697,-4.7686,-4.7584,-4.7499,-4.752,-4.758,-4.7504,-4.7372,-4.7221,-4.7294,-4.7339,-4.733,-4.7301,-4.7377,-4.7566,-4.7769,-4.7779,-4.775,-4.7619,-4.7528,-4.7507,-4.73,-4.6951,-4.6631,-4.6351,-4.6222,-4.5995,-4.5787,-4.5507,-4.5405,-4.5403,-4.5323,-4.511,-4.5044,-4.4965,-4.5066,-4.5049,-4.5021,-4.49,-4.4889,-4.494,-4.5092,-4.5058,-4.4951,-4.4978,-4.5063,-4.5125,-4.508,-4.492,-4.4977,-4.5053,-4.511,-4.5061,-4.5015,-4.4877,-4.4934,-4.5013,-4.4979,-4.4805,-4.4766,-4.4778,-4.4891,-4.4851,-4.4736,-4.459,-4.4631,-4.4692,-4.4641,-4.4547,-4.4438,-4.4459,-4.4551,-4.4459,-4.4325,-4.4294,-4.4312,-4.4359,-4.4355,-4.427,-4.421,-4.412,-4.4264,-4.4239,-4.4188,-4.4071,-4.4082,-4.4239,-4.4317,-4.4321,-4.4436,-4.4529,-4.4766,-4.4814,-4.479,-4.4674,-4.4607,-4.4692,-4.4547,-4.4272,-4.4123,-4.4135,-4.4218,-4.43,-4.4356,-4.4251,-4.4051,-4.4036,-4.406,-4.3885,-4.3762,-4.37,-4.3719,-4.3772,-4.3732,-4.3673,-4.3597,-4.3608,-4.3945,-4.5422,-4.8201,-5.0654,-5.3462,-5.6832,-5.6794,-5.4292,-4.4045,-3.4714,-2.8419,-2.6112,-2.4324,-2.5285,-2.9539,-3.1193,-3.5435,-3.846,-4.0921,-4.2447,-4.3772,-4.4018,-4.4383,-4.4349,-4.46,-4.4751,-4.4961,-4.4923,-4.5072,-4.5141,-4.5434,-4.5407,-4.5518,-4.5459,-4.5565,-4.5638,-4.5839,-4.5809,-4.585,-4.5806,-4.601,-4.6109,-4.6122,-4.607,-4.6137,-4.6277,-4.6369,-4.6336,-4.6339,-4.6324,-4.6458,-4.6574,-4.6496,-4.6487,-4.6435,-4.6463,-4.6498,-4.6478,-4.6317,-4.6216,-4.6226,-4.631,-4.6188,-4.6123,-4.6058,-4.6194,-4.6363,-4.647,-4.6434,-4.6517,-4.6577,-4.6658,-4.6441,-4.6365,-4.6076,-4.5908,-4.5722,-4.5502,-4.5198,-4.4948,-4.4745,-4.4785,-4.46,-4.4448,-4.4286,-4.4259,-4.4283,-4.4273,-4.4217,-4.4162,-4.4134,-4.431,-4.4254,-4.4259,-4.4193,-4.4177,-4.4219,-4.4319,-4.4217,-4.4217,-4.4115,-4.4254,-4.4262,-4.4229,-4.4114,-4.4095,-4.4124,-4.4221,-4.4068,-4.4011,-4.3964,-4.403,-4.4109,-4.4112,-4.3954,-4.3888,-4.3889,-4.3992,-4.3875,-4.3831,-4.3756,-4.379,-4.3849,-4.381,-4.3663,-4.3644,-4.3675,-4.3763,-4.3668,-4.3599,-4.3535,-4.353,-4.3626,-4.3615,-4.3532,-4.3476,-4.3458,-4.3611,-4.366,-4.3742,-4.3761,-4.3919,-4.4109,-4.4216,-4.4171,-4.4065,-4.4063,-4.4141,-4.3871,-4.3729,-4.3558,-4.3508,-4.3657,-4.3759,-4.3778,-4.3703,-4.3606,-4.3529,-4.3541,-4.3375,-4.33,-4.322,-4.3294,-4.3303,-4.3219,-4.3085,-4.3102,-4.3127,-4.3235,-4.3779,-4.5762,-4.8936,-5.163,-5.5359,-5.762,-5.6986,-5.0032,-3.7639,-2.688,-2.1804,-2.1519,-2.2529,-2.6097,-2.9842,-3.4473,-3.8031,-4.0629,-4.1682,-4.302,-4.3553,-4.3746,-4.3987,-4.4112,-4.4438,-4.4541,-4.4619,-4.4619,-4.474,-4.4955,-4.5027,-4.5044,-4.5105,-4.5193,-4.5427,-4.553,-4.5544,-4.555,-4.56,-4.5762,-4.5962,-4.5983,-4.6002,-4.6051,-4.623,-4.6357,-4.6385,-4.6366,-4.6435,-4.6574,-4.6728,-4.6696,-4.6658,-4.6615,-4.6721,-4.6727,-4.669,-4.6618,-4.6529,-4.6527,-4.6597,-4.6522,-4.6391,-4.6352,-4.6447,-4.6622,-4.6718,-4.6695,-4.6698,-4.6714,-4.6709,-4.6467,-4.616,-4.5819,-4.5623,-4.5418,-4.5255,-4.4949,-4.4639,-4.4484,-4.4413,-4.4266,-4.409,-4.392,-4.3842,-4.3921,-4.3834,-4.3736,-4.3615,-4.361,-4.3709,-4.3749,-4.3658,-4.3613,-4.363,-4.3699,-4.3799,-4.3741,-4.3678,-4.3663,-4.3759,-4.3827,-4.3759,-4.3718,-4.3672,-4.3755,-4.3785,-4.3722,-4.3645,-4.3603,-4.3676,-4.372,-4.3565,-4.3499,-4.3431,-4.3469,-4.3544,-4.3491,-4.3388,-4.3288,-4.3266,-4.3369,-4.3291,-4.3165,-4.3124,-4.3159,-4.3245,-4.3182,-4.3059,-4.3,-4.3048,-4.3101,-4.3058,-4.2977,-4.2983,-4.2928,-4.3046,-4.3042,-4.2959,-4.2861,-4.286,-4.3007,-4.2965,-4.2869,-4.2832,-4.2875,-4.2965,-4.3215,-4.3296,-4.3333,-4.3429,-4.3603,-4.3584,-4.3483,-4.3419,-4.344,-4.3288,-4.3171,-4.3052,-4.3002,-4.3031,-4.3159,-4.3304,-4.3125,-4.2965,-4.2784,-4.2826,-4.2773,-4.2721,-4.2601,-4.2572,-4.265,-4.2728,-4.2635,-4.2537,-4.2493,-4.2759,-4.4249,-4.7304,-5.0172,-5.3547,-5.6977,-5.8101,-5.3953,-4.1469,-2.7244,-1.9905,-1.8701,-1.9941,-2.3458,-2.7352,-2.9905,-3.4821,-3.8544,-4.0844,-4.2278,-4.2783,-4.3337,-4.3542,-4.3718,-4.3752,-4.3949,-4.4123,-4.4272,-4.4285,-4.435,-4.4427,-4.4691,-4.4743,-4.4839,-4.4827,-4.4894,-4.5084,-4.5284,-4.5285,-4.5314,-4.5367,-4.5568,-4.5657,-4.5717,-4.5754,-4.5823,-4.5969,-4.6086,-4.6064,-4.6092,-4.6108,-4.6275,-4.6344,-4.6314,-4.6275,-4.6262,-4.6286,-4.639,-4.6313,-4.6215,-4.6099,-4.6127,-4.6197,-4.6159,-4.6092,-4.6076,-4.6228,-4.6446,-4.6462,-4.6402,-4.6298,-4.6268,-4.618,-4.6022,-4.5725,-4.5378,-4.5113,-4.4942,-4.4677,-4.4355,-4.4105,-4.3963,-4.3956,-4.3817,-4.3655,-4.3485,-4.347,-4.356,-4.3499,-4.336,-4.3277,-4.3323,-4.34,-4.3483,-4.3485,-4.3387,-4.3371,-4.3519,-4.3602,-4.3528,-4.3515,-4.346,-4.3577,-4.3637,-4.3593,-4.3498,-4.343,-4.3518,-4.3573,-4.3495,-4.3425,-4.3361,-4.3437,-4.3488,-4.3448,-4.3301,-4.3228,-4.3242,-4.3314,-4.3217,-4.3176,-4.3056,-4.3088,-4.3118,-4.3075,-4.2962,-4.289,-4.2987,-4.3051,-4.2957,-4.2924,-4.2829,-4.2813,-4.2934,-4.2943,-4.2853,-4.2765,-4.2777,-4.2904,-4.2881,-4.2776,-4.2758,-4.2712,-4.2825,-4.2799,-4.2731,-4.269,-4.2708,-4.277,-4.2762,-4.2725,-4.2667,-4.2645,-4.2766,-4.2794,-4.2724,-4.2681,-4.2661,-4.2799,-4.2968,-4.3081,-4.3141,-4.3134,-4.3394,-4.3531,-4.3447,-4.3401,-4.3415,-4.3288,-4.3213,-4.2968,-4.2982,-4.2977,-4.3039,-4.3177,-4.3155,-4.2997,-4.2792,-4.2779,-4.2837,-4.2726,-4.2589,-4.2515,-4.2521,-4.2598,-4.2529,-4.2442,-4.2422,-4.2539,-4.3653,-4.6203,-4.9076,-5.1752,-5.5568,-5.7011,-5.5831,-4.5958,-3.3358,-2.4602,-2.1495,-2.1045,-2.2539,-2.6545,-3.0735,-3.5463,-3.8503,-4.0834,-4.1462,-4.2232,-4.2649,-4.3437,-4.3412,-4.3713,-4.3633,-4.4035,-4.4046,-4.42,-4.4093,-4.4261,-4.4383,-4.4673,-4.4592,-4.4714,-4.4684,-4.4955,-4.4996,-4.5072,-4.506,-4.5123,-4.5199,-4.5411,-4.5372,-4.5462,-4.5427,-4.5586,-4.5753,-4.5784,-4.5699,-4.5613,-4.5782,-4.5851,-4.5868,-4.5767,-4.5702,-4.5756,-4.5805,-4.5692,-4.5563,-4.5508,-4.5514,-4.5524,-4.5479,-4.5344,-4.5313,-4.5311,-4.5578,-4.5689,-4.5763,-4.5737,-4.5733,-4.5743,-4.5643,-4.5356,-4.5066,-4.4772,-4.4759,-4.4545,-4.4311,-4.3943,-4.3827,-4.3714,-4.3697,-4.3486,-4.3371,-4.3193,-4.3315,-4.3309,-4.3265,-4.314,-4.3131,-4.318,-4.3279,-4.3163,-4.3143,-4.3125,-4.3213,-4.3295,-4.3306,-4.3231,-4.319,-4.3218,-4.3352,-4.3247,-4.3234,-4.3157,-4.3211,-4.3236,-4.3176,-4.3047,-4.3026,-4.308,-4.3199,-4.3094,-4.3087,-4.2947,-4.2918,-4.2987,-4.2975,-4.2884,-4.2818,-4.2761,-4.2915,-4.2838,-4.2741,-4.2637,-4.2645,-4.2671,-4.2683,-4.2602,-4.2513,-4.2466,-4.2648,-4.264,-4.2558,-4.2477,-4.245,-4.2501,-4.2589,-4.2467,-4.2426,-4.2367,-4.2462,-4.2517,-4.2456,-4.2349,-4.2318,-4.2445,-4.2439,-4.2388,-4.2322,-4.2301,-4.2323,-4.245,-4.2449,-4.2441,-4.2504,-4.2672,-4.2857,-4.2861,-4.2891,-4.2845,-4.286,-4.3066,-4.297,-4.27,-4.2365,-4.2391,-4.2539,-4.2569,-4.2576,-4.2623,-4.2656,-4.2672,-4.2515,-4.2396,-4.2229,-4.2201,-4.2288,-4.2254,-4.2145,-4.211,-4.2075,-4.2184,-4.2195,-4.2702,-4.4592,-4.7688,-5.017,-5.3327,-5.5831,-5.5383,-5.3649,-4.4458,-3.4037,-2.6828,-2.4181,-2.2816,-2.3591,-2.7263,-3.0883,-3.5002,-3.7811,-4.0258,-4.1631,-4.2484,-4.2589,-4.3025,-4.3133,-4.352,-4.3365,-4.3606,-4.3512,-4.3851,-4.3901,-4.4138,-4.401,-4.4192,-4.4214,-4.4539,-4.4451,-4.4562,-4.4522,-4.4788,-4.4897,-4.5014,-4.4939,-4.5038,-4.5106,-4.5253,-4.5275,-4.5371,-4.5303,-4.5474,-4.5597,-4.5704,-4.5642,-4.5642,-4.5696,-4.5745,-4.5747,-4.5729,-4.5579,-4.5624,-4.569,-4.5614,-4.5488,-4.5391,-4.5361,-4.5445,-4.5507,-4.5473,-4.5454,-4.5503,-4.5721,-4.5732,-4.5646,-4.5532,-4.528,-4.5014,-4.4818,-4.4483,-4.4195,-4.3929,-4.3829,-4.366,-4.3507,-4.3271,-4.3223,-4.3138,-4.3187,-4.3049,-4.295,-4.2831,-4.2913,-4.2955,-4.2913,-4.2809,-4.2855,-4.2912,-4.3091,-4.3013,-4.2962,-4.2916,-4.3003,-4.305,-4.3061,-4.2958,-4.2969,-4.2908,-4.3076,-4.3032,-4.2972,-4.2866,-4.2881,-4.2976,-4.2999,-4.2853,-4.2817,-4.2767,-4.2923,-4.281,-4.2769,-4.263,-4.2692,-4.2755,-4.2764,-4.2665,-4.2591,-4.2488,-4.2595,-4.261,-4.2571,-4.2456,-4.2485,-4.2538,-4.2589,-4.2498,-4.2429,-4.2357,-4.2482,-4.2472,-4.2436,-4.2322,-4.2287,-4.2295,-4.2412,-4.2368,-4.2277,-4.2236,-4.2323,-4.2406,-4.2371,-4.2286,-4.2223,-4.2282,-4.2388,-4.2329,-4.2267,-4.2194,-4.2278,-4.2368,-4.2317,-4.2226,-4.2202,-4.224,-4.24,-4.2507,-4.2579,-4.2664,-4.2742,-4.2976,-4.2964,-4.2876,-4.2863,-4.287,-4.2712,-4.2507,-4.2376,-4.2377,-4.249,-4.2657,-4.2656,-4.2586,-4.2393,-4.22,-4.2251,-4.2234,-4.2104,-4.201,-4.1933,-4.2004,-4.2042,-4.1962,-4.1834,-4.1861,-4.2655,-4.4892,-4.8221,-5.0936,-5.484,-5.6764,-5.6474,-5.3045,-4.0577,-2.6406,-1.8873,-1.7708,-1.9085,-2.2623,-2.6495,-3.1627,-3.6117,-3.901,-4.1081,-4.193,-4.2479,-4.2858,-4.3056,-4.3118,-4.3255,-4.3422,-4.3589,-4.3676,-4.3734,-4.3769,-4.3893,-4.4092,-4.4217,-4.4253,-4.4292,-4.438,-4.463,-4.4667,-4.4707,-4.4756,-4.4885,-4.5053,-4.5156,-4.5157,-4.5202,-4.5211,-4.5437,-4.5558,-4.56,-4.5625,-4.5653,-4.5829,-4.5929,-4.5946,-4.5884,-4.587,-4.601,-4.6031,-4.59,-4.5807,-4.5751,-4.5839,-4.5861,-4.583,-4.5769,-4.5735,-4.5766,-4.5963,-4.594,-4.5881,-4.5757,-4.5733,-4.5645,-4.5326,-4.4977,-4.4625,-4.4402,-4.4246,-4.3947,-4.367,-4.342,-4.3362,-4.3345,-4.3273,-4.3106,-4.2958,-4.287,-4.2955,-4.286,-4.2787,-4.2692,-4.2696,-4.2804,-4.2802,-4.2739,-4.272,-4.2765,-4.2911,-4.2882,-4.284,-4.278,-4.2846,-4.298,-4.2975,-4.2902,-4.2824,-4.2786,-4.2902,-4.294,-4.2862,-4.2779,-4.2749,-4.2794,-4.2832,-4.277,-4.2652,-4.2595,-4.2684,-4.2691,-4.2603,-4.25,-4.2442,-4.2481,-4.2558,-4.2511,-4.2409,-4.2341,-4.2379,-4.2455,-4.2387,-4.2278,-4.2234,-4.2289,-4.2352,-4.2313,-4.2229,-4.2167,-4.2248,-4.2329,-4.2259,-4.2146,-4.2094,-4.214,-4.2219,-4.2206,-4.2119,-4.2066,-4.2069,-4.2199,-4.2143,-4.21,-4.2011,-4.2027,-4.2128,-4.2081,-4.1973,-4.1905,-4.1945,-4.209,-4.2037,-4.2042,-4.1964,-4.192,-4.2083,-4.2221,-4.226,-4.2365,-4.2416,-4.2641,-4.2786,-4.2694,-4.256,-4.2646,-4.2723,-4.2446,-4.217,-4.215,-4.217,-4.236,-4.243,-4.2442,-4.2296,-4.212,-4.2059,-4.209,-4.196,-4.1802,-4.1686,-4.1699,-4.1844,-4.1751,-4.1637,-4.1577,-4.1795,-4.3151,-4.5929,-4.8838,-5.1922,-5.5687,-5.6667,-5.6698,-4.8816,-3.5418,-2.3437,-1.8677,-1.8406,-1.9973,-2.4071,-2.8175,-3.3401,-3.698,-3.9632,-4.1066,-4.1992,-4.2306,-4.2717,-4.2709,-4.2974,-4.2926,-4.3246,-4.3308,-4.3489,-4.3409,-4.36,-4.3662,-4.3941,-4.3847,-4.397,-4.3983,-4.4223,-4.4266,-4.4375,-4.4334,-4.4517,-4.4662,-4.4824,-4.484,-4.4887,-4.4828,-4.4993,-4.5181,-4.5175,-4.5169,-4.5235,-4.5341,-4.5525,-4.5491,-4.5438,-4.5431,-4.5473,-4.5567,-4.5413,-4.5298,-4.518,-4.5264,-4.5331,-4.5274,-4.5148,-4.5091,-4.5076,-4.5266,-4.531,-4.5324,-4.533,-4.536,-4.5314,-4.5187,-4.4808,-4.453,-4.4298,-4.4197,-4.3908,-4.3625,-4.3332,-4.318,-4.3132,-4.3079,-4.2876,-4.2763,-4.2617,-4.2671,-4.2621,-4.2509,-4.2365,-4.2364,-4.246,-4.2541,-4.2457,-4.2438,-4.2399,-4.2552,-4.2588,-4.2595,-4.2501,-4.2485,-4.2489,-4.2633,-4.2576,-4.2531,-4.2485,-4.2594,-4.2631,-4.2597,-4.2449,-4.237,-4.2429,-4.2495,-4.2434,-4.2351,-4.2239,-4.2276,-4.2287,-4.2226,-4.2124,-4.2126,-4.2065,-4.2176,-4.21,-4.2001,-4.1872,-4.1904,-4.2017,-4.2029,-4.1917,-4.1822,-4.1796,-4.1917,-4.1865,-4.1786,-4.1719,-4.1773,-4.187,-4.1825,-4.1784,-4.1717,-4.1711,-4.1799,-4.1806,-4.1741,-4.1632,-4.1618,-4.1744,-4.1831,-4.1743,-4.1703,-4.168,-4.1789,-4.1793,-4.177,-4.1648,-4.1634,-4.1811,-4.1869,-4.1786,-4.1727,-4.1748,-4.189,-4.2086,-4.2176,-4.2244,-4.224,-4.2458,-4.2609,-4.254,-4.251,-4.2463,-4.2303,-4.2132,-4.2056,-4.209,-4.2121,-4.2196,-4.2338,-4.2386,-4.2213,-4.2043,-4.2,-4.2112,-4.2004,-4.1909,-4.181,-4.1952,-4.2033,-4.206,-4.1921,-4.1927,-4.2674,-4.5036,-4.7906,-5.0183,-5.1758,-5.4914,-5.5387,-5.3238,-4.3353,-3.3384,-2.6644,-2.4522,-2.3183,-2.3937,-2.7916,-3.1519,-3.5818,-3.8405,-4.071,-4.1861,-4.2826,-4.3008,-4.3657,-4.3459,-4.3812,-4.3663,-4.4165,-4.4161,-4.4481,-4.4323,-4.465,-4.4643,-4.5056,-4.4936,-4.5121,-4.5053,-4.5366,-4.543,-4.5611,-4.557,-4.5758,-4.5911,-4.6204,-4.615,-4.6208,-4.6206,-4.6376,-4.6557,-4.6672,-4.6633,-4.6692,-4.6768,-4.7014,-4.7018,-4.705,-4.7004,-4.7087,-4.7209,-4.7199,-4.7135,-4.7001,-4.7069,-4.7107,-4.7152,-4.7097,-4.7116,-4.7149,-4.7408,-4.7537,-4.7611,-4.7568,-4.7554,-4.7555,-4.7545,-4.7272,-4.7086,-4.6855,-4.6845,-4.6581,-4.643,-4.6141,-4.6124,-4.6036,-4.6101,-4.5899,-4.5896,-4.572,-4.5894,-4.594,-4.5949,-4.5872,-4.5973,-4.6061,-4.6236,-4.6139,-4.6162,-4.6078,-4.6299,-4.6373,-4.6433,-4.6367,-4.6364,-4.6374,-4.6613,-4.6558,-4.6599,-4.6503,-4.6637,-4.6744,-4.6775,-4.6697,-4.6692,-4.6742,-4.6928,-4.6862,-4.6827,-4.6779,-4.6894,-4.6988,-4.7045,-4.694,-4.6908,-4.6849,-4.7003,-4.7056,-4.7085,-4.7003,-4.7089,-4.719,-4.7262,-4.7176,-4.7135,-4.7133,-4.7307,-4.7341,-4.7331,-4.7242,-4.7318,-4.7421,-4.7474,-4.7448,-4.7398,-4.7392,-4.7481,-4.762,-4.7594,-4.7566,-4.7561,-4.7658,-4.7811,-4.7828,-4.7763,-4.7753,-4.7862,-4.801,-4.7978,-4.7917,-4.7911,-4.7982,-4.8164,-4.8223,-4.8263,-4.844,-4.8608,-4.8846,-4.8981,-4.9007,-4.8982,-4.9016,-4.9223,-4.8979,-4.8701,-4.8607,-4.8701,-4.8945,-4.8942,-4.9017,-4.8937,-4.8849,-4.8793,-4.8831,-4.8699,-4.8621,-4.8555,-4.8758,-4.8768,-4.8753,-4.8644,-4.8669,-4.8758,-4.9486,-5.1515,-5.4768,-5.734,-6.1272,-6.3406,-6.3405,-6.0762,-4.9367,-3.657,-2.8546,-2.6561,-2.7018,-2.9569,-3.3655,-3.8433,-4.2791,-4.5652,-4.7924,-4.9114,-4.99,-5.0008,-5.0371,-5.0366,-5.0795,-5.0888,-5.1063,-5.1013,-5.1234,-5.1251,-5.1618,-5.1592,-5.174,-5.1651,-5.19,-5.2095,-5.2218,-5.2145,-5.2287,-5.2382,-5.2664,-5.2674,-5.2769,-5.2732,-5.2963,-5.3059,-5.3228,-5.3267,-5.3357,-5.3386,-5.3619,-5.3747,-5.376,-5.3745,-5.3837,-5.3986,-5.4037,-5.3992,-5.3925,-5.3872,-5.3944,-5.3957,-5.3893,-5.3802,-5.3769,-5.3893,-5.4028,-5.4047,-5.4025,-5.4,-5.3998,-5.3993,-5.3812,-5.3522,-5.317,-5.2989,-5.2763,-5.2471,-5.2133,-5.1916,-5.1843,-5.1809,-5.1553,-5.1476,-5.1306,-5.1282,-5.1331,-5.1317,-5.1141,-5.1088,-5.1095,-5.1235,-5.1188,-5.1139,-5.1068,-5.1158,-5.1253,-5.1272,-5.1191,-5.1151,-5.1185,-5.1358,-5.1324,-5.1304,-5.1215,-5.1257,-5.1343,-5.1378,-5.1298,-5.1221,-5.116,-5.1289,-5.1286,-5.125,-5.1145,-5.113,-5.1198,-5.1226,-5.1066,-5.1029,-5.0986,-5.1147,-5.1153,-5.1077,-5.0935,-5.092,-5.0935,-5.106,-5.0943,-5.0893,-5.0791,-5.0887,-5.0948,-5.09,-5.0793,-5.0754,-5.0808,-5.0918,-5.0833,-5.0743,-5.0674,-5.0755,-5.0853,-5.0847,-5.0734,-5.0711,-5.0693,-5.0847,-5.0818,-5.0751,-5.0656,-5.0721,-5.0839,-5.0791,-5.0773,-5.0762,-5.0922,-5.1183,-5.1275,-5.124,-5.1262,-5.1355,-5.1471,-5.1458,-5.148,-5.126,-5.095,-5.0954,-5.1018,-5.0973,-5.095,-5.0986,-5.1125,-5.1025,-5.077,-5.0661,-5.0527,-5.0631,-5.0578,-5.0545,-5.044,-5.0376,-5.043,-5.0496,-5.0424,-5.0588,-5.2015,-5.5176,-5.8059,-6.1291,-6.4591,-6.534,-6.1697,-4.9674,-3.6009,-2.8335,-2.6918,-2.7995,-2.9351,-3.3322,-3.7715,-4.2325,-4.6008,-4.8574,-5.0139,-5.0596,-5.0961,-5.1206,-5.1572,-5.1649,-5.1725,-5.1757,-5.197,-5.2159,-5.2238,-5.2247,-5.2302,-5.2328,-5.2588,-5.2752,-5.2772,-5.2733,-5.2852,-5.3054,-5.3199,-5.3173,-5.3217,-5.3265,-5.3503,-5.3576,-5.3635,-5.3641,-5.3759,-5.3917,-5.4048,-5.4026,-5.4047,-5.4047,-5.421,-5.4308,-5.4262,-5.4176,-5.4141,-5.4197,-5.4305,-5.4201,-5.4073,-5.3994,-5.4067,-5.413,-5.409,-5.4023,-5.4048,-5.4182,-5.4234,-5.413,-5.4064,-5.3828,-5.3628,-5.3494,-5.3188,-5.2813,-5.2476,-5.2252,-5.2256,-5.2039,-5.1801,-5.1563,-5.141,-5.1418,-5.1308,-5.114,-5.1009,-5.1024,-5.1119,-5.1094,-5.0988,-5.0874,-5.0899,-5.1007,-5.1051,-5.0989,-5.0905,-5.0905,-5.1001,-5.1032,-5.0966,-5.0894,-5.087,-5.1014,-5.0987,-5.0912,-5.0843,-5.0835,-5.0905,-5.0954,-5.0902,-5.0796,-5.0723,-5.0768,-5.082,-5.0722,-5.0648,-5.0573,-5.0606,-5.0677,-5.0572,-5.0459,-5.0399,-5.0484,-5.0491,-5.0392,-5.0304,-5.026,-5.0269,-5.035,-5.0308,-5.0211,-5.0148,-5.014,-5.0252,-5.0191,-5.0116,-5.0031,-5.0051,-5.0123,-5.0054,-4.9969,-4.9883,-4.9932,-5.0044,-5.0012,-4.992,-4.9867,-4.982,-4.9953,-4.9976,-4.9896,-4.9853,-4.9917,-5.0136,-5.0249,-5.0326,-5.0293,-5.0408,-5.0554,-5.0537,-5.0523,-5.0459,-5.0194,-5.0091,-5.0041,-5.0068,-5.0077,-5.0042,-5.0212,-5.0279,-5.0084,-4.9803,-4.9695,-4.9627,-4.9649,-4.9562,-4.9465,-4.9385,-4.9503,-4.9495,-4.9395,-4.9385,-5.0191,-5.2662,-5.4412,-5.677,-6.0079,-6.3185,-6.3736,-6.0263,-4.8743,-3.6866,-2.9828,-2.8067,-2.8331,-3.0524,-3.486,-3.9207,-4.3431,-4.6078,-4.8262,-4.9044,-4.9703,-4.9628,-5.0207,-5.0236,-5.0554,-5.0364,-5.0631,-5.0721,-5.1014,-5.091,-5.1061,-5.1005,-5.1338,-5.1311,-5.1472,-5.1332,-5.1536,-5.1646,-5.1857,-5.1745,-5.1838,-5.1778,-5.2009,-5.215,-5.2188,-5.2142,-5.2206,-5.2303,-5.2518,-5.2494,-5.2489,-5.2468,-5.2595,-5.2686,-5.2643,-5.2564,-5.2486,-5.2567,-5.2616,-5.2467,-5.2392,-5.2311,-5.2312,-5.2375,-5.2274,-5.225,-5.22,-5.2335,-5.2499,-5.2549,-5.243,-5.2317,-5.222,-5.2151,-5.1806,-5.1552,-5.1163,-5.102,-5.0926,-5.0854,-5.0515,-5.0286,-5.0063,-5.0151,-5.0021,-4.9912,-4.9697,-4.967,-4.9748,-4.9756,-4.9597,-4.9601,-4.9579,-4.9752,-4.9647,-4.9647,-4.9592,-4.9657,-4.9643,-4.9729,-4.9613,-4.9599,-4.9495,-4.9626,-4.9688,-4.9668,-4.9518,-4.9483,-4.9534,-4.9642,-4.9507,-4.9431,-4.9328,-4.9477,-4.944,-4.9382,-4.9235,-4.923,-4.9236,-4.9361,-4.926,-4.9187,-4.9078,-4.9126,-4.9152,-4.9156,-4.9012,-4.8978,-4.8979,-4.9085,-4.8994,-4.8936,-4.8837,-4.8885,-4.8963,-4.8955,-4.8864,-4.8815,-4.8776,-4.8872,-4.8965,-4.8987,-4.9036,-4.9187,-4.9393,-4.9488,-4.9426,-4.9377,-4.933,-4.9341,-4.9031,-4.888,-4.872,-4.8827,-4.8944,-4.8896,-4.8986,-4.9008,-4.8889,-4.8734,-4.8749,-4.8607,-4.8483,-4.8344,-4.8421,-4.8463,-4.8413,-4.8263,-4.8247,-4.8355,-4.9015,-5.0932,-5.3843,-5.6126,-5.9423,-6.1103,-6.1581,-6.0002,-5.0678,-4.0581,-3.3259,-3.0509,-2.9002,-2.9692,-3.3296,-3.7161,-4.1147,-4.3968,-4.6231,-4.7745,-4.8671,-4.8852,-4.9129,-4.9162,-4.9381,-4.9532,-4.9806,-4.9711,-4.9852,-4.9839,-5.0179,-5.0199,-5.0316,-5.0226,-5.0423,-5.0588,-5.0732,-5.0657,-5.0771,-5.0789,-5.1087,-5.1083,-5.1153,-5.1088,-5.1166,-5.1275,-5.1508,-5.1459,-5.1463,-5.1481,-5.1682,-5.1807,-5.1814,-5.1743,-5.1753,-5.1854,-5.1955,-5.1882,-5.1816,-5.1734,-5.1831,-5.1814,-5.176,-5.1679,-5.1575,-5.1617,-5.1785,-5.1777,-5.1761,-5.1719,-5.175,-5.176,-5.1523,-5.1223,-5.0887,-5.0704,-5.0546,-5.0268,-4.997,-4.97,-4.9576,-4.9579,-4.9437,-4.9229,-4.9094,-4.9031,-4.9084,-4.9036,-4.8946,-4.8861,-4.8805,-4.8991,-4.8957,-4.893,-4.8822,-4.8847,-4.8987,-4.8967,-4.8877,-4.8852,-4.8832,-4.8909,-4.8923,-4.8885,-4.8796,-4.873,-4.8815,-4.8892,-4.8763,-4.8725,-4.8607,-4.8739,-4.8746,-4.8708,-4.8571,-4.8529,-4.8587,-4.8641,-4.8527,-4.8471,-4.8419,-4.8459,-4.854,-4.8501,-4.8357,-4.8305,-4.8329,-4.8432,-4.834,-4.8246,-4.8193,-4.8232,-4.8269,-4.824,-4.8126,-4.8066,-4.8118,-4.8254,-4.8225,-4.8242,-4.8231,-4.8366,-4.8654,-4.8799,-4.878,-4.8762,-4.8743,-4.8877,-4.868,-4.8366,-4.8178,-4.8101,-4.8309,-4.8388,-4.8261,-4.8359,-4.8395,-4.8316,-4.819,-4.806,-4.789,-4.7796,-4.782,-4.7878,-4.7817,-4.7695,-4.7639,-4.7734,-4.7835,-4.8493,-5.0672,-5.3879,-5.664,-6.0603,-6.2456,-6.2026,-5.3423,-4.6697,-3.4345,-2.5951,-2.5103,-2.5131,-2.8947,-3.2396,-3.7756,-4.1373,-4.4752,-4.6497,-4.7963,-4.8037,-4.8597,-4.8396,-4.8981,-4.8915,-4.931,-4.9067,-4.9403,-4.9224,-4.971,-4.9582,-4.9814,-4.9615,-4.9904,-4.9958,-5.0205,-5.0076,-5.023,-5.0272,-5.0609,-5.0539,-5.0676,-5.0613,-5.0771,-5.0913,-5.1078,-5.1019,-5.1091,-5.1116,-5.1293,-5.1394,-5.1464,-5.1363,-5.1402,-5.1538,-5.1647,-5.1552,-5.1468,-5.1441,-5.1509,-5.1566,-5.144,-5.1383,-5.1337,-5.1492,-5.1549,-5.1581,-5.1494,-5.1533,-5.1538,-5.1638,-5.1408,-5.1183,-5.0763,-5.0592,-5.0371,-5.0128,-4.9704,-4.9485,-4.9299,-4.9341,-4.9055,-4.8896,-4.8695,-4.874,-4.8704,-4.8696,-4.8519,-4.8499,-4.8389,-4.8553,-4.8447,-4.851,-4.8357,-4.8422,-4.8483,-4.8573,-4.8441,-4.8449,-4.8363,-4.859,-4.8485,-4.8501,-4.835,-4.8419,-4.8423,-4.8533,-4.8393,-4.8362,-4.8238,-4.8386,-4.841,-4.8356,-4.8209,-4.8221,-4.8234,-4.8348,-4.8195,-4.8149,-4.8051,-4.8204,-4.8165,-4.8115,-4.7965,-4.7965,-4.7986,-4.81,-4.8001,-4.7926,-4.7837,-4.7891,-4.7976,-4.7939,-4.785,-4.7891,-4.8086,-4.8354,-4.8386,-4.8446,-4.8409,-4.8523,-4.8631,-4.8565,-4.839,-4.7952,-4.782,-4.7911,-4.7988,-4.7992,-4.787,-4.8055,-4.8176,-4.7932,-4.7714,-4.7556,-4.752,-4.7599,-4.756,-4.7468,-4.7381,-4.7364,-4.7462,-4.7438,-4.7407,-4.7967,-5.0099,-5.3387,-5.6086,-5.9906,-6.2172,-6.1977,-5.4469,-4.143,-2.9953,-2.491,-2.4511,-2.6166,-3.0171,-3.4206,-3.8954,-4.2473,-4.4159,-4.6134,-4.7429,-4.7551,-4.8032,-4.807,-4.8597,-4.8484,-4.8734,-4.8592,-4.8955,-4.8951,-4.916,-4.898,-4.9201,-4.9244,-4.9573,-4.9484,-4.9611,-4.9495,-4.9702,-4.9811,-5.0042,-4.9968,-5.0101,-5.0087,-5.0338,-5.0375,-5.0479,-5.0438,-5.0628,-5.0758,-5.0855,-5.0766,-5.0793,-5.0821,-5.0974,-5.0915,-5.0904,-5.0833,-5.0842,-5.0896,-5.0936,-5.0803,-5.0705,-5.0627,-5.0708,-5.0791,-5.0794,-5.0783,-5.0824,-5.0988,-5.1049,-5.0903,-5.0631,-5.0406,-5.0263,-5.0067,-4.9856,-4.9563,-4.923,-4.9074,-4.8992,-4.8806,-4.8506,-4.8381,-4.8313,-4.8354,-4.8218,-4.8076,-4.7967,-4.8091,-4.8123,-4.8135,-4.801,-4.8045,-4.8027,-4.8166,-4.8138,-4.8124,-4.8004,-4.8031,-4.8119,-4.8163,-4.8008,-4.7961,-4.7922,-4.811,-4.8002,-4.798,-4.7846,-4.7925,-4.7991,-4.7971,-4.7838,-4.7771,-4.7697,-4.7817,-4.7804,-4.7742,-4.7618,-4.762,-4.7653,-4.7717,-4.7585,-4.7508,-4.7437,-4.7559,-4.7489,-4.7484,-4.7384,-4.7338,-4.7402,-4.7431,-4.7374,-4.7352,-4.7376,-4.7584,-4.7856,-4.792,-4.7863,-4.7837,-4.7905,-4.807,-4.8002,-4.7677,-4.7319,-4.7313,-4.7383,-4.7449,-4.7352,-4.7384,-4.7591,-4.7557,-4.7428,-4.7184,-4.7032,-4.7013,-4.7038,-4.7011,-4.691,-4.6842,-4.6846,-4.6952,-4.6873,-4.7036,-4.843,-5.1314,-5.3876,-5.6727,-5.9998,-6.0289,-5.8215,-4.8148,-4.2335,-3.448,-2.8436,-2.7676,-2.7259,-3.0435,-3.4004,-3.8427,-4.1377,-4.4259,-4.5671,-4.6896,-4.6912,-4.746,-4.7511,-4.7937,-4.7744,-4.8048,-4.7933,-4.8237,-4.8232,-4.8512,-4.8281,-4.849,-4.8496,-4.8836,-4.8787,-4.8911,-4.8786,-4.9063,-4.9169,-4.9293,-4.9162,-4.9253,-4.9341,-4.9591,-4.9474,-4.9517,-4.9495,-4.9627,-4.9754,-4.9789,-4.9706,-4.9675,-4.9729,-4.9899,-4.9858,-4.976,-4.964,-4.9633,-4.9792,-4.963,-4.9552,-4.9441,-4.9442,-4.948,-4.9493,-4.9451,-4.9526,-4.9497,-4.9754,-4.9808,-4.9754,-4.953,-4.9376,-4.9225,-4.9119,-4.8734,-4.8508,-4.8209,-4.8147,-4.7896,-4.7765,-4.7473,-4.7439,-4.7413,-4.7487,-4.7356,-4.7308,-4.7136,-4.7229,-4.7297,-4.7325,-4.7129,-4.7199,-4.7159,-4.7345,-4.7179,-4.7201,-4.7073,-4.7193,-4.7204,-4.718,-4.6984,-4.7025,-4.7039,-4.7195,-4.7048,-4.7003,-4.6868,-4.6926,-4.6961,-4.7017,-4.6838,-4.6796,-4.673,-4.6901,-4.6797,-4.6747,-4.663,-4.6711,-4.6754,-4.6805,-4.6648,-4.6612,-4.6528,-4.6668,-4.6668,-4.6723,-4.6626,-4.6735,-4.6949,-4.71,-4.7135,-4.7157,-4.7126,-4.7322,-4.7343,-4.7066,-4.6541,-4.6427,-4.6505,-4.6608,-4.6588,-4.6538,-4.6569,-4.6778,-4.6802,-4.661,-4.6396,-4.6298,-4.6313,-4.6437,-4.6357,-4.6239,-4.6191,-4.626,-4.6328,-4.6375,-4.7421,-4.9983,-5.2717,-5.5207,-5.6955,-5.9601,-5.8827,-5.4842,-4.4463,-3.593,-3.0114,-2.8732,-2.7753,-2.8972,-3.3245,-3.651,-4.0422,-4.2592,-4.5101,-4.5971,-4.6813,-4.6578,-4.7282,-4.7039,-4.7653,-4.7331,-4.7722,-4.7456,-4.8001,-4.7897,-4.8183,-4.7941,-4.8273,-4.8226,-4.8606,-4.8377,-4.8603,-4.8529,-4.8912,-4.8827,-4.9001,-4.885,-4.9086,-4.9065,-4.937,-4.9292,-4.9373,-4.9294,-4.9562,-4.9702,-4.9761,-4.9671,-4.9731,-4.9758,-4.9962,-4.9861,-4.983,-4.973,-4.9847,-4.992,-4.9815,-4.9728,-4.9683,-4.9666,-4.9794,-4.9817,-4.9791,-4.9776,-4.9796,-4.9946,-4.9802,-4.9626,-4.928,-4.9117,-4.8916,-4.8685,-4.831,-4.8055,-4.7835,-4.7836,-4.7592,-4.7558,-4.73,-4.7254,-4.7211,-4.7266,-4.7097,-4.7022,-4.6954,-4.7151,-4.708,-4.7115,-4.6986,-4.7047,-4.7074,-4.718,-4.7028,-4.7048,-4.6974,-4.7167,-4.7124,-4.7083,-4.6959,-4.6953,-4.699,-4.7119,-4.6983,-4.6923,-4.6792,-4.6906,-4.6947,-4.6911,-4.6742,-4.6711,-4.673,-4.6857,-4.673,-4.6666,-4.6562,-4.6666,-4.6693,-4.6731,-4.6578,-4.6541,-4.6479,-4.6662,-4.658,-4.657,-4.6525,-4.6729,-4.6924,-4.7069,-4.7079,-4.7098,-4.716,-4.7394,-4.7337,-4.7048,-4.6504,-4.6443,-4.6413,-4.6518,-4.6566,-4.6507,-4.6584,-4.683,-4.6748,-4.648,-4.6324,-4.6203,-4.6261,-4.6256,-4.6151,-4.6074,-4.6007,-4.6104,-4.6088,-4.6103,-4.6386,-4.8211,-5.1518,-5.4251,-5.7797,-6.0468,-6.0488,-5.4973,-4.2451,-3.0166,-2.421,-2.3371,-2.469,-2.8231,-3.1971,-3.6666,-4.06,-4.3389,-4.5414,-4.5863,-4.6382,-4.6608,-4.6873,-4.7182,-4.7311,-4.7351,-4.7436,-4.7559,-4.7776,-4.7853,-4.7863,-4.7904,-4.8044,-4.821,-4.8328,-4.8323,-4.8394,-4.8508,-4.8619,-4.8721,-4.8815,-4.8808,-4.8867,-4.9055,-4.9237,-4.9228,-4.9299,-4.9363,-4.9618,-4.9691,-4.972,-4.9673,-4.972,-4.9889,-4.9975,-4.9883,-4.9852,-4.9772,-4.9846,-4.9895,-4.9841,-4.9721,-4.9707,-4.9766,-4.9902,-4.9864,-4.9874,-4.9837,-4.9973,-4.999,-4.985,-4.9545,-4.9274,-4.9056,-4.8862,-4.8462,-4.832,-4.7959,-4.7778,-4.7675,-4.7506,-4.7247,-4.7088,-4.6986,-4.7044,-4.697,-4.6832,-4.6742,-4.6729,-4.683,-4.6825,-4.678,-4.6739,-4.6767,-4.6919,-4.6828,-4.6812,-4.6744,-4.6729,-4.6862,-4.6919,-4.6807,-4.6712,-4.6677,-4.6812,-4.6824,-4.6764,-4.6679,-4.6657,-4.6695,-4.6727,-4.66,-4.6522,-4.6521,-4.6597,-4.6608,-4.6592,-4.6462,-4.6378,-4.6421,-4.6453,-4.6378,-4.6246,-4.622,-4.6273,-4.6348,-4.628,-4.6173,-4.6124,-4.6247,-4.6478,-4.6557,-4.6595,-4.6666,-4.6755,-4.691,-4.6916,-4.6901,-4.6884,-4.6611,-4.637,-4.6226,-4.6132,-4.6196,-4.621,-4.6416,-4.6535,-4.635,-4.6066,-4.5976,-4.6036,-4.5956,-4.5825,-4.5776,-4.5723,-4.5856,-4.5832,-4.5735,-4.5643,-4.5749,-4.6991,-4.9799,-5.2749,-5.5648,-5.9445,-6.0877,-5.9124,-4.8078,-3.438,-2.5214,-2.2581,-2.3051,-2.3978,-2.7817,-3.1647,-3.6709,-4.058,-4.3379,-4.4935,-4.576,-4.6111,-4.6563,-4.6582,-4.6777,-4.6774,-4.7087,-4.7187,-4.7319,-4.7268,-4.7417,-4.752,-4.7786,-4.7721,-4.7827,-4.7783,-4.8007,-4.8166,-4.8255,-4.8233,-4.8316,-4.8424,-4.8636,-4.8668,-4.8727,-4.8753,-4.8918,-4.908,-4.9145,-4.9132,-4.9132,-4.9259,-4.9375,-4.9433,-4.9401,-4.9346,-4.9349,-4.9433,-4.9465,-4.9349,-4.9262,-4.922,-4.9304,-4.9325,-4.9267,-4.9269,-4.9315,-4.9521,-4.9593,-4.9521,-4.9381,-4.9262,-4.9175,-4.9056,-4.8746,-4.8401,-4.8038,-4.7852,-4.7686,-4.743,-4.7147,-4.6951,-4.6908,-4.6912,-4.6744,-4.661,-4.6471,-4.6545,-4.657,-4.6498,-4.6423,-4.6378,-4.6407,-4.6577,-4.6509,-4.6463,-4.6409,-4.6464,-4.6562,-4.6546,-4.6437,-4.6393,-4.6399,-4.6567,-4.6461,-4.6399,-4.6285,-4.6385,-4.6449,-4.6442,-4.6321,-4.6275,-4.6172,-4.6289,-4.6243,-4.6188,-4.6085,-4.6077,-4.6155,-4.6168,-4.6048,-4.594,-4.5919,-4.5989,-4.5941,-4.5881,-4.5785,-4.5795,-4.5912,-4.595,-4.587,-4.5778,-4.5682,-4.5849,-4.6008,-4.614,-4.6181,-4.6247,-4.6461,-4.6575,-4.6529,-4.6471,-4.6344,-4.6072,-4.598,-4.5823,-4.5789,-4.5852,-4.5863,-4.6054,-4.6119,-4.5984,-4.5675,-4.5615,-4.568,-4.5614,-4.546,-4.5367,-4.5386,-4.5495,-4.5396,-4.5325,-4.5257,-4.5736,-4.7705,-5.0772,-5.3303,-5.4865,-5.8633,-6.019,-5.8928,-4.8723,-3.5657,-2.6626,-2.3225,-2.3107,-2.5044,-2.9336,-3.3637,-3.837,-4.141,-4.3823,-4.488,-4.5702,-4.5944,-4.6391,-4.6218,-4.6492,-4.638,-4.6785,-4.6786,-4.6985,-4.6844,-4.7077,-4.708,-4.7388,-4.7279,-4.7421,-4.7378,-4.7683,-4.7761,-4.7895,-4.7832,-4.7909,-4.8095,-4.8281,-4.8225,-4.8232,-4.8209,-4.838,-4.857,-4.8606,-4.8558,-4.8592,-4.8689,-4.886,-4.8858,-4.8772,-4.8694,-4.8692,-4.8807,-4.8765,-4.8689,-4.8557,-4.8603,-4.8647,-4.8693,-4.8563,-4.857,-4.8571,-4.88,-4.8888,-4.8901,-4.8788,-4.8731,-4.8668,-4.8483,-4.8202,-4.7902,-4.7579,-4.7526,-4.7179,-4.6976,-4.6674,-4.6622,-4.6546,-4.6554,-4.6343,-4.6239,-4.6131,-4.6216,-4.6182,-4.6173,-4.6018,-4.6066,-4.6124,-4.6236,-4.614,-4.6107,-4.6004,-4.6192,-4.6213,-4.6137,-4.6026,-4.6061,-4.6007,-4.6182,-4.611,-4.6059,-4.592,-4.5998,-4.6048,-4.6032,-4.5862,-4.5857,-4.5874,-4.6031,-4.5856,-4.5803,-4.5631,-4.5736,-4.5804,-4.5807,-4.5626,-4.5606,-4.5498,-4.5614,-4.564,-4.5551,-4.5472,-4.5555,-4.5733,-4.5883,-4.5931,-4.5972,-4.6012,-4.6135,-4.6181,-4.622,-4.5995,-4.558,-4.55,-4.5442,-4.5379,-4.5411,-4.5326,-4.5548,-4.5769,-4.5634,-4.5398,-4.5248,-4.5213,-4.5195,-4.5127,-4.5045,-4.4987,-4.5049,-4.5076,-4.5,-4.4967,-4.5098,-4.6429,-4.924,-5.1701,-5.4089,-5.7219,-5.7932,-5.648,-4.7943,-3.8589,-3.2053,-2.8933,-2.6824,-2.6897,-3.0396,-3.3834,-3.7757,-4.0609,-4.2829,-4.425,-4.489,-4.512,-4.5704,-4.5784,-4.6008,-4.5949,-4.619,-4.6286,-4.6546,-4.6436,-4.6597,-4.6566,-4.6871,-4.6865,-4.6968,-4.6931,-4.7117,-4.7248,-4.7346,-4.729,-4.7349,-4.7332,-4.7541,-4.7639,-4.7677,-4.766,-4.7697,-4.7856,-4.7908,-4.7926,-4.7851,-4.7852,-4.7958,-4.8076,-4.8039,-4.7958,-4.7868,-4.8,-4.8031,-4.7932,-4.7761,-4.7657,-4.7632,-4.776,-4.7692,-4.77,-4.7652,-4.7853,-4.8029,-4.8074,-4.7953,-4.7892,-4.7783,-4.7693,-4.737,-4.7114,-4.6776,-4.6757,-4.66,-4.6467,-4.6204,-4.6052,-4.5854,-4.591,-4.5781,-4.575,-4.5604,-4.5607,-4.5727,-4.5756,-4.5655,-4.5634,-4.5594,-4.5792,-4.5737,-4.5681,-4.5595,-4.5627,-4.5676,-4.5777,-4.571,-4.5649,-4.5565,-4.5661,-4.5694,-4.5635,-4.552,-4.5516,-4.5575,-4.5651,-4.5537,-4.5439,-4.5367,-4.5475,-4.5478,-4.5419,-4.5309,-4.5277,-4.5266,-4.5402,-4.5331,-4.5293,-4.5207,-4.5358,-4.5507,-4.5617,-4.5608,-4.5681,-4.5864,-4.6035,-4.6012,-4.6016,-4.5861,-4.5491,-4.5317,-4.5256,-4.5099,-4.5194,-4.5188,-4.5347,-4.5506,-4.5429,-4.5171,-4.5046,-4.511,-4.5033,-4.4914,-4.4819,-4.4791,-4.4907,-4.4883,-4.4797,-4.471,-4.5086,-4.5866,-4.8452,-5.1436,-5.3829,-5.7371,-5.8837,-5.7814,-4.8912,-3.7035,-2.8307,-2.4571,-2.431,-2.5654,-2.8987,-3.2758,-3.7204,-4.0476,-4.2816,-4.4311,-4.4801,-4.5161,-4.5673,-4.577,-4.5948,-4.5916,-4.618,-4.6327,-4.6464,-4.6464,-4.6557,-4.6687,-4.6924,-4.6919,-4.6982,-4.6985,-4.7225,-4.7391,-4.7439,-4.7435,-4.7482,-4.7564,-4.7799,-4.7872,-4.7897,-4.7916,-4.8003,-4.8262,-4.8342,-4.8339,-4.8347,-4.8426,-4.8599,-4.8654,-4.8602,-4.8567,-4.8545,-4.8704,-4.8629,-4.8587,-4.8451,-4.8464,-4.8492,-4.8597,-4.851,-4.8565,-4.8519,-4.8721,-4.8782,-4.8752,-4.8535,-4.8381,-4.8218,-4.8052,-4.7665,-4.7339,-4.7019,-4.6917,-4.6796,-4.6587,-4.6261,-4.6072,-4.5981,-4.6042,-4.5897,-4.5773,-4.5629,-4.5701,-4.5726,-4.5695,-4.5584,-4.5599,-4.5621,-4.5775,-4.5697,-4.5664,-4.5578,-4.5629,-4.572,-4.5752,-4.5652,-4.5622,-4.56,-4.5752,-4.5729,-4.5655,-4.5551,-4.5575,-4.5661,-4.5642,-4.5539,-4.5484,-4.5438,-4.5528,-4.5493,-4.544,-4.534,-4.5311,-4.5353,-4.5395,-4.528,-4.5203,-4.5164,-4.527,-4.5301,-4.5226,-4.5178,-4.5271,-4.5502,-4.5745,-4.5765,-4.5768,-4.5792,-4.5918,-4.6054,-4.6006,-4.5625,-4.5211,-4.5127,-4.5189,-4.5256,-4.5208,-4.5179,-4.5392,-4.5447,-4.5189,-4.4956,-4.4829,-4.4858,-4.4885,-4.4779,-4.4688,-4.4643,-4.4676,-4.4753,-4.4702,-4.4678,-4.5259,-4.7544,-5.0942,-5.3713,-5.7564,-5.9534,-5.9186,-5.0579,-3.6898,-2.5649,-2.1393,-2.1463,-2.3572,-2.785,-3.1808,-3.6747,-4.0197,-4.1893,-4.372,-4.4885,-4.495,-4.5487,-4.5546,-4.6016,-4.5804,-4.6127,-4.5956,-4.6404,-4.6319,-4.659,-4.6407,-4.668,-4.6729,-4.7015,-4.6905,-4.7076,-4.6932,-4.7256,-4.7304,-4.7451,-4.7388,-4.7508,-4.7545,-4.787,-4.7815,-4.7896,-4.7891,-4.8117,-4.8196,-4.8285,-4.8208,-4.8218,-4.8312,-4.8483,-4.8401,-4.839,-4.8274,-4.8294,-4.8354,-4.8343,-4.8234,-4.8116,-4.817,-4.8306,-4.8339,-4.8349,-4.8367,-4.8395,-4.8581,-4.8486,-4.8299,-4.8013,-4.7794,-4.7631,-4.7515,-4.7132,-4.6817,-4.6486,-4.641,-4.6244,-4.6064,-4.5793,-4.5674,-4.5641,-4.5685,-4.5513,-4.542,-4.5319,-4.5442,-4.5427,-4.5437,-4.5332,-4.5407,-4.5416,-4.555,-4.5505,-4.5435,-4.5353,-4.5511,-4.5597,-4.5563,-4.5432,-4.5456,-4.5472,-4.5607,-4.5494,-4.5421,-4.5311,-4.5442,-4.5456,-4.5429,-4.5237,-4.521,-4.5178,-4.5325,-4.5279,-4.5241,-4.5087,-4.5104,-4.5185,-4.5166,-4.5014,-4.4979,-4.4908,-4.5045,-4.4947,-4.4929,-4.4821,-4.4848,-4.4916,-4.4911,-4.4797,-4.4815,-4.4783,-4.502,-4.5181,-4.5347,-4.5366,-4.536,-4.5496,-4.5577,-4.5443,-4.5265,-4.4881,-4.4966,-4.4841,-4.4892,-4.4865,-4.4871,-4.5087,-4.5084,-4.4965,-4.4681,-4.4515,-4.454,-4.4603,-4.4471,-4.4364,-4.4287,-4.436,-4.4481,-4.4354,-4.4261,-4.4469,-4.6085,-4.9274,-5.2073,-5.5481,-5.885,-5.9583,-5.899,-4.9628,-3.6012,-2.5091,-2.1124,-2.11,-2.3238,-2.7475,-3.1681,-3.6603,-4.0085,-4.2686,-4.3813,-4.453,-4.4748,-4.528,-4.5257,-4.5515,-4.5422,-4.5622,-4.5747,-4.6028,-4.5945,-4.6084,-4.5998,-4.6354,-4.6374,-4.6533,-4.6459,-4.6598,-4.6737,-4.6965,-4.6879,-4.6964,-4.7005,-4.723,-4.7284,-4.7367,-4.7321,-4.7376,-4.7507,-4.7731,-4.7731,-4.7726,-4.7665,-4.7831,-4.7917,-4.7891,-4.7756,-4.7762,-4.7731,-4.7809,-4.7675,-4.7596,-4.7444,-4.7527,-4.7661,-4.7651,-4.7655,-4.767,-4.7764,-4.7986,-4.8068,-4.7982,-4.7822,-4.7619,-4.7497,-4.7243,-4.6934,-4.6591,-4.6374,-4.6255,-4.6023,-4.5723,-4.5505,-4.536,-4.5366,-4.5295,-4.5178,-4.5048,-4.4934,-4.503,-4.5067,-4.495,-4.4942,-4.4884,-4.5015,-4.5052,-4.5047,-4.4968,-4.5026,-4.5151,-4.5158,-4.5022,-4.5019,-4.4991,-4.5058,-4.5131,-4.5098,-4.4944,-4.5003,-4.4985,-4.5069,-4.4947,-4.4914,-4.4726,-4.4844,-4.4896,-4.4868,-4.4678,-4.4665,-4.472,-4.4792,-4.4655,-4.4583,-4.4449,-4.4457,-4.453,-4.4541,-4.4474,-4.4358,-4.4346,-4.4465,-4.4374,-4.4336,-4.4262,-4.4304,-4.4401,-4.4346,-4.4292,-4.4201,-4.419,-4.4319,-4.425,-4.4132,-4.4092,-4.4067,-4.4152,-4.4201,-4.4097,-4.4053,-4.4076,-4.4198,-4.4174,-4.4128,-4.403,-4.4093,-4.4397,-4.4528,-4.4538,-4.4574,-4.4622,-4.4744,-4.4742,-4.4708,-4.4636,-4.4386,-4.4191,-4.4255,-4.4324,-4.4294,-4.4257,-4.4456,-4.4493,-4.4219,-4.4009,-4.3902,-4.3912,-4.3956,-4.3895,-4.3758,-4.3672,-4.3716,-4.3787,-4.3787,-4.3735,-4.4008,-4.574,-4.8782,-5.1081,-5.3993,-5.6997,-5.6669,-5.3606,-4.2923,-3.3846,-2.7476,-2.5706,-2.4478,-2.5686,-3.0015,-3.3687,-3.5997,-3.8779,-4.1487,-4.2692,-4.3913,-4.384,-4.4648,-4.4442,-4.4923,-4.4627,-4.5052,-4.4986,-4.5448,-4.5203,-4.5487,-4.5266,-4.5727,-4.5603,-4.5876,-4.5696,-4.5908,-4.5862,-4.6196,-4.6078,-4.6167,-4.6049,-4.6302,-4.6347,-4.645,-4.6376,-4.6506,-4.6614,-4.6774,-4.6711,-4.6717,-4.6671,-4.6804,-4.6853,-4.6829,-4.6772,-4.6772,-4.6783,-4.6902,-4.681,-4.6674,-4.6567,-4.6573,-4.6672,-4.6602,-4.6624,-4.6564,-4.6703,-4.6863,-4.6924,-4.6776,-4.674,-4.6581,-4.6631,-4.6471,-4.626,-4.5866,-4.5711,-4.5472,-4.5356,-4.5005,-4.4897,-4.4668,-4.479,-4.4623,-4.4576,-4.434,-4.4368,-4.4376,-4.4487,-4.4341,-4.4424,-4.4311,-4.4463,-4.4472,-4.4519,-4.4355,-4.4427,-4.4403,-4.4573,-4.4429,-4.4379,-4.4267,-4.4396,-4.4403,-4.4404,-4.4213,-4.4242,-4.4268,-4.4376,-4.4235,-4.416,-4.4038,-4.4127,-4.4142,-4.4164,-4.4019,-4.3986,-4.3945,-4.4105,-4.4002,-4.3917,-4.3777,-4.3897,-4.3957,-4.3961,-4.3832,-4.3798,-4.378,-4.3916,-4.3827,-4.3824,-4.3688,-4.3694,-4.3791,-4.3826,-4.3745,-4.367,-4.3606,-4.3738,-4.3703,-4.3678,-4.3591,-4.3575,-4.3669,-4.3739,-4.3692,-4.3759,-4.3918,-4.4154,-4.4211,-4.4259,-4.4208,-4.4094,-4.4164,-4.4266,-4.3948,-4.3698,-4.3583,-4.3769,-4.3889,-4.381,-4.3875,-4.3835,-4.3825,-4.3694,-4.3579,-4.3434,-4.3364,-4.3367,-4.3496,-4.3391,-4.3373,-4.3233,-4.329,-4.3343,-4.3449,-4.4372,-4.5571,-4.8548,-5.2743,-5.6221,-5.7425,-5.5847,-4.6435,-3.435,-2.5868,-2.2378,-2.2134,-2.2518,-2.5585,-2.9193,-3.3937,-3.7448,-4.0316,-4.2202,-4.3434,-4.366,-4.4031,-4.4082,-4.4526,-4.4523,-4.4736,-4.4666,-4.4919,-4.5011,-4.5267,-4.5151,-4.5284,-4.5247,-4.5509,-4.5661,-4.5736,-4.5684,-4.5829,-4.5922,-4.6153,-4.6136,-4.6244,-4.6203,-4.6422,-4.6536,-4.6632,-4.6583,-4.6652,-4.6808,-4.6968,-4.6948,-4.6948,-4.6914,-4.7017,-4.7153,-4.7158,-4.7064,-4.6963,-4.6945,-4.7048,-4.6971,-4.6852,-4.6824,-4.6881,-4.7024,-4.7002,-4.7007,-4.6989,-4.7067,-4.7067,-4.7026,-4.6828,-4.6517,-4.6228,-4.6107,-4.5882,-4.5575,-4.5234,-4.5035,-4.4947,-4.4786,-4.4526,-4.4406,-4.4266,-4.4334,-4.4266,-4.419,-4.4045,-4.405,-4.4041,-4.4179,-4.4099,-4.4048,-4.3985,-4.4097,-4.4159,-4.4108,-4.4061,-4.4043,-4.4134,-4.427,-4.4161,-4.4106,-4.4013,-4.4146,-4.4169,-4.4153,-4.4038,-4.404,-4.4059,-4.4173,-4.4097,-4.3975,-4.3866,-4.3898,-4.3949,-4.3957,-4.3828,-4.377,-4.3778,-4.3882,-4.3777,-4.3697,-4.3588,-4.3639,-4.3695,-4.3684,-4.3605,-4.3504,-4.3449,-4.3594,-4.3586,-4.3509,-4.3411,-4.3397,-4.3511,-4.3556,-4.3426,-4.3344,-4.3295,-4.3479,-4.3426,-4.3372,-4.3263,-4.329,-4.3393,-4.3438,-4.336,-4.3295,-4.3206,-4.3318,-4.3411,-4.3334,-4.3233,-4.3238,-4.3374,-4.362,-4.3701,-4.3774,-4.3808,-4.403,-4.4103,-4.4035,-4.3975,-4.3875,-4.3763,-4.3635,-4.3482,-4.3555,-4.3507,-4.3547,-4.3775,-4.3718,-4.3503,-4.3266,-4.3267,-4.3278,-4.3196,-4.3034,-4.2988,-4.3003,-4.3098,-4.3017,-4.2919,-4.2881,-4.3055,-4.4601,-4.7675,-5.0482,-5.3687,-5.7097,-5.82,-5.4524,-4.234,-2.8464,-2.0789,-1.9306,-2.0485,-2.3625,-2.7578,-3.2511,-3.7013,-3.992,-4.2033,-4.2515,-4.3175,-4.3607,-4.4017,-4.4074,-4.4202,-4.4275,-4.4514,-4.4617,-4.4751,-4.4725,-4.4835,-4.4975,-4.524,-4.5224,-4.5267,-4.5295,-4.5526,-4.5655,-4.5718,-4.5729,-4.5776,-4.588,-4.6119,-4.6165,-4.6234,-4.6211,-4.6419,-4.6583,-4.6674,-4.6655,-4.6692,-4.6809,-4.6987,-4.6991,-4.6934,-4.693,-4.6999,-4.7046,-4.7061,-4.7054,-4.6944,-4.6871,-4.6932,-4.6949,-4.6882,-4.6839,-4.6862,-4.7014,-4.7067,-4.7,-4.6874,-4.675,-4.6703,-4.6448,-4.6079,-4.5728,-4.5562
