7.5378,7.5377,7.5277,7.5336,7.527,7.5224,7.5102,7.5114,7.5124,7.5213,7.5163,7.5064,7.5081,7.5107,7.5139,7.5135,7.521,7.5171,7.5224,7.5329,7.5223,7.5075,7.4898,7.5053,7.5275,7.5348,7.53,7.5123,7.5204,7.5364,7.5442,7.5407,7.5418,7.5764,7.5962,7.6038,7.6013,7.6035,7.6115,7.6025,7.5703,7.53,7.5144,7.5054,7.4993,7.4952,7.4979,7.4937,7.4844,7.4959,7.5071,7.5009,7.4823,7.4326,7.2784,7.1959,7.2443,7.4382,7.6187,7.9629,8.4507,8.7997,9.0075,8.7963,8.327,7.7793,7.6342,7.5899,7.5502,7.526,7.5269,7.5553,7.5419,7.5591,7.5442,7.5573,7.549,7.5487,7.5383,7.5494,7.55,7.5674,7.5568,7.5636,7.5653,7.5875,7.597,7.5901,7.5851,7.5992,7.6005,7.6226,7.6126,7.6233,7.6358,7.6536,7.6499,7.6578,7.6555,7.6694,7.6844,7.7,7.714,7.7156,7.7294,7.7651,7.7877,7.8182,7.8388,7.8527,7.8646,7.902,7.932,7.9593,7.992,8.0178,8.0504,8.0777,8.0855,8.0825,8.0938,8.1087,8.1138,8.1075,8.0825,8.0441,8.003,7.9628,7.9074,7.8484,7.8054,7.7603,7.7225,7.6779,7.6382,7.6142,7.5996,7.5788,7.575,7.5677,7.5602,7.5428,7.5491,7.5399,7.5316,7.5334,7.5243,7.5287,7.536,7.5343,7.529,7.5293,7.5321,7.5106,7.5188,7.5146,7.5173,7.5221,7.5339,7.5286,7.5223,7.5304,7.5286,7.5306,7.5419,7.5385,7.5353,7.542,7.5414,7.5452,7.5466,7.5355,7.5457,7.5488,7.5466,7.5312,7.5346,7.5326,7.5447,7.5406,7.5392,7.5261,7.526,7.5351,7.5411,7.5345,7.5311,7.5229,7.5328,7.5258,7.5145,7.5226,7.5274,7.5377,7.533,7.5175,7.5129,7.5124,7.5098,7.5172,7.5178,7.514,7.5221,7.5273,7.5164,7.5084,7.5104,7.5207,7.5298,7.5379,7.5498,7.5518,7.5562,7.5555,7.5602,7.5591,7.5802,7.5911,7.6121,7.6229,7.6177,7.6111,7.5993,7.5834,7.5533,7.5347,7.5186,7.5114,7.5071,7.5142,7.5173,7.5203,7.5184,7.5185,7.5196,7.5067,7.483,7.3861,7.2418,7.2047,7.2944,7.5647,7.8965,8.3506,8.7639,8.9943,8.8937,8.4692,7.8827,7.6753,7.6253,7.5974,7.5506,7.5345,7.5762,7.587,7.5975,7.5732,7.5731,7.5452,7.5708,7.5608,7.5689,7.5682,7.584,7.5682,7.5866,7.5692,7.5837,7.5846,7.5964,7.6035,7.6096,7.6201,7.6325,7.6306,7.6404,7.6354,7.647,7.6522,7.6604,7.6675,7.6781,7.6839,7.6995,7.7075,7.7299,7.7395,7.7604,7.7788,7.7997,7.8263,7.8476,7.8627,7.9048,7.9403,7.9549,7.9716,7.9992,8.0295,8.0586,8.077,8.1022,8.1081,8.1079,8.1128,8.1171,8.0906,8.0479,8.0066,7.9566,7.9217,7.8692,7.8103,7.7622,7.7196,7.6956,7.6729,7.6369,7.6192,7.5949,7.5982,7.5874,7.5861,7.5691,7.5648,7.5545,7.5501,7.5469,7.5507,7.5461,7.5471,7.5466,7.549,7.5505,7.5515,7.5319,7.541,7.5249,7.5329,7.5287,7.5432,7.5494,7.5448,7.5415,7.5495,7.5529,7.5638,7.5598,7.5531,7.5437,7.5466,7.5591,7.5645,7.5622,7.567,7.554,7.5582,7.5572,7.5734,7.5679,7.5609,7.5542,7.5573,7.5498,7.5485,7.5434,7.5486,7.5557,7.5572,7.5635,7.5629,7.5578,7.5549,7.5448,7.5355,7.5535,7.5452,7.5513,7.5468,7.5517,7.5501,7.546,7.5584,7.5569,7.5491,7.5448,7.5431,7.5516,7.5535,7.5434,7.5467,7.545,7.5447,7.5387,7.5358,7.5295,7.539,7.5531,7.5601,7.5519,7.5538,7.5563,7.5718,7.5787,7.5738,7.606,7.6244,7.6406,7.6463,7.6416,7.6227,7.6054,7.5824,7.5707,7.5618,7.5601,7.5447,7.5394,7.538,7.5409,7.5331,7.5341,7.5328,7.541,7.5288,7.4547,7.2855,7.2234,7.2881,7.4969,7.8522,8.3009,8.7791,8.9199,9.1102,8.8954,8.3709,7.8613,7.6948,7.6855,7.617,7.595,7.5746,7.6187,7.605,7.6233,7.5774,7.5939,7.5735,7.5973,7.5895,7.6079,7.5928,7.6026,7.6044,7.6242,7.6078,7.6239,7.6157,7.6453,7.6428,7.6443,7.6189,7.6423,7.6447,7.6639,7.6648,7.6773,7.6768,7.6951,7.7,7.7094,7.7197,7.7294,7.7469,7.763,7.7752,7.7979,7.8113,7.8432,7.8723,7.8812,7.9194,7.9515,7.9783,7.996,8.0141,8.0218,8.0561,8.0912,8.1144,8.132,8.1452,8.1555,8.1573,8.1519,8.1384,8.095,8.045,7.9931,7.9429,7.8979,7.8457,7.7952,7.7675,7.7372,7.7076,7.6733,7.6572,7.6388,7.6364,7.6249,7.6244,7.6147,7.6098,7.6073,7.6089,7.6023,7.6049,7.6019,7.6017,7.6045,7.5895,7.5938,7.6007,7.6036,7.6077,7.5978,7.5847,7.5951,7.6007,7.598,7.5989,7.5803,7.5898,7.5996,7.6061,7.5948,7.6003,7.5905,7.6064,7.6049,7.611,7.6054,7.6023,7.595,7.6133,7.6049,7.6066,7.599,7.6054,7.6115,7.6193,7.6037,7.6047,7.5931,7.6074,7.6113,7.6041,7.5866,7.5863,7.5962,7.6095,7.6022,7.6043,7.603,7.6095,7.6021,7.5909,7.5891,7.5889,7.5935,7.5989,7.6063,7.5978,7.5915,7.5932,7.5951,7.5994,7.5973,7.5913,7.5889,7.6007,7.6022,7.5969,7.5931,7.5861,7.5902,7.5916,7.5937,7.5863,7.5896,7.5973,7.6008,7.5988,7.5964,7.5945,7.6076,7.6083,7.6009,7.6131,7.6203,7.6589,7.6782,7.6777,7.6722,7.6733,7.6723,7.6667,7.6455,7.6265,7.6133,7.5865,7.5938,7.596,7.5851,7.5779,7.5876,7.5812,7.5679,7.5634,7.5521,7.5234,7.3819,7.2672,7.278,7.4021,7.7648,8.1778,8.7368,9.0841,9.2087,9.1552,8.748,8.1417,7.8288,7.7601,7.6957,7.6619,7.6548,7.6622,7.6574,7.6537,7.6386,7.6405,7.63,7.6361,7.6436,7.659,7.6579,7.6559,7.6426,7.6483,7.6551,7.6716,7.6699,7.6726,7.6704,7.6701,7.6836,7.7035,7.7006,7.7123,7.7165,7.7192,7.7218,7.7263,7.7288,7.7594,7.7779,7.7865,7.7824,7.7851,7.7982,7.8353,7.8586,7.8661,7.8861,7.9009,7.9392,7.9835,8.0048,8.0237,8.0494,8.087,8.1195,8.1446,8.1544,8.1639,8.1867,8.2022,8.2086,8.2074,8.1852,8.1572,8.1218,8.0749,8.0214,7.9581,7.9127,7.8679,7.8388,7.8018,7.7714,7.7334,7.7184,7.6999,7.6791,7.654,7.6475,7.6405,7.6581,7.6525,7.6581,7.6371,7.6461,7.6421,7.6416,7.6414,7.6351,7.6406,7.6558,7.6508,7.6476,7.6305,7.6487,7.654,7.6505,7.6415,7.63,7.632,7.6452,7.6479,7.6506,7.6492,7.653,7.6533,7.657,7.6556,7.641,7.6408,7.6437,7.6479,7.6462,7.6341,7.641,7.6566,7.6536,7.6444,7.6317,7.6346,7.6372,7.633,7.6304,7.6279,7.6253,7.6354,7.6413,7.6343,7.6233,7.6203,7.6152,7.6222,7.6233,7.62,7.6209,7.623,7.6271,7.6175,7.6117,7.6125,7.6033,7.6016,7.6048,7.6005,7.592,7.5956,7.6072,7.6028,7.6033,7.6021,7.6028,7.6009,7.5916,7.5806,7.5782,7.5922,7.5917,7.6026,7.5966,7.5945,7.6012,7.623,7.6291,7.6234,7.6132,7.6161,7.6239,7.6504,7.664,7.6775,7.6749,7.6747,7.6703,7.6415,7.6097,7.5845,7.5786,7.579,7.5741,7.5613,7.5504,7.5571,7.5749,7.5698,7.5647,7.5543,7.5505,7.4812,7.3185,7.2333,7.2878,7.5093,7.8612,8.2697,8.6887,8.9427,8.9606,8.5827,8.2911,7.8012,7.6667,7.6587,7.6291,7.6289,7.5821,7.6297,7.6086,7.6545,7.6227,7.6366,7.6077,7.6413,7.6296,7.6523,7.619,7.6413,7.6326,7.6686,7.6533,7.6644,7.6459,7.6596,7.647,7.6801,7.6723,7.6927,7.6811,7.6864,7.6828,7.7057,7.7012,7.7417,7.7601,7.7649,7.7694,7.7767,7.787,7.8254,7.8328,7.8548,7.8485,7.8603,7.8844,7.9196,7.9511,7.9971,8.0147,8.0165,8.0434,8.0667,8.1111,8.1226,8.1558,8.1641,8.1887,8.1872,8.1822,8.1787,8.1502,8.1142,8.062,8.0183,7.992,7.958,7.9672,7.9513,7.9551,7.9692,7.9869,7.9867,8.0314,8.041,8.0371,8.0259,8.0359,8.0407,8.0817,8.0984,8.109,8.1134,8.1095,8.0979,8.0992,8.1159,8.1223,8.1176,8.1093,8.0902,8.0753,8.0784,8.0948,8.0817,8.0687,8.05,8.0258,7.9888,7.9743,7.9636,7.9466,7.9293,7.9282,7.9098,7.8945,7.894,7.8963,7.8726,7.8712,7.866,7.8554,7.8431,7.8375,7.8244,7.8202,7.8299,7.8385,7.8366,7.8222,7.807,7.8045,7.7933,7.7968,7.7895,7.8091,7.801,7.7894,7.7624,7.7769,7.7585,7.7332,7.7263,7.7216,7.7005,7.699,7.7086,7.711,7.7018,7.7088,7.7102,7.7126,7.697,7.7072,7.718,7.7179,7.7057,7.6947,7.7015,7.7136,7.7118,7.7199,7.7259,7.7237,7.7322,7.7269,7.7251,7.7618,7.7868,7.7951,7.8138,7.793,7.7784,7.7657,7.752,7.7389,7.7296,7.7028,7.6982,7.6973,7.7027,7.7028,7.697,7.6918,7.699,7.6983,7.6883,7.6276,7.4867,7.4347,7.4192,7.5119,7.7913,8.1458,8.621,8.9788,9.1729,8.9379,8.4327,7.9327,7.8169,7.7878,7.7487,7.7189,7.7044,7.7387,7.7396,7.7567,7.7369,7.7514,7.7372,7.7601,7.7402,7.7483,7.7443,7.764,7.7586,7.7636,7.758,7.7834,7.7778,7.7938,7.7838,7.7952,7.7859,7.8016,7.8056,7.8157,7.8042,7.8136,7.8239,7.8398,7.8535,7.858,7.8681,7.8692,7.8914,7.9097,7.9196,7.9356,7.9669,7.9777,7.9891,8.0031,8.0362,8.0547,8.0817,8.0994,8.1214,8.1292,8.1507,8.1673,8.1888,8.197,8.2121,8.2176,8.2225,8.212,8.188,8.1507,8.1204,8.0798,8.0411,7.9831,7.9259,7.8855,7.8558,7.8238,7.8108,7.7861,7.7731,7.7598,7.7543,7.729,7.7153,7.7008,7.7056,7.699,7.6977,7.6979,7.6966,7.6947,7.7072,7.6939,7.6955,7.6826,7.6812,7.6843,7.6929,7.6837,7.6756,7.6733,7.6827,7.6971,7.6926,7.6874,7.6878,7.6712,7.6832,7.6708,7.6698,7.6784,7.6878,7.687,7.6797,7.6707,7.6736,7.6802,7.6841,7.6801,7.6762,7.6742,7.6758,7.6806,7.6875,7.6751,7.6673,7.6727,7.6825,7.6771,7.675,7.6697,7.6733,7.6686,7.6541,7.6564,7.6581,7.6553,7.6578,7.6741,7.6709,7.6652,7.6594,7.6618,7.6677,7.6561,7.6503,7.6449,7.6501,7.6542,7.642,7.6459,7.6541,7.6571,7.6613,7.654,7.6478,7.6485,7.6476,7.659,7.6663,7.6738,7.6676,7.6878,7.6963,7.7163,7.7293,7.7359,7.7299,7.7163,7.6966,7.6958,7.6787,7.6638,7.6506,7.6422,7.6249,7.6194,7.6162,7.6185,7.6221,7.6199,7.6128,7.6159,7.6126,7.6011,7.4935,7.3446,7.325,7.3831,7.6847,8.0778,8.6135,9.035,9.2999,9.2273,8.7385,8.4205,7.9261,7.8084,7.7761,7.735,7.7388,7.7541,7.7771,7.7653,7.7673,7.7393,7.7325,7.7248,7.7328,7.7328,7.7511,7.7359,7.7418,7.7403,7.7404,7.7363,7.7423,7.7463,7.7649,7.7619,7.7586,7.7556,7.7567,7.7586,7.7779,7.776,7.771,7.7752,7.7754,7.7828,7.8005,7.8042,7.8166,7.8294,7.8587,7.8659,7.8719,7.8765,7.9029,7.9279,7.948,7.9639,7.9985,8.029,8.0579,8.0848,8.1034,8.1259,8.146,8.1718,8.1964,8.2021,8.1914,8.1908,8.196,8.18,8.1555,8.111,8.061,8.0172,7.9634,7.9193,7.8851,7.8489,7.8301,7.8007,7.774,7.758,7.7455,7.7385,7.7181,7.7124,7.7112,7.7069,7.7087,7.707,7.704,7.6914,7.6839,7.6807,7.6879,7.6864,7.6766,7.6695,7.6708,7.677,7.6727,7.6692,7.6651,7.6733,7.673,7.6735,7.6591,7.658,7.6569,7.6604,7.6695,7.6621,7.658,7.6631,7.6641,7.6737,7.6669,7.6638,7.6512,7.6588,7.6525,7.6483,7.6437,7.6503,7.6663,7.6575,7.6509,7.637,7.6413,7.6337,7.6379,7.6276,7.6151,7.6173,7.6216,7.6273,7.6255,7.6245,7.6286,7.6319,7.6404,7.6302,7.6193,7.6307,7.6427,7.6611,7.6516,7.6232,7.6152,7.6122,7.6219,7.625,7.6245,7.6237,7.6272,7.6319,7.6302,7.638,7.6288,7.6342,7.6411,7.6374,7.6347,7.633,7.6332,7.6439,7.6546,7.6598,7.669,7.6798,7.6795,7.6803,7.6843,7.7016,7.7279,7.7435,7.7541,7.7426,7.732,7.7259,7.7044,7.6793,7.6512,7.637,7.6338,7.6348,7.6415,7.6424,7.639,7.6335,7.6347,7.6364,7.6406,7.6136,7.5015,7.3594,7.3318,7.4124,7.7096,8.1062,8.6572,9.0762,9.3143,9.1675,8.6356,8.0454,7.8109,7.7913,7.7238,7.6948,7.6869,7.7359,7.7363,7.7333,7.6999,7.7034,7.6879,7.7076,7.6959,7.7035,7.6974,7.718,7.7078,7.7184,7.7124,7.7313,7.7322,7.7455,7.7438,7.7522,7.7453,7.763,7.7653,7.7838,7.7854,7.7915,7.7871,7.8094,7.8228,7.833,7.8281,7.8378,7.8549,7.878,7.8862,7.9104,7.9207,7.937,7.9597,7.9794,7.9975,8.0183,8.0564,8.0777,8.1079,8.1238,8.149,8.1747,8.2029,8.2113,8.2292,8.236,8.2472,8.2486,8.2385,8.205,8.1909,8.1549,8.1236,8.0697,8.0282,7.9742,7.939,7.8974,7.8694,7.8373,7.8113,7.7981,7.7983,7.7778,7.7562,7.741,7.7457,7.7444,7.7606,7.7458,7.7404,7.7325,7.7487,7.7597,7.7588,7.7469,7.7389,7.7426,7.7643,7.7663,7.759,7.7557,7.7557,7.7549,7.7515,7.749,7.7523,7.7596,7.7705,7.7679,7.7704,7.7658,7.7682,7.7733,7.7804,7.7754,7.7658,7.7633,7.7765,7.7813,7.784,7.7738,7.7718,7.7762,7.7758,7.7727,7.7703,7.7696,7.7748,7.7837,7.7817,7.7748,7.7771,7.7758,7.7766,7.7722,7.7726,7.7656,7.7657,7.7679,7.7718,7.7691,7.7725,7.7865,7.7853,7.7664,7.7612,7.7611,7.7709,7.7781,7.7798,7.7759,7.7746,7.7843,7.8045,7.8206,7.8157,7.8155,7.815,7.831,7.8518,7.8685,7.8688,7.8741,7.8742,7.8697,7.8445,7.8132,7.7883,7.7846,7.7855,7.7824,7.7651,7.757,7.7643,7.7812,7.7764,7.776,7.7741,7.7441,7.6139,7.4565,7.4209,7.557,7.9016,8.3188,8.8354,9.2003,9.3915,9.3287,8.8689,8.2105,7.913,7.8399,7.7968,7.7872,7.8034,7.8426,7.8402,7.8501,7.8255,7.8381,7.819,7.8305,7.826,7.8464,7.835,7.8413,7.8357,7.8512,7.8417,7.8598,7.8497,7.8675,7.8636,7.8772,7.8845,7.9,7.8869,7.8986,7.8942,7.9206,7.9195,7.9289,7.9328,7.952,7.9666,7.9909,7.997,8.0054,8.0179,8.0468,8.059,8.0728,8.0911,8.1105,8.1406,8.1718,8.195,8.2178,8.2456,8.2639,8.2851,8.2994,8.3093,8.33,8.3435,8.3598,8.3603,8.3538,8.3354,8.3116,8.2757,8.2373,8.1765,8.1127,8.0771,8.0355,7.9996,7.9595,7.932,7.9047,7.9003,7.8977,7.8742,7.861,7.8571,7.8503,7.8586,7.8488,7.8409,7.8489,7.8627,7.8598,7.8718,7.8719,7.8749,7.8663,7.871,7.8613,7.8812,7.8684,7.8726,7.8693,7.8636,7.8622,7.8771,7.8714,7.8795,7.8805,7.8863,7.8742,7.8763,7.8815,7.8879,7.8794,7.8753,7.8706,7.8849,7.8782,7.8724,7.8748,7.8681,7.869,7.8709,7.8567,7.8544,7.8547,7.859,7.864,7.8523,7.8469,7.8432,7.8393,7.8474,7.8442,7.8357,7.8244,7.8363,7.8321,7.8315,7.8207,7.8346,7.846,7.8529,7.8602,7.8543,7.8592,7.8682,7.8796,7.9053,7.9142,7.9129,7.9218,7.9263,7.9255,7.9002,7.8695,7.8433,7.8298,7.8235,7.8164,7.8147,7.8011,7.8169,7.8114,7.8067,7.8076,7.8035,7.8065,7.7387,7.5628,7.457,7.5016,7.7363,8.1441,8.6282,9.114,9.4273,9.4286,8.97,8.2648,7.9627,7.9035,7.8644,7.8286,7.8235,7.8474,7.8634,7.8761,7.8765,7.8769,7.8544,7.8588,7.8577,7.8783,7.8722,7.8808,7.8705,7.8879,7.889,7.9058,7.8985,7.9055,7.8911,7.913,7.9178,7.9192,7.9255,7.9411,7.9476,7.9532,7.9558,7.9641,7.9744,7.9979,8.009,8.0196,8.0314,8.0415,8.054,8.08,8.0915,8.1134,8.1352,8.1665,8.195,8.2075,8.2145,8.2348,8.2672,8.3018,8.3149,8.3392,8.3542,8.3754,8.3941,8.3972,8.3943,8.3871,8.37,8.3538,8.3023,8.2391,8.1886,8.1461,8.1225,8.0828,8.0345,7.9807,7.9586,7.939,7.9208,7.8947,7.8804,7.8695,7.876,7.8749,7.8676,7.8481,7.8565,7.8579,7.8534,7.8438,7.8375,7.8391,7.8451,7.8533,7.8672,7.8754,7.8721,7.877,7.8727,7.8787,7.8668,7.8775,7.8882,7.9035,7.9058,7.8907,7.8943,7.8963,7.9049,7.9038,7.9047,7.8944,7.8983,7.9093,7.9087,7.8938,7.8871,7.898,7.9061,7.9071,7.897,7.8986,7.9055,7.9115,7.9069,7.8964,7.891,7.8956,7.9126,7.9138,7.9068,7.9001,7.8979,7.9051,7.9128,7.9117,7.9122,7.9182,7.9346,7.9458,7.94,7.9339,7.9339,7.9432,7.9627,7.9768,8.0064,8.0133,8.0343,8.0402,8.0325,7.994,7.9683,7.9507,7.9443,7.9468,7.9402,7.9315,7.9291,7.9381,7.9399,7.9376,7.9296,7.9448,7.9317,7.8429,7.6633,7.5883,7.6825,7.9877,8.409,8.6532,9.1538,9.5121,9.6311,9.2758,8.6079,8.1793,8.0698,8.0588,8.0094,8.0159,8.0195,8.068,8.0549,8.0594,8.0372,8.0363,8.0287,8.0409,8.0338,8.0565,8.0409,8.0504,8.0357,8.0538,8.0474,8.0577,8.0548,8.0685,8.0709,8.0811,8.0724,8.0861,8.085,8.103,8.1001,8.1156,8.1167,8.1263,8.1367,8.1477,8.1604,8.1657,8.1719,8.1955,8.2195,8.2243,8.248,8.2728,8.3013,8.3225,8.3427,8.3487,8.3729,8.4112,8.4269,8.4462,8.4676,8.4806,8.4941,8.5046,8.5234,8.5092,8.4995,8.4828,8.4619,8.4239,8.3782,8.3307,8.2744,8.2318,8.1876,8.1478,8.1144,8.0851,8.064,8.0439,8.028,8.0108,8.01,7.9887,7.9868,7.9731,7.9715,7.9769,7.9832,7.9848,7.9904,7.9736,7.9752,7.9684,7.9797,7.9798,7.9809,7.9782,7.9732,7.9687,7.9618,7.9625,7.9698,7.9695,7.9782,7.9815,7.9784,7.9714,7.969,7.9772,7.9798,7.9783,7.9771,7.9736,7.9746,7.9695,7.969,7.9577,7.9666,7.9748,7.9879,7.9637,7.9662,7.9657,7.9695,7.9603,7.9544,7.9486,7.9501,7.9578,7.9635,7.9518,7.9548,7.9549,7.9581,7.958,7.9486,7.94,7.9405,7.956,7.9667,7.9784,7.9773,7.968,7.97,7.9744,7.9834,7.9938,8.0131,8.033,8.0333,8.0356,8.0155,7.99,7.9671,7.9645,7.9486,7.9314,7.9211,7.9192,7.9189,7.9265,7.9227,7.905,7.9098,7.9126,7.8959,7.8168,7.6499,7.5662,7.6476,7.917,8.2915,8.767,9.1897,9.4479,9.3287,8.8268,8.1787,7.9888,7.949,7.9151,7.929,7.8835,7.922,7.9322,7.9656,7.9604,7.9468,7.9331,7.9509,7.9351,7.9537,7.9488,7.9647,7.9601,7.9703,7.9704,7.9705,7.9746,7.9896,7.9955,8,8.001,8.0054,8,8.0119,8.0195,8.0257,8.0279,8.0348,8.0521,8.0634,8.0804,8.0882,8.104,8.1243,8.1392,8.1517,8.1622,8.1843,8.1955,8.2218,8.2519,8.2583,8.2762,8.2945,8.3219,8.3347,8.3519,8.376,8.3894,8.4233,8.4407,8.4329,8.4275,8.4151,8.3999,8.3715,8.3244,8.2725,8.2455,8.2156,8.1722,8.1107,8.0626,8.018,7.9962,7.9655,7.9576,7.9274,7.9104,7.903,7.9077,7.8864,7.8772,7.8722,7.8787,7.8803,7.873,7.8694,7.8708,7.8758,7.8869,7.8915,7.8799,7.8701,7.8636,7.863,7.8737,7.8787,7.8772,7.8798,7.8873,7.8887,7.8783,7.8758,7.8735,7.8843,7.878,7.8772,7.8731,7.8703,7.877,7.8781,7.8857,7.8826,7.8722,7.8616,7.864,7.8592,7.8548,7.8644,7.8639,7.8635,7.8588,7.8534,7.8568,7.8531,7.8681,7.8612,7.8528,7.8519,7.8544,7.8634,7.8718,7.8662,7.8595,7.8692,7.8793,7.888,7.8989,7.8911,7.9177,7.938,7.9556,7.9523,7.946,7.9378,7.9319,7.9174,7.8815,7.8578,7.8412,7.8379,7.8426,7.8358,7.8379,7.8383,7.8371,7.8422,7.8366,7.8262,7.7532,7.5781,7.4802,7.5381,7.7801,8.1597,8.6168,8.8578,9.1559,9.3443,9.0339,8.467,7.9571,7.8844,7.8297,7.8258,7.8068,7.8276,7.864,7.8738,7.8767,7.8747,7.8845,7.883,7.8835,7.886,7.8881,7.8927,7.9026,7.9125,7.908,7.9173,7.9247,7.9276,7.9279,7.9314,7.9403,7.9465,7.955,7.9705,7.977,7.9868,7.9986,7.9979,8.0026,8.0124,8.0162,8.0208,8.0415,8.0636,8.0824,8.0895,8.1116,8.1366,8.1574,8.1643,8.1846,8.2094,8.2467,8.2677,8.2803,8.303,8.3248,8.3547,8.3843,8.3863,8.3864,8.386,8.3945,8.399,8.3803,8.3503,8.3208,8.2737,8.2257,8.1657,8.1153,8.0727,8.0478,8.0095,7.9762,7.9402,7.9239,7.9153,7.8998,7.9044,7.8991,7.882,7.8691,7.8736,7.8687,7.871,7.8716,7.8695,7.8732,7.8715,7.8616,7.8572,7.8656,7.8649,7.8717,7.8694,7.862,7.8658,7.8761,7.8857,7.877,7.8706,7.8711,7.8683,7.8845,7.897,7.8874,7.8897,7.8751,7.8821,7.8773,7.8734,7.8664,7.8758,7.8729,7.8653,7.8702,7.8678,7.8641,7.8656,7.8686,7.8684,7.8603,7.8646,7.8653,7.8627,7.8611,7.8612,7.8627,7.8605,7.8631,7.8497,7.8497,7.8579,7.8661,7.8655,7.8683,7.8838,7.8826,7.8864,7.8908,7.9046,7.8978,7.912,7.9242,7.947,7.9548,7.961,7.9513,7.9345,7.9169,7.8929,7.875,7.8528,7.8538,7.8644,7.8615,7.8528,7.8426,7.8417,7.847,7.8472,7.8369,7.8024,7.6666,7.5322,7.5173,7.6513,7.9995,8.4159,8.921,9.2464,9.4222,9.1244,8.5274,8.0318,7.9177,7.8881,7.8655,7.8618,7.8594,7.9075,7.9069,7.9226,7.8936,7.8976,7.8853,7.9012,7.8873,7.9063,7.9025,7.9191,7.907,7.9208,7.921,7.9398,7.9373,7.9501,7.9434,7.9518,7.9474,7.9578,7.966,7.9745,7.9786,7.9917,7.9972,8.0053,8.007,8.0226,8.041,8.0598,8.0778,8.0923,8.0962,8.1114,8.1352,8.1608,8.1815,8.191,8.207,8.2302,8.2532,8.2836,8.3007,8.313,8.3426,8.3738,8.3851,8.399,8.4033,8.4133,8.4159,8.399,8.3669,8.3261,8.2967,8.259,8.233,8.1839,8.1367,8.0908,8.0671,8.0329,7.9931,7.9659,7.9529,7.9432,7.9392,7.9151,7.8979,7.9017,7.9086,7.905,7.8939,7.899,7.9048,7.9013,7.9065,7.8962,7.8973,7.9015,7.9115,7.9097,7.9133,7.9058,7.9088,7.9088,7.9174,7.9223,7.9215,7.9174,7.9237,7.9273,7.9235,7.9173,7.9215,7.9169,7.9167,7.9195,7.9228,7.9124,7.9135,7.9184,7.9165,7.9075,7.8956,7.8917,7.9024,7.9058,7.9013,7.8904,7.8809,7.8925,7.8987,7.8937,7.8929,7.8901,7.8905,7.8979,7.8942,7.8874,7.8902,7.8893,7.8801,7.8758,7.8794,7.8805,7.8885,7.8915,7.893,7.8867,7.893,7.8966,7.9102,7.9159,7.9206,7.9131,7.9327,7.9588,7.9791,7.9764,7.9773,7.9719,7.9667,7.9464,7.9161,7.8954,7.8829,7.8811,7.8846,7.8795,7.8792,7.8781,7.8813,7.8866,7.8876,7.8749,7.8415,7.7077,7.5628,7.5338,7.6547,8.0023,8.4243,8.9526,9.3216,9.5346,9.2839,8.688,8.1415,7.9969,7.959,7.9094,7.914,7.924,7.96,7.9435,7.9554,7.9257,7.9487,7.9373,7.9488,7.9255,7.9346,7.9329,7.9678,7.9616,7.9641,7.9551,7.9779,7.9729,7.9901,7.9837,8.0028,8.0077,8.0126,8.002,8.018,8.0191,8.0348,8.0557,8.0631,8.0666,8.0803,8.0963,8.1205,8.1336,8.149,8.1606,8.1754,8.1993,8.2131,8.2305,8.2503,8.2763,8.2962,8.3323,8.3543,8.3698,8.3855,8.4097,8.4355,8.4469,8.4503,8.4707,8.4793,8.4802,8.4628,8.4396,8.3947,8.3563,8.3034,8.259,8.1991,8.1616,8.1396,8.1184,8.091,8.0601,8.0215,8.0143,7.9941,7.9835,7.9659,7.9553,7.9459,7.9587,7.9495,7.9456,7.9445,7.9563,7.9525,7.9526,7.9427,7.9501,7.9462,7.9444,7.9493,7.9629,7.9576,7.9665,7.9622,7.964,7.9637,7.9661,7.9558,7.9703,7.9741,7.9716,7.97,7.9753,7.9866,7.9868,7.9795,7.9832,7.9798,7.9785,7.9808,7.9956,7.9823,7.9854,7.9831,7.9907,7.9835,7.989,7.9667,7.9734,7.9711,7.9799,7.9793,7.9751,7.9743,7.9758,7.9758,7.9777,7.9836,7.9888,7.9875,7.9808,7.9761,7.977,7.983,7.9892,7.9895,7.9808,7.9774,7.9848,7.99,7.9914,7.9955,7.9862,7.9854,7.9889,8.0013,8.0042,8.0046,8.0197,8.0212,8.0272,8.027,8.0246,8.0499,8.0586,8.09,8.0929,8.0878,8.0843,8.0738,8.0499,8.0233,8.0091,8.0017,7.9985,8.0075,7.997,7.9887,7.9881,7.9916,7.9941,7.9976,7.9818,7.927,7.7582,7.6576,7.6892,7.8869,8.2794,8.735,9.2597,9.5718,9.6583,9.288,8.6184,8.2345,8.1681,8.1258,8.0757,8.0471,8.0479,8.0912,8.0793,8.0867,8.0622,8.0719,8.0703,8.0679,8.0515,8.0701,8.0604,8.0856,8.0926,8.0985,8.0905,8.1042,8.099,8.1133,8.1069,8.1172,8.1246,8.1447,8.1484,8.1512,8.1542,8.1647,8.1829,8.1991,8.1949,8.22,8.2307,8.2533,8.2755,8.2809,8.2848,8.2955,8.3161,8.3464,8.361,8.3785,8.4026,8.4328,8.4584,8.4851,8.5014,8.5295,8.5511,8.5713,8.5921,8.6074,8.6123,8.6191,8.6205,8.5965,8.5508,8.5355,8.4996,8.4532,8.4077,8.3545,8.3094,8.2628,8.2302,8.1987,8.167,8.1402,8.1268,8.1217,8.1148,8.0991,8.0944,8.0868,8.0834,8.0787,8.0682,8.0693,8.0784,8.0673,8.0757,8.0702,8.0667,8.0649,8.0803,8.0782,8.088,8.0812,8.0844,8.0782,8.0859,8.0917,8.0862,8.0861,8.0892,8.0847,8.0883,8.0874,8.0897,8.0883,8.1066,8.1168,8.1105,8.0901,8.0848,8.0902,8.0887,8.0897,8.0916,8.0953,8.0988,8.1029,8.1027,8.0941,8.0925,8.0892,8.0848,8.0806,8.084,8.0881,8.0922,8.0984,8.0975,8.0837,8.0973,8.0848,8.0887,8.0797,8.0802,8.0769,8.0875,8.0914,8.0917,8.0863,8.0804,8.08,8.0771,8.0868,8.0906,8.0911,8.0897,8.098,8.1032,8.089,8.0896,8.0781,8.0762,8.0836,8.0886,8.0877,8.0879,8.0925,8.1003,8.1023,8.0968,8.1042,8.1103,8.1142,8.1173,8.1192,8.1266,8.1554,8.1747,8.1819,8.1804,8.1774,8.1749,8.15,8.1273,8.0994,8.078,8.079,8.09,8.0924,8.0781,8.0686,8.0754,8.0761,8.0734,8.0648,8.0292,7.8873,7.7681,7.7599,7.9077,8.2513,8.6722,9.1838,9.5192,9.6757,9.3901,8.7941,8.2893,8.1742,8.1376,8.0938,8.0869,8.0832,8.1173,8.1251,8.1348,8.1032,8.1152,8.1087,8.1269,8.1015,8.1101,8.1102,8.1325,8.1246,8.1301,8.1204,8.1435,8.1449,8.1692,8.151,8.1521,8.1531,8.166,8.1781,8.1906,8.1887,8.1963,8.2049,8.2266,8.2367,8.2481,8.2505,8.2711,8.2892,8.2961,8.3098,8.3343,8.3606,8.3764,8.3854,8.4009,8.4233,8.4437,8.4845,8.5105,8.5316,8.5467,8.5715,8.593,8.6042,8.6099,8.6214,8.6233,8.631,8.6137,8.5927,8.5542,8.5206,8.4669,8.4399,8.3938,8.338,8.2936,8.2485,8.2185,8.1863,8.1572,8.1427,8.1215,8.1212,8.1001,8.086,8.0719,8.0717,8.0624,8.0584,8.0569,8.0572,8.0515,8.0597,8.0499,8.0512,8.0435,8.0552,8.0697,8.0749,8.0591,8.056,8.0472,8.0589,8.0556,8.06,8.0559,8.0622,8.0716,8.0652,8.0625,8.0653,8.0614,8.0708,8.077,8.075,8.0594,8.055,8.0591,8.0742,8.0563,8.0548,8.0451,8.0539,8.0572,8.0495,8.0379,8.0449,8.0516,8.049,8.0434,8.0428,8.0427,8.0425,8.0383,8.0292,8.0199,8.0236,8.0247,8.0367,8.0304,8.022,8.0171,8.0293,8.0296,8.0365,8.0221,8.0062,8.0124,8.0144,8.0201,8.015,8.0195,8.0079,8.0108,8.0154,8.0197,8.0001,8.0181,8.0303,8.0368,8.0408,8.0445,8.0479,8.0442,8.0662,8.0864,8.0833,8.0925,8.092,8.1066,8.0947,8.0876,8.0505,8.0312,8.0241,8.0103,8.0052,8.0062,8.0089,8.0131,8.0057,7.9979,7.9949,7.9939,7.9592,7.8307,7.6997,7.6829,7.8486,8.2041,8.5965,8.8398,9.2109,9.4535,9.3567,8.8975,8.2849,8.0943,8.025,8.0127,8.0119,7.9979,8.016,8.0387,8.053,8.0632,8.0516,8.0585,8.0506,8.0641,8.0703,8.076,8.0837,8.0886,8.0906,8.1089,8.1106,8.1148,8.1092,8.1112,8.1172,8.1346,8.1332,8.135,8.139,8.1557,8.1618,8.1682,8.1806,8.1978,8.2065,8.2169,8.2179,8.223,8.2442,8.2754,8.2988,8.3176,8.3371,8.3536,8.3729,8.4122,8.4365,8.459,8.4807,8.5113,8.5415,8.5605,8.5776,8.5854,8.5954,8.6092,8.6195,8.6095,8.5979,8.5686,8.5393,8.4952,8.4361,8.3846,8.3408,8.2921,8.2572,8.228,8.1778,8.143,8.129,8.1067,8.0949,8.0807,8.0691,8.0593,8.0676,8.0598,8.0523,8.0457,8.0517,8.0432,8.0454,8.0455,8.0493,8.046,8.0535,8.041,8.0452,8.04,8.0484,8.0542,8.0597,8.0559,8.0582,8.06,8.066,8.068,8.0654,8.0546,8.062,8.0671,8.0693,8.0623,8.0632,8.0725,8.0869,8.0797,8.076,8.0704,8.0748,8.081,8.0852,8.077,8.0724,8.0626,8.0709,8.0765,8.0708,8.0533,8.0594,8.0628,8.0616,8.0561,8.0553,8.0575,8.0564,8.0553,8.0622,8.0539,8.042,8.0542,8.0691,8.0699,8.0585,8.06,8.0487,8.052,8.052,8.0528,8.0565,8.0499,8.0487,8.0591,8.0526,8.061,8.0592,8.0622,8.0548,8.0468,8.0447,8.0503,8.0569,8.0703,8.0648,8.0657,8.0751,8.0754,8.0838,8.0906,8.0786,8.1008,8.1288,8.141,8.1431,8.1374,8.1304,8.1373,8.1107,8.0847,8.0659,8.0633,8.0599,8.0568,8.0519,8.039,8.0333,8.0365,8.0482,8.048,8.0359,7.9878,7.8169,7.7073,7.7422,7.9168,8.2878,8.7077,9.2033,9.4813,9.575,9.234,8.6225,8.3361,8.1821,8.1134,8.0858,8.0569,8.0611,8.0833,8.106,8.1008,8.0894,8.0952,8.0985,8.0952,8.089,8.0881,8.089,8.1063,8.1006,8.1032,8.1116,8.1158,8.1211,8.1337,8.1246,8.1317,8.1437,8.1595,8.169,8.1644,8.1617,8.1744,8.1923,8.1972,8.2022,8.2099,8.2266,8.2482,8.2641,8.2819,8.283,8.3055,8.3279,8.358,8.3732,8.3928,8.4149,8.4428,8.4747,8.4974,8.5188,8.5439,8.5633,8.595,8.6172,8.6219,8.6314,8.6414,8.64,8.623,8.6042,8.5625,8.5214,8.4775,8.4343,8.3763,8.3307,8.2966,8.2534,8.2288,8.1982,8.162,8.1433,8.1337,8.1193,8.1078,8.0973,8.0884,8.0961,8.0902,8.0929,8.0905,8.0928,8.0879,8.0882,8.0748,8.0766,8.0751,8.0793,8.0907,8.0906,8.091,8.0901,8.1023,8.1046,8.1029,8.0941,8.1057,8.1174,8.129,8.129,8.1287,8.1162,8.1206,8.1208,8.1177,8.1188,8.1046,8.1055,8.1167,8.1412,8.1363,8.1291,8.1275,8.1361,8.1251,8.1134,8.0996,8.104,8.1111,8.1097,8.1075,8.0961,8.1039,8.1089,8.1099,8.096,8.0901,8.0912,8.0863,8.0953,8.089,8.0805,8.0817,8.0846,8.0854,8.087,8.0815,8.076,8.0801,8.0832,8.0822,8.0775,8.0751,8.08,8.0807,8.0734,8.0651,8.0644,8.0662,8.0641,8.0661,8.0637,8.0635,8.0681,8.0672,8.0691,8.0585,8.0507,8.0554,8.0641,8.0665,8.0736,8.0751,8.0839,8.0824,8.0973,8.089,8.1041,8.1283,8.1434,8.1524,8.1447,8.1342,8.1165,8.0929,8.0607,8.0501,8.0421,8.0365,8.0387,8.0443,8.0429,8.0275,8.0276,8.0328,8.0332,8.0197,7.9278,7.753,7.6831,7.7563,8.0201,8.4299,8.9133,9.3941,9.6717,9.635,9.2003,8.8547,8.3327,8.1704,8.1551,8.092,8.0837,8.0773,8.1137,8.0844,8.0885,8.062,8.0795,8.0688,8.0916,8.077,8.0815,8.0744,8.1001,8.0934,8.1087,8.0992,8.0948,8.0917,8.1125,8.1076,8.1234,8.1129,8.1367,8.1469,8.1654,8.1597,8.1691,8.1726,8.1885,8.1948,8.2081,8.2066,8.2297,8.2411,8.2542,8.2728,8.2902,8.3022,8.3339,8.357,8.3757,8.403,8.4286,8.456,8.4915,8.5147,8.5378,8.5528,8.5785,8.594,8.6036,8.6163,8.614,8.6154,8.6009,8.5837,8.5426,8.489,8.4348,8.391,8.332,8.2757,8.22,8.1913,8.1677,8.1409,8.1129,8.0999,8.0832,8.0705,8.0617,8.0441,8.0316,8.035,8.0338,8.0424,8.026,8.0235,8.0201,8.0258,8.0168,8.0157,8.0068,8.0152,8.0143,8.0246,8.0194,8.0194,8.0132,8.0174,8.0242,8.0262,8.0245,8.0347,8.03,8.0359,8.0336,8.0312,8.0304,8.0334,8.034,8.044,8.0305,8.0268,8.0282,8.0495,8.0481,8.0351,8.023,8.03,8.0336,8.0434,8.0342,8.0356,8.0304,8.0284,8.026,8.031,8.0184,8.0184,8.0247,8.0268,8.0252,8.0193,8.0173,8.0205,8.0281,8.0264,8.0124,8.0117,8.016,8.0248,8.0247,8.0238,8.0288,8.0222,8.0252,8.0149,8.024,8.0106,8.0079,8.0125,8.0144,8.014,8.0052,8.0108,8.0114,8.0178,8.0257,8.0219,8.015,8.0119,8.0138,8.0088,7.9973,7.9962,8.0056,8.0171,8.0176,8.0039,7.9991,8.003,8.0018,7.9915,8.0006,8.004,8.0228,8.0287,8.0339,8.0243,8.0254,8.0264,8.0714,8.0802,8.0871,8.0844,8.0878,8.096,8.0784,8.0491,8.0293,8.0144,8.0047,8.0013,7.9923,7.9956,7.9912,7.995,7.9929,7.9851,7.9864,7.9656,7.9223,7.7619,7.6544,7.6869,7.8963,8.2919,8.7516,9.2663,9.5535,9.6117,9.2531,8.5998,8.224,8.1173,8.0866,8.0343,8.0384,8.0478,8.065,8.0591,8.057,8.0484,8.0509,8.0434,8.0345,8.0387,8.0455,8.0536,8.0524,8.0474,8.0627,8.0715,8.0778,8.0791,8.073,8.0817,8.095,8.1027,8.101,8.1045,8.1022,8.1074,8.1275,8.1405,8.1418,8.1549,8.1678,8.1923,8.1941,8.2064,8.2278,8.2522,8.2658,8.2801,8.2954,8.3215,8.349,8.3797,8.4088,8.4279,8.4446,8.4704,8.5059,8.5321,8.5484,8.5669,8.5921,8.5997,8.6081,8.599,8.5779,8.552,8.5228,8.4722,8.4129,8.3572,8.3008,8.2623,8.2118,8.1921,8.158,8.1281,8.1118,8.0931,8.0679,8.0455,8.0356,8.0322,8.0286,8.019,8.0185,8.0097,8.0084,8.0136,7.9984,7.9856,7.9805,7.9839,7.9953,7.9954,7.9882,7.9815,7.9901,7.9892,7.9879,7.9776,7.976,7.9745,7.9836,8.0013,8.0003,7.9941,7.9832,7.9941,8.0056,8.0017,7.9898,7.9949,7.9985,7.9997,8.0003,7.9982,7.9968,7.9978,7.9957,7.9877,7.9927,7.9925,7.9895,8.0008,7.9856,7.9695,7.963,7.9701,7.9852,7.9837,7.9768,7.9648,7.9641,7.9612,7.9718,7.9676,7.9655,7.959,7.9644,7.9729,7.9677,7.9701,7.961,7.9653,7.9624,7.9645,7.9638,7.9619,7.9671,7.9662,7.9669,7.9599,7.9543,7.9545,7.9602,7.9664,7.9625,7.956,7.9556,7.9565,7.9604,7.9593,7.9524,7.9529,7.9544,7.956,7.9546,7.9528,7.9516,7.9568,7.9575,7.9453,7.9428,7.9511,7.9563,7.9554,7.9565,7.9583,7.9674,7.9882,7.9911,7.9801,7.9793,8.0022,8.0279,8.0338,8.0112,8.01,8.0091,8.0017,7.9861,7.9604,7.9512,7.9423,7.9327,7.9417,7.9348,7.9242,7.9298,7.9271,7.9331,7.9209,7.8886,7.7952,7.6388,7.5897,7.6862,7.9834,8.3655,8.8302,9.2165,9.4372,9.4317,9.0812,8.5079,8.1048,8.0086,7.9582,7.9397,7.9092,7.9457,7.9581,7.9571,7.9646,7.9578,7.9538,7.9578,7.9494,7.949,7.9499,7.9636,7.9772,7.9772,7.9787,7.9826,7.9931,8.0026,8.0148,8.0104,8.0058,8.0109,8.0222,8.0225,8.026,8.0384,8.0582,8.0631,8.0737,8.0832,8.0898,8.1111,8.1236,8.1353,8.1492,8.1591,8.1785,8.2094,8.2268,8.2522,8.2769,8.3075,8.3318,8.3619,8.3936,8.4201,8.4543,8.4758,8.4897,8.5019,8.5202,8.5287,8.5346,8.5422,8.5299,8.4975,8.4496,8.4016,8.3482,8.2937,8.2338,8.185,8.1448,8.1125,8.0726,8.0425,8.0194,7.9986,7.9909,7.9728,7.959,7.9463,7.9432,7.9426,7.9415,7.9311,7.9249,7.9206,7.9309,7.9302,7.9189,7.9191,7.918,7.9241,7.9207,7.9174,7.9133,7.9226,7.9329,7.9382,7.9362,7.9344,7.9344,7.927,7.9441,7.9374,7.926,7.9321,7.9395,7.9408,7.9432,7.9445,7.9422,7.9486,7.9547,7.9453,7.9378,7.9271,7.9356,7.9371,7.9437,7.9401,7.938,7.9341,7.93,7.9422,7.9391,7.9319,7.9226,7.9289,7.9268,7.9267,7.9103,7.9169,7.9082,7.9093,7.9135,7.9099,7.9152,7.9117,7.914,7.9177,7.9126,7.9099,7.9167,7.9278,7.9183,7.9085,7.9194,7.9079,7.9096,7.9084,7.9069,7.9005,7.9026,7.9019,7.9142,7.9103,7.8938,7.9007,7.9034,7.9093,7.9024,7.8914,7.8998,7.9155,7.9102,7.904,7.8964,7.8981,7.8992,7.9086,7.9025,7.896,7.8913,7.8933,7.8943,7.9043,7.909,7.9122,7.9209,7.9201,7.9376,7.9287,7.9267,7.9627,7.9901,7.9783,7.9652,7.9661,7.957,7.9553,7.9375,7.9149,7.9047,7.8877,7.9037,7.8992,7.8903,7.8932,7.8848,7.8792,7.8847,7.8844,7.8443,7.7133,7.5766,7.5655,7.6877,8.0441,8.4649,8.997,9.3584,9.5403,9.2801,8.7135,8.1834,8.0245,8.0002,7.9402,7.9277,7.9233,7.9583,7.9516,7.9678,7.93,7.9537,7.9306,7.9508,7.9291,7.9513,7.935,7.9638,7.957,7.9638,7.9536,7.9802,7.9642,7.9759,7.9666,7.977,7.9847,8.0023,8.0017,8.0041,7.9952,8.0128,8.0264,8.0446,8.044,8.0597,8.0675,8.075,8.0945,8.1047,8.133,8.1507,8.1711,8.1958,8.2166,8.2298,8.2461,8.2717,8.3129,8.3424,8.3639,8.3826,8.4058,8.4371,8.463,8.4799,8.5047,8.502,8.5153,8.5092,8.4826,8.4441,8.4043,8.3671,8.3226,8.2873,8.2316,8.1684,8.1394,8.1075,8.0669,8.039,8.0185,7.9815,7.9758,7.953,7.9381,7.929,7.9338,7.931,7.9235,7.9054,7.9038,7.904,7.9102,7.901,7.9009,7.8969,7.9017,7.8911,7.9053,7.8906,7.8959,7.8922,7.9058,7.9058,7.9062,7.8968,7.9053,7.9094,7.9198,7.9168,7.9067,7.9062,7.9141,7.9135,7.9118,7.9141,7.9244,7.9275,7.9316,7.9291,7.9237,7.9234,7.9294,7.9295,7.9243,7.9155,7.9164,7.9144,7.9216,7.9053,7.8998,7.9028,7.9042,7.9077,7.9061,7.8917,7.8896,7.885,7.9039,7.9025,7.9028,7.8946,7.8977,7.8996,7.8955,7.8938,7.8869,7.8897,7.8803,7.8875,7.8852,7.8847,7.8845,7.8878,7.8924,7.8918,7.8842,7.8824,7.8796,7.8897,7.8923,7.8886,7.8835,7.8936,7.8877,7.8865,7.8756,7.8798,7.8815,7.8867,7.8832,7.8807,7.8729,7.8764,7.8762,7.878,7.87,7.8692,7.8715,7.8712,7.8798,7.8765,7.8717,7.8762,7.8818,7.8951,7.8954,7.8868,7.896,7.8993,7.8968,7.9052,7.9216,7.9534,7.9533,7.9358,7.9328,7.9274,7.9211,7.909,7.8935,7.8781,7.87,7.8676,7.8642,7.8653,7.8611,7.8604,7.86,7.8681,7.8709,7.8588,7.7535,7.5759,7.5018,7.5832,7.8488,8.25,8.7428,9.2236,9.508,9.464,9.0551,8.3782,8.0886,8.0135,7.9615,7.9239,7.9027,7.9328,7.936,7.9497,7.9268,7.9303,7.9112,7.9266,7.9062,7.9225,7.9096,7.9222,7.9269,7.9511,7.9516,7.9629,7.9526,7.9644,7.9588,7.9635,7.9657,7.98,7.9909,8.0055,8.0036,8.0079,8.0079,8.0208,8.0353,8.0522,8.055,8.0657,8.0824,8.1084,8.1234,8.125,8.1455,8.1763,8.2002,8.2208,8.2384,8.2663,8.2945,8.318,8.3483,8.3731,8.395,8.4362,8.4542,8.4763,8.4888,8.5076,8.5116,8.508,8.5002,8.4666,8.4266,8.3813,8.3279,8.2795,8.2199,8.1665,8.1313,8.1061,8.0627,8.0292,8.0059,7.9686,7.9587,7.9432,7.9393,7.9326,7.9224,7.9085,7.9131,7.9037,7.9092,7.904,7.9008,7.9078,7.8958,7.8891,7.8955,7.8988,7.8967,7.8937,7.8953,7.8896,7.8868,7.8894,7.9094,7.9009,7.9006,7.893,7.9031,7.907,7.9151,7.9112,7.9114,7.9073,7.9241,7.914,7.9139,7.9139,7.9166,7.9194,7.9248,7.9182,7.9185,7.9091,7.903,7.904,7.9044,7.9065,7.9121,7.9017,7.901,7.8957,7.9016,7.9082,7.9039,7.892,7.8959,7.8952,7.8874,7.8894,7.9076,7.8966,7.8943,7.8892,7.8929,7.8884,7.8923,7.8921,7.8918,7.893,7.9001,7.8894,7.897,7.8862,7.8917,7.8933,7.8922,7.8865,7.8844,7.8761,7.8821,7.8945,7.8817,7.8846,7.8906,7.8951,7.9018,7.9034,7.8852,7.8856,7.9046,7.9172,7.9195,7.917,7.9124,7.9128,7.8969,7.9145,7.9075,7.9209,7.9164,7.9348,7.9248,7.9172,7.9166,7.9339,7.9397,7.9305,7.9303,7.9151,7.9452,7.9442,7.9611,7.9541,7.9788,7.9666,7.9901,8.0027,7.9985,8.0225,8.0211,8.062,8.0584,8.042,8.0443,8.048,8.0473,8.0274,7.9987,7.997,7.9918,7.9977,7.9961,7.9907,7.984,7.9871,7.9898,8.013,8.0077,7.9928,7.8633,7.7292,7.6949,7.7858,8.0802,8.4726,8.9787,9.3901,9.6037,9.4813,8.9945,8.4027,8.1818,8.1282,8.0666,8.0816,8.0513,8.0935,8.1046,8.1028,8.0882,8.0887,8.0823,8.1016,8.0937,8.104,8.1052,8.1175,8.1095,8.1279,8.1167,8.1313,8.146,8.1593,8.1437,8.1531,8.1446,8.1606,8.1769,8.1778,8.1769,8.1868,8.1903,8.2062,8.2079,8.2188,8.2293,8.2414,8.2643,8.2773,8.2815,8.3107,8.3293,8.3345,8.3424,8.3789,8.3977,8.4361,8.4583,8.4843,8.5006,8.5146,8.5405,8.5691,8.5908,8.5974,8.6004,8.6034,8.6234,8.6359,8.6198,8.5853,8.5522,8.5004,8.4836,8.4294,8.3719,8.3093,8.2679,8.2201,8.1703,8.1286,8.0971,8.0677,8.0639,8.0411,8.0195,8.0084,8.0042,8.0058,7.9922,7.9716,7.967,7.9549,7.9601,7.9609,7.9513,7.9467,7.9562,7.9511,7.9546,7.936,7.924,7.9221,7.942,7.943,7.9467,7.9404,7.9394,7.9328,7.9462,7.9349,7.9355,7.9268,7.9281,7.9249,7.9377,7.9333,7.9313,7.9378,7.9379,7.9296,7.9307,7.9211,7.9369,7.9247,7.9285,7.9272,7.9203,7.9223,7.9243,7.9162,7.9168,7.9156,7.9164,7.9301,7.9238,7.9075,7.896,7.8959,7.9024,7.9022,7.8863,7.8947,7.8878,7.8915,7.8935,7.8858,7.8877,7.8908,7.9053,7.8969,7.8861,7.8843,7.8747,7.8857,7.8831,7.883,7.8898,7.8808,7.8811,7.8856,7.884,7.8776,7.8756,7.8789,7.8741,7.8699,7.8632,7.8617,7.8689,7.88,7.8735,7.8687,7.8558,7.8501,7.8728,7.873,7.8638,7.8627,7.8722,7.8696,7.8772,7.8746,7.8709,7.8824,7.8718,7.8705,7.8686,7.8775,7.8686,7.8805,7.8894,7.8924,7.8922,7.8929,7.8819,7.8945,7.9359,7.9509,7.9432,7.9329,7.9417,7.9293,7.8967,7.8835,7.8778,7.8733,7.8642,7.8528,7.8441,7.8424,7.8409,7.8416,7.8352,7.838,7.8383,7.7875,7.6253,7.4999,7.522,7.6908,8.0688,8.5089,9.0417,9.3471,9.4649,9.166,8.5604,8.0984,7.9502,7.9288,7.9076,7.8917,7.8904,7.9112,7.8941,7.9043,7.8811,7.8897,7.8758,7.8958,7.8805,7.8938,7.881,7.8919,7.8816,7.905,7.8998,7.9161,7.9066,7.9111,7.9135,7.9256,7.9255,7.9326,7.9402,7.9507,7.9551,7.9696,7.9648,7.971,7.9816,7.9988,8.013,8.0252,8.0287,8.0536,8.0643,8.0941,8.1013,8.1196,8.1288,8.1555,8.191,8.2235,8.2341,8.2664,8.2932,8.3253,8.3518,8.3755,8.4013,8.4189,8.4366,8.448,8.443,8.4242,8.4148,8.3819,8.3376,8.281,8.2606,8.2078,8.166,8.1069,8.0532,8.005,7.9645,7.9283,7.9146,7.8846,7.8604,7.8407,7.8413,7.8388,7.826,7.8093,7.8076,7.8074,7.8161,7.8165,7.815,7.8035,7.8012,7.7924,7.7891,7.7742,7.7759,7.7867,7.7996,7.7962,7.7975,7.7978,7.7945,7.7931,7.7995,7.796,7.7956,7.8035,7.809,7.8058,7.8061,7.8004,7.8036,7.8043,7.8037,7.7937,7.7892,7.7994,7.8085,7.8123,7.8154,7.8142,7.8061,7.7962,7.801,7.7929,7.7943,7.7907,7.7968,7.7944,7.8016,7.7909,7.7783,7.7902,7.7861,7.7859,7.7923,7.7897,7.799,7.7971,7.7931,7.7755,7.7755,7.7828,7.7915,7.7977,7.7835,7.7762,7.7792,7.7717,7.7746,7.7721,7.773,7.7621,7.7699,7.7747,7.7746,7.7778,7.7749,7.773,7.7698,7.7666,7.7652,7.7647
