3.5287,3.8423,4.2085,4.6878,4.9386,4.5695,4.1538,3.9956,3.9552,3.9446,3.8769,3.9039,3.8935,3.846,3.8155,3.782,3.7732,3.7637,3.7695,3.763,3.7685,3.7635,3.7717,3.77,3.7796,3.7767,3.7862,3.7803,3.788,3.7925,3.7984,3.7976,3.8085,3.8087,3.8197,3.8235,3.8349,3.8364,3.8491,3.8602,3.8658,3.8695,3.8817,3.8934,3.9088,3.9183,3.9326,3.94,3.9539,3.9713,3.9902,4.0071,4.025,4.0464,4.0687,4.0917,4.1124,4.1276,4.1524,4.1781,4.1978,4.2156,4.23,4.2446,4.2517,4.2495,4.2428,4.2267,4.1936,4.1524,4.1077,4.0612,4.011,3.9716,3.935,3.9044,3.8708,3.8496,3.8238,3.814,3.799,3.7925,3.7849,3.7786,3.7746,3.7785,3.7714,3.7702,3.7669,3.7633,3.7627,3.7625,3.7597,3.7579,3.7567,3.7636,3.7551,3.7536,3.7496,3.7533,3.7534,3.7568,3.7524,3.7482,3.7476,3.7551,3.7547,3.7586,3.7557,3.7545,3.7526,3.7542,3.7549,3.756,3.7525,3.7555,3.7586,3.7591,3.7589,3.7591,3.7594,3.7625,3.7584,3.7559,3.756,3.7565,3.7583,3.7529,3.7543,3.7546,3.7561,3.7544,3.7569,3.756,3.7528,3.7551,3.7515,3.7529,3.7527,3.7517,3.7529,3.7567,3.7564,3.7544,3.7529,3.7559,3.7572,3.7571,3.7531,3.7553,3.7506,3.7557,3.7566,3.7561,3.751,3.7488,3.7522,3.7546,3.7517,3.7487,3.7477,3.7467,3.7477,3.7492,3.752,3.746,3.7484,3.7498,3.751,3.7476,3.7506,3.7482,3.7452,3.749,3.7446,3.7485,3.7495,3.7494,3.7472,3.7457,3.7407,3.7414,3.7425,3.7432,3.7465,3.7424,3.7426,3.7456,3.7505,3.7526,3.7475,3.7337,3.7402,3.7732,3.812,3.8155,3.8011,3.7876,3.7795,3.7739,3.7689,3.7591,3.7477,3.741,3.7435,3.737,3.7312,3.7247,3.7263,3.7249,3.7276,3.7217,3.7232,3.7271,3.7187,3.7156,3.7204,3.7226,3.7245,3.723,3.7249,3.7217,3.7207,3.7227,3.6847,3.5334,3.4104,3.4495,3.6825,4.048,4.4398,4.8964,4.794,4.2588,4.0232,3.957,3.9311,3.8948,3.8841,3.8969,3.8675,3.8176,3.7877,3.7691,3.7615,3.7587,3.7581,3.7588,3.7606,3.7608,3.771,3.7687,3.7692,3.7716,3.78,3.7841,3.7878,3.7887,3.795,3.7994,3.8099,3.8137,3.8189,3.8234,3.8315,3.8396,3.8492,3.8527,3.8634,3.8711,3.8847,3.8917,3.9045,3.9166,3.9346,3.9459,3.9545,3.9687,3.9843,4.0036,4.0214,4.0439,4.0651,4.0864,4.1071,4.1292,4.1507,4.1717,4.1883,4.2107,4.2262,4.2368,4.2382,4.2342,4.2228,4.2102,4.1806,4.1397,4.0929,4.0507,4.0102,3.9716,3.9287,3.894,3.8618,3.8417,3.8231,3.807,3.7935,3.7847,3.7818,3.7741,3.7692,3.7614,3.7573,3.7605,3.7577,3.76,3.7536,3.7518,3.7507,3.7514,3.7515,3.7468,3.7425,3.7477,3.7467,3.7479,3.748,3.7451,3.7419,3.7484,3.7473,3.749,3.7434,3.7459,3.7466,3.7495,3.7479,3.7491,3.7483,3.7503,3.7498,3.7515,3.7515,3.7521,3.753,3.7511,3.7487,3.7486,3.7473,3.7516,3.7488,3.7468,3.7459,3.7411,3.7399,3.741,3.7436,3.7438,3.7334,3.7341,3.7395,3.7392,3.7372,3.7329,3.7349,3.739,3.7351,3.7356,3.7334,3.7338,3.7358,3.7377,3.7393,3.7372,3.7332,3.7344,3.7381,3.7354,3.7307,3.7334,3.7333,3.7316,3.7329,3.7319,3.7312,3.7345,3.7307,3.7323,3.7305,3.7281,3.7298,3.7307,3.7349,3.7293,3.7311,3.7316,3.7331,3.7303,3.7312,3.7251,3.7325,3.7329,3.7313,3.7297,3.7311,3.7302,3.7299,3.7282,3.7301,3.7267,3.7305,3.7317,3.7323,3.735,3.734,3.7335,3.7339,3.7392,3.7393,3.7351,3.7273,3.7359,3.774,3.8046,3.8041,3.7899,3.7893,3.7791,3.7715,3.7624,3.7526,3.7412,3.733,3.7324,3.7277,3.7229,3.7215,3.7247,3.7233,3.7184,3.7177,3.7186,3.7169,3.7171,3.7148,3.7111,3.7106,3.716,3.7162,3.7135,3.7154,3.7134,3.7087,3.6294,3.4681,3.3978,3.5198,3.8268,4.185,4.6284,4.8988,4.5567,4.1214,3.9566,3.9361,3.9119,3.8584,3.8895,3.88,3.8467,3.8072,3.7782,3.7651,3.7632,3.7623,3.7554,3.7556,3.7556,3.7578,3.7619,3.7667,3.7623,3.7679,3.772,3.7788,3.7816,3.7832,3.7834,3.7932,3.7989,3.8083,3.8086,3.8171,3.824,3.834,3.8416,3.8477,3.854,3.8676,3.8801,3.8882,3.8983,3.9081,3.9212,3.9326,3.9508,3.9644,3.9827,4.001,4.0185,4.0441,4.0602,4.0798,4.105,4.1312,4.1477,4.1697,4.1884,4.2076,4.2211,4.2317,4.2356,4.2289,4.2169,4.1936,4.1681,4.1198,4.0712,4.024,3.9929,3.9465,3.9181,3.8823,3.852,3.8307,3.8167,3.7996,3.7845,3.7785,3.7719,3.7721,3.7656,3.7588,3.7537,3.7485,3.7499,3.7469,3.7436,3.7412,3.7458,3.748,3.7433,3.7412,3.7387,3.7391,3.7388,3.7401,3.7406,3.739,3.7401,3.7409,3.7386,3.7401,3.7437,3.746,3.7467,3.7459,3.734,3.7404,3.7447,3.7508,3.7486,3.7422,3.7384,3.745,3.7477,3.7492,3.7478,3.7387,3.7443,3.7503,3.7442,3.7389,3.7399,3.7346,3.7484,3.7497,3.7386,3.7382,3.7291,3.7355,3.7304,3.7334,3.7342,3.7278,3.726,3.7298,3.7315,3.7304,3.7262,3.7213,3.7207,3.7258,3.7253,3.7333,3.7279,3.7242,3.724,3.7186,3.7191,3.7171,3.7218,3.7152,3.7174,3.7108,3.698,3.7076,3.7216,3.7166,3.7055,3.7036,3.7046,3.7073,3.699,3.7016,3.708,3.7031,3.707,3.7088,3.7274,3.7678,3.7749,3.7778,3.7779,3.772,3.7795,3.782,3.7871,3.7887,3.7879,3.773,3.7874,3.8275,3.8739,3.8787,3.8671,3.8645,3.8634,3.8558,3.8514,3.8441,3.8241,3.8231,3.8272,3.8209,3.8123,3.7911,3.7948,3.7855,3.7816,3.7817,3.7862,3.7896,3.8001,3.8033,3.8089,3.8076,3.8038,3.7928,3.7823,3.7742,3.7634,3.6863,3.6055,3.4774,3.487,3.7045,4.0675,4.4513,4.9149,4.8971,4.3632,4.1296,4.0344,4.0002,3.9163,3.9281,3.912,3.8685,3.8256,3.7957,3.7731,3.7647,3.7625,3.7584,3.7595,3.7562,3.7615,3.7588,3.7553,3.7575,3.7698,3.7631,3.7606,3.7667,3.7781,3.781,3.7871,3.8023,3.8145,3.8202,3.8256,3.812,3.8306,3.8253,3.837,3.844,3.8476,3.8614,3.8739,3.8765,3.89,3.9066,3.9162,3.9351,3.9546,3.965,3.9787,3.9967,4.0172,4.0307,4.055,4.0699,4.096,4.1223,4.1405,4.1577,4.1747,4.1856,4.1989,4.2094,4.2086,4.1865,4.1508,4.1209,4.0806,4.0388,3.9808,3.9457,3.9234,3.8935,3.8617,3.8284,3.798,3.7825,3.7697,3.7547,3.7372,3.7358,3.7283,3.7276,3.7191,3.7185,3.7103,3.7076,3.7108,3.7076,3.704,3.7067,3.6916,3.6988,3.6985,3.6934,3.6902,3.6952,3.6946,3.7009,3.699,3.6948,3.6915,3.6781,3.6844,3.6937,3.7009,3.6947,3.7023,3.7068,3.6989,3.6872,3.6871,3.692,3.6945,3.6984,3.7068,3.7072,3.7,3.6979,3.6948,3.7095,3.7154,3.7085,3.7036,3.706,3.7025,3.7096,3.7083,3.7123,3.704,3.7013,3.7099,3.714,3.7204,3.7242,3.7252,3.7146,3.7228,3.7277,3.7315,3.7374,3.7414,3.7571,3.7598,3.7666,3.7691,3.7836,3.7899,3.7875,3.7998,3.795,3.7843,3.7846,3.7834,3.791,3.7962,3.7876,3.785,3.7829,3.791,3.7859,3.7809,3.774,3.7667,3.7722,3.8084,3.837,3.847,3.8362,3.8388,3.8327,3.8144,3.8006,3.7967,3.8054,3.8111,3.8168,3.8131,3.8083,3.812,3.8178,3.8427,3.8467,3.8316,3.8165,3.8034,3.8013,3.7964,3.8046,3.8223,3.7996,3.7923,3.7973,3.7853,3.7775,3.7211,3.6064,3.5152,3.5972,3.9047,4.2247,4.5063,4.7448,4.4017,3.7988,3.6385,3.5446,3.6225,3.7787,3.8837,3.9449,3.9373,3.9336,3.9036,3.9185,3.9183,3.9196,3.8769,3.8606,3.8343,3.8297,3.8545,3.9072,3.9094,3.9091,3.915,3.9191,3.9137,3.9068,3.8929,3.8862,3.886,3.8638,3.8589,3.8678,3.8723,3.8802,3.8938,3.8942,3.9182,3.9416,3.9315,3.8959,3.8786,3.8615,3.8598,3.8697,3.8886,3.9085,3.9276,3.9368,3.9731,4.0093,4.026,4.0426,4.0715,4.1018,4.1118,4.1377,4.1642,4.1791,4.1991,4.1994,4.2299,4.3286,4.3183,4.2802,4.2117,4.0639,3.9883,3.963,3.9507,3.9149,3.8846,3.8541,3.8227,3.7913,3.772,3.766,3.7552,3.7408,3.7379,3.733,3.7326,3.7288,3.7263,3.7182,3.7123,3.7132,3.7267,3.7265,3.7161,3.7231,3.7151,3.7144,3.7257,3.7279,3.7241,3.7191,3.7263,3.7194,3.7235,3.7342,3.7341,3.7306,3.7268,3.7275,3.7409,3.7335,3.7333,3.738,3.7298,3.7299,3.7383,3.7353,3.7338,3.7249,3.7321,3.7552,3.7723,3.7767,3.7739,3.7669,3.7507,3.741,3.7333,3.7401,3.7236,3.7197,3.7168,3.7196,3.7187,3.7169,3.7179,3.7192,3.7176,3.7156,3.7179,3.7193,3.7251,3.7209,3.7151,3.7154,3.7159,3.7193,3.7306,3.7339,3.7295,3.7305,3.7315,3.7153,3.7319,3.7777,3.7859,3.7721,3.7668,3.7463,3.7458,3.7481,3.7439,3.7392,3.7195,3.7192,3.7123,3.7074,3.7054,3.7037,3.7046,3.7009,3.698,3.6987,3.7038,3.7067,3.6969,3.6988,3.6989,3.7018,3.6973,3.6992,3.6971,3.6963,3.6823,3.583,3.4532,3.4462,3.6217,3.9501,4.2942,4.7554,4.8746,4.4202,4.0537,3.9036,3.8365,3.7914,3.7699,3.8235,3.8151,3.787,3.7637,3.7527,3.7472,3.7492,3.7463,3.7372,3.7434,3.7427,3.7452,3.7499,3.7515,3.7559,3.758,3.7615,3.7679,3.7651,3.7723,3.7746,3.7874,3.7791,3.7895,3.8008,3.8052,3.8163,3.8196,3.8177,3.8365,3.8408,3.8508,3.8565,3.8668,3.8825,3.8926,3.9036,3.9128,3.9314,3.9448,3.9632,3.9776,3.9919,4.008,4.0307,4.0616,4.0792,4.0872,4.103,4.1251,4.1428,4.1532,4.1647,4.1668,4.1617,4.1496,4.1418,4.1166,4.0673,4.0237,3.9899,3.9475,3.9101,3.8741,3.845,3.8174,3.8041,3.7895,3.7725,3.759,3.7545,3.7496,3.7477,3.7518,3.7418,3.7422,3.7398,3.7409,3.7348,3.7409,3.7353,3.7349,3.7417,3.7399,3.7354,3.736,3.7339,3.7409,3.7444,3.738,3.7362,3.7365,3.7349,3.737,3.7391,3.7397,3.7326,3.7301,3.7326,3.7355,3.7358,3.7334,3.7347,3.7506,3.7434,3.7325,3.7375,3.7394,3.7393,3.7352,3.7387,3.7313,3.7365,3.7385,3.7262,3.7253,3.7227,3.7313,3.7246,3.7192,3.7161,3.722,3.7296,3.7187,3.7072,3.6978,3.7014,3.7118,3.709,3.7081,3.7168,3.7417,3.75,3.745,3.7405,3.7205,3.7028,3.7358,3.7926,3.8079,3.797,3.7893,3.7914,3.7752,3.7739,3.7699,3.7595,3.7476,3.7535,3.7455,3.7475,3.7408,3.745,3.7572,3.7487,3.744,3.7447,3.7411,3.7424,3.7492,3.7666,3.7447,3.7223,3.7281,3.7385,3.7349,3.7278,3.666,3.5396,3.4908,3.5336,3.7319,4.0878,4.4515,4.8854,4.8372,4.3323,4.0164,3.9183,3.8556,3.8092,3.8619,3.8436,3.8215,3.8146,3.821,3.8023,3.7724,3.7727,3.7788,3.7846,3.7908,3.8066,3.8186,3.837,3.8429,3.8277,3.8308,3.8324,3.8384,3.8292,3.8268,3.8316,3.8271,3.8313,3.8459,3.8503,3.8599,3.8677,3.8749,3.8968,3.9064,3.9135,3.9216,3.9376,3.9525,3.9719,3.9739,3.9943,4.0163,4.0308,4.0363,4.0436,4.0684,4.0961,4.1166,4.1309,4.1459,4.1665,4.193,4.2141,4.2299,4.2449,4.2581,4.2637,4.2731,4.2686,4.2568,4.2265,4.1826,4.1407,4.0981,4.0543,4.0194,3.9907,3.9688,3.9562,3.9339,3.8975,3.8738,3.8673,3.8615,3.8469,3.8299,3.8314,3.8284,3.8244,3.8212,3.8277,3.8214,3.8155,3.8225,3.819,3.8176,3.8229,3.8299,3.8259,3.8206,3.8139,3.8155,3.8216,3.823,3.8148,3.8192,3.8125,3.812,3.8206,3.8254,3.8204,3.8252,3.8239,3.8258,3.8229,3.8367,3.8335,3.8295,3.8256,3.8315,3.8428,3.8405,3.8385,3.8401,3.8366,3.8317,3.8439,3.8524,3.864,3.8631,3.8494,3.8419,3.8499,3.8747,3.8828,3.8692,3.868,3.8751,3.8878,3.9043,3.8937,3.8831,3.8993,3.9615,4.0023,4.0137,4.0272,4.0137,3.9314,3.9318,4.0019,4.0453,4.0455,4.0046,3.9745,3.9585,3.9386,3.8887,3.8676,3.8464,3.8407,3.8397,3.8398,3.8502,3.868,3.8776,3.8791,3.8789,3.8871,3.8865,3.8787,3.86,3.8698,3.9122,3.9469,3.9595,3.9509,3.9332,3.9048,3.8756,3.7802,3.6467,3.6117,3.7671,4.117,4.476,4.9502,5.0358,4.5745,4.2221,4.0909,4.0283,3.9825,3.9744,4.018,3.9994,3.9641,3.9206,3.8789,3.8802,3.8613,3.864,3.855,3.857,3.8586,3.8707,3.8938,3.9117,3.9097,3.9033,3.9059,3.9123,3.9111,3.911,3.9121,3.9111,3.9283,3.9397,3.9336,3.9395,3.9522,3.9634,3.9735,3.981,3.9914,3.9952,3.9946,4.0009,4.0257,4.0479,4.0797,4.0852,4.0778,4.1004,4.1147,4.1305,4.1568,4.177,4.1919,4.208,4.2258,4.243,4.2576,4.2699,4.283,4.2905,4.2938,4.3078,4.3028,4.274,4.2518,4.2073,4.1631,4.1248,4.0833,4.0493,4.0212,3.9917,3.9729,3.9506,3.9176,3.8938,3.8934,3.9027,3.874,3.861,3.8592,3.8662,3.8689,3.8604,3.8568,3.8587,3.8581,3.8707,3.8651,3.8592,3.8574,3.8431,3.8388,3.8452,3.8611,3.8562,3.8589,3.8576,3.8537,3.8515,3.8497,3.8387,3.8364,3.8282,3.8393,3.8522,3.8549,3.8538,3.8458,3.8482,3.8507,3.8548,3.8283,3.8209,3.8109,3.8113,3.826,3.8418,3.856,3.8486,3.8357,3.8365,3.8649,3.8649,3.8688,3.8775,3.8696,3.8794,3.8858,3.8853,3.8743,3.8679,3.877,3.8783,3.8746,3.8708,3.8775,3.8842,3.8914,3.882,3.8773,3.857,3.8515,3.8761,3.9188,3.9265,3.9163,3.9076,3.8904,3.8906,3.8732,3.8557,3.8448,3.8498,3.8469,3.8408,3.8282,3.8248,3.8272,3.8311,3.8263,3.8227,3.8168,3.8163,3.8276,3.8311,3.8285,3.8201,3.8291,3.862,3.8791,3.8817,3.8904,3.8623,3.7853,3.7649,3.8802,4.1868,4.393,4.7573,5.1541,4.9533,4.3885,4.1202,4.0426,3.9776,3.9388,3.9727,3.9819,3.9276,3.908,3.8819,3.8785,3.8761,3.898,3.8732,3.8733,3.8684,3.8964,3.8802,3.8709,3.8664,3.878,3.8588,3.8642,3.8885,3.8887,3.8885,3.8871,3.8933,3.9068,3.9118,3.9156,3.9259,3.9451,3.952,3.958,3.9433,3.9372,3.952,3.9903,4.0047,4.0247,4.0076,4.0176,4.0313,4.0397,4.0363,4.0461,4.0788,4.084,4.0562,4.096,4.2445,4.2797,4.2869,4.3022,4.3187,4.3265,4.3006,4.1508,4.1483,4.1857,4.2032,4.2115,4.1754,4.1556,4.0948,4.0535,4.004,3.9662,3.9311,3.903,3.8961,3.884,3.859,3.8404,3.8279,3.8457,3.84,3.834,3.8223,3.824,3.82,3.8273,3.8199,3.8316,3.8336,3.8408,3.8782,3.9159,3.9124,3.9072,3.9017,3.9019,3.9087,3.9046,3.901,3.8915,3.8987,3.9189,3.8993,3.873,3.889,3.8902,3.9036,3.8901,3.8702,3.8711,3.8733,3.8744,3.877,3.8747,3.8811,3.8721,3.8772,3.8901,3.8776,3.864,3.8621,3.8651,3.8474,3.8325,3.8651,3.8804,3.8904,3.8545,3.8386,3.8618,3.8968,3.89,3.8799,3.8572,3.8369,3.8418,3.8713,3.8773,3.8843,3.8785,3.9083,3.9105,3.8793,3.8577,3.8278,3.8295,3.831,3.8331,3.8338,3.8234,3.8135,3.8078,3.7994,3.8026,3.7959,3.7928,3.8028,3.823,3.8215,3.816,3.8105,3.7947,3.7971,3.8046,3.8101,3.7781,3.6753,3.583,3.615,3.8834,4.0602,4.3314,4.6046,4.6055,4.1419,3.6653,3.5444,3.5421,3.6636,3.757,3.8436,3.8639,3.8626,3.8367,3.8423,3.8421,3.8468,3.8465,3.8447,3.8364,3.8365,3.8236,3.8467,3.8529,3.8651,3.8638,3.8614,3.8602,3.8647,3.8813,3.886,3.8897,3.8918,3.8928,3.9112,3.9172,3.9383,3.9335,3.9393,3.9535,3.964,3.9773,3.9804,3.9916,4.0162,4.0303,4.0414,4.0423,4.0594,4.0857,4.1162,4.1427,4.1475,4.1668,4.173,4.2029,4.2026,4.2117,4.2434,4.2707,4.2755,4.2887,4.2897,4.3038,4.278,4.2731,4.257,4.2133,4.1512,4.1085,4.0555,4.0111,3.9688,3.9461,3.9136,3.8881,3.8727,3.8474,3.8475,3.8354,3.8266,3.8152,3.8224,3.8108,3.8141,3.8069,3.7975,3.7932,3.797,3.7953,3.8003,3.7971,3.7914,3.7937,3.7936,3.8011,3.8081,3.8038,3.7959,3.7888,3.794,3.788,3.7902,3.8052,3.7928,3.7934,3.7849,3.794,3.7942,3.796,3.7893,3.7924,3.7856,3.7924,3.7917,3.7918,3.7871,3.7949,3.7962,3.7963,3.7976,3.7937,3.8069,3.7994,3.803,3.8159,3.8326,3.8655,3.8576,3.8411,3.8236,3.8112,3.8003,3.7961,3.777,3.7629,3.7562,3.7537,3.7445,3.7493,3.744,3.7448,3.7424,3.7384,3.7327,3.7251,3.7111,3.7115,3.7217,3.7105,3.708,3.7046,3.6964,3.6868,3.6646,3.5992,3.48,3.429,3.5334,3.8254,4.1371,4.4643,4.6419,4.2733,3.7515,3.5865,3.5465,3.5651,3.6735,3.7089,3.7488,3.7412,3.7426,3.7382,3.7246,3.7246,3.7289,3.7352,3.7415,3.7424,3.7553,3.7562,3.7625,3.768,3.7812,3.7844,3.7887,3.7892,3.7953,3.8053,3.8142,3.8182,3.8201,3.8226,3.8382,3.8564,3.8596,3.8609,3.8632,3.8669,3.8794,3.891,3.8996,3.9049,3.9154,3.9373,3.9466,3.9566,3.9771,3.9853,3.9945,4.009,4.023,4.0295,4.0577,4.077,4.0908,4.0987,4.1133,4.127,4.1408,4.1477,4.147,4.1433,4.1298,4.1094,4.0771,4.0397,4.0023,3.9843,3.9586,3.9249,3.8988,3.87,3.8509,3.8404,3.8225,3.8216,3.8187,3.8082,3.8093,3.8124,3.806,3.8056,3.7999,3.7918,3.7899,3.7909,3.7832,3.7812,3.7793,3.7774,3.7824,3.7797,3.7745,3.7753,3.781,3.7812,3.7735,3.7681,3.7746,3.7702,3.7726,3.7707,3.7724,3.7729,3.7792,3.7784,3.7735,3.7804,3.7759,3.7781,3.7841,3.7867,3.7844,3.7829,3.7849,3.788,3.791,3.7864,3.796,3.8048,3.8125,3.8102,3.8107,3.806,3.8044,3.8266,3.8551,3.8814,3.8736,3.8584,3.8448,3.8356,3.8289,3.8092,3.7976,3.7979,3.793,3.7874,3.7843,3.7852,3.7819,3.7791,3.7784,3.7765,3.7741,3.7752,3.7769,3.7756,3.7731,3.7701,3.7713,3.7716,3.7727,3.7715,3.7524,3.6516,3.5058,3.4759,3.6365,3.9749,4.3762,4.8579,5.0014,4.7515,4.2206,3.9772,3.9031,3.8524,3.8471,3.8734,3.8982,3.8599,3.8602,3.8236,3.8286,3.8099,3.8238,3.8112,3.8328,3.8115,3.8266,3.8163,3.8363,3.8254,3.8419,3.8368,3.8452,3.8523,3.864,3.8581,3.867,3.8629,3.8776,3.8804,3.8876,3.8862,3.8971,3.9062,3.9142,3.9208,3.9287,3.9358,3.9463,3.9614,3.9724,3.978,3.997,4.0082,4.0225,4.039,4.0576,4.0742,4.0938,4.1123,4.1328,4.1495,4.1618,4.1852,4.1968,4.2071,4.2178,4.2246,4.2278,4.2282,4.2066,4.1805,4.145,4.1055,4.0676,4.0268,3.9821,3.9462,3.9127,3.8972,3.8666,3.8506,3.8279,3.8278,3.8174,3.8148,3.8113,3.7962,3.7763,3.7823,3.7837,3.7914,3.7868,3.778,3.7642,3.7637,3.7914,3.7844,3.7767,3.7785,3.7699,3.7728,3.7692,3.7826,3.7853,3.7881,3.8023,3.8051,3.8032,3.8192,3.8053,3.817,3.8074,3.812,3.8106,3.813,3.8181,3.8233,3.8209,3.8406,3.8588,3.8725,3.8725,3.8778,3.8673,3.8631,3.8491,3.8589,3.8804,3.9024,3.9012,3.8849,3.8679,3.8494,3.8261,3.8115,3.795,3.7815,3.7671,3.7606,3.7583,3.7513,3.7535,3.7474,3.7426,3.7381,3.7354,3.7482,3.7383,3.7436,3.7719,3.7628,3.7695,3.769,3.7787,3.7933,3.8369,3.7539,3.5949,3.523,3.5279,3.6999,4.0468,4.4043,4.8224,4.8363,4.3326,4.0245,3.9505,3.9411,3.8887,3.9387,3.9322,3.8878,3.8718,3.8405,3.8228,3.8086,3.7978,3.8128,3.8027,3.7992,3.807,3.7945,3.797,3.7929,3.8155,3.7912,3.7987,3.8015,3.8268,3.8137,3.8184,3.8281,3.8269,3.8323,3.8443,3.8541,3.8581,3.8682,3.8787,3.8842,3.8914,3.9061,3.9128,3.9356,3.9499,3.9612,3.9822,3.9923,4.0119,4.0262,4.0525,4.0725,4.0951,4.1093,4.136,4.1425,4.1668,4.1826,4.1921,4.2117,4.2329,4.2383,4.2521,4.2412,4.2169,4.1837,4.1472,4.0876,4.056,3.9905,3.9556,3.9296,3.8926,3.855,3.8451,3.8273,3.8136,3.7931,3.7794,3.7685,3.7649,3.7597,3.755,3.7482,3.7574,3.755,3.7485,3.7506,3.7443,3.7424,3.7519,3.7492,3.7422,3.7471,3.7416,3.7433,3.7427,3.7462,3.7398,3.7373,3.7336,3.7462,3.7419,3.7402,3.7372,3.739,3.7341,3.7362,3.7366,3.7371,3.7404,3.7551,3.7549,3.7589,3.7491,3.7523,3.7434,3.7524,3.7772,3.8017,3.8289,3.8263,3.8088,3.7977,3.786,3.7697,3.7509,3.7375,3.7256,3.7196,3.7151,3.7136,3.711,3.7127,3.7063,3.7075,3.7018,3.6967,3.6916,3.6941,3.6917,3.6846,3.6879,3.6942,3.6906,3.6936,3.6929,3.6855,3.6004,3.4524,3.4039,3.4425,3.6549,4.0184,4.3898,4.7353,4.4772,3.9206,3.7468,3.7438,3.7914,3.7745,3.8369,3.8386,3.7986,3.7808,3.7503,3.7508,3.7458,3.7529,3.7451,3.7506,3.7426,3.7572,3.7549,3.7613,3.7609,3.7666,3.7719,3.7814,3.7798,3.7894,3.7918,3.8029,3.8065,3.8161,3.8212,3.8324,3.8339,3.8491,3.8539,3.867,3.8727,3.8815,3.8953,3.9095,3.9242,3.9354,3.9564,3.979,3.9952,4.0105,4.0251,4.04,4.0638,4.0884,4.1062,4.1191,4.1387,4.1611,4.1815,4.2002,4.2126,4.2257,4.2364,4.2323,4.2177,4.1905,4.1509,4.107,4.0634,4.0166,3.968,3.925,3.8885,3.8556,3.8422,3.8208,3.7997,3.7817,3.7702,3.7628,3.757,3.7472,3.7452,3.7458,3.7411,3.7394,3.7391,3.7339,3.7442,3.7406,3.7311,3.7334,3.7361,3.729,3.7287,3.7305,3.7306,3.7296,3.7295,3.7226,3.7248,3.7276,3.7271,3.7224,3.7211,3.7213,3.716,3.7201,3.715,3.7133,3.7174,3.7175,3.7138,3.71,3.7178,3.7282,3.7253,3.7153,3.726,3.7312,3.7302,3.7384,3.7578,3.7791,3.801,3.7794,3.7761,3.758,3.7529,3.7414,3.7208,3.7073,3.6985,3.6919,3.6935,3.6969,3.692,3.6935,3.6935,3.686,3.6913,3.6904,3.6798,3.6843,3.6855,3.6803,3.6765,3.6751,3.6746,3.6731,3.675,3.6738,3.6194,3.4852,3.4098,3.5139,3.8096,4.1673,4.5024,4.6512,4.2377,3.6585,3.4831,3.4534,3.5751,3.6731,3.748,3.7832,3.7625,3.7587,3.7474,3.7401,3.7286,3.731,3.7198,3.7369,3.7381,3.7457,3.7419,3.7513,3.7513,3.7611,3.7622,3.7744,3.7754,3.7848,3.7864,3.7973,3.8013,3.8102,3.8116,3.8291,3.8299,3.8364,3.8442,3.8554,3.8746,3.8961,3.911,3.9148,3.9137,3.9322,3.9508,3.9742,3.9874,4.0108,4.0314,4.0537,4.0711,4.0927,4.1095,4.123,4.1492,4.1718,4.1906,4.1989,4.2274,4.2481,4.2434,4.2237,4.2056,4.1897,4.153,4.1023,4.0482,3.9972,3.9435,3.9234,3.8851,3.847,3.8083,3.7915,3.7756,3.7547,3.7482,3.7364,3.7291,3.7247,3.7167,3.7134,3.7215,3.7137,3.716,3.7089,3.7025,3.704,3.7049,3.7104,3.714,3.7206,3.7101,3.7038,3.7118,3.7099,3.7165,3.7078,3.7061,3.7195,3.723,3.7114,3.7024,3.7108,3.7159,3.7108,3.7091,3.7126,3.7194,3.7262,3.721,3.7215,3.7278,3.7165,3.7406,3.7668,3.7989,3.801,3.7894,3.7693,3.7442,3.7334,3.7225,3.7053,3.7015,3.6895,3.6861,3.6858,3.6868,3.6801,3.681,3.6798,3.6754,3.6786,3.6732,3.6769,3.6779,3.6747,3.6678,3.6724,3.6757,3.6709,3.6755,3.6733,3.6512,3.601,3.4747,3.4093,3.5379,3.8463,4.2039,4.5537,4.6464,4.1918,3.6517,3.5157,3.5187,3.6101,3.703,3.7574,3.7902,3.7667,3.7589,3.7331,3.7336,3.7228,3.7303,3.7259,3.734,3.7301,3.7402,3.7414,3.746,3.7486,3.7582,3.7558,3.7628,3.7671,3.7781,3.7788,3.7864,3.7923,3.805,3.8049,3.8137,3.8134,3.8301,3.8402,3.8545,3.8594,3.8612,3.8736,3.8914,3.907,3.9187,3.936,3.9507,3.969,3.9896,4.0042,4.024,4.0484,4.0523,4.0766,4.0938,4.1114,4.1306,4.1478,4.1648,4.182,4.1854,4.1874,4.177,4.1598,4.1229,4.0833,4.0377,3.9925,3.9436,3.908,3.8717,3.8591,3.8259,3.8001,3.7828,3.7689,3.7563,3.7461,3.7385,3.7371,3.7301,3.7267,3.7239,3.728,3.7307,3.7241,3.7165,3.7196,3.7196,3.7202,3.7179,3.721,3.7202,3.7259,3.727,3.724,3.7274,3.7247,3.7283,3.7314,3.7307,3.733,3.7319,3.7341,3.7343,3.7348,3.7338,3.7334,3.7317,3.7337,3.7334,3.7314,3.7335,3.7454,3.7478,3.7449,3.7434,3.7373,3.7409,3.7676,3.7918,3.8177,3.808,3.8019,3.789,3.7718,3.7618,3.7468,3.7399,3.7346,3.7289,3.7237,3.7216,3.7167,3.715,3.7202,3.7131,3.7135,3.7101,3.7108,3.7114,3.7108,3.7093,3.7072,3.7129,3.7096,3.7104,3.7112,3.7125,3.6647,3.5156,3.3876,3.42,3.6403,4.0596,4.5393,5.0163,4.8788,4.314,4.0662,3.9797,3.9126,3.838,3.8661,3.8577,3.8282,3.816,3.7844,3.7655,3.7568,3.7604,3.7574,3.7626,3.7542,3.7611,3.7684,3.7719,3.7733,3.775,3.7768,3.7837,3.7916,3.7914,3.7949,3.7987,3.8037,3.816,3.8202,3.823,3.8302,3.8449,3.8524,3.8595,3.8655,3.8781,3.886,3.9023,3.917,3.9333,3.9411,3.9514,3.9713,3.9934,4.0089,4.0176,4.0381,4.0596,4.0788,4.0987,4.114,4.1342,4.1506,4.1739,4.1829,4.1925,4.2041,4.2008,4.1848,4.1604,4.1206,4.0846,4.0393,3.9947,3.97,3.9333,3.8978,3.8714,3.843,3.8262,3.8024,3.7925,3.7803,3.7789,3.7736,3.769,3.7615,3.7638,3.7609,3.7566,3.7543,3.7523,3.7565,3.758,3.7576,3.7507,3.7466,3.7478,3.7517,3.7544,3.7526,3.7507,3.7487,3.7525,3.7559,3.7521,3.7517,3.7504,3.7551,3.7536,3.7521,3.7587,3.753,3.7496,3.7562,3.7585,3.7507,3.75,3.7505,3.7577,3.7517,3.7516,3.7665,3.771,3.7712,3.7759,3.771,3.7685,3.7865,3.8156,3.8415,3.8438,3.823,3.8142,3.8007,3.795,3.7841,3.7633,3.7578,3.7542,3.7505,3.745,3.7434,3.7447,3.7448,3.7381,3.736,3.7345,3.7368,3.7338,3.7336,3.7363,3.7348,3.7338,3.7385,3.7346,3.7344,3.7354,3.7125,3.5873,3.445,3.4358,3.6161,3.9889,4.4252,4.9337,4.9299,4.3911,4.0807,3.9978,3.9276,3.8848,3.8517,3.8758,3.8728,3.8326,3.817,3.7956,3.7946,3.7794,3.7896,3.7877,3.7938,3.7885,3.8006,3.7994,3.807,3.804,3.8112,3.8123,3.8205,3.8195,3.8327,3.8296,3.8365,3.8396,3.8463,3.853,3.8657,3.8734,3.8782,3.8858,3.8954,3.9045,3.9155,3.9274,3.9453,3.9575,3.9652,3.9725,3.9889,4.0064,4.0295,4.0451,4.0591,4.082,4.1025,4.1227,4.1443,4.1608,4.1844,4.2022,4.22,4.2298,4.2341,4.235,4.2288,4.2186,4.1884,4.1508,4.1072,4.0606,4.0204,3.9798,3.9402,3.9043,3.88,3.8581,3.8395,3.824,3.8109,3.8077,3.7999,3.7943,3.7881,3.788,3.7852,3.7871,3.7829,3.7848,3.7839,3.7786,3.7754,3.7775,3.7783,3.7763,3.7752,3.7809,3.7766,3.7799,3.7813,3.784,3.7781,3.7788,3.7783,3.7784,3.7769,3.7788,3.779,3.7807,3.7782,3.7802,3.781,3.7826,3.777,3.7802,3.7765,3.7812,3.7816,3.781,3.778,3.7824,3.7754,3.7837,3.7848,3.7768,3.777,3.7806,3.7847,3.782,3.7777,3.7803,3.7776,3.7835,3.7825,3.778,3.7844,3.7927,3.8041,3.8063,3.8082,3.7949,3.7846,3.7952,3.8349,3.8723,3.8602,3.8448,3.8346,3.8288,3.819,3.808,3.7917,3.7869,3.7831,3.7751,3.7735,3.7744,3.7717,3.7734,3.7695,3.7644,3.7623,3.7654,3.7666,3.7644,3.7654,3.7615,3.7611,3.7627,3.7626,3.7615,3.7601,3.7491,3.6577,3.509,3.4644,3.6067,3.9322,4.3218,4.8073,4.9907,4.8063,4.2719,4.021,3.9661,3.9009,3.8632,3.8881,3.9035,3.8571,3.8499,3.8041,3.8139,3.792,3.811,3.7925,3.812,3.7967,3.8121,3.7999,3.8174,3.8117,3.8242,3.8143,3.8319,3.8247,3.8363,3.8306,3.8464,3.8445,3.855,3.8562,3.8713,3.8718,3.8852,3.8883,3.9082,3.913,3.9194,3.9215,3.9376,3.9394,3.961,3.9749,3.988,4.0027,4.0176,4.0349,4.0499,4.0724,4.0891,4.1125,4.1285,4.1493,4.1699,4.1919,4.207,4.219,4.2283,4.248,4.2468,4.2489,4.2331,4.2083,4.1674,4.1352,4.0872,4.0476,3.999,3.9661,3.9322,3.905,3.8753,3.8601,3.8429,3.8299,3.8188,3.8176,3.8015,3.8026,3.7953,3.7962,3.7899,3.7904,3.7867,3.7914,3.7844,3.7896,3.7811,3.7894,3.7836,3.7867,3.7812,3.7831,3.7796,3.7843,3.7812,3.7822,3.7774,3.777,3.7759,3.7823,3.7786,3.7806,3.7741,3.7785,3.7778,3.7805,3.7767,3.7788,3.7718,3.7795,3.778,3.7762,3.7723,3.7759,3.7741,3.7752,3.7702,3.7686,3.7671,3.7709,3.7691,3.767,3.7633,3.7692,3.7687,3.7691,3.7671,3.7677,3.7635,3.7684,3.7643,3.7643,3.7688,3.7735,3.7849,3.7849,3.7915,3.78,3.768,3.788,3.8307,3.8596,3.8468,3.8295,3.8218,3.8114,3.8045,3.7898,3.7767,3.7687,3.7685,3.7653,3.7634,3.7565,3.7557,3.7537,3.7558,3.7514,3.7488,3.745,3.7501,3.7474,3.7497,3.7468,3.7454,3.7486,3.7454,3.7484,3.7438,3.7351,3.6667,3.5162,3.4538,3.574,3.8711,4.0745,4.4495,4.9069,4.5535,4.0737,3.9202,3.8569,3.8434,3.8254,3.8723,3.8558,3.8334,3.8083,3.8044,3.7818,3.7845,3.7823,3.7879,3.786,3.7855,3.7839,3.7946,3.7965,3.7982,3.7992,3.8074,3.808,3.8177,3.8259,3.8264,3.827,3.834,3.8336,3.8454,3.8488,3.8599,3.8674,3.8755,3.8868,3.8939,3.9022,3.9172,3.9243,3.939,3.9485,3.9631,3.9776,3.9948,4.0073,4.0267,4.0421,4.0518,4.0723,4.0929,4.1052,4.1235,4.1408,4.1642,4.1804,4.1991,4.209,4.218,4.218,4.209,4.1923,4.1621,4.1211,4.0833,4.0419,4.0005,3.9804,3.94,3.9095,3.8806,3.8503,3.8304,3.815,3.8064,3.7946,3.7842,3.778,3.7781,3.7691,3.7682,3.7658,3.7649,3.7579,3.7648,3.7618,3.7642,3.7575,3.7572,3.7594,3.7629,3.7629,3.7538,3.7557,3.7599,3.7592,3.7559,3.7619,3.7565,3.7608,3.7611,3.7571,3.7535,3.7585,3.7506,3.7535,3.7579,3.7548,3.7526,3.7521,3.7497,3.7542,3.7502,3.7528,3.7524,3.7544,3.7534,3.755,3.7536,3.7491,3.749,3.75,3.7453,3.7455,3.7451,3.7439,3.746,3.7451,3.7487,3.7438,3.7434,3.7493,3.7468,3.7473,3.7498,3.759,3.7656,3.7689,3.757,3.7447,3.7531,3.7929,3.8288,3.8306,3.8061,3.7999,3.7881,3.7823,3.7664,3.7559,3.7424,3.7405,3.7373,3.7379,3.7283,3.7224,3.7242,3.726,3.7224,3.7216,3.7147,3.7158,3.7166,3.7172,3.714,3.7132,3.7157,3.7151,3.7143,3.714,3.7123,3.6631,3.5215,3.4242,3.4995,3.768,4.1364,4.5312,4.8651,4.6196,4.0704,3.9506,3.842,3.7979,3.7868,3.8026,3.837,3.8147,3.8014,3.7726,3.7656,3.7484,3.7565,3.7502,3.7618,3.7562,3.7625,3.7598,3.7686,3.7707,3.7759,3.77,3.7811,3.7846,3.793,3.7933,3.8043,3.8062,3.8148,3.8144,3.8274,3.8285,3.8408,3.8459,3.8529,3.8613,3.8718,3.8819,3.8958,3.9005,3.9152,3.9326,3.9442,3.9571,3.9785,3.9943,4.0185,4.028,4.0482,4.0722,4.094,4.1111,4.1269,4.1514,4.1637,4.1844,4.202,4.2088,4.2141,4.215,4.2071,4.1813,4.1483,4.1041,4.0627,4.0148,3.9749,3.9352,3.8977,3.8674,3.8374,3.8171,3.7944,3.7813,3.773,3.763,3.7533,3.7507,3.7475,3.7421,3.7401,3.7411,3.7366,3.7336,3.7334,3.7334,3.7298,3.7305,3.7297,3.7321,3.7299,3.7289,3.7276,3.7286,3.7268,3.7327,3.7317,3.7321,3.7301,3.7279,3.7345,3.7345,3.7332,3.7309,3.7266,3.7282,3.732,3.7337,3.7245,3.7275,3.7287,3.7289,3.7275,3.7278,3.7244,3.725,3.7273,3.7256,3.7226,3.724,3.7233,3.7224,3.7193,3.7188,3.7209,3.7225,3.7172,3.7202,3.7201,3.718,3.7177,3.7216,3.7191,3.7169,3.7178,3.7186,3.7213,3.7285,3.7357,3.7367,3.7331,3.7369,3.7236,3.7188,3.7434,3.7911,3.8135,3.7912,3.785,3.7685,3.7569,3.7497,3.7386,3.726,3.721,3.7154,3.7149,3.7157,3.7046,3.7049,3.7086,3.703,3.7029,3.7045,3.7006,3.7003,3.6971,3.7018,3.7017,3.7004,3.6975,3.6988,3.7059,3.7042,3.6845,3.5744,3.4456,3.4442,3.635,3.9736,4.3125,4.725,4.7203,4.2044,3.872,3.7496,3.7374,3.7508,3.793,3.8305,3.8141,3.7911,3.7786,3.7681,3.7533,3.7558,3.7513,3.7519,3.7546,3.7571,3.7587,3.7623,3.7679,3.7755,3.7772,3.7808,3.7845,3.7881,3.7964,3.7998,3.8076,3.8084,3.8175,3.8297,3.836,3.8451,3.8487,3.8559,3.8682,3.88,3.8887,3.9013,3.9126,3.9308,3.9406,3.9562,3.9731,3.9873,4.0084,4.0279,4.0361,4.0557,4.0734,4.0901,4.1137,4.1349,4.1587,4.1734,4.1936,4.2089,4.2206,4.229,4.2275,4.218,4.1973,4.166,4.1274,4.0806,4.0405,4.0161,3.9758,3.9318,3.8999,3.869,3.8496,3.8255,3.8048,3.7934,3.7845,3.7728,3.7708,3.7659,3.7599,3.758,3.7567,3.7533,3.7528,3.7504,3.751,3.7506,3.7527,3.7531,3.7524,3.7461,3.7549,3.7573,3.7563,3.752,3.7538,3.7528,3.7546,3.7539,3.757,3.7539,3.7574,3.7558,3.7619,3.7598,3.756,3.7568,3.7605,3.761,3.7595,3.762,3.7599,3.7577,3.7551,3.7581,3.753,3.7572,3.7543,3.7571,3.7564,3.7515,3.7482,3.7542,3.7562,3.757,3.7569,3.752,3.7509,3.7534,3.7535,3.7568,3.7514,3.7503,3.7529,3.7477,3.7495,3.7503,3.7544,3.7558,3.7531,3.749,3.7476,3.7511,3.7503,3.7486,3.7471,3.7523,3.7502,3.7515,3.7509,3.7523,3.7541,3.7633,3.7676,3.7683,3.7683,3.7533,3.7435,3.768,3.819,3.8441,3.8313,3.8165,3.8125,3.7984,3.7866,3.7794,3.7667,3.7582,3.7532,3.7498,3.7448,3.745,3.7441,3.7424,3.7375,3.7322,3.732,3.7329,3.7361,3.7395,3.7339,3.7323,3.7329,3.7373,3.7359,3.7344,3.7354,3.7283,3.6391,3.4943,3.4468,3.6004,3.9249,4.2668,4.6907,4.829,4.3958,3.9855,3.892,3.8235,3.8193,3.8172,3.8605,3.8729,3.84,3.826,3.7966,3.7955,3.7873,3.7952,3.7894,3.7962,3.7857,3.7967,3.7961,3.807,3.8019,3.8073,3.8054,3.8183,3.8194,3.8279,3.8227,3.8317,3.8403,3.8461,3.8509,3.8563,3.8634,3.8789,3.8836,3.8932,3.896,3.9113,3.9199,3.9341,3.9409,3.9524,3.9638,3.9788,3.9998,4.0156,4.0261,4.0392,4.0642,4.0839,4.1014,4.1145,4.1378,4.1583,4.1779,4.196,4.2115,4.2221,4.2344,4.2381,4.2446,4.2364,4.2188,4.1932,4.1577,4.1187,4.074,4.0262,3.9902,3.9522,3.9225,3.8863,3.865,3.8448,3.8286,3.8146,3.807,3.7938,3.7912,3.7863,3.784,3.7841,3.7777,3.7775,3.7758,3.7735,3.7721,3.7703,3.7701,3.7714,3.7729,3.7691,3.7722,3.7728,3.7743,3.774,3.7752,3.772,3.7708,3.7734,3.7768,3.773,3.7718,3.7723,3.7739,3.7733,3.7732,3.7753,3.7747,3.7696,3.7767,3.7729,3.7716,3.7699,3.7691,3.7686,3.773,3.7659,3.7702,3.7635,3.7646,3.7654,3.766,3.7627,3.7649,3.7692,3.7692,3.7586,3.7593,3.7643,3.7633,3.7653,3.7642,3.7618,3.7622,3.762,3.7646,3.7641,3.7605,3.7589,3.7611,3.7621,3.7619,3.7596,3.7639,3.7653,3.7645,3.764,3.7661,3.763,3.7643,3.763,3.7641,3.7603,3.7583,3.7584,3.7569,3.7635,3.762,3.7605,3.7576,3.7614,3.7648,3.767,3.7736,3.7783,3.7771,3.7742,3.7599,3.7673,3.8061,3.8545,3.8438,3.8361,3.8255,3.8119,3.8045,3.7988,3.788,3.7722,3.7664,3.7625,3.7606,3.7583,3.7581,3.7545,3.7524,3.7523,3.7534,3.7512,3.7483,3.7454,3.7478,3.7478,3.7468,3.7496,3.7443,3.7452,3.7456,3.7441,3.6969,3.552,3.4517,3.5254,3.7843,4.134,4.5138,4.8874,4.6656,4.1203,3.91,3.8676,3.841,3.8362,3.8607,3.8867,3.8647,3.8352,3.8167,3.7994,3.7936,3.7851,3.7887,3.7902,3.7953,3.7988,3.802,3.8032,3.8072,3.8085,3.8107,3.8133,3.8176,3.8212,3.8286,3.829,3.8338,3.8414,3.8487,3.8557,3.8645,3.872,3.8775,3.891,3.9009,3.9077,3.9157,3.9242,3.9386,3.9453,3.9604,3.9763,3.9827,4,4.0176,4.0367,4.0534,4.065,4.0859,4.1073,4.126,4.1429,4.1595,4.1807,4.2016,4.2177,4.2236,4.2341,4.2368,4.2411,4.2312,4.2125,4.1832,4.1449,4.102,4.0571,4.022,3.9778,3.9399,3.9136,3.8861,3.867,3.844,3.8326,3.8169,3.8088,3.8014,3.7953,3.789,3.7816,3.7839,3.7816,3.781,3.7749,3.7761,3.7777,3.7743,3.769,3.7694,3.7723,3.7705,3.7766,3.7722,3.7691,3.7719,3.7758,3.7772,3.7767,3.7707,3.7712,3.7733,3.7732,3.7729,3.7728,3.7734,3.7732,3.7756,3.7724,3.7666,3.7724,3.773,3.771,3.7718,3.7681,3.7654,3.7674,3.767,3.7683,3.7655,3.7591,3.7657,3.7638,3.7642,3.7622,3.76,3.7594,3.7575,3.7563,3.7598,3.7582,3.7589,3.7655,3.758,3.7569,3.7557,3.758,3.7642,3.7646,3.7627,3.7585,3.7568,3.7583,3.7601,3.7607,3.7581,3.7603,3.7638,3.7653,3.7611,3.758,3.7588,3.7646,3.7633,3.7587,3.7619,3.759,3.7626,3.761,3.7596,3.7622,3.7593,3.7614,3.7628,3.7635,3.7729,3.7726,3.7702,3.775,3.7632,3.7541,3.7817,3.8308,3.8552,3.8414,3.8272,3.8167,3.8068,3.7993,3.7908,3.7779,3.7671,3.76,3.7594,3.7559,3.7535,3.7517,3.7532,3.7473,3.7492,3.7453,3.7447,3.743,3.7422,3.7469,3.7449,3.7436,3.7476,3.7491,3.7468,3.7455,3.7231,3.5974,3.4691,3.4765,3.6821,4.0355,4.3798,4.8193,4.7897,4.2505,3.9581,3.8823,3.8355,3.835,3.8392,3.8816,3.8757,3.8383,3.8238,3.8003,3.7918,3.781,3.7912,3.7876,3.7923,3.7894,3.7974,3.7937,3.7997,3.8024,3.8057,3.8095,3.8146,3.8149,3.8248,3.8293,3.8364,3.8355,3.8477,3.8572,3.8637,3.8673,3.879,3.8834,3.8989,3.9065,3.9154,3.9248,3.9356,3.9425,3.9567,3.9712,3.9794,3.9931,4.011,4.0293,4.0492,4.0683,4.0849,4.1065,4.126,4.1424,4.1625,4.1816,4.2011,4.2171,4.2281,4.2385,4.2381,4.2464,4.2464,4.2284,4.2,4.1701,4.1309,4.0897,4.0447,4.007,3.9694,3.9376,3.907,3.8815,3.861,3.8427,3.8253,3.8226,3.8119,3.8081,3.8027,3.8003,3.7955,3.796,3.7942,3.7911,3.7839,3.7921,3.7886,3.7893,3.7811,3.782,3.7864,3.7935,3.7924,3.7863,3.7888,3.7944,3.7909,3.7875,3.7834,3.7983,3.8076,3.8118,3.8061,3.8123,3.8084,3.7992,3.7956,3.8043,3.8095,3.8051,3.8043,3.8064,3.8108,3.8024,3.8085,3.8171,3.8057,3.8089,3.8144,3.8082,3.8159,3.8102,3.8095,3.8097,3.8085,3.8096,3.8138,3.8159,3.8136,3.8101,3.8024,3.8153,3.8174,3.8195,3.82,3.8217,3.8434,3.8786,3.9047,3.8974,3.8863,3.8795,3.869,3.8649,3.8584,3.8538,3.855,3.8577,3.8577,3.8459,3.8526,3.8716,3.8707,3.8667,3.8621,3.8378,3.8372,3.8643,3.9077,3.9155,3.9003,3.8869,3.8709,3.862,3.8453,3.8268,3.8159,3.8219,3.8082,3.8007,3.7879,3.7893,3.7911,3.7964,3.7916,3.7856,3.7847,3.7839,3.7874,3.7787,3.7872,3.7809,3.7876,3.7891,3.7899,3.7825,3.7804,3.6929,3.5323,3.4656,3.5912,3.7326,4.0813,4.4572,4.8765,4.7978,4.2543,4.0137,3.9083,3.9066,3.881,3.9135,3.9209,3.896,3.8604,3.8404,3.8209,3.82,3.825,3.8335,3.8331,3.8383,3.8423,3.8462,3.855,3.8498,3.8518,3.854,3.8598,3.8635,3.8681,3.8683,3.8707,3.8794,3.8849,3.8928,3.8956,3.8998,3.9097,3.9128,3.9253,3.9362,3.9431,3.9516,3.964,3.9745,3.9865,3.9996,4.0175,4.0403,4.0498,4.0705,4.0804,4.1035,4.1241,4.1451,4.1635,4.1816,4.193,4.2113,4.233,4.244,4.2629,4.272,4.2811,4.2832,4.2733,4.2487,4.2161,4.1796,4.1379,4.0928,4.0507,4.006,3.9702,3.932,3.9061,3.8872,3.8662,3.8481,3.8378,3.8213,3.8115,3.8061,3.7986,3.7974,3.7959,3.7906,3.7919,3.7903,3.7861,3.7812,3.7879,3.7828,3.7874,3.7859,3.7909,3.7823,3.7809,3.7737,3.7805,3.7849,3.787,3.7828,3.7866,3.7817,3.7852,3.7807,3.7832,3.7773,3.7789,3.7853,3.776,3.7779,3.7762,3.7782,3.7729,3.7723,3.7711,3.7624,3.7602,3.7588,3.7584,3.7566,3.7566,3.7543,3.7582,3.759,3.7551,3.7613,3.7537,3.7528,3.761,3.768,3.763,3.7586,3.7759,3.7871,3.7769,3.775,3.7732,3.7555,3.7635,3.7991,3.8342,3.8437,3.8221,3.8115,3.7927,3.7916,3.7798,3.7662,3.7492,3.748,3.7366,3.7454,3.7441,3.7274,3.7431,3.7634,3.7725,3.7878,3.7945,3.8196,3.8131,3.8084,3.8071,3.7921,3.7668,3.7575,3.7854,3.7778,3.7746,3.7127,3.6043,3.5654,3.7211,4.0454,4.3417,4.6478,4.6646,4.1402,3.6272,3.4902,3.4869,3.5903,3.7022,3.7907,3.8195,3.8195,3.8099,3.8017,3.7951,3.7838,3.7799,3.7875,3.7883,3.7763,3.7977,3.8035,3.7915,3.7577,3.7706,3.7918,3.8274,3.8279,3.8291,3.804,3.8069,3.8314,3.8349,3.8317,3.8369,3.843,3.8595,3.8605,3.8657,3.8682,3.8926,3.9168,3.9407,3.951,3.9405,3.9528,3.9747,4.0162,4.0437,4.0697,4.0988,4.1199,4.1794,4.2296,4.2396,4.268,4.2974,4.3626,4.3849,4.3902,4.3856,4.3654,4.3551,4.3404,4.3132,4.2885,4.2326,4.1689,4.1194,4.0588,4.0302,3.9714,3.9292,3.8746,3.8412,3.813,3.7842,3.7717,3.7543,3.737,3.7269,3.721,3.727,3.7265,3.7215,3.7214,3.7053,3.7095,3.6994,3.7038,3.7049,3.7062,3.6991,3.7078,3.7099,3.7004,3.6915,3.6984,3.6981,3.7032,3.709,3.7154,3.7128,3.7256,3.7268,3.7033,3.6992,3.7029,3.7144,3.7211,3.7266,3.7296,3.7175,3.7135,3.6979,3.7051,3.7046,3.6949,3.7106,3.7098,3.7068,3.6911,3.7068,3.7231,3.7329,3.7192,3.7255,3.7197,3.7167,3.7338,3.7529,3.7806,3.7794,3.7585,3.7582,3.7465,3.7451,3.7298,3.7253,3.7212,3.6991,3.6899,3.693,3.7035,3.7043,3.6779,3.6638,3.6869,3.6898,3.6989,3.6855,3.6694,3.6778,3.6728,3.6777,3.6797,3.6916,3.6878,3.6886,3.6519,3.5294,3.4685,3.5503,3.8454,4.1526,4.2868,4.5801,4.4938,3.9389,3.5174,3.4063,3.4152,3.4907,3.6245,3.701,3.7527,3.7511,3.752,3.7337,3.7428,3.7519,3.7519,3.7268,3.7389,3.74,3.7597,3.7653,3.7669,3.755,3.7561,3.7587,3.7668,3.7732,3.7858,3.7814,3.7831,3.7972,3.8078,3.8196,3.8171,3.8235,3.8435,3.8486,3.853,3.8563,3.8832,3.8938,3.899,3.9144,3.9291,3.9446,3.9656,3.9815,3.9963,4.0141,4.04,4.0569,4.0812,4.0989,4.1308,4.1509,4.1537,4.1746,4.1837,4.2019,4.2081,4.2083,4.2176,4.2073,4.1771,4.13,4.0783,4.0386,3.9887,3.9464,3.9035,3.8663,3.8319,3.8064,3.7942,3.7884,3.7664,3.757,3.7293,3.6987,3.7034,3.713,3.717,3.7075,3.6903,3.6853,3.6924,3.6971,3.6793,3.6817,3.6876,3.6861,3.6887,3.6961,3.7027,3.7068,3.7035,3.7004,3.7025,3.6935
