2.4016,2.4023,2.4116,2.4247,2.4194,2.418,2.4142,2.4093,2.4359,2.4859,2.5098,2.492,2.4723,2.4602,2.4546,2.4483,2.4366,2.4167,2.4086,2.4075,2.3972,2.3933,2.3861,2.3857,2.3886,2.389,2.3851,2.3864,2.3845,2.3861,2.3803,2.3848,2.3802,2.3776,2.3792,2.3793,2.3803,2.3739,2.3347,2.216,2.1352,2.2275,2.5218,2.8587,3.0091,3.3562,3.3763,2.8404,2.4109,2.2419,2.2296,2.2859,2.3583,2.4299,2.4643,2.4566,2.4532,2.4327,2.436,2.4335,2.4422,2.4368,2.4404,2.439,2.4469,2.4477,2.4577,2.448,2.4614,2.4672,2.4774,2.4806,2.4846,2.4865,2.4939,2.5,2.5135,2.5176,2.5312,2.5355,2.5488,2.5524,2.5558,2.5687,2.5818,2.5929,2.6097,2.6294,2.6387,2.6531,2.6711,2.6893,2.7058,2.7305,2.754,2.7728,2.7936,2.8138,2.8244,2.8495,2.8723,2.8777,2.8945,2.9085,2.9207,2.9294,2.9334,2.9274,2.9063,2.8777,2.8418,2.7929,2.7397,2.6951,2.65,2.6104,2.5758,2.5533,2.5275,2.4996,2.4742,2.4683,2.4578,2.4528,2.4427,2.4384,2.4336,2.4293,2.4239,2.4201,2.4229,2.4236,2.4222,2.4271,2.4241,2.4252,2.4274,2.4262,2.422,2.4268,2.4238,2.428,2.4284,2.4289,2.4246,2.4247,2.4326,2.4389,2.4396,2.4391,2.4362,2.4375,2.4327,2.4319,2.433,2.4343,2.4321,2.4317,2.4322,2.4316,2.426,2.4255,2.4233,2.4218,2.4174,2.4175,2.4136,2.4136,2.4164,2.4168,2.4096,2.4116,2.4142,2.4172,2.4281,2.4323,2.4332,2.4365,2.4342,2.4212,2.4368,2.467,2.5068,2.5052,2.4888,2.4708,2.4565,2.4471,2.437,2.4196,2.4111,2.4114,2.4012,2.4066,2.3981,2.3992,2.3917,2.3912,2.3894,2.3844,2.3812,2.3833,2.3854,2.3847,2.3822,2.3813,2.3792,2.3827,2.383,2.3828,2.3585,2.2446,2.136,2.1717,2.42,2.7724,2.9317,3.2897,3.5273,3.13,2.614,2.4165,2.3623,2.3736,2.3963,2.4606,2.49,2.4681,2.4652,2.4388,2.4456,2.4293,2.4451,2.4355,2.4457,2.4365,2.4444,2.4374,2.4547,2.4519,2.4659,2.4623,2.4727,2.4692,2.4811,2.4842,2.4943,2.4941,2.5071,2.5073,2.5152,2.5216,2.5368,2.5412,2.5518,2.5543,2.5655,2.575,2.5921,2.6055,2.6245,2.6363,2.652,2.6703,2.6899,2.7098,2.7296,2.749,2.7711,2.7922,2.8106,2.8303,2.8513,2.8725,2.881,2.8979,2.9068,2.9107,2.9075,2.8997,2.8764,2.8433,2.7969,2.7479,2.6974,2.6553,2.6117,2.5731,2.543,2.518,2.4945,2.4761,2.4606,2.4557,2.4432,2.4367,2.4264,2.4213,2.4196,2.4184,2.4162,2.4138,2.4098,2.4076,2.4045,2.4041,2.4003,2.4025,2.4001,2.4003,2.3995,2.4032,2.4016,2.4051,2.402,2.4084,2.4094,2.4074,2.4091,2.4088,2.4099,2.4127,2.4071,2.4122,2.4138,2.4132,2.4095,2.4112,2.4098,2.4129,2.4096,2.4094,2.4076,2.4107,2.4044,2.405,2.4024,2.4038,2.4011,2.4016,2.4044,2.3991,2.4,2.4002,2.398,2.4008,2.4059,2.4158,2.421,2.4247,2.4271,2.4213,2.4089,2.4196,2.4475,2.4972,2.4998,2.4807,2.4638,2.4499,2.4418,2.4318,2.4147,2.3998,2.3966,2.3885,2.3877,2.3842,2.3812,2.3813,2.3786,2.3793,2.3753,2.3733,2.3732,2.3754,2.3754,2.3732,2.3737,2.3738,2.3761,2.3755,2.3769,2.3624,2.2706,2.1481,2.1336,2.3273,2.6629,2.8391,3.1805,3.5567,3.2987,2.7529,2.5044,2.4378,2.424,2.3948,2.4619,2.4859,2.4661,2.4581,2.4333,2.4315,2.422,2.4315,2.4274,2.4351,2.4264,2.4353,2.4349,2.444,2.4433,2.4497,2.4485,2.4604,2.464,2.4704,2.4697,2.4791,2.486,2.4953,2.4993,2.5095,2.5134,2.5238,2.5302,2.5374,2.546,2.5591,2.5664,2.5853,2.5972,2.6116,2.6232,2.643,2.66,2.683,2.7023,2.7209,2.7395,2.7619,2.7845,2.8058,2.8269,2.8485,2.8598,2.8772,2.8937,2.908,2.9157,2.9174,2.9112,2.8887,2.8558,2.8085,2.7672,2.7188,2.6739,2.6227,2.5882,2.5522,2.5283,2.4956,2.4793,2.4684,2.4587,2.4433,2.4373,2.4244,2.4258,2.4184,2.4166,2.4184,2.4181,2.4085,2.4103,2.4091,2.4101,2.4079,2.4066,2.4046,2.4057,2.4005,2.4049,2.4047,2.4109,2.404,2.4065,2.4055,2.4065,2.4046,2.4104,2.4098,2.4108,2.4041,2.4072,2.4087,2.407,2.4091,2.4068,2.4056,2.4096,2.4088,2.4097,2.4066,2.4031,2.4036,2.4064,2.4078,2.4023,2.4011,2.4038,2.4035,2.403,2.402,2.4017,2.4012,2.4016,2.4041,2.4111,2.4177,2.4245,2.4239,2.4251,2.4209,2.4114,2.4357,2.4764,2.5069,2.4903,2.4762,2.4633,2.4476,2.4437,2.4305,2.4094,2.4015,2.3978,2.3888,2.3883,2.3842,2.3796,2.3808,2.3823,2.3803,2.3752,2.37,2.3713,2.3735,2.3759,2.3712,2.3737,2.3735,2.3735,2.3749,2.3714,2.3301,2.2006,2.111,2.1932,2.3123,2.6407,2.9749,3.3838,3.4902,3.0096,2.6072,2.451,2.4181,2.4032,2.4395,2.4717,2.4864,2.4613,2.4442,2.4273,2.4325,2.425,2.4294,2.4235,2.4295,2.4279,2.4355,2.4353,2.4435,2.4422,2.4504,2.4526,2.4633,2.4657,2.4749,2.4754,2.4828,2.4912,2.4995,2.5063,2.5187,2.5227,2.527,2.5387,2.5499,2.5574,2.5702,2.5815,2.5975,2.6136,2.6259,2.6428,2.6572,2.6751,2.6978,2.7145,2.7387,2.7549,2.7839,2.8036,2.8207,2.8322,2.853,2.8737,2.8921,2.907,2.9166,2.9252,2.923,2.9076,2.8794,2.8422,2.7978,2.7523,2.6999,2.6535,2.6092,2.5748,2.5404,2.5153,2.4913,2.4792,2.4648,2.4523,2.4432,2.434,2.4295,2.4268,2.4232,2.4197,2.4167,2.414,2.4139,2.4157,2.4124,2.4109,2.4101,2.4129,2.4077,2.4081,2.4065,2.408,2.408,2.4139,2.4119,2.4138,2.4129,2.4141,2.4148,2.4176,2.4148,2.4138,2.4102,2.4124,2.4118,2.4133,2.4085,2.4152,2.4145,2.4112,2.4145,2.4071,2.4085,2.4068,2.4066,2.4066,2.4074,2.4051,2.4024,2.4102,2.4047,2.4049,2.4046,2.4037,2.4075,2.4061,2.4072,2.4052,2.3991,2.4052,2.4191,2.429,2.4255,2.4249,2.4184,2.4221,2.4476,2.4916,2.4998,2.4873,2.473,2.4572,2.4486,2.4381,2.4247,2.4132,2.4019,2.3999,2.3973,2.392,2.3922,2.3899,2.3846,2.384,2.3874,2.3877,2.3829,2.3841,2.3836,2.3776,2.3764,2.3797,2.3788,2.3798,2.3769,2.3718,2.3485,2.2295,2.1284,2.1952,2.4611,2.8139,3.1226,3.4918,3.2969,2.698,2.426,2.326,2.3442,2.3572,2.4365,2.4791,2.4744,2.4652,2.4454,2.442,2.4352,2.4389,2.4405,2.4438,2.4415,2.4477,2.4501,2.4595,2.4637,2.4695,2.4678,2.4759,2.4771,2.4818,2.4905,2.5003,2.5063,2.5134,2.5176,2.5233,2.53,2.5425,2.5505,2.5608,2.5754,2.5838,2.5987,2.6085,2.6206,2.6374,2.6569,2.6698,2.6864,2.7092,2.7286,2.7518,2.7758,2.7923,2.8013,2.821,2.8378,2.8604,2.8856,2.9034,2.9258,2.937,2.9446,2.9516,2.9449,2.9282,2.8993,2.8578,2.814,2.7633,2.7178,2.6728,2.6314,2.6072,2.5716,2.5426,2.5171,2.4995,2.4894,2.472,2.4614,2.4474,2.44,2.439,2.4373,2.4348,2.4317,2.4259,2.4305,2.4283,2.4302,2.4308,2.4331,2.4354,2.4364,2.4288,2.4287,2.4339,2.4358,2.4334,2.4318,2.4374,2.4414,2.443,2.4399,2.4361,2.4367,2.4358,2.4333,2.4326,2.4391,2.4378,2.4408,2.4364,2.4327,2.4273,2.4284,2.431,2.435,2.4269,2.4279,2.4282,2.4296,2.4257,2.4262,2.4272,2.4248,2.4256,2.4278,2.4233,2.4258,2.4349,2.4445,2.4459,2.4428,2.439,2.4346,2.4438,2.4763,2.5122,2.523,2.4997,2.4896,2.4718,2.4602,2.4514,2.4337,2.4262,2.4165,2.414,2.4105,2.4084,2.4094,2.407,2.4023,2.3979,2.3973,2.3945,2.3962,2.392,2.392,2.3965,2.3982,2.3974,2.3931,2.3909,2.3895,2.3837,2.3147,2.2456,2.1652,2.2313,2.5184,2.8622,3.177,3.4846,3.2134,2.5917,2.3268,2.2187,2.2585,2.3333,2.3974,2.4647,2.4781,2.4706,2.4592,2.4552,2.4537,2.457,2.456,2.4561,2.4564,2.4603,2.4683,2.4693,2.4699,2.4753,2.4794,2.4872,2.4972,2.5033,2.5062,2.5104,2.5182,2.5258,2.5305,2.5358,2.5432,2.5548,2.5626,2.5735,2.5793,2.5881,2.5992,2.6139,2.6292,2.6458,2.659,2.6743,2.6895,2.7084,2.7236,2.752,2.7693,2.7878,2.7989,2.816,2.841,2.864,2.8832,2.8963,2.9094,2.9206,2.926,2.9284,2.9217,2.9002,2.8697,2.827,2.7792,2.7334,2.6844,2.6385,2.5993,2.5797,2.5412,2.5127,2.4931,2.4753,2.4637,2.4489,2.4414,2.4325,2.4294,2.4254,2.4197,2.4129,2.4127,2.4109,2.4081,2.4077,2.4023,2.4053,2.4078,2.4065,2.4072,2.4051,2.4099,2.4073,2.4086,2.4099,2.4087,2.411,2.4118,2.4119,2.4141,2.4142,2.413,2.4155,2.4165,2.4152,2.4125,2.412,2.4122,2.4121,2.4127,2.409,2.4071,2.4027,2.4033,2.3991,2.3977,2.3937,2.3949,2.3962,2.3966,2.3927,2.3886,2.3878,2.3888,2.3898,2.391,2.3946,2.4068,2.4128,2.4159,2.412,2.3986,2.4164,2.4492,2.4828,2.4787,2.4598,2.4493,2.4338,2.4265,2.4144,2.3965,2.3868,2.3844,2.3725,2.3765,2.3673,2.3657,2.3648,2.3649,2.358,2.3578,2.3596,2.3559,2.3569,2.3532,2.3532,2.3512,2.3557,2.3603,2.3562,2.354,2.3347,2.2364,2.1621,2.0867,2.1801,2.4691,2.8271,3.1959,3.5366,3.2649,2.7096,2.4852,2.4065,2.4044,2.3703,2.4447,2.4544,2.4439,2.4234,2.4082,2.4014,2.4019,2.4027,2.4035,2.403,2.4038,2.4097,2.412,2.4145,2.4172,2.4236,2.4283,2.435,2.4379,2.4373,2.4429,2.4478,2.4544,2.4607,2.4664,2.4705,2.4743,2.4838,2.496,2.506,2.5099,2.5233,2.5354,2.5471,2.5609,2.5761,2.5938,2.6095,2.628,2.6503,2.6689,2.6898,2.7117,2.7328,2.7419,2.7585,2.7841,2.8022,2.8227,2.8399,2.8574,2.8708,2.879,2.8778,2.8651,2.8412,2.805,2.7654,2.7226,2.6714,2.6186,2.5767,2.5381,2.5088,2.4915,2.466,2.4389,2.4245,2.4128,2.408,2.3966,2.3888,2.3827,2.3811,2.3801,2.3786,2.3733,2.3736,2.3715,2.3737,2.3687,2.3691,2.3659,2.3677,2.3681,2.3687,2.366,2.3683,2.366,2.3655,2.3659,2.3632,2.365,2.3674,2.3698,2.3663,2.3641,2.3679,2.3687,2.3664,2.3695,2.3684,2.3675,2.3689,2.3693,2.3712,2.3687,2.3653,2.3629,2.3643,2.3646,2.3623,2.3601,2.361,2.359,2.3607,2.3601,2.3602,2.3609,2.3571,2.3598,2.3604,2.3572,2.3589,2.363,2.362,2.3608,2.3689,2.3772,2.3892,2.3892,2.3834,2.3707,2.3757,2.4083,2.4554,2.4564,2.4401,2.4269,2.4101,2.4091,2.3973,2.3891,2.3717,2.3615,2.3552,2.3495,2.3464,2.3434,2.3443,2.343,2.3391,2.3401,2.3353,2.3374,2.3366,2.337,2.3339,2.3373,2.3401,2.3401,2.3399,2.3374,2.3404,2.3168,2.2061,2.0906,2.1146,2.3439,2.7018,3.0215,3.4498,3.389,2.8494,2.5431,2.439,2.407,2.3653,2.381,2.4482,2.4571,2.4349,2.4185,2.4001,2.4039,2.4,2.4018,2.3965,2.404,2.4024,2.4118,2.4114,2.4176,2.4186,2.4292,2.4287,2.4382,2.4394,2.4435,2.4501,2.4609,2.4625,2.4719,2.478,2.4856,2.4952,2.5094,2.5171,2.5254,2.5374,2.5488,2.5635,2.5759,2.5888,2.6046,2.624,2.643,2.6517,2.6681,2.6859,2.7088,2.7241,2.7539,2.7756,2.7962,2.8191,2.8361,2.8595,2.876,2.8937,2.9029,2.9105,2.9012,2.8902,2.8601,2.824,2.8001,2.7535,2.7006,2.66,2.6129,2.5746,2.5359,2.507,2.4816,2.4668,2.4453,2.4318,2.4209,2.4147,2.4058,2.4094,2.4033,2.4009,2.3903,2.3995,2.398,2.3952,2.3922,2.3918,2.3889,2.3909,2.3904,2.3905,2.3871,2.3903,2.3904,2.3942,2.3926,2.3903,2.3878,2.3899,2.3928,2.3893,2.3873,2.3902,2.3873,2.3935,2.3907,2.3884,2.3852,2.3869,2.3901,2.3869,2.3858,2.3879,2.3896,2.388,2.3835,2.3819,2.3795,2.3801,2.3813,2.3812,2.3793,2.3783,2.3791,2.3771,2.3751,2.3737,2.3766,2.3768,2.3764,2.3777,2.3765,2.3747,2.375,2.3759,2.3741,2.3749,2.3731,2.3712,2.3751,2.3719,2.3747,2.3725,2.3828,2.3945,2.396,2.3916,2.3824,2.3794,2.4076,2.4577,2.4763,2.4571,2.4417,2.4258,2.416,2.4047,2.3976,2.3773,2.3713,2.3679,2.3635,2.3573,2.3539,2.3502,2.3509,2.3485,2.3424,2.3435,2.341,2.3396,2.3376,2.3373,2.3397,2.3345,2.3329,2.3347,2.3351,2.3305,2.3259,2.2482,2.1141,2.0723,2.2352,2.5572,2.883,3.2861,3.4644,3.0363,2.5905,2.4273,2.3876,2.3769,2.3878,2.4409,2.4436,2.4214,2.4127,2.3962,2.3918,2.3898,2.39,2.3894,2.3891,2.393,2.3994,2.4038,2.4077,2.4107,2.4148,2.4206,2.4258,2.4272,2.4293,2.4353,2.4474,2.4515,2.4557,2.4622,2.471,2.4793,2.4908,2.4968,2.5019,2.5107,2.5237,2.5356,2.5515,2.5692,2.58,2.5929,2.6112,2.6318,2.6478,2.6675,2.6774,2.7009,2.722,2.7461,2.7666,2.7866,2.8068,2.8263,2.847,2.8635,2.8776,2.8891,2.8879,2.8809,2.8596,2.8336,2.7911,2.7433,2.6946,2.671,2.629,2.5858,2.5498,2.5109,2.4807,2.4562,2.4351,2.4187,2.4088,2.3955,2.3899,2.3827,2.3801,2.3796,2.3741,2.3752,2.3743,2.371,2.3687,2.368,2.3676,2.3676,2.3632,2.3627,2.3583,2.3615,2.3599,2.3594,2.3613,2.361,2.3615,2.3633,2.3613,2.3621,2.3592,2.3541,2.3585,2.3619,2.3644,2.3629,2.355,2.355,2.3574,2.3586,2.3573,2.3516,2.3546,2.3521,2.3542,2.347,2.3488,2.3491,2.3487,2.3476,2.3485,2.3478,2.3513,2.3482,2.3445,2.346,2.3458,2.349,2.3516,2.3512,2.3473,2.3474,2.3437,2.3472,2.341,2.339,2.3383,2.3402,2.3473,2.3485,2.3507,2.3536,2.3572,2.3636,2.3655,2.3678,2.3543,2.3522,2.3772,2.4231,2.4494,2.4296,2.4126,2.4006,2.396,2.3852,2.3696,2.3515,2.3478,2.3387,2.3331,2.3275,2.3233,2.3234,2.3182,2.314,2.3181,2.3197,2.3198,2.3234,2.3157,2.3155,2.3177,2.3153,2.3181,2.3212,2.3198,2.3157,2.2805,2.1658,2.1061,2.0849,2.2575,2.595,2.9046,3.2856,3.3628,2.8787,2.4138,2.2532,2.213,2.2693,2.3127,2.3966,2.4176,2.4112,2.3964,2.3837,2.3783,2.3767,2.3763,2.3776,2.3811,2.3826,2.3923,2.3978,2.4025,2.402,2.4107,2.4173,2.4206,2.4244,2.4312,2.4383,2.4459,2.4499,2.456,2.4647,2.4837,2.489,2.4939,2.4979,2.5076,2.5191,2.5324,2.5473,2.5544,2.5631,2.5805,2.5983,2.6194,2.6354,2.6528,2.6746,2.6927,2.7162,2.7405,2.759,2.7723,2.79,2.8159,2.8319,2.8493,2.866,2.8787,2.8852,2.8886,2.8816,2.8605,2.8277,2.7961,2.7472,2.6929,2.6454,2.6054,2.5648,2.5332,2.5162,2.4836,2.4588,2.4398,2.421,2.4135,2.3972,2.3937,2.39,2.3882,2.3813,2.3714,2.3673,2.3739,2.372,2.3723,2.3658,2.3668,2.3733,2.3735,2.3696,2.3747,2.3738,2.3705,2.373,2.3755,2.3742,2.3765,2.3791,2.3767,2.38,2.3785,2.3777,2.3799,2.3788,2.3833,2.3851,2.3801,2.3802,2.3814,2.3848,2.3769,2.3743,2.3784,2.3735,2.3688,2.3723,2.375,2.3719,2.3718,2.3757,2.3715,2.37,2.3654,2.3709,2.3773,2.3765,2.3746,2.3712,2.3749,2.3873,2.395,2.3954,2.3971,2.3897,2.3944,2.416,2.4541,2.4727,2.4558,2.4391,2.4247,2.4185,2.4123,2.3959,2.3814,2.3808,2.3693,2.3638,2.366,2.3675,2.3626,2.3596,2.3532,2.3533,2.3555,2.35,2.3477,2.3526,2.3578,2.3553,2.3573,2.3551,2.3518,2.3569,2.3535,2.3419,2.2483,2.1346,2.1512,2.3751,2.7294,3.033,3.3931,3.3123,2.7352,2.3642,2.2236,2.2271,2.2909,2.3551,2.4211,2.4384,2.4345,2.4257,2.4211,2.4191,2.4133,2.4172,2.4153,2.4238,2.4269,2.4289,2.4292,2.4346,2.438,2.44,2.4429,2.4501,2.4551,2.4631,2.4676,2.4733,2.4764,2.4821,2.4924,2.501,2.508,2.5187,2.5261,2.5382,2.546,2.5593,2.5725,2.5841,2.5966,2.6124,2.6276,2.6421,2.6593,2.6816,2.7005,2.7233,2.732,2.751,2.7775,2.7972,2.8148,2.8297,2.8522,2.8622,2.8817,2.8921,2.8946,2.8894,2.8711,2.8416,2.8029,2.7555,2.7086,2.6629,2.6213,2.5968,2.5576,2.5257,2.5009,2.4749,2.4575,2.4378,2.4257,2.4167,2.4093,2.4024,2.4022,2.3949,2.3926,2.3913,2.39,2.3852,2.3845,2.384,2.3831,2.3851,2.3848,2.3819,2.3834,2.383,2.3852,2.3881,2.3898,2.3864,2.3907,2.3955,2.3955,2.3936,2.3922,2.3861,2.3915,2.3939,2.3928,2.3913,2.3932,2.3932,2.3961,2.3919,2.3867,2.3878,2.3896,2.3864,2.3866,2.3877,2.3873,2.3844,2.3872,2.3836,2.3817,2.3827,2.3849,2.377,2.3835,2.3857,2.3835,2.3877,2.4006,2.4063,2.4051,2.4067,2.4038,2.4045,2.4277,2.4665,2.4801,2.4613,2.4489,2.4322,2.4279,2.4187,2.4052,2.3859,2.3817,2.3801,2.3722,2.372,2.3686,2.3654,2.3596,2.3646,2.3579,2.3561,2.3552,2.3595,2.3547,2.3582,2.3558,2.3579,2.3596,2.3513,2.3531,2.353,2.3292,2.2172,2.0969,2.123,2.3444,2.7077,3.0396,3.4883,3.4482,2.9172,2.5992,2.4852,2.4417,2.4008,2.4516,2.4681,2.4623,2.4404,2.4282,2.4166,2.409,2.409,2.4058,2.41,2.4096,2.4118,2.4153,2.4205,2.423,2.428,2.4335,2.4386,2.4423,2.4462,2.4526,2.4628,2.463,2.47,2.4734,2.483,2.4873,2.4987,2.5031,2.5148,2.5231,2.5367,2.5473,2.5551,2.5688,2.5847,2.6023,2.6223,2.6376,2.6572,2.6786,2.6999,2.709,2.7295,2.7501,2.7741,2.7963,2.817,2.8359,2.8551,2.8746,2.8926,2.9018,2.9003,2.8933,2.8772,2.846,2.8031,2.7581,2.7063,2.6612,2.6166,2.5934,2.5561,2.5213,2.4931,2.4704,2.4525,2.4378,2.4289,2.4167,2.4156,2.4083,2.4052,2.4024,2.4036,2.3977,2.4021,2.3954,2.3922,2.3937,2.3931,2.3943,2.39,2.391,2.3875,2.3845,2.3885,2.3904,2.3869,2.3878,2.3854,2.3839,2.3885,2.386,2.3841,2.3912,2.39,2.3892,2.3878,2.3892,2.3873,2.3872,2.3941,2.3928,2.3858,2.3892,2.3907,2.3883,2.3899,2.3862,2.3856,2.3902,2.3864,2.3814,2.3817,2.3817,2.3798,2.3825,2.3828,2.3835,2.3801,2.3852,2.381,2.382,2.3807,2.3828,2.3866,2.3936,2.4051,2.4079,2.4086,2.4007,2.3905,2.4098,2.4494,2.4868,2.4729,2.4649,2.4497,2.4311,2.4227,2.4176,2.4075,2.3891,2.3833,2.3747,2.3763,2.3722,2.3689,2.3632,2.3597,2.3623,2.3608,2.3563,2.3578,2.3569,2.3557,2.3569,2.359,2.3555,2.3574,2.3549,2.3577,2.3565,2.2977,2.1656,2.0919,2.2066,2.4909,2.8379,3.2021,3.5235,3.2309,2.711,2.5019,2.4697,2.4365,2.3933,2.4427,2.4634,2.4611,2.433,2.4217,2.4113,2.4134,2.4058,2.4109,2.4072,2.4111,2.4127,2.4172,2.42,2.4278,2.427,2.4344,2.4383,2.443,2.4437,2.4509,2.4584,2.4635,2.4711,2.4736,2.4846,2.4926,2.4987,2.5061,2.5198,2.5318,2.5397,2.5527,2.5619,2.5778,2.5948,2.6043,2.6175,2.6348,2.6518,2.678,2.6946,2.7165,2.739,2.7604,2.7839,2.8046,2.8266,2.8448,2.8657,2.886,2.9002,2.905,2.9039,2.8968,2.8886,2.8563,2.8189,2.7734,2.7257,2.6795,2.6316,2.5875,2.5495,2.516,2.4879,2.4691,2.4502,2.4316,2.4216,2.4136,2.4093,2.4016,2.3978,2.3948,2.3926,2.39,2.3895,2.3834,2.3829,2.385,2.382,2.3797,2.38,2.3779,2.3807,2.3765,2.3754,2.3753,2.3741,2.3751,2.3756,2.3776,2.3763,2.3741,2.3726,2.3711,2.3735,2.3745,2.3766,2.3746,2.3781,2.3754,2.3754,2.3712,2.3744,2.3703,2.3733,2.3705,2.3717,2.3726,2.3678,2.37,2.3673,2.3669,2.3643,2.3634,2.3639,2.364,2.3605,2.3679,2.3679,2.3654,2.3641,2.3623,2.3591,2.3639,2.3634,2.3639,2.3628,2.3625,2.3652,2.3662,2.3635,2.3659,2.3768,2.3877,2.392,2.3891,2.3739,2.3698,2.3956,2.4476,2.4592,2.4457,2.4313,2.418,2.4071,2.3901,2.3781,2.3622,2.3586,2.3524,2.3478,2.3451,2.342,2.3387,2.3358,2.3308,2.3322,2.3355,2.3353,2.3357,2.3318,2.3278,2.3287,2.3316,2.3324,2.3325,2.3273,2.3261,2.3115,2.2259,2.0956,2.0782,2.2647,2.6068,2.9169,3.3309,3.4006,2.9122,2.5294,2.3913,2.3594,2.3501,2.3826,2.4298,2.4323,2.4112,2.4003,2.386,2.381,2.3762,2.3784,2.3798,2.3786,2.3792,2.3855,2.3914,2.3926,2.3948,2.402,2.4083,2.414,2.4173,2.4263,2.4289,2.436,2.4401,2.4461,2.4466,2.4549,2.4649,2.4747,2.4821,2.4926,2.5017,2.5118,2.5256,2.5364,2.556,2.5684,2.5827,2.6043,2.6241,2.6414,2.6627,2.6728,2.6953,2.7195,2.7378,2.7602,2.7806,2.8031,2.8244,2.8427,2.8578,2.8718,2.8805,2.8795,2.8698,2.8483,2.8111,2.7721,2.7263,2.6729,2.6513,2.6066,2.5629,2.5271,2.4913,2.4627,2.4396,2.4217,2.4056,2.3964,2.3872,2.3793,2.3719,2.3696,2.365,2.3591,2.3548,2.3526,2.3571,2.3541,2.3539,2.3546,2.3533,2.3578,2.3616,2.3626,2.3565,2.3535,2.3539,2.357,2.3553,2.3595,2.3644,2.3568,2.3621,2.3662,2.3581,2.3593,2.3604,2.3553,2.3541,2.3554,2.3574,2.3616,2.3579,2.3554,2.3565,2.3597,2.3607,2.3604,2.3492,2.3486,2.352,2.3529,2.3619,2.3531,2.3529,2.3543,2.3573,2.3559,2.3517,2.3406,2.3479,2.3518,2.3517,2.363,2.3578,2.3527,2.3524,2.3588,2.3598,2.3598,2.3602,2.3623,2.3746,2.3755,2.3731,2.3708,2.3602,2.3717,2.3983,2.4466,2.454,2.4344,2.4303,2.4172,2.4054,2.3931,2.3748,2.3578,2.3576,2.353,2.3545,2.3621,2.3645,2.3526,2.3482,2.3346,2.3385,2.3389,2.335,2.3402,2.3375,2.3376,2.336,2.3407,2.3437,2.3371,2.3347,2.3337,2.2769,2.147,2.0885,2.2186,2.5453,2.7396,3.0383,3.4112,3.2578,2.6804,2.3072,2.1707,2.1802,2.271,2.3267,2.4097,2.418,2.4189,2.401,2.4019,2.4011,2.4027,2.3993,2.4098,2.4083,2.4142,2.4111,2.4181,2.4172,2.4338,2.431,2.4394,2.4414,2.45,2.4545,2.4642,2.4663,2.4779,2.4899,2.4993,2.5032,2.5119,2.5129,2.5256,2.5304,2.5408,2.5442,2.5556,2.5705,2.5855,2.6062,2.6236,2.6444,2.6568,2.6724,2.7009,2.7162,2.7297,2.7582,2.7758,2.8048,2.8262,2.8426,2.8523,2.8757,2.8896,2.904,2.9054,2.903,2.8908,2.866,2.8319,2.7892,2.7476,2.6958,2.6447,2.6005,2.5542,2.5226,2.4932,2.4725,2.452,2.4395,2.425,2.4162,2.4098,2.4013,2.3935,2.3893,2.3863,2.3881,2.3802,2.3795,2.3797,2.3764,2.3751,2.3738,2.3771,2.3819,2.3855,2.3908,2.3839,2.3797,2.3844,2.3906,2.3928,2.3972,2.3937,2.3924,2.3932,2.3933,2.3924,2.3936,2.3938,2.3896,2.3876,2.3926,2.3945,2.3971,2.3882,2.3854,2.3814,2.378,2.3788,2.379,2.381,2.3776,2.3748,2.381,2.3731,2.3721,2.3703,2.3719,2.3732,2.377,2.3759,2.3768,2.3795,2.3798,2.383,2.3924,2.4014,2.4057,2.3985,2.3838,2.395,2.429,2.4741,2.471,2.4522,2.4413,2.4191,2.4177,2.4086,2.3926,2.3781,2.3688,2.3618,2.3574,2.3529,2.348,2.3435,2.3507,2.3484,2.3482,2.3452,2.3446,2.348,2.3522,2.3537,2.3504,2.3445,2.3419,2.3412,2.341,2.3372,2.2616,2.126,2.079,2.1243,2.3577,2.7228,3.0573,3.5036,3.3969,2.839,2.5531,2.464,2.427,2.3805,2.4393,2.4579,2.4499,2.427,2.4066,2.4,2.3897,2.3938,2.3928,2.3944,2.3974,2.4013,2.4014,2.4082,2.41,2.4143,2.4173,2.4295,2.4287,2.4349,2.4377,2.4499,2.452,2.461,2.4657,2.4745,2.4769,2.49,2.4946,2.5074,2.5111,2.5241,2.5317,2.5489,2.5602,2.5762,2.5894,2.6053,2.6227,2.6441,2.6567,2.6808,2.7022,2.7256,2.7471,2.7606,2.7791,2.7986,2.8144,2.8397,2.8548,2.8726,2.8788,2.88,2.8787,2.8569,2.8257,2.7851,2.74,2.6882,2.6381,2.5969,2.5551,2.5185,2.5094,2.4764,2.4514,2.4344,2.4211,2.4117,2.405,2.3966,2.3908,2.3864,2.3847,2.3808,2.3851,2.3802,2.3787,2.376,2.3761,2.3713,2.3693,2.3716,2.3706,2.3729,2.3656,2.3671,2.3648,2.3712,2.3703,2.3662,2.3697,2.3687,2.3717,2.3649,2.372,2.3695,2.3692,2.3694,2.3724,2.3704,2.3703,2.3757,2.3681,2.3717,2.3703,2.3688,2.3703,2.3677,2.3631,2.3688,2.365,2.3687,2.3742,2.3717,2.3669,2.3631,2.3658,2.369,2.3688,2.3698,2.3706,2.3716,2.378,2.3878,2.3881,2.3965,2.3908,2.3821,2.3961,2.4345,2.4759,2.4633,2.4452,2.4324,2.4232,2.4147,2.4025,2.3831,2.3736,2.3722,2.3696,2.3658,2.367,2.3601,2.3585,2.3552,2.3508,2.3476,2.3492,2.3454,2.3476,2.3492,2.3481,2.3514,2.3438,2.3417,2.3481,2.3533,2.3508,2.2915,2.1491,2.0677,2.1812,2.4758,2.8352,3.2203,3.5366,3.2353,2.7147,2.5043,2.456,2.4451,2.4133,2.476,2.4745,2.4428,2.4252,2.4129,2.4074,2.4059,2.4094,2.4079,2.4054,2.4086,2.4194,2.42,2.4234,2.423,2.4255,2.4332,2.4427,2.4487,2.4535,2.4594,2.4639,2.4683,2.4772,2.4856,2.493,2.4944,2.5022,2.5126,2.5224,2.5356,2.5466,2.5615,2.5727,2.5841,2.601,2.6179,2.6355,2.6559,2.6709,2.6915,2.7179,2.7275,2.7537,2.7715,2.7983,2.8228,2.839,2.8641,2.8758,2.895,2.9106,2.919,2.9187,2.901,2.8905,2.8562,2.806,2.7596,2.7093,2.6627,2.6176,2.5967,2.5682,2.5297,2.5029,2.4794,2.4609,2.4466,2.4392,2.4327,2.421,2.423,2.4153,2.4116,2.409,2.4035,2.404,2.4075,2.402,2.4005,2.4023,2.3996,2.4017,2.3995,2.4009,2.3971,2.4006,2.4062,2.4037,2.4018,2.3965,2.3994,2.4024,2.4049,2.4066,2.4083,2.4056,2.4027,2.3983,2.3963,2.4039,2.4042,2.4071,2.409,2.4043,2.4057,2.4092,2.4028,2.4001,2.4019,2.4008,2.4091,2.4095,2.4022,2.4023,2.4031,2.4038,2.4031,2.3982,2.3961,2.3989,2.403,2.4063,2.4053,2.4006,2.4,2.4085,2.4081,2.4149,2.421,2.4304,2.4328,2.4231,2.4138,2.4359,2.4776,2.5028,2.4984,2.4865,2.4727,2.4559,2.4499,2.4399,2.427,2.414,2.4096,2.4007,2.4014,2.3965,2.3912,2.3875,2.3865,2.3847,2.3868,2.3818,2.3837,2.3838,2.3855,2.3836,2.3831,2.3842,2.381,2.3842,2.3833,2.3739,2.293,2.1555,2.1256,2.2907,2.6171,2.9417,3.3513,3.4952,3.0412,2.613,2.5054,2.4362,2.4298,2.4086,2.4807,2.5024,2.4763,2.4627,2.4405,2.4379,2.4279,2.4403,2.4336,2.4448,2.4391,2.4444,2.4419,2.4549,2.452,2.4613,2.4571,2.4661,2.4651,2.4767,2.4804,2.491,2.4937,2.5034,2.5116,2.526,2.5282,2.5393,2.5412,2.5563,2.5609,2.575,2.5882,2.6068,2.6191,2.6283,2.6388,2.6564,2.671,2.6924,2.7127,2.7373,2.7561,2.7784,2.8014,2.8284,2.845,2.8657,2.8882,2.9146,2.9324,2.9401,2.9389,2.9444,2.9384,2.9206,2.8924,2.8473,2.8027,2.7626,2.7135,2.6683,2.6185,2.5794,2.5497,2.524,2.4996,2.4752,2.4695,2.4536,2.4485,2.4391,2.4388,2.4367,2.4351,2.4266,2.4222,2.4174,2.4153,2.4195,2.4179,2.4144,2.416,2.415,2.416,2.4142,2.4161,2.4166,2.4173,2.4156,2.4215,2.4184,2.4217,2.4179,2.4193,2.4135,2.4155,2.4152,2.4178,2.4129,2.4151,2.414,2.421,2.417,2.412,2.4114,2.4167,2.4143,2.4125,2.4061,2.41,2.4116,2.4113,2.4063,2.4083,2.405,2.4042,2.4034,2.4087,2.4071,2.4119,2.4036,2.4085,2.4114,2.4228,2.4225,2.4285,2.4274,2.4124,2.4377,2.4517,2.4959,2.5119,2.4964,2.481,2.4629,2.4601,2.4462,2.4258,2.4141,2.4109,2.4006,2.3999,2.3965,2.3971,2.3957,2.398,2.4006,2.3982,2.3945,2.3956,2.3973,2.3926,2.3862,2.3869,2.3877,2.3876,2.3954,2.3976,2.39,2.3098,2.1683,2.1372,2.3074,2.6488,2.9785,3.3438,3.4316,2.948,2.6249,2.3709,2.2455,2.2918,2.3469,2.4197,2.4741,2.4886,2.4761,2.4682,2.4534,2.4575,2.4576,2.4612,2.4558,2.4639,2.4598,2.4784,2.4752,2.4808,2.4829,2.4948,2.4935,2.5028,2.5,2.5013,2.5089,2.5258,2.5298,2.5426,2.5445,2.5524,2.5624,2.5737,2.5824,2.5945,2.6032,2.6162,2.6219,2.6382,2.6527,2.6731,2.6915,2.7083,2.7262,2.7497,2.7746,2.7935,2.8147,2.8354,2.853,2.8738,2.9013,2.9115,2.9363,2.9468,2.9615,2.9635,2.9642,2.9653,2.9471,2.9084,2.867,2.8118,2.7604,2.7081,2.6622,2.6243,2.5929,2.5665,2.5416,2.5198,2.5019,2.4904,2.4786,2.4667,2.4676,2.4595,2.4582,2.4555,2.4562,2.4472,2.4482,2.446,2.4438,2.4439,2.4444,2.4477,2.4469,2.4449,2.4447,2.4499,2.4551,2.4462,2.4441,2.4408,2.4446,2.442,2.4508,2.4537,2.4581,2.4508,2.4499,2.4509,2.45,2.4464,2.4519,2.4486,2.4458,2.4446,2.4482,2.4449,2.4418,2.4392,2.4402,2.4451,2.4435,2.4412,2.4394,2.4427,2.4505,2.4574,2.4575,2.4567,2.4512,2.4517,2.4761,2.5107,2.5374,2.5199,2.4994,2.4858,2.4747,2.4679,2.4674,2.4453,2.4327,2.4247,2.4197,2.421,2.4175,2.4175,2.4135,2.4127,2.4118,2.4105,2.4049,2.4038,2.4025,2.4065,2.4081,2.4039,2.3986,2.3995,2.399,2.4005,2.3927,2.3165,2.1781,2.1339,2.2888,2.6092,2.958,3.3671,3.5452,3.1288,2.6482,2.48,2.4263,2.433,2.4394,2.5043,2.5137,2.5003,2.485,2.4639,2.4551,2.4505,2.4526,2.4448,2.4467,2.4466,2.454,2.4539,2.4625,2.4636,2.4707,2.4762,2.4831,2.4894,2.4917,2.4953,2.5055,2.5095,2.5133,2.5214,2.5311,2.5377,2.5472,2.5547,2.561,2.5745,2.5894,2.5992,2.6133,2.6263,2.6383,2.6587,2.6777,2.6988,2.7096,2.7292,2.7478,2.7657,2.787,2.8149,2.8383,2.8575,2.8787,2.8988,2.9138,2.929,2.9437,2.9471,2.9377,2.9187,2.8809,2.8385,2.7884,2.7383,2.7139,2.6739,2.6302,2.5975,2.5639,2.5332,2.5061,2.4891,2.4734,2.4732,2.4649,2.4602,2.4506,2.4472,2.4422,2.4387,2.4342,2.433,2.4301,2.4288,2.4265,2.432,2.428,2.4275,2.4246,2.4228,2.4234,2.4272,2.428,2.4291,2.4277,2.4254,2.4254,2.4229,2.4244,2.4253,2.4267,2.4276,2.4272,2.4261,2.4278,2.4306,2.4293,2.4304,2.4318,2.4276,2.4281,2.4268,2.4238,2.4253,2.4264,2.4297,2.4269,2.4245,2.4234,2.4227,2.4234,2.4266,2.4277,2.427,2.4319,2.4398,2.4459,2.4465,2.4446,2.4306,2.4446,2.4781,2.517,2.5184,2.4977,2.4799,2.4704,2.4642,2.4527,2.4319,2.4228,2.4246,2.416,2.412,2.4083,2.4058,2.411,2.4063,2.4022,2.4041,2.398,2.4045,2.4,2.3959,2.3941,2.3928,2.3972,2.401,2.4008,2.3998,2.3991,2.3628,2.2355,2.1248,2.1695,2.4114,2.7955,3.1694,3.6,3.4557,2.8996,2.6379,2.557,2.5266,2.4648,2.5248,2.5272,2.5068,2.4968,2.4703,2.4587,2.4584,2.4526,2.4535,2.4522,2.4531,2.4618,2.4626,2.4653,2.4682,2.469,2.4782,2.4892,2.4882,2.4894,2.4901,2.4996,2.5006,2.5069,2.5159,2.5224,2.5255,2.5419,2.5452,2.5586,2.5665,2.5811,2.5945,2.6094,2.6171,2.6341,2.6491,2.6718,2.6919,2.7089,2.7255,2.7524,2.7593,2.7841,2.8069,2.8313,2.8517,2.8745,2.8958,2.9179,2.9318,2.9473,2.9566,2.9599,2.9407,2.9142,2.8756,2.8314,2.7805,2.733,2.6853,2.6656,2.6246,2.5878,2.555,2.5236,2.5118,2.4901,2.4789,2.4667,2.4586,2.454,2.4486,2.4472,2.4392,2.4396,2.4401,2.4354,2.434,2.4346,2.4369,2.4283,2.4342,2.4277,2.4316,2.4287,2.4316,2.4289,2.4278,2.4318,2.4238,2.4178,2.4233,2.42,2.4221,2.4221,2.4253,2.4228,2.4253,2.4251,2.4275,2.4248,2.4245,2.425,2.4269,2.4241,2.4201,2.4247,2.424,2.4242,2.4262,2.4271,2.4242,2.423,2.4237,2.4167,2.42,2.4177,2.4218,2.4228,2.4234,2.4261,2.4385,2.4467,2.451,2.453,2.4465,2.4363,2.4582,2.4921,2.5223,2.5139,2.4995,2.4903,2.4737,2.465,2.4504,2.4434,2.4276,2.4257,2.4182,2.4183,2.4124,2.4101,2.407,2.4079,2.4073,2.3994,2.3968,2.3966,2.4032,2.3992,2.3991,2.3961,2.3953,2.3971,2.3959,2.3992,2.3923,2.3465,2.2131,2.116,2.1959,2.4667,2.8436,3.2294,3.6039,3.3609,2.8184,2.5933,2.5312,2.5064,2.4627,2.5185,2.5241,2.5,2.4936,2.47,2.4609,2.4566,2.451,2.4503,2.4554,2.4541,2.4541,2.4604,2.4645,2.4714,2.4723,2.4774,2.4857,2.4902,2.4932,2.4972,2.5055,2.5104,2.5192,2.5239,2.5296,2.5358,2.5476,2.5615,2.5723,2.5778,2.5878,2.6007,2.6143,2.6295,2.6456,2.6635,2.6788,2.7034,2.7251,2.7381,2.7565,2.7744,2.7986,2.8208,2.8437,2.8669,2.8936,2.9156,2.934,2.952,2.9633,2.976,2.9716,2.956,2.9249,2.8849,2.833,2.7852,2.7367,2.7122,2.6666,2.629,2.5895,2.5551,2.5307,2.5044,2.494,2.4825,2.4751,2.4653,2.4591,2.4557,2.4516,2.4476,2.4499,2.4471,2.4454,2.4431,2.4421,2.43,2.433,2.4351,2.4368,2.4387,2.4391,2.4345,2.4335,2.435,2.4333,2.4308,2.432,2.4306,2.4384,2.442,2.4318,2.426,2.4284,2.4309,2.4331,2.4356,2.437,2.434,2.4356,2.434,2.4382,2.4421,2.4435,2.4425,2.4407,2.4379,2.4339,2.4362,2.4376,2.4342,2.4331,2.4302,2.4304,2.4305,2.4328,2.4366,2.4318,2.4319,2.4351,2.4388,2.436,2.4333,2.4306,2.4317,2.4364,2.4367,2.4331,2.4343,2.4392,2.447,2.4427,2.4533,2.4563,2.4569,2.4574,2.4448,2.4487,2.4797,2.5266,2.5423,2.5209,2.501,2.483,2.4783,2.4705,2.458,2.4406,2.4327,2.4236,2.4245,2.4234,2.4163,2.4207,2.4188,2.4162,2.4191,2.4108,2.4092,2.4114,2.4102,2.4113,2.4087,2.4089,2.4123,2.4166,2.4117,2.4115,2.3807,2.2612,2.1511,2.1414,2.2872,2.6044,2.9463,3.353,3.5402,3.1185,2.6455,2.4719,2.4287,2.4507,2.4592,2.5039,2.5332,2.5125,2.4904,2.4742,2.4686,2.4717,2.4738,2.4697,2.4694,2.4752,2.4816,2.4844,2.4879,2.4941,2.5,2.5031,2.5069,2.5144,2.5253,2.5286,2.5287,2.5343,2.5513,2.5568,2.556,2.565,2.5757,2.5817,2.5917,2.6079,2.6185,2.6336,2.6464,2.662,2.6839,2.6979,2.7102,2.7289,2.7486,2.7747,2.8024,2.8233,2.8481,2.8728,2.8907,2.9054,2.9256,2.9472,2.9752,3.0013,3.011,3.0152,3.0119,3.0044,2.9836,2.9394,2.8878,2.8364,2.7848,2.7457,2.7028,2.6635,2.628,2.5922,2.5728,2.5502,2.5268,2.5224,2.5193,2.5109,2.4948,2.4918,2.4907,2.4875,2.4832,2.483,2.4759,2.4791,2.477,2.4698,2.4718,2.4708,2.47,2.4729,2.4753,2.4757,2.4761,2.4739,2.4756,2.4702,2.4759,2.4768,2.4787,2.4741,2.4765,2.4788,2.4769,2.4837,2.4813,2.4875,2.4807,2.4798,2.4817,2.481,2.4849,2.4847,2.484,2.4801,2.4825,2.4843,2.4833,2.4856,2.4783,2.479,2.4861,2.4891,2.4846,2.4787,2.4784,2.4807,2.4862,2.484,2.4803,2.4851,2.491,2.4858,2.4883,2.4988,2.5026,2.5034,2.5059,2.5014,2.4923,2.5127,2.5463,2.5814,2.5776,2.5593,2.544,2.5309,2.5316,2.5179,2.5043,2.4794,2.4799,2.4808,2.4772,2.4737,2.4765,2.4771,2.4687,2.4634,2.466,2.4636,2.467,2.4671,2.4656,2.4685,2.4677,2.4661,2.4676,2.4702,2.4717,2.4727,2.4466,2.3355,2.236,2.2841,2.5431,2.9081,3.2334,3.57,3.3262,2.6961,2.4028,2.2963,2.3294,2.4181,2.4736,2.5166,2.5585,2.5567,2.551,2.5381,2.5307,2.5312,2.5342,2.54,2.5387,2.5411,2.5477,2.5529,2.5558,2.5603,2.5646,2.5726,2.5754,2.5835,2.5833,2.5916,2.5952,2.6027,2.6102,2.6146,2.6291,2.6415,2.6482,2.6559,2.6639,2.6738,2.6827,2.6969,2.7099,2.7292,2.7439,2.763,2.7832,2.796,2.8184,2.8392,2.8625,2.8827,2.9001,2.9232,2.9433,2.9698,2.9939,3.0144,3.0261,3.0411,3.0456,3.0446,3.0319,3.0046,2.9696,2.9239,2.8994,2.8492,2.7984,2.7491,2.7059,2.6695,2.6375,2.6103,2.5854,2.5695,2.5588,2.546,2.5353,2.5321,2.528,2.5241,2.5176,2.5174,2.5066,2.5065,2.4972,2.5012,2.4957,2.4952,2.4977,2.5017,2.5029,2.5041,2.5046,2.5023,2.4959,2.4998,2.5038,2.5097,2.5052,2.507,2.5097,2.5078,2.5112,2.5108,2.5145,2.5126,2.5151,2.5122,2.5108,2.5101,2.5141,2.5132,2.508,2.5053,2.5044,2.505,2.5039,2.498,2.497,2.4978,2.5016,2.4979,2.4938,2.4949,2.494,2.4952,2.5098,2.5189,2.516,2.521,2.523,2.5042,2.5174,2.5505,2.5856,2.5879,2.5685,2.554,2.5352,2.5287,2.5179,2.511,2.499,2.4932,2.4846,2.4813,2.4788,2.4769,2.4758,2.4739,2.4771,2.4712,2.4702,2.469,2.4685,2.4648,2.4667,2.4658,2.4639,2.4622,2.4656,2.4675,2.4652,2.4274,2.298,2.1885,2.246,2.494,2.8727,3.2397,3.6723,3.519,2.9493,2.691,2.5978,2.5577,2.5115,2.5653,2.5787,2.5732,2.5517,2.525,2.5145,2.5093,2.5089,2.5095,2.511,2.512,2.5154,2.5154,2.5258,2.5273,2.5305,2.5368,2.5383,2.5439,2.5502,2.5516,2.5573,2.5618,2.5687,2.5773,2.5824,2.5896,2.5954,2.6024,2.6125,2.6245,2.6388,2.645,2.6603,2.6732,2.6896,2.706,2.7246,2.7454,2.7675,2.7744,2.7957,2.8241,2.8419,2.8692,2.8931,2.9144,2.9367,2.9564,2.9774,2.9965,3.0051,3.0077,3.0071,2.9891,2.9554,2.913,2.8697,2.8224,2.7957,2.7457,2.6956,2.6575,2.6227,2.5948,2.5713,2.554,2.5383,2.5289,2.5199,2.5128,2.5056,2.5035,2.4989,2.4926,2.4956,2.4968,2.4911,2.4864,2.4841,2.4841,2.4795,2.4786,2.4809,2.4769,2.4693,2.4718,2.469,2.4761,2.4687,2.4725,2.4763,2.4715,2.4775,2.4834,2.48,2.4747,2.4756,2.4729,2.4762,2.4705,2.4715,2.4773,2.4776,2.4783,2.4795,2.4798,2.4816,2.4855,2.4812,2.4808,2.4783,2.4887,2.4912,2.4911,2.4923,2.4888,2.4891,2.4893,2.4905,2.4914,2.4936,2.4938,2.4953,2.4984,2.4963,2.503,2.5155,2.5242,2.5223,2.5226,2.5168,2.5108,2.5423,2.5855,2.5928,2.5829,2.569,2.5539,2.5433,2.5378,2.5303,2.5055,2.4943,2.4914,2.4859,2.483,2.4833,2.4786,2.4771,2.4706,2.4692,2.4724,2.4708,2.4673,2.4695,2.4669,2.4681,2.4627,2.4653,2.4647,2.4678,2.4665,2.4552,2.3695,2.2221,2.185,2.3422,2.6686,3.0261,3.4817,3.6666,3.2584,2.844,2.7293,2.6572,2.6013,2.5452,2.5905,2.5954,2.5645,2.5429,2.52,2.5235,2.5182,2.5222,2.515,2.5254,2.5217,2.5273,2.5251,2.5332,2.5396,2.544,2.5372,2.5473,2.5441,2.5574,2.5614,2.5684,2.573,2.5786,2.5814,2.5935,2.6043,2.6145,2.6204,2.6333,2.6383,2.6522,2.6629,2.6798,2.6913,2.7046,2.7163,2.7377,2.7563,2.7766,2.797,2.8221,2.8458,2.8706,2.8919,2.9157,2.937,2.961,2.984,3.0027,3.0214,3.0284,3.0342,3.0262,3.018,2.9889,2.9521,2.9029,2.8567,2.805,2.7589,2.7088,2.6714,2.6354,2.6066,2.5838,2.5657,2.5465,2.5347,2.5296,2.5215,2.5213,2.514,2.5082,2.5125,2.5066,2.5095,2.5059,2.5016,2.4972,2.4995,2.4971,2.5013,2.4936,2.4944,2.4907,2.4876,2.4854,2.4891,2.4869,2.4905,2.4893,2.4891,2.4875,2.4898,2.4872,2.4854,2.4871,2.4856,2.4853,2.4865,2.4858,2.4898,2.4904,2.4876,2.488,2.4937,2.4975,2.4923,2.4922,2.4932,2.4907,2.4905,2.4871,2.4881,2.4892,2.4919,2.4919,2.4896,2.4926,2.4933,2.489,2.4875,2.4884,2.4904,2.4891,2.489,2.4887,2.4905,2.4916,2.491,2.4931,2.4906,2.4926,2.4917,2.4914,2.4909,2.4932,2.4974,2.5088,2.5221,2.5202,2.5124,2.5014,2.514,2.5515,2.5913,2.5857,2.564,2.5584,2.5419,2.5389,2.5324,2.5214,2.4989,2.4964,2.4851,2.4848,2.4784,2.477,2.4723,2.4749,2.4706,2.4674,2.4708,2.4643,2.4634,2.4627,2.4649,2.4653,2.4622,2.4665,2.4685,2.4679,2.4604,2.4428,2.3335,2.2091,2.2148,2.4125,2.7735,3.1026,3.557,3.556,3.0472,2.7344,2.6337,2.6,2.5765,2.547,2.581,2.5925,2.558,2.54,2.5228,2.5222,2.5139,2.5214,2.5185,2.5247,2.5221,2.5312,2.5281,2.5314,2.5312,2.5414,2.5437,2.5527,2.552,2.5614,2.5635,2.5717,2.5706,2.585,2.5907,2.6019,2.6086,2.6193,2.6295,2.6365,2.6462,2.659,2.6689,2.6827,2.6964,2.7137,2.7222,2.7444,2.7645,2.7855,2.8044,2.8231,2.8516,2.8788,2.9008,2.928,2.9483,2.9662,2.9925,3.0166,3.0302,3.0425,3.049,3.0445,3.0304,3.0159,2.9835,2.9325,2.8829,2.8341,2.784,2.7304,2.6919,2.6568,2.6277,2.5984,2.5746,2.559,2.5488,2.5392,2.5363,2.5258,2.5232,2.518,2.5167,2.5059,2.503,2.4989,2.5047,2.5059,2.5096,2.509,2.5105,2.5019,2.4987,2.4951,2.5024,2.4953,2.4971,2.4967,2.4937,2.4897,2.4977,2.4956,2.4955,2.4986,2.4964,2.4947,2.4963,2.4917,2.4958,2.4972,2.4947,2.4996,2.5011,2.4925,2.4982,2.4996,2.5005,2.4983,2.4951,2.4966,2.494,2.4966,2.4946,2.4901,2.4934,2.4884,2.4878,2.4962,2.5012,2.495,2.4931,2.495,2.4987,2.494,2.4954,2.4894,2.4943,2.497,2.4895,2.4905,2.4907,2.4906,2.4868,2.4946,2.488,2.4903,2.4989,2.5046,2.5078,2.5139,2.5169,2.5181,2.5113,2.5065,2.5149,2.5464,2.5924,2.5921,2.5756,2.5679,2.552,2.5357,2.5295,2.5193,2.5084,2.5037,2.4919,2.4908,2.4954,2.4891,2.4859,2.4833,2.4783,2.4804,2.4742,2.4719,2.4722,2.4799,2.481,2.4777,2.4773,2.4729,2.4738,2.4735,2.4756,2.4496,2.3303,2.2287,2.2724,2.5248,2.8786,3.2063,3.566,3.3859,2.7893,2.5036,2.3929,2.3841,2.4343,2.4709,2.5499,2.5726,2.5655,2.5575,2.5389,2.5351,2.5292,2.5398,2.5405,2.5373,2.5397,2.5455,2.5519,2.5547,2.5583,2.5663,2.5657,2.5717,2.5743,2.5827,2.5897,2.5942,2.5936,2.6081,2.6149,2.6226,2.6288,2.6382,2.6457,2.6568,2.6695,2.6828,2.6905,2.7074,2.7239,2.7396,2.7437,2.7619,2.7799,2.7992,2.8226,2.8453,2.8672,2.8896,2.9225,2.944,2.9571,2.981,3.0017,3.0182,3.0338,3.0475,3.0511,3.0445,3.0261,3.0137,2.9851,2.9398,2.8874,2.8392,2.7902,2.7406,2.6952,2.6625,2.6344,2.6061,2.586,2.5712,2.5631,2.5499,2.5416,2.528,2.5265,2.5216,2.5185,2.5148,2.5172,2.5127,2.5093,2.5115,2.5091,2.5053,2.5035,2.5053,2.5058,2.5079,2.5045,2.5133,2.51,2.5099,2.5104,2.5132,2.5175,2.5146,2.5167,2.5162,2.5146,2.5177,2.5183,2.5154,2.5196,2.5202,2.5218,2.515,2.5197,2.5153,2.5126,2.5122,2.5087,2.5055,2.5071,2.503,2.5064,2.5103,2.5104,2.5082,2.509,2.5032,2.5015,2.4989,2.5005,2.4992,2.5021,2.4989,2.499,2.5009,2.4993,2.5034,2.5091,2.5141,2.5183,2.5181,2.5152,2.498,2.5101,2.5436,2.5936,2.5858,2.5677,2.5555,2.5365,2.5296,2.5165,2.5031,2.4896,2.4842,2.4777
