-24.18,-24.188,-24.204,-24.222,-24.237,-24.261,-24.26,-24.261,-24.257,-24.263,-24.27,-24.267,-24.26,-24.26,-24.26,-24.265,-24.27,-24.276,-24.283,-24.277,-24.241,-24.195,-24.079,-23.911,-23.702,-23.56,-23.636,-23.851,-24.305,-24.59,-24.66,-24.668,-24.657,-24.631,-24.556,-24.453,-24.33,-24.265,-24.219,-24.214,-24.199,-24.204,-24.19,-24.182,-24.179,-24.185,-24.171,-24.172,-24.151,-24.153,-24.145,-24.14,-24.135,-24.129,-24.121,-24.114,-24.109,-24.099,-24.084,-24.076,-24.069,-24.07,-24.05,-24.037,-24.016,-24.005,-24.003,-23.991,-23.965,-23.951,-23.932,-23.918,-23.898,-23.877,-23.858,-23.842,-23.836,-23.826,-23.809,-23.8,-23.796,-23.804,-23.817,-23.827,-23.851,-23.879,-23.899,-23.936,-23.974,-23.998,-24.022,-24.055,-24.085,-24.096,-24.109,-24.122,-24.143,-24.151,-24.155,-24.158,-24.163,-24.171,-24.176,-24.173,-24.171,-24.167,-24.173,-24.18,-24.184,-24.173,-24.179,-24.181,-24.186,-24.184,-24.176,-24.17,-24.181,-24.175,-24.18,-24.171,-24.17,-24.17,-24.171,-24.171,-24.17,-24.164,-24.166,-24.163,-24.168,-24.165,-24.163,-24.162,-24.163,-24.165,-24.157,-24.159,-24.159,-24.164,-24.166,-24.162,-24.159,-24.165,-24.165,-24.169,-24.167,-24.158,-24.163,-24.168,-24.172,-24.175,-24.171,-24.171,-24.175,-24.176,-24.178,-24.174,-24.178,-24.179,-24.186,-24.186,-24.181,-24.18,-24.179,-24.184,-24.188,-24.186,-24.179,-24.183,-24.183,-24.189,-24.183,-24.181,-24.183,-24.185,-24.184,-24.161,-24.145,-24.137,-24.123,-24.125,-24.133,-24.123,-24.115,-24.112,-24.111,-24.116,-24.122,-24.113,-24.119,-24.125,-24.144,-24.155,-24.166,-24.187,-24.207,-24.208,-24.208,-24.209,-24.212,-24.218,-24.212,-24.212,-24.213,-24.215,-24.218,-24.227,-24.231,-24.234,-24.212,-24.178,-24.111,-23.965,-23.758,-23.562,-23.49,-23.733,-24.213,-24.532,-24.631,-24.633,-24.64,-24.6,-24.569,-24.479,-24.336,-24.248,-24.192,-24.177,-24.158,-24.161,-24.155,-24.153,-24.14,-24.135,-24.127,-24.132,-24.124,-24.108,-24.1,-24.103,-24.098,-24.096,-24.083,-24.079,-24.07,-24.068,-24.058,-24.048,-24.029,-24.028,-24.019,-24.01,-23.989,-23.976,-23.966,-23.955,-23.938,-23.917,-23.899,-23.883,-23.873,-23.861,-23.845,-23.826,-23.811,-23.8,-23.789,-23.779,-23.769,-23.769,-23.782,-23.793,-23.811,-23.833,-23.865,-23.904,-23.94,-23.971,-23.994,-24.024,-24.043,-24.066,-24.09,-24.097,-24.111,-24.123,-24.139,-24.146,-24.149,-24.146,-24.151,-24.157,-24.165,-24.159,-24.16,-24.159,-24.167,-24.166,-24.165,-24.156,-24.161,-24.163,-24.165,-24.161,-24.156,-24.155,-24.162,-24.158,-24.152,-24.151,-24.154,-24.158,-24.164,-24.153,-24.155,-24.151,-24.155,-24.157,-24.156,-24.151,-24.151,-24.156,-24.164,-24.162,-24.157,-24.153,-24.159,-24.164,-24.168,-24.165,-24.164,-24.173,-24.17,-24.169,-24.17,-24.171,-24.174,-24.181,-24.179,-24.18,-24.177,-24.178,-24.182,-24.186,-24.182,-24.175,-24.18,-24.184,-24.186,-24.187,-24.186,-24.187,-24.189,-24.19,-24.188,-24.182,-24.181,-24.184,-24.189,-24.188,-24.182,-24.173,-24.154,-24.149,-24.137,-24.121,-24.122,-24.135,-24.128,-24.117,-24.105,-24.111,-24.123,-24.119,-24.118,-24.121,-24.141,-24.157,-24.166,-24.183,-24.204,-24.211,-24.206,-24.222,-24.222,-24.222,-24.22,-24.22,-24.227,-24.225,-24.221,-24.225,-24.238,-24.252,-24.247,-24.216,-24.134,-24.074,-24.074,-23.722,-23.532,-23.539,-23.903,-24.388,-24.614,-24.666,-24.649,-24.647,-24.588,-24.528,-24.371,-24.274,-24.204,-24.199,-24.175,-24.185,-24.161,-24.167,-24.156,-24.163,-24.151,-24.151,-24.127,-24.13,-24.123,-24.128,-24.105,-24.101,-24.095,-24.099,-24.09,-24.078,-24.059,-24.056,-24.051,-24.046,-24.037,-24.023,-24.007,-24.002,-23.988,-23.974,-23.952,-23.936,-23.927,-23.912,-23.892,-23.875,-23.852,-23.841,-23.83,-23.812,-23.799,-23.785,-23.784,-23.787,-23.788,-23.792,-23.802,-23.825,-23.862,-23.893,-23.931,-23.953,-23.987,-24.02,-24.054,-24.068,-24.089,-24.104,-24.125,-24.13,-24.141,-24.145,-24.152,-24.155,-24.163,-24.162,-24.164,-24.165,-24.169,-24.174,-24.178,-24.171,-24.172,-24.173,-24.18,-24.176,-24.174,-24.166,-24.174,-24.173,-24.176,-24.169,-24.167,-24.165,-24.17,-24.168,-24.172,-24.162,-24.164,-24.165,-24.172,-24.166,-24.168,-24.168,-24.173,-24.174,-24.173,-24.169,-24.169,-24.176,-24.177,-24.175,-24.173,-24.174,-24.179,-24.18,-24.179,-24.178,-24.181,-24.179,-24.187,-24.184,-24.18,-24.178,-24.185,-24.186,-24.185,-24.187,-24.19,-24.19,-24.189,-24.189,-24.188,-24.181,-24.186,-24.191,-24.19,-24.189,-24.184,-24.184,-24.189,-24.191,-24.187,-24.185,-24.191,-24.191,-24.19,-24.169,-24.151,-24.144,-24.131,-24.127,-24.126,-24.137,-24.123,-24.119,-24.113,-24.116,-24.119,-24.112,-24.119,-24.122,-24.144,-24.155,-24.17,-24.197,-24.217,-24.215,-24.218,-24.222,-24.224,-24.23,-24.228,-24.222,-24.219,-24.218,-24.228,-24.234,-24.239,-24.246,-24.232,-24.206,-24.14,-24.011,-23.824,-23.633,-23.517,-23.688,-24.172,-24.53,-24.622,-24.643,-24.65,-24.639,-24.59,-24.519,-24.391,-24.28,-24.21,-24.178,-24.186,-24.187,-24.178,-24.173,-24.156,-24.159,-24.148,-24.151,-24.136,-24.137,-24.133,-24.123,-24.121,-24.118,-24.099,-24.095,-24.088,-24.088,-24.077,-24.065,-24.052,-24.051,-24.04,-24.028,-24.016,-24.002,-23.991,-23.979,-23.963,-23.956,-23.941,-23.922,-23.916,-23.901,-23.884,-23.872,-23.859,-23.855,-23.836,-23.827,-23.81,-23.818,-23.822,-23.835,-23.858,-23.877,-23.909,-23.939,-23.977,-23.986,-24.015,-24.042,-24.072,-24.098,-24.11,-24.123,-24.133,-24.147,-24.171,-24.171,-24.18,-24.184,-24.184,-24.189,-24.193,-24.189,-24.192,-24.195,-24.196,-24.201,-24.202,-24.202,-24.199,-24.204,-24.207,-24.2,-24.194,-24.195,-24.193,-24.197,-24.188,-24.191,-24.194,-24.193,-24.194,-24.19,-24.188,-24.191,-24.19,-24.192,-24.188,-24.186,-24.192,-24.19,-24.198,-24.199,-24.194,-24.188,-24.194,-24.208,-24.202,-24.2,-24.206,-24.202,-24.207,-24.199,-24.205,-24.203,-24.21,-24.208,-24.212,-24.209,-24.206,-24.202,-24.221,-24.223,-24.211,-24.211,-24.213,-24.227,-24.224,-24.223,-24.212,-24.201,-24.192,-24.179,-24.165,-24.163,-24.167,-24.173,-24.172,-24.149,-24.142,-24.145,-24.159,-24.158,-24.161,-24.159,-24.184,-24.202,-24.214,-24.237,-24.24,-24.241,-24.24,-24.253,-24.249,-24.254,-24.251,-24.256,-24.257,-24.258,-24.247,-24.255,-24.27,-24.279,-24.265,-24.219,-24.172,-24.05,-23.885,-23.699,-23.614,-23.87,-24.331,-24.613,-24.656,-24.609,-24.605,-24.61,-24.581,-24.534,-24.457,-24.35,-24.273,-24.23,-24.211,-24.201,-24.196,-24.186,-24.181,-24.176,-24.175,-24.169,-24.164,-24.162,-24.163,-24.15,-24.146,-24.143,-24.134,-24.13,-24.114,-24.111,-24.103,-24.091,-24.084,-24.092,-24.069,-24.06,-24.046,-24.044,-24.025,-24.009,-23.99,-23.985,-23.977,-23.961,-23.942,-23.927,-23.92,-23.91,-23.903,-23.882,-23.877,-23.872,-23.871,-23.867,-23.871,-23.876,-23.895,-23.93,-23.952,-23.984,-23.996,-24.022,-24.055,-24.081,-24.101,-24.112,-24.135,-24.141,-24.157,-24.167,-24.178,-24.181,-24.193,-24.202,-24.196,-24.2,-24.209,-24.21,-24.214,-24.214,-24.204,-24.208,-24.208,-24.209,-24.207,-24.205,-24.2,-24.207,-24.204,-24.215,-24.203,-24.201,-24.198,-24.205,-24.208,-24.207,-24.196,-24.195,-24.197,-24.2,-24.192,-24.19,-24.194,-24.196,-24.201,-24.194,-24.193,-24.196,-24.203,-24.197,-24.203,-24.201,-24.202,-24.2,-24.216,-24.215,-24.212,-24.209,-24.214,-24.211,-24.215,-24.205,-24.205,-24.2,-24.194,-24.182,-24.169,-24.157,-24.163,-24.178,-24.157,-24.138,-24.13,-24.151,-24.16,-24.161,-24.158,-24.158,-24.162,-24.184,-24.206,-24.223,-24.24,-24.233,-24.246,-24.25,-24.249,-24.248,-24.25,-24.252,-24.26,-24.256,-24.249,-24.261,-24.263,-24.278,-24.275,-24.258,-24.223,-24.169,-24.045,-23.879,-23.699,-23.634,-23.928,-24.377,-24.6,-24.58,-24.579,-24.586,-24.584,-24.538,-24.485,-24.411,-24.307,-24.247,-24.219,-24.212,-24.194,-24.186,-24.182,-24.186,-24.174,-24.17,-24.161,-24.156,-24.144,-24.137,-24.128,-24.124,-24.121,-24.121,-24.1,-24.098,-24.094,-24.081,-24.082,-24.072,-24.062,-24.054,-24.046,-24.039,-24.015,-23.994,-23.976,-23.974,-23.957,-23.944,-23.921,-23.91,-23.904,-23.894,-23.887,-23.865,-23.857,-23.846,-23.847,-23.848,-23.849,-23.847,-23.859,-23.893,-23.914,-23.938,-23.966,-23.996,-24.033,-24.048,-24.078,-24.094,-24.104,-24.117,-24.138,-24.146,-24.143,-24.151,-24.17,-24.173,-24.174,-24.174,-24.163,-24.17,-24.175,-24.175,-24.169,-24.175,-24.181,-24.182,-24.176,-24.171,-24.168,-24.177,-24.181,-24.177,-24.171,-24.172,-24.177,-24.173,-24.18,-24.168,-24.16,-24.167,-24.167,-24.162,-24.16,-24.153,-24.156,-24.164,-24.166,-24.169,-24.166,-24.164,-24.166,-24.169,-24.167,-24.175,-24.175,-24.177,-24.182,-24.177,-24.173,-24.181,-24.178,-24.183,-24.184,-24.182,-24.178,-24.175,-24.162,-24.156,-24.13,-24.117,-24.125,-24.136,-24.131,-24.109,-24.09,-24.09,-24.105,-24.11,-24.108,-24.107,-24.117,-24.139,-24.16,-24.167,-24.19,-24.197,-24.21,-24.219,-24.219,-24.211,-24.211,-24.21,-24.213,-24.221,-24.218,-24.208,-24.219,-24.222,-24.221,-24.186,-24.146,-24.071,-23.958,-23.781,-23.588,-23.57,-23.933,-24.327,-24.531,-24.577,-24.605,-24.623,-24.634,-24.614,-24.488,-24.309,-24.234,-24.197,-24.128,-24.046,-24.035,-24.141,-24.183,-24.187,-24.159,-24.19,-24.141,-24.11,-24.106,-24.123,-24.119,-24.121,-24.098,-24.11,-24.099,-24.124,-24.107,-24.073,-24.049,-24.09,-24.096,-24.059,-23.998,-23.943,-23.963,-23.957,-23.942,-23.932,-23.881,-23.838,-23.803,-23.717,-23.812,-23.952,-23.98,-23.919,-23.88,-23.858,-23.843,-23.832,-23.824,-23.839,-23.855,-23.863,-23.904,-23.931,-23.974,-24.012,-24.052,-24.073,-24.094,-24.118,-24.121,-24.128,-24.143,-24.134,-24.099,-24.115,-24.132,-24.096,-24.122,-24.211,-24.236,-24.236,-24.229,-24.22,-24.201,-24.2,-24.201,-24.201,-24.195,-24.192,-24.16,-24.178,-24.19,-24.176,-24.177,-24.171,-24.172,-24.171,-24.172,-24.165,-24.175,-24.203,-24.222,-24.22,-24.179,-24.133,-24.133,-24.12,-24.132,-24.12,-24.111,-24.12,-24.161,-24.176,-24.156,-24.142,-24.158,-24.159,-24.17,-24.152,-24.147,-24.139,-24.138,-24.158,-24.156,-24.145,-24.142,-24.153,-24.171,-24.108,-24.065,-24.051,-24.044,-24.031,-24.06,-24.083,-24.074,-24.064,-24.08,-24.112,-24.082,-24.069,-24.069,-24.093,-24.114,-24.126,-24.136,-24.158,-24.161,-24.165,-24.16,-24.167,-24.156,-24.171,-24.166,-24.167,-24.176,-24.173,-24.168,-24.171,-24.177,-24.162,-24.131,-24.074,-23.943,-23.851,-23.624,-23.447,-23.479,-23.884,-24.341,-24.56,-24.598,-24.589,-24.588,-24.515,-24.419,-24.267,-24.157,-24.112,-24.11,-24.096,-24.067,-24.091,-24.121,-24.113,-24.113,-24.093,-24.088,-24.085,-24.083,-24.07,-24.064,-24.046,-24.05,-24.03,-24.029,-24.011,-24.01,-23.996,-23.992,-23.98,-23.973,-23.953,-23.951,-23.93,-23.91,-23.893,-23.897,-23.888,-23.873,-23.852,-23.832,-23.815,-23.827,-23.798,-23.763,-23.727,-23.716,-23.717,-23.714,-23.708,-23.707,-23.712,-23.729,-23.751,-23.776,-23.808,-23.84,-23.867,-23.904,-23.942,-23.97,-23.974,-24.001,-24.046,-24.062,-24.076,-24.08,-24.089,-24.093,-24.099,-24.092,-24.095,-24.089,-24.095,-24.094,-24.096,-24.089,-24.094,-24.095,-24.096,-24.09,-24.093,-24.089,-24.096,-24.101,-24.11,-24.093,-24.085,-24.074,-24.082,-24.08,-24.092,-24.098,-24.094,-24.08,-24.081,-24.073,-24.07,-24.072,-24.078,-24.075,-24.08,-24.082,-24.085,-24.079,-24.08,-24.076,-24.079,-24.084,-24.087,-24.086,-24.09,-24.083,-24.073,-24.067,-24.086,-24.1,-24.088,-24.07,-24.047,-23.995,-23.996,-24.045,-24.058,-24.044,-24.022,-24.032,-24.005,-24.008,-24.015,-24.009,-23.997,-23.989,-24.009,-24.07,-24.107,-24.087,-24.099,-24.105,-24.098,-24.096,-24.073,-24.116,-24.083,-24.11,-24.053,-23.937,-23.978,-24.052,-24.112,-24.198,-24.241,-24.223,-24.195,-24.092,-23.96,-23.763,-23.527,-23.416,-23.629,-24.086,-24.444,-24.579,-24.594,-24.517,-24.509,-24.485,-24.363,-24.269,-24.172,-24.107,-24.131,-24.093,-24.095,-24.053,-24.093,-24.097,-24.103,-24.103,-24.096,-24.029,-23.924,-23.923,-24.117,-24.146,-24.085,-24.045,-24.024,-24.018,-24.009,-24.004,-23.978,-23.931,-23.885,-23.926,-23.92,-23.827,-23.762,-23.932,-24.027,-24.021,-23.991,-23.882,-23.87,-23.838,-23.794,-23.792,-23.776,-23.783,-23.759,-23.769,-23.767,-23.789,-23.751,-23.783,-23.775,-23.81,-23.847,-23.899,-23.921,-23.949,-23.981,-23.946,-23.879,-23.87,-24.031,-24.079,-24.103,-24.2,-24.254,-24.22,-24.168,-24.171,-24.161,-24.169,-24.164,-24.171,-24.154,-24.157,-24.15,-24.167,-24.178,-24.172,-24.156,-24.164,-24.154,-24.127,-24.044,-24.041,-24.148,-24.27,-24.248,-24.235,-24.216,-24.192,-24.151,-24.166,-24.181,-24.19,-24.166,-24.089,-23.981,-24.049,-24.226,-24.28,-24.256,-24.248,-24.3,-24.306,-24.264,-24.248,-24.253,-24.261,-24.26,-24.277,-24.276,-24.281,-24.295,-24.313,-24.314,-24.321,-24.31,-24.286,-24.293,-24.226,-24.173,-24.141,-24.173,-24.19,-24.136,-24.194,-24.339,-24.399,-24.394,-24.332,-24.333,-24.312,-24.333,-24.366,-24.386,-24.381,-24.372,-24.399,-24.41,-24.418,-24.429,-24.422,-24.418,-24.388,-24.367,-24.397,-24.42,-24.465,-24.494,-24.466,-24.43,-24.395,-24.336,-24.191,-24.056,-23.85,-23.808,-24.184,-24.575,-24.679,-24.786,-24.779,-24.814,-24.802,-24.756,-24.735,-24.671,-24.538,-24.475,-24.439,-24.417,-24.404,-24.387,-24.379,-24.379,-24.341,-24.251,-24.237,-24.304,-24.406,-24.433,-24.406,-24.383,-24.357,-24.347,-24.332,-24.317,-24.322,-24.331,-24.328,-24.334,-24.282,-24.254,-24.259,-24.232,-24.235,-24.186,-24.142,-24.116,-24.147,-24.184,-24.201,-24.184,-24.185,-24.175,-24.176,-24.121,-24.096,-24.088,-24.065,-24.072,-24.083,-24.11,-24.112,-24.122,-24.148,-24.169,-24.183,-24.209,-24.209,-24.24,-24.254,-24.25,-24.289,-24.292,-24.278,-24.191,-24.133,-24.177,-24.345,-24.441,-24.449,-24.417,-24.383,-24.378,-24.364,-24.368,-24.358,-24.346,-24.357,-24.37,-24.364,-24.366,-24.349,-24.335,-24.346,-24.355,-24.341,-24.355,-24.368,-24.387,-24.372,-24.357,-24.369,-24.331,-24.336,-24.327,-24.327,-24.351,-24.36,-24.376,-24.319,-24.208,-24.175,-24.291,-24.425,-24.455,-24.421,-24.378,-24.351,-24.36,-24.353,-24.341,-24.331,-24.328,-24.322,-24.322,-24.332,-24.336,-24.318,-24.288,-24.257,-24.187,-24.172,-24.192,-24.228,-24.302,-24.328,-24.315,-24.275,-24.266,-24.259,-24.266,-24.31,-24.305,-24.304,-24.315,-24.33,-24.331,-24.315,-24.307,-24.319,-24.325,-24.278,-24.198,-24.103,-24.26,-24.392,-24.355,-24.277,-24.243,-24.281,-24.268,-24.124,-23.894,-23.806,-23.703,-23.786,-24.228,-24.519,-24.561,-24.523,-24.533,-24.525,-24.358,-24.194,-24.153,-24.267,-24.361,-24.296,-24.148,-24.134,-24.143,-24.169,-24.155,-24.12,-24.084,-24.047,-24.045,-24.047,-24.046,-24.047,-23.949,-23.935,-23.932,-23.99,-24.042,-24.024,-23.978,-23.973,-23.97,-23.953,-23.92,-23.851,-23.805,-23.789,-23.849,-23.875,-23.875,-23.846,-23.787,-23.665,-23.666,-23.724,-23.76,-23.72,-23.701,-23.718,-23.64,-23.597,-23.598,-23.583,-23.558,-23.555,-23.618,-23.723,-23.693,-23.571,-23.516,-23.675,-23.901,-23.903,-23.879,-23.877,-23.861,-23.843,-23.821,-23.837,-23.862,-23.853,-23.839,-23.834,-23.834,-23.801,-23.787,-23.762,-23.773,-23.717,-23.585,-23.624,-23.715,-23.797,-23.854,-23.802,-23.791,-23.794,-23.781,-23.754,-23.71,-23.683,-23.699,-23.686,-23.678,-23.674,-23.668,-23.659,-23.637,-23.636,-23.549,-23.483,-23.648,-23.662,-23.507,-23.469,-23.574,-23.685,-23.674,-23.666,-23.624,-23.61,-23.596,-23.575,-23.558,-23.536,-23.514,-23.506,-23.507,-23.488,-23.414,-23.383,-23.474,-23.527,-23.526,-23.479,-23.432,-23.398,-23.393,-23.39,-23.429,-23.502,-23.531,-23.547,-23.516,-23.448,-23.438,-23.485,-23.54,-23.545,-23.463,-23.469,-23.467,-23.512,-23.524,-23.486,-23.478,-23.454,-23.48,-23.467,-23.401,-23.308,-23.213,-23.122,-22.951,-22.834,-22.925,-23.058,-23.456,-23.726,-23.785,-23.747,-23.743,-23.75,-23.72,-23.651,-23.53,-23.404,-23.347,-23.331,-23.318,-23.301,-23.284,-23.282,-23.272,-23.277,-23.255,-23.252,-23.236,-23.228,-23.212,-23.209,-23.192,-23.203,-23.2,-23.188,-23.158,-23.136,-23.08,-23.051,-23.087,-23.165,-23.186,-23.162,-23.131,-23.095,-23.019,-22.944,-23.004,-23.108,-23.11,-23.055,-22.993,-22.96,-22.916,-22.924,-22.909,-22.9,-22.865,-22.841,-22.841,-22.835,-22.829,-22.831,-22.84,-22.856,-22.896,-22.949,-22.997,-23.035,-23.048,-23.032,-23.049,-23.075,-23.131,-23.152,-23.156,-23.188,-23.198,-23.192,-23.197,-23.198,-23.191,-23.185,-23.184,-23.201,-23.207,-23.217,-23.209,-23.198,-23.193,-23.207,-23.194,-23.184,-23.164,-23.167,-23.171,-23.171,-23.154,-23.181,-23.21,-23.211,-23.188,-23.18,-23.199,-23.205,-23.212,-23.198,-23.197,-23.177,-23.169,-23.177,-23.211,-23.229,-23.225,-23.209,-23.208,-23.226,-23.218,-23.212,-23.218,-23.213,-23.196,-23.186,-23.172,-23.144,-23.15,-23.213,-23.24,-23.217,-23.226,-23.255,-23.263,-23.238,-23.219,-23.162,-23.19,-23.205,-23.187,-23.168,-23.13,-23.16,-23.201,-23.195,-23.174,-23.169,-23.186,-23.201,-23.214,-23.224,-23.259,-23.28,-23.284,-23.26,-23.244,-23.261,-23.282,-23.284,-23.279,-23.263,-23.244,-23.262,-23.308,-23.331,-23.34,-23.295,-23.224,-23.158,-23.069,-22.895,-22.689,-22.598,-22.764,-23.239,-23.558,-23.687,-23.713,-23.719,-23.727,-23.667,-23.5,-23.365,-23.31,-23.267,-23.285,-23.247,-23.246,-23.236,-23.216,-23.19,-23.194,-23.197,-23.238,-23.241,-23.226,-23.204,-23.195,-23.184,-23.179,-23.162,-23.147,-23.146,-23.143,-23.149,-23.13,-23.115,-23.112,-23.074,-23.082,-23.116,-23.106,-23.072,-23.035,-22.983,-22.97,-22.997,-23.004,-23.005,-22.985,-22.974,-22.947,-22.917,-22.917,-22.915,-22.902,-22.906,-22.915,-22.918,-22.935,-22.964,-22.993,-23.024,-23.06,-23.099,-23.116,-23.117,-23.123,-23.176,-23.204,-23.219,-23.219,-23.195,-23.212,-23.274,-23.316,-23.313,-23.29,-23.278,-23.286,-23.284,-23.274,-23.268,-23.269,-23.266,-23.273,-23.285,-23.291,-23.304,-23.311,-23.313,-23.307,-23.274,-23.252,-23.259,-23.295,-23.312,-23.302,-23.306,-23.303,-23.303,-23.302,-23.295,-23.273,-23.267,-23.282,-23.283,-23.297,-23.295,-23.299,-23.3,-23.289,-23.285,-23.311,-23.329,-23.321,-23.331,-23.32,-23.314,-23.292,-23.311,-23.318,-23.332,-23.333,-23.333,-23.336,-23.338,-23.316,-23.305,-23.322,-23.338,-23.358,-23.334,-23.319,-23.312,-23.322,-23.351,-23.374,-23.378,-23.365,-23.367,-23.357,-23.345,-23.335,-23.341,-23.343,-23.344,-23.339,-23.324,-23.3,-23.299,-23.309,-23.297,-23.261,-23.267,-23.289,-23.292,-23.283,-23.294,-23.315,-23.356,-23.381,-23.379,-23.392,-23.4,-23.4,-23.387,-23.387,-23.397,-23.408,-23.411,-23.41,-23.413,-23.417,-23.419,-23.415,-23.435,-23.448,-23.414,-23.356,-23.266,-23.132,-22.919,-22.735,-22.701,-22.842,-23.357,-23.75,-23.904,-23.881,-23.86,-23.842,-23.791,-23.706,-23.556,-23.452,-23.405,-23.406,-23.385,-23.386,-23.361,-23.359,-23.332,-23.344,-23.343,-23.348,-23.334,-23.349,-23.354,-23.34,-23.319,-23.311,-23.304,-23.308,-23.295,-23.285,-23.259,-23.263,-23.268,-23.264,-23.237,-23.231,-23.226,-23.221,-23.209,-23.193,-23.162,-23.159,-23.149,-23.131,-23.089,-23.069,-23.096,-23.096,-23.07,-23.049,-23.037,-23.026,-23.032,-23.031,-23.048,-23.059,-23.054,-23.07,-23.118,-23.128,-23.141,-23.146,-23.25,-23.246,-23.194,-23.24,-23.35,-23.413,-23.383,-23.39,-23.373,-23.389,-23.379,-23.403,-23.384,-23.354,-23.316,-23.302,-23.362,-23.404,-23.289,-23.317,-23.44,-23.506,-23.438,-23.396,-23.408,-23.452,-23.462,-23.456,-23.458,-23.439,-23.425,-23.414,-23.431,-23.397,-23.396,-23.399,-23.41,-23.381,-23.321,-23.308,-23.384,-23.424,-23.37,-23.376,-23.429,-23.461,-23.5,-23.47,-23.452,-23.443,-23.424,-23.421,-23.434,-23.419,-23.393,-23.356,-23.377,-23.452,-23.47,-23.427,-23.416,-23.42,-23.423,-23.427,-23.392,-23.344,-23.379,-23.421,-23.48,-23.464,-23.455,-23.441,-23.433,-23.396,-23.343,-23.388,-23.463,-23.452,-23.427,-23.419,-23.449,-23.474,-23.472,-23.439,-23.422,-23.425,-23.438,-23.445,-23.436,-23.39,-23.351,-23.329,-23.339,-23.405,-23.392,-23.335,-23.351,-23.358,-23.4,-23.35,-23.369,-23.407,-23.409,-23.391,-23.401,-23.415,-23.433,-23.47,-23.499,-23.513,-23.475,-23.468,-23.45,-23.445,-23.469,-23.477,-23.468,-23.459,-23.408,-23.417,-23.495,-23.553,-23.537,-23.488,-23.395,-23.264,-23.045,-22.856,-22.807,-23.103,-23.577,-23.747,-23.857,-23.862,-23.916,-23.953,-23.859,-23.688,-23.504,-23.519,-23.549,-23.519,-23.46,-23.475,-23.454,-23.457,-23.431,-23.424,-23.412,-23.428,-23.416,-23.423,-23.378,-23.353,-23.361,-23.413,-23.403,-23.366,-23.358,-23.287,-23.181,-23.232,-23.343,-23.406,-23.355,-23.318,-23.322,-23.341,-23.315,-23.286,-23.277,-23.254,-23.221,-23.217,-23.187,-23.179,-23.109,-23.059,-23.093,-23.159,-23.165,-23.146,-23.122,-23.085,-23.116,-23.15,-23.13,-23.105,-23.153,-23.257,-23.304,-23.341,-23.339,-23.33,-23.353,-23.375,-23.427,-23.437,-23.452,-23.456,-23.463,-23.466,-23.462,-23.466,-23.466,-23.476,-23.468,-23.458,-23.466,-23.469,-23.524,-23.523,-23.51,-23.502,-23.493,-23.498,-23.512,-23.501,-23.509,-23.486,-23.506,-23.505,-23.504,-23.498,-23.497,-23.444,-23.449,-23.505,-23.509,-23.496,-23.527,-23.553,-23.56,-23.544,-23.532,-23.52,-23.511,-23.498,-23.501,-23.533,-23.561,-23.57,-23.582,-23.549,-23.549,-23.554,-23.546,-23.565,-23.579,-23.577,-23.571,-23.569,-23.582,-23.578,-23.569,-23.524,-23.467,-23.497,-23.578,-23.63,-23.589,-23.58,-23.636,-23.612,-23.599,-23.598,-23.602,-23.597,-23.586,-23.583,-23.585,-23.59,-23.604,-23.606,-23.585,-23.591,-23.583,-23.591,-23.589,-23.59,-23.567,-23.562,-23.583,-23.574,-23.556,-23.565,-23.565,-23.552,-23.553,-23.534,-23.53,-23.537,-23.538,-23.565,-23.56,-23.566,-23.59,-23.602,-23.623,-23.636,-23.626,-23.638,-23.674,-23.655,-23.654,-23.639,-23.67,-23.691,-23.701,-23.688,-23.666,-23.69,-23.688,-23.667,-23.639,-23.572,-23.456,-23.275,-23.119,-23.077,-23.369,-23.826,-24.064,-24.08,-24.066,-24.047,-24.057,-24.033,-23.978,-23.901,-23.783,-23.712,-23.663,-23.651,-23.664,-23.66,-23.637,-23.628,-23.638,-23.631,-23.627,-23.612,-23.613,-23.63,-23.624,-23.626,-23.613,-23.597,-23.601,-23.614,-23.611,-23.613,-23.585,-23.599,-23.568,-23.568,-23.534,-23.53,-23.556,-23.553,-23.526,-23.515,-23.481,-23.464,-23.484,-23.485,-23.476,-23.461,-23.461,-23.477,-23.446,-23.409,-23.397,-23.387,-23.389,-23.401,-23.427,-23.431,-23.452,-23.502,-23.542,-23.544,-23.573,-23.601,-23.602,-23.639,-23.658,-23.676,-23.683,-23.717,-23.734,-23.744,-23.731,-23.735,-23.747,-23.753,-23.756,-23.757,-23.77,-23.796,-23.777,-23.751,-23.75,-23.768,-23.774,-23.789,-23.779,-23.779,-23.797,-23.787,-23.792,-23.791,-23.782,-23.773,-23.78,-23.8,-23.804,-23.804,-23.799,-23.791,-23.834,-23.857,-23.824,-23.816,-23.789,-23.78,-23.783,-23.846,-23.861,-23.837,-23.82,-23.809,-23.819,-23.812,-23.814,-23.816,-23.835,-23.834,-23.837,-23.84,-23.853,-23.865,-23.867,-23.854,-23.863,-23.854,-23.87,-23.869,-23.887,-23.904,-23.944,-23.926,-23.898,-23.852,-23.83,-23.84,-23.843,-23.844,-23.858,-23.851,-23.825,-23.82,-23.806,-23.818,-23.855,-23.885,-23.864,-23.849,-23.836,-23.851,-23.874,-23.894,-23.919,-23.915,-23.937,-23.944,-23.993,-24.031,-24.012,-23.979,-23.951,-23.971,-23.976,-23.993,-23.958,-23.922,-23.911,-23.887,-23.898,-23.81,-23.664,-23.462,-23.336,-23.417,-23.849,-24.159,-24.291,-24.335,-24.304,-24.297,-24.252,-24.213,-24.154,-24.194,-24.165,-24.033,-23.957,-23.883,-23.861,-23.843,-23.835,-23.857,-23.866,-23.874,-23.857,-23.883,-23.878,-23.865,-23.85,-23.799,-23.773,-23.78,-23.817,-23.806,-23.823,-23.834,-23.821,-23.828,-23.801,-23.779,-23.746,-23.74,-23.723,-23.71,-23.697,-23.697,-23.71,-23.729,-23.75,-23.706,-23.663,-23.599,-23.584,-23.634,-23.685,-23.803,-23.694,-23.631,-23.607,-23.584,-23.614,-23.605,-23.648,-23.73,-23.798,-23.865,-23.868,-23.85,-23.842,-23.872,-23.894,-23.864,-23.891,-23.922,-23.918,-23.887,-23.946,-23.987,-23.997,-23.955,-23.951,-23.972,-24.013,-24.008,-23.977,-23.946,-23.89,-23.856,-23.865,-23.885,-23.913,-23.962,-23.962,-23.951,-23.965,-23.97,-24.024,-23.971,-23.931,-23.967,-23.943,-23.936,-23.971,-24.027,-24.029,-23.933,-23.943,-23.973,-23.942,-23.933,-23.906,-23.909,-23.915,-23.916,-23.925,-23.953,-23.98,-23.997,-23.957,-24.021,-24.05,-23.984,-23.929,-23.941,-24.004,-24.006,-23.966,-23.937,-23.932,-23.95,-23.956,-23.976,-23.99,-23.996,-23.989,-23.985,-23.932,-23.901,-23.912,-23.914,-23.913,-23.928,-23.939,-23.924,-23.942,-23.922,-23.887,-23.887,-23.883,-23.946,-24.069,-24.018,-23.998,-23.987,-23.979,-24.022,-23.998,-24.03,-24.126,-24.107,-24.042,-23.961,-23.942,-23.962,-23.993,-24.057,-24.083,-24.085,-24.012,-23.984,-23.886,-23.759,-23.575,-23.463,-23.436,-23.855,-24.283,-24.501,-24.444,-24.414,-24.452,-24.434,-24.364,-24.242,-24.121,-24.028,-24.03,-23.999,-23.977,-23.969,-23.982,-23.986,-23.974,-23.983,-24.07,-23.963,-23.994,-23.998,-23.942,-23.912,-23.816,-23.778,-23.864,-23.937,-23.948,-23.846,-23.826,-23.838,-23.826,-23.799,-23.846,-23.908,-23.82,-23.771,-23.8,-23.873,-23.776,-23.677,-23.615,-23.632,-23.686,-23.642,-23.666,-23.665,-23.677,-23.691,-23.716,-23.714,-23.713,-23.708,-23.82,-23.794,-23.757,-23.722,-23.712,-23.774,-23.811,-23.854,-23.865,-23.886,-23.847,-23.873,-24.035,-24.159,-24.181,-24.151,-24.08,-24.06,-24.07,-24.081,-24.071,-24.027,-24.004,-23.97,-24.06,-24.169,-24.131,-24.005,-23.951,-23.946,-24.042,-24.085,-24.095,-24.108,-24.101,-24.136,-24.243,-24.201,-24.098,-24.003,-24.006,-24.034,-24.059,-24.165,-24.171,-24.143,-24.083,-24.057,-24.029,-24.087,-24.113,-24.114,-24.153,-24.205,-24.23,-24.192,-24.135,-24.173,-24.169,-24.18,-24.121,-24.109,-24.108,-24.14,-24.157,-24.138,-24.118,-24.12,-24.166,-24.206,-24.215,-24.16,-24.118,-24.12,-24.111,-24.123,-24.123,-24.053,-23.984,-24.028,-24.061,-24.12,-24.116,-24.108,-24.106,-24.119,-24.121,-24.139,-24.171,-24.18,-24.213,-24.211,-24.212,-24.236,-24.197,-24.127,-24.18,-24.248,-24.251,-24.26,-24.252,-24.259,-24.26,-24.257,-24.238,-24.203,-24.134,-23.975,-23.778,-23.594,-23.601,-24.119,-24.535,-24.566,-24.547,-24.491,-24.518,-24.525,-24.444,-24.493,-24.437,-24.315,-24.144,-24.139,-24.263,-24.245,-24.187,-24.139,-24.161,-24.148,-24.156,-24.147,-24.152,-24.128,-24.122,-24.106,-24.12,-24.107,-24.104,-24.061,-24.062,-24.06,-24.078,-24.024,-24.021,-24.012,-24.016,-24.006,-23.989,-23.972,-23.98,-23.962,-23.953,-23.943,-23.924,-23.907,-23.836,-23.86,-23.899,-23.877,-23.857,-23.78,-23.747,-23.811,-23.915,-23.908,-23.876,-23.873,-23.861,-23.884,-23.904,-23.932,-23.962,-23.978,-24.012,-24.012,-24.018,-23.996,-23.933,-23.966,-24.161,-24.267,-24.238,-24.229,-24.191,-24.289,-24.409,-24.374,-24.255,-24.154,-24.135,-24.145,-24.187,-24.219,-24.227,-24.242,-24.252,-24.277,-24.264,-24.25,-24.255,-24.274,-24.293,-24.261,-24.234,-24.314,-24.345,-24.283,-24.188,-24.13,-24.133,-24.146,-24.129,-24.117,-24.168,-24.196,-24.204,-24.206,-24.201,-24.187,-24.171,-24.177,-24.185,-24.187,-24.16,-24.159,-24.169,-24.176,-24.186,-24.204,-24.179,-24.133,-24.136,-24.151,-24.127,-24.084,-24.015,-24.019,-24.035,-24.069,-24.102,-24.1,-24.082,-24.084,-24.097,-24.092,-24.081,-24.087,-24.106,-24.116,-24.132,-24.128,-24.159,-24.157,-24.16,-24.172,-24.152,-24.117,-24.11,-24.163,-24.134,-24.047,-24.117,-24.229,-24.228,-24.212,-24.184,-24.143,-24.111,-24.06,-23.955,-23.841,-23.672,-23.649,-23.842,-24.238,-24.527,-24.591,-24.532,-24.494,-24.498,-24.466,-24.39,-24.301,-24.212,-24.134,-24.096,-24.101,-24.086,-24.08,-24.109,-24.154,-24.216,-24.225,-24.131,-24.084,-24.064,-24.084,-24.106,-24.107,-24.089,-24.076,-24.067,-24.048,-24.039,-24.05,-24.053,-24.067,-24.076,-24.057,-24.063,-24.048,-23.977,-23.962,-23.966,-23.957,-23.952,-23.933,-23.926,-23.921,-23.906,-23.846,-23.811,-23.837,-23.878,-23.9,-23.935,-23.918,-23.886,-23.879,-23.898,-23.867,-23.897,-23.937,-23.973,-24.022,-24.05,-24.076,-24.135,-24.14,-24.137,-24.145,-24.149,-24.183,-24.209,-24.196,-24.203,-24.225,-24.245,-24.221,-24.212,-24.194,-24.149,-24.136,-24.2,-24.263,-24.287,-24.278,-24.261,-24.255,-24.275,-24.288,-24.302,-24.275,-24.241,-24.258,-24.249,-24.239,-24.234,-24.248,-24.247,-24.251,-24.256,-24.241,-24.261,-24.291,-24.284,-24.264,-24.265,-24.291,-24.288,-24.258,-24.257,-24.251,-24.27,-24.27,-24.286,-24.297,-24.316,-24.285,-24.268,-24.29,-24.306,-24.323,-24.289,-24.302,-24.328,-24.253,-24.232,-24.227,-24.226,-24.23,-24.23,-24.238,-24.246,-24.247,-24.251,-24.257,-24.282,-24.3,-24.32,-24.346,-24.378,-24.386,-24.375,-24.344,-24.354,-24.379,-24.384,-24.377,-24.355,-24.36,-24.371,-24.395,-24.398,-24.425,-24.433,-24.451,-24.395,-24.212,-23.98,-23.746,-23.663,-23.88,-24.346,-24.706,-24.834,-24.834,-24.823,-24.759,-24.657,-24.561,-24.484,-24.46,-24.444,-24.404,-24.368,-24.381,-24.347,-24.449,-24.49,-24.404,-24.314,-24.336,-24.312,-24.299,-24.305,-24.29,-24.267,-24.281,-24.281,-24.27,-24.251,-24.252,-24.267,-24.3,-24.273,-24.251,-24.242,-24.221,-24.215,-24.195,-24.195,-24.199,-24.207,-24.147,-24.137,-24.15,-24.156,-24.119,-24.06,-24.056,-24.061,-24.081,-24.086,-24.078,-24.059,-24.063,-24.066,-24.091,-24.117,-24.156,-24.191,-24.267,-24.282,-24.284,-24.295,-24.339,-24.368,-24.362,-24.344,-24.357,-24.383,-24.419,-24.453,-24.445,-24.445,-24.437,-24.426,-24.417,-24.42,-24.445,-24.489,-24.49,-24.492,-24.49,-24.498,-24.464,-24.436,-24.441,-24.464,-24.443,-24.447,-24.44,-24.441,-24.441,-24.452,-24.469,-24.491,-24.481,-24.462,-24.445,-24.451,-24.46,-24.466,-24.488,-24.476,-24.459,-24.439,-24.432,-24.421,-24.417,-24.464,-24.515,-24.531,-24.542,-24.567,-24.562,-24.524,-24.492,-24.465,-24.43,-24.445,-24.461,-24.437,-24.452,-24.496,-24.475,-24.456,-24.441,-24.45,-24.46,-24.454,-24.469,-24.487,-24.535,-24.552,-24.507,-24.507,-24.548,-24.576,-24.603,-24.587,-24.586,-24.567,-24.558,-24.561,-24.561,-24.576,-24.58,-24.597,-24.609,-24.622,-24.611,-24.576,-24.553,-24.491,-24.344,-24.137,-23.941,-23.921,-24.277,-24.779,-25.038,-25.085,-25.098,-25.065,-24.961,-24.869,-24.761,-24.718,-24.663,-24.593,-24.566,-24.566,-24.57,-24.575,-24.563,-24.555,-24.543,-24.544,-24.561,-24.577,-24.558,-24.549,-24.555,-24.549,-24.542,-24.541,-24.517,-24.499,-24.515,-24.532,-24.514,-24.512,-24.486,-24.487,-24.457,-24.432,-24.442,-24.417,-24.377,-24.371,-24.385,-24.398,-24.381,-24.369,-24.372,-24.335,-24.328,-24.309,-24.319,-24.298,-24.289,-24.285,-24.291,-24.33,-24.344,-24.357,-24.39,-24.415,-24.448,-24.485,-24.516,-24.544,-24.564,-24.584,-24.618,-24.633,-24.641,-24.651,-24.66,-24.659,-24.687,-24.697,-24.675,-24.657,-24.673,-24.69,-24.704,-24.701,-24.702,-24.711,-24.714,-24.698,-24.704,-24.702,-24.711,-24.71,-24.707,-24.697,-24.693,-24.692,-24.683,-24.677,-24.691,-24.709,-24.726,-24.741,-24.751,-24.749,-24.705,-24.679,-24.697,-24.693,-24.689,-24.704,-24.707,-24.72,-24.733,-24.737,-24.736,-24.727,-24.721,-24.732,-24.739,-24.747,-24.754,-24.739,-24.735,-24.733,-24.719,-24.7,-24.699,-24.693,-24.668,-24.671,-24.695,-24.7,-24.702,-24.703,-24.691,-24.712,-24.736,-24.761,-24.78,-24.795,-24.8,-24.805,-24.829,-24.827,-24.827,-24.836,-24.843,-24.868,-24.828,-24.805,-24.797,-24.788,-24.815,-24.824,-24.805,-24.777,-24.73,-24.601,-24.435,-24.233,-24.197,-24.576,-25.029,-25.272,-25.273,-25.24,-25.229,-25.186,-25.144,-25.106,-25.04,-24.932,-24.862,-24.815,-24.814,-24.808,-24.813,-24.801,-24.808,-24.833,-24.808,-24.795,-24.815,-24.799,-24.772,-24.729,-24.73,-24.725,-24.738,-24.742,-24.775,-24.744,-24.736,-24.713,-24.705,-24.698,-24.686,-24.685,-24.691,-24.662,-24.653,-24.652,-24.636,-24.636,-24.663,-24.669,-24.625,-24.562,-24.528,-24.536,-24.531,-24.567,-24.55,-24.518,-24.5,-24.516,-24.537,-24.549,-24.591,-24.638,-24.646,-24.67,-24.708,-24.742,-24.762,-24.807,-24.802,-24.811,-24.818,-24.832,-24.854,-24.895,-24.859,-24.847,-24.854,-24.873,-24.887,-24.897,-24.908,-24.907,-24.9,-24.879,-24.882,-24.91,-24.92,-24.91,-24.899,-24.891,-24.886,-24.879,-24.889,-24.917,-24.946,-24.928,-24.909,-24.89,-24.887,-24.925,-24.932,-24.912,-24.888,-24.87,-24.89,-24.901,-24.898,-24.908,-24.911,-24.939,-24.909,-24.915,-24.941,-24.949,-24.946,-24.944,-24.924,-24.915,-24.905,-24.899,-24.933,-24.929,-24.914,-24.889,-24.887,-24.887,-24.889,-24.91,-24.913,-24.924,-24.913,-24.923,-24.941,-24.97,-24.986,-24.983,-24.986,-24.983,-24.997,-25.051,-25.035,-25.022,-25.009,-24.996,-25.012,-25.016,-25.02,-25.02,-25.004,-25.005,-25.021,-25.018,-25.005,-24.939,-24.827,-24.642,-24.479,-24.474,-24.898,-25.273,-25.409,-25.371,-25.371,-25.388,-25.366,-25.329,-25.288,-25.222,-25.117,-25.054,-25.016,-25.001,-24.977,-24.999,-25.007,-25.013,-24.99,-24.976,-24.988,-25.034,-24.983,-24.959,-24.911,-24.924,-24.967,-24.956,-24.935,-24.9,-24.887,-24.892,-24.897,-24.892,-24.901,-24.902,-24.886,-24.873,-24.842,-24.815,-24.796,-24.792,-24.785,-24.767,-24.785,-24.792,-24.766,-24.759,-24.763,-24.747,-24.731,-24.716,-24.719,-24.727,-24.732,-24.731,-24.735,-24.773,-24.868,-24.87,-24.888,-24.88,-24.881,-24.888,-24.936,-25.009,-25.038,-25.054,-25.032,-25.014,-25.006,-25.014,-25.045,-25.066,-25.015,-24.975,-25.02,-25.057,-25.064,-25.076,-25.104,-25.165,-25.172,-25.073,-25,-24.988,-24.986,-25.017,-25.02,-25.038,-25.039,-25.052,-25.056,-25.057,-25.072,-25.067,-25.049,-25.039,-25.067,-25.057,-25.056,-25.06,-25.033,-25.012,-25.002,-24.989,-24.99,-25.049,-25.123,-25.135,-25.093,-25.063,-25.047,-25.026,-25.03,-24.986,-24.986,-25.029,-25.055,-25.06,-25.021,-25.015,-24.995,-25.006,-25.012,-25.033,-25.032,-25.041,-25.046,-25.057,-25.079,-25.11,-25.124,-25.147,-25.173,-25.186,-25.15,-25.095,-25.084,-25.103,-25.145,-25.141,-25.117,-25.112,-25.113,-25.108,-25.083,-25.053,-24.995,-24.893,-24.746,-24.511,-24.511,-24.949,-25.361,-25.487,-25.485,-25.475,-25.476,-25.428,-25.385,-25.284,-25.175,-25.118,-25.095,-25.067,-25.057,-25.046,-25.05,-25.062,-25.093,-25.117,-25.022,-24.95,-24.949,-24.98,-24.976,-24.953,-24.953,-24.957,-24.95,-24.947,-24.938,-24.927,-24.929,-24.901,-24.896,-24.872,-24.878,-24.896,-24.969,-24.905,-24.818,-24.756,-24.733,-24.75,-24.754,-24.75,-24.773,-24.733,-24.691,-24.684,-24.714,-24.728,-24.74,-24.716,-24.713,-24.707,-24.669,-24.686,-24.731,-24.768,-24.806,-24.809,-24.832,-24.889,-24.913,-24.918,-24.919,-24.938,-24.934,-24.945,-24.949,-24.958,-25.006,-25.047,-24.987,-25.007,-25,-24.954,-24.946,-24.922,-24.915,-24.937,-24.934,-24.947,-24.949,-24.946,-24.931,-24.936,-24.948,-24.955,-24.965,-24.985,-24.95,-24.912,-24.894,-24.925,-25.01,-24.975,-24.938,-24.915,-24.915,-24.915,-24.889,-24.947,-24.908,-24.869,-24.846,-24.86,-24.885,-24.87,-24.862,-24.835,-24.829,-24.839,-24.836,-24.838,-24.854,-24.884,-24.855,-24.787,-24.721,-24.783,-24.803,-24.834,-24.867,-24.885,-24.895,-24.92,-24.902,-24.876,-24.812,-24.807,-24.846,-24.847,-24.87,-24.871,-24.872,-24.86,-24.859,-24.842,-24.857,-24.864,-24.874,-24.886,-24.868,-24.75,-24.566,-24.36,-24.191,-24.152,-24.285,-24.739,-25.118,-25.236,-25.22,-25.22,-25.223,-25.151,-25.073,-24.94,-24.854,-24.787,-24.758,-24.735,-24.784,-24.869,-24.847,-24.751,-24.717,-24.639,-24.64,-24.644,-24.672,-24.666,-24.673,-24.657,-24.68,-24.657,-24.648,-24.624,-24.624,-24.652,-24.668,-24.682,-24.63,-24.545,-24.48,-24.477,-24.494,-24.519,-24.52,-24.519,-24.508,-24.489,-24.441,-24.416,-24.408,-24.385,-24.407,-24.408,-24.352,-24.335,-24.342,-24.393,-24.385,-24.361,-24.354,-24.357,-24.406,-24.433,-24.461,-24.492,-24.509,-24.549,-24.566,-24.579,-24.59,-24.617,-24.571,-24.585,-24.623,-24.639,-24.605,-24.582,-24.571,-24.568,-24.618,-24.628,-24.645,-24.626,-24.594,-24.588,-24.588,-24.566,-24.537,-24.532,-24.528,-24.53,-24.514,-24.529,-24.519,-24.505,-24.492,-24.48,-24.47,-24.468,-24.479,-24.479,-24.454,-24.436,-24.448,-24.473,-24.475,-24.428,-24.42,-24.424,-24.443,-24.44,-24.459,-24.459,-24.404,-24.356,-24.327,-24.344,-24.316,-24.275,-24.27,-24.292,-24.298,-24.303,-24.277,-24.259,-24.267,-24.284,-24.31,-24.308,-24.317,-24.321,-24.327,-24.327,-24.324,-24.332,-24.365,-24.327,-24.316,-24.314,-24.294,-24.274,-24.258,-24.278,-24.319,-24.281,-24.21,-24.095,-23.937,-23.731,-23.54,-23.484,-23.729,-24.211,-24.536,-24.66,-24.648,-24.584,-24.477,-24.448,-24.355,-24.222,-24.145,-24.1,-24.092,-24.077,-24.059,-24.056,-24.04,-24.029,-24.019,-24.004,-23.99,-23.98,-23.969,-23.96,-23.994,-23.965,-23.959,-23.943,-23.903,-23.899,-23.88,-23.882,-23.844,-23.828,-23.812,-23.778,-23.771,-23.754,-23.745,-23.717,-23.704,-23.693,-23.665,-23.601,-23.57,-23.592,-23.595,-23.621,-23.595,-23.558,-23.538,-23.513,-23.506,-23.513,-23.517,-23.517,-23.554,-23.598,-23.615,-23.648,-23.681,-23.693,-23.699,-23.723,-23.792,-23.784,-23.751,-23.727,-23.728,-23.741,-23.759,-23.758,-23.82,-23.825,-23.785,-23.761,-23.743,-23.776,-23.827,-23.798,-23.76,-23.748,-23.758,-23.757,-23.71,-23.709,-23.705,-23.724,-23.72,-23.715,-23.703,-23.705,-23.709,-23.705,-23.708,-23.701,-23.688,-23.725,-23.757,-23.781,-23.756,-23.716,-23.659,-23.672,-23.696,-23.664,-23.63,-23.597,-23.6,-23.614,-23.589,-23.559,-23.559,-23.607,-23.628,-23.628,-23.612,-23.641,-23.619,-23.574,-23.564,-23.541,-23.57,-23.579,-23.622,-23.666,-23.747,-23.74,-23.674,-23.624,-23.634,-23.653,-23.656,-23.674,-23.653,-23.648,-23.629,-23.637,-23.657,-23.671,-23.678,-23.676,-23.664,-23.659,-23.596,-23.44,-23.195,-22.986,-22.936,-23.228,-23.711,-24.009,-24.073,-24.062,-24.059,-23.98,-23.887,-23.762,-23.687,-23.624,-23.606,-23.638,-23.65,-23.614,-23.589,-23.572,-23.537,-23.514,-23.51,-23.514,-23.538,-23.523,-23.527,-23.528,-23.534,-23.561,-23.545,-23.545,-23.531,-23.463,-23.431,-23.465,-23.443,-23.417,-23.415,-23.405,-23.394,-23.368,-23.368,-23.356,-23.346,-23.326,-23.315,-23.303,-23.294,-23.349,-23.344,-23.279,-23.218,-23.232,-23.25,-23.248,-23.252,-23.246,-23.249,-23.271,-23.308,-23.336,-23.378,-23.417,-23.447,-23.48,-23.493,-23.508,-23.533,-23.56,-23.592,-23.569,-23.565,-23.618,-23.639,-23.633,-23.6,-23.538,-23.552,-23.568,-23.57,-23.585,-23.573,-23.594,-23.595,-23.594,-23.582,-23.584,-23.606,-23.591,-23.58,-23.585,-23.643,-23.624,-23.596,-23.591,-23.573,-23.572,-23.547,-23.549,-23.544,-23.561,-23.567,-23.553,-23.557,-23.56,-23.566,-23.565,-23.569,-23.571,-23.582,-23.596,-23.615,-23.672,-23.667,-23.598,-23.561,-23.552,-23.524,-23.495,-23.49,-23.499,-23.498,-23.485,-23.486,-23.515,-23.52,-23.542,-23.533,-23.53,-23.548,-23.576,-23.623,-23.634,-23.616,-23.624,-23.637,-23.632,-23.64,-23.628,-23.607,-23.631,-23.633,-23.638,-23.638,-23.631,-23.645,-23.649,-23.653,-23.636,-23.654,-23.579,-23.399,-23.238,-22.979,-22.904,-23.138,-23.623,-23.985,-24.076,-24.079,-24.051,-24.007,-23.935,-23.842,-23.708,-23.669,-23.659,-23.661,-23.605,-23.597,-23.627,-23.607,-23.574,-23.559,-23.572,-23.593,-23.57,-23.562,-23.537,-23.523,-23.527,-23.548,-23.552,-23.543,-23.56,-23.536,-23.513,-23.476,-23.47,-23.476,-23.476,-23.463,-23.439,-23.411,-23.397,-23.394,-23.398,-23.387,-23.368,-23.357,-23.341,-23.344,-23.309,-23.32,-23.317,-23.315,-23.344,-23.346,-23.291,-23.266,-23.256,-23.272,-23.313,-23.346,-23.398,-23.435,-23.48,-23.503,-23.527,-23.548,-23.583,-23.607,-23.614,-23.622,-23.615,-23.602,-23.603,-23.627,-23.643,-23.668,-23.671,-23.704,-23.685,-23.61,-23.61,-23.606,-23.661,-23.655,-23.641,-23.626,-23.617,-23.63,-23.647,-23.649,-23.637,-23.644,-23.647,-23.625,-23.635,-23.633,-23.678,-23.649,-23.624,-23.668,-23.665,-23.659,-23.651,-23.621,-23.609,-23.607,-23.649,-23.663,-23.643,-23.644,-23.624,-23.643,-23.643,-23.648,-23.656,-23.655,-23.693,-23.719,-23.701,-23.656,-23.626,-23.598,-23.579,-23.59,-23.627,-23.636,-23.613,-23.577,-23.601,-23.613,-23.627,-23.627,-23.608,-23.639,-23.676,-23.697,-23.704,-23.716,-23.719,-23.719,-23.69,-23.721,-23.736,-23.735,-23.706,-23.686,-23.714,-23.722,-23.723,-23.731,-23.753,-23.749,-23.713,-23.663,-23.63,-23.5,-23.291,-23.111,-23.14,-23.564,-23.93,-24.084,-24.097,-24.092,-24.09,-24.063,-24.014,-23.899,-23.788,-23.731,-23.701,-23.693,-23.696,-23.697,-23.704,-23.731,-23.729,-23.67,-23.641,-23.662,-23.666,-23.675,-23.661,-23.644,-23.622,-23.596,-23.613,-23.622,-23.617,-23.566,-23.548,-23.548,-23.55,-23.554,-23.562,-23.545,-23.547,-23.564,-23.533,-23.487,-23.486,-23.488,-23.546,-23.522,-23.409,-23.334,-23.326,-23.394,-23.4,-23.38,-23.376,-23.36,-23.356,-23.372,-23.378,-23.42,-23.492,-23.519,-23.516,-23.536,-23.562,-23.615,-23.651,-23.664,-23.678,-23.727,-23.718,-23.68,-23.645,-23.674,-23.731,-23.744,-23.748,-23.756,-23.757,-23.749,-23.749,-23.748,-23.748,-23.82,-23.845,-23.781,-23.709,-23.742,-23.76,-23.742,-23.74,-23.713,-23.737,-23.73,-23.75,-23.748,-23.753,-23.749,-23.753,-23.749,-23.757,-23.769,-23.775,-23.787,-23.774,-23.785,-23.775,-23.726,-23.724,-23.73,-23.756,-23.757,-23.759,-23.79,-23.804,-23.792,-23.788,-23.803,-23.803,-23.788,-23.767,-23.742,-23.755,-23.766,-23.714,-23.686,-23.683,-23.722,-23.729,-23.719,-23.714,-23.736,-23.746,-23.738,-23.728,-23.738,-23.78,-23.851,-23.834,-23.767,-23.76,-23.761,-23.785,-23.796,-23.821,-23.82,-23.82,-23.832,-23.829,-23.835,-23.836,-23.849,-23.865,-23.867,-23.868,-23.891,-23.875,-23.711
