-5.0941,-5.0681,-5.034,-5.0185,-5.0129,-4.98,-4.9394,-4.9163,-4.9045,-4.9031,-4.8816,-4.8648,-4.8466,-4.8373,-4.8467,-4.8451,-4.831,-4.8166,-4.8192,-4.8349,-4.8391,-4.8303,-4.8199,-4.8169,-4.8338,-4.8414,-4.8298,-4.8169,-4.8186,-4.8349,-4.8446,-4.8303,-4.8194,-4.8028,-4.8165,-4.832,-4.8231,-4.8038,-4.7915,-4.8003,-4.8148,-4.8022,-4.7924,-4.7792,-4.781,-4.7968,-4.7869,-4.7692,-4.7554,-4.7639,-4.777,-4.7753,-4.7655,-4.7523,-4.755,-4.7836,-4.8011,-4.8031,-4.8056,-4.8069,-4.8323,-4.8333,-4.8272,-4.7935,-4.7608,-4.7694,-4.7619,-4.7547,-4.752,-4.7434,-4.7627,-4.7889,-4.7667,-4.7338,-4.716,-4.7153,-4.7301,-4.716,-4.7032,-4.6863,-4.698,-4.7099,-4.6999,-4.6864,-4.7157,-4.905,-5.2504,-5.5133,-5.6667,-6.044,-6.1999,-6.0553,-4.9606,-3.5526,-2.636,-2.3574,-2.435,-2.7017,-3.1048,-3.5373,-4.0106,-4.3235,-4.5714,-4.6456,-4.7091,-4.7136,-4.7819,-4.7756,-4.8029,-4.7801,-4.8018,-4.8062,-4.8506,-4.8356,-4.8471,-4.8346,-4.8684,-4.8809,-4.8913,-4.8762,-4.8898,-4.9024,-4.9331,-4.9277,-4.9284,-4.9236,-4.9357,-4.9579,-4.9699,-4.9616,-4.9614,-4.9648,-4.9964,-4.9985,-4.9938,-4.9847,-4.9882,-5.0096,-5.009,-4.9985,-4.9839,-4.9787,-4.9913,-4.991,-4.9733,-4.9673,-4.9526,-4.971,-4.9872,-4.9905,-4.9849,-4.9909,-5.0142,-5.0328,-5.0187,-4.9947,-4.9689,-4.9645,-4.9468,-4.9148,-4.87,-4.8434,-4.8252,-4.8271,-4.8067,-4.7869,-4.753,-4.7509,-4.7514,-4.7567,-4.7282,-4.7155,-4.7118,-4.7398,-4.7338,-4.7282,-4.7129,-4.7228,-4.7396,-4.7438,-4.7246,-4.7235,-4.713,-4.7279,-4.7393,-4.7353,-4.7162,-4.7126,-4.7201,-4.7414,-4.7222,-4.7118,-4.695,-4.7103,-4.7132,-4.7071,-4.6857,-4.6775,-4.6811,-4.7008,-4.684,-4.6676,-4.6539,-4.6629,-4.677,-4.6719,-4.6579,-4.6494,-4.6438,-4.6572,-4.6593,-4.6608,-4.6562,-4.675,-4.706,-4.7192,-4.7087,-4.7008,-4.7025,-4.7228,-4.7066,-4.6602,-4.6479,-4.6274,-4.6388,-4.6672,-4.6537,-4.6539,-4.6515,-4.6467,-4.6376,-4.6186,-4.6,-4.5887,-4.5993,-4.6085,-4.5932,-4.5787,-4.567,-4.5764,-4.5937,-4.5972,-4.6862,-4.9303,-5.2369,-5.5439,-5.9409,-6.0849,-5.96,-4.9247,-3.6206,-2.6842,-2.3346,-2.3173,-2.5408,-2.9986,-3.4422,-3.8923,-4.1777,-4.4173,-4.4796,-4.584,-4.6053,-4.6322,-4.6372,-4.6772,-4.6945,-4.7024,-4.6867,-4.6967,-4.7137,-4.7502,-4.7379,-4.7472,-4.7402,-4.7648,-4.7824,-4.7848,-4.7759,-4.7798,-4.7888,-4.8151,-4.8247,-4.8209,-4.8138,-4.8261,-4.8521,-4.8546,-4.8458,-4.8413,-4.8473,-4.8671,-4.8691,-4.8594,-4.8497,-4.8444,-4.8662,-4.8547,-4.8525,-4.8311,-4.8222,-4.8293,-4.8394,-4.8184,-4.8082,-4.8015,-4.828,-4.8474,-4.8608,-4.8526,-4.863,-4.8813,-4.8883,-4.8612,-4.8295,-4.7971,-4.7892,-4.7854,-4.7595,-4.7254,-4.6945,-4.6763,-4.6816,-4.6629,-4.6501,-4.6194,-4.6204,-4.6277,-4.6242,-4.6079,-4.6051,-4.608,-4.6341,-4.6252,-4.6215,-4.6021,-4.6111,-4.6152,-4.6284,-4.616,-4.6127,-4.6006,-4.6194,-4.6272,-4.6119,-4.5998,-4.5925,-4.5985,-4.6092,-4.5893,-4.5778,-4.5741,-4.5866,-4.5918,-4.5772,-4.5577,-4.555,-4.5587,-4.5752,-4.5599,-4.5466,-4.538,-4.5446,-4.5586,-4.5487,-4.5331,-4.5314,-4.538,-4.5693,-4.5806,-4.5776,-4.5696,-4.5773,-4.5985,-4.5981,-4.5922,-4.5533,-4.5102,-4.5123,-4.5237,-4.5244,-4.5064,-4.5014,-4.532,-4.5409,-4.5124,-4.4881,-4.4756,-4.4819,-4.4907,-4.4706,-4.4579,-4.4491,-4.4645,-4.4748,-4.4699,-4.4631,-4.5314,-4.77,-5.0772,-5.3045,-5.621,-5.8061,-5.7198,-5.0752,-4.0031,-3.2483,-2.7967,-2.5954,-2.6033,-2.8832,-3.2547,-3.6256,-3.8031,-4.0727,-4.2912,-4.4052,-4.4584,-4.4715,-4.5219,-4.5322,-4.5517,-4.5327,-4.5512,-4.5695,-4.6066,-4.5876,-4.5996,-4.594,-4.6285,-4.6356,-4.6403,-4.6285,-4.6376,-4.6415,-4.675,-4.664,-4.6699,-4.6569,-4.6753,-4.6998,-4.7064,-4.6886,-4.6935,-4.6942,-4.7231,-4.7154,-4.7108,-4.6987,-4.7058,-4.7191,-4.7185,-4.7038,-4.6921,-4.6777,-4.6955,-4.6918,-4.6808,-4.6598,-4.6538,-4.6711,-4.6924,-4.6892,-4.6923,-4.7007,-4.7255,-4.7427,-4.7268,-4.7073,-4.6882,-4.6856,-4.6863,-4.6551,-4.6243,-4.588,-4.5759,-4.5756,-4.5596,-4.5352,-4.5229,-4.5184,-4.5297,-4.5237,-4.5095,-4.5067,-4.5097,-4.5327,-4.5259,-4.5157,-4.5075,-4.5049,-4.5206,-4.5289,-4.5226,-4.5078,-4.5037,-4.5215,-4.528,-4.5171,-4.4999,-4.4986,-4.5087,-4.5192,-4.5044,-4.4906,-4.4803,-4.4999,-4.5106,-4.4947,-4.4872,-4.4768,-4.4766,-4.5017,-4.4882,-4.4766,-4.457,-4.4671,-4.4824,-4.4753,-4.463,-4.4483,-4.4526,-4.4734,-4.4759,-4.4732,-4.4749,-4.4996,-4.5303,-4.5308,-4.5268,-4.5219,-4.5151,-4.5347,-4.5088,-4.4724,-4.4436,-4.4388,-4.4623,-4.4778,-4.4701,-4.4737,-4.4587,-4.4602,-4.4561,-4.4433,-4.422,-4.4114,-4.4157,-4.436,-4.4272,-4.4127,-4.4035,-4.4094,-4.4309,-4.517,-4.7547,-5.0497,-5.324,-5.7244,-5.8692,-5.7605,-4.7805,-3.505,-2.6171,-2.2641,-2.2443,-2.2989,-2.628,-3.0061,-3.4979,-3.8569,-4.1271,-4.3001,-4.4149,-4.4502,-4.4818,-4.4764,-4.5025,-4.5235,-4.5556,-4.547,-4.5521,-4.549,-4.5827,-4.596,-4.6001,-4.5936,-4.6005,-4.6053,-4.6392,-4.6366,-4.6358,-4.6363,-4.6548,-4.6805,-4.6847,-4.679,-4.6776,-4.6911,-4.7204,-4.7212,-4.7149,-4.7076,-4.7232,-4.7501,-4.7496,-4.7412,-4.7297,-4.7259,-4.7358,-4.7441,-4.7296,-4.7134,-4.7011,-4.7211,-4.7265,-4.7159,-4.7022,-4.7066,-4.7341,-4.752,-4.7482,-4.742,-4.7323,-4.7374,-4.7384,-4.7147,-4.6748,-4.6429,-4.618,-4.6132,-4.5834,-4.5512,-4.5227,-4.5166,-4.5217,-4.5063,-4.4808,-4.4699,-4.47,-4.4864,-4.4762,-4.4645,-4.4553,-4.4578,-4.4701,-4.4804,-4.4706,-4.4608,-4.456,-4.4779,-4.4854,-4.475,-4.4594,-4.461,-4.4756,-4.4825,-4.4678,-4.4575,-4.4478,-4.4662,-4.4699,-4.4663,-4.4464,-4.4365,-4.4415,-4.4545,-4.4464,-4.4319,-4.4199,-4.4261,-4.4437,-4.4311,-4.4156,-4.4074,-4.4094,-4.4274,-4.4188,-4.403,-4.3923,-4.4013,-4.41,-4.4141,-4.4018,-4.3909,-4.3951,-4.425,-4.4482,-4.4489,-4.4498,-4.4505,-4.4692,-4.4748,-4.4677,-4.436,-4.406,-4.4137,-4.4136,-4.4078,-4.4022,-4.3899,-4.4103,-4.4342,-4.4164,-4.3795,-4.3645,-4.3637,-4.3803,-4.3652,-4.3531,-4.3439,-4.3491,-4.3614,-4.3539,-4.3393,-4.3784,-4.5812,-4.9287,-5.1848,-5.5708,-5.7391,-5.8521,-5.6801,-4.521,-3.1244,-2.2221,-1.9987,-2.0685,-2.3802,-2.7674,-3.2412,-3.6845,-4.0103,-4.233,-4.3124,-4.3556,-4.3804,-4.4269,-4.4462,-4.454,-4.4473,-4.4543,-4.472,-4.5042,-4.5025,-4.4959,-4.4946,-4.5186,-4.5432,-4.5463,-4.5402,-4.5423,-4.5561,-4.5843,-4.5851,-4.5818,-4.5754,-4.5992,-4.6114,-4.6255,-4.6205,-4.6169,-4.6217,-4.647,-4.6523,-4.6519,-4.6427,-4.6422,-4.6616,-4.6694,-4.654,-4.6402,-4.6341,-4.65,-4.6476,-4.6331,-4.6189,-4.6151,-4.6259,-4.6472,-4.6482,-4.6473,-4.6483,-4.6674,-4.6923,-4.6783,-4.6552,-4.6302,-4.6147,-4.6071,-4.5779,-4.5347,-4.4972,-4.4833,-4.482,-4.4539,-4.4428,-4.4164,-4.4024,-4.4105,-4.4067,-4.3903,-4.3773,-4.3686,-4.3895,-4.393,-4.382,-4.3724,-4.3718,-4.3884,-4.3974,-4.387,-4.3756,-4.3733,-4.3946,-4.3995,-4.3915,-4.3793,-4.3705,-4.3774,-4.3925,-4.3833,-4.372,-4.3549,-4.3651,-4.3852,-4.3688,-4.3556,-4.3458,-4.3513,-4.3646,-4.3504,-4.3315,-4.3187,-4.3232,-4.3343,-4.3384,-4.3213,-4.3075,-4.3051,-4.3231,-4.3229,-4.3087,-4.2978,-4.2995,-4.3111,-4.31,-4.3011,-4.2881,-4.2978,-4.3288,-4.3481,-4.353,-4.3529,-4.3482,-4.3605,-4.3759,-4.3704,-4.352,-4.3147,-4.3145,-4.3195,-4.3202,-4.3122,-4.3,-4.3208,-4.3359,-4.3034,-4.2727,-4.2624,-4.2649,-4.2761,-4.2603,-4.2544,-4.2415,-4.2387,-4.2519,-4.2535,-4.2403,-4.2516,-4.3917,-4.7101,-4.9982,-5.3279,-5.6713,-5.7666,-5.4222,-4.1942,-2.8276,-2.0813,-1.9042,-2.0166,-2.1528,-2.5479,-3.0032,-3.4487,-3.82,-4.0659,-4.1931,-4.2336,-4.2632,-4.2979,-4.3312,-4.3383,-4.3429,-4.3469,-4.3641,-4.3953,-4.3947,-4.3885,-4.3915,-4.3956,-4.4301,-4.4413,-4.4359,-4.4348,-4.4453,-4.4722,-4.4832,-4.4795,-4.4769,-4.4834,-4.5141,-4.5205,-4.5234,-4.5123,-4.5202,-4.5453,-4.5504,-4.5429,-4.5408,-4.5359,-4.5484,-4.5661,-4.5576,-4.5412,-4.5257,-4.5378,-4.5508,-4.539,-4.522,-4.5054,-4.5235,-4.5466,-4.5431,-4.5411,-4.5467,-4.5697,-4.5919,-4.5854,-4.569,-4.5494,-4.5332,-4.5249,-4.4996,-4.4586,-4.4222,-4.3963,-4.3995,-4.379,-4.3561,-4.3321,-4.3189,-4.3292,-4.3223,-4.3057,-4.2917,-4.2928,-4.3028,-4.3145,-4.3034,-4.2982,-4.2961,-4.3042,-4.322,-4.3108,-4.2961,-4.2895,-4.3032,-4.3206,-4.3036,-4.2914,-4.2818,-4.2914,-4.3056,-4.2977,-4.2842,-4.27,-4.2705,-4.2874,-4.2874,-4.2726,-4.2596,-4.2545,-4.2644,-4.26,-4.2515,-4.2422,-4.2379,-4.252,-4.2485,-4.2393,-4.2216,-4.2167,-4.2368,-4.2354,-4.2265,-4.2194,-4.2129,-4.221,-4.2381,-4.2357,-4.2323,-4.234,-4.2613,-4.2859,-4.2795,-4.2739,-4.266,-4.2818,-4.2727,-4.2282,-4.2097,-4.2006,-4.2253,-4.2404,-4.229,-4.2311,-4.2263,-4.2137,-4.2108,-4.2052,-4.1892,-4.1713,-4.1614,-4.177,-4.1785,-4.1647,-4.1535,-4.1495,-4.1715,-4.2446,-4.4482,-4.7204,-4.9492,-5.1255,-5.4655,-5.4964,-5.2857,-4.3113,-3.3699,-2.7288,-2.4363,-2.2345,-2.3023,-2.7501,-3.1184,-3.5128,-3.7417,-3.9625,-4.0734,-4.1861,-4.1763,-4.2196,-4.1904,-4.2401,-4.2443,-4.2825,-4.2533,-4.2833,-4.2662,-4.3198,-4.3085,-4.327,-4.3044,-4.3333,-4.3439,-4.3704,-4.3475,-4.3574,-4.3476,-4.386,-4.3801,-4.3881,-4.3724,-4.378,-4.3872,-4.4174,-4.4049,-4.4022,-4.3962,-4.4111,-4.4203,-4.4119,-4.3985,-4.3893,-4.4034,-4.4121,-4.3977,-4.3837,-4.3659,-4.3729,-4.3855,-4.3762,-4.3644,-4.3509,-4.3688,-4.3931,-4.4089,-4.3997,-4.4144,-4.4093,-4.4335,-4.4133,-4.3913,-4.3494,-4.3382,-4.3307,-4.3124,-4.2761,-4.257,-4.2341,-4.244,-4.2352,-4.2273,-4.2021,-4.1988,-4.2002,-4.2232,-4.2015,-4.1986,-4.1805,-4.2073,-4.216,-4.2099,-4.1936,-4.1926,-4.1941,-4.2168,-4.1956,-4.1903,-4.1811,-4.1914,-4.2003,-4.2043,-4.1849,-4.1797,-4.1754,-4.2002,-4.1846,-4.1812,-4.159,-4.1715,-4.1838,-4.186,-4.1631,-4.1536,-4.1478,-4.1776,-4.1647,-4.1612,-4.1445,-4.1417,-4.1526,-4.1722,-4.1553,-4.1496,-4.1358,-4.1541,-4.1718,-4.1794,-4.1794,-4.1877,-4.2137,-4.2338,-4.227,-4.2158,-4.211,-4.2033,-4.1916,-4.1787,-4.1481,-4.1401,-4.1534,-4.1731,-4.1833,-4.1845,-4.1637,-4.1496,-4.1592,-4.1454,-4.128,-4.119,-4.1213,-4.1409,-4.1384,-4.1255,-4.11,-4.1058,-4.1557,-4.3219,-4.6142,-4.8513,-5.1564,-5.4912,-5.5116,-5.1791,-4.0473,-2.9948,-2.3894,-2.2346,-2.1749,-2.3441,-2.7552,-3.1631,-3.5702,-3.8008,-3.9279,-4.0414,-4.1548,-4.18,-4.2406,-4.2168,-4.2526,-4.2407,-4.2978,-4.2797,-4.3037,-4.2808,-4.3208,-4.3308,-4.3611,-4.3344,-4.3578,-4.3464,-4.3886,-4.3773,-4.3962,-4.3794,-4.3959,-4.408,-4.4416,-4.4252,-4.4334,-4.4286,-4.4584,-4.4737,-4.4777,-4.4633,-4.4685,-4.4803,-4.4984,-4.4854,-4.4822,-4.4665,-4.4868,-4.4933,-4.4874,-4.4693,-4.4556,-4.458,-4.4808,-4.4761,-4.47,-4.4674,-4.4802,-4.5116,-4.5157,-4.5073,-4.4876,-4.4816,-4.48,-4.4551,-4.4199,-4.3889,-4.3718,-4.3645,-4.3537,-4.3235,-4.2942,-4.2764,-4.2775,-4.2886,-4.271,-4.2602,-4.2455,-4.2615,-4.2691,-4.2613,-4.2428,-4.2465,-4.259,-4.2738,-4.2588,-4.2598,-4.2452,-4.2545,-4.2682,-4.2708,-4.2508,-4.2487,-4.2498,-4.2695,-4.2629,-4.2569,-4.2375,-4.2473,-4.2634,-4.2624,-4.2454,-4.2353,-4.232,-4.2599,-4.2532,-4.2427,-4.2261,-4.2199,-4.2276,-4.2458,-4.2329,-4.2159,-4.2039,-4.222,-4.2267,-4.2216,-4.2023,-4.2033,-4.222,-4.2525,-4.2487,-4.2564,-4.2576,-4.2742,-4.2914,-4.2987,-4.2843,-4.2684,-4.2344,-4.2442,-4.2205,-4.2126,-4.2111,-4.2133,-4.2414,-4.2476,-4.2237,-4.1972,-4.1877,-4.2025,-4.1958,-4.1798,-4.1685,-4.1638,-4.1762,-4.1881,-4.1729,-4.1601,-4.1719,-4.3194,-4.6245,-4.9008,-5.204,-5.5588,-5.6713,-5.398,-4.2111,-2.8563,-2.0818,-1.8924,-1.9897,-2.2715,-2.4813,-2.868,-3.3598,-3.7187,-3.9835,-4.0976,-4.1753,-4.1943,-4.2596,-4.2552,-4.2782,-4.2628,-4.2966,-4.3077,-4.3335,-4.3161,-4.332,-4.3329,-4.3708,-4.3625,-4.3735,-4.3551,-4.3732,-4.3886,-4.4165,-4.4069,-4.4113,-4.4065,-4.4385,-4.4498,-4.4556,-4.4433,-4.451,-4.4686,-4.4936,-4.4787,-4.4808,-4.4753,-4.489,-4.506,-4.5039,-4.4902,-4.4812,-4.4786,-4.4928,-4.4863,-4.4733,-4.4542,-4.4639,-4.4833,-4.4822,-4.4783,-4.4803,-4.4907,-4.5173,-4.5166,-4.4951,-4.4827,-4.4626,-4.4527,-4.4341,-4.3993,-4.3596,-4.3267,-4.3202,-4.3079,-4.2826,-4.2522,-4.2348,-4.2416,-4.2417,-4.228,-4.208,-4.1984,-4.2087,-4.2205,-4.2125,-4.2074,-4.1943,-4.2007,-4.2222,-4.2231,-4.2067,-4.2012,-4.2054,-4.2274,-4.2146,-4.2091,-4.1959,-4.2013,-4.2163,-4.2112,-4.1975,-4.1854,-4.1868,-4.1954,-4.1957,-4.1891,-4.1716,-4.1662,-4.176,-4.1863,-4.1668,-4.1487,-4.1377,-4.16,-4.1594,-4.1493,-4.1291,-4.126,-4.1361,-4.1485,-4.1418,-4.1287,-4.1129,-4.1329,-4.155,-4.166,-4.1654,-4.1679,-4.176,-4.2057,-4.1943,-4.1911,-4.1709,-4.1385,-4.145,-4.131,-4.1243,-4.1258,-4.1257,-4.1576,-4.1502,-4.1185,-4.0989,-4.0897,-4.0937,-4.0974,-4.0777,-4.066,-4.0611,-4.0742,-4.0794,-4.07,-4.0479,-4.0725,-4.2309,-4.5532,-4.8178,-5.1573,-5.4983,-5.6017,-5.2026,-4.5794,-3.2511,-2.1105,-1.7773,-1.7472,-2.0034,-2.3691,-2.8362,-3.2844,-3.6663,-3.8756,-4.0102,-4.0449,-4.1006,-4.131,-4.1566,-4.1503,-4.1642,-4.1707,-4.1959,-4.2033,-4.215,-4.1968,-4.2173,-4.2284,-4.2593,-4.2475,-4.252,-4.2481,-4.2794,-4.2892,-4.293,-4.287,-4.2943,-4.3122,-4.3341,-4.3264,-4.3258,-4.3241,-4.3469,-4.3669,-4.368,-4.3587,-4.3529,-4.3565,-4.3773,-4.3693,-4.3602,-4.3468,-4.3532,-4.3639,-4.3553,-4.3424,-4.3262,-4.3286,-4.3517,-4.3531,-4.3505,-4.3525,-4.3543,-4.3828,-4.3977,-4.3911,-4.3656,-4.3461,-4.3399,-4.3218,-4.2819,-4.2427,-4.2191,-4.2173,-4.2059,-4.1824,-4.1536,-4.1398,-4.1508,-4.1578,-4.1423,-4.1244,-4.1051,-4.1141,-4.1363,-4.1344,-4.1236,-4.1211,-4.1222,-4.145,-4.1347,-4.1255,-4.1224,-4.1377,-4.1576,-4.1554,-4.1459,-4.1433,-4.1408,-4.1593,-4.1658,-4.1612,-4.1464,-4.1442,-4.1628,-4.1725,-4.1625,-4.1479,-4.1467,-4.1624,-4.1684,-4.164,-4.1502,-4.155,-4.17,-4.1829,-4.1744,-4.1702,-4.1655,-4.1683,-4.193,-4.1955,-4.1888,-4.1817,-4.1901,-4.2128,-4.2141,-4.2127,-4.2264,-4.2612,-4.2987,-4.3087,-4.2995,-4.3064,-4.3207,-4.3471,-4.3158,-4.2951,-4.2744,-4.2663,-4.3021,-4.317,-4.3147,-4.3252,-4.3389,-4.3476,-4.3464,-4.3333,-4.3245,-4.3267,-4.3527,-4.3621,-4.3535,-4.338,-4.3366,-4.3644,-4.3806,-4.4278,-4.6124,-4.903,-5.1541,-5.5144,-5.8132,-5.7681,-5.3556,-4.2558,-3.3877,-2.8065,-2.5934,-2.5176,-2.7359,-3.2146,-3.6052,-3.9747,-4.2019,-4.3235,-4.4767,-4.5892,-4.5879,-4.6428,-4.6414,-4.7111,-4.7119,-4.7409,-4.7264,-4.7642,-4.7805,-4.827,-4.8224,-4.8503,-4.8433,-4.8934,-4.9001,-4.9105,-4.9042,-4.9296,-4.9429,-4.9899,-4.9876,-5.0068,-5.01,-5.0355,-5.0632,-5.0704,-5.0637,-5.0778,-5.0936,-5.1302,-5.1248,-5.1223,-5.1241,-5.1432,-5.1665,-5.1651,-5.1674,-5.1603,-5.1593,-5.1673,-5.1759,-5.1645,-5.1648,-5.1712,-5.208,-5.226,-5.2412,-5.2501,-5.2643,-5.2821,-5.2943,-5.2674,-5.2489,-5.2237,-5.2274,-5.2275,-5.21,-5.1757,-5.1556,-5.1528,-5.1657,-5.1451,-5.1359,-5.1242,-5.1324,-5.1466,-5.1504,-5.1444,-5.1527,-5.1589,-5.1755,-5.1543,-5.1497,-5.142,-5.1508,-5.1656,-5.1779,-5.1679,-5.1702,-5.1578,-5.1847,-5.1817,-5.1744,-5.1627,-5.165,-5.1693,-5.1826,-5.167,-5.1586,-5.1505,-5.1735,-5.1739,-5.1662,-5.154,-5.144,-5.1443,-5.1634,-5.1487,-5.1356,-5.1233,-5.1274,-5.1331,-5.1271,-5.1215,-5.1193,-5.1295,-5.1587,-5.1592,-5.158,-5.1501,-5.1571,-5.1772,-5.1755,-5.1485,-5.0944,-5.0669,-5.0618,-5.065,-5.0674,-5.0481,-5.0543,-5.0714,-5.061,-5.0299,-5.0072,-4.9905,-4.9954,-4.9882,-4.9693,-4.9525,-4.9453,-4.9544,-4.9618,-4.9436,-4.9581,-5.1006,-5.3935,-5.6559,-5.9448,-6.2571,-6.2417,-5.9438,-4.856,-3.8284,-3.1856,-2.9906,-2.9168,-3.0957,-3.4877,-3.8484,-4.061,-4.341,-4.6193,-4.7417,-4.8383,-4.8191,-4.8749,-4.8751,-4.9193,-4.8826,-4.9066,-4.8797,-4.9344,-4.927,-4.9377,-4.9092,-4.9386,-4.9374,-4.9695,-4.9473,-4.96,-4.9383,-4.9693,-4.9769,-4.9901,-4.9729,-4.9799,-4.9809,-5.0143,-4.9978,-4.9996,-4.9848,-5.0067,-5.0192,-5.0178,-5.0027,-4.9937,-4.9966,-5.0127,-5.0093,-4.9892,-4.9734,-4.9647,-4.9793,-4.9716,-4.9622,-4.9405,-4.937,-4.9552,-4.9678,-4.958,-4.9597,-4.9505,-4.9669,-4.9521,-4.9308,-4.8775,-4.8612,-4.8576,-4.8562,-4.8155,-4.785,-4.7492,-4.7451,-4.7388,-4.7213,-4.6919,-4.6809,-4.673,-4.694,-4.6668,-4.6602,-4.6458,-4.6621,-4.6687,-4.6686,-4.649,-4.6509,-4.639,-4.6679,-4.6659,-4.6627,-4.6455,-4.6486,-4.6632,-4.6725,-4.6556,-4.6512,-4.638,-4.6681,-4.6648,-4.6608,-4.6419,-4.6437,-4.6553,-4.6646,-4.6521,-4.6406,-4.6234,-4.6409,-4.6462,-4.6406,-4.6214,-4.6183,-4.6232,-4.6467,-4.6291,-4.6223,-4.6186,-4.6499,-4.6778,-4.6856,-4.6804,-4.6778,-4.6905,-4.7196,-4.7162,-4.7002,-4.6446,-4.6314,-4.639,-4.6514,-4.6513,-4.6368,-4.6504,-4.6778,-4.6628,-4.6366,-4.622,-4.6167,-4.6282,-4.6313,-4.6183,-4.6063,-4.6039,-4.613,-4.6269,-4.6249,-4.6376,-4.7796,-5.1,-5.4035,-5.7461,-6.0718,-6.1292,-5.7056,-4.4642,-3.125,-2.4575,-2.3093,-2.4501,-2.818,-3.1967,-3.4429,-3.8844,-4.2375,-4.4939,-4.6344,-4.6783,-4.7101,-4.7299,-4.7751,-4.7918,-4.7969,-4.7922,-4.8058,-4.8405,-4.8534,-4.8528,-4.8542,-4.8677,-4.898,-4.91,-4.9114,-4.9122,-4.9117,-4.9354,-4.9599,-4.965,-4.9585,-4.9678,-4.9905,-5.0161,-5.0186,-5.0199,-5.0191,-5.0433,-5.0657,-5.0668,-5.0585,-5.0577,-5.0679,-5.0824,-5.085,-5.0774,-5.0617,-5.0618,-5.0764,-5.0833,-5.0717,-5.0642,-5.0678,-5.0969,-5.105,-5.1152,-5.1131,-5.1202,-5.1297,-5.1267,-5.0968,-5.0677,-5.047,-5.037,-5.0232,-4.9937,-4.9539,-4.9342,-4.9218,-4.9342,-4.9085,-4.8893,-4.869,-4.8812,-4.8902,-4.8836,-4.8648,-4.8652,-4.8749,-4.9021,-4.893,-4.8927,-4.8832,-4.8869,-4.9062,-4.9181,-4.9069,-4.8979,-4.8971,-4.9171,-4.9204,-4.9148,-4.9015,-4.8995,-4.9166,-4.9213,-4.9099,-4.9005,-4.8981,-4.9165,-4.9178,-4.9107,-4.8961,-4.8883,-4.896,-4.9063,-4.8969,-4.8867,-4.8793,-4.8849,-4.9015,-4.8896,-4.8789,-4.8826,-4.9072,-4.9406,-4.9455,-4.9444,-4.9481,-4.9498,-4.9773,-4.9811,-4.9651,-4.9177,-4.9045,-4.9138,-4.9216,-4.9208,-4.9105,-4.9252,-4.9467,-4.9289,-4.9001,-4.8845,-4.8746,-4.8951,-4.8948,-4.8814,-4.8767,-4.8625,-4.8736,-4.8892,-4.8812,-4.8855,-5.0092,-5.3205,-5.6336,-5.9511,-6.3187,-6.4165,-6.1259,-4.924,-3.5457,-2.7595,-2.5525,-2.6503,-2.9886,-3.399,-3.6368,-4.0898,-4.4568,-4.7186,-4.8663,-4.9193,-4.947,-4.9763,-5.0132,-5.032,-5.0365,-5.0374,-5.0472,-5.0795,-5.0929,-5.0925,-5.0897,-5.1017,-5.1298,-5.1382,-5.1412,-5.1373,-5.1411,-5.1591,-5.1865,-5.1869,-5.185,-5.1893,-5.211,-5.2383,-5.2402,-5.2293,-5.2328,-5.2528,-5.2771,-5.2731,-5.2652,-5.2606,-5.2656,-5.2842,-5.2869,-5.2698,-5.2593,-5.2504,-5.2742,-5.2704,-5.2555,-5.2438,-5.2504,-5.2775,-5.2909,-5.2912,-5.2959,-5.2992,-5.327,-5.3192,-5.2944,-5.2775,-5.2476,-5.2313,-5.2221,-5.1882,-5.1531,-5.1238,-5.1139,-5.1158,-5.0966,-5.0719,-5.0583,-5.0663,-5.0805,-5.0615,-5.0498,-5.0419,-5.059,-5.0754,-5.0732,-5.0658,-5.0594,-5.0583,-5.0871,-5.0894,-5.082,-5.0725,-5.0771,-5.0971,-5.1007,-5.0887,-5.0767,-5.0789,-5.0997,-5.0953,-5.0868,-5.0768,-5.0767,-5.081,-5.0996,-5.0834,-5.0719,-5.0643,-5.0767,-5.0933,-5.0811,-5.0663,-5.0553,-5.07,-5.0821,-5.0751,-5.0594,-5.0526,-5.0673,-5.0917,-5.097,-5.0992,-5.1037,-5.12,-5.1462,-5.148,-5.1398,-5.1379,-5.1409,-5.1364,-5.1119,-5.0932,-5.0845,-5.1002,-5.1163,-5.1288,-5.1243,-5.103,-5.083,-5.0959,-5.0951,-5.0843,-5.0717,-5.0625,-5.074,-5.0891,-5.0747,-5.0606,-5.0572,-5.0823,-5.1702,-5.3867,-5.6849,-5.9384,-6.3482,-6.5831,-6.5343,-5.6783,-4.4001,-3.4175,-2.9844,-2.9518,-2.9376,-3.2272,-3.642,-4.141,-4.5313,-4.8151,-4.9863,-5.0986,-5.1518,-5.1874,-5.1939,-5.2113,-5.2193,-5.2568,-5.2591,-5.2729,-5.2692,-5.2833,-5.2925,-5.3179,-5.3193,-5.3198,-5.3211,-5.3435,-5.3668,-5.3659,-5.3652,-5.3706,-5.3878,-5.4081,-5.408,-5.4072,-5.4078,-5.43,-5.4492,-5.4462,-5.4353,-5.4333,-5.4393,-5.4611,-5.4558,-5.4491,-5.4409,-5.4342,-5.4507,-5.4434,-5.4344,-5.4171,-5.4119,-5.4276,-5.4324,-5.4242,-5.4246,-5.4389,-5.4773,-5.486,-5.4872,-5.4863,-5.477,-5.4768,-5.4787,-5.4466,-5.4153,-5.3771,-5.3708,-5.3661,-5.3344,-5.3085,-5.2836,-5.2839,-5.297,-5.272,-5.2549,-5.244,-5.2648,-5.2727,-5.2738,-5.2627,-5.2553,-5.257,-5.2793,-5.2744,-5.2634,-5.257,-5.2557,-5.2783,-5.2861,-5.2768,-5.2605,-5.2596,-5.2809,-5.28,-5.2693,-5.2598,-5.2614,-5.2626,-5.2777,-5.2736,-5.2572,-5.2452,-5.2563,-5.269,-5.2546,-5.2378,-5.2288,-5.2423,-5.2572,-5.2427,-5.2261,-5.221,-5.2386,-5.2636,-5.261,-5.2624,-5.2658,-5.2814,-5.3078,-5.3082,-5.3033,-5.2938,-5.2771,-5.2548,-5.2455,-5.2253,-5.2261,-5.2277,-5.2489,-5.2638,-5.2503,-5.2271,-5.21,-5.2258,-5.218,-5.2168,-5.1981,-5.1858,-5.2016,-5.2137,-5.2084,-5.1897,-5.189,-5.2532,-5.4654,-5.7508,-5.9701,-6.2838,-6.561,-6.4976,-6.0404,-4.9464,-4.1562,-3.6452,-3.5578,-3.3521,-3.3877,-3.7655,-4.1059,-4.5199,-4.7842,-5.0097,-5.1223,-5.222,-5.2492,-5.3005,-5.2854,-5.3157,-5.3027,-5.3591,-5.3404,-5.3688,-5.348,-5.3689,-5.3725,-5.4108,-5.3953,-5.403,-5.3944,-5.4329,-5.4415,-5.4538,-5.4356,-5.4497,-5.4631,-5.4911,-5.4813,-5.4873,-5.4743,-5.4973,-5.5116,-5.5122,-5.5071,-5.4987,-5.4977,-5.5209,-5.5137,-5.5103,-5.4948,-5.4941,-5.5065,-5.5051,-5.4905,-5.4724,-5.4671,-5.4835,-5.4893,-5.4825,-5.4879,-5.5048,-5.5405,-5.5468,-5.5467,-5.5285,-5.5157,-5.5106,-5.5099,-5.475,-5.4447,-5.4096,-5.4061,-5.3971,-5.3692,-5.3354,-5.3205,-5.3282,-5.3422,-5.3237,-5.3161,-5.3074,-5.3274,-5.334,-5.3407,-5.3259,-5.3209,-5.3182,-5.3427,-5.3363,-5.3263,-5.307,-5.3146,-5.3302,-5.3279,-5.3015,-5.2987,-5.294,-5.309,-5.2888,-5.2682,-5.1946,-5.1648,-5.2605,-5.2842,-5.2567,-5.241,-5.241,-5.2582,-5.2622,-5.2531,-5.2336,-5.2178,-5.2286,-5.2258,-5.2216,-5.2311,-5.2256,-5.2492,-5.2627,-5.2325,-5.2351,-5.2445,-5.2195,-5.2678,-5.2914,-5.2965,-5.2688,-5.2571,-5.2494,-5.222,-5.1448,-5.1668,-5.1962,-5.2401,-5.2352,-5.2546,-5.225,-5.2073,-5.2248,-5.2242,-5.2145,-5.2002,-5.1786,-5.18,-5.2137,-5.179,-5.1657,-5.1496,-5.1985,-5.3323,-5.5949,-5.9026,-6.176,-6.5672,-6.7012,-6.5267,-5.4605,-4.1429,-3.6016,-3.0949,-3.0128,-3.1605,-3.4697,-3.856,-4.3404,-4.7413,-4.9898,-5.176,-5.2416,-5.324,-5.34,-5.3589,-5.3573,-5.389,-5.4128,-5.4356,-5.423,-5.4271,-5.4219,-5.457,-5.4805,-5.4862,-5.4749,-5.4828,-5.5079,-5.5367,-5.5282,-5.5302,-5.5273,-5.559,-5.5796,-5.5789,-5.575,-5.5807,-5.6054,-5.6329,-5.6309,-5.6249,-5.62,-5.6276,-5.6555,-5.6561,-5.6421,-5.6306,-5.6278,-5.6492,-5.6449,-5.631,-5.6139,-5.6141,-5.6396,-5.6359,-5.6359,-5.6298,-5.6474,-5.6825,-5.6923,-5.6801,-5.6733,-5.6448,-5.6479,-5.6339,-5.6005,-5.5556,-5.528,-5.5166,-5.5178,-5.4734,-5.4516,-5.4292,-5.4349,-5.435,-5.4195,-5.3951,-5.3893,-5.3911,-5.4133,-5.406,-5.4,-5.3892,-5.4017,-5.4203,-5.4216,-5.4083,-5.403,-5.4085,-5.4321,-5.425,-5.4167,-5.4057,-5.409,-5.4314,-5.4272,-5.4121,-5.4077,-5.4005,-5.4167,-5.4299,-5.4163,-5.4045,-5.3976,-5.4057,-5.4185,-5.4073,-5.3929,-5.3814,-5.3993,-5.4082,-5.3978,-5.3815,-5.3747,-5.3836,-5.3991,-5.3878,-5.3781,-5.3692,-5.3813,-5.4153,-5.4292,-5.4264,-5.4276,-5.4268,-5.455,-5.452,-5.4397,-5.3939,-5.3774,-5.3761,-5.3834,-5.3797,-5.3593,-5.3786,-5.3913,-5.3912,-5.3605,-5.3368,-5.3123,-5.3242,-5.334,-5.3189,-5.3011,-5.2843,-5.3021,-5.3143,-5.3067,-5.3023,-5.3927,-5.6807,-6.0048,-6.2686,-6.6245,-6.7431,-6.7558,-6.1791,-4.8584,-3.532,-2.9585,-2.8594,-3.0208,-3.4006,-3.7861,-4.2809,-4.6618,-4.968,-5.1256,-5.2097,-5.2066,-5.25,-5.2596,-5.2738,-5.2895,-5.2882,-5.2948,-5.3411,-5.3541,-5.3904,-5.3798,-5.3986,-5.4236,-5.4604,-5.4561,-5.4584,-5.4509,-5.4874,-5.503,-5.5081,-5.5044,-5.5129,-5.5317,-5.5576,-5.5531,-5.5527,-5.5482,-5.563,-5.591,-5.5933,-5.5789,-5.5771,-5.5801,-5.6091,-5.6041,-5.59,-5.5701,-5.5738,-5.5895,-5.5863,-5.5692,-5.5572,-5.5609,-5.5736,-5.5957,-5.5986,-5.5961,-5.6018,-5.627,-5.6415,-5.6258,-5.597,-5.5645,-5.5559,-5.5439,-5.5104,-5.4798,-5.4502,-5.4485,-5.444,-5.4199,-5.3955,-5.3885,-5.387,-5.4081,-5.4,-5.3842,-5.3688,-5.3746,-5.397,-5.3985,-5.3891,-5.3747,-5.3811,-5.4046,-5.3978,-5.3921,-5.3819,-5.3913,-5.4132,-5.4112,-5.4032,-5.3926,-5.381,-5.3949,-5.4055,-5.3964,-5.3842,-5.3779,-5.3929,-5.4021,-5.3917,-5.3748,-5.3654,-5.377,-5.3848,-5.3733,-5.3571,-5.3502,-5.3576,-5.3741,-5.3625,-5.356,-5.3399,-5.348,-5.361,-5.3655,-5.3455,-5.3395,-5.3322,-5.3529,-5.3498,-5.3412,-5.3268,-5.3365,-5.3483,-5.3426,-5.3279,-5.3189,-5.3156,-5.3283,-5.3361,-5.3338,-5.339,-5.3551,-5.3736,-5.3963,-5.3916,-5.382,-5.3711,-5.3867,-5.3909,-5.3541,-5.3302,-5.3241,-5.3415,-5.3548,-5.3543,-5.3513,-5.3508,-5.312,-5.3179,-5.3045,-5.2758,-5.2687,-5.2692,-5.3011,-5.291,-5.2784,-5.2622,-5.2649,-5.2825,-5.3288,-5.509,-5.7954,-6.0373,-6.3974,-6.6481,-6.6221,-6.4948,-5.5545,-4.5094,-3.781,-3.4599,-3.2806,-3.3712,-3.7785,-4.1724,-4.5689,-4.8373,-5.054,-5.2004,-5.2994,-5.3036,-5.3343,-5.3288,-5.383,-5.3845,-5.4035,-5.3805,-5.3914,-5.3956,-5.4447,-5.4414,-5.4484,-5.4312,-5.4547,-5.4759,-5.4889,-5.4735,-5.4811,-5.4858,-5.5194,-5.5134,-5.5117,-5.5031,-5.5021,-5.5212,-5.5465,-5.5394,-5.5313,-5.5169,-5.5457,-5.5603,-5.5465,-5.5337,-5.5282,-5.5405,-5.5477,-5.5349,-5.513,-5.507,-5.5171,-5.5253,-5.5095,-5.5142,-5.4947,-5.5066,-5.5339,-5.5578,-5.5509,-5.5558,-5.5563,-5.5716,-5.5564,-5.5299,-5.4944,-5.4809,-5.4789,-5.4478,-5.4069,-5.3836,-5.3751,-5.3822,-5.3621,-5.3445,-5.3128,-5.2884,-5.2742,-5.2748,-5.2539,-5.2367,-5.2154,-5.225,-5.2123,-5.1837,-5.1097,-4.9589,-4.8803,-4.8703,-4.8371,-4.9128,-5.051,-5.1325,-5.2146,-5.2548,-5.2402,-5.2346,-5.2371,-5.2713,-5.263,-5.2613,-5.2374,-5.246,-5.2537,-5.254,-5.2393,-5.2348,-5.2234,-5.2489,-5.2399,-5.2336,-5.2137,-5.2159,-5.229,-5.2331,-5.2184,-5.2167,-5.2021,-5.2156,-5.2185,-5.2134,-5.1998,-5.1925,-5.2038,-5.2235,-5.2238,-5.225,-5.2287,-5.2581,-5.2628,-5.2577,-5.2562,-5.2443,-5.2386,-5.2238,-5.206,-5.1839,-5.1702,-5.1854,-5.2013,-5.2105,-5.2091,-5.191,-5.1758,-5.1824,-5.17,-5.1533,-5.1353,-5.1329,-5.1396,-5.1237,-5.1098,-5.1001,-5.097,-5.1285,-5.2371,-5.4605,-5.744,-5.9801,-6.3521,-6.533,-6.4207,-5.6435,-4.5178,-3.717,-3.36,-3.2443,-3.2849,-3.5858,-3.7686,-4.176,-4.543,-4.8003,-4.9955,-5.112,-5.1914,-5.2101,-5.2308,-5.2355,-5.2588,-5.2846,-5.2973,-5.2914,-5.3031,-5.3131,-5.347,-5.3454,-5.3527,-5.3448,-5.3519,-5.3667,-5.3932,-5.3882,-5.3927,-5.3879,-5.4156,-5.4324,-5.4382,-5.4231,-5.4367,-5.4569,-5.48,-5.4718,-5.4638,-5.4615,-5.4863,-5.4996,-5.5022,-5.4897,-5.4865,-5.4874,-5.509,-5.4993,-5.4899,-5.4744,-5.4776,-5.4934,-5.4934,-5.4847,-5.4867,-5.4999,-5.5268,-5.5184,-5.5121,-5.4974,-5.4996,-5.5006,-5.4888,-5.4591,-5.4221,-5.3896,-5.3837,-5.3723,-5.3374,-5.3077,-5.2884,-5.2928,-5.2885,-5.2726,-5.2591,-5.2452,-5.2533,-5.2605,-5.2464,-5.2343,-5.2275,-5.2323,-5.2407,-5.2318,-5.2134,-5.1977,-5.1997,-5.214,-5.2207,-5.2157,-5.2105,-5.2234,-5.2415,-5.2396,-5.2318,-5.2235,-5.229,-5.2535,-5.2548,-5.2436,-5.2381,-5.2366,-5.2569,-5.2618,-5.2518,-5.2323,-5.224,-5.2458,-5.2593,-5.2477,-5.215,-5.2141,-5.2334,-5.2455,-5.2216,-5.2142,-5.213,-5.2325,-5.2391,-5.2295,-5.2342,-5.2427,-5.261,-5.2884,-5.3046,-5.3036,-5.2942,-5.3013,-5.3118,-5.2633,-5.2427,-5.2307,-5.2421,-5.2722,-5.2682,-5.27,-5.267,-5.2624,-5.2573,-5.2554,-5.2395,-5.2221,-5.2162,-5.2351,-5.2426,-5.2345,-5.2234,-5.2174,-5.2286,-5.2524,-5.341,-5.5983,-5.9084,-6.2189,-6.6175,-6.7707,-6.5979,-6.1203,-4.8062,-3.4975,-2.9816,-2.8989,-3.0664,-3.4638,-3.8877,-4.3754,-4.7674,-5.0224,-5.2032,-5.2916,-5.3292,-5.3485,-5.3664,-5.3876,-5.4255,-5.4344,-5.4395,-5.4373,-5.4411,-5.4655,-5.4958,-5.4931,-5.4947,-5.5007,-5.5282,-5.5505,-5.5535,-5.5529,-5.5575,-5.5817,-5.6035,-5.6037,-5.6049,-5.6121,-5.6417,-5.6586,-5.6671,-5.6639,-5.6654,-5.6826,-5.7072,-5.7084,-5.7022,-5.6993,-5.7066,-5.7304,-5.727,-5.714,-5.7051,-5.7086,-5.729,-5.7303,-5.7218,-5.7211,-5.7367,-5.7533,-5.7751,-5.78,-5.7744,-5.7687,-5.7742,-5.775,-5.7445,-5.7079,-5.6796,-5.6698,-5.6552,-5.6291,-5.6013,-5.5837,-5.5856,-5.5868,-5.5685,-5.5563,-5.5475,-5.5519,-5.5683,-5.5655,-5.5537,-5.5465,-5.5567,-5.5849,-5.5793,-5.577,-5.5723,-5.5821,-5.607,-5.6041,-5.5996,-5.5975,-5.6025,-5.6263,-5.6239,-5.6203,-5.611,-5.6073,-5.6258,-5.6384,-5.6325,-5.6205,-5.616,-5.6317,-5.6507,-5.6366,-5.6262,-5.6244,-5.6389,-5.6467,-5.6419,-5.6317,-5.6268,-5.642,-5.652,-5.6491,-5.6415,-5.6328,-5.6491,-5.6825,-5.6959,-5.7007,-5.7091,-5.7178,-5.7507,-5.7464,-5.7441,-5.7173,-5.6862,-5.7024,-5.697,-5.6978,-5.6983,-5.6887,-5.7172,-5.7404,-5.7148,-5.6882,-5.6758,-5.685,-5.6936,-5.6842,-5.6737,-5.6678,-5.682,-5.6993,-5.6853,-5.6727,-5.7109,-5.9114,-6.2456,-6.5051,-6.6573,-7.039,-7.2102,-7.1039,-6.0592,-4.6876,-3.7439,-3.4423,-3.4862,-3.7113,-4.1266,-4.5652,-5.045,-5.3673,-5.6101,-5.6888,-5.7639,-5.7744,-5.847,-5.838,-5.8657,-5.8483,-5.8772,-5.8864,-5.9309,-5.9147,-5.9295,-5.9207,-5.962,-5.9706,-5.9864,-5.9743,-5.9861,-6.0001,-6.0342,-6.0245,-6.0292,-6.0263,-6.0594,-6.0685,-6.0795,-6.0768,-6.0773,-6.0851,-6.1158,-6.117,-6.1153,-6.1067,-6.1152,-6.137,-6.1351,-6.1236,-6.1122,-6.1158,-6.1336,-6.1209,-6.1074,-6.0983,-6.0956,-6.1118,-6.1264,-6.1307,-6.1308,-6.1419,-6.1644,-6.1846,-6.1625,-6.1453,-6.1179,-6.1145,-6.0909,-6.0586,-6.0147,-5.9951,-5.9866,-5.9858,-5.9544,-5.9482,-5.9213,-5.9224,-5.9286,-5.9236,-5.9063,-5.9014,-5.9,-5.9208,-5.917,-5.9119,-5.8967,-5.9113,-5.9243,-5.9286,-5.9146,-5.904,-5.9044,-5.9328,-5.9333,-5.9316,-5.9128,-5.909,-5.9167,-5.9349,-5.9186,-5.907,-5.8954,-5.9128,-5.9181,-5.9132,-5.8913,-5.8878,-5.9001,-5.9082,-5.8987,-5.8889,-5.8737,-5.8847,-5.8957,-5.8931,-5.8779,-5.868,-5.8663,-5.8851,-5.8789,-5.8677,-5.8511,-5.8659,-5.8952,-5.9047,-5.9085,-5.9091,-5.9201,-5.9516,-5.9474,-5.9413,-5.9326,-5.9143,-5.8857,-5.889,-5.8704,-5.8687,-5.8663,-5.8825,-5.9072,-5.8972,-5.8622,-5.8408,-5.8469,-5.8497,-5.8359,-5.8274,-5.824,-5.8298,-5.8378,-5.8269,-5.8219,-5.8126,-5.8528,-6.0513,-6.3451,-6.5738,-6.8901,-7.1967,-7.1953,-6.8111,-5.6797,-4.6997,-4.0965,-3.9195,-3.8576,-4.0402,-4.4642,-4.8581,-5.2639,-5.3868,-5.6062,-5.7322,-5.8084,-5.8382,-5.8909,-5.8832,-5.9033,-5.8947,-5.9345,-5.9415,-5.9521,-5.9398,-5.9538,-5.9655,-5.9934,-5.9809,-5.9872,-5.9809,-6.0012,-6.019,-6.0255,-6.0195,-6.0207,-6.0236,-6.0554,-6.0567,-6.057,-6.0458,-6.0649,-6.0789,-6.0763,-6.0602,-6.0562,-6.0548,-6.0783,-6.0689,-6.0617,-6.0522,-6.0464,-6.0488,-6.0557,-6.0394,-6.0229,-6.0038,-6.0225,-6.0336,-6.0256,-6.0244,-6.0264,-6.0599,-6.0804,-6.0768,-6.0572,-6.0442,-6.0428,-6.0343,-6.0154,-5.98,-5.9407,-5.9205,-5.9143,-5.8937,-5.8677,-5.8464,-5.8333,-5.8514,-5.8336,-5.8193,-5.8042,-5.8101,-5.8354,-5.8317,-5.8144,-5.8057,-5.8023,-5.817,-5.8212,-5.8168,-5.799,-5.7942,-5.8001,-5.8147,-5.7987,-5.7917,-5.7766,-5.8012,-5.8,-5.7861,-5.7676,-5.7634,-5.7757,-5.787,-5.7725,-5.7574,-5.7471,-5.7487,-5.7627,-5.7595,-5.7438,-5.7312,-5.7276,-5.7467,-5.7332,-5.7256,-5.7098,-5.7233,-5.7463,-5.7538,-5.7528,-5.7531,-5.7625,-5.7862,-5.7905,-5.7854,-5.7739,-5.7588,-5.7269,-5.7219,-5.6943,-5.6871,-5.6858,-5.7018,-5.7259,-5.717,-5.6904,-5.672,-5.6747,-5.6764,-5.6629,-5.6416,-5.6398,-5.6497,-5.6602,-5.6509,-5.639,-5.6321,-5.6813,-5.8897,-6.1836,-6.3965,-6.7025,-6.9864,-6.9403,-6.4947,-5.3804,-4.4995,-3.9553,-3.8317,-3.7616,-3.9287,-4.3266,-4.6963,-4.9146,-5.1913,-5.4311,-5.5344,-5.631,-5.6386,-5.7137,-5.6888,-5.7284,-5.7045,-5.7601,-5.7524,-5.7767,-5.7554,-5.7821,-5.7764,-5.8225,-5.797,-5.8142,-5.7948,-5.8265,-5.8328,-5.853,-5.8361,-5.8497,-5.8478,-5.8904,-5.8829,-5.8926,-5.8749,-5.895,-5.9069,-5.9159,-5.8941,-5.8973,-5.8997,-5.9232,-5.9151,-5.9116,-5.893,-5.8872,-5.8975,-5.9084,-5.8876,-5.8737,-5.8611,-5.8727,-5.8859,-5.8793,-5.881,-5.8866,-5.9124,-5.9224,-5.9105,-5.8696,-5.8497,-5.8475,-5.8574,-5.8287,-5.7959,-5.7598,-5.7458,-5.7394,-5.7167,-5.693,-5.6762,-5.6608,-5.6786,-5.6637,-5.6563,-5.6309,-5.6411,-5.6568,-5.6565,-5.6378,-5.6346,-5.6302,-5.6448,-5.6462,-5.6479,-5.6255,-5.6294,-5.6365,-5.6512,-5.6345,-5.6281,-5.6157,-5.6371,-5.6422,-5.6356,-5.6146,-5.6139,-5.6177,-5.636,-5.6166,-5.6086,-5.5956,-5.6067,-5.6133,-5.6132,-5.5918,-5.5852,-5.5804,-5.6019,-5.5865,-5.5813,-5.5693,-5.5773,-5.6035,-5.6174,-5.6138,-5.6243,-5.6305,-5.6584,-5.6558,-5.6544,-5.645,-5.6274,-5.5914,-5.5916,-5.5658,-5.5619,-5.5603,-5.5716,-5.6007,-5.598,-5.568,-5.5429,-5.5519,-5.5526,-5.535,-5.5226,-5.5106,-5.5264,-5.5373,-5.5276,-5.5143,-5.5076,-5.5471,-5.7346,-6.0517,-6.3042,-6.6457,-6.9534,-6.9885,-6.4881,-5.2354,-4.0202,-3.4223,-3.3447,-3.4423,-3.7266,-4.0931,-4.331,-4.7769,-5.1275,-5.3362,-5.463,-5.5111,-5.5626,-5.5939,-5.6062,-5.6107,-5.6174,-5.6447,-5.67,-5.6675,-5.6632,-5.6666,-5.6954,-5.714,-5.7114,-5.7082,-5.7101,-5.7204,-5.7475,-5.7515,-5.7508,-5.7493,-5.7603,-5.7928,-5.793,-5.7925,-5.7906,-5.8014,-5.8236,-5.8329,-5.824,-5.8222,-5.8266,-5.8538,-5.8562,-5.845,-5.8308,-5.8238,-5.8348,-5.8423,-5.8294,-5.8135,-5.8074,-5.8249,-5.8376,-5.837,-5.8304,-5.8372,-5.8574,-5.873,-5.8519,-5.8259,-5.7996,-5.793,-5.7875,-5.7553,-5.7129,-5.6812,-5.6592,-5.6606,-5.6374,-5.6136,-5.5859,-5.5799,-5.5918,-5.5853,-5.5579,-5.5488,-5.5463,-5.568,-5.5638,-5.5555,-5.5418,-5.5408,-5.5572,-5.5731,-5.5654,-5.551,-5.5458,-5.5614,-5.5728,-5.5623,-5.5469,-5.5438,-5.5543,-5.5664,-5.5539,-5.5402,-5.5286,-5.5467,-5.5539,-5.5466,-5.5362,-5.5277,-5.5256,-5.5442,-5.5385,-5.5224,-5.5058,-5.5094,-5.5275,-5.5209,-5.5045,-5.493,-5.4898,-5.5086,-5.5106,-5.5098,-5.5117,-5.5298,-5.5593,-5.5648,-5.5601,-5.5544,-5.5494,-5.5666,-5.5641,-5.5157,-5.4901,-5.476,-5.4968,-5.5107,-5.503,-5.5028,-5.4929,-5.4847,-5.4826,-5.4662,-5.4453,-5.4354,-5.4419,-5.4541,-5.4463,-5.436,-5.4219,-5.4229,-5.4406,-5.4702,-5.6231,-5.933,-6.2154,-6.5989,-6.9114,-6.9557,-6.431,-5.1439,-3.8446,-3.2253,-3.1149,-3.1291,-3.3921,-3.7906,-4.2663,-4.7043,-5.0361,-5.253,-5.3905,-5.454,-5.4804,-5.4915,-5.5055,-5.5348,-5.5631,-5.5606,-5.5571,-5.5604,-5.5841,-5.6043,-5.6048,-5.603,-5.6019,-5.6151,-5.6438,-5.6475,-5.6428,-5.6406,-5.6573,-5.6855,-5.6889,-5.6845,-5.6837,-5.6972,-5.7224,-5.7281,-5.7272,-5.7207,-5.7304,-5.7542,-5.7599,-5.7485,-5.7399,-5.7333,-5.7454,-5.7585,-5.7463,-5.7287,-5.7188,-5.7319,-5.7412,-5.7322,-5.7257,-5.7222,-5.7504,-5.7725,-5.7709,-5.76,-5.7526,-5.7525,-5.7578,-5.7291,-5.6949,-5.6541,-5.627,-5.6215,-5.5955,-5.5769,-5.536,-5.5213,-5.5259,-5.5154,-5.4952,-5.4704,-5.4724,-5.4804,-5.4783,-5.4666,-5.4612,-5.4548,-5.4752,-5.4801,-5.4721,-5.457,-5.4504,-5.4669,-5.4785,-5.4707,-5.4592,-5.4564,-5.4735,-5.4824,-5.4722,-5.4551,-5.4466,-5.4579,-5.4706,-5.4642,-5.4521,-5.4384,-5.4382,-5.4583,-5.4538,-5.4367,-5.4239,-5.4285,-5.4407,-5.4334,-5.4203,-5.4064,-5.4037,-5.424,-5.4201,-5.4086,-5.3961,-5.3962,-5.4046,-5.423,-5.4273,-5.4252,-5.4316,-5.4587,-5.4772,-5.4716,-5.4612,-5.4548,-5.4521,-5.4296,-5.4057,-5.3911,-5.3923,-5.4082,-5.4262,-5.4274,-5.4035,-5.3909,-5.3797,-5.3925,-5.3775,-5.3553,-5.3398,-5.342,-5.366,-5.3576,-5.3456,-5.3279,-5.3336,-5.4015,-5.584,-5.8835,-6.134,-6.5115,-6.812,-6.8223,-6.6836,-5.6187,-4.3553,-3.5082,-3.2064,-3.1588,-3.3532,-3.763,-4.2226,-4.6721,-4.9527,-5.1718,-5.272,-5.3618,-5.3904,-5.421,-5.4125,-5.4358,-5.444,-5.4827,-5.4674,-5.4803,-5.4656,-5.4954,-5.5046,-5.5243,-5.5139,-5.5219,-5.5236,-5.5631,-5.5545,-5.562,-5.5524,-5.57,-5.5883,-5.5938,-5.5859,-5.5949,-5.5926,-5.6106,-5.621,-5.6202,-5.6073,-5.6048,-5.6238,-5.643,-5.629,-5.6198,-5.6066,-5.6186,-5.6277,-5.6134,-5.5972,-5.5813,-5.5918,-5.6042,-5.5969,-5.5923,-5.599,-5.6137,-5.6504,-5.6565,-5.6463,-5.633,-5.6294,-5.6244,-5.6055,-5.5648,-5.5275,-5.4982,-5.498,-5.4756,-5.4516,-5.4217,-5.4117,-5.4203,-5.4084,-5.3975,-5.3818,-5.3679,-5.3819,-5.3925,-5.3868,-5.3715,-5.3638,-5.3751,-5.3905,-5.3772,-5.3706,-5.359,-5.3769,-5.3868,-5.3765,-5.3595,-5.3571,-5.3608,-5.3768,-5.3735,-5.3628,-5.3476,-5.3544,-5.3639,-5.3634,-5.348,-5.3359,-5.3282,-5.3528,-5.3411,-5.3288,-5.3127,-5.3155,-5.3264,-5.3273,-5.308,-5.3114,-5.3067,-5.3353,-5.3577,-5.3609,-5.3534,-5.3528,-5.3688,-5.3908,-5.3766,-5.3452,-5.2893,-5.2954,-5.3005,-5.2967,-5.285,-5.2903,-5.3183,-5.3268,-5.2946,-5.2664,-5.2571,-5.2522,-5.2667,-5.2647,-5.2461,-5.2347,-5.2348,-5.2517,-5.2436,-5.2379,-5.2897,-5.4991,-5.8137,-6.0428,-6.3561,-6.5871,-6.498,-5.994,-5.422,-4.4928,-4.0702,-3.5588,-3.2952,-3.4694,-3.7667,-4.1861,-4.5059,-4.8531,-5.0231,-5.2079,-5.2157,-5.2789,-5.2852,-5.3475,-5.3227,-5.3506,-5.3285,-5.3792,-5.3765,-5.4074,-5.3864,-5.4013,-5.3893,-5.4393,-5.4288,-5.4451,-5.427,-5.4542,-5.4711,-5.4876,-5.4748,-5.4768,-5.481,-5.5103,-5.5162,-5.5165,-5.5076,-5.5104,-5.5254,-5.5398,-5.5322,-5.5232,-5.5217,-5.5344,-5.5476,-5.5362,-5.5259,-5.5165,-5.5303,-5.5347,-5.522,-5.5041,-5.506,-5.5217,-5.5485,-5.5451,-5.5504,-5.5423,-5.5633,-5.5785,-5.5773,-5.5434,-5.5265,-5.5033,-5.5073,-5.4776,-5.4479,-5.4092,-5.4017,-5.406,-5.4009,-5.3728,-5.3648,-5.3527,-5.376,-5.3707,-5.3653,-5.3494,-5.3457,-5.3566,-5.3809,-5.3634,-5.3629,-5.3477,-5.3723,-5.3798,-5.3812,-5.3653,-5.3672,-5.373,-5.3985,-5.3781,-5.375,-5.3619,-5.3747,-5.3868,-5.3931,-5.3743,-5.3715,-5.3666,-5.392,-5.386,-5.3829,-5.365,-5.3716,-5.3842,-5.3901,-5.3719,-5.3654,-5.3607,-5.3868,-5.3827,-5.3764,-5.3651,-5.3701,-5.3879,-5.4183,-5.4227,-5.4279,-5.4276,-5.4532,-5.4745,-5.4762,-5.4613,-5.4285,-5.4093,-5.4115,-5.402,-5.4025,-5.3943,-5.4147,-5.4483,-5.4339,-5.4173,-5.396,-5.3906,-5.4081,-5.3983,-5.381,-5.3748,-5.3781,-5.394,-5.3986,-5.3876,-5.3846,-5.4706,-5.7302,-6.0425,-6.2972,-6.656,-6.8266,-6.771,-6.4651,-5.2748,-4.0914,-3.4306,-3.3135,-3.3771,-3.6094,-3.9948,-4.4234,-4.8494,-5.1227,-5.3329,-5.4058,-5.4678,-5.4948,-5.5478,-5.5443,-5.5643,-5.557,-5.5863,-5.605,-5.6274,-5.6166,-5.6304,-5.63,-5.6745,-5.6731,-5.6821,-5.6718,-5.6919,-5.7112,-5.7326,-5.7237,-5.7347,-5.7351,-5.7766,-5.7812,-5.789,-5.7761,-5.7883,-5.7994,-5.8333,-5.8289,-5.827,-5.8166,-5.8379,-5.8487,-5.8489,-5.8327,-5.8312,-5.8376,-5.859,-5.8422,-5.8343,-5.8269,-5.8471,-5.8664,-5.8701,-5.8663,-5.872,-5.8814,-5.9071,-5.8985,-5.8744,-5.8411,-5.8221,-5.8154,-5.7883,-5.7506,-5.7194,-5.6983,-5.694,-5.6793,-5.6595,-5.6363,-5.6278,-5.6358,-5.6443,-5.6354,-5.6125,-5.6057,-5.6165,-5.6381,-5.6257,-5.619,-5.6095,-5.628,-5.6405,-5.637,-5.6238,-5.6201,-5.6332,-5.6525,-5.6395,-5.6308,-5.6193,-5.6258,-5.6427,-5.6464,-5.6352,-5.6244,-5.6203,-5.644,-5.6397,-5.6314,-5.6141,-5.614,-5.6284,-5.6298,-5.6145,-5.6059,-5.6002,-5.6192,-5.6162,-5.6043,-5.5954,-5.5944,-5.6181,-5.6502,-5.6502,-5.6526,-5.6511,-5.6702,-5.6889,-5.6871,-5.6673,-5.6238,-5.6093,-5.615,-5.6101,-5.6051,-5.5905,-5.6174,-5.6377,-5.6286,-5.5951,-5.5725,-5.5639,-5.5763,-5.5705,-5.558,-5.5426,-5.5427,-5.5574,-5.5575,-5.5409,-5.5348,-5.6145,-5.8752,-6.1997,-6.4566,-6.8458,-7.0367,-7.0477,-6.6276,-5.344,-4.0059,-3.3324,-3.2342,-3.3702,-3.7111,-4.0711,-4.5541,-4.9845,-5.2785,-5.4595,-5.5295,-5.5678,-5.609,-5.6439,-5.6549,-5.655,-5.6529,-5.669,-5.6966,-5.7101,-5.7033,-5.7052,-5.7164,-5.7433,-5.751,-5.7494,-5.7481,-5.7552,-5.7832,-5.7973,-5.7957,-5.7907,-5.7988,-5.8276,-5.8348,-5.8366,-5.8314,-5.8327,-5.846,-5.8727,-5.8683,-5.8596,-5.8563,-5.87,-5.8874,-5.8803,-5.8642,-5.8502,-5.8586,-5.8746,-5.8606,-5.846,-5.8337,-5.851,-5.8728,-5.8742,-5.8756,-5.8727,-5.8803,-5.9085,-5.9024,-5.8743,-5.8448,-5.8202,-5.8114,-5.7848,-5.745,-5.7072,-5.6853,-5.6874,-5.6713,-5.6445,-5.623,-5.6121,-5.6157,-5.6245,-5.6118,-5.5901,-5.5819,-5.5905,-5.6044,-5.598,-5.5838,-5.5809,-5.5923,-5.6137,-5.5994,-5.5866,-5.5814,-5.5962,-5.6099,-5.6012,-5.5873,-5.5824,-5.5814,-5.5993,-5.5967,-5.5855,-5.574,-5.5682,-5.5893,-5.5837,-5.5703,-5.5547,-5.555,-5.5703,-5.5678,-5.5551,-5.5409,-5.5347,-5.5512,-5.5511,-5.5451,-5.5288,-5.5167,-5.5269,-5.5446,-5.5389,-5.54,-5.5493,-5.5678,-5.5969,-5.5898,-5.581,-5.5724,-5.586,-5.5818,-5.5375,-5.5172,-5.5047,-5.5215,-5.5379,-5.5302,-5.5319,-5.5279,-5.5082,-5.5014,-5.4965,-5.4754,-5.4599,-5.4553,-5.4741,-5.4743,-5.4631,-5.4455,-5.445,-5.4584,-5.4928,-5.646,-5.951,-6.0979,-6.3803,-6.813,-6.9682,-6.8653,-5.8125,-4.4561,-3.4729,-3.1359,-3.1371,-3.3709,-3.8033,-4.2701,-4.7387,-5.0449,-5.2741,-5.3865,-5.4789,-5.4905,-5.5175,-5.5101,-5.5445,-5.5587,-5.587,-5.5734,-5.5819,-5.5782,-5.6196,-5.6183,-5.6283,-5.6162,-5.6344,-5.6545,-5.6756,-5.6669,-5.6663,-5.6677,-5.7029,-5.7066,-5.7062,-5.6943,-5.7026,-5.7172,-5.7446,-5.7438,-5.7399,-5.7332,-5.7484,-5.7678,-5.7611,-5.746,-5.7364,-5.7489,-5.7569,-5.7507,-5.7353,-5.724,-5.7271,-5.7375,-5.7366,-5.728,-5.7223,-5.7318,-5.7621,-5.7777,-5.776,-5.7741,-5.7618,-5.7702,-5.7458,-5.7109,-5.6731,-5.6513,-5.6352,-5.6184,-5.5849,-5.557,-5.5412,-5.5452,-5.5439,-5.5272,-5.4965,-5.4912,-5.4875,-5.5061,-5.489,-5.48,-5.4657,-5.4834,-5.503,-5.4948,-5.4772,-5.4745,-5.4852,-5.5063,-5.4867,-5.4887,-5.4746,-5.4812,-5.4935,-5.4982,-5.4801,-5.4681,-5.4565,-5.4789,-5.4776,-5.4701,-5.4528,-5.4528,-5.4645,-5.4675,-5.4478,-5.4358,-5.4253,-5.446,-5.4459,-5.4396,-5.4214,-5.4132,-5.4227,-5.4372,-5.4303,-5.4311,-5.4311,-5.458,-5.4847,-5.4795,-5.4764,-5.4736,-5.4825,-5.4758,-5.4272,-5.4054,-5.3869,-5.3946,-5.4218,-5.4163,-5.4172,-5.414,-5.402,-5.4014,-5.3941,-5.3764,-5.3556,-5.3466,-5.3644,-5.3601,-5.3519,-5.3421,-5.3336,-5.3561,-5.3872,-5.5371,-5.6778,-5.9351,-6.2039,-6.5554,-6.7402,-6.6375,-5.9181,-4.8103,-4.0354,-3.574,-3.4084,-3.4201,-3.7453,-4.1406,-4.5416,-4.8559,-5.0818,-5.247,-5.3539,-5.3691,-5.3879,-5.3956,-5.4181,-5.4426,-5.468,-5.4564,-5.4636,-5.4654,-5.499,-5.5037
