8.2286,8.2062,8.2042,8.2016,8.2008,8.1752,8.1677,8.1788,8.1661,8.1761,8.1682,8.1661,8.1658,8.171,8.1678,8.1725,8.1636,8.155,8.1626,8.1737,8.1766,8.1707,8.1636,8.1713,8.1786,8.1783,8.152,8.1564,8.1504,8.1493,8.1657,8.147,8.133,8.1243,8.1083,8.1155,8.1193,8.1231,8.1096,8.1106,8.1093,8.1189,8.1079,8.1157,8.0918,8.1153,8.1457,8.1204,8.1184,8.1322,8.1253,8.1254,8.1296,8.1144,8.1101,8.1352,8.1455,8.1283,8.1305,8.1551,8.1677,8.1558,8.1493,8.1643,8.1419,8.1633,8.205,8.2418,8.252,8.2716,8.2476,8.2109,8.2186,8.2241,8.2178,8.2063,8.1729,8.1489,8.1633,8.1735,8.1916,8.1766,8.1685,8.1553,8.1579,8.1659,8.1708,8.1645,8.1477,8.1271,8.1415,8.1557,8.1309,8.0433,8.0008,7.9855,8.0503,8.2455,8.6539,9.0031,8.9744,8.5069,8.0671,7.9327,8.0082,8.0017,8.0004,8.0556,8.0454,8.044,8.1159,8.2192,8.2372,8.2244,8.2176,8.2231,8.2418,8.2566,8.2459,8.2472,8.2359,8.2769,8.3064,8.2999,8.3141,8.3109,8.3125,8.2942,8.2999,8.3285,8.3548,8.3495,8.338,8.3349,8.3759,8.3817,8.3825,8.3862,8.3941,8.4073,8.4051,8.4304,8.4352,8.4536,8.4524,8.4693,8.481,8.4991,8.5248,8.5429,8.5415,8.5533,8.5798,8.5879,8.5894,8.6059,8.67,8.6651,8.6579,8.6645,8.6494,8.6248,8.619,8.5908,8.571,8.5731,8.5219,8.4836,8.4256,8.4187,8.4237,8.4136,8.3927,8.3626,8.3537,8.3165,8.3118,8.3218,8.3163,8.3507,8.3291,8.3163,8.3129,8.3091,8.3068,8.3039,8.3149,8.3073,8.295,8.3295,8.3162,8.3197,8.3155,8.3046,8.3263,8.3356,8.3324,8.3253,8.3316,8.3312,8.3218,8.3243,8.3498,8.361,8.3617,8.3354,8.3288,8.346,8.3573,8.3413,8.3542,8.369,8.347,8.3487,8.3629,8.3727,8.3752,8.3621,8.358,8.3545,8.3643,8.379,8.3852,8.3717,8.3585,8.3576,8.3822,8.3798,8.3939,8.3767,8.3798,8.3519,8.3681,8.3843,8.3805,8.3893,8.3824,8.399,8.3959,8.3959,8.3878,8.3882,8.401,8.4235,8.412,8.406,8.4177,8.459,8.52,8.5159,8.4588,8.44,8.4068,8.4081,8.439,8.4522,8.4267,8.4033,8.392,8.3978,8.4019,8.4021,8.3764,8.3776,8.3992,8.4013,8.4125,8.4173,8.4111,8.4194,8.4204,8.3997,8.2894,8.2351,8.2498,8.2945,8.4622,8.8041,9.2149,9.3278,9.208,8.7781,8.3591,8.3252,8.3497,8.3215,8.3346,8.3056,8.3204,8.4027,8.482,8.4639,8.4633,8.508,8.4793,8.4562,8.4477,8.4928,8.488,8.4997,8.4831,8.4738,8.4818,8.5012,8.5023,8.487,8.4649,8.5033,8.5319,8.548,8.5085,8.5248,8.511,8.5249,8.5378,8.5311,8.5331,8.5426,8.5688,8.5713,8.5741,8.5681,8.5777,8.5927,8.5944,8.6048,8.6213,8.6397,8.6605,8.675,8.6768,8.6867,8.7106,8.7165,8.7399,8.7451,8.7574,8.7678,8.7664,8.7761,8.7682,8.7254,8.7185,8.7014,8.6771,8.6333,8.5931,8.5555,8.5307,8.509,8.4934,8.4765,8.4481,8.4232,8.4268,8.4384,8.4272,8.403,8.3862,8.3921,8.422,8.3982,8.383,8.3703,8.3767,8.39,8.4062,8.3986,8.3832,8.3615,8.3793,8.3771,8.3851,8.3865,8.3832,8.3929,8.3904,8.3941,8.401,8.3932,8.398,8.3981,8.4068,8.3953,8.3793,8.4026,8.4178,8.4056,8.3811,8.388,8.4209,8.4286,8.4177,8.4176,8.4303,8.4231,8.4205,8.3798,8.3814,8.4016,8.4266,8.4231,8.408,8.4134,8.4121,8.4226,8.434,8.4023,8.3746,8.3983,8.4417,8.4428,8.4238,8.4093,8.4121,8.4137,8.4147,8.4319,8.4298,8.4068,8.4202,8.4278,8.4233,8.4063,8.4233,8.453,8.4457,8.4299,8.4298,8.4455,8.4418,8.4452,8.4569,8.5122,8.5191,8.5118,8.5012,8.4812,8.4694,8.4717,8.4618,8.4362,8.4371,8.4579,8.4115,8.4134,8.4061,8.4022,8.3916,8.3927,8.4035,8.3812,8.3886,8.3921,8.3916,8.3772,8.3619,8.344,8.3235,8.2479,8.1978,8.1966,8.2519,8.4265,8.8161,9.1727,9.1311,8.7713,8.3287,8.2051,8.2373,8.2259,8.2546,8.2773,8.2228,8.2767,8.3585,8.3823,8.3644,8.3632,8.3979,8.3952,8.3885,8.3949,8.4032,8.4027,8.3937,8.3869,8.3996,8.4136,8.4222,8.4117,8.4119,8.4116,8.426,8.459,8.453,8.4459,8.4393,8.4324,8.4498,8.4889,8.4708,8.4884,8.5163,8.5186,8.5243,8.5452,8.541,8.5329,8.5414,8.5705,8.6249,8.618,8.5972,8.6142,8.6846,8.6911,8.7026,8.7129,8.7035,8.7015,8.7423,8.782,8.7703,8.758,8.7535,8.762,8.743,8.7068,8.6717,8.6541,8.6205,8.5803,8.5602,8.5325,8.4959,8.4992,8.4976,8.4595,8.4216,8.4093,8.4154,8.4068,8.3973,8.3961,8.3908,8.4063,8.4109,8.4099,8.409,8.3904,8.3888,8.3842,8.3825,8.3727,8.3802,8.3842,8.392,8.3789,8.3783,8.3966,8.3868,8.3802,8.3736,8.3862,8.3809,8.3904,8.393,8.3899,8.3903,8.4088,8.4041,8.3986,8.4012,8.3859,8.3911,8.4015,8.4024,8.3919,8.3691,8.389,8.4176,8.4036,8.4191,8.3955,8.3928,8.3862,8.3873,8.3869,8.3863,8.3797,8.3912,8.3955,8.3838,8.4004,8.4127,8.4126,8.4012,8.3868,8.3967,8.3971,8.4025,8.376,8.3735,8.3973,8.4098,8.3755,8.3811,8.4103,8.4193,8.3874,8.3849,8.3901,8.4171,8.4266,8.3908,8.381,8.3977,8.433,8.4138,8.3938,8.3807,8.4275,8.4437,8.4364,8.4546,8.4567,8.478,8.4931,8.5143,8.4687,8.4142,8.4215,8.4411,8.4726,8.4435,8.4171,8.4024,8.3882,8.3713,8.3853,8.4191,8.4178,8.397,8.3677,8.362,8.4234,8.4371,8.4081,8.4016,8.3781,8.3397,8.2741,8.2584,8.275,8.3498,8.6505,9.106,9.2967,9.0269,8.5712,8.2358,8.2532,8.2928,8.2988,8.3069,8.3083,8.2739,8.3264,8.4146,8.476,8.4533,8.4276,8.4329,8.4338,8.4415,8.4588,8.4442,8.4432,8.4642,8.4869,8.4766,8.464,8.4947,8.4859,8.4878,8.472,8.4627,8.4845,8.4938,8.5058,8.5149,8.493,8.5196,8.5236,8.5354,8.5323,8.5271,8.539,8.5792,8.5884,8.5861,8.6024,8.616,8.5965,8.6187,8.6485,8.6621,8.6857,8.6977,8.6988,8.7271,8.7416,8.7464,8.7497,8.7792,8.7897,8.7811,8.7755,8.7607,8.754,8.7512,8.7211,8.6987,8.6408,8.6121,8.6009,8.5611,8.5256,8.5195,8.4685,8.454,8.4463,8.4303,8.4172,8.4136,8.4067,8.3831,8.3898,8.3846,8.3915,8.3627,8.3518,8.3412,8.3823,8.3863,8.3759,8.3755,8.3514,8.3795,8.3657,8.3623,8.3601,8.3589,8.3414,8.3418,8.3736,8.3908,8.3688,8.3672,8.3772,8.3788,8.38,8.3664,8.3802,8.3864,8.3756,8.3533,8.3523,8.3777,8.3964,8.3852,8.3874,8.3877,8.3831,8.401,8.3785,8.3751,8.3736,8.3789,8.3901,8.3994,8.3899,8.3754,8.3656,8.3857,8.4089,8.4014,8.3967,8.3876,8.3562,8.3637,8.4009,8.409,8.3867,8.3897,8.387,8.3944,8.3977,8.3961,8.4063,8.4031,8.3995,8.377,8.3986,8.4125,8.4317,8.4251,8.4414,8.4684,8.4777,8.4708,8.4476,8.4337,8.4417,8.4341,8.4114,8.4039,8.3722,8.3524,8.3766,8.3823,8.393,8.3687,8.3698,8.3621,8.3741,8.3597,8.392,8.3753,8.3656,8.3571,8.3706,8.3422,8.2748,8.2296,8.2417,8.2856,8.3386,8.582,9.0301,9.257,9.0535,8.5298,8.1083,8.0773,8.1949,8.1728,8.2144,8.2158,8.2142,8.2827,8.3515,8.415,8.4063,8.3964,8.3934,8.4005,8.4071,8.413,8.4187,8.4286,8.4259,8.4532,8.4364,8.4332,8.4237,8.4412,8.4742,8.4687,8.4573,8.4747,8.4838,8.4786,8.4786,8.4936,8.4909,8.482,8.4827,8.5281,8.5578,8.5559,8.5544,8.5472,8.5542,8.5829,8.6128,8.626,8.6224,8.6271,8.6543,8.6945,8.7019,8.7121,8.7095,8.721,8.7378,8.764,8.7627,8.7638,8.7811,8.7733,8.7398,8.7278,8.7258,8.7016,8.6518,8.6282,8.5922,8.5457,8.5093,8.4895,8.4819,8.4594,8.4391,8.4204,8.4044,8.3969,8.3806,8.3891,8.3895,8.3714,8.3401,8.3501,8.3691,8.3694,8.3467,8.3681,8.3471,8.3542,8.3595,8.3658,8.3584,8.3549,8.3516,8.3575,8.3548,8.3527,8.3672,8.3759,8.3721,8.3611,8.3369,8.3478,8.3861,8.3887,8.3773,8.3609,8.3909,8.3748,8.3735,8.3671,8.3628,8.3758,8.3738,8.3609,8.3514,8.368,8.3749,8.3717,8.3664,8.3463,8.3474,8.3789,8.3908,8.3652,8.3545,8.3413,8.33,8.3522,8.383,8.3702,8.3631,8.3575,8.344,8.3403,8.3597,8.3642,8.3596,8.3599,8.3489,8.3399,8.3435,8.3673,8.378,8.3713,8.368,8.3509,8.3591,8.3704,8.3792,8.3862,8.3687,8.3618,8.3818,8.4246,8.4676,8.4503,8.4024,8.415,8.4198,8.3994,8.39,8.3873,8.374,8.3593,8.3562,8.3459,8.3458,8.3598,8.355,8.3479,8.3416,8.3323,8.3214,8.3418,8.3519,8.343,8.3422,8.3285,8.3004,8.2316,8.1852,8.2011,8.2358,8.3975,8.7503,9.1222,9.1971,8.8335,8.3744,8.2075,8.1751,8.1876,8.1752,8.2139,8.225,8.2218,8.2705,8.3536,8.3721,8.3544,8.3838,8.3706,8.3816,8.3717,8.3862,8.394,8.3988,8.3977,8.4088,8.392,8.4133,8.4142,8.4197,8.4256,8.4455,8.439,8.4369,8.4212,8.4326,8.4619,8.4844,8.4837,8.4798,8.4607,8.471,8.4947,8.5079,8.5247,8.5366,8.5427,8.5528,8.5401,8.5601,8.5808,8.608,8.6241,8.6197,8.6214,8.657,8.6729,8.6902,8.6963,8.7008,8.6904,8.7051,8.72,8.7111,8.7009,8.6834,8.6704,8.6354,8.596,8.5728,8.5412,8.5108,8.4775,8.4571,8.4203,8.4027,8.3804,8.3626,8.3671,8.3535,8.3535,8.3435,8.3408,8.3269,8.3204,8.323,8.3254,8.3278,8.3297,8.3157,8.3227,8.3237,8.3216,8.3087,8.3025,8.3157,8.3148,8.3157,8.3127,8.3113,8.3127,8.3295,8.3295,8.3145,8.3176,8.3075,8.3122,8.3126,8.3313,8.3211,8.3249,8.2983,8.3359,8.3368,8.3438,8.3272,8.3266,8.3381,8.3386,8.3309,8.3275,8.3203,8.3253,8.3267,8.3257,8.3264,8.3254,8.3345,8.331,8.3211,8.328,8.3309,8.3242,8.3179,8.3146,8.3274,8.3367,8.3398,8.3357,8.339,8.3339,8.3248,8.326,8.3454,8.3439,8.3383,8.3416,8.3409,8.3394,8.3252,8.3305,8.3384,8.3664,8.3343,8.3416,8.3358,8.337,8.3498,8.3464,8.3491,8.3462,8.3468,8.3465,8.3477,8.3511,8.3413,8.3453,8.3655,8.3567,8.3441,8.3371,8.3678,8.3744,8.3656,8.372,8.4262,8.4624,8.4522,8.4168,8.4113,8.4022,8.3906,8.3868,8.3929,8.3765,8.357,8.3428,8.3439,8.3436,8.3465,8.3449,8.3353,8.3384,8.3384,8.3355,8.3391,8.3257,8.3342,8.3378,8.3361,8.3228,8.2421,8.1886,8.1868,8.2082,8.3086,8.5948,9.0031,9.1857,8.9805,8.5471,8.2414,8.255,8.2624,8.2378,8.2798,8.2332,8.2575,8.3411,8.3926,8.3998,8.3737,8.367,8.3551,8.3675,8.3791,8.3961,8.3919,8.3933,8.4036,8.4124,8.4118,8.4085,8.4053,8.415,8.4274,8.4219,8.424,8.4313,8.4367,8.4421,8.4467,8.4545,8.456,8.4776,8.4867,8.4949,8.495,8.4974,8.5124,8.5214,8.5425,8.5374,8.5657,8.5668,8.5705,8.6052,8.6125,8.6201,8.6319,8.6501,8.6811,8.6869,8.6914,8.6939,8.7104,8.7238,8.7387,8.7464,8.7356,8.714,8.6985,8.6645,8.6381,8.6049,8.562,8.5378,8.5341,8.4989,8.4515,8.4331,8.4554,8.4256,8.382,8.3827,8.3771,8.365,8.3645,8.3539,8.3479,8.3652,8.37,8.3535,8.3397,8.3375,8.3343,8.3436,8.3588,8.363,8.3303,8.3195,8.3258,8.3409,8.3599,8.359,8.3458,8.3282,8.3325,8.3404,8.3415,8.3386,8.3272,8.3502,8.349,8.3547,8.3417,8.3391,8.3285,8.3492,8.3534,8.3384,8.3431,8.3246,8.3454,8.3458,8.3477,8.3411,8.3498,8.3521,8.352,8.3503,8.3387,8.3269,8.3373,8.3365,8.3405,8.3564,8.3506,8.3507,8.3438,8.3531,8.3373,8.3462,8.3592,8.3487,8.3285,8.3423,8.3605,8.3679,8.3453,8.3332,8.3451,8.3546,8.3602,8.3564,8.3603,8.337,8.3385,8.3539,8.3698,8.3565,8.3294,8.3301,8.3555,8.3577,8.3584,8.3635,8.3437,8.3273,8.34,8.3776,8.3638,8.3528,8.3392,8.3373,8.3535,8.3647,8.3537,8.3436,8.3282,8.3208,8.3492,8.3791,8.3605,8.3622,8.3685,8.3625,8.397,8.4235,8.4454,8.4315,8.4219,8.4158,8.4034,8.3939,8.3882,8.3782,8.3798,8.3569,8.3518,8.3386,8.3387,8.3325,8.3334,8.3353,8.3456,8.3369,8.3509,8.354,8.3431,8.3426,8.3415,8.3431,8.326,8.2542,8.2022,8.1786,8.2193,8.4002,8.7667,9.1226,9.1617,8.8345,8.3798,8.1674,8.2019,8.2342,8.2601,8.2738,8.2337,8.2634,8.2858,8.3627,8.3858,8.4057,8.4018,8.3812,8.3719,8.3717,8.4011,8.4024,8.4015,8.3958,8.3822,8.4354,8.4531,8.4384,8.4219,8.4177,8.4271,8.4372,8.4615,8.4606,8.4636,8.4629,8.4649,8.4744,8.4812,8.508,8.5204,8.5118,8.5241,8.5436,8.5551,8.5818,8.5983,8.5852,8.5884,8.6079,8.616,8.6465,8.6531,8.6714,8.6808,8.6843,8.7074,8.7438,8.7438,8.7561,8.7651,8.7615,8.7706,8.7532,8.7517,8.7207,8.6895,8.6702,8.6379,8.5923,8.5767,8.5511,8.5311,8.504,8.4672,8.4497,8.4457,8.4389,8.4167,8.4111,8.4019,8.3832,8.383,8.3804,8.3842,8.3886,8.3781,8.3631,8.3654,8.3654,8.3583,8.3729,8.3731,8.36,8.3593,8.3877,8.3947,8.3869,8.3666,8.3747,8.3731,8.3795,8.3835,8.3733,8.3811,8.3689,8.3823,8.403,8.4115,8.391,8.3934,8.3982,8.4128,8.4019,8.4072,8.4101,8.4018,8.4041,8.4094,8.4064,8.3974,8.3848,8.3856,8.4094,8.41,8.4248,8.4164,8.4145,8.4156,8.4041,8.4044,8.4032,8.4213,8.4134,8.4151,8.3962,8.3996,8.4182,8.4193,8.4235,8.4132,8.4075,8.4025,8.4204,8.4259,8.4246,8.423,8.4104,8.4087,8.4045,8.4059,8.4159,8.4369,8.4445,8.4302,8.4188,8.4232,8.4134,8.4275,8.4246,8.4319,8.4337,8.449,8.4268,8.4282,8.4669,8.4837,8.5241,8.5341,8.4907,8.4639,8.4718,8.4731,8.4802,8.4486,8.4084,8.4051,8.4236,8.4266,8.4164,8.4033,8.409,8.4127,8.4156,8.4175,8.4258,8.4268,8.4159,8.4174,8.4201,8.4093,8.3855,8.3035,8.2692,8.2807,8.3537,8.5426,8.7037,9.1149,9.2745,8.7543,8.2851,8.1361,8.2164,8.2248,8.2386,8.2711,8.2538,8.2736,8.3397,8.4271,8.4584,8.4516,8.4491,8.4512,8.4475,8.4568,8.4563,8.475,8.4828,8.4773,8.4856,8.4854,8.4886,8.503,8.5042,8.5193,8.5195,8.5243,8.52,8.518,8.5286,8.5441,8.5602,8.5642,8.5638,8.5558,8.5714,8.6091,8.6091,8.6117,8.6331,8.6395,8.6405,8.6512,8.6598,8.6923,8.7024,8.7076,8.7243,8.7464,8.7683,8.7745,8.7833,8.784,8.7941,8.8072,8.8112,8.8303,8.8326,8.8157,8.8055,8.7641,8.7493,8.7324,8.6966,8.6503,8.6268,8.5941,8.5639,8.5501,8.5369,8.5063,8.4979,8.4825,8.4534,8.4403,8.4653,8.4639,8.4391,8.4383,8.4231,8.4203,8.434,8.4301,8.4414,8.4333,8.4179,8.4144,8.4264,8.4256,8.4222,8.4058,8.4102,8.427,8.4364,8.4307,8.4225,8.4309,8.4367,8.4473,8.4391,8.4263,8.4277,8.4478,8.4512,8.4392,8.4248,8.4502,8.4555,8.4443,8.4469,8.4486,8.4355,8.4535,8.4443,8.4296,8.4319,8.4221,8.4161,8.4456,8.4625,8.4471,8.4309,8.432,8.4275,8.4323,8.4475,8.437,8.4421,8.4421,8.4352,8.4297,8.4249,8.4324,8.4566,8.4468,8.4261,8.4336,8.4387,8.4317,8.4332,8.4174,8.4009,8.4191,8.4528,8.4476,8.4474,8.4305,8.4181,8.4227,8.4261,8.429,8.4094,8.4307,8.4272,8.423,8.4194,8.4283,8.4371,8.4343,8.4375,8.4289,8.4202,8.421,8.436,8.4463,8.435,8.4317,8.4686,8.5137,8.5063,8.4906,8.4726,8.4602,8.4673,8.4432,8.4375,8.4256,8.4196,8.4053,8.4033,8.4007,8.4129,8.4005,8.4011,8.399,8.3907,8.3962,8.3888,8.3956,8.4082,8.3964,8.3834,8.3206,8.2441,8.2531,8.2564,8.2879,8.4195,8.7604,9.1508,9.236,8.9287,8.4687,8.2216,8.2742,8.2814,8.2869,8.3011,8.2491,8.2959,8.3842,8.4308,8.4324,8.41,8.3985,8.3999,8.3909,8.4236,8.4646,8.4515,8.4443,8.4424,8.4574,8.4494,8.4725,8.4694,8.473,8.4721,8.4537,8.4648,8.4901,8.5148,8.4901,8.4942,8.5111,8.5176,8.5284,8.5267,8.5319,8.5417,8.5626,8.5579,8.5853,8.6045,8.5935,8.6139,8.6373,8.6422,8.6424,8.6722,8.6765,8.6901,8.6878,8.7355,8.7494,8.738,8.7424,8.7596,8.7848,8.7809,8.76,8.755,8.7433,8.7372,8.6852,8.6652,8.6565,8.6209,8.566,8.5415,8.5236,8.509,8.4919,8.4689,8.4614,8.4316,8.4373,8.4217,8.4191,8.4037,8.3995,8.3936,8.3937,8.3962,8.3888,8.3863,8.3933,8.3936,8.3915,8.3948,8.3902,8.3735,8.3945,8.4021,8.377,8.3653,8.3962,8.388,8.3797,8.3865,8.3975,8.3996,8.3975,8.3728,8.3748,8.3868,8.4046,8.3968,8.3865,8.3923,8.3848,8.3836,8.3792,8.3957,8.3979,8.3782,8.3849,8.3837,8.3853,8.3904,8.3914,8.3873,8.3745,8.3762,8.3789,8.3852,8.3881,8.3965,8.3772,8.3632,8.376,8.3699,8.3811,8.3978,8.383,8.3685,8.3698,8.3839,8.3999,8.3954,8.3847,8.3798,8.3787,8.3873,8.373,8.3598,8.3809,8.4061,8.3829,8.3801,8.3711,8.3618,8.372,8.3939,8.3937,8.3828,8.3576,8.3679,8.3777,8.3849,8.3902,8.3684,8.3662,8.3763,8.3701,8.3672,8.379,8.3632,8.3594,8.3708,8.3898,8.3824,8.3727,8.3728,8.3658,8.3788,8.3695,8.3601,8.3645,8.3797,8.3748,8.3816,8.3727,8.368,8.3928,8.3877,8.3834,8.3771,8.4133,8.439,8.47,8.4498,8.4299,8.4251,8.4049,8.4052,8.3905,8.3845,8.3707,8.3541,8.3446,8.349,8.3511,8.3599,8.3422,8.328,8.33,8.3416,8.3458,8.361,8.351,8.3453,8.3398,8.3028,8.2192,8.1799,8.1834,8.2504,8.419,8.7905,9.129,9.145,8.8192,8.3667,8.2251,8.2606,8.2538,8.2596,8.2811,8.2191,8.267,8.3384,8.375,8.3812,8.3495,8.3463,8.3542,8.3821,8.3813,8.3789,8.3753,8.3809,8.365,8.3904,8.3949,8.4061,8.3895,8.3892,8.3854,8.4176,8.43,8.4141,8.4085,8.413,8.4308,8.4407,8.4417,8.4516,8.4605,8.4578,8.4694,8.4797,8.5026,8.5103,8.5009,8.5303,8.5354,8.55,8.5598,8.5674,8.5847,8.5836,8.6078,8.631,8.6419,8.656,8.6473,8.6564,8.6887,8.7102,8.706,8.6889,8.6801,8.6701,8.6528,8.6455,8.6267,8.5901,8.5659,8.5274,8.5087,8.4748,8.4441,8.4204,8.3916,8.3819,8.389,8.3596,8.353,8.3525,8.3406,8.3383,8.3322,8.3275,8.34,8.3323,8.316,8.3112,8.3194,8.3114,8.3127,8.3145,8.3194,8.3244,8.3335,8.3038,8.307,8.3225,8.3275,8.3225,8.3235,8.3184,8.3131,8.3021,8.3122,8.313,8.3422,8.3262,8.3086,8.312,8.3185,8.3172,8.3391,8.3507,8.3336,8.333,8.3347,8.3182,8.3135,8.3192,8.3265,8.3206,8.3057,8.3171,8.3223,8.3198,8.3244,8.3278,8.3198,8.3212,8.3256,8.3305,8.3133,8.3026,8.3286,8.3379,8.325,8.307,8.3022,8.3024,8.3359,8.3209,8.3138,8.3147,8.3156,8.3212,8.3115,8.3172,8.3121,8.3193,8.3083,8.3055,8.3267,8.3141,8.3049,8.2966,8.2902,8.3255,8.3291,8.3142,8.318,8.3086,8.3129,8.2906,8.2838,8.3012,8.3161,8.3183,8.3109,8.2983,8.29,8.297,8.3101,8.3169,8.2998,8.3112,8.2906,8.3102,8.3262,8.3206,8.3206,8.3243,8.3422,8.3726,8.406,8.4067,8.3757,8.3604,8.3417,8.3402,8.3268,8.3317,8.3239,8.292,8.2887,8.2969,8.2761,8.2919,8.2993,8.2977,8.2926,8.3046,8.2913,8.2904,8.2918,8.278,8.2841,8.2639,8.1863,8.1315,8.1206,8.1625,8.2872,8.6277,9.0177,9.1155,8.8384,8.3912,8.145,8.1793,8.209,8.1965,8.2175,8.172,8.193,8.2516,8.3262,8.3242,8.321,8.317,8.3012,8.3058,8.313,8.3277,8.3261,8.3411,8.3356,8.3433,8.3437,8.3466,8.3553,8.3668,8.3674,8.355,8.3789,8.3907,8.3824,8.3859,8.3841,8.3961,8.4013,8.4087,8.4108,8.4224,8.4333,8.447,8.4495,8.4639,8.4735,8.4776,8.4962,8.5253,8.5194,8.5351,8.5549,8.5505,8.5598,8.593,8.6035,8.6196,8.6276,8.6365,8.6334,8.6548,8.6628,8.668,8.655,8.6564,8.6455,8.6088,8.5863,8.5475,8.5422,8.4909,8.4531,8.4324,8.4241,8.3886,8.3734,8.3684,8.3467,8.3189,8.2979,8.2985,8.307,8.2972,8.3021,8.2998,8.2921,8.2839,8.2769,8.2718,8.2561,8.2678,8.2893,8.2946,8.2844,8.2804,8.2792,8.2681,8.2689,8.2757,8.2832,8.2892,8.2829,8.2656,8.275,8.2833,8.292,8.2929,8.2952,8.294,8.2708,8.2769,8.2873,8.2915,8.3026,8.3052,8.2893,8.2814,8.2836,8.285,8.2914,8.2943,8.3004,8.2962,8.2862,8.2848,8.295,8.2955,8.2801,8.2797,8.2871,8.2935,8.2854,8.2879,8.2916,8.2782,8.2775,8.2982,8.3022,8.2916,8.2978,8.2764,8.2933,8.2973,8.3021,8.2957,8.2834,8.2867,8.2994,8.2984,8.2965,8.2858,8.3076,8.3129,8.2967,8.2886,8.3013,8.2997,8.2935,8.2831,8.2924,8.3047,8.3009,8.3028,8.2966,8.299,8.2942,8.3013,8.2997,8.3011,8.3001,8.2972,8.3092,8.2963,8.3294,8.3222,8.3052,8.3268,8.3569,8.4048,8.3943,8.3824,8.3553,8.3422,8.3476,8.3395,8.3204,8.3202,8.3091,8.2869,8.299,8.3026,8.2851,8.2953,8.2885,8.2942,8.3003,8.2875,8.28,8.2834,8.2837,8.2894,8.2818,8.2505,8.1798,8.1408,8.1386,8.1971,8.4224,8.8295,9.1453,9.0512,8.5549,8.0903,7.9977,8.0821,8.096,8.1276,8.1476,8.1262,8.1562,8.2184,8.2978,8.3115,8.3231,8.3119,8.329,8.321,8.3225,8.3397,8.348,8.3445,8.3367,8.343,8.3604,8.3636,8.3685,8.3716,8.3579,8.3684,8.3853,8.3926,8.3972,8.4124,8.4116,8.4086,8.4249,8.4295,8.4491,8.4567,8.4583,8.4454,8.4632,8.4962,8.4939,8.5022,8.5475,8.567,8.5545,8.5582,8.5537,8.573,8.5928,8.6139,8.6289,8.6269,8.6391,8.648,8.6698,8.6774,8.6793,8.6749,8.6623,8.6557,8.6379,8.6111,8.5732,8.5405,8.516,8.4811,8.4499,8.4639,8.4202,8.3905,8.3672,8.3558,8.3206,8.3233,8.3265,8.3186,8.315,8.2999,8.2983,8.2896,8.2809,8.2773,8.2723,8.2765,8.2707,8.2958,8.2868,8.2999,8.2859,8.2852,8.2844,8.2841,8.295,8.2818,8.2743,8.289,8.3077,8.317,8.3123,8.2845,8.2963,8.311,8.3079,8.3001,8.3077,8.3088,8.3135,8.2979,8.2954,8.3082,8.3194,8.3075,8.2952,8.3064,8.3124,8.311,8.3058,8.3008,8.3049,8.3079,8.3011,8.3185,8.3248,8.3039,8.3096,8.3027,8.3064,8.3225,8.3165,8.3072,8.2966,8.301,8.3165,8.3329,8.335,8.311,8.3024,8.3171,8.3265,8.3335,8.3372,8.3308,8.3327,8.3422,8.3322,8.3258,8.3651,8.3984,8.4319,8.406,8.3775,8.3727,8.3599,8.351,8.3584,8.3508,8.331,8.3227,8.3184,8.3212,8.3177,8.3228,8.3207,8.3102,8.3107,8.3126,8.3078,8.3251,8.3218,8.3091,8.3121,8.3101,8.2546,8.1927,8.1831,8.1914,8.3075,8.6327,9.0687,9.1932,9.0983,8.6116,8.116,7.9937,8.0666,8.1011,8.1254,8.1606,8.146,8.2024,8.2787,8.3539,8.3357,8.3577,8.3571,8.3634,8.3486,8.3652,8.3802,8.3975,8.3857,8.3829,8.3896,8.4029,8.3888,8.3832,8.3997,8.4137,8.4189,8.4248,8.4319,8.4314,8.4293,8.4508,8.4515,8.4622,8.486,8.4859,8.4964,8.503,8.4923,8.5088,8.5124,8.5402,8.5726,8.5769,8.5793,8.5876,8.609,8.6316,8.6462,8.6475,8.6479,8.665,8.6863,8.6846,8.6916,8.7146,8.7372,8.7232,8.6997,8.6884,8.6873,8.6653,8.6225,8.5923,8.5503,8.508,8.4706,8.4638,8.4623,8.4338,8.4019,8.3876,8.3859,8.3689,8.3564,8.3393,8.3305,8.3412,8.346,8.3298,8.3344,8.3268,8.3254,8.3409,8.3443,8.321,8.3214,8.3189,8.3241,8.328,8.3226,8.3107,8.3464,8.333,8.3291,8.3264,8.3278,8.3261,8.335,8.3513,8.3501,8.3143,8.3182,8.3426,8.3331,8.3437,8.338,8.3421,8.3454,8.3413,8.3431,8.3286,8.3308,8.3426,8.3426,8.3402,8.3383,8.3361,8.3227,8.3277,8.3297,8.3348,8.3379,8.3351,8.3354,8.3425,8.3306,8.3275,8.3233,8.3228,8.3218,8.3301,8.348,8.3436,8.3431,8.3376,8.3291,8.3312,8.3415,8.3384,8.336,8.3306,8.3288,8.3246,8.3426,8.3385,8.3448,8.3496,8.3596,8.3552,8.3828,8.422,8.4386,8.4183,8.3946,8.3937,8.3774,8.3629,8.3735,8.3575,8.3411,8.3312,8.326,8.3255,8.3108,8.3219,8.3282,8.3271,8.3007,8.2855,8.3069,8.317,8.3161,8.3006,8.3128,8.3136,8.2455,8.1622,8.1575,8.18,8.2826,8.597,9.0059,9.1862,8.9249,8.4621,8.1016,8.1133,8.1508,8.1403,8.1649,8.1776,8.1604,8.1975,8.2903,8.3349,8.3488,8.333,8.3157,8.3308,8.3445,8.3499,8.3508,8.3541,8.3609,8.3641,8.3692,8.386,8.385,8.3877,8.3965,8.3778,8.3763,8.3708,8.3903,8.4174,8.4242,8.413,8.4203,8.4201,8.423,8.4558,8.4568,8.4653,8.4822,8.4971,8.4735,8.5024,8.519,8.525,8.5329,8.5557,8.5874,8.5841,8.5896,8.6039,8.6168,8.6165,8.6526,8.667,8.6709,8.677,8.6801,8.6856,8.6763,8.6702,8.6263,8.6,8.5972,8.5637,8.5148,8.4921,8.4699,8.4452,8.4239,8.4037,8.3788,8.3587,8.3405,8.3347,8.3265,8.3058,8.2989,8.3249,8.3281,8.3171,8.3167,8.3021,8.2954,8.28,8.2924,8.3079,8.3106,8.2982,8.3052,8.2919,8.2984,8.3166,8.3188,8.2983,8.3055,8.2866,8.3058,8.321,8.3123,8.3093,8.3091,8.3187,8.3232,8.3228,8.3102,8.3065,8.3139,8.3154,8.3161,8.3015,8.3014,8.3178,8.3124,8.3065,8.3138,8.3392,8.3253,8.3086,8.299,8.3029,8.3088,8.311,8.3258,8.3197,8.3049,8.3022,8.3235,8.3241,8.3206,8.3052,8.3128,8.3303,8.3239,8.3104,8.3095,8.3122,8.3269,8.3227,8.3095,8.3137,8.3212,8.3285,8.3172,8.3213,8.3126,8.3288,8.3144,8.3131,8.3262,8.3249,8.3139,8.3159,8.3219,8.3268,8.3369,8.3428,8.3324,8.3243,8.3358,8.3322,8.331,8.3521,8.3647,8.4144,8.4212,8.4115,8.3943,8.3762,8.3642,8.3653,8.3764,8.3706,8.3606,8.3225,8.3069,8.3114,8.3255,8.321,8.314,8.3144,8.3189,8.3285,8.3233,8.3172,8.3251,8.33,8.3069,8.2926,8.2156,8.1589,8.1693,8.2001,8.3433,8.65,9.0494,9.19,8.8761,8.6438,8.2474,8.1275,8.1951,8.1615,8.215,8.1731,8.1822,8.2235,8.3308,8.3653,8.3714,8.3448,8.3461,8.3496,8.3581,8.3505,8.3577,8.3521,8.3821,8.3614,8.3781,8.3752,8.3832,8.3878,8.4067,8.4156,8.4058,8.4027,8.4122,8.4135,8.4209,8.4166,8.443,8.4503,8.4306,8.4467,8.48,8.4843,8.4797,8.4841,8.5006,8.5153,8.5345,8.5338,8.5565,8.5722,8.5765,8.582,8.6031,8.621,8.6349,8.6276,8.6269,8.6616,8.6877,8.7068,8.6828,8.6833,8.6741,8.6738,8.6702,8.6328,8.6121,8.5588,8.5293,8.5046,8.474,8.4625,8.4366,8.4108,8.391,8.3803,8.3649,8.3524,8.3555,8.3412,8.3361,8.3367,8.315,8.3146,8.3143,8.327,8.3301,8.3246,8.3051,8.2912,8.2939,8.3349,8.3266,8.3257,8.3192,8.2937,8.317,8.3316,8.3146,8.3252,8.3158,8.311,8.2907,8.2995,8.3297,8.3433,8.3325,8.3194,8.3095,8.3312,8.3205,8.3273,8.3137,8.3237,8.3241,8.3307,8.3143,8.3178,8.3352,8.3217,8.316,8.3341,8.3448,8.3161,8.3086,8.3104,8.3284,8.3504,8.3199,8.3182,8.318,8.3161,8.3369,8.341,8.3369,8.3243,8.328,8.3187,8.3165,8.3349,8.3339,8.3335,8.328,8.3099,8.3435,8.3387,8.3306,8.3295,8.3195,8.341,8.338,8.332,8.3281,8.32,8.3281,8.3537,8.3517,8.3353,8.3258,8.3178,8.3215,8.3381,8.3339,8.335,8.3304,8.33,8.3298,8.3232,8.3322,8.3233,8.3345,8.347,8.3447,8.3458,8.3279,8.3436,8.3603,8.3528,8.339,8.3462,8.4177,8.4412,8.4247,8.4066,8.3871,8.3652,8.3769,8.3644,8.3637,8.3441,8.3144,8.3139,8.3127,8.301,8.3149,8.3167,8.3394,8.3223,8.3103,8.3175,8.3287,8.3256,8.3186,8.3241,8.3085,8.2256,8.1672,8.1438,8.1549,8.278,8.6089,9.0216,9.1866,8.9524,8.4801,8.1683,8.1568,8.2171,8.2219,8.2471,8.1938,8.1961,8.2584,8.3547,8.3599,8.3378,8.345,8.3471,8.3346,8.3416,8.377,8.3617,8.3624,8.3708,8.369,8.371,8.3892,8.3712,8.3925,8.412,8.4072,8.3931,8.398,8.4073,8.4276,8.4099,8.4198,8.4373,8.4369,8.4396,8.4318,8.44,8.4807,8.4913,8.4873,8.4884,8.5069,8.5161,8.5107,8.5318,8.5658,8.568,8.565,8.5866,8.6181,8.609,8.6168,8.6466,8.662,8.6729,8.6654,8.6783,8.6905,8.6719,8.6576,8.6521,8.647,8.6113,8.5923,8.5661,8.5133,8.4873,8.4659,8.4358,8.3956,8.4047,8.3836,8.3801,8.3588,8.35,8.3264,8.3136,8.3238,8.3321,8.3393,8.3263,8.3125,8.3055,8.3083,8.3246,8.3212,8.2993,8.2924,8.3043,8.3181,8.3303,8.314,8.3094,8.3096,8.3035,8.298,8.3024,8.3129,8.3292,8.3283,8.3207,8.3135,8.3096,8.3208,8.3291,8.3325,8.3176,8.3004,8.2893,8.3269,8.3417,8.3311,8.3111,8.3159,8.3488,8.3268,8.3237,8.3224,8.3334,8.3312,8.325,8.3194,8.3135,8.3136,8.3278,8.3424,8.3325,8.3216,8.3091,8.3244,8.3322,8.3313,8.3253,8.325,8.3156,8.3007,8.3015,8.3188,8.306,8.3161,8.3354,8.3185,8.336,8.3251,8.3218,8.3193,8.3221,8.3107,8.3171,8.3327,8.3172,8.326,8.3233,8.3167,8.3263,8.3201,8.3048,8.3135,8.3124,8.3321,8.3228,8.3331,8.3286,8.3159,8.3065,8.3043,8.317,8.3162,8.3065,8.3224,8.3402,8.3187,8.3292,8.3167,8.3175,8.317,8.3198,8.3287,8.3219,8.3288,8.3386,8.3918,8.4341,8.4117,8.392,8.3693,8.3629,8.3572,8.3068,8.2987,8.3624,8.3184,8.2959,8.3101,8.3173,8.2775,8.3051,8.3246,8.3192,8.3055,8.285,8.31,8.3073,8.2876,8.2826,8.312,8.2474,8.1539,8.151,8.1705,8.2451,8.461,8.8589,9.065,9.1411,8.8118,8.3506,8.1247,8.1388,8.1895,8.1752,8.2176,8.1584,8.1999,8.2527,8.3462,8.3405,8.3485,8.3353,8.3406,8.3111,8.3383,8.3472,8.3731,8.3583,8.3552,8.3422,8.3546,8.3543,8.3796,8.3798,8.3944,8.3973,8.4026,8.3827,8.3746,8.4039,8.4136,8.4113,8.4131,8.431,8.4314,8.4428,8.4501,8.4418,8.4551,8.5003,8.4901,8.4993,8.5198,8.5234,8.5365,8.5485,8.5783,8.566,8.5899,8.6125,8.6054,8.6393,8.6515,8.654,8.6666,8.6757,8.6848,8.6868,8.6532,8.6384,8.6363,8.6306,8.5837,8.5499,8.5483,8.5217,8.484,8.4379,8.4029,8.4034,8.3824,8.363,8.3474,8.3448,8.3322,8.3342,8.3418,8.3222,8.2939,8.2878,8.3131,8.2916,8.2841,8.3199,8.3121,8.3179,8.3054,8.2812,8.2719,8.2955,8.3149,8.3187,8.3155,8.3106,8.3083,8.3135,8.2867,8.304,8.3069,8.2882,8.3017,8.3503,8.3201,8.3038,8.3,8.3263,8.3125,8.3224,8.3024,8.3095,8.3225,8.3174,8.3033,8.3008,8.332,8.3207,8.3093,8.2989,8.3058,8.3205,8.3259,8.3259,8.2849,8.2793,8.3334,8.3392,8.3171,8.3169,8.3269,8.3207,8.3074,8.3154,8.3206,8.3147,8.3154,8.3146,8.3312,8.3419,8.3329,8.3197,8.3188,8.3294,8.3329,8.3112,8.3231,8.3335,8.3398,8.3312,8.3218,8.3243,8.3402,8.3487,8.3518,8.3487,8.3876,8.4017,8.4104,8.4101,8.4047,8.3663,8.3656,8.3724,8.3618,8.3602,8.3368,8.3296,8.3256,8.3016,8.2927,8.3305,8.3419,8.3271,8.3235,8.3193,8.3108,8.3171,8.3262,8.3203,8.3339,8.3008,8.2236,8.1822,8.1733,8.2336,8.4052,8.7304,9.1358,9.1932,8.7501,8.4909,8.0668,8.015,8.1092,8.0896,8.1634,8.1607,8.1738,8.2211,8.3202,8.3359,8.3623,8.349,8.37,8.3525,8.385,8.3608,8.3823,8.3756,8.3782,8.3759,8.3914,8.3957,8.4337,8.4282,8.4263,8.4003,8.4161,8.4331,8.4533,8.4439,8.451,8.4507,8.4651,8.4824,8.4901,8.4852,8.5067,8.516,8.5459,8.5449,8.5519,8.5539,8.5364,8.5717,8.6158,8.6182,8.6352,8.6433,8.6534,8.672,8.6672,8.6867,8.7148,8.7087,8.7441,8.7489,8.7351,8.7339,8.701,8.7239,8.7065,8.6687,8.628,8.6042,8.5828,8.5481,8.5005,8.4749,8.4321,8.4243,8.4234,8.4127,8.405,8.3646,8.3391,8.3882,8.3825,8.3569,8.3225,8.3595,8.3655,8.3549,8.3404,8.3368,8.3318,8.3473,8.3393,8.3517,8.3454,8.3428,8.3303,8.3284,8.3452,8.3517,8.35,8.3526,8.3352,8.3457,8.3688,8.3768,8.3618,8.3644,8.3536,8.3503,8.3614,8.3499,8.3531,8.3695,8.3634,8.3671,8.3777,8.3515,8.3545,8.3653,8.3886,8.376,8.3583,8.3453,8.3421,8.3465,8.3714,8.3667,8.3444,8.3455,8.381,8.389,8.3685,8.3631,8.3615,8.3614,8.3626,8.3781,8.3553,8.3371,8.3342,8.3634,8.3918,8.38,8.3672,8.356,8.3463,8.3791,8.3824,8.3606,8.3676,8.3772,8.3678,8.3621,8.3688,8.371,8.3679,8.3666,8.3639,8.3645,8.3627,8.3716,8.3816,8.3923,8.3759,8.3661,8.3867,8.3875,8.3837,8.4056,8.4529,8.4899,8.473,8.4404,8.4061,8.4097,8.4136,8.4206,8.3899,8.3698,8.3717,8.3728,8.381,8.3593,8.3488,8.3642,8.3947,8.3665,8.354,8.3471,8.3677,8.376,8.3841,8.3646,8.3466,8.2668,8.1942,8.1957,8.215,8.3061,8.5197,8.9165,9.2224,9.1113,8.6989,8.2845,8.2422,8.2569,8.2369,8.2656,8.2426,8.2409,8.3118,8.3944,8.3971,8.3944,8.393,8.3916,8.4035,8.3709,8.3845,8.405,8.4145,8.415,8.4182,8.4183,8.4164,8.4299,8.4299,8.4193,8.429,8.4394,8.4515,8.449,8.4486,8.4517,8.456,8.4681,8.4823,8.4811,8.4753,8.4823,8.5031,8.5402,8.5342,8.519,8.5239,8.5637,8.5848,8.6001,8.5983,8.6041,8.6216,8.6364,8.6414,8.6544,8.6629,8.6789,8.6943,8.6956,8.7053,8.7303,8.7409,8.7339,8.7146,8.6777,8.6502,8.6351,8.6047,8.5793,8.5407,8.493,8.489,8.4788,8.44,8.4373,8.4109,8.3952,8.3965,8.3896,8.3649,8.3565,8.3553,8.3579,8.3471,8.3414,8.3305,8.3607,8.3565,8.3439,8.3371,8.3277,8.3396,8.344,8.3495,8.3543,8.3556,8.3477,8.332,8.3382,8.349,8.3433,8.3361,8.3355,8.3523,8.3526,8.3529,8.3484,8.345,8.3424,8.3576,8.3534,8.3474,8.3584,8.3577,8.3465,8.3451,8.3562,8.3573,8.3478,8.348,8.3442,8.3535,8.3403,8.3571,8.3514,8.3521,8.3469,8.3491,8.3529,8.3698,8.3529,8.3481,8.3464,8.3463,8.3586,8.3624,8.3521,8.3466,8.3579,8.3577,8.3664,8.3706,8.372,8.3521,8.3563,8.3521,8.3568,8.3611,8.3663,8.3562,8.3554,8.3431,8.3265,8.3652,8.4044,8.3724,8.3564,8.3507,8.3682,8.3712,8.3652,8.3677,8.3699,8.3542,8.348,8.3786,8.4053,8.3673,8.3563,8.4137,8.4417,8.4719,8.4557,8.4374,8.4262,8.3973,8.3957,8.402,8.403,8.3898,8.3637,8.3531,8.3441,8.3513,8.344,8.3484,8.3576,8.3384,8.3467,8.3734,8.3751,8.3537,8.3478,8.3393,8.3347,8.3079,8.2177,8.1756,8.1938,8.2668,8.4721,8.8584,9.1649,9.1113,8.7474,8.3161,8.2172,8.2633,8.2412,8.2494,8.277,8.239,8.2826,8.359,8.3898,8.3883,8.379,8.3962,8.3927,8.3912,8.386,8.3997,8.4034,8.3936,8.4102,8.4243,8.4314,8.415,8.4181,8.4352,8.4316,8.4463,8.4348,8.4488,8.4472,8.4638,8.4617,8.4674,8.4702,8.4805,8.4887,8.5029,8.5143,8.5074,8.5151,8.5454,8.5508,8.554,8.5599,8.573,8.5959,8.6107,8.6228,8.6258,8.6472,8.6644,8.6867,8.6981,8.7061,8.7216,8.7287,8.7371,8.7302,8.7399,8.7265,8.7029,8.6815,8.6678,8.6243,8.5991,8.5792,8.5378,8.5279,8.4799,8.4555,8.4339,8.4181,8.3969,8.3892,8.3856,8.3823,8.373,8.3672,8.3642,8.3511,8.3498,8.3597,8.3596,8.3507,8.35,8.3454,8.3559,8.3585,8.3544,8.3408,8.3432,8.3515,8.3549,8.3431,8.3524,8.3494,8.3477,8.3454,8.3538,8.3481,8.3361,8.3324,8.3366,8.3626,8.3489,8.3524,8.3491,8.3512,8.3415,8.3504,8.3425,8.3537,8.3423,8.3336,8.3377,8.3237,8.3337,8.3294,8.328,8.3225,8.3236,8.3298,8.3254,8.335,8.3205,8.3145,8.3155,8.314,8.3129,8.308,8.3008,8.3125,8.307,8.299,8.2993,8.3071,8.3063,8.3198,8.311,8.3103,8.3053,8.2935,8.323,8.3219,8.3089,8.3081,8.2993,8.2921,8.2887,8.2599,8.2684,8.2894,8.2866,8.2904,8.2958,8.266,8.2748,8.2875,8.2802,8.2846,8.3002,8.2988,8.2856,8.2772,8.2912,8.29,8.2847,8.2862,8.3252,8.373,8.3737,8.3405,8.3327,8.3094,8.3048,8.3069,8.2967,8.2762,8.2632,8.2453,8.2267,8.2377,8.2358,8.233,8.2207,8.2083,8.2212,8.2361,8.2337,8.2112,8.2211,8.2179,8.2143,8.1734,8.0975,8.0564,8.0538,8.079,8.199,8.5236,8.9287,9.0771,8.7677,8.3364,8.0947,8.1182,8.126,8.1273,8.1475,8.0914,8.1016,8.1933,8.2411,8.2471,8.2356,8.2193,8.2175,8.2264,8.2274,8.2273,8.2195,8.2289,8.2347,8.2346,8.2365,8.2494,8.2404,8.2546,8.2626,8.2597,8.2764,8.2793,8.2787,8.2784,8.2887,8.3114,8.3148,8.3224,8.3358,8.3386,8.3575,8.3617,8.3873,8.3968,8.4134,8.4111,8.4238,8.4533,8.4828,8.5181,8.524,8.5528,8.5562,8.5864,8.6073,8.619,8.6279,8.6558,8.6606,8.6654,8.6814,8.6673,8.6796,8.6686,8.6513,8.6351,8.6062,8.5636,8.5347,8.5046,8.4744,8.4433,8.4113,8.3897,8.3751,8.3466,8.3381,8.3344,8.3326,8.3125,8.2967,8.2991,8.2959,8.2944,8.287,8.2894,8.2909,8.2871,8.2865,8.2721,8.2732,8.2917,8.2975,8.2955,8.2923,8.2829,8.2775,8.293,8.2852,8.2898,8.2919,8.2882,8.2837,8.2845,8.298,8.2997,8.2892,8.2741,8.2849,8.2864,8.2875,8.2828,8.284,8.2767,8.2746,8.2643,8.2837,8.2858,8.2853,8.2792,8.2699,8.2563,8.2693,8.2674,8.2713,8.2631,8.2675,8.2802,8.2876,8.2975,8.3017,8.3004,8.2993,8.2972,8.2962,8.2988,8.3008,8.2983,8.3011,8.3009,8.2954,8.3178,8.3385,8.3502,8.3408,8.3455,8.3737,8.4234,8.4258,8.4087,8.3823,8.3721,8.3709,8.3584,8.3469,8.3301,8.3078,8.3021,8.2971,8.2888,8.2767,8.263,8.2671,8.2582,8.2468,8.2573,8.2638,8.2686,8.259,8.2522,8.2401,8.2189,8.1453,8.0874,8.0764,8.0904,8.2231,8.564,9.0255,9.1383,8.7431,8.2416,7.9378,7.9933,8.0474,8.06,8.0886,8.0515,8.0631,8.1403,8.1922,8.2502,8.2578,8.2396,8.2494,8.244,8.2508,8.2401,8.2568,8.2467,8.2617,8.2645,8.2716,8.2667,8.2657,8.2672,8.2812,8.2839,8.2897,8.285,8.2849,8.2895,8.2939,8.2973,8.3068,8.3143,8.3316,8.3305,8.348,8.3597,8.3679,8.3754,8.3909,8.3988,8.4104,8.4183,8.4368,8.4502,8.4648,8.4753,8.4863,8.4978,8.5188,8.534,8.54,8.548,8.5567,8.5701,8.5831,8.5742,8.5612,8.5539,8.5147,8.4873,8.4575,8.4283,8.3844,8.3605,8.3527,8.3301,8.2989,8.2803,8.2663,8.2609,8.249,8.2463,8.2248,8.2279,8.225,8.2231,8.2237,8.2261,8.2301,8.2266,8.2246,8.2244,8.2321,8.2316,8.2269,8.2236,8.2322,8.2366,8.2376,8.2429,8.2368,8.2426,8.2331,8.2496,8.2392,8.2517,8.2483,8.2532,8.2548,8.2521,8.2558,8.2617,8.2586,8.2497,8.2462,8.24,8.2537,8.2522,8.2522,8.2456,8.2417,8.2412,8.2358,8.2341,8.2295,8.2362,8.2321,8.232,8.2344,8.2299,8.2313,8.2382,8.2328,8.2341,8.2381,8.2364,8.2298,8.2354,8.2368,8.2299,8.2286,8.2377,8.2447,8.2408,8.2474,8.2559,8.2567,8.2573,8.2691,8.3123,8.3474,8.3468,8.3326,8.311,8.3024,8.2929,8.2988,8.2882,8.2804,8.256,8.2481,8.2461,8.2456,8.2502,8.2515,8.2462,8.2447,8.2517,8.2509,8.2507,8.2456,8.2491,8.252,8.2494,8.2137,8.1212,8.0769,8.0724,8.1293,8.3372,8.7483,9.1309,9.1556,8.7272,8.2248,8.0418,8.0922,8.0933,8.104,8.1174,8.0806,8.1042,8.1653,8.2663,8.2731,8.2668,8.2627,8.2637,8.2673,8.2839,8.2857,8.2908,8.2928,8.2971,8.3115,8.311,8.3195,8.3252,8.3223,8.3276,8.3403,8.3386,8.3479,8.3495,8.3526,8.3601,8.3652,8.3691,8.3788,8.3949,8.4009,8.4058,8.4115,8.4288,8.4351,8.4471,8.4565,8.4654,8.4749,8.4901,8.5039,8.5129,8.5258,8.5375,8.5532,8.5644,8.5812,8.5803,8.6016,8.6138,8.6193,8.619,8.6163,8.6017,8.5734,8.552,8.5265,8.4922,8.4768,8.4492,8.422,8.3988,8.3778,8.3584,8.3417,8.3249,8.3132,8.2978,8.2931,8.2927,8.2848,8.2782,8.2739,8.2729,8.2712,8.2679,8.2635,8.2623,8.2645,8.2614,8.2615,8.256,8.2518,8.2541,8.2478,8.249,8.2516,8.2504,8.2477,8.2511,8.2569,8.2541,8.2566,8.2559,8.2588,8.263,8.2651,8.2689,8.2687,8.2723,8.2715,8.2695,8.2773,8.2741,8.2772,8.271,8.2729,8.2746,8.2724,8.2684,8.2656,8.2678,8.2632,8.2649,8.2661,8.2678,8.2711,8.2693,8.2669,8.2689,8.2741,8.2752,8.2695,8.2726,8.2738,8.2759,8.2846,8.2927,8.2951,8.2867,8.2998,8.3165,8.3121,8.3028,8.3288,8.3567,8.3975,8.3971,8.3747,8.3558,8.3401,8.341,8.3437,8.3355,8.3174,8.3026,8.2952,8.2911,8.2859,8.2956,8.2887,8.292,8.2873,8.2863,8.2873,8.2893,8.2877,8.2891,8.2922,8.2826,8.2219,8.1332,8.1076,8.1161,8.2034,8.4528,8.8953,9.2083,9.1197,8.7098,8.2965,8.2458,8.245,8.2219,8.1915,8.2053,8.193,8.249,8.3413,8.3547,8.3492,8.34,8.3486,8.3473,8.3552,8.3557,8.3567,8.3595,8.3623,8.3648,8.3729,8.3735,8.3797,8.3776,8.3869,8.3847,8.398,8.4038,8.408,8.4132,8.4194,8.4242,8.4348,8.4428,8.4507,8.4552,8.4709,8.4771,8.4891,8.5016,8.5098,8.5264,8.5307,8.5409,8.5563,8.5677,8.5805,8.5961,8.6142,8.6298,8.6405,8.6545,8.67,8.6855,8.6941,8.6984,8.7017,8.699,8.6902,8.6727,8.6503,8.636,8.6035,8.5679,8.5438,8.5094,8.4816,8.4567,8.4315,8.4143,8.3959,8.3805,8.3721,8.3637,8.3507,8.3486,8.3434,8.3416,8.3394,8.3374,8.3328,8.3312,8.3324,8.3286,8.3291,8.3275,8.3278,8.3254,8.3256,8.327,8.3263,8.3226,8.3253,8.3231,8.3271,8.3261,8.3219,8.3266,8.3316,8.3253,8.3252,8.3286,8.3311,8.3324,8.3332,8.3379,8.339,8.3377,8.3371,8.3394,8.3399,8.3386,8.339,8.343,8.3404,8.3391,8.3414,8.3397,8.3383,8.3422,8.3425,8.3444,8.3359,8.3387,8.3382,8.3431,8.3403,8.3392,8.3463,8.3543,8.3408,8.352,8.3662,8.3692,8.3599,8.3626,8.408,8.4445,8.4579,8.4533,8.4388,8.4198,8.3999,8.4253,8.414,8.393,8.3812,8.3696,8.3713,8.3825,8.3827,8.38,8.3805,8.3816,8.3855,8.3826,8.3928,8.3938,8.4,8.3949,8.4102,8.3985,8.3406,8.258,8.2378,8.2521,8.3498,8.6237,9.0772,9.3478,9.2003,8.7843,8.4262,8.4121,8.4079,8.3552,8.3674,8.3341,8.3277,8.373,8.4572,8.4631,8.4468,8.4401,8.4323,8.4352,8.4369,8.4373,8.4341
