-296.83,-296.83,-296.85,-296.86,-296.87,-296.88,-296.88,-296.89,-296.88,-296.88,-296.88,-296.87,-296.87,-296.87,-296.88,-296.89,-296.9,-296.91,-296.92,-296.92,-296.91,-296.91,-296.91,-296.91,-296.91,-296.9,-296.9,-296.91,-296.91,-296.91,-296.9,-296.9,-296.9,-296.9,-296.9,-296.89,-296.88,-296.87,-296.86,-296.86,-296.87,-296.88,-296.89,-296.89,-296.89,-296.88,-296.88,-296.88,-296.89,-296.9,-296.9,-296.91,-296.92,-296.93,-296.94,-296.94,-296.95,-296.96,-296.96,-296.97,-296.96,-296.96,-296.96,-296.95,-296.95,-296.94,-296.94,-296.93,-296.93,-296.93,-296.92,-296.91,-296.9,-296.9,-296.9,-296.9,-296.9,-296.91,-296.91,-296.92,-296.92,-296.92,-296.92,-296.93,-296.93,-296.93,-296.93,-296.92,-296.92,-296.92,-296.91,-296.9,-296.89,-296.89,-296.88,-296.88,-296.87,-296.87,-296.86,-296.86,-296.86,-296.86,-296.85,-296.85,-296.86,-296.86,-296.87,-296.89,-296.9,-296.9,-296.9,-296.9,-296.9,-296.9,-296.9,-296.9,-296.9,-296.9,-296.91,-296.91,-296.93,-296.93,-296.93,-296.84,-296.71,-296.64,-296.57,-296.63,-297.04,-297.12,-297.09,-297.15,-297.17,-297.18,-297.13,-297.1,-297.07,-297.07,-297.03,-296.98,-296.96,-296.96,-296.97,-296.97,-296.95,-296.95,-296.93,-296.92,-296.89,-296.88,-296.89,-296.91,-296.92,-296.93,-296.89,-296.86,-296.84,-296.83,-296.83,-296.83,-296.81,-296.8,-296.78,-296.78,-296.77,-296.76,-296.74,-296.73,-296.71,-296.71,-296.71,-296.72,-296.71,-296.72,-296.72,-296.71,-296.71,-296.69,-296.68,-296.67,-296.66,-296.66,-296.66,-296.66,-296.67,-296.68,-296.68,-296.7,-296.71,-296.72,-296.73,-296.75,-296.77,-296.78,-296.8,-296.82,-296.84,-296.84,-296.83,-296.84,-296.84,-296.85,-296.85,-296.86,-296.86,-296.86,-296.87,-296.86,-296.86,-296.85,-296.84,-296.85,-296.86,-296.88,-296.9,-296.91,-296.91,-296.9,-296.9,-296.89,-296.9,-296.89,-296.89,-296.88,-296.89,-296.89,-296.89,-296.89,-296.88,-296.87,-296.87,-296.87,-296.88,-296.87,-296.87,-296.85,-296.85,-296.86,-296.88,-296.89,-296.9,-296.9,-296.9,-296.89,-296.89,-296.89,-296.89,-296.89,-296.9,-296.9,-296.9,-296.9,-296.91,-296.91,-296.92,-296.93,-296.93,-296.94,-296.94,-296.94,-296.94,-296.93,-296.93,-296.93,-296.93,-296.92,-296.92,-296.92,-296.91,-296.91,-296.9,-296.89,-296.89,-296.89,-296.89,-296.89,-296.89,-296.89,-296.9,-296.9,-296.9,-296.9,-296.91,-296.91,-296.92,-296.92,-296.92,-296.92,-296.91,-296.91,-296.91,-296.9,-296.89,-296.88,-296.88,-296.88,-296.86,-296.85,-296.85,-296.86,-296.86,-296.86,-296.86,-296.86,-296.87,-296.87,-296.87,-296.87,-296.89,-296.9,-296.9,-296.9,-296.9,-296.9,-296.89,-296.89,-296.89,-296.89,-296.89,-296.89,-296.9,-296.91,-296.92,-296.92,-296.93,-296.85,-296.72,-296.6,-296.55,-296.73,-297.03,-297.11,-297.07,-297.13,-297.18,-297.18,-297.14,-297.11,-297.09,-297.08,-297.03,-297.02,-297.01,-297.02,-297.02,-297,-296.97,-296.94,-296.92,-296.9,-296.89,-296.88,-296.88,-296.91,-296.93,-296.92,-296.88,-296.84,-296.83,-296.82,-296.82,-296.81,-296.8,-296.78,-296.78,-296.78,-296.78,-296.77,-296.76,-296.74,-296.73,-296.72,-296.72,-296.72,-296.71,-296.71,-296.7,-296.69,-296.68,-296.67,-296.67,-296.65,-296.65,-296.64,-296.64,-296.65,-296.66,-296.68,-296.69,-296.7,-296.72,-296.75,-296.78,-296.79,-296.8,-296.8,-296.81,-296.82,-296.83,-296.84,-296.85,-296.87,-296.88,-296.88,-296.87,-296.86,-296.86,-296.86,-296.86,-296.85,-296.85,-296.84,-296.84,-296.85,-296.86,-296.88,-296.91,-296.92,-296.92,-296.91,-296.91,-296.91,-296.92,-296.92,-296.91,-296.91,-296.91,-296.92,-296.92,-296.91,-296.9,-296.89,-296.88,-296.88,-296.88,-296.86,-296.85,-296.84,-296.83,-296.84,-296.85,-296.86,-296.86,-296.86,-296.84,-296.83,-296.83,-296.84,-296.85,-296.86,-296.87,-296.87,-296.89,-296.91,-296.91,-296.92,-296.93,-296.94,-296.95,-296.94,-296.95,-296.96,-296.95,-296.94,-296.94,-296.94,-296.93,-296.93,-296.94,-296.94,-296.93,-296.93,-296.92,-296.92,-296.92,-296.91,-296.92,-296.91,-296.92,-296.92,-296.92,-296.92,-296.92,-296.92,-296.93,-296.92,-296.93,-296.93,-296.94,-296.95,-296.95,-296.94,-296.94,-296.94,-296.94,-296.94,-296.94,-296.94,-296.94,-296.94,-296.94,-296.94,-296.93,-296.92,-296.92,-296.91,-296.91,-296.9,-296.9,-296.9,-296.89,-296.88,-296.88,-296.88,-296.87,-296.87,-296.87,-296.87,-296.87,-296.89,-296.9,-296.9,-296.9,-296.89,-296.89,-296.89,-296.89,-296.89,-296.89,-296.89,-296.89,-296.89,-296.9,-296.91,-296.91,-296.89,-296.78,-296.64,-296.54,-296.54,-296.77,-297.01,-297.01,-297,-297.08,-297.09,-297.05,-297.01,-296.98,-296.95,-296.94,-296.92,-296.9,-296.88,-296.89,-296.88,-296.87,-296.86,-296.84,-296.81,-296.79,-296.78,-296.78,-296.81,-296.84,-296.83,-296.81,-296.78,-296.75,-296.74,-296.74,-296.74,-296.74,-296.73,-296.73,-296.73,-296.73,-296.72,-296.7,-296.68,-296.67,-296.67,-296.66,-296.66,-296.66,-296.66,-296.67,-296.68,-296.69,-296.69,-296.68,-296.67,-296.68,-296.68,-296.66,-296.66,-296.66,-296.67,-296.68,-296.69,-296.7,-296.7,-296.72,-296.73,-296.73,-296.73,-296.74,-296.76,-296.77,-296.77,-296.77,-296.77,-296.78,-296.79,-296.79,-296.78,-296.78,-296.8,-296.8,-296.81,-296.81,-296.78,-296.75,-296.76,-296.78,-296.79,-296.8,-296.81,-296.81,-296.81,-296.8,-296.81,-296.83,-296.8,-296.77,-296.78,-296.79,-296.8,-296.82,-296.82,-296.82,-296.84,-296.85,-296.83,-296.79,-296.78,-296.78,-296.79,-296.81,-296.79,-296.79,-296.82,-296.83,-296.81,-296.8,-296.8,-296.82,-296.82,-296.81,-296.82,-296.84,-296.83,-296.83,-296.83,-296.85,-296.86,-296.86,-296.86,-296.86,-296.86,-296.88,-296.89,-296.87,-296.87,-296.89,-296.88,-296.86,-296.85,-296.85,-296.86,-296.88,-296.88,-296.85,-296.85,-296.85,-296.84,-296.84,-296.85,-296.86,-296.86,-296.85,-296.85,-296.87,-296.88,-296.88,-296.87,-296.85,-296.85,-296.87,-296.87,-296.86,-296.85,-296.86,-296.86,-296.86,-296.84,-296.86,-296.85,-296.85,-296.83,-296.83,-296.84,-296.85,-296.85,-296.84,-296.83,-296.84,-296.85,-296.88,-296.88,-296.87,-296.88,-296.89,-296.88,-296.87,-296.86,-296.87,-296.88,-296.89,-296.86,-296.87,-296.9,-296.91,-296.89,-296.9,-296.84,-296.71,-296.61,-296.56,-296.74,-296.99,-297.02,-297.04,-297.08,-297.13,-297.13,-297.1,-297.08,-297.04,-297.01,-297,-296.98,-296.96,-296.96,-296.98,-297,-296.98,-296.95,-296.91,-296.89,-296.89,-296.91,-296.93,-296.92,-296.9,-296.9,-296.9,-296.86,-296.83,-296.81,-296.81,-296.82,-296.82,-296.81,-296.79,-296.78,-296.77,-296.76,-296.74,-296.73,-296.72,-296.72,-296.72,-296.72,-296.73,-296.73,-296.74,-296.73,-296.73,-296.72,-296.72,-296.71,-296.68,-296.66,-296.65,-296.64,-296.64,-296.64,-296.65,-296.66,-296.68,-296.69,-296.7,-296.7,-296.71,-296.72,-296.74,-296.75,-296.75,-296.76,-296.78,-296.79,-296.77,-296.74,-296.75,-296.76,-296.75,-296.74,-296.74,-296.74,-296.73,-296.73,-296.71,-296.69,-296.7,-296.74,-296.74,-296.74,-296.75,-296.76,-296.75,-296.73,-296.71,-296.68,-296.67,-296.7,-296.73,-296.74,-296.74,-296.75,-296.75,-296.76,-296.76,-296.76,-296.75,-296.75,-296.75,-296.77,-296.77,-296.77,-296.77,-296.78,-296.79,-296.8,-296.8,-296.8,-296.8,-296.8,-296.8,-296.8,-296.8,-296.8,-296.81,-296.82,-296.83,-296.84,-296.84,-296.85,-296.85,-296.85,-296.85,-296.85,-296.86,-296.86,-296.86,-296.86,-296.85,-296.83,-296.8,-296.8,-296.81,-296.77,-296.76,-296.78,-296.81,-296.81,-296.8,-296.81,-296.82,-296.84,-296.84,-296.84,-296.85,-296.85,-296.85,-296.86,-296.85,-296.85,-296.85,-296.84,-296.82,-296.81,-296.81,-296.77,-296.77,-296.8,-296.84,-296.84,-296.84,-296.83,-296.84,-296.86,-296.87,-296.88,-296.88,-296.88,-296.89,-296.9,-296.9,-296.9,-296.91,-296.91,-296.86,-296.73,-296.61,-296.53,-296.66,-296.94,-297.04,-297.03,-297.09,-297.13,-297.11,-297.06,-297.06,-297.06,-297.05,-297.03,-296.97,-296.95,-296.96,-296.98,-296.97,-296.95,-296.93,-296.91,-296.9,-296.89,-296.88,-296.89,-296.92,-296.94,-296.94,-296.91,-296.87,-296.85,-296.85,-296.84,-296.83,-296.82,-296.81,-296.81,-296.8,-296.79,-296.78,-296.76,-296.74,-296.72,-296.71,-296.7,-296.7,-296.71,-296.71,-296.72,-296.72,-296.72,-296.72,-296.71,-296.7,-296.68,-296.67,-296.66,-296.66,-296.63,-296.61,-296.65,-296.67,-296.65,-296.67,-296.69,-296.73,-296.75,-296.74,-296.73,-296.74,-296.77,-296.78,-296.78,-296.78,-296.8,-296.81,-296.83,-296.82,-296.82,-296.82,-296.82,-296.82,-296.82,-296.82,-296.82,-296.81,-296.82,-296.84,-296.84,-296.85,-296.88,-296.87,-296.83,-296.81,-296.85,-296.86,-296.84,-296.82,-296.83,-296.85,-296.87,-296.87,-296.86,-296.85,-296.85,-296.87,-296.87,-296.86,-296.83,-296.82,-296.81,-296.81,-296.82,-296.83,-296.84,-296.84,-296.84,-296.84,-296.85,-296.85,-296.85,-296.86,-296.86,-296.88,-296.89,-296.89,-296.9,-296.91,-296.92,-296.93,-296.93,-296.93,-296.93,-296.92,-296.92,-296.91,-296.91,-296.91,-296.91,-296.9,-296.9,-296.89,-296.88,-296.88,-296.88,-296.88,-296.88,-296.88,-296.88,-296.88,-296.87,-296.88,-296.88,-296.89,-296.89,-296.89,-296.89,-296.89,-296.89,-296.89,-296.89,-296.88,-296.88,-296.88,-296.87,-296.86,-296.86,-296.85,-296.83,-296.83,-296.83,-296.82,-296.81,-296.81,-296.81,-296.8,-296.8,-296.81,-296.81,-296.81,-296.81,-296.81,-296.81,-296.82,-296.84,-296.84,-296.84,-296.84,-296.84,-296.84,-296.84,-296.84,-296.84,-296.84,-296.84,-296.84,-296.86,-296.87,-296.88,-296.88,-296.84,-296.71,-296.59,-296.52,-296.62,-296.9,-297.05,-297.02,-297.05,-297.1,-297.11,-297.07,-297.04,-297.01,-297,-296.97,-296.92,-296.9,-296.88,-296.91,-296.93,-296.9,-296.84,-296.82,-296.84,-296.85,-296.83,-296.82,-296.85,-296.88,-296.87,-296.84,-296.81,-296.8,-296.82,-296.82,-296.82,-296.81,-296.79,-296.78,-296.78,-296.76,-296.74,-296.72,-296.71,-296.69,-296.69,-296.68,-296.69,-296.69,-296.7,-296.7,-296.7,-296.69,-296.68,-296.67,-296.67,-296.65,-296.65,-296.65,-296.65,-296.66,-296.67,-296.68,-296.69,-296.7,-296.71,-296.72,-296.72,-296.73,-296.74,-296.75,-296.75,-296.74,-296.75,-296.8,-296.8,-296.76,-296.75,-296.79,-296.82,-296.81,-296.78,-296.79,-296.8,-296.8,-296.8,-296.79,-296.78,-296.8,-296.82,-296.84,-296.85,-296.85,-296.83,-296.83,-296.83,-296.84,-296.84,-296.83,-296.82,-296.82,-296.83,-296.83,-296.83,-296.82,-296.81,-296.82,-296.81,-296.81,-296.8,-296.79,-296.78,-296.78,-296.78,-296.78,-296.79,-296.8,-296.81,-296.81,-296.8,-296.81,-296.81,-296.81,-296.82,-296.82,-296.83,-296.84,-296.85,-296.86,-296.87,-296.88,-296.89,-296.9,-296.9,-296.9,-296.9,-296.91,-296.9,-296.9,-296.89,-296.88,-296.88,-296.88,-296.88,-296.87,-296.87,-296.86,-296.84,-296.85,-296.86,-296.85,-296.82,-296.83,-296.87,-296.87,-296.86,-296.85,-296.86,-296.88,-296.89,-296.89,-296.89,-296.9,-296.91,-296.92,-296.92,-296.91,-296.9,-296.9,-296.9,-296.9,-296.89,-296.89,-296.89,-296.89,-296.89,-296.88,-296.88,-296.88,-296.88,-296.87,-296.87,-296.87,-296.87,-296.87,-296.86,-296.86,-296.87,-296.86,-296.86,-296.86,-296.86,-296.86,-296.86,-296.86,-296.86,-296.88,-296.89,-296.89,-296.89,-296.89,-296.88,-296.89,-296.89,-296.89,-296.89,-296.89,-296.89,-296.89,-296.9,-296.91,-296.92,-296.93,-296.89,-296.76,-296.63,-296.56,-296.66,-296.95,-297.09,-297.06,-297.09,-297.14,-297.15,-297.11,-297.09,-297.06,-297.04,-297.02,-296.98,-296.95,-296.94,-296.95,-296.95,-296.93,-296.92,-296.91,-296.9,-296.88,-296.87,-296.88,-296.91,-296.92,-296.91,-296.89,-296.86,-296.84,-296.84,-296.82,-296.81,-296.79,-296.77,-296.75,-296.74,-296.72,-296.71,-296.69,-296.68,-296.67,-296.67,-296.67,-296.68,-296.68,-296.69,-296.68,-296.68,-296.67,-296.66,-296.65,-296.65,-296.64,-296.64,-296.64,-296.64,-296.65,-296.66,-296.67,-296.68,-296.7,-296.72,-296.73,-296.74,-296.75,-296.76,-296.78,-296.79,-296.79,-296.78,-296.81,-296.84,-296.81,-296.77,-296.79,-296.84,-296.84,-296.81,-296.79,-296.79,-296.81,-296.81,-296.81,-296.81,-296.81,-296.82,-296.85,-296.87,-296.88,-296.87,-296.86,-296.86,-296.87,-296.87,-296.87,-296.85,-296.86,-296.86,-296.87,-296.86,-296.85,-296.84,-296.84,-296.84,-296.84,-296.84,-296.83,-296.83,-296.82,-296.82,-296.83,-296.84,-296.85,-296.85,-296.84,-296.83,-296.83,-296.84,-296.84,-296.85,-296.85,-296.86,-296.86,-296.87,-296.88,-296.89,-296.91,-296.91,-296.92,-296.93,-296.93,-296.92,-296.92,-296.91,-296.91,-296.9,-296.89,-296.89,-296.88,-296.88,-296.87,-296.87,-296.86,-296.86,-296.86,-296.86,-296.85,-296.86,-296.86,-296.87,-296.87,-296.87,-296.88,-296.88,-296.88,-296.88,-296.88,-296.88,-296.88,-296.88,-296.88,-296.88,-296.88,-296.88,-296.88,-296.88,-296.88,-296.88,-296.88,-296.88,-296.88,-296.88,-296.88,-296.88,-296.87,-296.87,-296.87,-296.86,-296.86,-296.86,-296.86,-296.85,-296.85,-296.85,-296.85,-296.85,-296.85,-296.85,-296.85,-296.85,-296.85,-296.85,-296.85,-296.86,-296.88,-296.88,-296.88,-296.88,-296.87,-296.87,-296.87,-296.87,-296.87,-296.87,-296.87,-296.88,-296.88,-296.89,-296.9,-296.91,-296.89,-296.78,-296.64,-296.55,-296.59,-296.85,-297.08,-297.08,-297.05,-297.09,-297.14,-297.13,-297.09,-297.06,-297.03,-297.02,-296.98,-296.94,-296.94,-296.94,-296.95,-296.93,-296.92,-296.9,-296.89,-296.87,-296.86,-296.85,-296.86,-296.89,-296.91,-296.89,-296.85,-296.83,-296.82,-296.81,-296.81,-296.79,-296.76,-296.74,-296.73,-296.72,-296.71,-296.69,-296.67,-296.67,-296.66,-296.66,-296.66,-296.67,-296.67,-296.67,-296.66,-296.65,-296.64,-296.63,-296.63,-296.63,-296.63,-296.63,-296.63,-296.64,-296.65,-296.66,-296.66,-296.68,-296.69,-296.71,-296.72,-296.73,-296.75,-296.76,-296.78,-296.79,-296.8,-296.8,-296.81,-296.82,-296.82,-296.82,-296.83,-296.83,-296.83,-296.83,-296.83,-296.82,-296.82,-296.82,-296.82,-296.82,-296.83,-296.84,-296.87,-296.88,-296.88,-296.87,-296.87,-296.87,-296.88,-296.88,-296.87,-296.86,-296.86,-296.87,-296.87,-296.87,-296.86,-296.85,-296.85,-296.84,-296.84,-296.83,-296.82,-296.81,-296.81,-296.81,-296.83,-296.84,-296.85,-296.85,-296.84,-296.84,-296.84,-296.84,-296.85,-296.86,-296.86,-296.87,-296.87,-296.88,-296.89,-296.9,-296.9,-296.91,-296.91,-296.91,-296.91,-296.9,-296.9,-296.9,-296.89,-296.89,-296.88,-296.88,-296.87,-296.87,-296.87,-296.86,-296.85,-296.85,-296.85,-296.85,-296.85,-296.86,-296.86,-296.87,-296.87,-296.87,-296.87,-296.88,-296.88,-296.88,-296.88,-296.88,-296.88,-296.88,-296.87,-296.87,-296.87,-296.87,-296.87,-296.87,-296.86,-296.86,-296.87,-296.86,-296.86,-296.86,-296.86,-296.86,-296.86,-296.86,-296.86,-296.85,-296.86,-296.86,-296.86,-296.86,-296.86,-296.85,-296.85,-296.85,-296.84,-296.84,-296.84,-296.84,-296.84,-296.84,-296.83,-296.83,-296.83,-296.83,-296.84,-296.86,-296.87,-296.87,-296.87,-296.87,-296.87,-296.87,-296.87,-296.87,-296.87,-296.87,-296.87,-296.87,-296.87,-296.89,-296.89,-296.89,-296.8,-296.66,-296.55,-296.53,-296.74,-297.02,-297.05,-297.03,-297.09,-297.11,-297.09,-297.06,-297.03,-297.01,-296.99,-296.95,-296.94,-296.92,-296.92,-296.92,-296.91,-296.89,-296.88,-296.87,-296.86,-296.84,-296.84,-296.86,-296.89,-296.89,-296.86,-296.82,-296.81,-296.81,-296.81,-296.8,-296.78,-296.76,-296.74,-296.72,-296.71,-296.69,-296.68,-296.66,-296.62,-296.6,-296.61,-296.6,-296.58,-296.6,-296.65,-296.65,-296.62,-296.59,-296.59,-296.59,-296.61,-296.58,-296.56,-296.56,-296.57,-296.57,-296.6,-296.64,-296.65,-296.65,-296.65,-296.68,-296.7,-296.72,-296.73,-296.74,-296.75,-296.76,-296.78,-296.79,-296.79,-296.79,-296.8,-296.81,-296.81,-296.83,-296.83,-296.82,-296.81,-296.81,-296.8,-296.81,-296.82,-296.83,-296.83,-296.84,-296.85,-296.86,-296.86,-296.84,-296.83,-296.82,-296.8,-296.79,-296.81,-296.81,-296.79,-296.8,-296.81,-296.8,-296.78,-296.77,-296.78,-296.79,-296.79,-296.79,-296.77,-296.75,-296.76,-296.76,-296.77,-296.78,-296.79,-296.8,-296.81,-296.82,-296.81,-296.8,-296.8,-296.81,-296.82,-296.83,-296.84,-296.84,-296.84,-296.85,-296.85,-296.87,-296.88,-296.87,-296.87,-296.87,-296.88,-296.89,-296.89,-296.88,-296.87,-296.86,-296.86,-296.85,-296.86,-296.87,-296.88,-296.88,-296.88,-296.88,-296.86,-296.86,-296.87,-296.87,-296.87,-296.88,-296.89,-296.9,-296.89,-296.89,-296.88,-296.89,-296.9,-296.91,-296.91,-296.89,-296.89,-296.89,-296.89,-296.88,-296.89,-296.89,-296.89,-296.88,-296.87,-296.87,-296.87,-296.86,-296.86,-296.85,-296.86,-296.86,-296.85,-296.85,-296.84,-296.84,-296.84,-296.84,-296.84,-296.85,-296.86,-296.89,-296.89,-296.89,-296.89,-296.89,-296.9,-296.9,-296.9,-296.89,-296.89,-296.89,-296.88,-296.89,-296.9,-296.91,-296.91,-296.88,-296.77,-296.64,-296.55,-296.62,-296.87,-296.98,-296.96,-296.99,-297.04,-297.01,-296.96,-296.94,-296.92,-296.91,-296.9,-296.88,-296.84,-296.83,-296.84,-296.85,-296.86,-296.84,-296.82,-296.79,-296.77,-296.76,-296.76,-296.79,-296.82,-296.81,-296.77,-296.74,-296.73,-296.74,-296.74,-296.73,-296.71,-296.67,-296.66,-296.69,-296.69,-296.67,-296.64,-296.63,-296.64,-296.66,-296.67,-296.68,-296.68,-296.69,-296.69,-296.69,-296.69,-296.69,-296.68,-296.67,-296.66,-296.65,-296.64,-296.63,-296.62,-296.63,-296.64,-296.65,-296.67,-296.68,-296.7,-296.71,-296.73,-296.73,-296.73,-296.74,-296.74,-296.75,-296.76,-296.76,-296.76,-296.77,-296.79,-296.82,-296.82,-296.82,-296.81,-296.79,-296.8,-296.83,-296.86,-296.86,-296.86,-296.84,-296.84,-296.84,-296.84,-296.83,-296.81,-296.81,-296.82,-296.82,-296.83,-296.84,-296.85,-296.84,-296.84,-296.83,-296.83,-296.83,-296.83,-296.81,-296.79,-296.78,-296.77,-296.76,-296.76,-296.76,-296.77,-296.77,-296.76,-296.73,-296.69,-296.66,-296.67,-296.73,-296.76,-296.77,-296.76,-296.74,-296.74,-296.76,-296.79,-296.83,-296.83,-296.82,-296.81,-296.8,-296.8,-296.81,-296.82,-296.83,-296.82,-296.82,-296.81,-296.8,-296.81,-296.8,-296.8,-296.8,-296.79,-296.79,-296.8,-296.8,-296.8,-296.79,-296.78,-296.77,-296.77,-296.76,-296.76,-296.75,-296.75,-296.75,-296.75,-296.75,-296.75,-296.74,-296.74,-296.74,-296.73,-296.74,-296.74,-296.76,-296.77,-296.77,-296.77,-296.76,-296.76,-296.76,-296.76,-296.75,-296.75,-296.74,-296.75,-296.74,-296.75,-296.75,-296.76,-296.69,-296.56,-296.5,-296.43,-296.49,-296.75,-296.86,-296.85,-296.88,-296.93,-296.91,-296.86,-296.85,-296.83,-296.81,-296.79,-296.77,-296.74,-296.75,-296.76,-296.78,-296.77,-296.77,-296.76,-296.76,-296.76,-296.75,-296.75,-296.77,-296.78,-296.78,-296.74,-296.73,-296.72,-296.69,-296.68,-296.67,-296.68,-296.67,-296.66,-296.66,-296.66,-296.64,-296.63,-296.62,-296.63,-296.61,-296.58,-296.59,-296.62,-296.62,-296.6,-296.59,-296.59,-296.59,-296.6,-296.59,-296.55,-296.54,-296.55,-296.57,-296.59,-296.58,-296.56,-296.56,-296.61,-296.65,-296.68,-296.68,-296.66,-296.67,-296.71,-296.73,-296.73,-296.73,-296.74,-296.76,-296.77,-296.77,-296.77,-296.77,-296.77,-296.8,-296.79,-296.74,-296.73,-296.75,-296.77,-296.77,-296.76,-296.76,-296.79,-296.8,-296.8,-296.78,-296.78,-296.79,-296.79,-296.79,-296.78,-296.77,-296.78,-296.79,-296.8,-296.8,-296.79,-296.8,-296.8,-296.8,-296.79,-296.77,-296.76,-296.77,-296.77,-296.77,-296.77,-296.77,-296.78,-296.79,-296.8,-296.81,-296.81,-296.81,-296.81,-296.82,-296.83,-296.84,-296.85,-296.87,-296.87,-296.88,-296.88,-296.88,-296.89,-296.89,-296.89,-296.89,-296.89,-296.89,-296.89,-296.88,-296.88,-296.88,-296.88,-296.88,-296.87,-296.86,-296.85,-296.85,-296.85,-296.84,-296.84,-296.84,-296.84,-296.85,-296.85,-296.86,-296.86,-296.85,-296.86,-296.86,-296.85,-296.85,-296.85,-296.84,-296.85,-296.85,-296.84,-296.84,-296.84,-296.83,-296.83,-296.84,-296.85,-296.85,-296.85,-296.85,-296.85,-296.85,-296.86,-296.86,-296.86,-296.86,-296.86,-296.87,-296.87,-296.89,-296.89,-296.88,-296.78,-296.66,-296.57,-296.54,-296.66,-296.93,-297.04,-297.01,-297.05,-297.09,-297.09,-297.05,-297.02,-297,-296.99,-296.95,-296.92,-296.91,-296.92,-296.93,-296.93,-296.93,-296.92,-296.91,-296.89,-296.86,-296.85,-296.85,-296.87,-296.88,-296.87,-296.85,-296.83,-296.81,-296.8,-296.8,-296.8,-296.8,-296.78,-296.77,-296.76,-296.75,-296.74,-296.72,-296.7,-296.69,-296.68,-296.68,-296.68,-296.68,-296.68,-296.67,-296.67,-296.66,-296.66,-296.65,-296.65,-296.64,-296.64,-296.64,-296.65,-296.65,-296.67,-296.7,-296.71,-296.73,-296.74,-296.76,-296.77,-296.78,-296.78,-296.78,-296.78,-296.79,-296.8,-296.81,-296.82,-296.83,-296.83,-296.84,-296.84,-296.84,-296.85,-296.85,-296.85,-296.84,-296.84,-296.85,-296.86,-296.86,-296.86,-296.87,-296.88,-296.88,-296.87,-296.86,-296.86,-296.87,-296.87,-296.86,-296.85,-296.85,-296.86,-296.87,-296.87,-296.87,-296.87,-296.88,-296.88,-296.87,-296.86,-296.84,-296.83,-296.83,-296.83,-296.83,-296.83,-296.83,-296.83,-296.82,-296.82,-296.82,-296.82,-296.82,-296.82,-296.82,-296.82,-296.83,-296.83,-296.85,-296.86,-296.87,-296.87,-296.87,-296.87,-296.87,-296.86,-296.86,-296.85,-296.84,-296.84,-296.83,-296.82,-296.82,-296.82,-296.82,-296.81,-296.81,-296.81,-296.81,-296.81,-296.81,-296.82,-296.83,-296.83,-296.83,-296.84,-296.84,-296.85,-296.86,-296.86,-296.86,-296.86,-296.85,-296.85,-296.85,-296.84,-296.83,-296.82,-296.81,-296.81,-296.81,-296.81,-296.81,-296.81,-296.81,-296.81,-296.81,-296.81,-296.82,-296.83,-296.83,-296.83,-296.83,-296.83,-296.83,-296.83,-296.83,-296.82,-296.82,-296.83,-296.84,-296.86,-296.86,-296.86,-296.77,-296.64,-296.55,-296.54,-296.75,-297.02,-297.05,-297.03,-297.09,-297.12,-297.09,-297.05,-297.01,-296.99,-296.97,-296.92,-296.9,-296.9,-296.9,-296.91,-296.9,-296.89,-296.89,-296.87,-296.85,-296.83,-296.82,-296.83,-296.84,-296.84,-296.82,-296.8,-296.78,-296.77,-296.77,-296.77,-296.76,-296.75,-296.74,-296.73,-296.72,-296.71,-296.7,-296.68,-296.67,-296.66,-296.65,-296.64,-296.64,-296.64,-296.63,-296.63,-296.61,-296.6,-296.59,-296.58,-296.58,-296.58,-296.58,-296.59,-296.6,-296.61,-296.62,-296.64,-296.66,-296.67,-296.69,-296.7,-296.71,-296.73,-296.74,-296.75,-296.76,-296.76,-296.77,-296.77,-296.78,-296.79,-296.8,-296.81,-296.81,-296.81,-296.82,-296.83,-296.83,-296.83,-296.82,-296.82,-296.83,-296.84,-296.86,-296.88,-296.89,-296.87,-296.87,-296.86,-296.87,-296.88,-296.87,-296.87,-296.87,-296.88,-296.89,-296.89,-296.88,-296.87,-296.87,-296.88,-296.88,-296.87,-296.85,-296.84,-296.83,-296.83,-296.83,-296.83,-296.84,-296.84,-296.84,-296.84,-296.84,-296.84,-296.84,-296.85,-296.86,-296.87,-296.87,-296.87,-296.88,-296.88,-296.88,-296.89,-296.89,-296.89,-296.89,-296.89,-296.88,-296.87,-296.87,-296.86,-296.86,-296.85,-296.85,-296.84,-296.84,-296.83,-296.83,-296.82,-296.83,-296.84,-296.84,-296.85,-296.87,-296.89,-296.89,-296.86,-296.85,-296.86,-296.87,-296.88,-296.88,-296.88,-296.88,-296.88,-296.9,-296.93,-296.93,-296.91,-296.92,-296.91,-296.9,-296.87,-296.86,-296.87,-296.87,-296.86,-296.86,-296.85,-296.85,-296.85,-296.86,-296.85,-296.86,-296.88,-296.9,-296.91,-296.91,-296.91,-296.91,-296.91,-296.91,-296.91,-296.91,-296.91,-296.92,-296.92,-296.93,-296.94,-296.94,-296.93,-296.83,-296.69,-296.59,-296.59,-296.82,-297.07,-297.07,-297.05,-297.08,-297.12,-297.12,-297.08,-297.04,-297.01,-297,-296.96,-296.93,-296.92,-296.95,-296.95,-296.94,-296.93,-296.92,-296.9,-296.89,-296.87,-296.87,-296.87,-296.9,-296.92,-296.91,-296.88,-296.84,-296.82,-296.82,-296.83,-296.82,-296.82,-296.81,-296.8,-296.79,-296.77,-296.74,-296.72,-296.7,-296.69,-296.68,-296.68,-296.67,-296.66,-296.67,-296.67,-296.68,-296.68,-296.67,-296.66,-296.65,-296.65,-296.65,-296.64,-296.63,-296.63,-296.64,-296.65,-296.67,-296.68,-296.69,-296.7,-296.72,-296.72,-296.73,-296.74,-296.75,-296.75,-296.76,-296.76,-296.78,-296.79,-296.81,-296.8,-296.79,-296.79,-296.79,-296.78,-296.78,-296.77,-296.76,-296.75,-296.76,-296.77,-296.78,-296.8,-296.79,-296.78,-296.76,-296.76,-296.76,-296.76,-296.74,-296.73,-296.73,-296.74,-296.75,-296.75,-296.75,-296.74,-296.75,-296.75,-296.75,-296.73,-296.72,-296.71,-296.72,-296.73,-296.74,-296.75,-296.75,-296.76,-296.77,-296.78,-296.79,-296.81,-296.81,-296.81,-296.84,-296.85,-296.85,-296.84,-296.85,-296.87,-296.88,-296.9,-296.89,-296.88,-296.9,-296.91,-296.89,-296.87,-296.87,-296.88,-296.88,-296.87,-296.87,-296.87,-296.85,-296.85,-296.87,-296.86,-296.84,-296.83,-296.84,-296.85,-296.85,-296.84,-296.84,-296.83,-296.83,-296.83,-296.83,-296.82,-296.82,-296.82,-296.84,-296.84,-296.82,-296.83,-296.84,-296.84,-296.81,-296.81,-296.85,-296.85,-296.83,-296.83,-296.84,-296.83,-296.82,-296.83,-296.86,-296.86,-296.85,-296.85,-296.85,-296.86,-296.85,-296.84,-296.84,-296.85,-296.86,-296.85,-296.83,-296.86,-296.88,-296.88,-296.82,-296.71,-296.59,-296.5,-296.63,-296.78,-296.98,-297,-296.99,-297.09,-297.1,-297.07,-297.03,-297,-296.98,-296.99,-296.95,-296.93,-296.92,-296.96,-296.96,-296.97,-296.93,-296.91,-296.89,-296.86,-296.85,-296.89,-296.9,-296.9,-296.87,-296.87,-296.86,-296.85,-296.83,-296.83,-296.82,-296.8,-296.8,-296.82,-296.82,-296.81,-296.78,-296.76,-296.73,-296.7,-296.69,-296.68,-296.68,-296.7,-296.7,-296.7,-296.71,-296.7,-296.7,-296.7,-296.69,-296.69,-296.68,-296.67,-296.67,-296.67,-296.67,-296.68,-296.71,-296.72,-296.74,-296.74,-296.74,-296.73,-296.74,-296.75,-296.77,-296.77,-296.78,-296.78,-296.78,-296.8,-296.81,-296.81,-296.81,-296.8,-296.8,-296.8,-296.81,-296.8,-296.8,-296.79,-296.79,-296.8,-296.81,-296.82,-296.83,-296.81,-296.78,-296.76,-296.76,-296.76,-296.75,-296.74,-296.75,-296.75,-296.77,-296.78,-296.78,-296.78,-296.77,-296.76,-296.75,-296.74,-296.75,-296.76,-296.77,-296.77,-296.78,-296.78,-296.79,-296.8,-296.8,-296.8,-296.8,-296.8,-296.8,-296.81,-296.81,-296.81,-296.82,-296.82,-296.83,-296.83,-296.84,-296.84,-296.84,-296.84,-296.84,-296.84,-296.84,-296.84,-296.84,-296.84,-296.84,-296.83,-296.83,-296.83,-296.83,-296.82,-296.82,-296.82,-296.82,-296.81,-296.81,-296.81,-296.81,-296.8,-296.8,-296.8,-296.8,-296.81,-296.8,-296.8,-296.82,-296.82,-296.82,-296.83,-296.84,-296.83,-296.83,-296.82,-296.82,-296.82,-296.82,-296.82,-296.81,-296.81,-296.8,-296.8,-296.81,-296.82,-296.82,-296.83,-296.77,-296.64,-296.53,-296.5,-296.72,-296.92,-296.93,-296.94,-297,-297,-296.95,-296.93,-296.9,-296.88,-296.86,-296.84,-296.82,-296.83,-296.84,-296.83,-296.82,-296.83,-296.83,-296.83,-296.82,-296.82,-296.82,-296.84,-296.85,-296.85,-296.82,-296.79,-296.76,-296.75,-296.74,-296.74,-296.73,-296.72,-296.71,-296.71,-296.71,-296.69,-296.67,-296.68,-296.66,-296.63,-296.62,-296.65,-296.67,-296.65,-296.62,-296.62,-296.64,-296.65,-296.64,-296.63,-296.61,-296.61,-296.62,-296.61,-296.57,-296.58,-296.62,-296.64,-296.63,-296.64,-296.67,-296.69,-296.72,-296.72,-296.7,-296.7,-296.74,-296.75,-296.77,-296.77,-296.76,-296.76,-296.78,-296.79,-296.76,-296.75,-296.78,-296.79,-296.77,-296.76,-296.75,-296.76,-296.77,-296.79,-296.81,-296.82,-296.82,-296.83,-296.82,-296.79,-296.77,-296.79,-296.8,-296.8,-296.79,-296.79,-296.81,-296.81,-296.82,-296.81,-296.81,-296.81,-296.82,-296.81,-296.81,-296.81,-296.81,-296.81,-296.82,-296.81,-296.82,-296.82,-296.82,-296.82,-296.83,-296.83,-296.83,-296.83,-296.84,-296.85,-296.87,-296.88,-296.9,-296.91,-296.91,-296.91,-296.91,-296.91,-296.9,-296.91,-296.9,-296.89,-296.89,-296.88,-296.88,-296.87,-296.87,-296.86,-296.86,-296.85,-296.85,-296.84,-296.84,-296.84,-296.85,-296.85,-296.85,-296.85,-296.86,-296.87,-296.87,-296.86,-296.86,-296.85,-296.86,-296.86,-296.85,-296.84,-296.84,-296.84,-296.84,-296.84,-296.85,-296.87,-296.86,-296.86,-296.86,-296.86,-296.87,-296.87,-296.87,-296.88,-296.89,-296.89,-296.89,-296.9,-296.92,-296.93,-296.9,-296.78,-296.65,-296.6,-296.57,-296.76,-297.02,-297.04,-297.03,-297.09,-297.13,-297.1,-297.07,-297.04,-297.02,-297,-296.97,-296.93,-296.94,-296.96,-296.95,-296.91,-296.9,-296.91,-296.92,-296.9,-296.87,-296.87,-296.88,-296.9,-296.9,-296.87,-296.84,-296.83,-296.82,-296.82,-296.82,-296.81,-296.81,-296.81,-296.8,-296.8,-296.78,-296.77,-296.75,-296.73,-296.73,-296.72,-296.71,-296.72,-296.72,-296.72,-296.71,-296.7,-296.69,-296.68,-296.68,-296.67,-296.66,-296.67,-296.67,-296.68,-296.68,-296.69,-296.7,-296.72,-296.74,-296.75,-296.76,-296.77,-296.78,-296.79,-296.78,-296.81,-296.81,-296.78,-296.76,-296.79,-296.81,-296.81,-296.8,-296.8,-296.81,-296.82,-296.82,-296.81,-296.81,-296.8,-296.81,-296.82,-296.83,-296.84,-296.85,-296.86,-296.84,-296.83,-296.83,-296.83,-296.84,-296.83,-296.82,-296.82,-296.82,-296.83,-296.84,-296.84,-296.84,-296.85,-296.85,-296.85,-296.83,-296.81,-296.82,-296.82,-296.84,-296.84,-296.85,-296.84,-296.85,-296.85,-296.86,-296.85,-296.84,-296.84,-296.84,-296.84,-296.84,-296.84,-296.86,-296.87,-296.88,-296.9,-296.9,-296.91,-296.91,-296.91,-296.91,-296.91,-296.91,-296.91,-296.91,-296.91,-296.91,-296.9,-296.9,-296.9,-296.9,-296.89,-296.89,-296.89,-296.89,-296.89,-296.89,-296.9,-296.9,-296.9,-296.91,-296.91,-296.92,-296.92,-296.92,-296.92,-296.92,-296.91,-296.91,-296.91,-296.91,-296.91,-296.9,-296.89,-296.89,-296.88,-296.88,-296.88,-296.87,-296.86,-296.87,-296.87,-296.87,-296.89,-296.91,-296.91,-296.91,-296.91,-296.91,-296.9,-296.9,-296.9,-296.89,-296.89,-296.89,-296.89,-296.9,-296.92,-296.93,-296.93,-296.91,-296.8,-296.67,-296.58,-296.64,-296.9,-297.07,-297.05,-297.07,-297.14,-297.13,-297.08,-297.06,-297.03,-297.01,-296.98,-296.93,-296.93,-296.92,-296.94,-296.94,-296.94,-296.92,-296.91,-296.9,-296.88,-296.87,-296.88,-296.89,-296.89,-296.87,-296.84,-296.81,-296.8,-296.8,-296.79,-296.79,-296.78,-296.77,-296.75,-296.74,-296.73,-296.72,-296.7,-296.69,-296.69,-296.69,-296.7,-296.71,-296.71,-296.71,-296.71,-296.71,-296.71,-296.7,-296.7,-296.69,-296.69,-296.68,-296.67,-296.67,-296.66,-296.67,-296.67,-296.68,-296.71,-296.72,-296.73,-296.73,-296.74,-296.75,-296.76,-296.78,-296.79,-296.79,-296.8,-296.81,-296.82,-296.82,-296.82,-296.82,-296.83,-296.82,-296.82,-296.81,-296.81,-296.81,-296.82,-296.81,-296.82,-296.84,-296.85,-296.86,-296.86,-296.85,-296.83,-296.83,-296.83,-296.83,-296.82,-296.81,-296.82,-296.82,-296.82,-296.81,-296.81,-296.81,-296.81,-296.79,-296.78,-296.77,-296.77,-296.78,-296.79,-296.8,-296.81,-296.81,-296.82,-296.82,-296.83,-296.82,-296.82,-296.83,-296.83,-296.84,-296.84,-296.85,-296.85,-296.86,-296.88,-296.88,-296.89,-296.9,-296.9,-296.9,-296.9,-296.9,-296.91,-296.91,-296.91,-296.91,-296.9,-296.89,-296.89,-296.88,-296.88,-296.88,-296.88,-296.88,-296.88,-296.89,-296.88,-296.89,-296.89,-296.9,-296.9,-296.91,-296.91,-296.91,-296.92,-296.92,-296.92,-296.91,-296.91,-296.9,-296.89,-296.89,-296.88,-296.87,-296.86,-296.86,-296.85,-296.86,-296.86,-296.86,-296.87,-296.87,-296.87,-296.88,-296.89,-296.89,-296.9,-296.92,-296.92,-296.9,-296.89,-296.89,-296.9,-296.9,-296.9,-296.9,-296.88,-296.86,-296.89,-296.93,-296.91,-296.77,-296.64,-296.57,-296.67,-296.91,-297,-296.98,-297.03,-297.06,-297.04,-297.03,-297.02,-296.98,-296.94,-296.92,-296.91,-296.89,-296.89,-296.91,-296.91,-296.9,-296.89,-296.87,-296.85,-296.84,-296.82,-296.85,-296.88,-296.85,-296.82,-296.81,-296.79,-296.78,-296.77,-296.77,-296.75,-296.75,-296.74,-296.74,-296.74,-296.72,-296.72,-296.72,-296.72,-296.72,-296.73,-296.74,-296.75,-296.76,-296.76,-296.75,-296.73,-296.72,-296.7,-296.69,-296.67,-296.64,-296.62,-296.61,-296.6,-296.59,-296.59,-296.59,-296.6,-296.61,-296.63,-296.64,-296.65,-296.66,-296.67,-296.68,-296.69,-296.69,-296.7,-296.7,-296.7,-296.7,-296.7,-296.7,-296.71,-296.72,-296.72,-296.71,-296.72,-296.74,-296.77,-296.77,-296.77,-296.78,-296.81,-296.86,-296.88,-296.88,-296.86,-296.87,-296.88,-296.88,-296.88,-296.87,-296.85,-296.83,-296.81,-296.8,-296.78,-296.75,-296.71,-296.68,-296.67,-296.67,-296.67,-296.66,-296.64,-296.63,-296.64,-296.66,-296.66,-296.67,-296.68,-296.71,-296.73,-296.74,-296.75,-296.76,-296.77,-296.8,-296.82,-296.83,-296.85,-296.87,-296.88,-296.88,-296.88,-296.88,-296.88,-296.87,-296.87,-296.86,-296.85,-296.84,-296.84,-296.85,-296.82,-296.8,-296.84,-296.83,-296.82,-296.78,-296.77,-296.77,-296.78,-296.81,-296.81,-296.81,-296.81,-296.84,-296.84,-296.86,-296.88,-296.86,-296.83,-296.83,-296.84,-296.84,-296.82,-296.82,-296.81,-296.81,-296.8,-296.8,-296.81,-296.8,-296.8,-296.81,-296.82,-296.83,-296.84,-296.85,-296.86,-296.86,-296.87,-296.86,-296.86,-296.86,-296.86,-296.86,-296.86,-296.85,-296.84,-296.83,-296.83,-296.84,-296.85,-296.82,-296.73,-296.58,-296.5,-296.63,-296.9,-296.97,-296.93,-296.98,-297.05,-297.07,-297.05,-297.03,-297.02,-297.01,-297.02,-297,-296.99,-297,-297.01,-297.02,-297.02,-297.02,-297,-296.98,-296.96,-296.94,-296.93,-296.92,-296.92,-296.9,-296.88,-296.85,-296.81,-296.81,-296.82,-296.84,-296.83,-296.8,-296.8,-296.8,-296.8,-296.8,-296.79,-296.78,-296.78,-296.79,-296.79,-296.79,-296.78,-296.76,-296.75,-296.73,-296.71,-296.67,-296.63,-296.59,-296.57,-296.55,-296.53,-296.52,-296.51,-296.52,-296.54,-296.55,-296.56,-296.57,-296.57,-296.59,-296.61,-296.63,-296.65,-296.67,-296.69,-296.7,-296.72,-296.74,-296.75,-296.76,-296.77,-296.78,-296.79,-296.8,-296.81,-296.81,-296.81,-296.81,-296.81,-296.82,-296.83,-296.84,-296.88,-296.9,-296.91,-296.91,-296.91,-296.93,-296.94,-296.95,-296.95,-296.95,-296.96,-296.97,-296.96,-296.96,-296.96,-296.95,-296.94,-296.93,-296.91,-296.89,-296.86,-296.84,-296.81,-296.8,-296.8,-296.8,-296.79,-296.79,-296.78,-296.77,-296.77,-296.77,-296.77,-296.77,-296.78,-296.8,-296.82,-296.84,-296.86,-296.87,-296.89,-296.9,-296.91,-296.91,-296.91,-296.91,-296.91,-296.91,-296.91,-296.9,-296.9,-296.9,-296.9,-296.91,-296.91,-296.9,-296.9,-296.9,-296.9,-296.91,-296.93,-296.95,-296.96,-296.96,-296.95,-296.94,-296.95,-296.95,-296.95,-296.94,-296.93,-296.93,-296.93,-296.92,-296.92,-296.91,-296.91,-296.9,-296.89,-296.88,-296.88,-296.87,-296.87,-296.87,-296.89,-296.89,-296.87,-296.85,-296.88,-296.92,-296.93,-296.93,-296.91,-296.91,-296.92,-296.93,-296.92,-296.92,-296.93,-296.94,-296.95,-296.96,-296.97,-296.98,-297,-297,-296.95,-296.83,-296.71,-296.68,-296.7,-296.91,-297.16,-297.17,-297.14,-297.18,-297.21,-297.2,-297.17,-297.13,-297.08,-297.06,-297.01,-296.99,-296.98,-296.98,-296.97,-296.95,-296.94,-296.93,-296.91,-296.88,-296.86,-296.86,-296.88,-296.89,-296.89,-296.86,-296.84,-296.83,-296.82,-296.82,-296.81,-296.8,-296.79,-296.78,-296.78,-296.76,-296.75,-296.73,-296.72,-296.7,-296.69,-296.7,-296.7,-296.71,-296.7,-296.7,-296.68,-296.67,-296.66,-296.65,-296.65,-296.65,-296.64,-296.65,-296.65,-296.66,-296.67,-296.68,-296.7,-296.72,-296.72,-296.74,-296.75,-296.76,-296.77,-296.78,-296.79,-296.81,-296.83,-296.84,-296.85,-296.86,-296.86,-296.87,-296.87,-296.87,-296.87,-296.86,-296.86,-296.84,-296.84,-296.83,-296.82,-296.82,-296.8,-296.82,-296.85,-296.81,-296.75,-296.75,-296.8,-296.81,-296.79,-296.78,-296.76,-296.78,-296.8,-296.81,-296.81,-296.81,-296.82,-296.83,-296.83,-296.82,-296.81,-296.8,-296.8,-296.8,-296.81,-296.81,-296.82,-296.82,-296.83,-296.82,-296.82,-296.82,-296.83,-296.83,-296.83,-296.84,-296.85,-296.85,-296.86,-296.88,-296.89,-296.9,-296.9,-296.9,-296.9,-296.89,-296.89,-296.88,-296.88,-296.88,-296.88,-296.87,-296.85,-296.86,-296.88,-296.84,-296.82,-296.85,-296.88,-296.87,-296.85,-296.84,-296.85,-296.86,-296.86,-296.86,-296.86,-296.87,-296.88,-296.88,-296.87,-296.87,-296.87,-296.87,-296.87,-296.86,-296.86,-296.86,-296.86,-296.85,-296.85,-296.84,-296.84,-296.84,-296.84,-296.84,-296.83,-296.83,-296.84,-296.81,-296.79,-296.81,-296.85,-296.86,-296.85,-296.85,-296.86,-296.87,-296.87,-296.87,-296.87,-296.88,-296.88,-296.88,-296.88,-296.88,-296.88,-296.9,-296.92,-296.92,-296.86,-296.73,-296.61,-296.57,-296.71,-296.99,-297.09,-297.05,-297.09,-297.14,-297.12,-297.07,-297.04,-297.03,-297.01,-296.96,-296.91,-296.89,-296.88,-296.86,-296.87,-296.88,-296.86,-296.83,-296.81,-296.79,-296.79,-296.79,-296.81,-296.81,-296.79,-296.77,-296.76,-296.75,-296.74,-296.74,-296.74,-296.73,-296.73,-296.72,-296.71,-296.69,-296.67,-296.64,-296.61,-296.6,-296.6,-296.59,-296.59,-296.6,-296.6,-296.6,-296.6,-296.6,-296.61,-296.61,-296.61,-296.61,-296.61,-296.62,-296.61,-296.55,-296.52,-296.55,-296.58,-296.58,-296.61,-296.65,-296.66,-296.65,-296.65,-296.66,-296.67,-296.69,-296.7,-296.7,-296.71,-296.72,-296.72,-296.73,-296.73,-296.73,-296.73,-296.73,-296.73,-296.72,-296.71,-296.7,-296.71,-296.72,-296.74,-296.76,-296.76,-296.75,-296.74,-296.74,-296.75,-296.74,-296.71,-296.7,-296.71,-296.73,-296.74,-296.75,-296.75,-296.75,-296.75,-296.75,-296.74,-296.72,-296.71,-296.71,-296.71,-296.71,-296.72,-296.73,-296.73,-296.74,-296.74,-296.75,-296.77,-296.78,-296.78,-296.78,-296.79,-296.8,-296.81,-296.82,-296.82,-296.83,-296.84,-296.85,-296.85,-296.85,-296.85,-296.85,-296.85,-296.84,-296.84,-296.84,-296.83,-296.83,-296.82,-296.82,-296.82,-296.82,-296.82,-296.81,-296.79,-296.78,-296.8,-296.81,-296.81,-296.8,-296.79,-296.8,-296.82,-296.83,-296.82,-296.83,-296.83,-296.82,-296.84,-296.86,-296.85,-296.84,-296.83,-296.84,-296.82,-296.81,-296.83,-296.83,-296.83,-296.81,-296.79,-296.79,-296.79,-296.79,-296.79,-296.79,-296.8,-296.8,-296.8,-296.79,-296.79,-296.79,-296.79,-296.81,-296.8,-296.77,-296.77,-296.81,-296.83,-296.81,-296.8,-296.8,-296.7,-296.59,-296.53,-296.55,-296.79,-296.96,-296.97,-297,-297.04,-297.04,-297.01,-296.99,-296.96,-296.93,-296.91,-296.89,-296.86,-296.86,-296.87,-296.88,-296.87,-296.85,-296.84,-296.82,-296.77,-296.76,-296.81,-296.83,-296.83,-296.8,-296.76,-296.75,-296.75,-296.74,-296.71,-296.68,-296.69,-296.72,-296.71,-296.68,-296.65,-296.65,-296.64,-296.63,-296.62,-296.61,-296.61,-296.62,-296.64,-296.64,-296.64,-296.63,-296.63,-296.63,-296.62,-296.61,-296.61,-296.59,-296.58,-296.57,-296.58,-296.59,-296.59,-296.61,-296.63,-296.64,-296.64,-296.65,-296.66,-296.68,-296.69,-296.69,-296.7,-296.71,-296.71,-296.71,-296.7,-296.7,-296.71,-296.72,-296.72,-296.72,-296.71,-296.71,-296.71,-296.7,-296.69,-296.69,-296.71,-296.74,-296.76,-296.76,-296.74,-296.73,-296.73,-296.73,-296.72,-296.71,-296.71,-296.72,-296.72,-296.73,-296.72,-296.71,-296.7,-296.71,-296.72,-296.72,-296.72,-296.72,-296.73,-296.73,-296.73,-296.74,-296.75,-296.75,-296.74,-296.74,-296.75,-296.75,-296.75,-296.74,-296.74,-296.76,-296.77,-296.78,-296.8,-296.8,-296.81,-296.82,-296.83,-296.83,-296.83,-296.83,-296.83,-296.84,-296.83,-296.83,-296.83,-296.82,-296.82,-296.82,-296.81,-296.81,-296.8,-296.8,-296.79,-296.78,-296.78,-296.78,-296.78,-296.78,-296.78,-296.77,-296.77,-296.78,-296.78,-296.78,-296.77,-296.77,-296.77,-296.77,-296.77,-296.77,-296.77,-296.77,-296.77,-296.77,-296.79,-296.79,-296.79,-296.79,-296.79,-296.8,-296.8,-296.81,-296.82,-296.82,-296.82,-296.81,-296.81,-296.82,-296.83,-296.83,-296.81,-296.71,-296.58,-296.5,-296.54,-296.8,-296.99,-296.98,-296.99,-297.06,-297.07,-297.02,-297,-296.97,-296.96,-296.95,-296.9,-296.87,-296.87,-296.88,-296.89,-296.88,-296.87,-296.86,-296.84,-296.82,-296.8,-296.81,-296.83,-296.85,-296.84,-296.83,-296.81,-296.8,-296.79,-296.79,-296.78,-296.78,-296.77,-296.78,-296.77,-296.75,-296.73,-296.72,-296.69,-296.67,-296.66,-296.65,-296.65,-296.65,-296.65,-296.66,-296.66,-296.66,-296.66,-296.65,-296.64,-296.64,-296.64,-296.64,-296.65,-296.65,-296.66,-296.67,-296.7,-296.72,-296.73,-296.75,-296.77,-296.77,-296.75,-296.75,-296.76,-296.78,-296.79,-296.79,-296.79,-296.79,-296.79,-296.8,-296.81,-296.82,-296.82,-296.82,-296.82,-296.81,-296.81,-296.81,-296.82,-296.83,-296.83,-296.85,-296.87,-296.87,-296.86,-296.85,-296.86,-296.87,-296.87,-296.85,-296.85,-296.85,-296.85,-296.84,-296.84,-296.84,-296.84,-296.85,-296.84,-296.83,-296.82,-296.81,-296.81,-296.81,-296.82,-296.82,-296.83,-296.84,-296.85,-296.85,-296.85,-296.85,-296.86,-296.86,-296.86,-296.86,-296.87,-296.87,-296.88,-296.88,-296.88,-296.89,-296.89,-296.89,-296.89,-296.89,-296.89,-296.89,-296.89,-296.89,-296.88,-296.88,-296.87,-296.87,-296.86,-296.86,-296.85,-296.84,-296.84,-296.83,-296.84,-296.84,-296.84,-296.84,-296.84,-296.85,-296.86,-296.86,-296.86,-296.87,-296.88,-296.88,-296.88,-296.88,-296.88,-296.88,-296.88,-296.87,-296.86,-296.86,-296.85,-296.85,-296.85,-296.85,-296.84,-296.84,-296.84,-296.85,-296.86,-296.87,-296.89,-296.89,-296.89,-296.89,-296.89,-296.89,-296.89,-296.89,-296.9,-296.9,-296.9,-296.91,-296.91,-296.92,-296.93,-296.93,-296.84,-296.7,-296.61,-296.6,-296.83,-297.09,-297.1,-297.09,-297.15,-297.17,-297.16,-297.12,-297.09,-297.06,-297.05,-297.02,-296.98,-296.96,-296.96,-296.96,-296.96,-296.95,-296.94,-296.92,-296.9,-296.88,-296.88,-296.89,-296.9,-296.9,-296.89,-296.86,-296.84,-296.82,-296.81,-296.8,-296.79,-296.77,-296.75,-296.74,-296.73,-296.72,-296.71,-296.69,-296.68,-296.67,-296.68,-296.68,-296.68,-296.69,-296.68,-296.68,-296.67,-296.66,-296.66,-296.65,-296.65,-296.64,-296.64,-296.64,-296.64,-296.65,-296.67,-296.68,-296.69,-296.7,-296.71,-296.72,-296.74,-296.75,-296.76,-296.77,-296.78,-296.79,-296.8,-296.8,-296.81,-296.81,-296.81,-296.82,-296.82,-296.82,-296.82,-296.81,-296.81,-296.81,-296.81,-296.81,-296.82,-296.84,-296.86,-296.86,-296.86,-296.84,-296.83,-296.83,-296.84,-296.84,-296.84,-296.83,-296.84,-296.85,-296.85,-296.84,-296.83,-296.82,-296.82,-296.82,-296.82,-296.81,-296.79,-296.79,-296.79,-296.8,-296.81,-296.82,-296.82,-296.83,-296.83,-296.83,-296.82,-296.83,-296.83,-296.84,-296.85,-296.85,-296.85,-296.86,-296.87,-296.87,-296.88,-296.88
