2.3244,2.3519,2.3523,2.3545,2.354,2.355,2.3559,2.3641,2.3693,2.3721,2.3705,2.3795,2.3846,2.3926,2.3946,2.4001,2.4011,2.4092,2.4191,2.427,2.4264,2.4333,2.4424,2.4549,2.46,2.4708,2.4737,2.4901,2.5036,2.5131,2.521,2.5333,2.5497,2.5611,2.5739,2.5921,2.6068,2.6239,2.6454,2.6694,2.6868,2.7076,2.7308,2.7579,2.7797,2.7979,2.8139,2.837,2.8582,2.8685,2.8787,2.8824,2.8819,2.8749,2.855,2.8213,2.7768,2.7273,2.6837,2.639,2.5957,2.5538,2.5168,2.4879,2.4669,2.4433,2.4262,2.4114,2.403,2.3967,2.3931,2.3874,2.3788,2.3771,2.3782,2.3799,2.3773,2.372,2.3713,2.3718,2.3748,2.3727,2.3689,2.367,2.3733,2.3712,2.3689,2.3692,2.3691,2.3754,2.3778,2.3766,2.3745,2.3716,2.3756,2.3741,2.3769,2.3727,2.3754,2.3774,2.3841,2.3788,2.373,2.3755,2.3789,2.3788,2.3776,2.377,2.3772,2.3808,2.3829,2.3812,2.3798,2.3743,2.3801,2.3786,2.3817,2.3821,2.3778,2.3779,2.3816,2.3826,2.381,2.3764,2.3797,2.3836,2.3858,2.381,2.3842,2.3847,2.39,2.3915,2.3909,2.3874,2.3878,2.3939,2.3934,2.3993,2.4075,2.4142,2.4199,2.4167,2.4091,2.4116,2.4436,2.4933,2.4967,2.4796,2.4687,2.452,2.4468,2.4451,2.4339,2.4187,2.4015,2.3993,2.3983,2.3944,2.3887,2.3832,2.3883,2.3924,2.3903,2.3888,2.3828,2.3832,2.3822,2.3794,2.3778,2.3728,2.3729,2.379,2.3853,2.3818,2.3802,2.3529,2.2758,2.2319,2.2574,2.4518,2.8751,3.0688,3.3386,3.1711,2.5869,2.2845,2.1557,2.1469,2.2041,2.2673,2.3669,2.4359,2.4492,2.4612,2.4442,2.4562,2.45,2.4694,2.46,2.4744,2.4612,2.473,2.4723,2.4872,2.4854,2.4993,2.4947,2.5064,2.506,2.5158,2.5128,2.5302,2.53,2.5521,2.5471,2.5553,2.5571,2.5747,2.5842,2.5977,2.6023,2.6182,2.6307,2.6476,2.6635,2.6708,2.6813,2.7016,2.7231,2.7372,2.7544,2.7751,2.8039,2.8266,2.846,2.8618,2.8806,2.9,2.9193,2.9369,2.9538,2.9604,2.9716,2.9757,2.9705,2.9523,2.9214,2.8812,2.8371,2.7907,2.745,2.6957,2.6576,2.6178,2.5882,2.5535,2.5285,2.5092,2.5019,2.4896,2.4801,2.4695,2.4665,2.4608,2.4643,2.4612,2.4552,2.4496,2.4569,2.4602,2.4568,2.449,2.4465,2.4428,2.4479,2.4485,2.4475,2.4463,2.4508,2.444,2.4468,2.4379,2.4364,2.4391,2.4431,2.4452,2.4406,2.4315,2.4398,2.4456,2.4471,2.437,2.4345,2.4392,2.4488,2.4429,2.4415,2.4306,2.4331,2.4432,2.443,2.4414,2.437,2.4304,2.4343,2.4379,2.4351,2.4327,2.439,2.4403,2.4422,2.4306,2.4281,2.4237,2.4245,2.4293,2.431,2.4248,2.4246,2.4234,2.4196,2.4183,2.4228,2.4199,2.4281,2.4305,2.4266,2.4254,2.425,2.4279,2.4289,2.4281,2.4355,2.4436,2.4512,2.4629,2.451,2.4449,2.4538,2.4907,2.539,2.545,2.523,2.5095,2.4896,2.4775,2.4657,2.4573,2.4413,2.4383,2.4388,2.4344,2.4305,2.4144,2.4172,2.4293,2.4312,2.4187,2.4154,2.4107,2.4159,2.423,2.4201,2.4177,2.415,2.4212,2.423,2.4236,2.4215,2.4113,2.353,2.2778,2.298,2.4868,2.7863,3.0146,3.2633,3.3501,2.8596,2.5266,2.2102,2.0462,2.088,2.1827,2.2991,2.39,2.463,2.4771,2.4913,2.4653,2.4778,2.4717,2.4966,2.4843,2.5029,2.4913,2.5106,2.5075,2.5121,2.5115,2.5211,2.5231,2.5372,2.5353,2.5406,2.5376,2.5516,2.5605,2.5761,2.5754,2.59,2.602,2.6143,2.6227,2.6232,2.6324,2.6505,2.6659,2.6776,2.6877,2.704,2.7172,2.7369,2.7557,2.7782,2.7952,2.8178,2.8394,2.8591,2.8745,2.8912,2.9135,2.933,2.9545,2.9676,2.9792,2.9839,2.9902,2.9958,2.9854,2.9556,2.9231,2.8866,2.8498,2.8026,2.7567,2.7078,2.6764,2.6456,2.6188,2.5855,2.5606,2.5438,2.5296,2.5165,2.5082,2.5,2.498,2.4958,2.4973,2.4856,2.4825,2.4768,2.4878,2.4843,2.4832,2.4766,2.4775,2.4791,2.4871,2.4823,2.485,2.4861,2.4913,2.4894,2.4925,2.4917,2.4946,2.4959,2.498,2.4965,2.4952,2.4942,2.5047,2.505,2.5057,2.5018,2.4996,2.5013,2.5053,2.5098,2.5033,2.4967,2.5022,2.5048,2.5084,2.5029,2.4994,2.5026,2.5053,2.5081,2.5038,2.5009,2.5011,2.5024,2.5065,2.5034,2.5029,2.5029,2.5116,2.5114,2.5194,2.5228,2.5236,2.5254,2.5243,2.5155,2.5312,2.5704,2.6034,2.5959,2.5776,2.5662,2.5528,2.5486,2.5379,2.5219,2.5091,2.5038,2.5033,2.5057,2.4971,2.4931,2.4886,2.4883,2.4898,2.4909,2.4875,2.482,2.4827,2.4876,2.4862,2.4896,2.4833,2.4817,2.484,2.4882,2.4824,2.4584,2.3757,2.3278,2.4097,2.5309,2.8237,3.0612,3.2985,3.4659,3.0359,2.5135,2.2804,2.2157,2.2784,2.3414,2.4508,2.5148,2.5321,2.5513,2.5396,2.5452,2.5387,2.5496,2.5442,2.5549,2.5472,2.5537,2.557,2.5702,2.5691,2.5775,2.5714,2.5823,2.5867,2.5982,2.594,2.6006,2.6066,2.6244,2.6277,2.6372,2.6459,2.6565,2.6619,2.6715,2.681,2.6923,2.7026,2.7182,2.734,2.7489,2.7599,2.7758,2.7975,2.8203,2.8355,2.8533,2.8764,2.9023,2.9275,2.9451,2.9618,2.9729,2.9908,3.0091,3.0227,3.033,3.035,3.0363,3.0292,3.0059,2.9682,2.9256,2.8829,2.8362,2.7915,2.7479,2.7045,2.6701,2.6476,2.6195,2.6067,2.5862,2.5756,2.5683,2.5606,2.5512,2.5442,2.5398,2.5371,2.537,2.5338,2.5316,2.5276,2.5321,2.5359,2.5281,2.5274,2.5265,2.5348,2.5347,2.5349,2.5354,2.5367,2.5354,2.5406,2.5355,2.5377,2.5346,2.5385,2.5415,2.5439,2.5402,2.5416,2.5432,2.5484,2.5463,2.5439,2.5377,2.5422,2.5433,2.5463,2.5412,2.538,2.5416,2.5449,2.5464,2.5475,2.541,2.5426,2.5426,2.5443,2.5425,2.5403,2.5395,2.5436,2.5456,2.5449,2.5392,2.5364,2.5422,2.5448,2.5434,2.5447,2.541,2.5415,2.545,2.5436,2.5428,2.5403,2.5423,2.5477,2.5475,2.5455,2.5474,2.5509,2.5564,2.5649,2.5674,2.572,2.5727,2.5656,2.5585,2.5767,2.6156,2.6517,2.647,2.6336,2.6153,2.6018,2.5962,2.589,2.5804,2.5608,2.554,2.5477,2.5505,2.5485,2.5459,2.5402,2.5368,2.5355,2.5358,2.5375,2.5317,2.5304,2.5336,2.5368,2.5355,2.5313,2.5309,2.5326,2.5363,2.5348,2.513,2.4341,2.3777,2.3889,2.5548,2.8419,3.0765,3.3098,3.5319,3.175,2.6314,2.3798,2.3022,2.3579,2.3966,2.5115,2.562,2.5885,2.5949,2.5886,2.5926,2.5872,2.5894,2.5947,2.5991,2.602,2.6007,2.6006,2.6068,2.6126,2.6197,2.6197,2.6219,2.6289,2.6385,2.6383,2.6423,2.6484,2.6594,2.6718,2.6794,2.6826,2.6885,2.696,2.7076,2.7185,2.7249,2.7342,2.7469,2.764,2.7801,2.7913,2.8052,2.8229,2.8475,2.8668,2.8852,2.9019,2.9287,2.9542,2.9633,2.9809,2.9981,3.0149,3.0392,3.0585,3.0699,3.0746,3.0799,3.0761,3.067,3.0374,2.9986,2.9524,2.9143,2.8702,2.8229,2.7747,2.7388,2.7057,2.6914,2.6665,2.6396,2.6168,2.6054,2.5942,2.5882,2.5803,2.5699,2.57,2.5689,2.567,2.5626,2.5588,2.5559,2.5576,2.5559,2.554,2.5492,2.5489,2.55,2.5494,2.5474,2.544,2.5437,2.5478,2.5505,2.5509,2.5435,2.5457,2.5491,2.5491,2.5458,2.5435,2.5404,2.5413,2.5439,2.5427,2.5425,2.539,2.5448,2.5475,2.5467,2.5447,2.5424,2.5444,2.5464,2.5463,2.5439,2.5379,2.536,2.5363,2.536,2.5329,2.5284,2.5311,2.5349,2.5371,2.5333,2.5271,2.5306,2.535,2.5333,2.5288,2.5268,2.5253,2.5268,2.5309,2.5292,2.5257,2.5245,2.5286,2.5318,2.5303,2.5256,2.5248,2.5268,2.5303,2.531,2.5273,2.5259,2.5296,2.5288,2.5302,2.5323,2.5429,2.5516,2.5538,2.5482,2.5354,2.5472,2.5876,2.6378,2.6313,2.611,2.5943,2.5887,2.583,2.5704,2.5644,2.5406,2.5289,2.5288,2.5266,2.5189,2.5137,2.5078,2.5118,2.5083,2.5058,2.4993,2.4985,2.4991,2.5034,2.4967,2.4955,2.4947,2.4986,2.4991,2.4977,2.4928,2.4913,2.4557,2.3743,2.345,2.4749,2.7557,3.0137,3.2172,3.4791,3.189,2.6162,2.3438,2.2523,2.2531,2.3128,2.3819,2.4804,2.5387,2.5465,2.5526,2.5382,2.5494,2.5499,2.5553,2.5502,2.5558,2.5528,2.5644,2.5671,2.5743,2.5745,2.586,2.59,2.5996,2.6014,2.6064,2.6056,2.6178,2.6252,2.6365,2.6359,2.6469,2.6558,2.6704,2.6756,2.6883,2.6918,2.7115,2.7219,2.7313,2.7429,2.7566,2.7655,2.7875,2.8039,2.8204,2.8349,2.8589,2.8824,2.9042,2.9187,2.9393,2.9607,2.9816,3.0015,3.0138,3.0309,3.0428,3.0509,3.0475,3.0362,3.0222,2.9907,2.957,2.9186,2.8693,2.8208,2.7759,2.7383,2.6974,2.6616,2.6265,2.6022,2.5843,2.5725,2.5597,2.5478,2.5407,2.5381,2.5302,2.5308,2.5257,2.5241,2.5206,2.5246,2.5186,2.5122,2.5054,2.5072,2.5113,2.5088,2.5051,2.5074,2.5042,2.5108,2.5092,2.5037,2.4995,2.5047,2.5041,2.5094,2.5057,2.5057,2.5008,2.502,2.5024,2.5008,2.4963,2.4979,2.4943,2.4949,2.4938,2.4969,2.4972,2.497,2.4957,2.4909,2.4887,2.4874,2.4855,2.4849,2.4818,2.4775,2.4778,2.4793,2.4818,2.4857,2.477,2.4734,2.4772,2.4764,2.4733,2.4706,2.466,2.4636,2.4687,2.4676,2.4667,2.4649,2.4642,2.4681,2.4656,2.4626,2.4629,2.462,2.4607,2.4592,2.4593,2.4581,2.4598,2.4702,2.4729,2.4756,2.4739,2.4749,2.4777,2.4792,2.4712,2.4681,2.4936,2.5474,2.5612,2.5422,2.5235,2.514,2.5073,2.4979,2.4842,2.4638,2.4526,2.4501,2.4533,2.4474,2.4474,2.4384,2.4408,2.4408,2.4398,2.4406,2.4332,2.4309,2.4338,2.4346,2.4338,2.4285,2.4304,2.4364,2.4355,2.4291,2.4232,2.3735,2.2926,2.2985,2.4766,2.7823,3.0167,3.1173,3.3877,3.239,2.6359,2.2739,2.1105,2.1227,2.2171,2.3161,2.4149,2.4724,2.4994,2.4955,2.4931,2.497,2.5038,2.5116,2.5079,2.5085,2.5101,2.5175,2.526,2.5304,2.5337,2.5362,2.5379,2.5479,2.553,2.5545,2.5564,2.5628,2.5736,2.5854,2.589,2.5955,2.608,2.6174,2.6349,2.6392,2.6464,2.6565,2.6618,2.6756,2.6917,2.7082,2.7241,2.7478,2.7732,2.7836,2.7977,2.8089,2.8291,2.8619,2.8832,2.8991,2.9162,2.9311,2.9431,2.9637,2.9779,2.985,2.9907,2.9983,2.9834,2.9667,2.9417,2.9008,2.86,2.8078,2.762,2.7182,2.6755,2.6449,2.616,2.5859,2.5588,2.5358,2.5246,2.5142,2.5061,2.4931,2.4846,2.4823,2.482,2.4804,2.4759,2.4728,2.4716,2.4681,2.4634,2.4634,2.4669,2.4675,2.4619,2.4593,2.4592,2.4582,2.4648,2.4723,2.4761,2.48,2.478,2.4803,2.48,2.4816,2.4805,2.4731,2.4735,2.4815,2.4824,2.4795,2.4775,2.4744,2.4792,2.477,2.4742,2.4688,2.4698,2.4715,2.4705,2.4716,2.4677,2.4657,2.4666,2.4665,2.4637,2.4601,2.4631,2.4639,2.4647,2.4582,2.4507,2.4504,2.4605,2.4621,2.4638,2.4632,2.4621,2.4612,2.4575,2.4579,2.4499,2.451,2.4626,2.4759,2.4794,2.4777,2.4703,2.4614,2.4759,2.5154,2.5527,2.5426,2.5288,2.5243,2.5153,2.5031,2.4932,2.4825,2.4638,2.463,2.4585,2.4511,2.4425,2.4471,2.4523,2.4469,2.4401,2.4387,2.4421,2.4433,2.4443,2.442,2.4414,2.4408,2.4429,2.4424,2.4393,2.4363,2.438,2.4418,2.4039,2.3202,2.291,2.4277,2.7285,2.9943,3.2035,3.4292,3.1074,2.5114,2.2368,2.1511,2.1006,2.183,2.2866,2.3955,2.4666,2.486,2.4983,2.4908,2.4994,2.4928,2.4945,2.496,2.5086,2.5075,2.5154,2.516,2.5272,2.5282,2.5375,2.5399,2.5494,2.5471,2.5612,2.566,2.5723,2.5717,2.5812,2.5885,2.6022,2.611,2.6178,2.6222,2.6385,2.6518,2.6657,2.6728,2.6876,2.7013,2.7122,2.7293,2.7484,2.7617,2.783,2.8067,2.8276,2.8457,2.8618,2.8821,2.9061,2.927,2.9445,2.9593,2.9755,2.994,3.0058,3.0055,2.9953,2.9882,2.9657,2.9354,2.8952,2.8485,2.8042,2.7638,2.7286,2.6839,2.6448,2.6133,2.5871,2.575,2.5572,2.5455,2.5332,2.5277,2.5282,2.5201,2.5164,2.5099,2.5082,2.5125,2.5158,2.5151,2.5123,2.5079,2.504,2.5073,2.5049,2.5097,2.5107,2.5145,2.5077,2.5141,2.5048,2.5122,2.5182,2.5194,2.5192,2.513,2.5126,2.5172,2.5183,2.5177,2.5154,2.5139,2.5243,2.526,2.5189,2.5153,2.5111,2.5104,2.5132,2.5172,2.51,2.5106,2.5102,2.5145,2.5146,2.5117,2.5018,2.5024,2.5071,2.5085,2.5036,2.4994,2.4999,2.5008,2.5005,2.5004,2.4933,2.4945,2.4928,2.4955,2.4962,2.4922,2.4955,2.5002,2.5094,2.5141,2.513,2.5143,2.5079,2.5099,2.5147,2.5336,2.5815,2.5992,2.584,2.5686,2.5557,2.5387,2.5317,2.5246,2.5122,2.5091,2.5051,2.5008,2.5031,2.496,2.4892,2.4791,2.4798,2.486,2.4849,2.4855,2.4807,2.4839,2.4896,2.4877,2.4823,2.4748,2.4752,2.4824,2.4885,2.4865,2.4589,2.3797,2.3349,2.4162,2.6758,2.9601,3.1458,3.4321,3.294,2.6984,2.3439,2.1737,2.1835,2.2815,2.3868,2.4843,2.5297,2.5478,2.5493,2.548,2.5472,2.5443,2.5488,2.5554,2.5577,2.5666,2.5663,2.5742,2.5817,2.5853,2.5878,2.59,2.5948,2.6021,2.6138,2.6171,2.6241,2.6281,2.6329,2.6433,2.6479,2.6468,2.6575,2.6731,2.6839,2.6947,2.704,2.7197,2.7357,2.7491,2.7652,2.7798,2.7932,2.8091,2.8351,2.8575,2.8675,2.8804,2.9038,2.9243,2.9466,2.966,2.9812,3.0018,3.0278,3.0417,3.0537,3.0503,3.0455,3.0362,3.0116,2.9748,2.9338,2.8915,2.8554,2.8336,2.7825,2.7376,2.6978,2.6705,2.6446,2.6298,2.6092,2.592,2.5878,2.578,2.5742,2.5651,2.556,2.5552,2.5554,2.5519,2.5484,2.5489,2.5514,2.5531,2.5504,2.5422,2.5408,2.5448,2.5519,2.5534,2.5568,2.5427,2.5467,2.5536,2.5515,2.5494,2.5521,2.5539,2.5568,2.5549,2.5573,2.559,2.5604,2.5553,2.5568,2.5588,2.5545,2.5538,2.5629,2.5604,2.5539,2.5511,2.5487,2.549,2.5549,2.558,2.5516,2.5513,2.5535,2.5533,2.5508,2.5491,2.5469,2.5454,2.5481,2.5475,2.5434,2.5513,2.5594,2.572,2.5699,2.5632,2.5549,2.5573,2.5864,2.6305,2.6483,2.6301,2.612,2.6036,2.5991,2.5903,2.5751,2.5602,2.5469,2.5526,2.5439,2.5383,2.5335,2.5334,2.5332,2.5334,2.5287,2.5322,2.5303,2.5326,2.5265,2.5196,2.5207,2.5253,2.5328,2.5297,2.5221,2.5213,2.5255,2.5118,2.434,2.382,2.4533,2.709,3.0141,3.2094,3.4873,3.3678,2.8013,2.4388,2.2704,2.2476,2.323,2.3594,2.4736,2.5526,2.5813,2.5963,2.5906,2.6008,2.5995,2.5991,2.5967,2.6027,2.6054,2.6134,2.6098,2.6157,2.6241,2.6386,2.638,2.6448,2.6426,2.6603,2.665,2.6704,2.668,2.673,2.6739,2.6877,2.7091,2.7128,2.7269,2.7301,2.7366,2.7506,2.7706,2.784,2.7927,2.8185,2.8378,2.849,2.8586,2.8743,2.8945,2.9199,2.9462,2.9701,2.9871,3.0037,3.0213,3.0392,3.0623,3.0773,3.0947,3.1117,3.1135,3.1054,3.0761,3.0478,3.0342,2.9973,2.9554,2.9029,2.854,2.8151,2.7866,2.7504,2.7147,2.6969,2.6702,2.65,2.6371,2.6286,2.6253,2.6201,2.6183,2.6073,2.5998,2.5977,2.5985,2.6039,2.6071,2.5951,2.5918,2.6011,2.5961,2.592,2.5943,2.5923,2.593,2.5914,2.5955,2.5962,2.5897,2.5917,2.5963,2.5914,2.5867,2.5865,2.5898,2.5919,2.6038,2.5869,2.5893,2.5833,2.5906,2.5965,2.5933,2.5967,2.5939,2.602,2.6041,2.5902,2.5885,2.5852,2.5903,2.5945,2.5932,2.596,2.5859,2.5884,2.5944,2.5904,2.5933,2.5873,2.5871,2.5897,2.5918,2.5868,2.5862,2.5953,2.6044,2.6107,2.6144,2.6131,2.612,2.6154,2.6095,2.6151,2.6496,2.6767,2.6753,2.6635,2.6557,2.6369,2.6221,2.6193,2.6081,2.5949,2.5886,2.5878,2.5889,2.5888,2.5762,2.5784,2.5835,2.5857,2.5898,2.5868,2.5746,2.5832,2.5778,2.5829,2.5912,2.5851,2.5924,2.592,2.5921,2.5899,2.5571,2.4641,2.4303,2.5524,2.838,3.1127,3.1982,3.452,3.5035,2.998,2.5081,2.3103,2.2612,2.3368,2.4454,2.5496,2.6196,2.6358,2.652,2.6451,2.6544,2.6528,2.6592,2.6631,2.6699,2.6663,2.6745,2.666,2.6685,2.6784,2.6812,2.6782,2.6818,2.6865,2.6959,2.7007,2.7091,2.7017,2.7108,2.7304,2.7366,2.7377,2.7474,2.7556,2.7666,2.7732,2.7882,2.7926,2.8036,2.8166,2.8311,2.8506,2.8658,2.8872,2.9038,2.9184,2.9339,2.9512,2.9785,3.0075,3.0222,3.049,3.0603,3.0838,3.0909,3.1082,3.1147,3.1068,3.1045,3.1058,3.0935,3.0561,3.0118,2.9634,2.9203,2.8816,2.8375,2.7964,2.7606,2.7343,2.7129,2.6968,2.6788,2.6699,2.6565,2.6531,2.6492,2.6469,2.6347,2.625,2.6258,2.6162,2.6139,2.6164,2.6089,2.6172,2.6117,2.6132,2.6067,2.6087,2.61,2.6124,2.6132,2.6094,2.609,2.6173,2.6111,2.6194,2.6194,2.6182,2.6259,2.6335,2.6348,2.6293,2.6277,2.6284,2.6309,2.6264,2.6275,2.6329,2.631,2.6327,2.6285,2.6221,2.6163,2.6173,2.627,2.6283,2.6243,2.6177,2.6203,2.6252,2.6351,2.6387,2.6395,2.6426,2.6521,2.6602,2.6831,2.7122,2.712,2.7048,2.6944,2.68,2.6678,2.649,2.6464,2.6235,2.6258,2.6151,2.6108,2.6091,2.6061,2.6015,2.6,2.5951,2.5949,2.6009,2.5934,2.5928,2.5888,2.5956,2.5969,2.5948,2.5937,2.591,2.5932,2.5971,2.598,2.5616,2.468,2.4444,2.5879,2.8712,3.1387,3.3719,3.6244,3.3171,2.7535,2.6022,2.4214,2.3666,2.4409,2.4995,2.5965,2.6411,2.6634,2.6645,2.6656,2.658,2.6603,2.6608,2.6724,2.6756,2.6793,2.6754,2.6825,2.6886,2.693,2.6918,2.6963,2.6984,2.7094,2.7149,2.7202,2.7261,2.7292,2.7397,2.7538,2.76,2.769,2.7716,2.7821,2.7946,2.8101,2.8182,2.8268,2.841,2.8493,2.8705,2.8835,2.8989,2.9163,2.94,2.9617,2.9781,2.9975,3.0161,3.0423,3.0634,3.0833,3.0987,3.1128,3.1278,3.142,3.1441,3.1386,3.1308,3.1135,3.0817,3.045,2.9958,2.9465,2.9057,2.867,2.8247,2.7903,2.7495,2.7281,2.7153,2.6976,2.6818,2.668,2.6635,2.661,2.6584,2.6543,2.6441,2.6389,2.6451,2.6444,2.6417,2.6362,2.6347,2.6367,2.6348,2.6366,2.6352,2.6289,2.6356,2.636,2.6342,2.6359,2.6391,2.6389,2.6412,2.6366,2.6348,2.6336,2.6343,2.6394,2.6372,2.6376,2.636,2.6358,2.6395,2.6397,2.6386,2.6321,2.6377,2.6373,2.6382,2.6349,2.6343,2.632,2.6349,2.6338,2.6317,2.6279,2.6291,2.6324,2.6308,2.6317,2.6296,2.6307,2.6435,2.654,2.6509,2.6432,2.6413,2.6457,2.6751,2.7103,2.7206,2.7091,2.6955,2.6837,2.6768,2.66,2.6489,2.6372,2.6214,2.6147,2.6082,2.6003,2.6024,2.5986,2.5986,2.5935,2.5888,2.5893,2.5893,2.5892,2.5884,2.5821,2.5827,2.5843,2.5837,2.5805,2.5756,2.5765,2.5794,2.5507,2.461,2.4132,2.5176,2.7882,3.0851,3.3047,3.6036,3.4095,2.8685,2.6943,2.4853,2.4119,2.4502,2.4857,2.5926,2.6289,2.6493,2.6448,2.6468,2.6478,2.6484,2.648,2.6491,2.6526,2.6586,2.6635,2.6651,2.6659,2.6692,2.6737,2.6787,2.683,2.6837,2.6876,2.699,2.7041,2.711,2.7113,2.7199,2.7331,2.743,2.754,2.7578,2.772,2.7871,2.7953,2.8029,2.8142,2.8177,2.8399,2.859,2.8741,2.8928,2.9051,2.9289,2.9519,2.9746,2.9943,3.011,3.0339,3.0552,3.071,3.0867,3.105,3.1199,3.1326,3.1272,3.1202,3.099,3.0733,3.044,3.0031,2.9491,2.9,2.857,2.8202,2.7788,2.7448,2.7114,2.6904,2.6745,2.6602,2.6494,2.6358,2.6287,2.6246,2.6265,2.6243,2.6193,2.6137,2.6147,2.6205,2.6174,2.6185,2.6163,2.6169,2.6175,2.6162,2.6162,2.6085,2.6092,2.6143,2.6113,2.6104,2.6085,2.6086,2.6096,2.6109,2.607,2.6047,2.6044,2.6064,2.6077,2.6049,2.6013,2.599,2.6071,2.6076,2.6032,2.6028,2.5988,2.6025,2.6047,2.5946,2.5953,2.5957,2.5969,2.5979,2.5965,2.5938,2.5914,2.5994,2.61,2.6154,2.6128,2.6149,2.6142,2.6131,2.6335,2.6684,2.6941,2.6814,2.6673,2.6525,2.6445,2.6295,2.6193,2.6083,2.5921,2.5864,2.575,2.5755,2.5744,2.5734,2.5624,2.5602,2.5613,2.5619,2.5618,2.5555,2.5511,2.5518,2.5587,2.5536,2.5553,2.5534,2.5518,2.55,2.5508,2.5262,2.4415,2.3866,2.4637,2.7242,3.0258,3.2343,3.5325,3.415,2.8664,2.5212,2.3652,2.3431,2.3749,2.4136,2.5278,2.5732,2.5934,2.6059,2.5971,2.6035,2.5997,2.599,2.6006,2.6122,2.6068,2.6138,2.6109,2.6208,2.6259,2.6297,2.6295,2.6361,2.6371,2.6457,2.6536,2.6591,2.66,2.6695,2.6797,2.6881,2.6929,2.6984,2.7076,2.7214,2.7331,2.7452,2.7522,2.7644,2.7792,2.801,2.8132,2.8231,2.8382,2.8601,2.8871,2.9077,2.9288,2.95,2.9739,2.9992,3.0153,3.0366,3.0504,3.0697,3.0889,3.0924,3.0944,3.079,3.0544,3.0261,3.0079,2.9589,2.908,2.8624,2.819,2.7819,2.739,2.7055,2.6738,2.6549,2.6373,2.6208,2.6068,2.6001,2.5964,2.5939,2.5872,2.5819,2.5776,2.578,2.5803,2.5751,2.5719,2.5683,2.5711,2.5722,2.5695,2.565,2.5643,2.5636,2.5635,2.5654,2.5622,2.5562,2.5636,2.5644,2.5637,2.5574,2.5557,2.556,2.5579,2.5577,2.5585,2.5528,2.5541,2.5563,2.5546,2.5528,2.5487,2.5476,2.5467,2.5477,2.5466,2.5457,2.5471,2.5579,2.5656,2.5707,2.5708,2.57,2.5664,2.567,2.5928,2.6283,2.6504,2.6359,2.6223,2.6083,2.592,2.5775,2.5714,2.5542,2.5453,2.5361,2.5276,2.5255,2.5243,2.5242,2.5205,2.515,2.5135,2.5144,2.5116,2.5079,2.5048,2.5012,2.506,2.5069,2.5051,2.5047,2.504,2.5092,2.5069,2.4612,2.3729,2.3556,2.5173,2.5267,2.8055,3.1932,3.4707,3.411,2.8682,2.4992,2.3206,2.284,2.3339,2.4235,2.5048,2.5571,2.5615,2.5669,2.5619,2.5683,2.5626,2.5644,2.5624,2.5764,2.5759,2.5832,2.5804,2.5894,2.5948,2.6017,2.6015,2.6097,2.6135,2.6256,2.6274,2.6353,2.6366,2.646,2.6535,2.6665,2.6681,2.6715,2.679,2.6951,2.7079,2.7171,2.7292,2.7418,2.7562,2.7752,2.7932,2.8122,2.828,2.8524,2.8769,2.8994,2.919,2.9394,2.9661,2.9888,2.9997,3.0179,3.0371,3.0511,3.0698,3.0743,3.0741,3.0566,3.0355,3.0002,2.9581,2.9065,2.8599,2.8139,2.7722,2.7303,2.6944,2.6571,2.6331,2.624,2.607,2.5936,2.58,2.568,2.5679,2.5644,2.5631,2.5521,2.5523,2.548,2.5506,2.5446,2.5434,2.5392,2.5425,2.5459,2.5411,2.5378,2.5371,2.5387,2.5419,2.5374,2.5374,2.5366,2.5412,2.5426,2.5442,2.5409,2.5388,2.5414,2.5448,2.5429,2.5419,2.5354,2.5365,2.5391,2.5423,2.5384,2.5372,2.5353,2.5382,2.5412,2.5367,2.5363,2.5333,2.5333,2.5371,2.5324,2.5308,2.528,2.5352,2.5357,2.5349,2.5311,2.5344,2.5375,2.5523,2.5548,2.558,2.556,2.557,2.5523,2.5582,2.5835,2.6217,2.633,2.6152,2.6025,2.588,2.5783,2.5653,2.5611,2.5378,2.5329,2.5204,2.521,2.5227,2.5196,2.5165,2.512,2.5094,2.5135,2.5128,2.514,2.5086,2.5065,2.5115,2.5122,2.5088,2.5083,2.5081,2.5114,2.5123,2.4992,2.4273,2.3767,2.3551,2.4922,2.7838,3.0508,3.27,3.5196,3.2325,2.6675,2.4065,2.3045,2.3342,2.3688,2.4882,2.5439,2.5734,2.5803,2.5804,2.5788,2.5751,2.5751,2.577,2.5827,2.5863,2.5887,2.5915,2.5932,2.6024,2.6085,2.616,2.6151,2.6229,2.6301,2.6384,2.6439,2.6445,2.6556,2.6661,2.6746,2.6776,2.6856,2.693,2.709,2.7212,2.7324,2.742,2.7533,2.7695,2.791,2.8069,2.8237,2.837,2.8581,2.8821,2.9069,2.9256,2.9464,2.9701,2.9853,3.0062,3.0296,3.0486,3.0599,3.0844,3.1071,3.109,3.1106,3.0991,3.0848,3.051,3.0101,2.9573,2.9157,2.869,2.8282,2.7834,2.7487,2.7282,2.7069,2.6845,2.6631,2.6419,2.6314,2.6212,2.6239,2.6134,2.6083,2.6005,2.6029,2.6046,2.6032,2.5961,2.5947,2.5934,2.5956,2.5933,2.5917,2.588,2.5877,2.5943,2.5942,2.5943,2.5899,2.5875,2.5914,2.5944,2.5882,2.5857,2.5855,2.592,2.5936,2.5917,2.5891,2.5872,2.5919,2.5935,2.5922,2.589,2.5859,2.5888,2.5879,2.5901,2.5839,2.5805,2.5814,2.5787,2.5779,2.5792,2.5779,2.5791,2.5802,2.5798,2.5778,2.5765,2.5734,2.5725,2.5716,2.57,2.5676,2.5729,2.5739,2.5743,2.5666,2.5664,2.5679,2.5703,2.5685,2.5696,2.5694,2.5713,2.5687,2.5703,2.5694,2.5654,2.5667,2.5694,2.5747,2.5703,2.5669,2.5651,2.5637,2.5722,2.572,2.5722,2.5717,2.5773,2.5761,2.5684,2.5576,2.558,2.5626,2.5647,2.5709,2.579,2.5795,2.578,2.5857,2.5812,2.5808,2.6016,2.6486,2.6697,2.6552,2.6371,2.6261,2.618,2.6069,2.6001,2.5773,2.5652,2.5629,2.5681,2.5678,2.5619,2.5617,2.5522,2.5521,2.5526,2.5475,2.5472,2.5475,2.5461,2.55,2.5504,2.5486,2.5497,2.5517,2.5502,2.543,2.5334,2.4763,2.3953,2.381,2.4794,2.7494,3.0321,3.238,3.5358,3.334,2.7394,2.4261,2.292,2.3175,2.3847,2.4822,2.559,2.5925,2.6105,2.602,2.6004,2.5994,2.6026,2.6049,2.6146,2.6156,2.6152,2.6207,2.628,2.6348,2.6417,2.645,2.6462,2.6584,2.6596,2.6664,2.6739,2.6788,2.69,2.6982,2.707,2.7146,2.7174,2.7298,2.7455,2.7482,2.757,2.7624,2.781,2.7922,2.806,2.8146,2.8299,2.8516,2.8775,2.8979,2.9126,2.9242,2.9462,2.9679,2.9842,2.994,3.0095,3.0314,3.0514,3.0706,3.0766,3.0888,3.1034,3.1197,3.111,3.0903,3.0615,3.027,2.9859,2.946,2.9062,2.8575,2.8146,2.7786,2.7624,2.7349,2.6985,2.6763,2.6518,2.6455,2.629,2.6181,2.6036,2.5988,2.6017,2.5991,2.591,2.5866,2.5918,2.5922,2.5914,2.5819,2.5709,2.5688,2.5765,2.5765,2.5753,2.5722,2.5756,2.5731,2.5749,2.5793,2.5813,2.5777,2.5832,2.5838,2.5795,2.578,2.5752,2.5792,2.5782,2.5742,2.5689,2.564,2.5676,2.5725,2.5667,2.5628,2.5636,2.5653,2.5637,2.5582,2.556,2.5544,2.5529,2.5572,2.5491,2.5431,2.5421,2.5405,2.5408,2.5426,2.5437,2.541,2.537,2.5406,2.5389,2.5393,2.537,2.5419,2.5585,2.5684,2.5647,2.5603,2.5527,2.552,2.5682,2.6084,2.63,2.6153,2.6029,2.6035,2.5905,2.5804,2.5643,2.5477,2.5435,2.5357,2.5291,2.5241,2.5238,2.5195,2.5167,2.5117,2.5081,2.5118,2.5132,2.5081,2.506,2.5069,2.5043,2.5129,2.514,2.5068,2.5059,2.5076,2.5152,2.5094,2.443,2.3605,2.3774,2.579,2.894,3.1204,3.3749,3.4199,2.9289,2.4382,2.2427,2.1805,2.1976,2.3003,2.399,2.4938,2.5462,2.5661,2.5717,2.5712,2.5682,2.5642,2.5693,2.5689,2.5818,2.5817,2.5858,2.5878,2.5955,2.5971,2.6088,2.609,2.6119,2.6144,2.6258,2.6346,2.6366,2.6381,2.6458,2.6537,2.6636,2.6716,2.6854,2.6948,2.7109,2.7208,2.7297,2.7344,2.7468,2.763,2.7766,2.7932,2.8102,2.8235,2.8505,2.8695,2.8917,2.9031,2.9208,2.9448,2.968,2.9856,2.9982,3.0119,3.0293,3.0419,3.0472,3.043,3.0341,3.0259,3.001,2.9627,2.9165,2.8671,2.8208,2.7823,2.7468,2.7104,2.6786,2.6518,2.6302,2.6109,2.5978,2.5801,2.5735,2.5652,2.562,2.5526,2.5496,2.5434,2.5399,2.5454,2.5424,2.543,2.5379,2.543,2.5405,2.5407,2.5356,2.5366,2.5387,2.5428,2.545,2.5419,2.5368,2.542,2.5466,2.5457,2.5428,2.5421,2.5402,2.5473,2.5459,2.5483,2.5462,2.5478,2.5494,2.5497,2.546,2.5401,2.5423,2.5435,2.5436,2.5404,2.5311,2.5343,2.5399,2.539,2.5327,2.5289,2.5232,2.5267,2.5265,2.5254,2.5226,2.524,2.5215,2.5235,2.5256,2.5192,2.5187,2.5234,2.5307,2.5407,2.5459,2.5456,2.5452,2.5462,2.5378,2.552,2.5883,2.6196,2.6155,2.5958,2.5813,2.5656,2.5569,2.5533,2.5383,2.522,2.5166,2.5108,2.5139,2.5102,2.5079,2.5059,2.5004,2.5006,2.5026,2.5017,2.4993,2.5006,2.4994,2.5025,2.502,2.4978,2.4974,2.4992,2.5034,2.4994,2.4723,2.3883,2.3346,2.4191,2.6738,2.8343,3.0583,3.3353,3.4976,3.1021,2.5905,2.3776,2.2914,2.3514,2.3788,2.4941,2.5312,2.5644,2.5622,2.5585,2.5551,2.5529,2.5534,2.5619,2.5596,2.5659,2.563,2.5721,2.5746,2.584,2.584,2.5859,2.5874,2.5954,2.5993,2.606,2.6073,2.6118,2.6222,2.6314,2.6414,2.6458,2.6536,2.6634,2.6749,2.687,2.697,2.705,2.7174,2.7358,2.7473,2.7641,2.7735,2.7897,2.8099,2.8331,2.8524,2.8733,2.8952,2.9189,2.9436,2.9584,2.9695,2.9808,3.0073,3.0194,3.0299,3.0362,3.0394,3.0297,3.0089,2.977,2.937,2.8898,2.85,2.8025,2.7617,2.7181,2.689,2.6605,2.6389,2.6097,2.6004,2.5861,2.5763,2.5699,2.5651,2.5505,2.5449,2.5426,2.5401,2.538,2.537,2.5281,2.5331,2.532,2.5354,2.5298,2.5307,2.5318,2.5317,2.5314,2.5291,2.5284,2.5277,2.5321,2.5333,2.5295,2.5272,2.5293,2.5329,2.5346,2.5354,2.5327,2.531,2.5336,2.5342,2.5309,2.5318,2.5315,2.5341,2.5316,2.5354,2.5313,2.5288,2.5302,2.5352,2.5332,2.5332,2.5301,2.5352,2.5344,2.5371,2.533,2.5285,2.5325,2.5359,2.5326,2.5265,2.5241,2.5269,2.5266,2.5279,2.5247,2.5244,2.5233,2.5258,2.5286,2.5246,2.5182,2.5154,2.5158,2.5175,2.5151,2.517,2.5281,2.5338,2.5373,2.5261,2.5216,2.5161,2.5433,2.597,2.6087,2.5907,2.5752,2.5592,2.5536,2.542,2.5296,2.5119,2.5053,2.5045,2.5003,2.4956,2.4904,2.4859,2.4882,2.486,2.4833,2.4803,2.4761,2.4786,2.4812,2.4751,2.4761,2.4749,2.4762,2.4747,2.4734,2.467,2.4649,2.431,2.3456,2.3166,2.4559,2.7381,2.8949,3.0836,3.3812,3.3826,2.8809,2.474,2.3161,2.2774,2.3097,2.3237,2.4788,2.5176,2.5342,2.5214,2.5196,2.5237,2.5314,2.526,2.5237,2.5224,2.5273,2.5307,2.5405,2.5415,2.545,2.5522,2.5571,2.5605,2.5655,2.5663,2.5728,2.5828,2.594,2.5993,2.6041,2.6141,2.6242,2.6347,2.6387,2.6443,2.6545,2.6674,2.6844,2.6993,2.7094,2.7193,2.7345,2.7589,2.7749,2.7923,2.8098,2.8355,2.8587,2.8785,2.8988,2.9146,2.9362,2.9606,2.9687,2.9841,2.9956,3.0066,3.0173,3.019,3.0072,2.9868,2.9564,2.9178,2.8764,2.8285,2.7795,2.7346,2.7007,2.6637,2.6297,2.5997,2.5791,2.5719,2.556,2.5424,2.5304,2.5204,2.5136,2.5111,2.508,2.5058,2.499,2.5025,2.5057,2.5043,2.5005,2.4965,2.4982,2.5047,2.4975,2.4969,2.4957,2.4944,2.4979,2.501,2.4979,2.4954,2.4937,2.4977,2.4953,2.4922,2.4851,2.4881,2.491,2.4885,2.4868,2.4866,2.4838,2.4874,2.4848,2.4848,2.48,2.4768,2.4764,2.4813,2.4727,2.4716,2.4676,2.4712,2.4687,2.4643,2.462,2.4582,2.46,2.4652,2.4675,2.4597,2.4605,2.4617,2.4609,2.4615,2.4567,2.4562,2.4584,2.4617,2.4647,2.4603,2.4561,2.4561,2.4598,2.462,2.4572,2.4551,2.4548,2.4564,2.4555,2.4519,2.4495,2.4503,2.4528,2.4564,2.4561,2.4535,2.4526,2.4553,2.4587,2.4551,2.4551,2.4635,2.4767,2.4762,2.4721,2.4617,2.4622,2.4922,2.5408,2.5593,2.5425,2.5314,2.5198,2.5102,2.5009,2.4915,2.4723,2.4591,2.46,2.455,2.4485,2.4416,2.441,2.4412,2.4423,2.437,2.4331,2.4307,2.4362,2.4389,2.4356,2.4295,2.4297,2.4327,2.4317,2.4321,2.4285,2.4287,2.4102,2.3314,2.2747,2.3555,2.6186,2.9088,3.099,3.3899,3.2445,2.676,2.3638,2.2347,2.207,2.253,2.3033,2.4134,2.4672,2.479,2.488,2.4725,2.4842,2.4785,2.491,2.4843,2.4874,2.4911,2.4993,2.5027,2.5091,2.5097,2.5194,2.5234,2.5327,2.5344,2.5362,2.5436,2.5545,2.5553,2.563,2.5678,2.5764,2.5874,2.6017,2.6082,2.6169,2.6203,2.635,2.6528,2.6659,2.6742,2.6806,2.6974,2.7173,2.731,2.7465,2.7666,2.7864,2.8102,2.8273,2.848,2.864,2.8834,2.905,2.9235,2.9364,2.9474,2.9654,2.9778,2.9785,2.9746,2.9573,2.9336,2.9028,2.8621,2.8194,2.7729,2.7301,2.6931,2.6552,2.6195,2.5864,2.5573,2.5379,2.5234,2.5026,2.4884,2.4828,2.4761,2.4755,2.4741,2.4631,2.4554,2.4545,2.4547,2.4535,2.4546,2.4505,2.4533,2.4515,2.4478,2.4439,2.4423,2.4505,2.4526,2.4501,2.4462,2.439,2.4421,2.4387,2.4392,2.4371,2.4368,2.4361,2.4417,2.4418,2.4385,2.4352,2.4333,2.4339,2.4317,2.4279,2.4256,2.4304,2.4323,2.4327,2.4315,2.4267,2.4231,2.4226,2.4236,2.4217,2.4191,2.4124,2.4133,2.4165,2.4162,2.4123,2.4126,2.4123,2.4134,2.4071,2.4034,2.3986,2.4051,2.4131,2.4075,2.4058,2.4036,2.401,2.4034,2.4033,2.4039,2.3992,2.4006,2.402,2.4029,2.3994,2.3978,2.3976,2.4038,2.4043,2.3969,2.3916,2.3934,2.3985,2.3929,2.3949,2.3946,2.3923,2.3931,2.3953,2.3993,2.4024,2.4108,2.4141,2.4103,2.4015,2.4089,2.4332,2.4848,2.4903,2.4777,2.4577,2.4412,2.4357,2.4316,2.4205,2.4008,2.391,2.3853,2.3873,2.3837,2.3829,2.3607,2.361,2.3686,2.3732,2.3735,2.3683,2.3655,2.3592,2.3583,2.3611,2.3625,2.3648,2.3655,2.3682,2.3582,2.3548,2.3056,2.2219,2.2118,2.3701,2.6738,2.9162,3.1469,3.3379,2.9432,2.3701,2.1296,2.0315,2.0914,2.1962,2.2463,2.3472,2.4034,2.4278,2.4324,2.4268,2.4271,2.4249,2.4256,2.4278,2.4367,2.4371,2.4496,2.4498,2.457,2.4629,2.4714,2.477,2.483,2.4808,2.4819,2.4849,2.491,2.4984,2.5105,2.5214,2.528,2.5292,2.5465,2.5571,2.5682,2.5767,2.592,2.6094,2.617,2.6311,2.6412,2.6556,2.6784,2.6913,2.7062,2.7278,2.7468,2.7661,2.7866,2.8107,2.8296,2.8443,2.862,2.8742,2.8928,2.9063,2.9204,2.9267,2.9269,2.9209,2.9016,2.8741,2.8559,2.8234,2.7794,2.7356,2.6891,2.6456,2.6114,2.5827,2.5492,2.5213,2.5027,2.4927,2.4812,2.4689,2.4578,2.4543,2.4494,2.4439,2.4361,2.4357,2.4298,2.4319,2.4364,2.4291,2.425,2.4257,2.4277,2.4335,2.4341,2.4338,2.4302,2.431,2.4374,2.4379,2.4376,2.4355,2.4372,2.4401,2.4404,2.4384,2.4366,2.4358,2.4403,2.4407,2.4393,2.439,2.4352,2.4401,2.437,2.4364,2.434,2.4335,2.4344,2.433,2.4308,2.4279,2.4263,2.4276,2.4316,2.4318,2.4247,2.427,2.4281,2.4286,2.4305,2.4269,2.4207,2.4252,2.4309,2.4326,2.4264,2.4246,2.4323,2.4336,2.4394,2.4429,2.444,2.4403,2.4432,2.439,2.4355,2.4539,2.4883,2.5309,2.5159,2.4971,2.4806,2.4675,2.4644,2.4527,2.4366,2.4186,2.4147,2.4198,2.4159,2.4078,2.4055,2.4022,2.4022,2.4033,2.4067,2.4043,2.4035,2.3971,2.4005,2.3956,2.3947,2.3906,2.396,2.4003,2.3996,2.3969,2.3695,2.2938,2.2491,2.2724,2.4566,2.7623,2.9872,3.2417,3.3723,2.9282,2.4071,2.1965,2.1182,2.1845,2.2549,2.3609,2.4276,2.4597,2.4696,2.4598,2.4598,2.4593,2.4647,2.4654,2.4692,2.4692,2.474,2.4797,2.4907,2.4918,2.496,2.4977,2.5024,2.512,2.5183,2.5193,2.526,2.5367,2.5438,2.5492,2.5559,2.5653,2.5665,2.579,2.5936,2.5997,2.6099,2.6189,2.6374,2.6533,2.6664,2.678,2.6968,2.7194,2.7389,2.7538,2.7705,2.7925,2.8164,2.8397,2.8593,2.8667,2.8854,2.9085,2.9246,2.9388,2.9486,2.9538,2.9534,2.9478,2.926,2.8938,2.856,2.8133,2.7737,2.7259,2.6814,2.6386,2.6047,2.5777,2.564,2.5417,2.5177,2.5022,2.4914,2.4867,2.4757,2.466,2.4598,2.459,2.4585,2.4569,2.4512,2.4497,2.4496,2.4514,2.4498,2.4456,2.4443,2.4459,2.4449,2.4431,2.4406,2.438,2.4386,2.4445,2.4435,2.4409,2.4432,2.4418,2.444,2.4464,2.4431,2.443,2.4419,2.4422,2.4446,2.4431,2.4387,2.4406,2.443,2.4443,2.4415,2.4408,2.4366,2.4377,2.4358,2.4329,2.431,2.4268,2.4304,2.4332,2.4289,2.4258,2.426,2.4284,2.4298,2.4283,2.4257,2.4251,2.4278,2.4321,2.4274,2.4252,2.4237,2.425,2.43,2.4289,2.4263,2.4369,2.4485,2.4576,2.4543,2.4395,2.435,2.4531,2.4971,2.5228,2.5265,2.5092,2.4955,2.4867,2.4782,2.4641,2.4546,2.4388,2.4299,2.4283,2.421,2.414,2.4066,2.4086,2.4103,2.4051,2.3981,2.3982,2.3999,2.4007,2.3966,2.3944,2.3938,2.3967,2.3985,2.3978,2.3946,2.3922,2.3875,2.3326,2.2455,2.2606,2.4594,2.762,2.9786,3.2373,3.3608,2.9136,2.6103,2.3341,2.1933,2.2045,2.2268,2.3471,2.4036,2.4564,2.4472,2.4535,2.444,2.4537,2.4476,2.4578,2.4487,2.4595,2.4592,2.4732,2.4692,2.4767,2.4727,2.4919,2.4887,2.5006,2.4994,2.5086,2.5132,2.5256,2.5291,2.535,2.5393,2.5531,2.559,2.5729,2.5754,2.5856,2.5985,2.6167,2.6222,2.6341,2.6446,2.6571,2.6782,2.6939,2.7126,2.728,2.7497,2.7733,2.7963,2.8144,2.8306,2.8522,2.8797,2.8993,2.9176,2.927,2.9403,2.9528,2.9541,2.9475,2.9327,2.905,2.877,2.838,2.7911,2.7374,2.6962,2.6535,2.6175,2.5826,2.5531,2.5235,2.5093,2.4926,2.4795,2.465,2.4556,2.4523,2.4536,2.4472,2.4453,2.4352,2.4379,2.4357,2.437,2.4294,2.4259,2.4241,2.427,2.4244,2.4238,2.4157,2.4202,2.4173,2.4226,2.4193,2.4186,2.4173,2.4222,2.4229,2.4218,2.4168,2.4156,2.4192,2.4214,2.4194,2.4177,2.4143,2.4215,2.4214,2.4231,2.4132,2.4138,2.4151,2.4169,2.4169,2.4128,2.4075,2.4086,2.4118,2.4097,2.4078,2.4037,2.4099,2.409,2.4093,2.4116,2.4029,2.406,2.4103,2.4077,2.4028,2.3988,2.4024,2.4035,2.4052,2.3997,2.3967,2.3971,2.398,2.399,2.3951,2.3938,2.3939,2.4032,2.4139,2.414,2.4116,2.4018,2.4,2.423,2.4649,2.4925,2.4811,2.472,2.4594,2.4484,2.4382,2.4204,2.4175,2.4039,2.3971,2.3895,2.3795,2.3814,2.3848,2.3765,2.3742,2.3699,2.3674,2.3685,2.3681,2.3638,2.3679,2.3597,2.3663,2.3662,2.3654,2.3632,2.3641,2.3668,2.3566,2.2857,2.2116,2.2524,2.4809,2.7871,2.9796,3.2539,3.2845,2.7797,2.3565,2.2319,2.1406,2.1621,2.2109,2.3208,2.3916,2.4138,2.4279,2.4143,2.4284,2.4182,2.4282,2.4218,2.4315,2.4301,2.4393,2.4365,2.4426,2.4427,2.4522,2.453,2.4601,2.4577,2.4647,2.47,2.4835,2.4812,2.4904,2.4989,2.5121,2.5184,2.5276,2.5287,2.5418,2.5538,2.572,2.5801,2.5917,2.6052,2.6162,2.6341,2.6515,2.6658,2.6836,2.7048,2.7301,2.75,2.7658,2.7863,2.814,2.8347,2.8563,2.8695,2.8866,2.907,2.925,2.9275,2.9252,2.9179,2.9054,2.8864,2.8483,2.8085,2.7568,2.709,2.6706,2.6244,2.5906,2.5519,2.517,2.4988,2.4812,2.4602,2.448,2.436,2.4264,2.4277,2.4201,2.4138,2.4055,2.4066,2.4045,2.4018,2.3966,2.3976,2.3985,2.4036,2.3985,2.3922,2.3907,2.3965,2.3972,2.3991,2.3952,2.3981,2.3982,2.4043,2.3969,2.3991,2.393,2.3959,2.3961,2.4019,2.402,2.4015,2.4004,2.4039,2.4058,2.3993,2.3927,2.3926,2.3938,2.3935,2.3902,2.3863,2.3841,2.3893,2.3905,2.3847,2.3868,2.3859,2.3872,2.3964,2.3916,2.3884,2.3823,2.3817,2.384,2.3852,2.381,2.3808,2.3838,2.3836,2.3764,2.3705,2.3698,2.3724,2.3697,2.3759,2.371,2.3694,2.3677,2.3726,2.3722,2.3733,2.3777,2.3909,2.3951,2.3954,2.3898,2.3813,2.4044,2.4421,2.477,2.4733,2.4507,2.434,2.4263,2.4225,2.4102,2.4,2.3735,2.3698,2.3665,2.3648,2.3636,2.3605,2.3625,2.3608,2.357,2.3491,2.3439,2.345,2.3456,2.3476,2.3454,2.3428,2.3427,2.35,2.3482,2.3417,2.3438,2.3338,2.2697,2.1893,2.2178,2.4232,2.7408,2.9542,3.2097,3.2685,2.7658,2.2757,2.155,2.0349,2.0645,2.1634,2.2543,2.3515,2.3931,2.4147,2.4038,2.4021,2.3948,2.4074,2.407,2.4133,2.4089,2.4204,2.4218,2.4291,2.428,2.4319,2.4345,2.4458,2.45,2.4522,2.4527,2.4589,2.4716,2.4829,2.4851,2.4942,2.5018,2.5125,2.5187,2.5243,2.5358,2.5532,2.5683,2.5836,2.5911,2.5965,2.6177,2.6279,2.6487,2.6686,2.6848,2.7048,2.7309,2.7539,2.775,2.7855,2.8053,2.8277,2.8464,2.8667,2.8828,2.8958,2.9026,2.9064,2.9005,2.8865,2.86,2.8291,2.7961,2.7508,2.7004,2.6465,2.6082,2.5708,2.5397,2.5095,2.4842,2.4639,2.4488,2.4304,2.4171,2.4024,2.4025,2.3999,2.3969,2.3881,2.385,2.3839,2.3824,2.3827,2.3816,2.3717,2.3708,2.3765,2.3749,2.3757,2.3777,2.3739,2.3759,2.3781,2.3843,2.382,2.3848,2.385,2.3858,2.391,2.3934,2.3843,2.3888,2.3953,2.4017,2.3937,2.3875,2.3843,2.3921,2.3909,2.3907,2.381,2.3887,2.389,2.3845,2.3838,2.3759,2.3755,2.3771,2.3813,2.3846,2.383,2.3787,2.3753,2.3749,2.3768,2.373,2.3706,2.3771,2.3803,2.3866,2.389,2.3968,2.3979,2.3988,2.3984,2.3919,2.4081,2.4454,2.4806,2.4631,2.4471,2.43,2.4218,2.4121,2.403,2.3797,2.3703,2.3667,2.3687,2.3593,2.3598,2.3576,2.3607,2.3652,2.3607,2.3546,2.3544,2.3573,2.3553,2.3568,2.3527,2.3464,2.343,2.3488,2.3516,2.3475,2.3408,2.2897,2.2108,2.2078,2.3713,2.6735,2.8267,3.0273,3.3104,3.1591,2.5854,2.1916,2.0346,2.018,2.1184,2.2175,2.3253,2.3767,2.4124,2.4122,2.4123,2.4082,2.4166,2.4193,2.4231,2.4182,2.427,2.4232,2.4305,2.4335,2.4426,2.4507,2.4554,2.457,2.4623,2.4622,2.4712,2.4768,2.4878,2.4946,2.5014,2.5077,2.5161,2.531,2.5401,2.5469,2.5612,2.5686,2.5827,2.5988,2.6135,2.63,2.6455,2.664,2.6833,2.7064,2.7218,2.7365,2.7599,2.7909,2.8115,2.8267,2.8434,2.8497,2.8725,2.8947,2.9052,2.9108,2.9157,2.9085,2.8948,2.867,2.8203,2.7822,2.7401,2.6912,2.6465,2.607,2.5649,2.5353,2.5085,2.4853,2.4649,2.4581,2.4478,2.4386,2.4325,2.4242,2.4144,2.4132,2.4119,2.4117,2.4064,2.4004,2.3979,2.4007,2.3922,2.3965,2.3888,2.3932,2.3984,2.3964,2.3944,2.3951,2.3999,2.4025,2.4045,2.404,2.4052,2.408,2.4069,2.4118,2.4088,2.4141,2.4151,2.4189,2.4199,2.4155,2.4119,2.413,2.414,2.4096,2.409,2.4094,2.4032,2.4088,2.4094,2.4056,2.4046,2.4018,2.4032,2.4038,2.4014,2.3995,2.3988,2.3993,2.4029,2.4048,2.4017,2.4053,2.412,2.4189,2.4231,2.4222,2.4174,2.4104,2.4326,2.4667,2.4987,2.4885,2.4748,2.4655,2.4528,2.448,2.4324,2.4217,2.4083,2.4093,2.4016,2.3976,2.3972,2.3985,2.4001
