8.6912,8.2362,8.1428,8.1686,8.1487,8.1578,8.1411,8.1614,8.2278,8.3052,8.3173,8.3028,8.3023,8.2992,8.3063,8.3023,8.3133,8.3128,8.3252,8.3215,8.325,8.3252,8.3314,8.3269,8.3368,8.3366,8.3452,8.3415,8.3524,8.3538,8.3616,8.3649,8.3751,8.3776,8.3817,8.391,8.401,8.4101,8.4185,8.4267,8.4383,8.4471,8.4601,8.4675,8.4832,8.4945,8.5063,8.5225,8.5374,8.5456,8.558,8.575,8.5876,8.5987,8.6118,8.6242,8.6349,8.643,8.6425,8.6435,8.6324,8.6152,8.5919,8.5647,8.5263,8.4961,8.4644,8.4442,8.4316,8.4067,8.3825,8.3643,8.3446,8.3334,8.3183,8.3121,8.3045,8.2994,8.295,8.2933,8.2845,8.2851,8.2868,8.2861,8.2827,8.2838,8.2817,8.2798,8.2782,8.2788,8.2773,8.2794,8.282,8.2826,8.277,8.2773,8.2795,8.2816,8.2809,8.2874,8.2834,8.2876,8.2866,8.2932,8.2888,8.2931,8.296,8.2969,8.2975,8.2978,8.2964,8.2972,8.298,8.2985,8.2985,8.2988,8.2995,8.2987,8.2977,8.2953,8.2919,8.2975,8.2965,8.3031,8.2983,8.2966,8.2953,8.2975,8.2965,8.3003,8.2971,8.2962,8.2981,8.3007,8.3014,8.2983,8.3001,8.2984,8.2996,8.3053,8.3021,8.2976,8.3045,8.2989,8.3005,8.2987,8.2961,8.2996,8.3038,8.3057,8.3001,8.3033,8.3034,8.3054,8.3047,8.302,8.3012,8.3058,8.3046,8.3055,8.306,8.3044,8.304,8.302,8.3066,8.3049,8.306,8.3043,8.3085,8.3086,8.3049,8.3058,8.3068,8.3056,8.3168,8.3183,8.3112,8.3113,8.3292,8.3274,8.3205,8.3293,8.374,8.4125,8.4124,8.3866,8.3682,8.3496,8.3446,8.3532,8.344,8.3347,8.311,8.2922,8.2941,8.2929,8.2935,8.2932,8.2883,8.2895,8.2896,8.2902,8.2903,8.2907,8.2907,8.2949,8.2904,8.2504,8.1564,8.1091,8.1099,8.1674,8.3526,8.7546,9.1447,9.1824,9.0511,8.6286,8.2513,8.2688,8.2587,8.2443,8.2216,8.1969,8.2383,8.2981,8.3418,8.3279,8.3203,8.3186,8.3206,8.3227,8.326,8.3262,8.3313,8.334,8.3377,8.3406,8.3494,8.3436,8.3503,8.3505,8.3572,8.3592,8.3666,8.3654,8.3711,8.3711,8.3783,8.3842,8.3911,8.4025,8.4072,8.4146,8.4209,8.4303,8.4418,8.4477,8.457,8.4697,8.4787,8.4823,8.4977,8.5122,8.5195,8.532,8.5477,8.5596,8.5715,8.5822,8.5948,8.6106,8.6194,8.6292,8.6324,8.635,8.6366,8.6312,8.6123,8.5913,8.5627,8.5499,8.5215,8.4874,8.4641,8.4357,8.4132,8.3938,8.3728,8.3565,8.3431,8.3308,8.3203,8.3119,8.3057,8.304,8.3009,8.2959,8.2911,8.2911,8.2931,8.2911,8.2955,8.2921,8.291,8.2894,8.2928,8.2982,8.29,8.2898,8.2911,8.2911,8.2911,8.2963,8.2895,8.2945,8.2931,8.3007,8.2994,8.2993,8.2972,8.3016,8.3085,8.3034,8.3007,8.299,8.3024,8.3042,8.3052,8.3071,8.3069,8.309,8.3107,8.3066,8.3061,8.3048,8.3017,8.3025,8.3021,8.3032,8.305,8.3027,8.3007,8.3039,8.3023,8.3032,8.3041,8.3061,8.3033,8.3058,8.309,8.3054,8.3073,8.3073,8.305,8.3001,8.3026,8.3062,8.3059,8.3032,8.296,8.3022,8.2988,8.3024,8.3043,8.3034,8.3052,8.3032,8.302,8.2993,8.3013,8.3012,8.2996,8.2997,8.2972,8.296,8.2957,8.2964,8.3005,8.297,8.2934,8.2964,8.2983,8.2957,8.2929,8.2907,8.2915,8.2922,8.2913,8.2914,8.2944,8.2921,8.2881,8.2854,8.285,8.2834,8.2826,8.282,8.2843,8.2813,8.2852,8.2939,8.2928,8.2843,8.2848,8.302,8.2969,8.2852,8.2988,8.343,8.3812,8.3729,8.349,8.3338,8.3239,8.319,8.3198,8.3085,8.2976,8.271,8.2581,8.259,8.2587,8.2595,8.2622,8.2594,8.2576,8.2601,8.2605,8.2593,8.2552,8.2547,8.2562,8.2445,8.1868,8.1362,8.0818,8.0696,8.112,8.2573,8.6257,9.0431,9.1547,8.8673,8.4034,8.1698,8.2012,8.202,8.1819,8.1832,8.1503,8.1847,8.265,8.2905,8.2898,8.2761,8.2747,8.2722,8.2748,8.2798,8.2835,8.2823,8.2925,8.2927,8.3033,8.3021,8.3013,8.3013,8.3063,8.312,8.3157,8.3239,8.3242,8.3254,8.3353,8.3384,8.342,8.3478,8.3531,8.3622,8.3685,8.381,8.3925,8.3989,8.4062,8.4169,8.4266,8.4315,8.4451,8.4585,8.4741,8.4885,8.4937,8.5032,8.5167,8.5287,8.54,8.5544,8.5692,8.5828,8.591,8.6028,8.5989,8.6001,8.5876,8.5792,8.5599,8.529,8.5005,8.4727,8.4462,8.4181,8.4001,8.3829,8.3557,8.3317,8.3112,8.2979,8.2863,8.2714,8.264,8.2664,8.2557,8.25,8.2497,8.2461,8.2425,8.2409,8.2339,8.2342,8.2386,8.2385,8.2326,8.2364,8.2325,8.2319,8.2312,8.2356,8.2356,8.2351,8.2371,8.2431,8.2386,8.2363,8.2463,8.2428,8.2429,8.2398,8.2421,8.242,8.2479,8.2489,8.2459,8.2506,8.248,8.2441,8.2455,8.2482,8.2474,8.246,8.2509,8.254,8.2507,8.2532,8.2512,8.248,8.2557,8.2517,8.2482,8.2467,8.2504,8.2517,8.2548,8.2518,8.249,8.2557,8.254,8.2551,8.2484,8.2482,8.2535,8.2535,8.2599,8.2544,8.2533,8.2531,8.2576,8.256,8.2553,8.258,8.2605,8.2585,8.2596,8.2614,8.2624,8.2539,8.2576,8.258,8.2594,8.2594,8.2568,8.2591,8.2601,8.258,8.2595,8.2589,8.2593,8.2602,8.2586,8.2577,8.2549,8.2568,8.2599,8.2597,8.2601,8.2571,8.259,8.2568,8.2571,8.2549,8.262,8.266,8.2564,8.2516,8.2587,8.2793,8.2721,8.2719,8.2772,8.3004,8.3298,8.3548,8.3364,8.3149,8.2999,8.2933,8.2958,8.2821,8.2646,8.2418,8.2402,8.2416,8.2419,8.2412,8.2459,8.2393,8.2326,8.2336,8.2343,8.2361,8.2344,8.2349,8.2339,8.2328,8.2016,8.1168,8.0804,8.0836,8.1389,8.3437,8.7502,9.1367,9.1333,8.6617,8.1582,7.9687,7.9914,8.052,8.0567,8.091,8.0742,8.0812,8.1465,8.2276,8.2666,8.2569,8.2571,8.2566,8.2608,8.268,8.2722,8.2732,8.2809,8.2856,8.2892,8.2938,8.2951,8.296,8.2989,8.3046,8.3095,8.3118,8.3197,8.3261,8.3372,8.34,8.3473,8.3537,8.3575,8.3632,8.3725,8.3776,8.3886,8.3986,8.4121,8.4153,8.4248,8.434,8.4451,8.4585,8.4696,8.4819,8.4932,8.5084,8.5188,8.5315,8.541,8.5533,8.5661,8.5828,8.5867,8.5887,8.5842,8.5866,8.5865,8.5726,8.5514,8.5266,8.4988,8.472,8.4368,8.4028,8.3791,8.3552,8.3381,8.3194,8.2987,8.2846,8.2753,8.2639,8.2551,8.2497,8.2451,8.2384,8.2324,8.2325,8.232,8.2298,8.229,8.2278,8.226,8.2276,8.2257,8.2246,8.2327,8.2364,8.2336,8.2349,8.2353,8.2419,8.2442,8.2437,8.2496,8.2475,8.2453,8.2463,8.2449,8.2462,8.2489,8.2469,8.248,8.2507,8.2484,8.249,8.2493,8.25,8.2543,8.2512,8.2487,8.2481,8.249,8.2497,8.2518,8.2505,8.2462,8.2502,8.2479,8.245,8.2465,8.245,8.2461,8.2471,8.248,8.2469,8.2501,8.2454,8.2464,8.2448,8.2437,8.247,8.248,8.2501,8.2515,8.249,8.2491,8.2534,8.2502,8.2508,8.2507,8.2487,8.25,8.2542,8.2504,8.2458,8.2522,8.2495,8.2562,8.252,8.2547,8.2571,8.2561,8.2565,8.2537,8.2556,8.2525,8.2591,8.2608,8.2612,8.2592,8.2605,8.2613,8.2652,8.2647,8.2702,8.2698,8.2643,8.2682,8.2891,8.282,8.2732,8.2775,8.3068,8.3472,8.3679,8.3416,8.3183,8.3061,8.3029,8.3046,8.2936,8.288,8.2635,8.2526,8.2504,8.2481,8.2474,8.2469,8.2458,8.245,8.2394,8.2443,8.2435,8.249,8.2482,8.2455,8.2393,8.201,8.1168,8.0781,8.0805,8.1468,8.3445,8.7531,9.1164,9.1301,8.7501,8.2643,8.1117,8.1414,8.1552,8.1322,8.1546,8.1159,8.1498,8.2233,8.2819,8.2877,8.2725,8.2795,8.2752,8.2831,8.2799,8.2886,8.2871,8.295,8.2943,8.3029,8.3024,8.3099,8.3105,8.3183,8.3149,8.324,8.3246,8.3317,8.3328,8.3406,8.3474,8.3543,8.3591,8.3678,8.3727,8.3833,8.3908,8.3993,8.4055,8.4186,8.422,8.4343,8.4485,8.4573,8.4665,8.4812,8.4953,8.5046,8.5183,8.5325,8.5392,8.5544,8.5666,8.5774,8.5821,8.5872,8.6001,8.6,8.5932,8.5893,8.5755,8.5547,8.5247,8.4972,8.4711,8.4417,8.4163,8.3938,8.3716,8.347,8.3321,8.3181,8.3056,8.2912,8.2804,8.2732,8.2703,8.2668,8.2644,8.2577,8.2579,8.255,8.2567,8.251,8.2507,8.2511,8.2505,8.2482,8.2458,8.2479,8.2478,8.247,8.2523,8.2507,8.2485,8.2521,8.2537,8.2554,8.2558,8.2542,8.2583,8.2612,8.2625,8.26,8.2635,8.2658,8.2692,8.2676,8.2678,8.2661,8.2664,8.2686,8.2686,8.2698,8.266,8.2647,8.2689,8.268,8.2671,8.2622,8.2626,8.2647,8.2632,8.2611,8.2606,8.262,8.2589,8.2642,8.2679,8.2629,8.2627,8.2621,8.2627,8.2643,8.2616,8.2636,8.2659,8.264,8.2644,8.2622,8.2634,8.2626,8.2657,8.2667,8.2659,8.2634,8.2662,8.2635,8.2651,8.2661,8.2668,8.2649,8.2625,8.2664,8.2683,8.2648,8.2676,8.2642,8.2672,8.2682,8.2664,8.2598,8.2628,8.2642,8.2651,8.2662,8.2663,8.2647,8.2692,8.2665,8.2613,8.2656,8.2649,8.2662,8.2652,8.2642,8.2657,8.2631,8.2622,8.2686,8.2677,8.2621,8.2647,8.2745,8.2723,8.2634,8.274,8.2873,8.2824,8.2752,8.2977,8.351,8.3756,8.3538,8.3376,8.323,8.3029,8.308,8.3044,8.2992,8.281,8.2593,8.2487,8.2547,8.2528,8.2538,8.2511,8.2531,8.2495,8.2536,8.253,8.2515,8.2469,8.2484,8.2467,8.2321,8.1584,8.0855,8.0718,8.0901,8.2022,8.5093,8.9455,9.1537,8.9804,8.5501,8.2204,8.2128,8.2268,8.1871,8.2024,8.1548,8.193,8.2254,8.2865,8.2968,8.2759,8.2797,8.2703,8.2844,8.2811,8.2884,8.2876,8.2958,8.2903,8.307,8.2978,8.3091,8.3065,8.3176,8.3185,8.3215,8.3189,8.3277,8.3287,8.3397,8.3372,8.3473,8.3491,8.3628,8.364,8.3801,8.3823,8.3873,8.3982,8.4109,8.4176,8.4273,8.4374,8.448,8.4593,8.4654,8.4786,8.4894,8.5023,8.5176,8.53,8.5427,8.5562,8.5665,8.579,8.5888,8.5919,8.5961,8.6011,8.5973,8.5869,8.566,8.5472,8.5146,8.4886,8.478,8.4483,8.42,8.3966,8.3755,8.3581,8.3343,8.321,8.3097,8.2966,8.288,8.2861,8.2756,8.2743,8.2671,8.2649,8.2629,8.2622,8.2608,8.2638,8.2576,8.2591,8.2565,8.2575,8.2537,8.254,8.2539,8.2575,8.2539,8.257,8.2531,8.2621,8.2598,8.262,8.2604,8.2672,8.2691,8.2649,8.2662,8.2654,8.2672,8.2709,8.2713,8.2688,8.2703,8.2743,8.2736,8.2781,8.2753,8.2777,8.2729,8.2767,8.2684,8.268,8.2657,8.2695,8.2674,8.2689,8.2631,8.2634,8.2603,8.26,8.261,8.2592,8.2582,8.2649,8.2655,8.2642,8.2596,8.2618,8.2613,8.2659,8.2618,8.2587,8.2555,8.251,8.2562,8.255,8.2571,8.2545,8.256,8.2548,8.2559,8.2539,8.2488,8.2463,8.2534,8.2533,8.2561,8.2537,8.2519,8.2483,8.2511,8.2542,8.2473,8.2514,8.2516,8.2531,8.2498,8.2495,8.246,8.2473,8.2489,8.2469,8.2459,8.2444,8.2426,8.2442,8.2472,8.2439,8.2404,8.2382,8.243,8.2387,8.2416,8.2411,8.2396,8.237,8.2355,8.2355,8.2374,8.2301,8.2441,8.2452,8.2381,8.2364,8.2476,8.2531,8.2461,8.2455,8.2711,8.3138,8.3445,8.3187,8.2981,8.2881,8.2763,8.2769,8.2744,8.2586,8.2423,8.221,8.2226,8.222,8.22,8.2181,8.2166,8.2175,8.2207,8.214,8.2111,8.2145,8.2174,8.2206,8.2164,8.1949,8.1121,8.048,8.0447,8.0653,8.1947,8.5192,8.9571,9.1187,8.8428,8.3817,8.0925,8.1162,8.1299,8.1139,8.135,8.0892,8.1253,8.1537,8.2292,8.2413,8.2253,8.2297,8.2309,8.2372,8.2307,8.2357,8.2358,8.2391,8.2427,8.2544,8.2511,8.2565,8.2622,8.2651,8.2614,8.2696,8.2713,8.2837,8.288,8.2913,8.2918,8.2966,8.299,8.3186,8.3218,8.3363,8.3409,8.3508,8.3575,8.3632,8.3701,8.3893,8.3964,8.4115,8.42,8.4328,8.4369,8.4474,8.4652,8.4716,8.4849,8.4972,8.5126,8.524,8.5319,8.5391,8.5482,8.5547,8.5517,8.5474,8.5343,8.516,8.4938,8.4665,8.4374,8.4265,8.3933,8.3636,8.3341,8.3088,8.2972,8.2787,8.2648,8.2469,8.2354,8.2192,8.2121,8.2122,8.2047,8.198,8.1992,8.195,8.1973,8.198,8.1968,8.1894,8.1912,8.191,8.198,8.1958,8.1896,8.1908,8.1965,8.1972,8.1975,8.1985,8.1964,8.1993,8.2067,8.2055,8.2153,8.2158,8.2139,8.2238,8.2249,8.2271,8.2261,8.2274,8.228,8.2334,8.2329,8.2296,8.2397,8.2359,8.2386,8.2377,8.2391,8.2364,8.2363,8.2457,8.2433,8.239,8.2414,8.2442,8.2466,8.2469,8.2467,8.2407,8.2431,8.2391,8.2381,8.2408,8.2461,8.2474,8.2466,8.2447,8.2434,8.2451,8.2454,8.25,8.2475,8.2478,8.2485,8.2447,8.248,8.2536,8.2559,8.2544,8.2531,8.2541,8.2496,8.2551,8.2511,8.2491,8.2518,8.2517,8.2537,8.2515,8.2498,8.2501,8.2566,8.2538,8.2529,8.2504,8.2528,8.2581,8.2576,8.2556,8.2645,8.2674,8.2626,8.2762,8.2845,8.2769,8.274,8.3082,8.3499,8.3603,8.3341,8.3133,8.2992,8.2959,8.2962,8.2947,8.2754,8.2571,8.2415,8.2356,8.2334,8.2291,8.2404,8.2404,8.2374,8.2384,8.2438,8.2472,8.2549,8.2501,8.2516,8.2459,8.2272,8.1516,8.0952,8.0911,8.1256,8.2827,8.6347,9.0646,9.1889,8.8867,8.4071,8.1411,8.1595,8.1598,8.1384,8.1633,8.1421,8.1875,8.2717,8.3083,8.3077,8.287,8.2836,8.2773,8.2726,8.2763,8.2759,8.2784,8.2777,8.2801,8.2903,8.2994,8.3018,8.3148,8.3184,8.3324,8.3413,8.3546,8.3674,8.3754,8.3842,8.3938,8.4029,8.4158,8.4142,8.4248,8.4331,8.4363,8.4419,8.4466,8.4502,8.4567,8.4574,8.4653,8.4689,8.4753,8.4824,8.4925,8.5015,8.5101,8.519,8.5332,8.5491,8.5616,8.5692,8.5832,8.595,8.599,8.6048,8.6083,8.6071,8.596,8.5798,8.5576,8.5321,8.5005,8.4769,8.4587,8.4365,8.4146,8.3955,8.3727,8.3567,8.3429,8.3336,8.3126,8.3081,8.3053,8.3051,8.2952,8.2896,8.2864,8.2862,8.2829,8.2795,8.2738,8.2767,8.278,8.2728,8.2764,8.2715,8.2753,8.2743,8.2791,8.278,8.2792,8.2825,8.2799,8.2836,8.2823,8.2896,8.2854,8.2844,8.2895,8.2912,8.2892,8.2905,8.2912,8.2936,8.2951,8.2919,8.2873,8.2882,8.2875,8.2827,8.2818,8.2791,8.2829,8.2837,8.2796,8.278,8.2771,8.2763,8.2729,8.2751,8.2752,8.2761,8.2749,8.2765,8.2814,8.2776,8.2766,8.2825,8.2781,8.2748,8.2786,8.2826,8.281,8.283,8.2808,8.2826,8.2768,8.2762,8.277,8.2757,8.2705,8.2772,8.2765,8.2762,8.2763,8.2774,8.279,8.2772,8.2747,8.2802,8.28,8.2733,8.2749,8.2787,8.2808,8.2789,8.2825,8.28,8.2775,8.278,8.28,8.2778,8.2787,8.2799,8.2809,8.281,8.2782,8.2801,8.2818,8.2822,8.2871,8.2818,8.2942,8.2932,8.2894,8.2989,8.309,8.3028,8.2994,8.3081,8.3534,8.3908,8.3839,8.3642,8.3474,8.3381,8.3354,8.3341,8.3241,8.3078,8.2867,8.2803,8.2809,8.2819,8.2809,8.2813,8.276,8.2783,8.2801,8.2797,8.2802,8.2789,8.2724,8.2754,8.2443,8.1559,8.1073,8.1036,8.155,8.3162,8.705,9.0893,9.1277,8.8041,8.3587,8.2077,8.2296,8.2376,8.1997,8.2199,8.1872,8.2259,8.3074,8.3224,8.3167,8.3028,8.3116,8.3022,8.314,8.3143,8.3222,8.3181,8.333,8.3261,8.3323,8.3329,8.3393,8.3361,8.3431,8.3449,8.351,8.3507,8.3599,8.3544,8.3617,8.3698,8.3782,8.3775,8.3853,8.3939,8.4015,8.407,8.4092,8.4231,8.4405,8.4419,8.4499,8.4527,8.4662,8.4737,8.488,8.5008,8.5067,8.518,8.531,8.5421,8.5559,8.5652,8.5755,8.5849,8.593,8.6002,8.6072,8.606,8.6003,8.5948,8.5791,8.558,8.532,8.5025,8.4747,8.4513,8.4311,8.4045,8.3791,8.3645,8.3489,8.3359,8.323,8.311,8.3005,8.3004,8.2922,8.2875,8.2812,8.2843,8.2867,8.284,8.2775,8.2773,8.2742,8.2768,8.2731,8.2738,8.2762,8.2767,8.2742,8.2756,8.274,8.2751,8.2785,8.2728,8.2787,8.2802,8.28,8.2807,8.2808,8.282,8.2826,8.2864,8.2819,8.2829,8.2835,8.2909,8.2847,8.2833,8.2824,8.2857,8.2821,8.2836,8.2831,8.2781,8.2718,8.2837,8.2754,8.27,8.2765,8.2775,8.2765,8.2806,8.2811,8.2734,8.2854,8.2846,8.2793,8.2862,8.2837,8.29,8.2909,8.2966,8.2928,8.2927,8.2948,8.298,8.2939,8.2969,8.2953,8.2973,8.2984,8.2972,8.3021,8.3007,8.2986,8.3031,8.2994,8.3001,8.2978,8.3007,8.3009,8.2898,8.2948,8.2936,8.2905,8.2848,8.2864,8.2803,8.2765,8.2773,8.2751,8.2733,8.2714,8.2719,8.2709,8.2693,8.2716,8.2647,8.2641,8.265,8.2674,8.2684,8.2664,8.2654,8.2727,8.2671,8.2685,8.2716,8.2658,8.2702,8.2818,8.2806,8.2735,8.2726,8.2902,8.2913,8.2835,8.2979,8.3415,8.3799,8.363,8.3519,8.3366,8.3162,8.313,8.3121,8.3033,8.2912,8.2636,8.2548,8.2562,8.252,8.2583,8.2559,8.256,8.2561,8.257,8.2507,8.2523,8.2523,8.2542,8.2504,8.2345,8.1552,8.0841,8.0801,8.0998,8.2261,8.5581,8.9819,9.1366,8.8666,8.41,8.1345,8.1674,8.1778,8.166,8.1913,8.1472,8.1856,8.2242,8.295,8.3002,8.282,8.288,8.2799,8.2927,8.2893,8.2978,8.2949,8.3048,8.303,8.3141,8.3114,8.3155,8.3195,8.323,8.3287,8.3308,8.3273,8.3339,8.34,8.3485,8.3539,8.3564,8.3549,8.3701,8.3741,8.3806,8.3867,8.3983,8.404,8.415,8.4218,8.434,8.439,8.4531,8.4636,8.4705,8.478,8.487,8.4978,8.5119,8.5236,8.5325,8.5418,8.5513,8.5654,8.5725,8.5743,8.5829,8.5849,8.5794,8.5687,8.5559,8.5347,8.509,8.4822,8.4697,8.4389,8.4126,8.3909,8.3685,8.3493,8.3277,8.3154,8.2986,8.2905,8.2815,8.2742,8.2611,8.2583,8.2531,8.2527,8.2454,8.2452,8.2447,8.245,8.2444,8.2423,8.2403,8.2428,8.2359,8.2389,8.2376,8.2403,8.2393,8.2405,8.24,8.2453,8.2418,8.2399,8.2462,8.2498,8.2484,8.248,8.2483,8.2483,8.2458,8.2505,8.2461,8.2443,8.242,8.2414,8.2485,8.2455,8.2418,8.2452,8.2452,8.2454,8.2426,8.2381,8.2389,8.2396,8.2405,8.2419,8.2345,8.2403,8.2367,8.2388,8.2377,8.2358,8.2347,8.2403,8.2359,8.2341,8.2363,8.234,8.2316,8.2343,8.2335,8.2348,8.2386,8.238,8.2366,8.234,8.2334,8.2344,8.2344,8.2423,8.2401,8.2352,8.2347,8.2335,8.2319,8.2358,8.237,8.2359,8.2359,8.2396,8.2358,8.2328,8.2344,8.2354,8.2367,8.2346,8.2334,8.2322,8.2331,8.2332,8.237,8.2349,8.2365,8.232,8.2323,8.2408,8.2411,8.2378,8.2346,8.2375,8.2586,8.2546,8.2468,8.2548,8.2934,8.3279,8.3292,8.3106,8.2976,8.2813,8.279,8.2719,8.2578,8.2386,8.2188,8.2161,8.2173,8.218,8.2172,8.2176,8.2164,8.2189,8.214,8.213,8.2169,8.2148,8.2163,8.2145,8.1779,8.0986,8.0521,8.0479,8.089,8.2725,8.6717,9.0615,9.086,8.6405,8.1636,7.998,8.0597,8.0508,8.0595,8.0956,8.0636,8.0772,8.1406,8.2352,8.2414,8.2345,8.236,8.2439,8.2435,8.2463,8.2472,8.2511,8.2563,8.2622,8.2632,8.2711,8.2736,8.2802,8.2847,8.2908,8.2929,8.2979,8.2993,8.3073,8.3131,8.3165,8.3262,8.3322,8.3375,8.3458,8.3509,8.3591,8.3707,8.3786,8.3841,8.397,8.3992,8.4108,8.4242,8.437,8.4475,8.4529,8.47,8.4826,8.4952,8.5076,8.5212,8.5292,8.5385,8.545,8.5508,8.559,8.5632,8.5655,8.5574,8.5379,8.5308,8.5039,8.4835,8.4532,8.4224,8.392,8.3698,8.3453,8.324,8.3062,8.286,8.2707,8.257,8.2457,8.2385,8.2314,8.2318,8.225,8.218,8.2136,8.2056,8.2009,8.2052,8.2061,8.2082,8.2063,8.2089,8.2101,8.2102,8.2069,8.2127,8.2166,8.2133,8.2172,8.2129,8.2127,8.2209,8.2196,8.2209,8.2213,8.2175,8.2188,8.2183,8.225,8.2264,8.2235,8.2234,8.225,8.2237,8.2203,8.218,8.2231,8.227,8.2251,8.2242,8.2255,8.2209,8.2238,8.22,8.2264,8.2274,8.2225,8.2204,8.2248,8.2218,8.2232,8.2199,8.2203,8.2271,8.2254,8.2238,8.2228,8.2259,8.2271,8.2267,8.2243,8.2231,8.2251,8.2256,8.2291,8.2261,8.2232,8.2296,8.229,8.2329,8.2312,8.228,8.2281,8.2315,8.2315,8.2291,8.2286,8.2298,8.2344,8.236,8.2354,8.2335,8.2366,8.2409,8.2382,8.2392,8.2429,8.2481,8.2449,8.2408,8.2533,8.2646,8.2638,8.2694,8.3029,8.3331,8.343,8.3289,8.309,8.2979,8.2966,8.2969,8.2947,8.277,8.2518,8.2422,8.241,8.2385,8.2404,8.2455,8.2433,8.2451,8.2485,8.2496,8.2433,8.2494,8.2494,8.2444,8.2324,8.1692,8.1273,8.0999,8.0858,8.1691,8.3936,8.8249,9.1559,9.1025,8.6218,8.15,8.0197,8.0802,8.072,8.0952,8.1083,8.1022,8.1562,8.2374,8.3021,8.2982,8.2952,8.2884,8.295,8.2921,8.3033,8.3083,8.3131,8.3085,8.3212,8.3172,8.325,8.331,8.3313,8.329,8.3393,8.3438,8.3513,8.351,8.3606,8.3638,8.376,8.3814,8.3855,8.3902,8.405,8.4078,8.4168,8.4261,8.4318,8.4339,8.4478,8.4567,8.4677,8.4724,8.4895,8.4928,8.5001,8.5107,8.5138,8.5309,8.5387,8.5465,8.5561,8.5637,8.5688,8.5757,8.5823,8.5832,8.5746,8.5686,8.5503,8.5387,8.5092,8.4784,8.4525,8.4304,8.408,8.3926,8.3708,8.3517,8.3338,8.3166,8.3079,8.2952,8.2882,8.2843,8.2718,8.2705,8.2698,8.2655,8.262,8.2616,8.2564,8.2511,8.2583,8.2581,8.2562,8.2602,8.2565,8.2565,8.2585,8.2587,8.2644,8.2629,8.2653,8.2655,8.2638,8.264,8.2693,8.2744,8.2714,8.2759,8.2738,8.2756,8.2748,8.2783,8.2776,8.2829,8.2761,8.2738,8.2796,8.2808,8.2827,8.2821,8.2764,8.2781,8.2784,8.2774,8.2742,8.2736,8.2703,8.2725,8.2751,8.2726,8.2683,8.2668,8.2676,8.2689,8.2709,8.276,8.2729,8.2763,8.274,8.2734,8.2726,8.2778,8.2741,8.2731,8.2758,8.2764,8.2746,8.2763,8.2787,8.275,8.2736,8.2748,8.2763,8.2763,8.2767,8.2747,8.2732,8.2753,8.2744,8.275,8.2705,8.2727,8.2732,8.2715,8.276,8.2738,8.2733,8.2751,8.2753,8.2771,8.2874,8.2903,8.285,8.2842,8.3032,8.2975,8.2889,8.3007,8.3412,8.3867,8.3661,8.3442,8.3304,8.3149,8.3223,8.3217,8.3073,8.2949,8.2674,8.2648,8.2659,8.2613,8.2602,8.2596,8.2631,8.2577,8.2557,8.2564,8.2583,8.2555,8.2555,8.2542,8.2138,8.1188,8.0818,8.0816,8.1426,8.308,8.4851,8.9138,9.1429,8.9915,8.5717,8.2351,8.2418,8.2338,8.1874,8.1906,8.1806,8.2268,8.3086,8.3016,8.308,8.2941,8.3004,8.296,8.3017,8.2964,8.3078,8.3028,8.3201,8.3115,8.3225,8.3206,8.3321,8.3336,8.3366,8.334,8.3434,8.3445,8.3583,8.3589,8.3655,8.3705,8.3805,8.3843,8.3928,8.3914,8.4103,8.4152,8.4254,8.4319,8.4428,8.4488,8.4616,8.4706,8.4813,8.4921,8.5003,8.5171,8.5273,8.5349,8.5495,8.5604,8.5712,8.5823,8.592,8.599,8.609,8.6166,8.6209,8.6209,8.6131,8.6059,8.5866,8.5682,8.5432,8.5118,8.4826,8.461,8.4342,8.4205,8.3964,8.3796,8.367,8.3621,8.345,8.3355,8.3251,8.3241,8.3176,8.3151,8.307,8.3084,8.3028,8.3029,8.3045,8.3058,8.2995,8.3018,8.298,8.2985,8.2983,8.2979,8.2923,8.2981,8.2938,8.2995,8.2995,8.2987,8.301,8.3045,8.3048,8.3047,8.3027,8.3074,8.3078,8.3113,8.309,8.3083,8.3069,8.309,8.3086,8.3161,8.3109,8.3121,8.308,8.3154,8.3079,8.3063,8.3103,8.3112,8.308,8.3087,8.3077,8.308,8.3057,8.3081,8.3039,8.3079,8.3083,8.3109,8.307,8.3117,8.3036,8.3021,8.3033,8.3054,8.3082,8.3099,8.3036,8.3136,8.3126,8.3083,8.3071,8.3088,8.3104,8.305,8.3091,8.3079,8.3112,8.3128,8.3123,8.3109,8.3109,8.3128,8.312,8.3103,8.3104,8.3101,8.3124,8.3112,8.3123,8.3104,8.309,8.3077,8.3105,8.3116,8.3179,8.3212,8.3185,8.3149,8.3148,8.3356,8.3303,8.3219,8.336,8.3817,8.422,8.4036,8.3829,8.3688,8.353,8.3594,8.3509,8.3361,8.3208,8.2994,8.2988,8.2949,8.2965,8.2924,8.3003,8.2951,8.2939,8.2899,8.2948,8.2931,8.2951,8.2901,8.2868,8.2542,8.1617,8.1184,8.1134,8.1666,8.3473,8.735,9.113,9.1358,8.9749,8.5363,8.2046,8.2188,8.2333,8.2118,8.2188,8.1901,8.23,8.3046,8.336,8.3331,8.3224,8.3221,8.3232,8.3281,8.3269,8.3358,8.3377,8.3423,8.3423,8.349,8.3476,8.3529,8.3572,8.3594,8.3612,8.37,8.3737,8.3803,8.3816,8.3855,8.3914,8.4007,8.4068,8.4155,8.4246,8.4307,8.4376,8.4444,8.4565,8.4606,8.4696,8.4783,8.4891,8.4988,8.5118,8.5237,8.5346,8.5459,8.5571,8.5691,8.5819,8.5946,8.6058,8.6182,8.6233,8.6312,8.6341,8.6367,8.6426,8.6347,8.6212,8.605,8.5803,8.5559,8.5281,8.4957,8.4712,8.4495,8.4254,8.4043,8.3828,8.3684,8.3582,8.345,8.3333,8.3268,8.3234,8.3145,8.3156,8.3105,8.3061,8.3023,8.3003,8.2992,8.2968,8.2963,8.2924,8.2949,8.2936,8.2892,8.2932,8.2945,8.2937,8.2946,8.2942,8.2981,8.2978,8.3002,8.3028,8.3006,8.3012,8.3003,8.3022,8.3015,8.3007,8.2996,8.2947,8.2996,8.2981,8.2977,8.2977,8.2929,8.2972,8.2936,8.2929,8.2885,8.2866,8.2834,8.2827,8.2862,8.2838,8.2807,8.2767,8.277,8.2757,8.2721,8.2687,8.2727,8.2751,8.2778,8.2761,8.2688,8.2682,8.2714,8.2675,8.2662,8.2657,8.2688,8.2638,8.2614,8.262,8.2565,8.2572,8.2582,8.2576,8.26,8.26,8.2577,8.2598,8.2622,8.2604,8.2576,8.2547,8.2579,8.2598,8.2592,8.254,8.2532,8.255,8.2528,8.2533,8.2534,8.2489,8.2507,8.2535,8.2537,8.2526,8.2517,8.2548,8.2508,8.2651,8.2722,8.2642,8.2603,8.2795,8.3288,8.3557,8.3376,8.3084,8.2957,8.2847,8.2855,8.2718,8.2591,8.2289,8.2246,8.2252,8.2253,8.2243,8.2261,8.2229,8.2204,8.2215,8.2201,8.2202,8.2233,8.2202,8.2191,8.2112,8.1546,8.0722,8.0445,8.0468,8.1308,8.3941,8.8516,9.1125,8.935,8.472,8.0635,8.0296,8.0834,8.0761,8.0896,8.1096,8.087,8.1319,8.2133,8.2694,8.2661,8.2576,8.2557,8.2579,8.267,8.2725,8.2748,8.283,8.2847,8.2852,8.288,8.2911,8.3001,8.3045,8.3128,8.3103,8.3156,8.3213,8.331,8.3342,8.3363,8.3434,8.3575,8.3653,8.3728,8.3786,8.3811,8.3928,8.398,8.4087,8.4138,8.4227,8.44,8.4467,8.4494,8.4614,8.4737,8.4832,8.502,8.5109,8.5288,8.5351,8.5372,8.5526,8.5612,8.5664,8.5741,8.5808,8.5794,8.5808,8.5738,8.5643,8.5433,8.5167,8.497,8.462,8.4383,8.4078,8.3797,8.3536,8.3395,8.3203,8.3036,8.2989,8.2837,8.2701,8.2639,8.2604,8.2565,8.2548,8.2491,8.2498,8.2472,8.2461,8.2406,8.2411,8.2423,8.244,8.2449,8.2368,8.247,8.2442,8.2454,8.2496,8.2516,8.2537,8.2504,8.2501,8.2587,8.2587,8.258,8.2549,8.2563,8.2592,8.2593,8.256,8.258,8.26,8.2548,8.2655,8.2611,8.2506,8.2612,8.2601,8.2564,8.2537,8.2453,8.2487,8.2536,8.2562,8.2546,8.2566,8.2512,8.2525,8.2528,8.253,8.2539,8.248,8.2513,8.2553,8.257,8.2579,8.2495,8.2502,8.2454,8.2555,8.255,8.254,8.2563,8.2581,8.2522,8.2573,8.2546,8.2539,8.2539,8.25,8.2529,8.255,8.2594,8.2591,8.2642,8.261,8.2596,8.262,8.2787,8.2872,8.2822,8.2789,8.2985,8.3316,8.362,8.3461,8.3171,8.3143,8.3048,8.3009,8.2919,8.2758,8.2513,8.2497,8.2502,8.2506,8.2485,8.2504,8.2495,8.2461,8.2466,8.2453,8.2444,8.2417,8.2464,8.2467,8.2428,8.2055,8.1315,8.1133,8.1106,8.1929,8.4499,8.9057,9.1954,9.0501,8.5248,8.0349,7.9343,7.9661,8.0099,8.0423,8.072,8.0725,8.0963,8.1753,8.2617,8.2871,8.2826,8.2813,8.2846,8.2923,8.2957,8.2941,8.3043,8.3104,8.3169,8.313,8.3228,8.3272,8.3346,8.3387,8.3448,8.3508,8.3553,8.3617,8.3702,8.3707,8.3813,8.3872,8.3962,8.4029,8.4121,8.422,8.4277,8.4388,8.4462,8.4551,8.4636,8.4787,8.4926,8.5015,8.5174,8.5266,8.536,8.5496,8.5638,8.5715,8.5838,8.5983,8.6077,8.6151,8.6203,8.6281,8.6325,8.6338,8.6322,8.6199,8.6026,8.5829,8.5543,8.5228,8.4943,8.4643,8.4376,8.4116,8.3889,8.3711,8.3492,8.3356,8.327,8.3203,8.3069,8.3015,8.2982,8.2938,8.2865,8.2923,8.2886,8.2893,8.2876,8.2845,8.2833,8.2787,8.282,8.2846,8.2891,8.288,8.2864,8.2925,8.2884,8.2948,8.2968,8.2993,8.2993,8.3023,8.3037,8.3069,8.3089,8.3065,8.3076,8.3122,8.3106,8.3081,8.3043,8.3058,8.3069,8.3087,8.3051,8.3044,8.3056,8.3097,8.3028,8.3038,8.3014,8.3062,8.3085,8.3047,8.3076,8.3042,8.3061,8.305,8.3039,8.3051,8.3059,8.3051,8.3077,8.3083,8.3072,8.3074,8.3079,8.3115,8.3167,8.3168,8.3109,8.3129,8.3146,8.3185,8.3206,8.3188,8.3176,8.3166,8.3183,8.3172,8.3218,8.3315,8.3318,8.3288,8.3386,8.3523,8.344,8.3409,8.3533,8.4006,8.4373,8.4161,8.3971,8.3784,8.3706,8.3719,8.3696,8.3594,8.3438,8.3239,8.3218,8.3161,8.3199,8.3234,8.3213,8.3216,8.3192,8.3203,8.3235,8.3235,8.3187,8.3204,8.3181,8.2852,8.1945,8.1527,8.1528,8.2175,8.4054,8.8077,9.1874,9.2211,8.8401,8.3479,8.1819,8.2189,8.2012,8.1947,8.2285,8.19,8.2374,8.3088,8.3711,8.3738,8.3632,8.3622,8.3619,8.3617,8.3673,8.3735,8.3794,8.3825,8.3827,8.3974,8.3967,8.4015,8.402,8.4046,8.4094,8.4181,8.4215,8.4247,8.4277,8.4362,8.4446,8.4524,8.4582,8.4642,8.4736,8.481,8.491,8.503,8.5072,8.5216,8.5303,8.5346,8.5426,8.5518,8.5638,8.5844,8.5951,8.6094,8.618,8.6325,8.6434,8.6565,8.6687,8.6773,8.6876,8.6955,8.7013,8.7028,8.6931,8.6817,8.6659,8.654,8.6313,8.5985,8.5698,8.5438,8.5167,8.4973,8.4782,8.4568,8.4397,8.4269,8.4173,8.4062,8.3971,8.3881,8.3817,8.3769,8.3778,8.374,8.3722,8.3744,8.3733,8.37,8.3673,8.3681,8.3676,8.371,8.3687,8.3683,8.3705,8.3714,8.3707,8.369,8.3729,8.3769,8.3737,8.3767,8.3779,8.3733,8.3749,8.3782,8.3852,8.3821,8.3869,8.387,8.3875,8.3887,8.3909,8.389,8.3886,8.3909,8.3923,8.3841,8.3899,8.3851,8.3856,8.3842,8.3846,8.3841,8.3839,8.3822,8.3861,8.3848,8.3846,8.3804,8.3842,8.3866,8.3836,8.3853,8.3871,8.3884,8.3879,8.3905,8.3914,8.3887,8.3897,8.3926,8.3934,8.3949,8.3943,8.3943,8.3931,8.3945,8.3922,8.3895,8.3889,8.3946,8.3958,8.3944,8.3929,8.3915,8.3892,8.3917,8.3923,8.3974,8.4019,8.4017,8.4007,8.3996,8.4156,8.4137,8.4057,8.4197,8.458,8.4991,8.4951,8.4737,8.4562,8.4433,8.4389,8.4441,8.4325,8.4185,8.3932,8.3846,8.3817,8.382,8.3844,8.3827,8.3788,8.3772,8.3748,8.3755,8.3782,8.3743,8.3738,8.3738,8.3491,8.2692,8.2047,8.2003,8.2304,8.3614,8.704,9.1298,9.2509,9.1865,8.8034,8.3709,8.3044,8.3171,8.2907,8.3031,8.2755,8.2944,8.3584,8.4135,8.4191,8.403,8.4027,8.3991,8.4084,8.3984,8.4147,8.4059,8.4142,8.4147,8.4238,8.4185,8.4277,8.4237,8.4297,8.4336,8.4421,8.4426,8.4476,8.4461,8.4558,8.4596,8.4685,8.4738,8.4835,8.4877,8.4949,8.5048,8.5113,8.5134,8.5276,8.5327,8.5495,8.5577,8.5687,8.5779,8.5894,8.6004,8.6161,8.6251,8.6425,8.6521,8.6677,8.6758,8.6861,8.6894,8.6975,8.7066,8.7116,8.7118,8.7033,8.697,8.6798,8.653,8.626,8.5987,8.5691,8.5457,8.5169,8.5004,8.4782,8.4608,8.4438,8.428,8.4135,8.4075,8.4025,8.3998,8.3886,8.3876,8.3809,8.3799,8.3794,8.3805,8.3768,8.3774,8.371,8.3763,8.373,8.3789,8.3726,8.3773,8.3776,8.377,8.3771,8.3798,8.3769,8.3821,8.3843,8.3832,8.3824,8.3826,8.3861,8.3879,8.3914,8.3911,8.3881,8.3859,8.3893,8.3907,8.3902,8.391,8.3902,8.3914,8.3859,8.3898,8.3839,8.3839,8.3823,8.3852,8.381,8.3811,8.3793,8.3798,8.3783,8.3778,8.3731,8.3743,8.3739,8.3744,8.3719,8.3699,8.3699,8.3718,8.3736,8.3701,8.3718,8.369,8.3715,8.373,8.369,8.369,8.3693,8.3699,8.3699,8.3704,8.3714,8.3733,8.3728,8.3714,8.3681,8.3682,8.3693,8.3735,8.3735,8.3693,8.3676,8.3688,8.3706,8.3665,8.3701,8.3674,8.3663,8.3674,8.3739,8.3786,8.3727,8.3699,8.3818,8.3964,8.3865,8.3812,8.3919,8.4313,8.4689,8.4632,8.4434,8.4212,8.4106,8.4072,8.411,8.3944,8.385,8.3585,8.3521,8.3517,8.3499,8.3493,8.3503,8.3489,8.3461,8.3436,8.3477,8.3516,8.3512,8.347,8.3468,8.3215,8.2322,8.1793,8.1747,8.2105,8.3571,8.7181,9.1442,9.2404,8.9148,8.4403,8.2092,8.2409,8.2576,8.2385,8.2578,8.2208,8.2443,8.3054,8.3784,8.3812,8.3677,8.3635,8.3676,8.3699,8.3688,8.3803,8.3745,8.3848,8.3784,8.3944,8.396,8.4018,8.4034,8.4074,8.4062,8.4111,8.4168,8.4225,8.4278,8.4325,8.4421,8.4525,8.453,8.4613,8.467,8.4742,8.4799,8.492,8.4998,8.5085,8.5112,8.5222,8.5323,8.5454,8.5549,8.563,8.5829,8.5956,8.6098,8.6207,8.6352,8.6458,8.6601,8.6717,8.6817,8.6869,8.6952,8.701,8.695,8.6845,8.6805,8.6629,8.6358,8.6131,8.5859,8.5511,8.5273,8.5019,8.4815,8.4559,8.4349,8.4154,8.4055,8.3971,8.3872,8.378,8.3691,8.3632,8.3557,8.3535,8.3507,8.3538,8.3514,8.3457,8.3476,8.3427,8.3406,8.3422,8.3411,8.3451,8.3422,8.3386,8.3398,8.3432,8.3484,8.3438,8.3404,8.3444,8.3487,8.3499,8.3485,8.3546,8.3522,8.3585,8.3568,8.3571,8.3626,8.3634,8.3652,8.3651,8.3618,8.366,8.3637,8.3604,8.3599,8.3631,8.3588,8.3533,8.3525,8.3492,8.35,8.3529,8.3524,8.3512,8.3514,8.3501,8.3527,8.3548,8.3542,8.3583,8.3559,8.3554,8.3591,8.3598,8.3584,8.3587,8.3588,8.3556,8.3571,8.3618,8.36,8.3537,8.3522,8.3579,8.3569,8.3585,8.3594,8.358,8.3592,8.361,8.3618,8.3634,8.3631,8.3576,8.3699,8.3826,8.3791,8.3764,8.3882,8.4206,8.4549,8.4512,8.4377,8.422,8.4116,8.408,8.3976,8.3832,8.3638,8.3507,8.3506,8.3533,8.3495,8.3502,8.3502,8.3509,8.3542,8.3507,8.3452,8.346,8.3486,8.3517,8.3508,8.3312,8.2628,8.2159,8.2152,8.2473,8.4124,8.7706,9.2061,9.2867,8.8657,8.3582,8.0557,8.0663,8.1467,8.1315,8.1679,8.1815,8.1884,8.2529,8.3351,8.3872,8.3865,8.3797,8.3867,8.3896,8.3952,8.3998,8.4032,8.409,8.4123,8.4158,8.4185,8.4217,8.4303,8.4341,8.4386,8.4457,8.4472,8.45,8.4581,8.4613,8.4682,8.4752,8.4833,8.4951,8.5033,8.5089,8.5167,8.5222,8.5317,8.5386,8.5514,8.563,8.5752,8.5835,8.5939,8.6062,8.6193,8.6327,8.6439,8.66,8.6736,8.6876,8.6938,8.706,8.7122,8.722,8.7248,8.7284,8.7275,8.7171,8.7015,8.6815,8.6523,8.6266,8.5926,8.5572,8.5295,8.5082,8.485,8.4627,8.4432,8.4202,8.4084,8.3992,8.3907,8.3848,8.3762,8.3703,8.3677,8.3634,8.3635,8.3611,8.358,8.354,8.358,8.3598,8.3526,8.3567,8.3625,8.3603,8.3602,8.3608,8.3642,8.3652,8.3667,8.3669,8.3666,8.3677,8.3707,8.3772,8.377,8.3762,8.3758,8.3764,8.3781,8.3775,8.3762,8.3758,8.3792,8.3756,8.3744,8.3735,8.3768,8.3787,8.3736,8.3763,8.3723,8.374,8.3753,8.3742,8.3719,8.3716,8.3669,8.3705,8.3733,8.3724,8.3714,8.3685,8.3685,8.367,8.3708,8.3688,8.3687,8.3693,8.3717,8.3731,8.3721,8.371,8.367,8.3693,8.3665,8.369,8.3682,8.3704,8.3684,8.3671,8.368,8.3664,8.3678,8.3724,8.3821,8.3804,8.3731,8.3831,8.4002,8.3964,8.3856,8.3916,8.4277,8.4698,8.4733,8.4459,8.428,8.4169,8.4147,8.4117,8.4005,8.3838,8.3622,8.3602,8.3602,8.3538,8.359,8.3565,8.3555,8.3544,8.3533,8.3533,8.3571,8.3534,8.3553,8.35,8.3376,8.2723,8.2003,8.1891,8.2054,8.3154,8.6092,9.0489,9.2764,9.0746,8.6045,8.3625,8.193,8.2198,8.2306,8.2157,8.2399,8.2168,8.2847,8.3583,8.404,8.379,8.3881,8.3816,8.3937,8.3851,8.3993,8.3961,8.4099,8.4039,8.4168,8.4097,8.4226,8.4204,8.4273,8.427,8.4372,8.4342,8.4466,8.4476,8.4558,8.4576,8.4722,8.4725,8.483,8.4872,8.4958,8.5042,8.5174,8.5208,8.5258,8.5323,8.5428,8.5534,8.5687,8.5792,8.5894,8.6011,8.6146,8.6262,8.6394,8.6483,8.6626,8.6782,8.6884,8.6958,8.7036,8.7085,8.7157,8.7151,8.7067,8.6957,8.6732,8.6474,8.6186,8.5896,8.5585,8.5343,8.5087,8.4882,8.4644,8.4438,8.4275,8.4157,8.4042,8.3966,8.3851,8.3859,8.3805,8.3788,8.3726,8.3768,8.3678,8.3699,8.3656,8.3693,8.3644,8.3652,8.3626,8.3644,8.3623,8.3619,8.3619,8.3607,8.3636,8.3663,8.3632,8.3708,8.3681,8.3716,8.3718,8.374,8.3714,8.3761,8.3712,8.3803,8.3759,8.3758,8.3741,8.3767,8.3795,8.3789,8.3767,8.3816,8.3761,8.376,8.3753,8.3789,8.37,8.3722,8.3678,8.3703,8.3665,8.3688,8.3672,8.3689,8.368,8.364,8.365,8.3699,8.3689,8.3709,8.3696,8.3674,8.3677,8.3747,8.3734,8.3718,8.3746,8.3743,8.377,8.3761,8.3731,8.3741,8.3716,8.374,8.3752,8.3764,8.3748,8.3754,8.3723,8.3772,8.3744,8.3737,8.3728,8.373,8.3743,8.3713,8.3724,8.368,8.3698,8.3696,8.3697,8.3685,8.3685,8.3675,8.3714,8.3699,8.3682,8.3741,8.3804,8.3721,8.37,8.3832,8.3887,8.3844,8.3802,8.3972,8.446,8.4704,8.4526,8.4293,8.4164,8.4028,8.4061,8.4009,8.3932,8.3757,8.3571,8.3486,8.3511,8.3513,8.3513,8.3471,8.3494,8.3464,8.3487,8.3481,8.3475,8.3452,8.3463,8.3419,8.3051,8.21,8.1723,8.1656,8.2337,8.4188,8.8178,9.192,9.2145,8.8871,8.433,8.3056,8.3107,8.3145,8.2766,8.2867,8.2517,8.2891,8.3702,8.3834,8.3875,8.3718,8.38,8.3674,8.3809,8.3761,8.3878,8.3828,8.3901,8.3901,8.4006,8.3912,8.4023,8.3979,8.4067,8.4064,8.4189,8.4159,8.4239,8.4234,8.436,8.4354,8.4445,8.4466,8.4553,8.459,8.4699,8.4732,8.4823,8.4914,8.501,8.5045,8.5141,8.524,8.5387,8.5464,8.5611,8.5705,8.5834,8.5904,8.6094,8.6255,8.6335,8.6459,8.6604,8.6693,8.6801,8.6826,8.684,8.6809,8.6768,8.6657,8.6471,8.6196,8.5911,8.5675,8.5393,8.508,8.4831,8.4587,8.4377,8.4237,8.404,8.3944,8.3777,8.3738,8.3614,8.358,8.3498,8.3493,8.3489,8.351,8.3501,8.3452,8.339,8.3414,8.3376,8.3422,8.3347,8.3351,8.3299,8.3335,8.3285,8.3317,8.3296,8.3319,8.3305,8.3377,8.337,8.3344,8.334,8.3425,8.3372,8.3412,8.3344,8.3422,8.3369,8.3438,8.3433,8.3434,8.3415,8.3455,8.3462,8.3439,8.3441,8.3453,8.3422,8.3446,8.3449,8.3423,8.338,8.3391,8.3372,8.3377,8.3362,8.3351,8.3373,8.3335,8.3359,8.3349,8.3293,8.3333,8.3361,8.3348,8.3327,8.3344,8.335,8.3326,8.3361,8.3308,8.3275,8.3293,8.3272,8.3308,8.3272,8.33,8.3318,8.3314,8.3279,8.3281,8.3262,8.3261,8.3272,8.3273,8.3255,8.3257,8.3263,8.3272,8.3288,8.328,8.3261,8.3277,8.3242,8.326,8.3225,8.3151,8.318,8.3209,8.3225,8.3201,8.3186,8.3138,8.3138,8.3136,8.3181,8.3222,8.3198,8.3161,8.3125,8.3286,8.3206,8.315,8.3299,8.3714,8.4131,8.3956,8.3741,8.3539,8.3443,8.3498,8.3465,8.3299,8.3113,8.2877,8.2865,8.2791,8.2807,8.2793,8.2772,8.2755,8.2765,8.2738,8.2756,8.2746,8.2778,8.2787,8.272,8.2474,8.1655,8.1102,8.0994,8.1311,8.2795,8.6334,8.8753,9.1473,9.0617,8.614,8.2224,8.1627,8.2117,8.167,8.2044,8.1413,8.1808,8.2302,8.3091,8.2998,8.2986,8.2886,8.2951,8.2851,8.2961,8.2894,8.2987,8.2992,8.3064,8.3022,8.3088,8.3127,8.3205,8.322,8.3245,8.3245,8.3296,8.3369,8.3439,8.3499,8.3575,8.357,8.3663,8.3711,8.3762,8.3857,8.3966,8.4021,8.4099,8.4136,8.4237,8.4316,8.4472,8.4583,8.4658,8.4803,8.49,8.5037,8.5152,8.5264,8.5356,8.5478,8.5564,8.5679,8.5762,8.5877,8.594,8.6038,8.6006,8.5995,8.5867,8.5684,8.5476,8.5277,8.487,8.4471,8.4257,8.4049,8.3751,8.3529,8.327,8.3114,8.2938,8.2902,8.281,8.2695,8.2639,8.2594,8.2547,8.2552,8.2416,8.2437,8.2353,8.2385,8.2325,8.2298,8.2274,8.2331,8.2334,8.2361,8.2319,8.228,8.2281,8.2384,8.2377,8.2429,8.2426,8.2463,8.241,8.2431,8.2446,8.2513,8.2508,8.253,8.2573,8.2527,8.2553,8.2596,8.261,8.258,8.2577,8.258,8.2551,8.2585,8.2579,8.252,8.2519,8.2555,8.2494,8.2546,8.247,8.2509,8.2517,8.2515,8.25,8.2506,8.2519,8.254,8.2508,8.2497,8.2474,8.2468,8.2434,8.245,8.2469,8.2422,8.248,8.2477,8.2451,8.2461,8.2449,8.2428,8.2429,8.2449,8.2498,8.2495,8.2502,8.2503,8.2464,8.2453,8.2453,8.2461,8.2483,8.25,8.2488,8.2438,8.2454,8.2459,8.2468,8.2489,8.2515,8.2619,8.2626,8.2608,8.2563,8.2642,8.2774,8.277,8.2894,8.2971,8.3272,8.3522,8.3515,8.3301,8.3155,8.3032,8.2992,8.2928,8.2843,8.2656,8.2495,8.2501,8.2459,8.2523,8.2545,8.2594,8.2539,8.2509,8.2512,8.2526,8.251,8.2553,8.2562,8.2517,8.2334,8.1582,8.1199,8.1227,8.1667,8.3499,8.7421,9.1396,9.1669,8.7116,8.209,7.9667,8.0332,8.0518,8.0587,8.1047,8.0975,8.1162,8.1774,8.269,8.3046,8.3087,8.2999,8.3095,8.307,8.3186,8.3194,8.3202,8.3253,8.3371,8.3427,8.3467,8.3462,8.3517,8.3533,8.363,8.363,8.3718,8.3735,8.3793,8.3822,8.3893,8.3955,8.4028,8.4112,8.4204,8.4272,8.4384,8.4442,8.4527,8.4622,8.4731,8.4836,8.4904,8.5022,8.5118,8.5254,8.5369,8.5502,8.5615,8.5717,8.5833,8.6027,8.6086,8.6214,8.6293,8.6382,8.6445,8.6483,8.6477,8.6296,8.6188,8.6017,8.5751,8.5523,8.5166,8.4902,8.4617,8.4438,8.4165,8.3926,8.3736,8.3599,8.3469,8.3346,8.3236,8.3201,8.3155,8.3098,8.3062,8.3026,8.302,8.3024,8.2969,8.2977,8.2934,8.2947,8.2963,8.2963,8.2983,8.2982,8.2986,8.3026,8.3003,8.3027,8.3051,8.3067,8.307,8.3098,8.31,8.3103,8.3119,8.3153,8.3149,8.3175,8.3171,8.3159,8.3138,8.3179,8.3179,8.3192,8.3167,8.3191,8.3191,8.3196,8.3166,8.3154,8.3175,8.3153,8.3133,8.3086,8.3113,8.3125,8.3161,8.3122,8.3125,8.3103,8.3108,8.3121,8.3144,8.3108,8.3085,8.3119,8.3092,8.3126,8.3155,8.3123,8.3155,8.316,8.3169,8.3144,8.3185,8.3169,8.3184,8.3219,8.3223,8.3185,8.3172,8.3191,8.3238,8.3232,8.3218,8.3172
