2.203,2.5196,2.7914,3.0929,2.8437,2.5343,2.1078,1.9017,1.8665,1.8746,1.9643,2.0242,2.1021,2.0893,2.1134,2.0768,2.1029,2.0735,2.1051,2.081,2.1066,2.0956,2.116,2.0941,2.1173,2.099,2.123,2.1103,2.1289,2.1161,2.1401,2.1332,2.1477,2.1454,2.1653,2.1607,2.1857,2.1793,2.1975,2.1995,2.2215,2.2247,2.2473,2.2437,2.2632,2.2697,2.2965,2.3092,2.3308,2.3519,2.3727,2.3943,2.4209,2.4402,2.469,2.4884,2.5126,2.5316,2.5504,2.5678,2.5771,2.5874,2.5847,2.5734,2.5492,2.5194,2.4733,2.4273,2.37,2.3243,2.2738,2.2368,2.1976,2.1678,2.1433,2.131,2.1099,2.1021,2.0843,2.0798,2.0728,2.076,2.0685,2.0667,2.0612,2.0619,2.0553,2.057,2.0514,2.0558,2.0482,2.0526,2.0455,2.0513,2.0489,2.0533,2.0506,2.055,2.0489,2.0602,2.0525,2.0551,2.0528,2.0611,2.0563,2.0584,2.059,2.0634,2.0602,2.0647,2.0576,2.0649,2.0625,2.0669,2.0599,2.067,2.063,2.0652,2.0612,2.0653,2.0634,2.0642,2.0589,2.0598,2.0534,2.0564,2.0562,2.059,2.0585,2.0619,2.0662,2.0758,2.0748,2.0875,2.0818,2.0749,2.0878,2.1256,2.1485,2.1511,2.1255,2.1205,2.1034,2.0909,2.0837,2.0773,2.059,2.0515,2.049,2.0433,2.0405,2.0354,2.0351,2.033,2.0307,2.0276,2.0291,2.0291,2.0293,2.0289,2.0292,2.0317,2.0311,2.028,2.0305,2.0316,2.0287,1.9771,1.86,1.8119,1.9443,2.229,2.5672,2.9274,3.2031,2.8726,2.3856,2.2652,2.132,2.0505,2.019,2.0627,2.1096,2.1131,2.1046,2.0896,2.0897,2.0772,2.0851,2.0802,2.0901,2.0845,2.0939,2.0925,2.1026,2.1008,2.1102,2.1112,2.1214,2.1172,2.1269,2.1323,2.1374,2.1437,2.1522,2.1563,2.1643,2.1684,2.1833,2.1908,2.205,2.2139,2.2261,2.2333,2.2545,2.2593,2.2784,2.2938,2.314,2.3337,2.3561,2.3726,2.4026,2.4264,2.4551,2.4723,2.493,2.5183,2.5447,2.5633,2.5758,2.5881,2.5959,2.5905,2.5827,2.558,2.5168,2.4734,2.4177,2.3694,2.318,2.2712,2.233,2.1988,2.171,2.1449,2.123,2.111,2.1013,2.0944,2.0854,2.0838,2.0818,2.0784,2.078,2.0754,2.0713,2.073,2.0713,2.07,2.0655,2.0671,2.0697,2.0667,2.0607,2.0591,2.0602,2.0589,2.0564,2.0599,2.0596,2.0605,2.0579,2.0593,2.0601,2.0567,2.0587,2.0593,2.063,2.0605,2.0632,2.064,2.0597,2.0605,2.0578,2.0641,2.0602,2.0642,2.059,2.0631,2.0644,2.0586,2.0594,2.0597,2.0606,2.0631,2.0633,2.0604,2.0568,2.0578,2.0578,2.0552,2.0563,2.0566,2.0565,2.0552,2.0564,2.0581,2.0581,2.0602,2.0617,2.0651,2.0715,2.079,2.0769,2.086,2.0832,2.0772,2.0713,2.103,2.1556,2.1457,2.1287,2.1207,2.1075,2.0972,2.0896,2.0813,2.0609,2.0579,2.0587,2.0564,2.0528,2.0466,2.0476,2.0461,2.0461,2.0392,2.038,2.0366,2.0328,2.0365,2.0387,2.0378,2.0374,2.0359,2.0328,2.0353,2.0283,2.0108,1.9008,1.8164,1.8946,2.1439,2.4809,2.801,3.1768,2.9814,2.4527,2.2052,2.0971,2.0584,2.0184,2.0915,2.1187,2.1183,2.1068,2.0961,2.0956,2.0895,2.0994,2.0968,2.0948,2.0968,2.1031,2.1057,2.1071,2.1114,2.1148,2.1201,2.1253,2.1325,2.1339,2.1414,2.1497,2.1547,2.1622,2.1638,2.1704,2.175,2.1848,2.1946,2.2063,2.2151,2.2289,2.2397,2.2574,2.2671,2.2801,2.3017,2.3185,2.3407,2.3643,2.3825,2.4079,2.4307,2.4421,2.4668,2.4913,2.5083,2.5306,2.5533,2.5735,2.5889,2.5984,2.6038,2.5956,2.5697,2.5345,2.485,2.4388,2.3837,2.3435,2.289,2.2482,2.2266,2.1961,2.1669,2.1444,2.1244,2.1128,2.0972,2.0889,2.0813,2.0741,2.0726,2.0699,2.0659,2.0664,2.0638,2.0603,2.0603,2.0617,2.058,2.0588,2.06,2.0628,2.0593,2.0563,2.0551,2.0565,2.0525,2.0544,2.0523,2.0568,2.0534,2.0533,2.0545,2.0494,2.0539,2.0519,2.0525,2.0491,2.0509,2.0493,2.0526,2.0531,2.0526,2.0491,2.052,2.0547,2.0503,2.0483,2.0539,2.0524,2.0521,2.0486,2.0515,2.0517,2.05,2.0471,2.0482,2.0477,2.0484,2.047,2.0496,2.0444,2.0486,2.0423,2.0438,2.0485,2.0423,2.0443,2.0475,2.0475,2.047,2.0486,2.0488,2.0482,2.0479,2.051,2.0529,2.0598,2.0633,2.0663,2.0602,2.0566,2.0467,2.0815,2.1271,2.1303,2.1097,2.0995,2.0859,2.0801,2.0745,2.0605,2.0471,2.0355,2.0344,2.0276,2.0316,2.0205,2.0212,2.019,2.0182,2.0189,2.0178,2.0116,2.0176,2.0174,2.0172,2.0175,2.021,2.0157,2.012,2.0147,2.0211,1.9575,1.8412,1.8038,1.8636,2.0961,2.4248,2.6982,3.0808,2.9679,2.4346,2.1539,2.032,1.9889,1.977,2.0493,2.0901,2.1064,2.0907,2.0806,2.07,2.0675,2.0742,2.0648,2.0719,2.0725,2.0775,2.0751,2.084,2.086,2.0919,2.0924,2.1074,2.108,2.1137,2.1175,2.123,2.1298,2.1366,2.1484,2.1575,2.1579,2.1665,2.1764,2.1901,2.1937,2.2048,2.2178,2.2311,2.25,2.2715,2.2907,2.3063,2.3268,2.3426,2.3672,2.3861,2.4128,2.4357,2.4659,2.4759,2.496,2.5195,2.5407,2.5605,2.5724,2.5922,2.595,2.5912,2.577,2.5447,2.506,2.4583,2.4052,2.3513,2.306,2.2586,2.2191,2.1851,2.1731,2.1468,2.1224,2.1082,2.1015,2.0826,2.0722,2.0701,2.0661,2.0642,2.07,2.0663,2.0616,2.0594,2.0509,2.0519,2.0512,2.0497,2.0526,2.0526,2.0595,2.0584,2.0582,2.0534,2.0542,2.0527,2.0612,2.0658,2.0653,2.0629,2.0603,2.0712,2.0656,2.0601,2.0578,2.0636,2.0668,2.0629,2.062,2.0573,2.0645,2.0576,2.0615,2.0585,2.0579,2.0517,2.0519,2.0543,2.0575,2.0538,2.0543,2.0597,2.0563,2.0562,2.0647,2.055,2.0594,2.0597,2.0578,2.0573,2.0563,2.0673,2.0739,2.0814,2.0847,2.0835,2.0746,2.0828,2.1171,2.1411,2.1527,2.1317,2.1124,2.1049,2.0936,2.0796,2.0628,2.0581,2.0531,2.0519,2.0493,2.0489,2.0442,2.0509,2.0345,2.0316,2.0314,2.0321,2.0298,2.0318,2.0313,2.0343,2.0397,2.0328,2.0263,2.033,2.0249,2.0287,2.0018,1.9072,1.8454,1.916,2.1833,2.5065,2.7803,3.0541,2.78,2.1914,1.934,1.8188,1.8254,1.9081,1.9778,2.0596,2.0904,2.0959,2.0901,2.0867,2.0864,2.0884,2.0926,2.0936,2.0903,2.0915,2.1019,2.1051,2.1077,2.1107,2.1131,2.1152,2.1176,2.1315,2.1297,2.1387,2.1426,2.152,2.1586,2.1621,2.1725,2.1826,2.1965,2.2035,2.2083,2.2271,2.2416,2.2551,2.2676,2.2822,2.3059,2.3226,2.343,2.3603,2.3868,2.3967,2.4247,2.4458,2.4645,2.4895,2.5091,2.5301,2.5461,2.5664,2.5794,2.5863,2.5839,2.5754,2.5534,2.5195,2.4776,2.4274,2.3774,2.3201,2.2997,2.2547,2.2125,2.1781,2.1527,2.1332,2.1107,2.1011,2.086,2.0816,2.0705,2.0686,2.0641,2.0553,2.0512,2.0527,2.0467,2.0542,2.0517,2.0467,2.0465,2.0391,2.0428,2.048,2.0501,2.0469,2.0433,2.0432,2.04,2.0421,2.0427,2.0512,2.0534,2.0545,2.0545,2.044,2.0433,2.0494,2.0509,2.0568,2.057,2.0521,2.0482,2.0471,2.044,2.041,2.0439,2.0456,2.0418,2.0364,2.038,2.031,2.0343,2.0382,2.0349,2.0376,2.0397,2.042,2.0455,2.0466,2.0497,2.0559,2.0535,2.0394,2.0584,2.09,2.1203,2.1116,2.0962,2.0902,2.0714,2.059,2.049,2.031,2.0287,2.0284,2.0158,2.0113,2.0077,2.0043,2.0048,2.0028,2.0028,2.0019,1.9981,2.0005,2.0031,2.0003,1.9961,1.9943,1.9944,1.9918,1.9942,1.9929,1.9586,1.8612,1.8207,1.8371,2.037,2.3608,2.6209,2.9737,2.9893,2.4884,2.1012,1.9404,1.8758,1.9067,1.9484,2.0219,2.0548,2.066,2.0568,2.0525,2.0501,2.0505,2.0486,2.0493,2.0483,2.0507,2.0584,2.0558,2.0638,2.0706,2.075,2.0776,2.0815,2.085,2.0895,2.0919,2.1064,2.1104,2.1161,2.1221,2.1293,2.129,2.1383,2.1522,2.162,2.1659,2.1814,2.1947,2.2121,2.2225,2.2401,2.2575,2.2818,2.3021,2.3222,2.3419,2.3618,2.385,2.407,2.4217,2.4367,2.4602,2.4777,2.4988,2.5115,2.5224,2.5237,2.5143,2.4953,2.4619,2.4163,2.362,2.3123,2.2662,2.221,2.1805,2.145,2.1175,2.1001,2.084,2.0638,2.0529,2.0414,2.0371,2.027,2.0258,2.0228,2.0209,2.0146,2.0161,2.0125,2.0091,2.0084,2.0008,2.0048,2.0043,2.0019,2.0037,2.0019,2.0033,2.0037,2.0011,1.9991,2.0026,2.0067,2.0063,2.0036,2.0072,2.0004,2.0047,2.006,2.0042,2.0032,2.0037,2.0019,2.007,2.0034,2.0089,2.0074,2.0055,2.006,2.0037,2.0024,1.9985,1.9978,1.9965,1.9977,1.9913,1.9953,1.9963,1.994,1.9949,1.9939,1.9937,1.9994,2.0085,2.0171,2.0211,2.0277,2.0214,2.0148,2.0312,2.0684,2.0997,2.087,2.0748,2.0611,2.042,2.0276,2.0204,2.0055,1.9881,1.9858,1.9789,1.9788,1.9777,1.9726,1.9649,1.9676,1.9648,1.9667,1.9637,1.9645,1.9611,1.962,1.9596,1.9621,1.9599,1.9583,1.9637,1.9594,1.9244,1.8101,1.7319,1.7519,1.9393,2.2692,2.5717,2.9755,3.0697,2.5977,2.2288,2.0671,1.9793,1.9533,1.9779,2.0348,2.0484,2.0384,2.0177,2.0145,2.014,2.0094,2.0074,2.012,2.0129,2.0182,2.0177,2.0249,2.0256,2.031,2.0387,2.0412,2.0446,2.0505,2.0553,2.0622,2.0644,2.0759,2.0799,2.0897,2.098,2.1026,2.1094,2.12,2.1303,2.1432,2.1544,2.1654,2.1816,2.1946,2.2118,2.2317,2.2534,2.2706,2.2939,2.3164,2.3388,2.3622,2.3848,2.4087,2.4188,2.4393,2.4603,2.4835,2.4997,2.5067,2.5136,2.5109,2.4916,2.4598,2.413,2.3685,2.3173,2.2671,2.2193,2.1777,2.1424,2.1089,2.0833,2.0702,2.0557,2.036,2.0297,2.0147,2.0127,2.0068,2.0033,1.9998,1.9986,1.9961,1.9974,1.991,1.9899,1.9906,1.9887,1.9905,1.9858,1.9883,1.9869,1.9856,1.9809,1.9828,1.9851,1.9806,1.9821,1.981,1.9806,1.982,1.9848,1.9821,1.9819,1.9802,1.9883,1.9819,1.9823,1.9822,1.9852,1.9842,1.983,1.9877,1.984,1.9792,1.982,1.9807,1.9815,1.9786,1.9814,1.979,1.977,1.9776,1.9753,1.9717,1.9764,1.9765,1.9714,1.974,1.9707,1.9711,1.973,1.9735,1.9799,1.9877,2.0008,2.001,2.0025,1.996,1.9836,2.0092,2.0496,2.0849,2.068,2.0483,2.0348,2.0226,2.012,1.9986,1.9901,1.9705,1.9682,1.9625,1.9572,1.9551,1.9526,1.952,1.9486,1.9446,1.9477,1.9465,1.9429,1.9418,1.9432,1.9418,1.9398,1.9388,1.9374,1.9418,1.9422,1.9262,1.839,1.734,1.7541,1.9668,2.2972,2.5797,2.9755,2.9741,2.4649,2.1396,2.0026,1.9375,1.9202,1.9738,2.0157,2.0311,2.0252,2.0085,1.997,1.9921,1.9937,1.9952,1.9982,1.9981,2.0034,2.0044,2.0084,2.0142,2.0143,2.0192,2.0285,2.0321,2.0351,2.0411,2.0452,2.0506,2.0556,2.0605,2.0702,2.0771,2.0864,2.0975,2.1114,2.1199,2.127,2.1441,2.1567,2.1719,2.1858,2.2037,2.2204,2.2418,2.2625,2.2841,2.2939,2.3016,2.3421,2.365,2.3822,2.4085,2.4321,2.4549,2.4699,2.4903,2.5007,2.5108,2.5059,2.4914,2.4655,2.4267,2.3764,2.3274,2.2753,2.2507,2.2102,2.1651,2.1299,2.1051,2.0781,2.0572,2.0388,2.0294,2.017,2.0125,2.0022,2.0017,1.9965,1.9947,1.9927,1.99,1.9941,1.9884,1.9893,1.9877,1.9869,1.9852,1.982,1.9851,1.9891,1.988,1.9904,1.9818,1.9825,1.9807,1.9859,1.9831,1.9803,1.982,1.989,1.9876,1.9856,1.9822,1.9885,1.9908,1.9841,1.9833,1.9843,1.9771,1.9833,1.9801,1.9804,1.9827,1.9832,1.9837,1.9799,1.9829,1.9804,1.978,1.9773,1.9722,1.973,1.9757,1.9804,1.9779,1.9808,1.9811,1.9757,1.969,1.9755,1.9758,1.979,1.9721,1.9729,1.9786,1.9884,1.9951,2.0087,2.0018,2.0002,1.9908,1.9915,2.0187,2.0631,2.0874,2.0679,2.0579,2.0421,2.026,2.0091,1.9967,1.9792,1.9821,1.9738,1.9711,1.9683,1.9662,1.9628,1.9605,1.9592,1.9596,1.9547,1.9574,1.9555,1.958,1.9632,1.957,1.956,1.9576,1.9535,1.954,1.9478,1.8844,1.786,1.7777,1.9685,2.2837,2.5529,2.8821,3.0079,2.7438,2.18,1.9187,1.8256,1.8178,1.879,1.944,2.0177,2.018,2.024,2.0081,2.0271,2.005,2.0166,2.005,2.0255,2.0205,2.0343,2.0209,2.0318,2.0247,2.0473,2.0295,2.0447,2.0533,2.0631,2.0626,2.0712,2.0743,2.0901,2.0895,2.0987,2.1038,2.1168,2.1298,2.1458,2.1483,2.1547,2.1666,2.1916,2.2021,2.2221,2.2405,2.2636,2.274,2.2884,2.3114,2.3404,2.3643,2.3866,2.4052,2.4214,2.4513,2.4686,2.485,2.5028,2.5149,2.5181,2.531,2.5177,2.5056,2.4766,2.4413,2.4016,2.3532,2.2974,2.2482,2.2004,2.1669,2.1416,2.1249,2.0945,2.0809,2.0588,2.0451,2.0365,2.0291,2.0215,2.0228,2.0103,2.0182,2.0106,2.0067,2.0081,2.0053,2.0087,2.0092,2.0032,2.005,2.0006,2.0049,2.0016,2.0109,2.0051,2.0116,2.0115,2.0141,2.0069,2.012,2.0124,2.0181,2.0119,2.0114,2.0076,2.0155,2.0132,2.0149,2.0109,2.0112,2.0059,2.0149,2.0146,2.0129,2.0098,2.0111,2.0136,2.0054,2.0104,2.0082,2.0028,2.0063,2.005,2.0101,2.0099,2.0153,2.0232,2.0387,2.0422,2.0404,2.0324,2.0318,2.0465,2.0821,2.0994,2.1195,2.1044,2.0867,2.0741,2.0623,2.0557,2.0366,2.0225,2.0156,2.0033,2.0015,2.0034,2.0001,2.0014,2.0009,2.0004,1.9919,1.9887,1.9858,1.9917,1.9865,1.9881,1.9921,1.9923,1.9876,1.9893,1.9834,1.9792,1.9453,1.855,1.8118,1.9271,2.2236,2.5259,2.7894,3.0135,2.6656,2.3383,1.9693,1.7914,1.7792,1.8218,1.9207,1.9872,2.0489,2.0451,2.0675,2.0425,2.0563,2.0392,2.0549,2.0446,2.064,2.052,2.0681,2.0586,2.0695,2.0695,2.0873,2.0806,2.0967,2.094,2.1058,2.1073,2.1193,2.1175,2.1288,2.1309,2.1459,2.1495,2.1684,2.1754,2.1869,2.1954,2.2109,2.2185,2.235,2.2527,2.2679,2.2857,2.3011,2.3268,2.3427,2.3706,2.3888,2.4126,2.4309,2.4599,2.48,2.5021,2.5155,2.5354,2.5453,2.559,2.5558,2.5444,2.5232,2.4974,2.4562,2.4116,2.3593,2.3125,2.2619,2.2271,2.1917,2.1563,2.1276,2.1125,2.0949,2.0841,2.0738,2.0735,2.0603,2.0582,2.054,2.046,2.0459,2.0486,2.0474,2.0508,2.0432,2.0439,2.0347,2.0401,2.0368,2.046,2.0416,2.0487,2.0476,2.0457,2.0436,2.0436,2.041,2.0454,2.0453,2.0508,2.045,2.0474,2.0452,2.0453,2.0452,2.0481,2.0428,2.0455,2.0439,2.0424,2.0404,2.0403,2.0442,2.0414,2.0355,2.036,2.0346,2.0322,2.0337,2.0326,2.0342,2.0336,2.0311,2.0377,2.0376,2.0408,2.0473,2.0587,2.0684,2.0774,2.0631,2.0564,2.0694,2.1046,2.1281,2.1421,2.1225,2.104,2.0924,2.0808,2.0726,2.0585,2.0423,2.0325,2.0331,2.0201,2.0197,2.0144,2.014,2.0084,2.009,2.0089,2.0056,1.9999,2.0036,1.997,2.0046,2.0026,2.0054,2.005,2.0098,2.0067,2.0047,1.9515,1.8483,1.7967,1.9297,2.2093,2.5411,2.8749,3.0862,3.0321,2.3236,2.1657,2.0622,1.9553,1.9953,2.0063,2.0948,2.0714,2.1027,2.0514,2.0761,2.0456,2.0746,2.0508,2.078,2.0516,2.0792,2.0592,2.0932,2.0688,2.0914,2.0755,2.0991,2.089,2.1117,2.0988,2.1191,2.113,2.1337,2.1283,2.1491,2.1428,2.159,2.1637,2.1842,2.1868,2.2068,2.215,2.2325,2.2394,2.2556,2.2683,2.2886,2.3086,2.3267,2.3477,2.3712,2.3935,2.4154,2.4426,2.4594,2.4815,2.5009,2.524,2.5353,2.5526,2.5565,2.5587,2.5501,2.5422,2.5068,2.4646,2.4174,2.3733,2.3196,2.2782,2.2316,2.2016,2.1636,2.1443,2.114,2.1051,2.0867,2.0834,2.0682,2.0646,2.0581,2.0595,2.0606,2.062,2.0539,2.0589,2.0463,2.0504,2.0456,2.0527,2.0396,2.0473,2.042,2.0472,2.0431,2.0456,2.0405,2.0496,2.0433,2.0527,2.0438,2.049,2.0447,2.0479,2.0459,2.0504,2.044,2.0473,2.0453,2.0507,2.0444,2.0484,2.0445,2.051,2.0474,2.0498,2.0458,2.0487,2.0384,2.0428,2.0447,2.0422,2.0371,2.0369,2.0356,2.0362,2.0364,2.0377,2.0313,2.0354,2.0301,2.0385,2.0323,2.0339,2.0292,2.0313,2.0327,2.0353,2.0383,2.0497,2.0606,2.0686,2.0688,2.0577,2.0457,2.0762,2.1154,2.1419,2.1295,2.1026,2.092,2.0763,2.0697,2.0552,2.0435,2.0343,2.0265,2.0217,2.0188,2.0201,2.0136,2.0131,2.01,2.0043,2.0096,2.0072,2.0052,2.0042,2.0063,2.0059,2.0083,2.0058,2.0092,2.0042,2.0065,1.9611,1.8478,1.8009,1.8216,2.0367,2.3678,2.6453,3.0488,3.0485,2.5454,2.2084,2.0641,1.9917,1.9758,2.0272,2.078,2.0872,2.0844,2.0628,2.0588,2.0545,2.0593,2.0555,2.0629,2.0626,2.0638,2.066,2.0708,2.07,2.0826,2.0826,2.0914,2.0904,2.1006,2.1034,2.1139,2.114,2.1277,2.1272,2.1372,2.1353,2.15,2.1573,2.17,2.1793,2.1893,2.1999,2.2187,2.2297,2.2482,2.2593,2.2863,2.299,2.3225,2.3392,2.3616,2.3859,2.4056,2.4271,2.4402,2.459,2.4796,2.4981,2.5199,2.5355,2.5515,2.5527,2.5566,2.5414,2.5196,2.4765,2.4322,2.3825,2.3363,2.2887,2.2471,2.2064,2.1739,2.1581,2.131,2.1074,2.0924,2.0736,2.0713,2.0603,2.056,2.0489,2.0441,2.0436,2.0396,2.0366,2.0382,2.0368,2.0342,2.0334,2.0336,2.0347,2.0346,2.0324,2.0309,2.0335,2.0301,2.0301,2.0276,2.0274,2.0272,2.0255,2.0303,2.0253,2.0292,2.0264,2.0215,2.023,2.0217,2.0223,2.0214,2.0232,2.0234,2.0238,2.0209,2.025,2.021,2.0219,2.0196,2.0233,2.0179,2.0176,2.0113,2.0142,2.0133,2.0155,2.0112,2.0136,2.0102,2.0102,2.0087,2.0114,2.0084,2.0078,2.0068,2.0043,2.006,2.0055,1.9975,2.0026,2.004,2.0059,2.0024,2.0076,2.0006,2.0005,2.0005,2.0001,2.0017,2.0027,2.0063,2.0234,2.0341,2.0319,2.0247,2.016,2.0216,2.0623,2.1085,2.1013,2.0849,2.0701,2.054,2.0446,2.0327,2.0201,1.9996,1.999,1.9887,1.9926,1.9838,1.9819,1.9811,1.978,1.978,1.9756,1.975,1.9746,1.9684,1.9716,1.9694,1.9722,1.9681,1.9665,1.971,1.9744,1.9504,1.867,1.7982,1.7546,1.8726,2.1639,2.4678,2.8068,3.0745,2.7645,2.2629,2.047,1.9528,1.9569,1.9481,2.0268,2.0479,2.0447,2.0264,2.0191,2.0156,2.0154,2.0132,2.0126,2.0171,2.0217,2.0259,2.0267,2.0268,2.0352,2.0403,2.045,2.0505,2.0546,2.0626,2.0647,2.0711,2.0783,2.0836,2.0891,2.0979,2.1033,2.1156,2.12,2.132,2.143,2.1556,2.167,2.1807,2.1945,2.2162,2.2317,2.251,2.2679,2.2894,2.3103,2.3385,2.3537,2.386,2.3927,2.4126,2.4345,2.4559,2.4749,2.4919,2.5086,2.5218,2.5282,2.5263,2.5124,2.4882,2.4458,2.401,2.354,2.3025,2.2549,2.2143,2.1715,2.1556,2.1228,2.0989,2.0782,2.0616,2.0446,2.0355,2.0305,2.0244,2.019,2.0147,2.0122,2.0089,2.008,2.0061,2.004,2.0076,2.0044,2.0046,2.0035,2.0041,2.0016,1.9984,2.0063,2.0051,2.002,2.007,2.0058,2.0109,2.009,2.0094,2.0041,2.0018,2.0035,2.0087,2.0019,2.0011,2.007,2.0053,2.0056,2.0093,2.0012,2.004,2.0074,2.0059,2.0052,2.0038,2.0045,2.0033,2.0078,2.0049,2.0032,2.0015,2.0025,2.0023,2.0031,2.0008,2.0034,2.0013,1.9985,1.995,1.9993,1.9973,1.9973,2.0027,1.9998,2.0015,2.0004,2.0011,2.0017,2.001,2.0011,2.0013,2.0002,1.9982,1.9994,1.9974,1.9974,1.9985,1.999,1.9963,1.9993,1.9982,1.9976,2.004,2.0182,2.029,2.03,2.0246,2.0109,2.0225,2.0596,2.1005,2.0993,2.0813,2.0699,2.0573,2.043,2.0338,2.0231,1.9988,1.9996,1.9909,1.9885,1.9802,1.9841,1.9822,1.9781,1.9785,1.9714,1.977,1.9776,1.9721,1.9737,1.9695,1.9721,1.9712,1.9718,1.9705,1.9712,1.97,1.9248,1.8078,1.763,1.895,2.1959,2.4944,2.8169,3.0392,2.6672,2.1664,1.9689,1.8848,1.9054,1.9112,1.9786,2.0364,2.0511,2.0442,2.0258,2.0228,2.0237,2.0269,2.0244,2.0271,2.0278,2.0339,2.0352,2.0382,2.0381,2.0436,2.0469,2.0572,2.0632,2.0729,2.0754,2.0811,2.0925,2.1004,2.0972,2.108,2.1141,2.1228,2.1339,2.1492,2.1607,2.1752,2.1816,2.1936,2.2068,2.2257,2.2512,2.2594,2.275,2.2936,2.3134,2.3266,2.3517,2.3782,2.4016,2.4253,2.4469,2.466,2.4856,2.5044,2.5355,2.5529,2.5517,2.5439,2.5323,2.5062,2.4909,2.455,2.3999,2.3579,2.3015,2.2634,2.2174,2.1843,2.1515,2.1187,2.092,2.0742,2.0649,2.0492,2.0417,2.0347,2.0313,2.0313,2.0276,2.0262,2.024,2.029,2.0263,2.0258,2.0219,2.0246,2.0203,2.0176,2.0197,2.0215,2.0155,2.0159,2.0122,2.0139,2.0141,2.018,2.0212,2.014,2.0205,2.0346,2.0313,2.0244,2.0221,2.0188,2.0224,2.0208,2.0162,2.0224,2.0224,2.0116,2.0111,2.011,2.0143,2.0182,2.0153,2.0115,2.0087,2.006,2.0075,2.0088,2.0088,2.0104,2.0097,2.0092,2.0052,2.003,2.0066,2.0092,2.0071,2.0127,2.0091,2.0051,2.0012,2.0065,2.0086,2.006,2.0102,2.006,2.0067,2.0084,2.0134,2.0211,2.0181,2.0154,2.0169,2.0101,2.0114,2.0088,2.0169,2.0246,2.0311,2.0314,2.0291,2.0195,2.0374,2.0748,2.1001,2.1116,2.0984,2.0782,2.0665,2.0538,2.0465,2.0248,2.0131,2.0061,1.9988,1.9938,1.9942,1.9947,1.9973,1.9925,1.9862,1.9799,1.9828,1.9869,1.9854,1.9859,1.9853,1.986,1.9851,1.9826,1.9837,1.9823,1.9838,1.919,1.8138,1.8093,1.9952,2.3217,2.5989,2.9177,2.9543,2.4424,2.1401,1.8992,1.7674,1.8003,1.8727,1.9584,2.013,2.0514,2.0476,2.0504,2.0318,2.0431,2.0354,2.0449,2.04,2.0539,2.0444,2.0613,2.0511,2.062,2.064,2.0741,2.0758,2.0844,2.0888,2.0932,2.0984,2.1105,2.1062,2.1156,2.1198,2.132,2.1379,2.1534,2.1613,2.1693,2.1851,2.1976,2.2025,2.2175,2.2272,2.2526,2.2721,2.2856,2.3049,2.3251,2.3459,2.3688,2.3913,2.4058,2.4242,2.4433,2.4626,2.4858,2.5015,2.5153,2.5287,2.5326,2.5308,2.5237,2.5029,2.4712,2.425,2.3778,2.3251,2.2809,2.238,2.1939,2.1569,2.1283,2.1046,2.0789,2.069,2.0552,2.0503,2.0432,2.037,2.0379,2.03,2.0218,2.017,2.0152,2.0149,2.0133,2.0111,2.0049,2.0063,2.0051,2.0096,2.0092,2.0103,2.006,2.0113,2.0088,2.0105,2.0086,2.0115,2.016,2.0093,2.0118,2.0089,2.0058,2.0125,2.0104,2.0175,2.0202,2.023,2.0188,2.0169,2.0146,2.0158,2.013,2.015,2.0067,2.0083,2.0046,2.0058,2.0023,1.9982,1.999,1.999,2.001,2.0005,1.9965,1.9995,1.9956,1.9945,1.9924,1.9935,1.9937,1.9993,1.9972,1.9996,1.995,1.9968,1.9968,1.9955,1.9951,1.9941,1.9908,1.9908,1.9969,2.0114,2.0221,2.0196,2.0138,2.0046,2.0079,2.0499,2.0925,2.084,2.07,2.0519,2.0462,2.0403,2.0245,2.0169,1.9946,1.9905,1.9814,1.9741,1.9745,1.9716,1.9674,1.9671,1.9605,1.9574,1.9577,1.9572,1.9565,1.9546,1.9546,1.9528,1.9536,1.9559,1.9534,1.9532,1.9486,1.9079,1.7956,1.7326,1.8574,2.134,2.449,2.7628,3.0568,2.7642,2.2369,2.0099,1.9123,1.9132,1.9055,1.9571,2.0098,2.0235,2.0247,2.0136,2.0052,2.0029,2.0035,2.001,2.0032,2.0086,2.0085,2.0137,2.0139,2.0196,2.0251,2.0274,2.0341,2.036,2.0415,2.0483,2.0539,2.0586,2.0647,2.0722,2.0795,2.0855,2.0999,2.1053,2.1141,2.1252,2.1374,2.1536,2.166,2.1777,2.1973,2.2105,2.2222,2.2368,2.2604,2.2787,2.3077,2.3261,2.3486,2.3669,2.3893,2.412,2.4306,2.4512,2.4731,2.4854,2.4995,2.506,2.4954,2.4802,2.452,2.4341,2.3945,2.3418,2.2974,2.2422,2.204,2.1624,2.1311,2.1,2.0732,2.0543,2.0372,2.0194,2.0099,2.0043,1.9987,1.9957,1.9952,1.9861,1.9875,1.9861,1.9834,1.9816,1.9806,1.9789,1.9761,1.9768,1.9774,1.9775,1.9771,1.9741,1.9753,1.9749,1.9722,1.9737,1.9772,1.971,1.9741,1.9713,1.9718,1.9745,1.9749,1.9715,1.9678,1.9719,1.9737,1.9713,1.9706,1.9684,1.9722,1.9709,1.9693,1.9719,1.9675,1.9639,1.966,1.9661,1.9665,1.9662,1.9647,1.9638,1.9641,1.9658,1.9629,1.9616,1.9643,1.9661,1.9622,1.9613,1.9614,1.9604,1.9614,1.9601,1.9577,1.9579,1.9559,1.9602,1.9573,1.9556,1.9577,1.9588,1.954,1.9584,1.9591,1.9724,1.9853,1.9925,1.9865,1.9664,1.9746,2.01,2.0565,2.0559,2.0379,2.0185,2.0087,2.0076,1.992,1.9862,1.9606,1.9558,1.9501,1.9445,1.941,1.9398,1.9343,1.9313,1.9326,1.9284,1.9248,1.9304,1.9256,1.9281,1.9242,1.9265,1.9251,1.9235,1.9217,1.9248,1.9197,1.8825,1.7662,1.7032,1.8236,2.1045,2.4192,2.7386,3.0346,2.7455,2.2285,2.0062,1.9075,1.906,1.8953,1.9446,1.9925,2.0079,1.9928,1.9875,1.9762,1.9754,1.9703,1.9732,1.9778,1.9769,1.9811,1.9845,1.9889,1.9928,1.9989,1.9992,2.007,2.0128,2.016,2.0158,2.0254,2.0271,2.035,2.0428,2.0489,2.0584,2.0677,2.0768,2.0881,2.0969,2.1108,2.1228,2.1396,2.1539,2.1662,2.1833,2.2059,2.216,2.232,2.2499,2.2721,2.2963,2.3211,2.3406,2.3634,2.3811,2.3971,2.4267,2.4467,2.4606,2.471,2.4777,2.4748,2.459,2.4332,2.3934,2.3738,2.3248,2.2793,2.2282,2.1823,2.1388,2.1039,2.073,2.0455,2.0265,2.0057,1.9909,1.9798,1.974,1.971,1.9673,1.9623,1.9595,1.958,1.9569,1.9546,1.9567,1.9502,1.9487,1.9484,1.9484,1.9481,1.9481,1.9463,1.9474,1.9489,1.9458,1.9456,1.9443,1.9514,1.9479,1.9477,1.9468,1.9524,1.9508,1.9458,1.9493,1.9504,1.9475,1.9472,1.9536,1.9498,1.9491,1.9517,1.9542,1.9522,1.946,1.9458,1.9479,1.949,1.9475,1.9485,1.9471,1.9451,1.9424,1.945,1.9435,1.9395,1.9439,1.9454,1.9444,1.9461,1.9393,1.9404,1.9457,1.9453,1.9447,1.9408,1.9406,1.9425,1.9406,1.9431,1.9402,1.9384,1.9369,1.9382,1.9357,1.9404,1.9434,1.9449,1.9591,1.9704,1.9754,1.9659,1.9521,1.9603,1.9944,2.0467,2.0472,2.025,2.0152,2.0018,1.9936,1.9785,1.971,1.9508,1.9474,1.9416,1.9322,1.929,1.9293,1.9245,1.9211,1.919,1.9192,1.9141,1.9158,1.9138,1.9134,1.9118,1.9134,1.9127,1.9132,1.9128,1.9127,1.9105,1.8634,1.7503,1.6924,1.8171,2.1071,2.4191,2.7456,3.0204,2.7012,2.195,1.9776,1.8871,1.8871,1.8748,1.9402,1.9895,1.9997,1.9901,1.9778,1.968,1.9664,1.9677,1.9644,1.9691,1.9701,1.972,1.9816,1.9849,1.9879,1.9966,2.0004,1.9981,2.0023,2.0117,2.0153,2.0261,2.0265,2.0393,2.0484,2.0546,2.0621,2.072,2.0804,2.0956,2.1039,2.1175,2.1291,2.1461,2.1594,2.1753,2.1929,2.2001,2.222,2.2423,2.2607,2.286,2.3067,2.3288,2.3531,2.3753,2.3993,2.4225,2.443,2.4695,2.4873,2.4987,2.5002,2.4975,2.4864,2.4578,2.4425,2.399,2.3495,2.2986,2.2487,2.201,2.1652,2.1291,2.0955,2.0716,2.0424,2.0306,2.018,2.0083,2.0031,1.9913,1.9891,1.9883,1.9839,1.982,1.9793,1.9791,1.976,1.9748,1.973,1.9761,1.9726,1.9745,1.9779,1.9709,1.9755,1.9752,1.9792,1.9764,1.9786,1.9795,1.9806,1.9807,1.9814,1.9781,1.9777,1.9826,1.9794,1.9875,1.9811,1.9773,1.9854,1.9897,1.9864,1.9803,1.9791,1.9794,1.9837,1.9806,1.9776,1.9817,1.985,1.9872,1.9868,1.9865,1.9783,1.9803,1.9792,1.9779,1.9769,1.9807,1.979,1.983,1.9841,1.9873,1.9837,1.9798,1.984,1.988,1.9854,1.981,1.9801,1.9832,1.9816,1.9872,1.99,1.9894,1.9957,2.0014,2.0161,2.0202,2.0138,2.0106,2.0034,2.0321,2.0852,2.1013,2.0848,2.0631,2.0566,2.0427,2.0412,2.0341,2.0058,1.9986,1.9936,1.9863,1.9852,1.9872,1.977,1.9815,1.9807,1.978,1.9756,1.9661,1.9716,1.9765,1.983,1.9729,1.9765,1.9823,1.9753,1.9742,1.979,1.9506,1.8521,1.773,1.849,2.1261,2.4545,2.7456,3.0391,2.7875,2.2026,1.9488,1.8316,1.8449,1.8954,1.9748,2.0174,2.0486,2.0608,2.0423,2.0427,2.0404,2.0408,2.036,2.0435,2.0429,2.0467,2.0496,2.0549,2.0568,2.0734,2.0719,2.077,2.0847,2.09,2.09,2.1044,2.1068,2.1101,2.114,2.1263,2.1304,2.1428,2.1508,2.1702,2.1749,2.191,2.2,2.2175,2.2356,2.2491,2.2658,2.2855,2.3069,2.3177,2.3349,2.3599,2.3759,2.3943,2.4189,2.4465,2.4651,2.4909,2.5139,2.5259,2.5432,2.5603,2.5661,2.5693,2.5579,2.531,2.4896,2.4513,2.4251,2.3708,2.3247,2.2829,2.2399,2.2028,2.1591,2.1354,2.1132,2.0872,2.0734,2.0678,2.0587,2.0581,2.0501,2.0394,2.0377,2.036,2.0378,2.0357,2.0376,2.0286,2.029,2.0296,2.024,2.0274,2.032,2.0292,2.0295,2.0364,2.0356,2.0413,2.0365,2.0388,2.0403,2.0376,2.0373,2.0366,2.0415,2.0429,2.0411,2.0402,2.0417,2.0437,2.0388,2.0438,2.0464,2.0371,2.0429,2.0378,2.0342,2.0307,2.0354,2.0311,2.0316,2.0316,2.0353,2.0313,2.0309,2.0253,2.0255,2.0254,2.0304,2.0199,2.0282,2.0274,2.0262,2.0263,2.0301,2.0227,2.0298,2.0459,2.0565,2.0547,2.0567,2.0459,2.0492,2.0617,2.098,2.1328,2.1174,2.0994,2.092,2.0774,2.061,2.0509,2.0368,2.0254,2.021,2.0123,2.0106,2.0138,2.0096,2.0073,2.0039,1.9993,1.9995,1.9969,1.9969,2.0035,1.998,1.9969,1.9939,2.0004,2.0001,1.9946,1.9985,1.9579,1.858,1.8105,1.9132,2.2074,2.5169,2.8081,3.067,2.9524,2.4188,2.0193,1.8663,1.824,1.8771,1.9376,2.0157,2.0545,2.0672,2.0585,2.0526,2.0463,2.0492,2.0546,2.0539,2.0575,2.0577,2.0598,2.0636,2.0658,2.0712,2.0755,2.0802,2.088,2.0892,2.0924,2.1028,2.1062,2.1126,2.1206,2.1265,2.1364,2.146,2.1581,2.1664,2.1785,2.1873,2.1963,2.209,2.2276,2.2369,2.2541,2.2721,2.2882,2.3071,2.3309,2.3506,2.371,2.4006,2.4248,2.4444,2.4659,2.4859,2.5047,2.5231,2.5402,2.5446,2.5482,2.5482,2.5313,2.5063,2.4696,2.4195,2.3748,2.3237,2.2752,2.2326,2.1949,2.1565,2.1277,2.1005,2.0853,2.0687,2.0569,2.0491,2.0491,2.04,2.0326,2.0288,2.0263,2.0213,2.0197,2.0182,2.0142,2.0175,2.015,2.0111,2.0135,2.0138,2.0098,2.0137,2.0138,2.0145,2.0156,2.0167,2.0171,2.0184,2.0215,2.0223,2.0222,2.0221,2.0235,2.021,2.0194,2.0185,2.0218,2.0169,2.0188,2.0204,2.021,2.0176,2.0169,2.0189,2.0162,2.0153,2.017,2.0133,2.0114,2.0074,2.0118,2.0119,2.0078,2.0057,2.0039,2.007,2.0044,2.0087,2.0055,2.0037,2.0054,2.005,2.0064,2.006,2.0065,2.0147,2.0232,2.0366,2.0361,2.0238,2.0202,2.0306,2.0719,2.1168,2.0977,2.0851,2.0724,2.0552,2.0443,2.0385,2.0227,2.0111,2.012,2.0072,2.0016,1.9971,1.9913,1.9884,1.9903,1.9858,1.9869,1.9859,1.9845,1.9814,1.9805,1.9816,1.9855,1.9871,1.9837,1.9802,1.9806,1.9548,1.9079,1.7976,1.77,1.9496,2.2572,2.5677,2.9433,3.1134,2.6955,2.2611,2.0684,1.9843,1.9756,1.9846,2.0507,2.0776,2.0646,2.053,2.0443,2.0449,2.0399,2.039,2.0419,2.0475,2.0458,2.0531,2.0549,2.0583,2.0631,2.0683,2.0726,2.0792,2.0797,2.0906,2.0952,2.1019,2.1095,2.1156,2.1154,2.1217,2.1348,2.144,2.1507,2.1643,2.1761,2.1866,2.2006,2.2142,2.2296,2.2457,2.2648,2.2812,2.3066,2.3266,2.3465,2.3716,2.3932,2.4077,2.4293,2.4512,2.472,2.4951,2.511,2.5338,2.5436,2.556,2.555,2.5419,2.5262,2.4898,2.4469,2.3964,2.3393,2.2912,2.2513,2.2105,2.1905,2.1562,2.1286,2.1021,2.086,2.0722,2.0596,2.0577,2.0484,2.0421,2.0407,2.0388,2.0357,2.0338,2.0341,2.0315,2.0277,2.0264,2.0234,2.0245,2.0218,2.0202,2.0226,2.0229,2.019,2.0194,2.0152,2.0203,2.0187,2.0219,2.02,2.0186,2.0187,2.0216,2.025,2.0214,2.021,2.0227,2.0172,2.0135,2.0197,2.0193,2.0212,2.0215,2.0221,2.0161,2.0204,2.0151,2.0199,2.0154,2.0157,2.0146,2.0164,2.0205,2.0195,2.0169,2.0171,2.0113,2.0131,2.0149,2.0131,2.0147,2.0108,2.0169,2.0184,2.0122,2.0146,2.0135,2.0115,2.0125,2.0106,2.0144,2.0147,2.0162,2.0184,2.0352,2.0421,2.0425,2.0404,2.0291,2.0218,2.0474,2.0966,2.1161,2.1031,2.0806,2.0704,2.0583,2.0499,2.0382,2.0162,2.0063,2.0038,2.0004,1.9951,1.9896,1.9893,1.9877,1.9845,1.9844,1.9812,1.982,1.9829,1.9795,1.9766,1.9777,1.9772,1.9779,1.9773,1.9767,1.9758,1.929,1.8057,1.7517,1.8849,2.0197,2.3427,2.6431,3.0343,3.0294,2.5001,2.1919,2.0482,1.9952,1.9574,2.0262,2.0604,2.0733,2.0533,2.0465,2.0368,2.0334,2.0319,2.0331,2.0311,2.0377,2.0348,2.0438,2.0445,2.0537,2.0546,2.0567,2.0609,2.0689,2.0696,2.0775,2.084,2.0864,2.0957,2.1019,2.1085,2.1172,2.1254,2.1331,2.1415,2.151,2.1638,2.1736,2.1854,2.2036,2.2177,2.2346,2.2544,2.273,2.2933,2.313,2.3446,2.3616,2.3865,2.4094,2.4283,2.4578,2.4677,2.4838,2.5081,2.5208,2.54,2.5447,2.5503,2.5415,2.5204,2.4845,2.4439,2.3894,2.342,2.2915,2.243,2.2034,2.166,2.1349,2.1102,2.0976,2.0781,2.0605,2.0513,2.0414,2.0391,2.0305,2.0288,2.0231,2.0234,2.019,2.0225,2.0146,2.018,2.0155,2.0165,2.0139,2.015,2.0113,2.012,2.0106,2.0111,2.0116,2.0129,2.0142,2.0153,2.0112,2.0068,2.0084,2.0137,2.015,2.0185,2.0185,2.017,2.0123,2.0196,2.0179,2.0188,2.0168,2.0185,2.0187,2.0185,2.0188,2.0138,2.015,2.0149,2.012,2.0134,2.0125,2.0079,2.0137,2.0072,2.0069,2.0078,2.0061,2.0055,2.0055,2.0073,2.0067,2.0059,2.0089,2.0105,2.0112,2.0128,2.0076,2.0042,2.005,2.0041,2.0094,2.0087,2.0059,2.0097,2.0095,2.0162,2.03,2.0384,2.0387,2.0354,2.0264,2.0248,2.0591,2.113,2.1127,2.0986,2.0787,2.0681,2.0547,2.0414,2.029,2.0049,2.0123,1.9964,1.9979,1.9913,1.9886,1.9883,1.989,1.9816,1.9864,1.9856,1.981,1.9824,1.9812,1.9809,1.9827,1.9816,1.9797,1.9807,1.9776,1.9734,1.9009,1.788,1.7744,1.9602,2.2765,2.4389,2.729,3.084,2.8628,2.3197,2.051,1.9543,1.9406,1.9379,2.0155,2.058,2.0569,2.0538,2.0353,2.0404,2.028,2.0337,2.0314,2.0379,2.0313,2.0474,2.0384,2.0485,2.0547,2.0645,2.0624,2.069,2.0675,2.078,2.0803,2.0946,2.097,2.1033,2.1093,2.1251,2.1237,2.1364,2.1445,2.1516,2.1662,2.1721,2.1895,2.2019,2.2163,2.2308,2.2497,2.2675,2.2904,2.3085,2.334,2.3583,2.3759,2.4017,2.4241,2.453,2.4771,2.4976,2.5059,2.5303,2.5486,2.5612,2.5702,2.562,2.5523,2.5245,2.4928,2.4499,2.4026,2.346,2.299,2.246,2.2033,2.1668,2.1375,2.1069,2.0911,2.0805,2.0708,2.0601,2.053,2.0449,2.0395,2.0316,2.0288,2.026,2.0307,2.0261,2.0225,2.017,2.027,2.0184,2.0153,2.0164,2.0255,2.0283,2.0211,2.0207,2.0161,2.0204,2.0183,2.0239,2.022,2.0273,2.026,2.0254,2.0269,2.0249,2.0241,2.0298,2.0328,2.0252,2.0301,2.0314,2.0271,2.0265,2.0254,2.0238,2.0283,2.0298,2.0251,2.0248,2.0263,2.0241,2.024,2.0244,2.0237,2.027,2.0261,2.0277,2.0253,2.0216,2.0208,2.0229,2.0242,2.0244,2.0233,2.0223,2.0243,2.0258,2.019,2.0226,2.0289,2.034,2.0425,2.049,2.051,2.0509,2.0498,2.0435,2.0627,2.1005,2.1404,2.1228,2.1119,2.0919,2.0781,2.0744,2.0655,2.0501,2.0308,2.0301,2.0214,2.0223,2.0174,2.0148,2.0056,2.0072,2.0017,2.0017,2.0032,2.0009,2.0013,2.0018,2.0018,2.0054,1.9999,2.0044,2.003,2.002,1.999,1.9399,1.8387,1.8245,2.0092,2.3455,2.6219,2.9412,2.9832,2.4845,2.0308,1.8663,1.8195,1.8349,1.9115,1.9796,2.0484,2.0748,2.0799,2.075,2.0684,2.069,2.0713,2.0693,2.0697,2.08,2.0854,2.0814,2.0858,2.0938,2.0943,2.0985,2.1003,2.1089,2.1122,2.1213,2.125,2.1336,2.1437,2.1506,2.1587,2.1681,2.1822,2.1882,2.1957,2.2053,2.2175,2.2365,2.2542,2.2675,2.2715,2.287,2.3098,2.3275,2.3467,2.3705,2.3928,2.423,2.4485,2.4669,2.4834,2.507,2.5311,2.5491,2.5668,2.5789,2.5911,2.5953,2.5883,2.5821,2.5611,2.526,2.4761,2.4196,2.3658,2.3172,2.2712,2.2307,2.1937,2.1684,2.1475,2.1264,2.1097,2.0959,2.081,2.0828,2.073,2.068,2.061,2.0594,2.0607,2.0612,2.0563,2.0499,2.051,2.0539,2.0565,2.0513,2.0497,2.05,2.055,2.0594,2.0634,2.0614,2.0577,2.0584,2.0638,2.0641,2.0705,2.071,2.0716,2.0665,2.0678,2.071,2.0767,2.0747,2.0768,2.0683,2.0697,2.0722,2.0725,2.0739,2.069,2.0669,2.0683,2.0686,2.0694,2.0671,2.0665,2.0699,2.0643,2.0677,2.0647,2.0625,2.0666,2.0614,2.061,2.0666,2.0761,2.0898,2.0931,2.0946,2.0883,2.0827,2.1113,2.1466,2.1624,2.1632,2.1438,2.1304,2.1187,2.1036,2.0908,2.0706,2.059,2.0568,2.0545,2.052,2.0509,2.0433,2.0432,2.0376,2.0338,2.036,2.0365,2.0331,2.0332,2.032,2.0332,2.0268,2.0267,2.0296,2.0283,2.0249,2.0108,1.9256,1.8337,1.8601,2.0834,2.4164,2.6918,3.0537,3.019,2.4755,2.236,2.0329,1.9283,1.9467,1.9568,2.055,2.0857,2.1018,2.0918,2.0883,2.0763,2.0772,2.0784,2.0822,2.0779,2.084,2.087,2.0934,2.0895,2.0979,2.1003,2.1052,2.1104,2.118,2.1207,2.1212,2.1297,2.1382,2.14,2.1472,2.1568,2.167,2.1748,2.1838,2.196,2.2038,2.2172,2.2321,2.2373,2.2529,2.2734,2.2886,2.3071,2.3283,2.3467,2.3727,2.3942,2.4207,2.4443,2.4684,2.4832,2.5081,2.53,2.5476,2.5644,2.5763,2.578,2.5808,2.5711,2.5481,2.5115,2.4718,2.4235,2.3743,2.3273,2.2762,2.2293,2.1937,2.1608,2.1371,2.114,2.1018,2.0892,2.0775,2.0699,2.0672,2.0637,2.0616,2.0561,2.0539,2.0511,2.0494,2.0488,2.0456,2.0424,2.0384,2.042,2.0361,2.0395,2.0355,2.0415,2.0402,2.0396,2.0412,2.0413,2.0398,2.0384,2.0424,2.0398,2.0387,2.043,2.0437,2.0456,2.0428,2.0478,2.0455,2.0473,2.0463,2.0474,2.0445,2.0444,2.0447,2.0477,2.0438,2.0435,2.0421,2.0429,2.039,2.0382,2.0403,2.0409,2.0371,2.0383,2.0365,2.0364,2.0386,2.0428,2.0345,2.0398,2.0398,2.0476,2.0584,2.0662,2.069,2.0681,2.0632,2.0533,2.0767,2.1224,2.1437,2.1273,2.1127,2.0979,2.088,2.0745,2.0659,2.0447,2.0353,2.0367,2.0268,2.0239,2.0206,2.0198,2.0175,2.0183,2.0138,2.019,2.0111,2.0113,2.0139,2.0095,2.0084,2.0127,2.0097,2.0128,2.0092,2.0077,1.9732,1.8517,1.7876,1.8863,2.1585,2.3456,2.6362,3.0529,3.1094,2.6401,2.2589,2.1082,2.024,2.0065,2.0372,2.094,2.1002,2.094,2.0686,2.0695,2.0596,2.0648,2.0656,2.073,2.0638,2.0727,2.0753,2.0801,2.0786,2.0861,2.0871,2.0955,2.0951,2.1035,2.1085,2.118,2.1174,2.1274,2.134,2.1445,2.1472,2.1588,2.1706,2.1727,2.1822,2.1941,2.2065,2.2198,2.2341,2.2483,2.2639,2.2857,2.3037,2.3246,2.3442,2.3699,2.3928,2.4186,2.4411,2.4656,2.4865,2.5107,2.5265,2.5435,2.5621,2.5772,2.5872,2.5856,2.5743,2.5509,2.5141,2.4647,2.4115,2.3573,2.3067,2.2592,2.2215,2.1846,2.157,2.1284,2.113,2.1041,2.0903,2.0774,2.0722,2.0659,2.0661,2.0554,2.0616,2.0536,2.0542,2.052,2.0486,2.0427,2.0452,2.039,2.0409,2.0407,2.0402,2.039,2.0373,2.0362,2.037,2.0348,2.0368,2.0387,2.0368,2.0336,2.0401,2.0376,2.0378,2.0344,2.0352,2.0356,2.0353,2.0345,2.0368,2.0372,2.0353,2.0339,2.0344,2.0327,2.0357,2.0331,2.0345,2.0323,2.0345,2.0343,2.0284,2.0349,2.0331,2.0323,2.0314,2.0282,2.0305,2.0298,2.0304,2.0307,2.0314,2.0311,2.0312,2.0299,2.0306,2.0294,2.031,2.0335,2.0365,2.0468,2.0598,2.0628,2.0649,2.0476,2.0439,2.0739,2.124,2.1334,2.1198,2.101,2.0944,2.0833,2.0758,2.0635,2.0425,2.032,2.0261,2.0178,2.0162,2.0137,2.0097,2.0107,2.0033,2.0035,1.9997,2.0041,2.0035,2.0023,1.9998,2.0018,2.0024,2.0084,2.0022,2.0049,2.0044,1.9812,1.8817,1.7786,1.8247,2.0558,2.3973,2.6943,3.0863,3.0125,2.4849,2.1893,2.0614,2.0125,1.9983,2.0037,2.071,2.0954,2.0787,2.0698,2.0527,2.0554,2.0473,2.0552,2.058,2.0608,2.06,2.0655,2.0655,2.0759,2.0749,2.0839,2.0817,2.0848,2.0951,2.1022,2.1027,2.1131,2.1166,2.1286,2.1311,2.1417,2.1485,2.159,2.1688,2.1815,2.1903,2.2082,2.2172,2.2324,2.2478,2.2663,2.2751,2.2943,2.3125,2.3391,2.3596,2.3825,2.4078,2.4307,2.4566,2.4759,2.4982,2.5166,2.5406,2.5608,2.5728,2.5848,2.5831,2.5753,2.5468,2.5321,2.4895,2.443,2.387,2.3357,2.2892,2.2433,2.2057,2.1743,2.1489,2.1242,2.1055,2.0938,2.0821,2.0763,2.0713,2.065,2.0638,2.0541,2.0555,2.0513,2.0519,2.0508,2.0526,2.0487,2.0483,2.0505,2.0516,2.0473,2.0515,2.0473,2.0433,2.0455,2.0475,2.0454,2.0508,2.0483,2.0484,2.0481,2.0504,2.0509,2.0555,2.0562,2.0491,2.0501,2.0522,2.0504,2.0545,2.0539,2.0546,2.0551,2.0593,2.0582,2.0601,2.0519,2.0544,2.0531,2.0587,2.0534,2.0552,2.0515,2.0533,2.0505,2.0522,2.0518,2.0494,2.0446,2.0524,2.0506,2.0526,2.0527,2.0508,2.0529,2.0537,2.0515,2.0542,2.053,2.0571,2.0502,2.0516,2.0527,2.051,2.051,2.0483,2.0473,2.0486,2.0541,2.0511,2.057,2.0658,2.084,2.0846,2.071,2.0599,2.0709,2.1189,2.1472,2.1534,2.1367,2.1198,2.1098,2.0975,2.0877,2.0761,2.056,2.0439,2.0391,2.0393,2.0386,2.0322,2.0327,2.0284,2.0321,2.026,2.0248,2.0219,2.0223,2.0226,2.0229,2.0206,2.0199,2.0187,2.0253,2.0229,2.0195,1.9568,1.8412,1.8165,1.9754,2.2862,2.5842,2.9346,3.0964,2.6701,2.3724,2.1183,1.9803,1.9763,1.9709,2.0554,2.0935,2.1141,2.0982,2.0951,2.0732,2.0842,2.0735,2.084,2.0899,2.0887,2.0921,2.1035,2.0973,2.0996,2.104,2.1125,2.1111,2.123,2.1231,2.1315,2.1379,2.1496,2.1509,2.159,2.1655,2.1758,2.1842,2.2047,2.213,2.2211,2.2301,2.2416,2.2539,2.271,2.2874,2.3037,2.3136,2.3386,2.3572,2.3785,2.4067,2.4282,2.4575,2.4772,2.5008,2.5197,2.5384,2.5634,2.5861,2.6067,2.6198,2.6204,2.6227,2.6177,2.6009,2.5672,2.5185,2.4739,2.4249,2.3736
