-4.3255,-4.3065,-4.2818,-4.2609,-4.2405,-4.2271,-4.2082,-4.1991,-4.1852,-4.1847,-4.1762,-4.1757,-4.169,-4.1695,-4.1656,-4.1719,-4.1686,-4.1736,-4.1718,-4.1769,-4.1729,-4.1745,-4.1693,-4.1721,-4.1711,-4.1774,-4.1712,-4.1716,-4.1696,-4.1726,-4.167,-4.1672,-4.1618,-4.1629,-4.1573,-4.1629,-4.1547,-4.1565,-4.1529,-4.162,-4.1689,-4.1802,-4.1911,-4.2129,-4.2201,-4.2273,-4.2319,-4.2427,-4.2362,-4.2242,-4.1754,-4.1587,-4.1508,-4.1568,-4.1614,-4.1635,-4.1717,-4.1731,-4.1532,-4.1329,-4.1234,-4.1162,-4.1095,-4.1034,-4.1022,-4.1016,-4.0978,-4.0948,-4.0916,-4.0919,-4.1593,-4.381,-4.7015,-4.9509,-5.3112,-5.5368,-5.4646,-4.6811,-3.3415,-2.3207,-1.8652,-1.8946,-2.0684,-2.4428,-2.8605,-3.3126,-3.6757,-3.9112,-4.0077,-4.1094,-4.1592,-4.1782,-4.2059,-4.2149,-4.2326,-4.235,-4.2499,-4.2561,-4.2689,-4.2707,-4.2858,-4.2893,-4.3054,-4.3053,-4.3209,-4.3244,-4.3401,-4.3379,-4.3527,-4.3565,-4.3694,-4.3763,-4.3901,-4.3942,-4.4048,-4.4085,-4.4181,-4.4234,-4.4308,-4.4305,-4.4365,-4.4323,-4.4378,-4.4358,-4.435,-4.4254,-4.4287,-4.4223,-4.4248,-4.419,-4.4221,-4.4239,-4.435,-4.4436,-4.455,-4.456,-4.457,-4.4487,-4.4327,-4.41,-4.3841,-4.3493,-4.3253,-4.298,-4.2739,-4.2597,-4.2389,-4.2171,-4.2059,-4.1963,-4.1853,-4.1752,-4.1669,-4.1617,-4.1584,-4.1523,-4.1508,-4.1516,-4.1526,-4.1542,-4.1565,-4.1551,-4.1596,-4.159,-4.1609,-4.1619,-4.1621,-4.1582,-4.1629,-4.1653,-4.1621,-4.161,-4.1595,-4.1576,-4.1622,-4.156,-4.1539,-4.1514,-4.1518,-4.1535,-4.1622,-4.1683,-4.1822,-4.1982,-4.207,-4.2183,-4.2213,-4.2247,-4.2313,-4.233,-4.1974,-4.1589,-4.1469,-4.142,-4.1534,-4.1541,-4.155,-4.1605,-4.1501,-4.1295,-4.1166,-4.1048,-4.0953,-4.0946,-4.09,-4.0858,-4.0867,-4.0807,-4.0768,-4.0732,-4.0769,-4.141,-4.3531,-4.6812,-4.9516,-5.3477,-5.5757,-5.5296,-4.6237,-3.1717,-2.0339,-1.645,-1.661,-1.7769,-2.1888,-2.6011,-3.118,-3.5316,-3.8292,-4.0094,-4.0999,-4.1295,-4.1595,-4.1656,-4.1873,-4.1953,-4.2117,-4.217,-4.226,-4.2294,-4.2422,-4.2431,-4.2583,-4.2634,-4.2748,-4.2824,-4.2959,-4.3062,-4.3152,-4.3194,-4.3281,-4.3386,-4.3491,-4.3562,-4.3646,-4.372,-4.3811,-4.3887,-4.3914,-4.3942,-4.398,-4.401,-4.4007,-4.4027,-4.3963,-4.3949,-4.3878,-4.3903,-4.3815,-4.3791,-4.375,-4.3763,-4.3814,-4.3923,-4.3998,-4.4151,-4.4237,-4.4289,-4.4209,-4.4081,-4.3947,-4.3728,-4.3413,-4.3175,-4.2846,-4.2587,-4.2312,-4.2169,-4.1953,-4.1831,-4.1634,-4.158,-4.1468,-4.1415,-4.1314,-4.1307,-4.1243,-4.1257,-4.1231,-4.1253,-4.1204,-4.1239,-4.1242,-4.1307,-4.1299,-4.1327,-4.1317,-4.1366,-4.136,-4.1406,-4.1361,-4.1396,-4.14,-4.1404,-4.1405,-4.1372,-4.1309,-4.1347,-4.1325,-4.1295,-4.1254,-4.1236,-4.1154,-4.1147,-4.1132,-4.1093,-4.1027,-4.1009,-4.0964,-4.0984,-4.1005,-4.1082,-4.1188,-4.1328,-4.1465,-4.1594,-4.1607,-4.16,-4.1596,-4.1652,-4.1616,-4.1238,-4.109,-4.102,-4.1085,-4.1154,-4.108,-4.1154,-4.1152,-4.0915,-4.0744,-4.067,-4.0551,-4.052,-4.0477,-4.0434,-4.0409,-4.0418,-4.041,-4.0399,-4.0385,-4.055,-4.1703,-4.4485,-4.7433,-5.0436,-5.411,-5.5332,-5.2773,-4.0718,-2.6798,-1.8829,-1.6901,-1.7769,-2.0867,-2.5346,-2.7649,-3.243,-3.6254,-3.8667,-4.0176,-4.0814,-4.1105,-4.1315,-4.147,-4.1658,-4.1748,-4.1861,-4.1919,-4.2034,-4.215,-4.2269,-4.2334,-4.241,-4.2501,-4.2561,-4.2668,-4.2751,-4.284,-4.2913,-4.3011,-4.3116,-4.3233,-4.328,-4.3371,-4.3453,-4.3561,-4.3604,-4.3644,-4.3653,-4.3694,-4.3687,-4.3705,-4.366,-4.3649,-4.3609,-4.3651,-4.3593,-4.353,-4.3439,-4.3405,-4.3394,-4.3444,-4.3469,-4.3594,-4.3707,-4.3855,-4.3922,-4.3997,-4.3912,-4.3833,-4.3657,-4.342,-4.3263,-4.2989,-4.2673,-4.2431,-4.2177,-4.1978,-4.1759,-4.1624,-4.1453,-4.139,-4.1272,-4.1202,-4.1112,-4.1063,-4.1011,-4.1028,-4.0968,-4.1009,-4.1052,-4.1099,-4.11,-4.1123,-4.1077,-4.1097,-4.1106,-4.1212,-4.1136,-4.1114,-4.115,-4.1275,-4.1309,-4.1276,-4.1245,-4.1238,-4.1194,-4.1153,-4.1088,-4.1036,-4.0994,-4.0993,-4.0941,-4.0909,-4.0849,-4.0791,-4.0793,-4.0832,-4.0795,-4.0799,-4.0746,-4.0772,-4.0776,-4.0711,-4.0666,-4.0561,-4.0519,-4.05,-4.0494,-4.0481,-4.047,-4.044,-4.0411,-4.0445,-4.0413,-4.0425,-4.0447,-4.0392,-4.0394,-4.0376,-4.0342,-4.0328,-4.0343,-4.0402,-4.0472,-4.0597,-4.0759,-4.0816,-4.0953,-4.0983,-4.1003,-4.0958,-4.1,-4.101,-4.082,-4.061,-4.0592,-4.0653,-4.069,-4.0668,-4.0672,-4.0558,-4.043,-4.0327,-4.0273,-4.0135,-4.0049,-4.003,-4.0073,-4.0082,-4.0062,-4.001,-3.9982,-4.0005,-4.0502,-4.2283,-4.5176,-4.7573,-5.0787,-5.3579,-5.355,-4.8969,-3.6792,-2.7035,-2.2017,-2.043,-2.0243,-2.2637,-2.5015,-2.899,-3.3344,-3.6214,-3.8475,-3.9584,-4.0543,-4.0558,-4.1065,-4.0901,-4.1283,-4.1182,-4.1502,-4.1397,-4.1702,-4.1551,-4.1845,-4.1719,-4.1991,-4.1831,-4.2141,-4.2062,-4.2349,-4.2318,-4.2444,-4.2386,-4.2512,-4.2523,-4.2753,-4.2704,-4.2775,-4.2738,-4.2904,-4.2864,-4.2886,-4.2793,-4.2861,-4.2884,-4.2903,-4.2893,-4.2817,-4.2774,-4.2731,-4.2714,-4.2581,-4.2533,-4.2512,-4.2497,-4.2503,-4.2559,-4.2669,-4.2732,-4.2894,-4.3065,-4.3084,-4.3047,-4.293,-4.2883,-4.2668,-4.2501,-4.219,-4.1948,-4.1743,-4.1532,-4.1337,-4.1142,-4.1021,-4.0956,-4.0808,-4.0824,-4.0702,-4.073,-4.0661,-4.0722,-4.0753,-4.0767,-4.0724,-4.0783,-4.0713,-4.0827,-4.0764,-4.0805,-4.0749,-4.0842,-4.0787,-4.0833,-4.0756,-4.0792,-4.0749,-4.0752,-4.0723,-4.0734,-4.0631,-4.0655,-4.0596,-4.0674,-4.0608,-4.0633,-4.0522,-4.054,-4.0544,-4.0552,-4.0476,-4.0462,-4.0381,-4.0407,-4.0333,-4.04,-4.0355,-4.0379,-4.0374,-4.0423,-4.0463,-4.0625,-4.0724,-4.0844,-4.085,-4.0908,-4.0906,-4.0973,-4.0921,-4.0884,-4.0517,-4.042,-4.0386,-4.0432,-4.0459,-4.0414,-4.0475,-4.0495,-4.0295,-4.0184,-4.0103,-4.0068,-4.0063,-4.0054,-4.0023,-3.9982,-3.9946,-3.9906,-3.9914,-4.0076,-4.0397,-4.1837,-4.4609,-4.6895,-4.951,-5.2326,-5.2115,-4.9532,-3.9046,-3.0688,-2.5751,-2.4073,-2.2377,-2.1732,-2.4653,-2.8219,-3.2195,-3.4956,-3.7668,-3.8917,-4.023,-4.0293,-4.0852,-4.0733,-4.115,-4.1054,-4.1374,-4.1266,-4.1578,-4.142,-4.1704,-4.1586,-4.1845,-4.1778,-4.2021,-4.1935,-4.2154,-4.2062,-4.2208,-4.2157,-4.2426,-4.2375,-4.2558,-4.2503,-4.2632,-4.2629,-4.2658,-4.2572,-4.2678,-4.2654,-4.2716,-4.2716,-4.2686,-4.2504,-4.245,-4.241,-4.2414,-4.2353,-4.2232,-4.2104,-4.2007,-4.1952,-4.2007,-4.208,-4.2144,-4.2328,-4.2463,-4.261,-4.2593,-4.2576,-4.2471,-4.2382,-4.2181,-4.1965,-4.1696,-4.1586,-4.1404,-4.1229,-4.0942,-4.0797,-4.0652,-4.0556,-4.0541,-4.0517,-4.0514,-4.0637,-4.0573,-4.0552,-4.0502,-4.0546,-4.0494,-4.0562,-4.0584,-4.0616,-4.0562,-4.0598,-4.0558,-4.0591,-4.0493,-4.056,-4.0549,-4.0608,-4.0514,-4.0534,-4.0397,-4.0442,-4.0395,-4.0456,-4.0326,-4.0321,-4.0261,-4.0286,-4.0249,-4.0289,-4.0234,-4.0242,-4.0185,-4.0265,-4.0315,-4.042,-4.0511,-4.0662,-4.075,-4.0845,-4.0813,-4.0937,-4.0895,-4.092,-4.0559,-4.0263,-4.0137,-4.0107,-4.0214,-4.022,-4.027,-4.0398,-4.0346,-4.0125,-4.0077,-4.0073,-4.0012,-3.9956,-3.9855,-3.9829,-3.9776,-3.9751,-3.9732,-3.9774,-3.9983,-4.1366,-4.4198,-4.6838,-4.9387,-5.2491,-5.278,-5.0075,-3.8866,-2.832,-2.2519,-2.0853,-2.0136,-2.1586,-2.5586,-2.9471,-3.356,-3.4987,-3.7566,-3.9041,-4.0142,-4.0376,-4.0739,-4.0735,-4.0969,-4.0977,-4.1239,-4.1249,-4.1397,-4.1356,-4.1611,-4.159,-4.1792,-4.1811,-4.1975,-4.2001,-4.2141,-4.2153,-4.2273,-4.2231,-4.2375,-4.2428,-4.2532,-4.2585,-4.2711,-4.2709,-4.283,-4.2825,-4.2853,-4.2844,-4.2873,-4.2832,-4.2851,-4.2769,-4.2673,-4.2635,-4.2614,-4.2538,-4.2485,-4.234,-4.2303,-4.229,-4.233,-4.2418,-4.2511,-4.2609,-4.2707,-4.2761,-4.2731,-4.2663,-4.2466,-4.2251,-4.1959,-4.1735,-4.145,-4.1373,-4.1188,-4.1037,-4.0894,-4.0735,-4.058,-4.0545,-4.0491,-4.0472,-4.0418,-4.0315,-4.0262,-4.0329,-4.0341,-4.0368,-4.0345,-4.0361,-4.0369,-4.0425,-4.0413,-4.0417,-4.041,-4.0425,-4.045,-4.051,-4.0491,-4.0476,-4.0464,-4.0511,-4.0492,-4.0504,-4.0453,-4.0415,-4.0403,-4.0404,-4.0313,-4.0311,-4.0266,-4.0286,-4.0222,-4.0214,-4.0178,-4.0235,-4.0302,-4.0428,-4.0531,-4.0594,-4.0685,-4.0783,-4.081,-4.0872,-4.0807,-4.0679,-4.0235,-4.0098,-4.005,-4.006,-4.0074,-4.0019,-4.0093,-4.0272,-4.016,-3.998,-3.9858,-3.984,-3.9751,-3.9708,-3.9658,-3.9616,-3.9622,-3.9643,-3.9649,-3.9654,-4.0402,-4.2708,-4.5767,-4.7039,-4.9735,-5.2882,-5.2802,-4.9549,-3.7902,-2.7304,-2.143,-2.0009,-1.9716,-2.16,-2.5578,-2.9672,-3.3695,-3.6441,-3.8557,-3.9553,-4.0232,-4.0278,-4.0689,-4.0569,-4.0862,-4.0813,-4.1113,-4.1048,-4.1309,-4.1221,-4.144,-4.1395,-4.1591,-4.161,-4.1815,-4.1756,-4.1971,-4.198,-4.2181,-4.2211,-4.2353,-4.2338,-4.2468,-4.2478,-4.2651,-4.2634,-4.2709,-4.2677,-4.2775,-4.2762,-4.2774,-4.2709,-4.2735,-4.2656,-4.2644,-4.255,-4.253,-4.2412,-4.2372,-4.231,-4.2263,-4.2249,-4.2272,-4.2349,-4.2508,-4.264,-4.2684,-4.2716,-4.2686,-4.2574,-4.2384,-4.2143,-4.1841,-4.1618,-4.1368,-4.1208,-4.0972,-4.0798,-4.0624,-4.0567,-4.0503,-4.0425,-4.0267,-4.0226,-4.0164,-4.0189,-4.0108,-4.0134,-4.0067,-4.0117,-4.01,-4.0139,-4.011,-4.0156,-4.0147,-4.0234,-4.021,-4.0252,-4.0256,-4.0311,-4.0308,-4.0375,-4.0331,-4.0346,-4.0326,-4.0359,-4.0327,-4.0322,-4.0276,-4.0298,-4.0262,-4.0289,-4.0218,-4.018,-4.0131,-4.017,-4.0111,-4.0068,-4.0009,-4.0034,-3.9996,-4.0027,-3.9956,-3.9946,-3.9878,-3.9886,-3.9849,-3.9867,-3.9801,-3.9784,-3.9781,-3.9834,-3.9858,-3.9936,-4.0051,-4.0205,-4.0361,-4.0456,-4.0484,-4.0508,-4.0513,-4.049,-4.0475,-4.0173,-4.0029,-3.999,-3.9999,-4.0022,-4.0068,-4.016,-4.0095,-4.0005,-3.9866,-3.9793,-3.9714,-3.9656,-3.9593,-3.9611,-3.9571,-3.9568,-3.9521,-3.954,-3.9515,-3.9618,-4.0647,-4.3399,-4.6671,-4.967,-5.3204,-5.4567,-5.1488,-3.9241,-2.455,-1.575,-1.4446,-1.6227,-1.7498,-2.2055,-2.6034,-3.1069,-3.5187,-3.7736,-3.9401,-3.9974,-4.0306,-4.0507,-4.0714,-4.0835,-4.0992,-4.1066,-4.1181,-4.1253,-4.1404,-4.1494,-4.1568,-4.1617,-4.167,-4.1728,-4.187,-4.1942,-4.2054,-4.2093,-4.2253,-4.2343,-4.2457,-4.2484,-4.2602,-4.2677,-4.2812,-4.2876,-4.2965,-4.2995,-4.3086,-4.3149,-4.3216,-4.3187,-4.3209,-4.3198,-4.3222,-4.3155,-4.3138,-4.3073,-4.3069,-4.303,-4.3058,-4.3066,-4.3108,-4.3167,-4.3243,-4.3308,-4.3343,-4.3244,-4.3105,-4.29,-4.2831,-4.2544,-4.2282,-4.1964,-4.169,-4.1446,-4.125,-4.1026,-4.0896,-4.0707,-4.06,-4.0511,-4.0447,-4.0321,-4.0259,-4.0217,-4.0198,-4.0145,-4.0106,-4.0097,-4.0154,-4.0163,-4.0198,-4.0172,-4.0202,-4.0227,-4.029,-4.0316,-4.0369,-4.0385,-4.0408,-4.0447,-4.044,-4.0423,-4.0437,-4.0423,-4.0428,-4.0426,-4.0409,-4.0375,-4.038,-4.033,-4.0313,-4.0239,-4.0182,-4.0163,-4.0132,-4.0109,-4.0079,-4.0045,-4.0013,-4,-3.9963,-3.992,-3.9902,-3.9864,-3.9901,-3.9895,-3.986,-3.9834,-3.9811,-3.9802,-3.9778,-3.9796,-3.9774,-3.976,-3.9716,-3.9747,-3.9714,-3.9703,-3.9673,-3.9691,-3.9703,-3.9669,-3.9634,-3.9646,-3.9638,-3.9651,-3.964,-3.9639,-3.9609,-3.9619,-3.9665,-3.9823,-3.9964,-4.0105,-4.0135,-4.029,-4.033,-4.0273,-4.0262,-4.0352,-4.0145,-4.0001,-3.9884,-3.9882,-3.9889,-3.9936,-3.9919,-3.9905,-3.9716,-3.9591,-3.9552,-3.9494,-3.9448,-3.9352,-3.9316,-3.9293,-3.9332,-3.9302,-3.9282,-3.9253,-3.9533,-4.1032,-4.4162,-4.5737,-4.841,-5.2357,-5.4133,-5.3301,-4.2737,-2.8037,-1.7171,-1.4658,-1.567,-1.8293,-2.2952,-2.7584,-3.249,-3.5888,-3.8183,-3.9216,-3.9791,-3.9961,-4.0218,-4.0273,-4.0552,-4.0563,-4.0798,-4.082,-4.0991,-4.0991,-4.1138,-4.1128,-4.133,-4.1339,-4.1498,-4.1515,-4.1651,-4.1715,-4.1873,-4.1903,-4.2041,-4.2081,-4.2171,-4.2228,-4.2363,-4.2409,-4.2503,-4.2573,-4.265,-4.2694,-4.2757,-4.275,-4.2795,-4.28,-4.2823,-4.278,-4.2764,-4.2743,-4.2747,-4.2734,-4.2675,-4.2678,-4.2655,-4.2684,-4.2732,-4.2797,-4.2843,-4.2927,-4.2966,-4.295,-4.2771,-4.259,-4.2353,-4.2113,-4.181,-4.154,-4.1243,-4.1032,-4.0815,-4.0683,-4.058,-4.0449,-4.0294,-4.0217,-4.013,-4.0115,-3.997,-3.997,-3.9908,-3.9953,-3.9943,-3.9953,-3.991,-3.996,-3.9947,-4.004,-3.999,-4.003,-4.0012,-4.0039,-4.0042,-4.0104,-4.0085,-4.0119,-4.015,-4.0191,-4.0128,-4.0111,-4.007,-4.0088,-4.0077,-4.0092,-3.9996,-3.9985,-3.9967,-3.9977,-3.993,-3.9891,-3.9872,-3.9832,-3.9766,-3.9786,-3.9702,-3.9736,-3.9674,-3.9633,-3.9617,-3.9603,-3.958,-3.9586,-3.9564,-3.9557,-3.9503,-3.9489,-3.9472,-3.9479,-3.9496,-3.9482,-3.9447,-3.9402,-3.9402,-3.9389,-3.9343,-3.9363,-3.9328,-3.9342,-3.9348,-3.9313,-3.9331,-3.9316,-3.9349,-3.9377,-3.9325,-3.9304,-3.9255,-3.9273,-3.9266,-3.9252,-3.9229,-3.9239,-3.9238,-3.9237,-3.9234,-3.9224,-3.9225,-3.9187,-3.9195,-3.9173,-3.9179,-3.9159,-3.9246,-3.9329,-3.9442,-3.9523,-3.9642,-3.9716,-3.9807,-3.9855,-3.9898,-3.9852,-3.9914,-3.9823,-3.962,-3.946,-3.9527,-3.9573,-3.9588,-3.9546,-3.956,-3.939,-3.9273,-3.9185,-3.9158,-3.9138,-3.9073,-3.9037,-3.9026,-3.8991,-3.8994,-3.8934,-3.892,-3.9225,-4.0736,-4.3553,-4.6058,-4.9048,-5.2184,-5.2781,-4.9394,-3.7259,-2.5588,-1.9451,-1.8198,-1.8361,-2.0771,-2.1106,-2.4676,-2.9766,-3.461,-3.7364,-3.8367,-3.947,-3.9358,-4.0067,-3.9836,-4.0356,-4.0081,-4.0578,-4.0326,-4.0784,-4.0524,-4.0955,-4.0741,-4.1112,-4.0898,-4.119,-4.1042,-4.1316,-4.1219,-4.1534,-4.1392,-4.1621,-4.1549,-4.1797,-4.1781,-4.1989,-4.1883,-4.2072,-4.2037,-4.2157,-4.2125,-4.2211,-4.2178,-4.225,-4.2217,-4.2259,-4.22,-4.2192,-4.2112,-4.2051,-4.2016,-4.1999,-4.1956,-4.192,-4.1946,-4.1991,-4.2045,-4.209,-4.2205,-4.2222,-4.2258,-4.2177,-4.2152,-4.1983,-4.181,-4.1515,-4.1351,-4.1026,-4.0835,-4.0661,-4.0577,-4.0289,-4.0152,-3.9971,-3.9968,-3.9846,-3.9864,-3.9735,-3.9748,-3.9689,-3.9792,-3.9715,-3.9755,-3.9683,-3.9797,-3.9762,-3.9784,-3.9697,-3.9758,-3.9693,-3.9782,-3.9719,-3.9769,-3.9683,-3.9741,-3.9692,-3.9783,-3.9674,-3.9744,-3.9665,-3.9743,-3.9706,-3.9733,-3.959,-3.9577,-3.9542,-3.9547,-3.9498,-3.9544,-3.949,-3.9571,-3.9446,-3.9428,-3.9271,-3.9332,-3.929,-3.9289,-3.9265,-3.9324,-3.9279,-3.9316,-3.9254,-3.9311,-3.9206,-3.9215,-3.9176,-3.9194,-3.9153,-3.9148,-3.9085,-3.9127,-3.9164,-3.9199,-3.9117,-3.918,-3.9155,-3.9187,-3.9156,-3.9297,-3.933,-3.9237,-3.8987,-3.9044,-3.9115,-3.9206,-3.9316,-3.9459,-3.959,-3.9749,-3.9837,-3.9733,-3.9715,-3.9881,-3.9798,-3.9384,-3.9298,-3.9315,-3.9401,-3.9406,-3.9431,-3.9463,-3.9328,-3.9106,-3.9102,-3.9016,-3.9035,-3.8883,-3.8833,-3.8821,-3.8938,-3.8801,-3.8705,-3.8739,-3.9052,-4.0307,-4.3192,-4.5782,-4.7071,-5.057,-5.2795,-5.2347,-4.4399,-3.0916,-2.0543,-1.6352,-1.656,-1.8202,-2.2183,-2.6227,-3.0967,-3.4565,-3.7016,-3.8296,-3.9137,-3.9466,-3.9758,-3.9804,-3.9979,-3.9961,-4.0219,-4.0242,-4.0312,-4.036,-4.0598,-4.054,-4.0758,-4.076,-4.0858,-4.0881,-4.1059,-4.1082,-4.1216,-4.1254,-4.1389,-4.142,-4.1572,-4.153,-4.1667,-4.1676,-4.1764,-4.1823,-4.1897,-4.1919,-4.2012,-4.2013,-4.2068,-4.2049,-4.2065,-4.2003,-4.2003,-4.1958,-4.1937,-4.1862,-4.1815,-4.1808,-4.1835,-4.1837,-4.1826,-4.1881,-4.193,-4.2012,-4.2011,-4.1975,-4.1853,-4.1667,-4.1475,-4.1225,-4.093,-4.0612,-4.037,-4.0175,-3.9971,-3.9784,-3.9582,-3.9557,-3.9413,-3.937,-3.926,-3.9205,-3.9098,-3.9097,-3.9059,-3.9055,-3.902,-3.9038,-3.9029,-3.9063,-3.9048,-3.9073,-3.9056,-3.9097,-3.912,-3.9146,-3.912,-3.9134,-3.9083,-3.9134,-3.9134,-3.9123,-3.9054,-3.9073,-3.9048,-3.9097,-3.9001,-3.903,-3.8958,-3.8981,-3.8953,-3.8919,-3.8868,-3.887,-3.8816,-3.8829,-3.8782,-3.8774,-3.8704,-3.8718,-3.8694,-3.8695,-3.8675,-3.8655,-3.8612,-3.8609,-3.8586,-3.8581,-3.851,-3.8548,-3.8517,-3.8526,-3.8474,-3.8497,-3.8493,-3.8505,-3.8464,-3.8498,-3.8451,-3.8475,-3.8457,-3.8461,-3.8417,-3.843,-3.8481,-3.8538,-3.8673,-3.8818,-3.8911,-3.9007,-3.9114,-3.9163,-3.9078,-3.9118,-3.9144,-3.8955,-3.8796,-3.8753,-3.8746,-3.8791,-3.882,-3.8822,-3.8775,-3.8625,-3.8463,-3.8425,-3.8334,-3.8256,-3.817,-3.8154,-3.8123,-3.8138,-3.8088,-3.8069,-3.8034,-3.8311,-3.98,-4.2817,-4.5475,-4.8668,-5.1856,-5.2789,-4.8505,-3.5724,-2.2103,-1.5447,-1.459,-1.5932,-1.9508,-2.3786,-2.8811,-3.2981,-3.4568,-3.6706,-3.7971,-3.8463,-3.8782,-3.8983,-3.918,-3.9291,-3.9421,-3.9528,-3.9623,-3.9706,-3.9802,-3.9849,-3.9947,-4.004,-4.0145,-4.022,-4.0327,-4.0412,-4.047,-4.0566,-4.0652,-4.0705,-4.0818,-4.0881,-4.102,-4.1062,-4.1127,-4.1192,-4.1288,-4.1349,-4.1409,-4.1395,-4.1465,-4.1495,-4.1609,-4.1602,-4.1603,-4.1542,-4.1467,-4.1402,-4.1403,-4.1332,-4.1317,-4.131,-4.1466,-4.1586,-4.1511,-4.147,-4.1579,-4.1604,-4.1511,-4.129,-4.1111,-4.0885,-4.0691,-4.0427,-4.0283,-3.9992,-3.9794,-3.9574,-3.944,-3.9391,-3.9182,-3.9053,-3.9007,-3.8969,-3.9032,-3.8767,-3.877,-3.8747,-3.8753,-3.8841,-3.8802,-3.8719,-3.8677,-3.874,-3.8794,-3.8885,-3.8847,-3.8742,-3.8835,-3.9014,-3.8865,-3.8763,-3.8937,-3.9007,-3.884,-3.8931,-3.8782,-3.8718,-3.885,-3.8959,-3.8963,-3.9014,-3.9044,-3.8791,-3.8677,-3.8616,-3.8747,-3.8727,-3.8549,-3.8788,-3.879,-3.8519,-3.8686,-3.8412,-3.8336,-3.844,-3.8391,-3.8483,-3.8444,-3.8249,-3.832,-3.8239,-3.8209,-3.8404,-3.8451,-3.8125,-3.8315,-3.8293,-3.7968,-3.8226,-3.8439,-3.8565,-3.8516,-3.874,-3.8876,-3.898,-3.8743,-3.8753,-3.8802,-3.8553,-3.8481,-3.8467,-3.8361,-3.8479,-3.8471,-3.8473,-3.8464,-3.8441,-3.8123,-3.8063,-3.7979,-3.7944,-3.7856,-3.7823,-3.7786,-3.7788,-3.7795,-3.7713,-3.7657,-3.7867,-3.8353,-4.041,-4.3595,-4.6099,-4.9739,-5.2033,-5.1981,-4.4192,-3.0404,-1.889,-1.4508,-1.4524,-1.6404,-2.0641,-2.5046,-2.98,-3.3461,-3.5913,-3.7291,-3.7822,-3.8119,-3.8516,-3.8569,-3.8844,-3.8869,-3.9072,-3.9121,-3.9296,-3.9293,-3.9403,-3.9433,-3.959,-3.9605,-3.9732,-3.9769,-3.9905,-3.9994,-4.0121,-4.0183,-4.0304,-4.0357,-4.0478,-4.0544,-4.0687,-4.0615,-4.0726,-4.079,-4.0874,-4.0952,-4.0954,-4.0956,-4.1001,-4.1037,-4.101,-4.0973,-4.0948,-4.0896,-4.0868,-4.0868,-4.0826,-4.0796,-4.0786,-4.0821,-4.0833,-4.0884,-4.0938,-4.1036,-4.112,-4.1181,-4.1117,-4.0959,-4.0737,-4.0491,-4.0233,-4.0032,-3.9704,-3.9502,-3.939,-3.9227,-3.9037,-3.8939,-3.8786,-3.877,-3.8649,-3.8613,-3.8524,-3.8511,-3.8433,-3.8476,-3.8429,-3.8457,-3.8472,-3.8479,-3.8475,-3.8541,-3.8508,-3.8532,-3.8462,-3.8516,-3.8485,-3.8561,-3.8523,-3.8553,-3.8543,-3.8545,-3.8513,-3.8497,-3.8379,-3.8401,-3.8355,-3.8372,-3.8343,-3.8373,-3.8345,-3.8311,-3.829,-3.8241,-3.8222,-3.8202,-3.8203,-3.8218,-3.8176,-3.8231,-3.8235,-3.819,-3.8248,-3.8289,-3.8147,-3.8066,-3.8087,-3.8311,-3.8533,-3.8672,-3.865,-3.8605,-3.8709,-3.8915,-3.9191,-3.9131,-3.8531,-3.8073,-3.796,-3.7977,-3.8246,-3.8243,-3.8215,-3.8117,-3.7914,-3.7909,-3.7891,-3.7997,-3.8264,-3.7976,-3.7515,-3.7405,-3.7375,-3.7404,-3.7375,-3.7452,-3.7941,-3.9867,-4.2703,-4.493,-4.8032,-5.0778,-5.0164,-4.5953,-3.4651,-2.6314,-2.1199,-1.9265,-1.8533,-2.0308,-2.2963,-2.6669,-3.0762,-3.3258,-3.5671,-3.6704,-3.7809,-3.7801,-3.834,-3.8199,-3.875,-3.864,-3.9016,-3.875,-3.9014,-3.8844,-3.9252,-3.9269,-3.9573,-3.9364,-3.9523,-3.9489,-3.9855,-3.9646,-3.9786,-3.9805,-3.9983,-3.998,-4.0175,-4.0074,-4.017,-4.0139,-4.0239,-4.0229,-4.0359,-4.0361,-4.0399,-4.0266,-4.0301,-4.0212,-4.0197,-4.0163,-4.0155,-4.0078,-3.9925,-3.9808,-3.9811,-3.9792,-3.9782,-3.9809,-3.9917,-4.0166,-4.029,-4.0176,-4.0057,-4.039,-4.079,-4.0528,-4.022,-3.9641,-3.9298,-3.9417,-3.9135,-3.8919,-3.8634,-3.8476,-3.8133,-3.8077,-3.7939,-3.8011,-3.8002,-3.8145,-3.8331,-3.8521,-3.8402,-3.8147,-3.7847,-3.7838,-3.7835,-3.8024,-3.795,-3.8143,-3.8033,-3.8133,-3.7963,-3.7928,-3.7902,-3.799,-3.7885,-3.7912,-3.7851,-3.8362,-3.8537,-3.8223,-3.7639,-3.7486,-3.7455,-3.7706,-3.7956,-3.81,-3.7934,-3.7672,-3.75,-3.7518,-3.7746,-3.7848,-3.7655,-3.786,-3.7944,-3.7698,-3.7421,-3.7518,-3.7726,-3.7951,-3.8091,-3.8184,-3.8222,-3.8319,-3.837,-3.8359,-3.7979,-3.7771,-3.766,-3.774,-3.7781,-3.7734,-3.7789,-3.7973,-3.7806,-3.7612,-3.7484,-3.7414,-3.7335,-3.7344,-3.7319,-3.7326,-3.7296,-3.7264,-3.7247,-3.7254,-3.7915,-4.0099,-4.3082,-4.5451,-4.8743,-5.0832,-4.9936,-4.3125,-3.091,-2.2166,-1.7947,-1.7508,-1.8227,-2.0873,-2.2981,-2.6961,-3.0915,-3.3796,-3.6053,-3.7155,-3.7767,-3.7786,-3.8196,-3.8169,-3.8513,-3.8417,-3.8665,-3.8635,-3.8916,-3.8867,-3.909,-3.9013,-3.9244,-3.9159,-3.934,-3.9289,-3.9471,-3.944,-3.9659,-3.9662,-3.9835,-3.9782,-4.0007,-3.9996,-4.0156,-4.0212,-4.0276,-4.0265,-4.036,-4.0339,-4.0541,-4.0435,-4.0468,-4.0415,-4.053,-4.0428,-4.0404,-4.0311,-4.0336,-4.0281,-4.0277,-4.0229,-4.0256,-4.0264,-4.0344,-4.0401,-4.0447,-4.0479,-4.046,-4.0239,-4.0015,-3.9888,-3.97,-3.9556,-3.9246,-3.8865,-3.8675,-3.8559,-3.8364,-3.8198,-3.8092,-3.7942,-3.7799,-3.7807,-3.7819,-3.7738,-3.7632,-3.766,-3.7692,-3.7691,-3.7735,-3.777,-3.7666,-3.768,-3.7717,-3.7801,-3.7754,-3.7696,-3.7628,-3.7627,-3.7683,-3.778,-3.7746,-3.7782,-3.783,-3.7873,-3.7764,-3.7755,-3.7916,-3.8078,-3.7986,-3.7818,-3.7594,-3.745,-3.7385,-3.7358,-3.742,-3.7514,-3.7508,-3.7489,-3.7455,-3.7571,-3.7602,-3.7709,-3.8012,-3.8195,-3.817,-3.814,-3.8283,-3.85,-3.8749,-3.8679,-3.8441,-3.8081,-3.7537,-3.753,-3.708,-3.7008,-3.6969,-3.6941,-3.6838,-3.6795,-3.6813,-3.6831,-3.6831,-3.6823,-3.6733,-3.6725,-3.6695,-3.6691,-3.6648,-3.701,-3.8547,-4.1603,-4.4251,-4.7496,-5.0522,-5.1038,-4.6308,-3.3346,-2.0495,-1.4417,-1.3832,-1.5108,-1.8412,-2.2407,-2.7123,-2.9451,-3.2836,-3.5402,-3.6491,-3.7311,-3.7371,-3.7827,-3.7703,-3.8069,-3.8129,-3.8631,-3.8525,-3.8604,-3.8323,-3.8636,-3.8628,-3.8792,-3.8718,-3.8902,-3.8838,-3.9023,-3.9053,-3.9321,-3.9252,-3.944,-3.9413,-3.9583,-3.9558,-3.962,-3.9634,-3.9832,-3.9845,-3.9971,-3.9963,-4.0023,-4,-4.0052,-4.0066,-4.0055,-4.0022,-4.0037,-3.9988,-4.0002,-3.9935,-3.9887,-3.9854,-3.9884,-3.993,-4.0041,-4.0178,-4.0275,-4.0277,-4.0133,-3.9967,-3.9709,-3.9545,-3.9208,-3.894,-3.8772,-3.8592,-3.8331,-3.8153,-3.7895,-3.7794,-3.7626,-3.7593,-3.7452,-3.7455,-3.7285,-3.7318,-3.7354,-3.7384,-3.7184,-3.7119,-3.7089,-3.7201,-3.715,-3.7209,-3.7202,-3.7304,-3.7222,-3.7333,-3.7274,-3.7314,-3.7259,-3.7329,-3.7329,-3.7481,-3.747,-3.7434,-3.7315,-3.7378,-3.7265,-3.7197,-3.7098,-3.7124,-3.7103,-3.7154,-3.7098,-3.7152,-3.7011,-3.6989,-3.6912,-3.6964,-3.6935,-3.698,-3.6922,-3.6917,-3.7003,-3.7179,-3.7359,-3.7526,-3.7644,-3.7674,-3.7634,-3.7669,-3.7657,-3.7622,-3.7192,-3.7082,-3.7049,-3.7097,-3.7138,-3.7087,-3.7163,-3.719,-3.6985,-3.6785,-3.6704,-3.6627,-3.6611,-3.6579,-3.6503,-3.6498,-3.6459,-3.6445,-3.643,-3.6411,-3.6818,-3.858,-4.1637,-4.4155,-4.7645,-5.0674,-5.1169,-4.5652,-3.2379,-1.9679,-1.4032,-1.3294,-1.4723,-1.8602,-2.2845,-2.7688,-2.9892,-3.3045,-3.5315,-3.6295,-3.6944,-3.7022,-3.7341,-3.7328,-3.7618,-3.7558,-3.7805,-3.777,-3.7994,-3.7945,-3.8187,-3.8163,-3.838,-3.8307,-3.8537,-3.8451,-3.8654,-3.8662,-3.8891,-3.8877,-3.9059,-3.9034,-3.921,-3.9219,-3.9383,-3.937,-3.9488,-3.9498,-3.9661,-3.9655,-3.9732,-3.9718,-3.9768,-3.9743,-3.9785,-3.9711,-3.9684,-3.9631,-3.9654,-3.961,-3.9638,-3.9568,-3.9612,-3.9667,-3.9759,-3.9818,-3.9895,-3.992,-3.9928,-3.9818,-3.9631,-3.935,-3.9118,-3.8842,-3.8707,-3.8461,-3.8199,-3.7994,-3.7829,-3.7673,-3.755,-3.7453,-3.7298,-3.7277,-3.7212,-3.7188,-3.7098,-3.7079,-3.7064,-3.7107,-3.7117,-3.7085,-3.7101,-3.711,-3.7133,-3.7188,-3.7173,-3.7177,-3.7158,-3.7204,-3.7194,-3.7204,-3.7185,-3.7202,-3.7204,-3.724,-3.7222,-3.7199,-3.7132,-3.7143,-3.7108,-3.7071,-3.7021,-3.698,-3.6985,-3.6984,-3.6982,-3.696,-3.6835,-3.6801,-3.674,-3.6757,-3.6732,-3.6736,-3.6678,-3.6693,-3.668,-3.6635,-3.6569,-3.665,-3.6708,-3.6816,-3.6974,-3.7109,-3.7222,-3.7274,-3.7233,-3.7265,-3.734,-3.7235,-3.6929,-3.6804,-3.6749,-3.6844,-3.685,-3.6871,-3.6994,-3.6927,-3.6693,-3.6565,-3.6482,-3.6408,-3.6265,-3.624,-3.6158,-3.6216,-3.622,-3.6208,-3.6135,-3.6212,-3.7073,-3.9387,-4.2202,-4.4643,-4.8221,-5.0006,-4.9305,-4.1153,-2.862,-2.0143,-1.7573,-1.6262,-1.5705,-1.8339,-2.2338,-2.6972,-3.0446,-3.3428,-3.4979,-3.62,-3.6542,-3.6923,-3.7003,-3.7141,-3.7198,-3.7378,-3.7415,-3.7612,-3.7651,-3.7728,-3.7722,-3.7883,-3.792,-3.8096,-3.8097,-3.8234,-3.8301,-3.8387,-3.8455,-3.8518,-3.8563,-3.8662,-3.8747,-3.8811,-3.8859,-3.8886,-3.8899,-3.8901,-3.8911,-3.8937,-3.8911,-3.8916,-3.8921,-3.8911,-3.8899,-3.8838,-3.8782,-3.8713,-3.8661,-3.8637,-3.869,-3.8492,-3.8591,-3.8622,-3.8807,-3.883,-3.8881,-3.899,-3.9149,-3.9115,-3.9026,-3.8869,-3.8636,-3.8371,-3.8216,-3.8048,-3.7762,-3.7542,-3.7356,-3.7201,-3.6986,-3.6875,-3.6825,-3.6754,-3.674,-3.6689,-3.67,-3.6554,-3.6619,-3.6635,-3.6669,-3.6585,-3.6657,-3.6598,-3.6654,-3.6611,-3.6587,-3.6382,-3.646,-3.6508,-3.6516,-3.6469,-3.6539,-3.6483,-3.6494,-3.6487,-3.6475,-3.6437,-3.644,-3.6418,-3.6478,-3.6415,-3.639,-3.6354,-3.6347,-3.6334,-3.6304,-3.6223,-3.6225,-3.6199,-3.6217,-3.6196,-3.6309,-3.6373,-3.6523,-3.6589,-3.67,-3.6816,-3.6829,-3.6868,-3.6964,-3.685,-3.6464,-3.6235,-3.6127,-3.6153,-3.632,-3.625,-3.634,-3.6435,-3.6283,-3.6078,-3.5977,-3.5914,-3.5876,-3.5802,-3.5796,-3.5799,-3.5718,-3.5748,-3.5656,-3.5709,-3.6212,-3.8054,-4.1351,-4.3935,-4.7591,-5.0101,-4.9741,-4.196,-2.8088,-1.6304,-1.1717,-1.1582,-1.266,-1.6087,-2.0068,-2.5171,-2.9465,-3.2808,-3.482,-3.5993,-3.6394,-3.6712,-3.6852,-3.7025,-3.7085,-3.7181,-3.7221,-3.7387,-3.7305,-3.7509,-3.7682,-3.7768,-3.7735,-3.7822,-3.7978,-3.8057,-3.8048,-3.8178,-3.8246,-3.8374,-3.8421,-3.8583,-3.8527,-3.8687,-3.873,-3.8877,-3.8898,-3.8852,-3.8417,-3.8681,-3.8891,-3.9049,-3.9253,-3.9367,-3.9448,-3.9404,-3.9406,-3.9325,-3.9296,-3.9221,-3.9248,-3.9247,-3.9311,-3.9303,-3.9401,-3.9413,-3.9503,-3.9439,-3.9327,-3.9202,-3.9015,-3.8738,-3.8453,-3.8082,-3.7794,-3.7465,-3.7269,-3.7041,-3.6838,-3.6645,-3.6537,-3.6413,-3.6353,-3.625,-3.6198,-3.6117,-3.6104,-3.6079,-3.6088,-3.6041,-3.6061,-3.6095,-3.6154,-3.6139,-3.6148,-3.6203,-3.6227,-3.6263,-3.6288,-3.626,-3.6257,-3.6236,-3.628,-3.6279,-3.6303,-3.626,-3.6292,-3.6268,-3.6265,-3.6225,-3.6189,-3.6157,-3.6157,-3.6142,-3.6084,-3.6051,-3.6049,-3.6043,-3.6075,-3.6055,-3.6109,-3.6188,-3.6282,-3.6453,-3.6606,-3.6682,-3.6697,-3.6728,-3.6791,-3.6871,-3.6566,-3.6166,-3.6148,-3.616,-3.6231,-3.6183,-3.6245,-3.6359,-3.6247,-3.6011,-3.5823,-3.5678,-3.5606,-3.5585,-3.5575,-3.5567,-3.5558,-3.5572,-3.5509,-3.5495,-3.5583,-3.645,-3.8743,-4.1697,-4.43,-4.8188,-5.0068,-4.9368,-4.0146,-2.6504,-1.6659,-1.2741,-1.2426,-1.4617,-1.9287,-2.1462,-2.6393,-3.0354,-3.3097,-3.484,-3.558,-3.5945,-3.6165,-3.6368,-3.651,-3.6631,-3.6702,-3.6839,-3.69,-3.7005,-3.7118,-3.7213,-3.7263,-3.7383,-3.7413,-3.7522,-3.7607,-3.7679,-3.7756,-3.7859,-3.7894,-3.8009,-3.8034,-3.816,-3.825,-3.8349,-3.8357,-3.8407,-3.8396,-3.8472,-3.8482,-3.8523,-3.8494,-3.8485,-3.8446,-3.8472,-3.8419,-3.8388,-3.8326,-3.8318,-3.8286,-3.8258,-3.8232,-3.8254,-3.8351,-3.8478,-3.8648,-3.8726,-3.8696,-3.8708,-3.8605,-3.8411,-3.8127,-3.8011,-3.7745,-3.7545,-3.7309,-3.7049,-3.6784,-3.6593,-3.6501,-3.6383,-3.6301,-3.6226,-3.6147,-3.6034,-3.6048,-3.605,-3.5996,-3.6041,-3.6031,-3.6077,-3.6076,-3.6069,-3.6019,-3.6059,-3.6082,-3.6075,-3.6021,-3.5998,-3.6023,-3.6103,-3.6095,-3.6052,-3.6001,-3.6081,-3.6107,-3.6022,-3.5932,-3.5862,-3.5867,-3.5858,-3.5836,-3.5825,-3.5792,-3.5762,-3.5727,-3.5756,-3.5803,-3.5867,-3.6005,-3.6105,-3.6228,-3.6286,-3.6349,-3.6404,-3.6464,-3.6384,-3.5977,-3.5764,-3.5729,-3.5697,-3.5817,-3.5768,-3.5801,-3.5886,-3.5837,-3.5651,-3.5445,-3.5321,-3.5255,-3.525,-3.5227,-3.5206,-3.5178,-3.5139,-3.5106,-3.5091,-3.5666,-3.6502,-3.9173,-4.1692,-4.4145,-4.7298,-4.7916,-4.6341,-3.7219,-2.7341,-2.0973,-1.8213,-1.6508,-1.7147,-2.0782,-2.4473,-2.8302,-3.1079,-3.3271,-3.4582,-3.5438,-3.5469,-3.586,-3.5886,-3.6146,-3.6138,-3.6419,-3.6388,-3.657,-3.6518,-3.6671,-3.6695,-3.6861,-3.686,-3.6992,-3.6989,-3.7216,-3.7252,-3.7406,-3.7409,-3.7477,-3.7485,-3.7611,-3.7619,-3.7674,-3.7686,-3.7784,-3.7773,-3.7826,-3.7768,-3.779,-3.7796,-3.7793,-3.7726,-3.7706,-3.7623,-3.7583,-3.7537,-3.7486,-3.7422,-3.7331,-3.729,-3.7327,-3.7368,-3.7426,-3.7562,-3.7689,-3.7847,-3.7889,-3.7847,-3.7737,-3.7585,-3.7446,-3.7247,-3.6936,-3.6751,-3.6526,-3.6379,-3.6252,-3.609,-3.5921,-3.5842,-3.5798,-3.5775,-3.5683,-3.5688,-3.564,-3.567,-3.568,-3.5768,-3.5728,-3.5758,-3.5726,-3.5742,-3.5711,-3.5735,-3.5722,-3.5756,-3.5733,-3.5763,-3.5723,-3.5751,-3.5702,-3.5734,-3.5708,-3.5669,-3.5627,-3.5634,-3.5613,-3.5664,-3.5588,-3.5544,-3.554,-3.5595,-3.5603,-3.568,-3.5712,-3.5764,-3.5898,-3.6019,-3.6102,-3.6189,-3.6269,-3.6387,-3.635,-3.5966,-3.5591,-3.5517,-3.5508,-3.5679,-3.5633,-3.5721,-3.5778,-3.5692,-3.5497,-3.5369,-3.5281,-3.524,-3.5194,-3.5176,-3.5164,-3.5139,-3.5073,-3.5072,-3.5075,-3.5375,-3.683,-3.9885,-4.2474,-4.5339,-4.8512,-4.8661,-4.533,-3.3553,-2.2213,-1.8271,-1.4238,-1.4113,-1.5578,-1.8945,-2.3113,-2.7313,-3.0903,-3.2154,-3.4059,-3.524,-3.5715,-3.602,-3.6225,-3.6372,-3.6546,-3.6639,-3.6741,-3.682,-3.6883,-3.6976,-3.7101,-3.712,-3.7256,-3.7321,-3.7443,-3.7521,-3.7627,-3.7688,-3.7815,-3.7901,-3.8024,-3.8071,-3.8187,-3.8233,-3.8359,-3.8422,-3.848,-3.8513,-3.8559,-3.8628,-3.8695,-3.87,-3.8723,-3.8678,-3.8697,-3.868,-3.8668,-3.8617,-3.8605,-3.8582,-3.8611,-3.862,-3.8689,-3.879,-3.8902,-3.8969,-3.8992,-3.8927,-3.8881,-3.8699,-3.8476,-3.8235,-3.7958,-3.7668,-3.7429,-3.7208,-3.7056,-3.6865,-3.6723,-3.6572,-3.6512,-3.6448,-3.6409,-3.6335,-3.6322,-3.6317,-3.632,-3.6362,-3.6345,-3.636,-3.6393,-3.6424,-3.6466,-3.6474,-3.6526,-3.6527,-3.6597,-3.6628,-3.6625,-3.6613,-3.6643,-3.6676,-3.6665,-3.6656,-3.6627,-3.662,-3.6636,-3.6612,-3.6615,-3.6567,-3.6553,-3.6536,-3.6528,-3.6546,-3.6583,-3.6682,-3.6809,-3.6981,-3.7128,-3.7195,-3.7223,-3.7282,-3.7363,-3.7313,-3.7115,-3.6733,-3.661,-3.6562,-3.6646,-3.6677,-3.6655,-3.6776,-3.6727,-3.6596,-3.6392,-3.629,-3.6206,-3.6191,-3.6159,-3.6143,-3.6108,-3.6124,-3.6135,-3.6112,-3.6113,-3.636,-3.7864,-4.1022,-4.3863,-4.727,-5.0441,-5.1159,-4.6003,-3.2418,-1.86,-1.2519,-1.1944,-1.3631,-1.7769,-2.187,-2.6858,-3.1197,-3.3926,-3.5055,-3.6176,-3.6771,-3.6906,-3.7255,-3.73,-3.7564,-3.7564,-3.7764,-3.7767,-3.7974,-3.7998,-3.8161,-3.8167,-3.8324,-3.8362,-3.8559,-3.8544,-3.8681,-3.8655,-3.8837,-3.8921,-3.9053,-3.9075,-3.921,-3.9242,-3.9405,-3.9462,-3.9538,-3.9569,-3.9678,-3.9702,-3.9793,-3.9779,-3.9784,-3.9776,-3.9823,-3.9793,-3.9754,-3.9719,-3.9694,-3.968,-3.9684,-3.9693,-3.9729,-3.9811,-3.9944,-4.0071,-4.0121,-4.0148,-4.0094,-3.9968,-3.9764,-3.9506,-3.9191,-3.8906,-3.867,-3.8556,-3.8329,-3.81,-3.7905,-3.7794,-3.7665,-3.7584,-3.7473,-3.7402,-3.7344,-3.7312,-3.7261,-3.7227,-3.7229,-3.7236,-3.7237,-3.7277,-3.7311,-3.7321,-3.7339,-3.7379,-3.7405,-3.7434,-3.7413,-3.7463,-3.748,-3.7525,-3.7497,-3.7507,-3.7466,-3.7503,-3.7452,-3.7452,-3.741,-3.7396,-3.7371,-3.7361,-3.7316,-3.7292,-3.7257,-3.724,-3.7208,-3.7237,-3.7172,-3.7156,-3.712,-3.7095,-3.7085,-3.706,-3.7011,-3.7035,-3.7029,-3.7043,-3.6986,-3.6972,-3.6962,-3.6979,-3.6963,-3.6966,-3.6926,-3.6918,-3.6959,-3.7056,-3.7227,-3.7347,-3.745,-3.7555,-3.7664,-3.7643,-3.7585,-3.7683,-3.7519,-3.7315,-3.7204,-3.7247,-3.7242,-3.7271,-3.7274,-3.7309,-3.7205,-3.7011,-3.6917,-3.6855,-3.6785,-3.6694,-3.6653,-3.6614,-3.6615,-3.659,-3.6562,-3.6506,-3.658,-3.7352,-3.969,-4.2884,-4.5651,-4.7663,-5.0742,-5.1772,-4.6869,-3.3742,-1.9768,-1.3257,-1.2331,-1.3992,-1.7868,-2.2181,-2.7267,-3.1637,-3.4337,-3.6209,-3.6851,-3.7326,-3.7489,-3.7761,-3.7825,-3.7946,-3.7993,-3.8205,-3.8241,-3.8436,-3.8446,-3.8589,-3.8646,-3.8803,-3.8835,-3.8955,-3.896,-3.9138,-3.925,-3.9357,-3.9408,-3.9499,-3.9572,-3.9704,-3.9717,-3.981,-3.9895,-3.9979,-4.0037,-4.013,-4.013,-4.0162,-4.0179,-4.0211,-4.0238,-4.0204,-4.0162,-4.0141,-4.0143,-4.0101,-4.0089,-4.0049,-4.0113,-4.0116,-4.0218,-4.0293,-4.04,-4.0475,-4.0548,-4.0562,-4.0496,-4.0313,-4.0127,-3.9861,-3.9597,-3.9277,-3.8994,-3.8742,-3.8547,-3.8396,-3.8241,-3.8042,-3.7991,-3.7874,-3.7841,-3.7763,-3.7691,-3.7625,-3.7615,-3.7597,-3.7622,-3.7584,-3.7597,-3.7591,-3.7637,-3.765,-3.7676,-3.765,-3.7708,-3.7702,-3.7729,-3.7736,-3.7749,-3.774,-3.7749,-3.7759,-3.7766,-3.7691,-3.7664,-3.7615,-3.7647,-3.7609,-3.7576,-3.7525,-3.7531,-3.7503,-3.7502,-3.7381,-3.7328,-3.7339,-3.7392,-3.7372,-3.7325,-3.7281,-3.7245,-3.7236,-3.7199,-3.7191,-3.7167,-3.7121,-3.7111,-3.7091,-3.7072,-3.7038,-3.7031,-3.6993,-3.6985,-3.696,-3.6948,-3.6967,-3.6985,-3.6989,-3.6958,-3.6923,-3.6909,-3.6869,-3.6861,-3.6875,-3.6842,-3.6819,-3.6877,-3.688,-3.6887,-3.6869,-3.6863,-3.6936,-3.7011,-3.7111,-3.7252,-3.7307,-3.7368,-3.7462,-3.7484,-3.7466,-3.7548,-3.7569,-3.7292,-3.7114,-3.7097,-3.7123,-3.7104,-3.7166,-3.7204,-3.7066,-3.6828,-3.6766,-3.6695,-3.6628,-3.6604,-3.6581,-3.6548,-3.6595,-3.6563,-3.6501,-3.6482,-3.651,-3.6681,-3.7973,-4.065,-4.4371,-4.7836,-5.0029,-4.9753,-4.3515,-3.1146,-2.1997,-1.7469,-1.6473,-1.6339,-1.7953,-2.1953,-2.6171,-3.0093,-3.2981,-3.508,-3.6263,-3.6922,-3.7083,-3.7426,-3.7451,-3.7685,-3.7738,-3.7911,-3.7948,-3.8094,-3.8063,-3.8227,-3.819,-3.8421,-3.8428,-3.8531,-3.8489,-3.8662,-3.8791,-3.8934,-3.8898,-3.8963,-3.8978,-3.9052,-3.9093,-3.9212,-3.9231,-3.9297,-3.9301,-3.9367,-3.9342,-3.9329,-3.9307,-3.9355,-3.9382,-3.9357,-3.93,-3.9258,-3.917,-3.9114,-3.9118,-3.9058,-3.901,-3.9014,-3.9035,-3.9094,-3.9203,-3.9253,-3.9402,-3.9448,-3.9462,-3.9388,-3.9264,-3.9104,-3.8902,-3.8629,-3.841,-3.8142,-3.7947,-3.773,-3.7583,-3.739,-3.7305,-3.717,-3.7144,-3.7052,-3.703,-3.6948,-3.6972,-3.6954,-3.7006,-3.6998,-3.6975,-3.6946,-3.6987,-3.6963,-3.701,-3.6965,-3.6976,-3.6957,-3.6987,-3.6946,-3.693,-3.6902,-3.6918,-3.6893,-3.6887,-3.6776,-3.6765,-3.6737,-3.6775,-3.6734,-3.673,-3.6662,-3.6666,-3.6622,-3.6633,-3.6604,-3.6576,-3.6519,-3.6517,-3.65,-3.6482,-3.6443,-3.6424,-3.6445,-3.6444,-3.6392,-3.6377,-3.636,-3.6334,-3.6363,-3.6356,-3.6322,-3.6311,-3.6303,-3.6323,-3.6308,-3.6305,-3.6284,-3.6298,-3.6316,-3.6294,-3.6295,-3.6299,-3.627,-3.626,-3.6263,-3.6281,-3.6242,-3.6197,-3.6213,-3.6241,-3.6292,-3.6362,-3.6455,-3.6591,-3.6703,-3.6794,-3.6867,-3.6883,-3.6834,-3.6929,-3.6879,-3.6562,-3.6408,-3.6378,-3.649,-3.6505,-3.6522,-3.6579,-3.6532,-3.6371,-3.6271,-3.6192,-3.612,-3.6057,-3.6024,-3.6008,-3.5994,-3.5961,-3.592,-3.5909,-3.5943,-3.663,-3.753,-4.0342,-4.3135,-4.5898,-4.9144,-4.9606,-4.6571,-3.4822,-2.2622,-1.5579,-1.4299,-1.4852,-1.711,-2.1281,-2.5836,-2.9946,-3.282,-3.4912,-3.5975,-3.6614,-3.6601,-3.6976,-3.7024,-3.7341,-3.7338,-3.7583,-3.7556,-3.7789,-3.7753,-3.799,-3.7967,-3.8124,-3.8107,-3.831,-3.8303,-3.8462,-3.8484,-3.8634,-3.8706,-3.8801,-3.8847,-3.8961,-3.8991,-3.9127,-3.9198,-3.9325,-3.9374,-3.9445,-3.9494,-3.9564,-3.9585,-3.9614,-3.9591,-3.9585,-3.9569,-3.9587,-3.9501,-3.9427,-3.9402,-3.939,-3.9404,-3.9373,-3.9388,-3.9405,-3.9501,-3.9556,-3.9626,-3.955,-3.9498,-3.9352,-3.9189,-3.8895,-3.8672,-3.8381,-3.8153,-3.7889,-3.7706,-3.7565,-3.7419,-3.7233,-3.7151,-3.7008,-3.6932,-3.681,-3.6806,-3.6717,-3.6747,-3.6667,-3.668,-3.6645,-3.6711,-3.6709,-3.6742,-3.6705,-3.6766,-3.6762,-3.6806,-3.6811,-3.6799,-3.6775,-3.6836,-3.6831,-3.6857,-3.6795,-3.6804,-3.6781,-3.6798,-3.6752,-3.6753,-3.6702,-3.6728,-3.6676,-3.6676,-3.6602,-3.6584,-3.6541,-3.6575,-3.6544,-3.6517,-3.6451,-3.6443,-3.6426,-3.6447,-3.6375,-3.6388,-3.6337,-3.6366,-3.6355,-3.6367,-3.6284,-3.6274,-3.6243,-3.6263,-3.6242,-3.6209,-3.6208,-3.6202,-3.6239,-3.6234,-3.6204,-3.6194,-3.6178,-3.6178,-3.6194,-3.6156,-3.6147,-3.615,-3.6154,-3.6181,-3.6161,-3.6131,-3.6117,-3.6138,-3.6131,-3.6112,-3.6113,-3.6114,-3.6123,-3.6177,-3.6259,-3.636,-3.6502,-3.6603,-3.6737,-3.6797,-3.6792,-3.6722,-3.6877,-3.6797,-3.6547,-3.6371,-3.641,-3.6438,-3.6483,-3.6492,-3.6472,-3.636,-3.6241,-3.6116,-3.6087,-3.5977,-3.5913,-3.585,-3.586,-3.5821,-3.5801,-3.5764,-3.5769,-3.5829,-3.6768,-3.9163,-4.23,-4.509,-4.727,-5.0032,-5.0964,-4.4781,-3.1272,-1.7657,-1.1906,-1.1485,-1.3419,-1.746,-2.1756,-2.6903,-3.1095,-3.3719,-3.5466,-3.6114,-3.6539,-3.6769,-3.6968,-3.7017,-3.7201,-3.7315,-3.7475,-3.7518,-3.7608,-3.7687,-3.7852,-3.7919,-3.803,-3.8066,-3.8178,-3.8264,-3.8357,-3.8393,-3.8507,-3.8585,-3.8715,-3.8784,-3.8833,-3.8887,-3.8988,-3.9086,-3.9224,-3.9315,-3.9362,-3.9399,-3.9473,-3.9526,-3.9563,-3.9564,-3.9543,-3.9542,-3.9537,-3.9498,-3.9446,-3.9406,-3.9397,-3.9383,-3.9384,-3.9388,-3.9398,-3.946,-3.9554,-3.9591,-3.9543,-3.9439,-3.9303,-3.913,-3.8893,-3.8589,-3.8274,-3.8001,-3.7766,-3.7577,-3.7341,-3.7159,-3.7074,-3.698,-3.6863,-3.6783,-3.6657,-3.6596,-3.6535,-3.6535,-3.6494,-3.6471,-3.6423,-3.6443,-3.6465,-3.6518,-3.6494,-3.6507,-3.6547,-3.6603,-3.6615,-3.6602,-3.6612,-3.6662,-3.667,-3.6682,-3.6654,-3.6626,-3.6617,-3.6615,-3.6603,-3.6589,-3.6569,-3.6541,-3.6543,-3.6537,-3.6475,-3.6443,-3.64,-3.6376,-3.6371,-3.6368,-3.6299,-3.6248,-3.6237,-3.624,-3.6244,-3.6192,-3.6123,-3.6151,-3.6128,-3.6142,-3.6086,-3.6068,-3.605,-3.6051,-3.6047,-3.6025,-3.6003,-3.6022,-3.6028,-3.602,-3.5954,-3.5938,-3.5918,-3.5943,-3.5933,-3.5939,-3.5908,-3.5901,-3.5903,-3.5914,-3.5873,-3.5836,-3.5826,-3.5832,-3.5811,-3.5802,-3.5826,-3.5836,-3.5828,-3.5857,-3.5853,-3.5808,-3.5773,-3.5781,-3.5836,-3.5955,-3.6038,-3.6163,-3.6269,-3.6379,-3.6448,-3.6429,-3.641,-3.6557,-3.6513,-3.6207,-3.6092,-3.6025,-3.614,-3.6241,-3.6213,-3.6224,-3.6076,-3.5851,-3.576,-3.5713,-3.5622,-3.5539,-3.5486,-3.5501,-3.5483,-3.5442,-3.5385,-3.5384,-3.5593,-3.6944,-3.8252,-4.1206,-4.3874,-4.756,-4.9705,-4.946,-4.1326,-2.7612,-1.7013,-1.2775,-1.2862,-1.4423,-1.8615,-2.3003,-2.7912,-3.1357,-3.3815,-3.5081,-3.5889,-3.5897,-3.6333,-3.636,-3.662,-3.6622,-3.6852,-3.6876,-3.7072,-3.7055,-3.7259,-3.7244,-3.7416,-3.7443,-3.7587,-3.761,-3.7796,-3.7827,-3.7955,-3.7989,-3.8064,-3.8123,-3.8262,-3.8327,-3.8431,-3.8456,-3.8551,-3.8567,-3.8648,-3.8676,-3.8678,-3.8707,-3.8792,-3.8806,-3.8783,-3.8731,-3.8704,-3.8666,-3.8663,-3.863,-3.8543,-3.8499,-3.8481,-3.8503,-3.8484,-3.8561,-3.8537,-3.8644,-3.8705,-3.8738,-3.8671,-3.8586,-3.8392,-3.824,-3.7941,-3.7641,-3.7363,-3.7188,-3.706,-3.6911,-3.6668,-3.6503,-3.6303,-3.6235,-3.6147,-3.6137,-3.6009,-3.6001,-3.5914,-3.5926,-3.5891,-3.5872,-3.5855,-3.5967,-3.5945,-3.5981,-3.5916,-3.6004,-3.5992,-3.6001,-3.5964,-3.5979,-3.5922,-3.5968,-3.5972,-3.6025,-3.5988,-3.5986,-3.5926,-3.5938,-3.5849,-3.5866,-3.5816,-3.5867,-3.5815,-3.5811,-3.5758,-3.5749,-3.5695,-3.5731,-3.5686,-3.567,-3.5599,-3.5603,-3.5581,-3.5591,-3.554,-3.5482,-3.5425,-3.5454,-3.5473,-3.5479,-3.5438,-3.5442,-3.5428,-3.5405,-3.5416,-3.5403,-3.5344,-3.5396,-3.5419,-3.5413,-3.5381,-3.5371,-3.5374,-3.5383,-3.5369,-3.5371,-3.5344,-3.5322,-3.531,-3.5332,-3.533,-3.5374,-3.5459,-3.56,-3.5681,-3.5758,-3.5843,-3.5889,-3.5922,-3.5879,-3.5998,-3.5901,-3.5637,-3.5467,-3.5552,-3.5577,-3.5558,-3.5617,-3.567,-3.5534,-3.5324,-3.5226,-3.5184,-3.5097,-3.5086,-3.5066,-3.5015,-3.5001,-3.4953,-3.4934,-3.4949,-3.5155,-3.6529,-3.9344,-4.1855,-4.4632,-4.7831,-4.8287,-4.5982,-3.4984,-2.3627,-1.6674,-1.4865,-1.4724,-1.5173,-1.8379,-2.2453,-2.7013,-3.0232,-3.2824,-3.4287,-3.5315,-3.5494,-3.5896,-3.5918,-3.6201,-3.6252,-3.6481,-3.6476,-3.6693,-3.6675,-3.6843,-3.6837,-3.7029,-3.7034,-3.7223,-3.7244,-3.7413,-3.7413,-3.7558,-3.7588,-3.7716,-3.7753,-3.7834,-3.7873,-3.7992,-3.806,-3.8131,-3.8162,-3.8233,-3.8278,-3.8326,-3.8363,-3.8357,-3.838,-3.8378,-3.8363,-3.8332,-3.8305,-3.8225,-3.8212,-3.8161,-3.8144,-3.8082,-3.8089,-3.8094,-3.8207,-3.8264,-3.8322,-3.8273,-3.8299,-3.8199,-3.8141,-3.7898,-3.7679,-3.7406,-3.7187,-3.6899,-3.6707,-3.6453,-3.6295,-3.6112,-3.6042,-3.5899,-3.5834,-3.5738,-3.5717,-3.564,-3.5678,-3.5613,-3.5629,-3.5591,-3.5656,-3.5646,-3.5679,-3.5646,-3.5695,-3.5671,-3.5725,-3.5664,-3.5669,-3.5664,-3.5709,-3.566,-3.5664,-3.5616,-3.5632,-3.5598,-3.5643,-3.5605,-3.5573,-3.5509,-3.5531,-3.551,-3.5511,-3.5449,-3.5467,-3.5421,-3.5435,-3.54,-3.5378,-3.5337,-3.5352,-3.5334,-3.5327,-3.526,-3.5269,-3.5262,-3.5241,-3.5232,-3.5231,-3.5196,-3.5173,-3.5158,-3.5169,-3.5142,-3.5117,-3.5114,-3.5135,-3.5136,-3.5086,-3.5065,-3.507,-3.5085,-3.5085,-3.5063,-3.5043,-3.5047,-3.5026,-3.5053,-3.5048,-3.4983,-3.4974,-3.5041,-3.5129,-3.5309,-3.5422,-3.5565,-3.5668,-3.5754,-3.5725,-3.5698,-3.5787,-3.5611,-3.542,-3.5413,-3.5354,-3.5442,-3.5414,-3.5436,-3.5483,-3.5384,-3.5183,-3.506,-3.4994,-3.4954,-3.4844,-3.4799,-3.4768,-3.4764,-3.4737,-3.4716,-3.4646,-3.4981,-3.6524,-3.7974,-4.0954,-4.3666,-4.7315,-4.9263,-4.8325,-3.8521,-2.4239,-1.408,-1.0808,-1.1595,-1.388,-1.8483,-2.2984,-2.784,-3.106,-3.3523,-3.4517,-3.527,-3.5189,-3.57,-3.5619,-3.5965,-3.5936,-3.6237,-3.6206,-3.6479,-3.6407,-3.6607,-3.6593,-3.6816,-3.6781,-3.6991,-3.6941,-3.712,-3.7139,-3.7334,-3.7338,-3.7443,-3.7446,-3.7604,-3.763,-3.7795,-3.7811,-3.7959,-3.7985,-3.8121,-3.8157,-3.8216,-3.8226,-3.8309,-3.8344,-3.8365,-3.8332,-3.8316,-3.8309,-3.8297,-3.8292,-3.8264,-3.8215,-3.8197,-3.8245,-3.8256,-3.831,-3.8305,-3.8371,-3.8352,-3.8361,-3.8224,-3.8073,-3.7776,-3.755,-3.7245,-3.7009,-3.667,-3.6501,-3.6329,-3.6185,-3.5981,-3.5887,-3.5687,-3.5668,-3.5527,-3.5515,-3.5371,-3.5372,-3.5301,-3.5336,-3.5288,-3.5321,-3.5237,-3.5301,-3.5297,-3.5376,-3.5346,-3.5376,-3.5312,-3.541,-3.5381,-3.5469,-3.5382,-3.5445,-3.5391,-3.5446,-3.5389,-3.5426,-3.5341,-3.5371,-3.5337,-3.5356,-3.5223,-3.5245,-3.5218,-3.5225,-3.5144,-3.5171,-3.5099,-3.5134,-3.5082,-3.513,-3.5052,-3.5012,-3.4946,-3.4956,-3.495,-3.4952,-3.493,-3.493,-3.4862
