6.2658,6.2732,6.2872,6.3179,6.3349,6.3314,6.3262,6.3453,6.325,6.3041,6.2721,6.2539,6.2471,6.2298,6.2246,6.2283,6.2411,6.2538,6.2442,6.2383,6.2332,6.2382,6.2283,6.1089,5.9231,5.857,5.9225,6.1835,6.5715,6.7835,7.3256,7.5932,7.9574,7.7915,7.2866,6.7252,6.4633,6.434,6.3393,6.3251,6.2695,6.3198,6.2825,6.319,6.2715,6.3024,6.2669,6.3113,6.2682,6.2945,6.2604,6.304,6.2846,6.3076,6.2764,6.3018,6.2937,6.3354,6.3132,6.3294,6.2968,6.3147,6.3105,6.3404,6.3294,6.3512,6.3543,6.3819,6.3765,6.3907,6.3755,6.3849,6.3898,6.4135,6.4219,6.4286,6.4438,6.4637,6.4878,6.5052,6.5209,6.5351,6.5701,6.6114,6.639,6.6384,6.6523,6.6648,6.6936,6.7043,6.7234,6.7284,6.7532,6.7671,6.7825,6.7766,6.7832,6.7695,6.7559,6.7131,6.6699,6.6127,6.581,6.5422,6.5104,6.4649,6.4372,6.4109,6.3929,6.364,6.3509,6.3193,6.3078,6.2802,6.2818,6.2591,6.2655,6.2541,6.2656,6.2543,6.2553,6.233,6.2357,6.2342,6.2472,6.2416,6.2524,6.2468,6.2528,6.2413,6.242,6.2293,6.2389,6.2354,6.2526,6.2479,6.2473,6.2296,6.2418,6.247,6.2675,6.2535,6.2566,6.2458,6.2566,6.2451,6.2508,6.2358,6.2411,6.242,6.2559,6.2473,6.2406,6.2432,6.2572,6.2486,6.2544,6.2376,6.2267,6.2252,6.2362,6.2363,6.2333,6.2228,6.226,6.2303,6.2373,6.2297,6.219,6.2088,6.2239,6.2259,6.2218,6.209,6.2136,6.2075,6.2158,6.2084,6.216,6.2233,6.2267,6.2253,6.2115,6.2087,6.2065,6.2134,6.2144,6.2164,6.2023,6.2012,6.2075,6.2169,6.2118,6.2161,6.2119,6.2233,6.2218,6.2137,6.2017,6.2134,6.2091,6.2178,6.2133,6.2072,6.2033,6.2111,6.2138,6.2188,6.2139,6.2039,6.1961,6.2093,6.2021,6.2005,6.207,6.2212,6.2232,6.2222,6.2083,6.2161,6.209,6.222,6.2211,6.2162,6.2135,6.2156,6.2217,6.236,6.2229,6.2213,6.2248,6.2375,6.2541,6.2544,6.2465,6.2504,6.2642,6.3012,6.3051,6.2892,6.277,6.2863,6.274,6.2668,6.2577,6.2426,6.2294,6.2335,6.2226,6.2254,6.2161,6.2218,6.2334,6.2358,6.2155,6.2223,6.1818,6.0351,5.8846,5.8453,5.9713,6.3241,6.7163,7.2118,7.4372,7.4334,7.7767,7.4773,7.1939,6.4988,6.3176,6.3259,6.2542,6.2914,6.2248,6.287,6.2442,6.2961,6.2549,6.2997,6.2433,6.2883,6.2429,6.2938,6.2544,6.2938,6.2478,6.2975,6.2702,6.3026,6.2696,6.3126,6.3022,6.3319,6.3038,6.3261,6.3083,6.3365,6.3314,6.3515,6.3383,6.3598,6.36,6.3868,6.391,6.4071,6.3916,6.4084,6.4197,6.4466,6.4554,6.4819,6.4969,6.5285,6.5563,6.5683,6.5847,6.6155,6.6396,6.6503,6.6706,6.6875,6.7108,6.7219,6.7525,6.772,6.7921,6.7913,6.7909,6.7859,6.7783,6.7619,6.7487,6.7082,6.6874,6.6316,6.588,6.5476,6.5207,6.4794,6.4552,6.4109,6.4086,6.3629,6.3496,6.3321,6.3276,6.3062,6.3171,6.3104,6.311,6.2755,6.2814,6.2672,6.292,6.2813,6.2805,6.2636,6.2837,6.2757,6.293,6.2762,6.2818,6.2631,6.2858,6.2718,6.2831,6.265,6.2784,6.2732,6.3014,6.2955,6.3026,6.2913,6.308,6.3038,6.3031,6.2993,6.3104,6.3071,6.3113,6.2944,6.2955,6.2876,6.3067,6.3135,6.3322,6.3132,6.3077,6.2965,6.2962,6.2925,6.2899,6.2865,6.2896,6.2893,6.2979,6.2885,6.2984,6.3031,6.3018,6.3005,6.3032,6.2837,6.2723,6.28,6.2926,6.2953,6.2983,6.3011,6.2987,6.3035,6.3135,6.2948,6.2837,6.2881,6.2967,6.2895,6.2869,6.2857,6.292,6.2968,6.2992,6.2918,6.2853,6.2933,6.3029,6.304,6.2881,6.2924,6.284,6.2914,6.2902,6.2877,6.2849,6.3021,6.3062,6.3041,6.282,6.2723,6.2839,6.2957,6.299,6.2913,6.2762,6.2832,6.289,6.3048,6.3005,6.3015,6.2898,6.3009,6.3039,6.3087,6.3013,6.305,6.2996,6.3082,6.2925,6.2996,6.2978,6.3117,6.3137,6.3227,6.3047,6.3116,6.3196,6.3464,6.3474,6.3398,6.3289,6.3327,6.3554,6.3972,6.3886,6.3742,6.3609,6.3815,6.3766,6.3568,6.3421,6.334,6.3288,6.3298,6.3253,6.3233,6.3209,6.3312,6.3218,6.3195,6.3165,6.3107,6.2623,6.101,5.9651,5.9657,6.0921,6.4672,6.8748,7.4106,7.6475,7.9176,8.0362,7.8374,7.403,6.6233,6.4899,6.4633,6.4202,6.3934,6.3908,6.4011,6.3976,6.413,6.3943,6.3875,6.3756,6.3892,6.3771,6.3854,6.3758,6.3921,6.3936,6.4028,6.4017,6.4156,6.4111,6.4189,6.4117,6.4172,6.4161,6.4223,6.4355,6.4379,6.445,6.447,6.4491,6.469,6.4861,6.499,6.5038,6.5062,6.5126,6.5399,6.5454,6.5549,6.565,6.581,6.6031,6.6285,6.6475,6.6562,6.6761,6.709,6.7393,6.7617,6.7853,6.8076,6.8129,6.8282,6.8455,6.8643,6.8793,6.8889,6.9035,6.912,6.8895,6.8681,6.8607,6.8358,6.7942,6.7501,6.7024,6.6722,6.6447,6.6134,6.5783,6.5387,6.5299,6.5107,6.4936,6.4712,6.4527,6.4344,6.4356,6.4483,6.4424,6.4215,6.4095,6.4073,6.4137,6.4004,6.4072,6.4018,6.4104,6.4121,6.4064,6.4035,6.4052,6.3994,6.4085,6.4128,6.4106,6.4093,6.4176,6.4273,6.44,6.436,6.4273,6.4131,6.4172,6.419,6.4163,6.42,6.4278,6.4344,6.443,6.4348,6.4297,6.423,6.4334,6.4463,6.444,6.4277,6.4128,6.4153,6.4237,6.4206,6.4255,6.4228,6.4261,6.4231,6.4129,6.4044,6.4113,6.4133,6.4279,6.4215,6.4239,6.4086,6.4056,6.4085,6.4037,6.4027,6.4119,6.421,6.4263,6.4268,6.4177,6.4057,6.4175,6.4236,6.4219,6.4131,6.4084,6.4177,6.4301,6.429,6.4182,6.4051,6.4095,6.4268,6.4288,6.4246,6.4263,6.4172,6.4239,6.4262,6.4257,6.423,6.4308,6.4346,6.4432,6.4317,6.4172,6.4244,6.4316,6.4389,6.4388,6.4174,6.4167,6.4263,6.432,6.4443,6.4271,6.4217,6.4304,6.4331,6.4293,6.425,6.4192,6.4331,6.4376,6.4339,6.4308,6.4309,6.4304,6.4421,6.4496,6.443,6.4296,6.4294,6.4294,6.4354,6.436,6.4309,6.4266,6.4298,6.4379,6.4384,6.4443,6.4418,6.4499,6.4641,6.4588,6.4759,6.4699,6.468,6.4708,6.4802,6.4712,6.4682,6.4578,6.4407,6.4217,6.4044,6.4084,6.422,6.4337,6.4418,6.4152,6.406,6.4016,6.3744,6.2139,6.1221,6.0721,6.0763,6.1712,6.5294,6.9585,7.7211,8.0614,8.1151,7.8381,7.2135,6.7799,6.6012,6.6055,6.5286,6.5125,6.4689,6.5024,6.4804,6.5006,6.461,6.4677,6.4526,6.4708,6.46,6.4761,6.4435,6.4596,6.455,6.4907,6.4714,6.4861,6.4776,6.5033,6.5041,6.506,6.4941,6.5192,6.5248,6.5268,6.5179,6.5208,6.5128,6.532,6.5485,6.575,6.5694,6.5788,6.5854,6.6088,6.6146,6.6138,6.6279,6.6465,6.6823,6.6968,6.7274,6.7414,6.7575,6.7645,6.797,6.8024,6.8111,6.8314,6.857,6.8844,6.9142,6.9179,6.9304,6.9476,6.9546,6.9452,6.9459,6.9304,6.9199,6.8888,6.8527,6.8063,6.7712,6.7498,6.7359,6.6926,6.6547,6.6062,6.586,6.5671,6.5486,6.5024,6.4879,6.4694,6.4736,6.4762,6.4657,6.4513,6.4613,6.4591,6.4637,6.4458,6.4532,6.4483,6.4549,6.4561,6.4567,6.4538,6.4491,6.4422,6.4575,6.4565,6.4679,6.4548,6.4736,6.4668,6.4721,6.4659,6.4694,6.4773,6.4797,6.4667,6.4685,6.4624,6.4713,6.4725,6.4751,6.4646,6.4687,6.4713,6.4828,6.4725,6.4534,6.4598,6.4682,6.4771,6.4819,6.4795,6.4742,6.4719,6.4728,6.4614,6.4542,6.4427,6.4403,6.4632,6.4703,6.4681,6.4545,6.4602,6.4596,6.4671,6.4482,6.4409,6.4377,6.45,6.4617,6.4528,6.444,6.46,6.4697,6.4728,6.4658,6.4536,6.4422,6.4508,6.4703,6.4637,6.4454,6.4329,6.4355,6.4481,6.4458,6.4442,6.4424,6.4368,6.4465,6.4537,6.4457,6.4495,6.4455,6.4539,6.4538,6.4499,6.4353,6.4491,6.4614,6.4819,6.46,6.4453,6.434,6.4389,6.4504,6.4503,6.4375,6.4394,6.4439,6.4518,6.444,6.4476,6.4524,6.4579,6.46,6.4535,6.45,6.4398,6.4498,6.4592,6.463,6.4526,6.4467,6.4472,6.4407,6.451,6.4429,6.4539,6.4736,6.4773,6.468,6.4712,6.467,6.4614,6.465,6.4856,6.5059,6.5043,6.5046,6.5064,6.5153,6.5021,6.4772,6.4647,6.4548,6.4514,6.4417,6.4476,6.457,6.4586,6.4519,6.4333,6.4192,6.4177,6.4153,6.2069,6.0856,6.0909,6.2441,6.6352,7.05,7.5935,7.9197,8.11,7.8759,7.3754,6.7979,6.6057,6.5585,6.5218,6.5022,6.4823,6.5086,6.487,6.5145,6.4888,6.484,6.4463,6.4629,6.4486,6.4705,6.4739,6.4768,6.4659,6.4809,6.4775,6.4979,6.4869,6.4853,6.495,6.52,6.5141,6.5173,6.5015,6.4993,6.4989,6.5161,6.5164,6.5375,6.5414,6.5486,6.5538,6.5715,6.5676,6.5748,6.5879,6.6147,6.6276,6.6385,6.6495,6.6752,6.6866,6.699,6.7057,6.7348,6.7721,6.799,6.8167,6.823,6.8468,6.8747,6.9041,6.9121,6.9179,6.9327,6.9465,6.9494,6.9429,6.9145,6.8936,6.8839,6.8629,6.8373,6.8086,6.7599,6.7276,6.6852,6.6626,6.6268,6.586,6.5603,6.5412,6.512,6.489,6.4644,6.4608,6.463,6.4626,6.45,6.4223,6.4215,6.4323,6.4381,6.443,6.4343,6.4346,6.4366,6.4442,6.4454,6.4381,6.435,6.44,6.441,6.4423,6.441,6.4534,6.4595,6.4525,6.4464,6.4459,6.4452,6.4564,6.4541,6.449,6.4433,6.4442,6.4432,6.447,6.454,6.4455,6.4394,6.443,6.4452,6.4454,6.4394,6.4364,6.4351,6.4439,6.4411,6.4352,6.4364,6.4391,6.4408,6.4355,6.431,6.4265,6.4249,6.4176,6.425,6.4211,6.4158,6.4217,6.4208,6.4294,6.4276,6.422,6.4163,6.4204,6.4221,6.4189,6.426,6.4199,6.4235,6.4271,6.4203,6.415,6.4155,6.4182,6.4205,6.4227,6.4187,6.4124,6.4068,6.4039,6.3994,6.3916,6.4002,6.4196,6.4206,6.4247,6.4169,6.4188,6.4204,6.4381,6.4206,6.4092,6.4066,6.3999,6.4116,6.4159,6.4145,6.4042,6.3986,6.4069,6.4175,6.4124,6.4083,6.401,6.4031,6.4042,6.4109,6.4034,6.406,6.406,6.416,6.4126,6.4155,6.4178,6.4339,6.4435,6.4551,6.4425,6.4311,6.4342,6.4513,6.4845,6.4764,6.47,6.4742,6.4781,6.4899,6.4748,6.448,6.4277,6.4157,6.4213,6.4197,6.4065,6.41,6.4354,6.4349,6.4295,6.3855,6.2403,6.092,6.0448,6.1537,6.2809,6.6276,7.0541,7.5554,7.8911,7.886,7.8909,7.2347,6.6857,6.5699,6.4857,6.4911,6.4453,6.4509,6.4706,6.4651,6.4558,6.4658,6.4658,6.4631,6.4551,6.4598,6.467,6.4741,6.4667,6.4768,6.472,6.4816,6.4851,6.4966,6.5043,6.5102,6.506,6.5179,6.5205,6.5312,6.531,6.5482,6.5684,6.5745,6.5792,6.5684,6.5661,6.5794,6.6084,6.6268,6.6288,6.6364,6.6446,6.6726,6.688,6.7035,6.7115,6.7287,6.7512,6.7793,6.7964,6.8224,6.8526,6.8655,6.894,6.9057,6.9131,6.9306,6.9542,6.9708,6.9738,6.9705,6.9841,6.9896,6.9805,6.9389,6.8935,6.8609,6.8315,6.8072,6.7665,6.7262,6.6952,6.6827,6.6545,6.6174,6.5797,6.5527,6.5347,6.5247,6.5197,6.5141,6.5085,6.5014,6.5064,6.4951,6.4782,6.4716,6.4783,6.4801,6.4802,6.4738,6.4727,6.4803,6.4959,6.4892,6.4962,6.4984,6.492,6.4919,6.5013,6.4945,6.4924,6.4895,6.4934,6.5063,6.5114,6.5092,6.5032,6.5075,6.5102,6.5026,6.5013,6.4988,6.5101,6.517,6.5125,6.4869,6.493,6.5011,6.5049,6.5042,6.4996,6.4959,6.498,6.5065,6.4963,6.5003,6.4989,6.4875,6.4937,6.4801,6.4747,6.4663,6.4786,6.4854,6.4873,6.4805,6.4832,6.4831,6.4952,6.4969,6.4933,6.4877,6.4772,6.4824,6.4807,6.4711,6.4684,6.4764,6.4846,6.4877,6.4899,6.4869,6.4814,6.4898,6.4896,6.4895,6.483,6.4787,6.4872,6.4976,6.4926,6.4862,6.4876,6.5018,6.5022,6.4968,6.478,6.4845,6.4897,6.4915,6.4856,6.4764,6.4661,6.4742,6.4802,6.4847,6.4825,6.4721,6.4777,6.4825,6.4866,6.4847,6.4763,6.4858,6.4898,6.4842,6.4784,6.4752,6.4804,6.4871,6.4911,6.4889,6.472,6.4661,6.4746,6.4855,6.4866,6.504,6.5101,6.5111,6.5119,6.5112,6.5143,6.5371,6.5531,6.5577,6.5594,6.5375,6.536,6.5282,6.5217,6.5107,6.4917,6.4729,6.4647,6.4811,6.4873,6.4802,6.4754,6.477,6.4556,6.3414,6.1667,6.1035,6.1864,6.4854,6.8831,7.3927,7.6845,7.9967,8.2084,7.9479,7.4372,6.865,6.713,6.6472,6.6072,6.5462,6.5406,6.5434,6.5457,6.5483,6.5251,6.5238,6.5208,6.5391,6.5319,6.5275,6.5254,6.5265,6.5296,6.5536,6.5575,6.5535,6.5544,6.5668,6.5692,6.5823,6.5667,6.5616,6.5722,6.5792,6.5839,6.5846,6.595,6.6077,6.6251,6.642,6.6458,6.6454,6.6473,6.6675,6.682,6.6874,6.7075,6.7233,6.7421,6.7552,6.7691,6.788,6.8164,6.8378,6.8639,6.8724,6.8736,6.8943,6.9277,6.9498,6.9603,6.9702,6.9786,7.0117,7.029,7.0286,7.0133,7.0059,6.9919,6.9742,6.935,6.8976,6.8554,6.8282,6.7991,6.7698,6.7358,6.7032,6.6894,6.6709,6.6493,6.6247,6.588,6.5848,6.5847,6.5853,6.5788,6.5753,6.5699,6.5604,6.5597,6.5542,6.5475,6.5505,6.5551,6.5627,6.5654,6.5576,6.5636,6.5701,6.5776,6.5695,6.5667,6.561,6.5675,6.5864,6.592,6.5805,6.5866,6.5778,6.5807,6.5856,6.5815,6.5758,6.5819,6.5809,6.5742,6.5742,6.5739,6.5722,6.5708,6.5866,6.578,6.5684,6.5618,6.5739,6.582,6.5705,6.5694,6.5712,6.5804,6.5729,6.5588,6.5522,6.5588,6.5703,6.5732,6.5779,6.5705,6.5563,6.5629,6.5604,6.5518,6.5446,6.5469,6.5479,6.5648,6.5627,6.5581,6.5643,6.5728,6.5789,6.5643,6.5592,6.5568,6.5689,6.5738,6.5749,6.5779,6.5679,6.5657,6.5745,6.5725,6.5753,6.583,6.5829,6.5782,6.5807,6.5749,6.558,6.5587,6.5635,6.5706,6.5657,6.5657,6.5686,6.5726,6.5739,6.575,6.5823,6.5831,6.5752,6.5796,6.5846,6.579,6.5705,6.5779,6.5974,6.5849,6.5764,6.5747,6.5754,6.5834,6.5769,6.5774,6.575,6.5798,6.5906,6.5992,6.608,6.6024,6.607,6.6206,6.6365,6.6345,6.6295,6.6487,6.6486,6.6494,6.6529,6.6682,6.6587,6.6436,6.6207,6.5943,6.5863,6.5868,6.5916,6.6013,6.6002,6.5909,6.5996,6.5945,6.5656,6.4287,6.2576,6.2213,6.3237,6.6408,7.0452,7.5552,8.027,8.2947,8.2519,7.8447,7.1968,6.952,6.8086,6.7278,6.7194,6.6474,6.6726,6.6658,6.694,6.6687,6.6702,6.6396,6.6514,6.6463,6.6638,6.6504,6.6529,6.6524,6.6778,6.6722,6.6815,6.6721,6.684,6.6858,6.6937,6.6963,6.6867,6.6872,6.7052,6.701,6.7132,6.7071,6.7237,6.734,6.7617,6.7605,6.7609,6.7771,6.7912,6.796,6.8037,6.8104,6.8293,6.8479,6.8749,6.8971,6.9069,6.9312,6.9425,6.971,6.9938,6.9995,7.0249,7.0483,7.0829,7.0912,7.1036,7.1093,7.1321,7.1406,7.1515,7.1548,7.1444,7.1366,7.1156,7.0908,7.0464,7.0079,6.9725,6.9539,6.9128,6.8747,6.8488,6.8098,6.7717,6.7525,6.7185,6.7056,6.6911,6.6927,6.6909,6.6792,6.6543,6.6577,6.66,6.6677,6.6584,6.6496,6.6381,6.6466,6.6444,6.6497,6.6406,6.6515,6.6491,6.6671,6.6498,6.6468,6.639,6.649,6.6594,6.6645,6.6692,6.6669,6.6611,6.6668,6.6763,6.679,6.6756,6.6782,6.6776,6.6814,6.6697,6.6599,6.6656,6.6736,6.6799,6.6722,6.6701,6.6765,6.6738,6.6722,6.6654,6.669,6.666,6.6781,6.6755,6.6671,6.6503,6.645,6.6615,6.673,6.6742,6.6722,6.6553,6.646,6.6553,6.6518,6.653,6.6684,6.6712,6.6711,6.6673,6.6622,6.6503,6.6568,6.6693,6.6719,6.6666,6.6581,6.6502,6.6629,6.665,6.6578,6.654,6.6514,6.6688,6.6718,6.6642,6.6613,6.675,6.6777,6.6734,6.66,6.6586,6.6554,6.6659,6.6734,6.6607,6.6605,6.6638,6.6682,6.6721,6.6749,6.6728,6.6667,6.6715,6.6727,6.6737,6.6674,6.6618,6.6683,6.6735,6.6896,6.6838,6.6702,6.6717,6.6763,6.6694,6.6494,6.6665,6.6728,6.6856,6.6916,6.6843,6.6662,6.6849,6.6846,6.6983,6.7029,6.7068,6.7114,6.7258,6.7308,6.7169,6.6873,6.6663,6.6638,6.6635,6.6483,6.6462,6.6384,6.6395,6.647,6.6413,6.6387,6.6298,6.5487,6.3777,6.2864,6.3191,6.5175,6.893,7.3124,7.8156,8.1179,8.2457,7.9794,7.4538,6.9326,6.7905,6.7458,6.7085,6.6885,6.6821,6.7058,6.6829,6.6976,6.6857,6.6991,6.6661,6.676,6.6565,6.6737,6.6712,6.6877,6.6723,6.6937,6.6936,6.7091,6.6973,6.7008,6.7019,6.7242,6.7205,6.7348,6.7278,6.7265,6.7274,6.7496,6.7554,6.7668,6.7729,6.7865,6.7917,6.7996,6.7942,6.81,6.8301,6.8554,6.8548,6.8667,6.8766,6.9156,6.9377,6.9458,6.9564,6.9776,7.0087,7.0321,7.0667,7.0892,7.0998,7.1069,7.124,7.1399,7.1506,7.1608,7.1795,7.1918,7.1797,7.1399,7.1149,7.0942,7.0716,7.057,7.0167,6.9719,6.9398,6.9031,6.8733,6.844,6.8108,6.7643,6.7536,6.7343,6.7157,6.7028,6.6979,6.6834,6.6858,6.6874,6.6868,6.6915,6.6976,6.6908,6.6843,6.663,6.6629,6.6591,6.6758,6.6847,6.6864,6.6741,6.6753,6.6864,6.6929,6.6916,6.6835,6.6807,6.6924,6.7037,6.6992,6.6994,6.7041,6.699,6.7109,6.7097,6.7103,6.695,6.7,6.6954,6.6914,6.6822,6.6822,6.6938,6.7039,6.6968,6.6978,6.6865,6.6964,6.6917,6.6885,6.6819,6.6745,6.6844,6.695,6.6887,6.6874,6.6884,6.6938,6.695,6.6854,6.67,6.6571,6.6732,6.6822,6.6876,6.6819,6.6825,6.6856,6.6886,6.6936,6.6889,6.6754,6.6857,6.6895,6.6879,6.6864,6.6694,6.6737,6.6808,6.6903,6.6927,6.6895,6.6814,6.6802,6.6958,6.6865,6.6759,6.6748,6.6825,6.6804,6.6814,6.6833,6.6713,6.6795,6.6929,6.694,6.6833,6.6736,6.6701,6.6838,6.6953,6.6829,6.6842,6.6865,6.6941,6.6935,6.6824,6.686,6.7076,6.7273,6.7366,6.731,6.7149,6.7078,6.7085,6.7232,6.7343,6.7375,6.7567,6.7479,6.7423,6.7255,6.7041,6.6884,6.686,6.6853,6.6749,6.6715,6.6694,6.668,6.6854,6.6838,6.6575,6.5523,6.3865,6.3028,6.3614,6.5965,6.9768,7.432,7.9134,8.2021,8.2759,7.9392,7.3667,6.9273,6.8184,6.761,6.736,6.7267,6.7049,6.7398,6.7246,6.7399,6.7426,6.7409,6.7455,6.7341,6.7246,6.7382,6.7498,6.77,6.759,6.7511,6.7476,6.7655,6.7801,6.7826,6.783,6.7852,6.7911,6.8133,6.8087,6.8072,6.8112,6.8226,6.8493,6.8603,6.8482,6.8583,6.8735,6.8878,6.9044,6.9108,6.919,6.9358,6.9593,6.9739,6.9693,6.9884,7.0149,7.0418,7.083,7.0933,7.1024,7.1237,7.1513,7.1822,7.196,7.2088,7.2266,7.2558,7.2655,7.268,7.26,7.2645,7.2642,7.2506,7.235,7.1962,7.1588,7.1347,7.099,7.0622,7.0182,6.9724,6.9437,6.9176,6.9036,6.8846,6.8652,6.8428,6.8323,6.8194,6.7965,6.7843,6.7866,6.7879,6.7888,6.7817,6.78,6.7743,6.7798,6.7805,6.7727,6.7693,6.7736,6.7736,6.7733,6.7694,6.7648,6.7751,6.7842,6.7927,6.7863,6.7911,6.791,6.7853,6.7895,6.7835,6.7715,6.7774,6.7962,6.8092,6.8154,6.81,6.7948,6.7983,6.7987,6.7986,6.791,6.7897,6.804,6.8075,6.7911,6.7826,6.789,6.7918,6.802,6.8023,6.7945,6.7787,6.7762,6.7854,6.7875,6.7789,6.7817,6.7923,6.7996,6.7996,6.7934,6.7776,6.7704,6.7794,6.7884,6.7842,6.7877,6.7898,6.7938,6.7928,6.7873,6.7892,6.7799,6.7789,6.7943,6.7903,6.7777,6.7776,6.7917,6.7977,6.7953,6.7821,6.7799,6.7797,6.785,6.7813,6.7836,6.7874,6.7964,6.7974,6.797,6.7921,6.7888,6.7915,6.7919,6.7992,6.7983,6.7915,6.789,6.8111,6.8102,6.7933,6.7794,6.7879,6.7969,6.7954,6.793,6.7864,6.7796,6.8009,6.8167,6.8201,6.8091,6.8187,6.834,6.8416,6.8634,6.8445,6.8519,6.8644,6.8529,6.8424,6.8143,6.8095,6.8013,6.8045,6.8067,6.8023,6.7871,6.7858,6.7859,6.7885,6.7754,6.7443,6.6093,6.4645,6.4287,6.527,6.8403,7.2494,7.7883,8.2254,8.4679,8.3696,7.9593,7.6478,7.1425,6.9794,6.9258,6.8793,6.8465,6.8439,6.8551,6.8376,6.8438,6.8222,6.8388,6.8159,6.822,6.8145,6.8294,6.8329,6.8398,6.8185,6.839,6.8345,6.8626,6.8557,6.8512,6.8414,6.8563,6.866,6.8838,6.8796,6.8859,6.8892,6.8998,6.9041,6.9141,6.9172,6.9364,6.9462,6.964,6.9603,6.9624,6.9718,7.0021,7.0188,7.0296,7.0465,7.0656,7.0934,7.1056,7.1258,7.1451,7.1708,7.1925,7.2259,7.2468,7.2546,7.2776,7.3008,7.3198,7.3179,7.3226,7.3259,7.3335,7.3375,7.3162,7.2906,7.2713,7.2441,7.2098,7.1525,7.1034,7.0734,7.0443,7.02,6.9849,6.9504,6.9215,6.9034,6.8881,6.8785,6.863,6.8509,6.8493,6.849,6.8556,6.8426,6.8393,6.8355,6.8314,6.8387,6.8332,6.8304,6.8324,6.8386,6.842,6.8407,6.8359,6.8453,6.8431,6.8464,6.8448,6.8457,6.8427,6.8483,6.8548,6.8591,6.8534,6.8516,6.8521,6.8556,6.848,6.8531,6.86,6.8698,6.8701,6.8461,6.8415,6.8433,6.8559,6.8541,6.8621,6.8599,6.8576,6.8481,6.8544,6.863,6.8505,6.862,6.858,6.8518,6.8373,6.8355,6.83,6.8317,6.836,6.8402,6.8342,6.8291,6.8274,6.8334,6.8435,6.8415,6.8273,6.8211,6.8214,6.8326,6.8323,6.8366,6.8307,6.8382,6.8428,6.8308,6.8309,6.8351,6.8318,6.8408,6.8311,6.823,6.8206,6.8168,6.8285,6.8291,6.82,6.8182,6.826,6.8381,6.8286,6.8226,6.8199,6.824,6.8315,6.8271,6.816,6.816,6.8239,6.8276,6.8268,6.818,6.8142,6.8125,6.8205,6.8267,6.8307,6.815,6.8182,6.8238,6.8305,6.8346,6.8316,6.8367,6.8442,6.8532,6.8497,6.8448,6.8715,6.8679,6.8857,6.8921,6.8792,6.8675,6.8613,6.8437,6.8195,6.8025,6.7903,6.7962,6.8025,6.8114,6.7972,6.7994,6.7982,6.7805,6.6559,6.4828,6.428,6.5173,6.8039,7.01,7.4065,7.9649,8.3081,8.5288,8.2935,7.7771,7.1883,6.9949,6.9496,6.9122,6.8766,6.8669,6.8885,6.8799,6.8785,6.8354,6.8385,6.8278,6.8505,6.8441,6.8607,6.8516,6.8607,6.8595,6.8739,6.8597,6.87,6.8667,6.8797,6.881,6.8914,6.8878,6.8955,6.8997,6.9172,6.9217,6.926,6.9182,6.9277,6.9396,6.9586,6.9589,6.9738,6.9898,7.0034,7.0021,7.0126,7.0217,7.0447,7.0717,7.0995,7.1208,7.1397,7.1512,7.1798,7.1983,7.2239,7.2322,7.2431,7.2745,7.2964,7.3076,7.3192,7.3344,7.3587,7.3745,7.3627,7.3456,7.3311,7.31,7.2825,7.2508,7.2023,7.1716,7.1366,7.1064,7.0495,7.0251,6.9945,6.9609,6.9439,6.9212,6.8981,6.8765,6.8616,6.8597,6.8479,6.833,6.8219,6.8212,6.8301,6.8315,6.8237,6.8205,6.8113,6.8207,6.8181,6.8198,6.8119,6.813,6.823,6.8268,6.811,6.8056,6.805,6.8164,6.8194,6.8215,6.8112,6.8057,6.8098,6.8163,6.8083,6.8142,6.8175,6.8252,6.8204,6.8147,6.8067,6.8056,6.8047,6.8057,6.8067,6.8001,6.787,6.7932,6.796,6.7889,6.7847,6.7906,6.7879,6.7953,6.7895,6.7785,6.7716,6.7665,6.7683,6.7727,6.7729,6.7612,6.7633,6.7639,6.7654,6.7624,6.7586,6.7648,6.7687,6.7641,6.7533,6.748,6.7492,6.7541,6.7558,6.7421,6.739,6.7406,6.744,6.7468,6.7437,6.7374,6.7432,6.7454,6.7456,6.7537,6.7486,6.7345,6.734,6.7416,6.7378,6.735,6.735,6.7491,6.7548,6.7552,6.7361,6.7307,6.7351,6.7438,6.7497,6.7422,6.7355,6.7406,6.7469,6.7583,6.76,6.7675,6.7704,6.7767,6.7735,6.7794,6.79,6.7856,6.8052,6.8093,6.8107,6.8042,6.8021,6.7779,6.7627,6.7409,6.739,6.7281,6.7298,6.7406,6.7406,6.74,6.7449,6.7379,6.6768,6.5031,6.3717,6.3816,6.5832,6.9623,7.369,7.6136,7.9932,8.2537,8.1758,7.782,7.1869,6.8859,6.8088,6.7819,6.7745,6.7429,6.7536,6.7728,6.7872,6.7931,6.7793,6.7868,6.7845,6.7948,6.7896,6.7935,6.781,6.7893,6.7979,6.81,6.806,6.8138,6.8145,6.8247,6.8317,6.8389,6.8304,6.8392,6.844,6.8618,6.8617,6.8696,6.8807,6.8988,6.9061,6.9177,6.9234,6.9192,6.9358,6.9658,6.9795,6.9819,6.9851,7.0133,7.0406,7.0684,7.0859,7.1005,7.1277,7.1624,7.1868,7.1929,7.2279,7.2504,7.2595,7.2718,7.2836,7.2966,7.3176,7.3356,7.3425,7.3277,7.3043,7.2822,7.2589,7.2326,7.1908,7.1389,7.0994,7.0655,7.0314,6.9819,6.9477,6.9297,6.9086,6.8872,6.8713,6.852,6.8372,6.837,6.8365,6.8209,6.8112,6.801,6.8018,6.8047,6.8061,6.7874,6.7929,6.794,6.8045,6.8076,6.8031,6.7947,6.7949,6.7926,6.7979,6.7878,6.7856,6.7884,6.7999,6.8074,6.8081,6.8074,6.8121,6.8186,6.8217,6.8077,6.8077,6.812,6.8189,6.8218,6.8205,6.8121,6.801,6.7977,6.8108,6.809,6.7957,6.8007,6.8072,6.8174,6.8211,6.8095,6.7917,6.7957,6.8098,6.7996,6.7878,6.7904,6.8094,6.8135,6.813,6.801,6.7996,6.8,6.8068,6.8112,6.8046,6.7996,6.8042,6.8116,6.8174,6.8064,6.8062,6.8192,6.8266,6.8328,6.82,6.8278,6.8306,6.838,6.8396,6.8353,6.8325,6.823,6.8284,6.8502,6.8604,6.858,6.8533,6.8578,6.8627,6.8744,6.8738,6.8835,6.8978,6.9075,6.9157,6.928,6.9423,6.951,6.9552,6.9576,6.9446,6.9283,6.9036,6.8892,6.8779,6.862,6.8551,6.8651,6.8737,6.8722,6.8624,6.8592,6.8662,6.8638,6.8497,6.7456,6.5732,6.5219,6.5208,6.6716,7.0178,7.413,7.9255,8.2851,8.5073,8.3138,7.8248,7.2343,7.0471,6.9999,6.9401,6.9226,6.8911,6.9355,6.933,6.9476,6.9168,6.9353,6.9162,6.9475,6.9266,6.9337,6.9144,6.9403,6.9346,6.9473,6.9327,6.9486,6.9465,6.9665,6.9664,6.98,6.9707,6.9838,6.9858,7.0008,6.9932,6.9996,6.9963,7.0209,7.0329,7.0487,7.0465,7.0614,7.0754,7.0994,7.1036,7.1114,7.1199,7.1422,7.1632,7.181,7.1946,7.2284,7.2536,7.2797,7.2913,7.3079,7.3352,7.3585,7.3763,7.3934,7.4009,7.4138,7.4359,7.4515,7.467,7.451,7.4358,7.4118,7.393,7.3551,7.3274,7.2789,7.2437,7.2036,7.1853,7.1338,7.091,7.0619,7.0489,7.0243,6.999,6.9756,6.971,6.957,6.9641,6.9457,6.9397,6.9295,6.9371,6.9348,6.9343,6.9223,6.9249,6.9217,6.9378,6.9276,6.9179,6.9104,6.916,6.921,6.9254,6.9223,6.922,6.921,6.9361,6.9372,6.9344,6.9212,6.925,6.9359,6.9452,6.9343,6.933,6.9295,6.9371,6.9358,6.9361,6.9285,6.9301,6.9341,6.9427,6.9377,6.9261,6.9247,6.94,6.9412,6.9384,6.9321,6.925,6.9238,6.9271,6.9241,6.9207,6.9138,6.9139,6.9235,6.9272,6.9143,6.9156,6.9156,6.9295,6.9278,6.9057,6.8981,6.909,6.9155,6.9135,6.9122,6.9151,6.9246,6.9313,6.9281,6.9188,6.9149,6.9142,6.9134,6.9287,6.9294,6.9257,6.9312,6.9338,6.9337,6.9166,6.9156,6.9136,6.9255,6.9254,6.9209,6.9176,6.9205,6.9332,6.9393,6.9383,6.9279,6.9344,6.9417,6.9553,6.9571,6.9442,6.9614,6.9856,7.0093,7.0205,7.0178,7.015,7.0065,6.9896,6.9589,6.9307,6.9269,6.9228,6.9273,6.9246,6.9123,6.9099,6.9161,6.9289,6.937,6.917,6.891,6.7965,6.6294,6.5557,6.5997,6.8283,7.2377,7.7107,8.2403,8.53,8.606,8.2775,7.9997,7.3996,7.1294,7.0618,7.0004,6.9925,6.9682,7.0017,6.9748,6.9977,6.9639,6.988,6.9613,6.9816,6.9612,6.9884,6.9683,6.9882,6.9685,6.9935,6.9772,7.0045,6.9913,6.9957,6.9797,7.0013,6.9991,7.0156,7.0072,7.0213,7.0254,7.0523,7.0492,7.0589,7.051,7.0727,7.0899,7.0996,7.1028,7.1111,7.1121,7.1354,7.1537,7.1724,7.1879,7.2104,7.2422,7.2682,7.2771,7.2876,7.3022,7.3355,7.3637,7.3791,7.3932,7.417,7.4446,7.4597,7.4721,7.471,7.4835,7.4965,7.4995,7.4637,7.4278,7.3858,7.3607,7.3251,7.2905,7.2474,7.2176,7.1765,7.1505,7.1097,7.0774,7.0416,7.0374,7.0237,7.0157,7.0053,6.9949,6.9859,7.0016,6.9959,6.991,6.979,6.9848,6.9818,6.9894,6.9702,6.9735,6.97,6.9826,6.9865,6.9895,6.9918,7.0074,6.9958,6.9997,6.9865,6.9823,6.9793,6.9879,6.9925,7.0007,6.9922,6.991,6.9947,7.0025,7.0083,7.0032,7.0004,7.0128,7.0216,7.0219,7.0144,7.0102,7.0003,7.0089,7.0071,7.0022,6.9999,7.0109,7.0166,7.0177,6.9956,6.9898,6.9857,6.9952,7.0019,7.0035,6.9957,6.987,6.9883,6.9882,6.9798,6.9734,6.9797,6.9843,6.9855,6.9909,6.9828,6.9799,6.9901,6.9954,6.995,6.9872,6.9809,6.9866,6.995,6.9948,6.9946,6.9906,6.9897,6.9929,6.9862,6.9762,6.9809,6.9875,6.9956,6.9961,6.9848,6.9887,6.999,7.0029,7.005,6.9846,6.9756,6.9789,6.9946,6.9938,6.9861,6.9842,6.9931,6.9988,7.0073,6.9975,6.9943,6.9943,7.0013,6.998,6.9904,6.983,6.9933,7.0003,7.011,7.0094,7.0151,7.0093,7.014,7.0175,7.0247,7.0445,7.0638,7.0761,7.0886,7.0822,7.0707,7.052,7.0376,7.0276,7.0187,7.0089,7.0034,6.9974,6.9962,6.9768,6.9756,6.9679,6.9756,6.9781,6.9701,6.8705,6.6933,6.6108,6.6667,6.7458,7.0892,7.4911,8.03,8.4482,8.7001,8.5449,8.0862,7.4744,7.219,7.1626,7.1066,7.0766,7.045,7.0707,7.0548,7.0577,7.016,7.038,7.0243,7.0465,7.0259,7.0376,7.021,7.0387,7.0395,7.0612,7.0399,7.0548,7.0557,7.0787,7.0719,7.0743,7.0615,7.0902,7.092,7.1018,7.0969,7.1052,7.1052,7.1268,7.1328,7.1408,7.1384,7.1549,7.1658,7.1893,7.194,7.2081,7.2089,7.2386,7.2559,7.2737,7.284,7.3133,7.3451,7.3689,7.3846,7.4048,7.4157,7.4359,7.4563,7.4774,7.49,7.5042,7.5247,7.5456,7.5615,7.5527,7.5416,7.5259,7.5171,7.4736,7.438,7.401,7.3738,7.3361,7.2955,7.2474,7.2339,7.1996,7.1816,7.1527,7.1239,7.0916,7.0785,7.0661,7.0639,7.0487,7.0364,7.0236,7.031,7.0358,7.0345,7.0275,7.0261,7.0272,7.0356,7.0337,7.0293,7.0177,7.0222,7.0289,7.0213,7.0099,7.0203,7.0184,7.025,7.0239,7.0237,7.0195,7.0235,7.0285,7.0391,7.0288,7.0303,7.0257,7.032,7.0249,7.0161,7.0126,7.0275,7.0325,7.0233,7.0057,6.9983,6.9995,7.0004,7.0027,7.0025,6.9924,6.9931,7.0031,7.003,6.9915,6.9865,6.9903,6.9978,6.9975,6.9823,6.9793,6.9895,6.9974,6.9903,6.9832,6.9708,6.9624,6.9675,6.9787,6.971,6.9687,6.9812,6.993,6.9863,6.9668,6.9524,6.9585,6.9621,6.9672,6.9642,6.9632,6.9595,6.9636,6.9651,6.9569,6.9492,6.9477,6.9504,6.9606,6.9542,6.952,6.9524,6.9595,6.9639,6.9706,6.9615,6.9582,6.9517,6.9539,6.9569,6.9531,6.9462,6.9507,6.9627,6.9645,6.9549,6.948,6.9401,6.9546,6.9504,6.9541,6.9405,6.9351,6.9444,6.9542,6.9562,6.9531,6.9579,6.9734,6.9873,6.9932,6.9825,6.9768,6.9888,7.0079,7.0176,7.0047,7.0006,7.0058,7.0055,6.9958,6.9726,6.9542,6.9395,6.9434,6.939,6.9344,6.9321,6.9382,6.9544,6.9556,6.941,6.901,6.7607,6.6078,6.5776,6.6898,7.0075,7.4005,7.881,8.2642,8.4946,8.3772,7.9353,7.3658,7.0972,7.0652,6.9862,6.9824,6.9446,6.956,6.9649,6.9781,6.9804,6.9848,6.9825,6.9803,6.9662,6.9704,6.9758,6.9858,6.9829,6.9877,6.9905,7.0064,7.0105,7.0215,7.0237,7.027,7.0258,7.0324,7.0409,7.0414,7.0408,7.0512,7.0659,7.0785,7.0791,7.0888,7.1008,7.1104,7.1216,7.1277,7.1357,7.1497,7.1576,7.182,7.1969,7.2072,7.2328,7.2626,7.2934,7.3153,7.3343,7.3477,7.3759,7.4042,7.4216,7.4275,7.4484,7.4739,7.4925,7.5001,7.5069,7.5118,7.516,7.51,7.491,7.4563,7.4296,7.3977,7.3654,7.3317,7.2847,7.236,7.2062,7.1741,7.1557,7.1282,7.1029,7.0633,7.0497,7.0396,7.0288,7.0296,7.0261,7.0203,7.0217,7.0219,7.0133,7.0142,7.0258,7.034,7.0254,7.0088,7.0107,7.0183,7.029,7.0306,7.0169,7.0094,7.0164,7.0294,7.0297,7.0258,7.0304,7.0378,7.0463,7.0453,7.0411,7.0416,7.0471,7.0478,7.0586,7.05,7.0541,7.0587,7.0585,7.0538,7.0445,7.0373,7.0408,7.0442,7.0455,7.0419,7.0437,7.0415,7.0436,7.0491,7.0298,7.0181,7.014,7.027,7.0337,7.0252,7.0232,7.022,7.03,7.0406,7.0353,7.0272,7.029,7.0308,7.0364,7.0332,7.022,7.0238,7.0257,7.0342,7.0372,7.023,7.0186,7.02,7.0336,7.0272,7.0255,7.0302,7.0353,7.026,7.0196,7.0128,7.0172,7.0269,7.0337,7.0344,7.0302,7.0252,7.0226,7.0305,7.0348,7.0243,7.014,7.0219,7.0224,7.0218,7.0175,7.0112,7.0185,7.0284,7.0387,7.0322,7.023,7.0316,7.0335,7.0326,7.0254,7.0213,7.0205,7.0312,7.051,7.0501,7.0406,7.044,7.0554,7.0562,7.073,7.101,7.1087,7.0942,7.0847,7.0959,7.0751,7.069,7.0498,7.035,7.0248,7.011,7.0031,7.0131,7.017,7.0289,7.0213,7.0072,7.012,7.011,6.9812,6.8441,6.6909,6.6522,6.7399,7.041,7.4324,7.6618,8.1917,8.545,8.7091,8.4618,7.9114,7.3771,7.1872,7.1647,7.098,7.0716,7.0511,7.0909,7.0821,7.1106,7.0657,7.0735,7.0427,7.072,7.048,7.0673,7.0383,7.0714,7.0697,7.0947,7.0786,7.0966,7.0895,7.1073,7.1013,7.1127,7.1126,7.1238,7.1193,7.127,7.1136,7.1321,7.1464,7.1791,7.1765,7.1735,7.1722,7.1927,7.202,7.2168,7.225,7.2349,7.2465,7.2751,7.2968,7.3107,7.3191,7.3479,7.3751,7.4012,7.4186,7.4327,7.4605,7.4709,7.5013,7.5125,7.5272,7.5455,7.5713,7.5897,7.5947,7.5849,7.5707,7.5546,7.5455,7.513,7.4746,7.4298,7.3981,7.3694,7.3359,7.2821,7.248,7.2247,7.2113,7.1861,7.1626,7.1301,7.1205,7.1127,7.1118,7.0907,7.0864,7.0763,7.0906,7.0835,7.0862,7.0732,7.0704,7.077,7.0951,7.0791,7.0773,7.0765,7.0931,7.098,7.095,7.0773,7.0779,7.0771,7.0879,7.0823,7.0881,7.0858,7.101,7.1044,7.1046,7.0925,7.1011,7.1013,7.1158,7.1116,7.1131,7.0978,7.1038,7.1097,7.1202,7.1135,7.1088,7.1011,7.1017,7.1041,7.1008,7.095,7.1015,7.0962,7.1056,7.0887,7.0824,7.0863,7.0892,7.0956,7.0954,7.0898,7.0851,7.0864,7.0966,7.0878,7.0775,7.0818,7.0932,7.1092,7.0998,7.0922,7.078,7.0764,7.0899,7.091,7.0867,7.0904,7.0885,7.0899,7.0902,7.0785,7.0834,7.091,7.0939,7.093,7.087,7.0876,7.0836,7.0847,7.0864,7.0768,7.0761,7.0871,7.0992,7.0927,7.0835,7.0784,7.0833,7.0865,7.092,7.0947,7.0879,7.0959,7.0925,7.1005,7.0864,7.0774,7.0758,7.0847,7.0903,7.086,7.0727,7.0736,7.0841,7.1091,7.1097,7.1067,7.0957,7.102,7.1128,7.1167,7.1069,7.1361,7.1634,7.1678,7.1464,7.1487,7.1409,7.1309,7.1199,7.1039,7.0888,7.081,7.0769,7.0899,7.0795,7.0753,7.069,7.0665,7.0666,7.0756,7.0599,6.9623,6.773,6.7049,6.7565,6.983,7.3796,7.8432,8.386,8.6993,8.7762,8.4665,7.8708,7.4138,7.2684,7.2193,7.1821,7.1392,7.1329,7.1451,7.1379,7.1429,7.1186,7.1305,7.1243,7.1313,7.1135,7.1231,7.1177,7.1297,7.1241,7.1331,7.1324,7.1414,7.1476,7.1621,7.1544,7.1683,7.1743,7.1781,7.1741,7.1808,7.1749,7.1802,7.1941,7.2097,7.2075,7.2208,7.2285,7.2471,7.2535,7.2595,7.2731,7.2925,7.3128,7.3237,7.3338,7.3457,7.3644,7.3958,7.4262,7.4458,7.4612,7.4891,7.5128,7.5429,7.5648,7.5764,7.5954,7.6132,7.6299,7.6296,7.6347,7.6271,7.6268,7.6252,7.6137,7.5821,7.5434,7.5006,7.4682,7.4311,7.3839,7.3407,7.3164,7.2883,7.2609,7.2291,7.1977,7.1827,7.1868,7.1698,7.1572,7.1347,7.1328,7.1352,7.1423,7.1404,7.1417,7.129,7.1337,7.1317,7.1304,7.1167,7.1189,7.1227,7.1386,7.137,7.1374,7.1352,7.1364,7.1415,7.1377,7.1391,7.1363,7.1407,7.1408,7.1397,7.1397,7.1364,7.1446,7.1494,7.1552,7.1497,7.1519,7.1528,7.166,7.1688,7.157,7.1466,7.1439,7.1422,7.1487,7.1403,7.1482,7.1354,7.1335,7.1327,7.121,7.1176,7.1186,7.117,7.1285,7.124,7.1217,7.1176,7.1235,7.1381,7.1338,7.1225,7.1193,7.1253,7.1249,7.1212,7.1244,7.1083,7.1081,7.1154,7.1191,7.1081,7.1019,7.0985,7.1127,7.1164,7.1071,7.1022,7.1031,7.109,7.1114,7.1066,7.1028,7.1043,7.1111,7.1137,7.1048,7.0933,7.0956,7.1056,7.1115,7.1126,7.0869,7.085,7.0801,7.0897,7.0883,7.0832,7.0806,7.0763,7.0789,7.0747,7.075,7.0742,7.0841,7.0934,7.091,7.0836,7.0721,7.0754,7.08,7.0854,7.0825,7.0962,7.1008,7.1118,7.1029,7.0995,7.1252,7.1585,7.1649,7.1582,7.1465,7.1396,7.1369,7.1187,7.112,7.0834,7.0594,7.0484,7.0538,7.0634,7.0523,7.0459,7.051,7.067,7.0686,7.0456,6.9708,6.7952,6.6881,6.7061,6.8661,7.235,7.4392,7.9292,8.4124,8.6516,8.599,8.1995,7.6059,7.2503,7.1544,7.0987,7.0783,7.0438,7.092,7.0791,7.0816,7.057,7.0668,7.0534,7.0595,7.0441,7.056,7.0556,7.0685,7.0676,7.0679,7.0521,7.0721,7.0809,7.0967,7.0876,7.0938,7.0968,7.1094,7.1062,7.1025,7.0951,7.1059,7.1126,7.1289,7.1282,7.1331,7.144,7.1584,7.1632,7.1776,7.1836,7.1995,7.2199,7.2451,7.2465,7.2629,7.2879,7.3035,7.3354,7.3464,7.3758,7.4002,7.4349,7.4617,7.4751,7.4781,7.4925,7.5017,7.5184,7.5275,7.5332,7.5334,7.5388,7.5359,7.5153,7.4758,7.44,7.4066,7.3819,7.3335,7.2881,7.2397,7.2079,7.178,7.1697,7.1382,7.1181,7.0993,7.0931,7.0649,7.0529,7.0342,7.0224,7.0202,7.0305,7.0172,7.0109,7.0077,7.0182,7.0234,7.0132,7,7.0031,7.0066,7.0276,7.0333,7.0166,7.0058,7.0123,7.0196,7.0339,7.0291,7.027,7.0282,7.0371,7.0356,7.0269,7.0249,7.0387,7.0422,7.0389,7.0361,7.0282,7.0273,7.0351,7.0372,7.0187,7.0178,7.0167,7.0219,7.0311,7.0265,7.0182,7.019,7.0248,7.0222,7.0053,6.9904,6.9919,7.0043,7.0153,7.0122,7.0062,7.001,7.006,7.0062,7.0044,6.9929,6.9838,6.9816,6.9939,6.995,6.9895,6.9928,6.9989,7.0053,6.9882,6.9826,6.9886,6.9926,7.0012,6.9922,6.9873,6.9753,6.9762,6.9953,7.0033,6.9955,6.9801,6.9801,6.9855,6.987,6.9772,6.9763,6.9848,6.9907,6.9929,6.9858,6.9822,6.9902,6.9933,7.001,6.9977,6.9951,6.9921,6.9954,6.9964,6.9955,6.9852,6.987,6.997,7.0258,7.0289,7.025,7.0202,7.0214,7.0135,7.0307,7.0533,7.056,7.0496,7.0435,7.0613,7.0487,7.0347,7.0162,6.9998,7.0008,6.9813,6.9741,6.9768,6.9869,6.9806,6.9794,6.972,6.9749,6.9759,6.9429,6.881,6.7031,6.5978,6.6488,6.8595,7.227,7.6459,8.1434,8.4439,8.5728,8.2616,7.7142,7.2373,7.121,7.0687,7.0245,6.9788,6.9696,7.0019,7.0056,7.0147,6.9941,6.9975,6.9903,7.0147,7.0012,7.0091,6.9986,7.0247,7.016,7.0145,7.0017,7.0128,7.0139,7.0352,7.0309,7.0462,7.0447,7.0548,7.0593,7.0762,7.0684,7.0749,7.0856,7.1058,7.1176,7.1195,7.1136,7.1267,7.1516,7.1773,7.1784,7.1937,7.2016,7.2187,7.2407,7.2572,7.2741,7.2954,7.3198,7.3469,7.3658,7.3729,7.3937,7.4291,7.4587,7.4706,7.4806,7.4876,7.507,7.5213,7.5211,7.5231,7.5139,7.4939,7.4716,7.4355,7.3896,7.3456,7.3091,7.2802,7.2627,7.2234,7.187,7.152,7.1231,7.0966,7.0645,7.0456,7.0417,7.0329,7.0274,7.0111,7.0018,6.9986,7.003,7.0066,6.9983,6.994,7.0019,7.007,7.0136,7.0069,6.9925,6.9844,6.9938,7.0058,7.005,6.9881,6.9912,6.9995,7.0134,7.0065,6.9992,7.0008,7.0116,7.0145,7.0067,6.9942,6.9908,6.9982,7.0004,6.9993,6.9977,6.9869,6.9949,7.0017,7.0067,6.9922,6.9889,6.9917,6.9935,6.9959,6.993,6.9873,6.986,6.9863,6.986,6.9788,6.9733,6.9685,6.9616,6.9649,6.957,6.9537,6.9563,6.9627,6.9707,6.9596,6.9515,6.9593,6.9646,6.9678,6.9647,6.9662,6.9652,6.9704,6.9653,6.957,6.9547,6.9538,6.9573,6.9679,6.965,6.9563,6.9504,6.9563,6.9684,6.9673,6.9513,6.9529,6.9546,6.9645,6.9687,6.9566,6.9512,6.9505,6.9585,6.9495,6.9402,6.9424,6.9424,6.9506,6.9589,6.9589,6.9591,6.9544,6.9585,6.9654,6.9562,6.9454,6.9405,6.9507,6.9566,6.9595,6.9545,6.9624,6.9706,6.9849,6.9841,6.9757,6.9787,7.0101,7.0279,7.014,6.9927,7.0041,7.005,6.9989,6.9681,6.9466,6.939,6.9336,6.9339,6.9243,6.9241,6.9262,6.9231,6.9375,6.9414,6.9275,6.8922,6.7686,6.6129,6.5659,6.6306,6.8962,7.2935,7.7965,8.297,8.575,8.5696,8.2009,7.5781,7.2065,7.1424,7.1359,7.0187,6.9662,6.9778,6.9676,6.9764,6.9572,6.9622,6.9505,6.9481,6.932,6.9388,6.9421,6.9584,6.9508,6.9539,6.954,6.9678,6.9676,6.9712,6.9597,6.9679,6.966,6.9876,6.9939,6.9919,6.9913,7.0089,7.0163,7.0261,7.0209,7.0234,7.036,7.0498,7.0574,7.0687,7.0782,7.0925,7.1038,7.1207,7.1195,7.141,7.1554,7.178,7.2073,7.227,7.2509,7.2641,7.2844,7.3088,7.3303,7.3481,7.3663,7.3776,7.3964,7.408,7.4093,7.4163,7.4261,7.422,7.3906,7.3672,7.3418,7.3049,7.2789,7.2378,7.2007,7.1501,7.121,7.095,7.0648,7.0186,6.9934,6.9709,6.9638,6.9475,6.9251,6.9161,6.9273,6.9336,6.9184,6.9117,6.9008,6.8951,6.9022,6.9026,6.8994,6.8972,6.9028,6.9029,6.9085,6.9103,6.9013,6.8923,6.8947,6.9046,6.9071,6.9085,6.9051,6.9032,6.9201,6.922,6.9215,6.9127,6.921,6.9347,6.9411,6.9138,6.9106,6.9132,6.9236,6.9227,6.9163,6.9101,6.9155,6.9257,6.9304,6.9161,6.9175,6.9096,6.9083,6.9108,6.9057,6.8921,6.8883,6.899,6.906,6.8953,6.8853,6.8887,6.8944,6.9067,6.8998,6.8893,6.8914,6.8936,6.8943,6.8938,6.8891,6.8978,6.8968,6.8948,6.8942,6.8905,6.8916,6.9025,6.9025,6.9043,6.8904,6.8905,6.8922,6.8936,6.8959,6.8843,6.8836,6.8896,6.8891,6.8843,6.8891,6.8869,6.8858,6.8874,6.8907,6.8848,6.8793,6.8847,6.8868,6.8898,6.8784,6.8789,6.8756,6.8837,6.8884,6.8845,6.8808,6.8865,6.8866,6.8831,6.8777,6.8754,6.8729,6.8877,6.9,6.9005,6.9016,6.9052,6.913,6.9213,6.9101,6.9142,6.9581,6.9769,6.972,6.9505,6.9548,6.9556,6.9412,6.9215,6.887,6.8814,6.8688,6.874,6.8778,6.8769,6.8808,6.8725,6.877,6.8768,6.8733,6.8405,6.7108,6.5597,6.515,6.5996,6.882,7.2748,7.779,8.265,8.4011,8.5561,8.3122,7.7959,7.2442,7.0649,7.0226,6.9598,6.921,6.909,6.9345,6.9144,6.9211,6.8904,6.9113,6.8987,6.9164,6.8889,6.9082,6.9011,6.9248,6.9103,6.9137,6.8929,6.9036
