15.333,15.336,15.344,15.345,15.342,15.349,15.36,15.37,15.379,15.382,15.388,15.387,15.387,15.39,15.397,15.404,15.417,15.425,15.43,15.446,15.469,15.481,15.494,15.518,15.541,15.553,15.564,15.586,15.597,15.617,15.634,15.648,15.66,15.671,15.683,15.686,15.696,15.684,15.676,15.661,15.646,15.625,15.611,15.584,15.549,15.503,15.467,15.458,15.433,15.39,15.364,15.35,15.332,15.315,15.297,15.282,15.275,15.264,15.256,15.239,15.231,15.227,15.224,15.222,15.218,15.214,15.209,15.197,15.186,15.18,15.185,15.191,15.19,15.182,15.177,15.183,15.19,15.191,15.19,15.191,15.188,15.187,15.189,15.186,15.177,15.175,15.173,15.175,15.172,15.167,15.155,15.168,15.176,15.195,15.204,15.211,15.204,15.196,15.193,15.2,15.213,15.217,15.211,15.202,15.195,15.186,15.191,15.185,15.173,15.183,15.2,15.213,15.209,15.187,15.167,15.177,15.191,15.196,15.179,15.151,15.128,15.148,15.193,15.2,15.195,15.162,15.167,15.173,15.164,15.131,15.108,15.109,15.126,15.18,15.205,15.196,15.166,15.153,15.171,15.192,15.192,15.177,15.185,15.197,15.201,15.203,15.209,15.213,15.198,15.192,15.187,15.182,15.185,15.179,15.188,15.186,15.189,15.198,15.194,15.181,15.186,15.195,15.194,15.197,15.192,15.187,15.181,15.18,15.216,15.239,15.221,15.211,15.202,15.197,15.215,15.225,15.239,15.255,15.247,15.229,15.222,15.241,15.284,15.32,15.298,15.285,15.287,15.321,15.346,15.361,15.348,15.34,15.334,15.325,15.299,15.288,15.296,15.295,15.292,15.29,15.266,15.24,15.246,15.246,15.248,15.25,15.254,15.235,15.207,15.231,15.25,15.237,15.217,15.192,15.212,15.256,15.388,15.591,15.683,15.924,16.021,15.759,15.565,15.397,15.228,15.174,15.207,15.162,15.083,15.096,15.184,15.257,15.279,15.282,15.301,15.305,15.288,15.282,15.301,15.315,15.291,15.273,15.293,15.323,15.364,15.372,15.335,15.337,15.343,15.361,15.364,15.36,15.353,15.362,15.376,15.394,15.398,15.374,15.378,15.416,15.454,15.472,15.473,15.448,15.484,15.539,15.551,15.55,15.546,15.57,15.611,15.633,15.642,15.638,15.635,15.637,15.638,15.624,15.623,15.594,15.588,15.593,15.561,15.525,15.488,15.436,15.413,15.396,15.372,15.329,15.299,15.293,15.284,15.252,15.243,15.229,15.224,15.223,15.204,15.185,15.209,15.217,15.203,15.202,15.199,15.169,15.16,15.177,15.163,15.154,15.15,15.16,15.165,15.187,15.186,15.179,15.176,15.161,15.15,15.162,15.159,15.157,15.164,15.165,15.157,15.169,15.189,15.211,15.205,15.188,15.188,15.175,15.166,15.177,15.179,15.18,15.165,15.159,15.177,15.197,15.183,15.173,15.178,15.181,15.19,15.191,15.181,15.174,15.143,15.136,15.155,15.165,15.168,15.164,15.133,15.13,15.137,15.146,15.154,15.155,15.161,15.172,15.181,15.168,15.148,15.124,15.122,15.141,15.158,15.141,15.127,15.123,15.129,15.152,15.175,15.155,15.138,15.135,15.136,15.139,15.133,15.124,15.146,15.144,15.15,15.181,15.193,15.164,15.138,15.149,15.193,15.218,15.233,15.236,15.2,15.199,15.203,15.201,15.197,15.176,15.149,15.155,15.178,15.162,15.135,15.121,15.129,15.121,15.123,15.115,15.111,15.114,15.113,15.122,15.117,15.109,15.106,15.097,15.072,15.045,15.129,15.3,15.511,15.734,15.886,15.772,15.541,15.468,15.31,15.099,15.004,14.999,14.942,14.955,15.027,15.068,15.126,15.168,15.197,15.184,15.169,15.159,15.161,15.172,15.186,15.183,15.175,15.186,15.176,15.194,15.218,15.218,15.222,15.217,15.228,15.253,15.268,15.262,15.26,15.263,15.266,15.288,15.295,15.308,15.318,15.329,15.337,15.364,15.371,15.399,15.422,15.439,15.467,15.488,15.495,15.506,15.527,15.541,15.546,15.546,15.547,15.542,15.506,15.499,15.5,15.49,15.475,15.435,15.39,15.333,15.295,15.28,15.266,15.24,15.207,15.178,15.154,15.135,15.135,15.113,15.101,15.102,15.093,15.08,15.053,15.058,15.078,15.093,15.099,15.08,15.068,15.044,15.046,15.054,15.049,15.046,15.044,15.037,15.039,15.029,15.037,15.043,15.048,15.037,15.036,15.031,15.041,15.036,15.042,15.033,15.039,15.052,15.052,15.037,15.054,15.072,15.067,15.072,15.063,15.059,15.05,15.051,15.056,15.061,15.049,15.044,15.061,15.068,15.064,15.044,15.041,15.047,15.036,15.039,15.04,15.046,15.053,15.054,15.033,15.028,15.031,15.042,15.04,15.042,15.032,15.021,15.018,15.004,15.017,15.022,15.026,15.03,15.034,15.035,15.029,15.022,15.011,15.005,15.007,15.011,15.007,15.003,15.006,15.019,15.017,14.995,14.983,15.005,15.021,15.03,15.022,15.019,15.013,15.007,14.993,14.996,15.003,15.014,15.017,15.015,15.009,15.001,14.995,14.994,14.995,14.989,14.979,14.98,14.998,15,15.003,14.991,14.98,14.975,14.993,14.996,14.991,14.996,14.999,14.997,14.991,14.999,15.009,15.013,15.01,15.011,15.013,15.018,15.021,15.032,15.041,15.048,15.058,15.044,15.068,15.091,15.089,15.084,15.066,15.056,15.048,15.042,15.045,15.046,15.033,15.006,14.975,14.96,14.961,14.977,14.979,14.982,14.979,14.968,14.966,14.967,14.97,14.969,14.963,14.948,14.916,14.9,14.964,15.127,15.354,15.579,15.777,15.661,15.439,15.332,15.189,14.937,14.855,14.832,14.823,14.884,14.966,15.031,15.04,15.055,15.053,15.087,15.068,15.083,15.073,15.078,15.08,15.099,15.098,15.11,15.097,15.107,15.123,15.132,15.127,15.139,15.141,15.147,15.133,15.136,15.141,15.158,15.181,15.202,15.224,15.245,15.259,15.272,15.279,15.285,15.299,15.335,15.375,15.389,15.404,15.402,15.416,15.434,15.437,15.441,15.47,15.492,15.504,15.495,15.466,15.442,15.447,15.443,15.42,15.379,15.351,15.338,15.332,15.288,15.244,15.201,15.163,15.145,15.136,15.135,15.107,15.088,15.071,15.074,15.069,15.062,15.071,15.053,15.027,15.031,15.053,15.058,15.064,15.049,15.032,15.018,15.022,15.031,15.043,15.036,15.032,15.032,15.035,15.028,15.037,15.03,15.039,15.054,15.063,15.052,15.045,15.02,15.025,15.049,15.054,15.038,15.024,15.044,15.061,15.072,15.076,15.066,15.065,15.048,15.046,15.048,15.067,15.08,15.07,15.068,15.066,15.06,15.054,15.061,15.078,15.074,15.045,15.062,15.084,15.086,15.08,15.064,15.048,15.053,15.061,15.061,15.051,15.033,15.035,15.037,15.058,15.048,15.022,15.049,15.082,15.077,15.065,15.07,15.068,15.052,15.062,15.066,15.068,15.047,15.039,15.049,15.062,15.069,15.049,15.046,15.057,15.061,15.059,15.067,15.075,15.088,15.08,15.053,15.043,15.049,15.066,15.044,15.037,15.06,15.072,15.061,15.054,15.044,15.052,15.069,15.075,15.061,15.06,15.056,15.068,15.086,15.078,15.074,15.062,15.059,15.055,15.056,15.047,15.038,15.041,15.049,15.061,15.065,15.054,15.048,15.057,15.066,15.056,15.055,15.046,15.056,15.048,15.045,15.028,15.022,15.03,15.031,15.026,15.06,15.068,15.092,15.089,15.069,15.076,15.079,15.104,15.128,15.129,15.112,15.119,15.116,15.067,15.061,15.079,15.096,15.052,15.012,14.993,14.979,14.978,15.022,15.047,15.049,15.026,15.003,14.998,15.01,15.012,15.009,15.013,14.996,14.941,14.941,15.004,15.16,15.382,15.593,15.707,15.833,15.581,15.427,15.321,15.109,14.948,14.904,14.887,14.91,15.014,15.026,15.076,15.073,15.111,15.09,15.12,15.115,15.138,15.126,15.131,15.11,15.137,15.128,15.136,15.132,15.167,15.181,15.198,15.177,15.175,15.179,15.185,15.192,15.208,15.197,15.216,15.237,15.248,15.258,15.273,15.277,15.275,15.293,15.309,15.32,15.355,15.366,15.387,15.423,15.441,15.436,15.448,15.479,15.49,15.481,15.477,15.469,15.461,15.458,15.449,15.455,15.434,15.385,15.322,15.302,15.291,15.277,15.247,15.218,15.174,15.15,15.124,15.104,15.089,15.076,15.069,15.053,15.033,15.018,15.013,15.029,15.041,15.03,15.027,15.031,15.029,15.013,15.002,15.002,14.994,15.004,15.02,15.024,15.014,15.013,15.005,14.994,14.996,15.008,15.021,15.004,15.007,15.014,15.019,15.02,14.996,15.006,15.026,15.036,15.025,15.026,15.014,15.002,15.003,15.027,15.042,15.037,15.043,15.048,15.041,15.021,15.033,15.06,15.06,15.055,15.04,15.057,15.066,15.065,15.061,15.052,15.028,15.021,15.037,15.057,15.053,15.024,15.019,15.043,15.048,15.047,15.027,15.024,15.017,15.037,15.047,15.055,15.038,15.01,15.023,15.035,15.042,15.057,15.061,15.044,15.031,15.044,15.041,15.036,15.009,14.994,15.037,15.053,15.047,15.045,15.05,15.062,15.063,15.061,15.029,15.015,15.026,15.054,15.07,15.071,15.069,15.054,15.029,15.037,15.041,15.041,15.034,15.029,15.041,15.025,15.025,15.018,15.04,15.063,15.063,15.06,15.044,15.031,15.033,15.027,15.022,15.033,15.041,15.048,15.027,15.019,15.023,15.029,15.053,15.041,15.018,15.022,15.047,15.057,15.058,15.037,15.05,15.078,15.102,15.099,15.072,15.085,15.101,15.112,15.122,15.118,15.106,15.091,15.094,15.099,15.098,15.1,15.109,15.098,15.083,15.041,15.019,15.017,15.03,15.027,15.015,15.014,15.019,15.002,14.994,15.012,15.03,15.008,14.965,14.947,14.945,14.961,15.074,15.309,15.522,15.754,15.858,15.575,15.428,15.276,15.066,14.947,14.951,14.908,14.904,14.989,15.018,15.089,15.115,15.135,15.133,15.139,15.136,15.128,15.126,15.138,15.132,15.146,15.142,15.161,15.168,15.167,15.151,15.165,15.19,15.202,15.209,15.215,15.21,15.22,15.217,15.216,15.218,15.247,15.274,15.278,15.263,15.268,15.31,15.358,15.377,15.382,15.363,15.367,15.41,15.457,15.476,15.482,15.484,15.49,15.482,15.494,15.509,15.508,15.504,15.485,15.483,15.469,15.437,15.392,15.359,15.328,15.293,15.272,15.255,15.216,15.182,15.158,15.145,15.128,15.099,15.077,15.096,15.1,15.08,15.069,15.075,15.094,15.08,15.062,15.067,15.061,15.053,15.046,15.052,15.064,15.062,15.056,15.046,15.03,15.019,15.026,15.044,15.054,15.057,15.036,15.043,15.055,15.065,15.069,15.069,15.053,15.05,15.049,15.041,15.043,15.04,15.06,15.064,15.064,15.069,15.068,15.07,15.061,15.053,15.052,15.047,15.048,15.074,15.089,15.084,15.072,15.08,15.072,15.07,15.07,15.084,15.09,15.082,15.07,15.054,15.046,15.062,15.095,15.092,15.083,15.042,15.003,15.043,15.093,15.116,15.109,15.1,15.103,15.096,15.07,15.057,15.075,15.096,15.099,15.103,15.108,15.102,15.092,15.059,15.073,15.082,15.096,15.089,15.088,15.091,15.081,15.076,15.093,15.093,15.111,15.106,15.104,15.108,15.113,15.117,15.096,15.101,15.115,15.111,15.125,15.122,15.124,15.145,15.159,15.173,15.186,15.207,15.231,15.219,15.2,15.222,15.228,15.221,15.187,15.172,15.158,15.137,15.119,15.126,15.098,15.102,15.109,15.12,15.125,15.125,15.13,15.13,15.147,15.136,15.108,15.073,15.057,15.048,15.068,15.133,15.298,15.522,15.739,15.889,15.781,15.54,15.375,15.205,15.085,15.015,15.018,14.977,14.97,15.053,15.114,15.16,15.165,15.175,15.203,15.209,15.202,15.199,15.202,15.2,15.186,15.213,15.236,15.23,15.249,15.272,15.278,15.275,15.268,15.29,15.298,15.297,15.296,15.291,15.299,15.32,15.353,15.327,15.321,15.354,15.408,15.456,15.455,15.453,15.452,15.473,15.494,15.513,15.537,15.557,15.578,15.593,15.578,15.558,15.583,15.606,15.602,15.597,15.586,15.56,15.549,15.552,15.546,15.513,15.452,15.401,15.37,15.353,15.325,15.287,15.24,15.206,15.201,15.205,15.193,15.172,15.171,15.18,15.187,15.185,15.186,15.178,15.168,15.162,15.161,15.16,15.156,15.15,15.127,15.114,15.095,15.135,15.137,15.128,15.128,15.139,15.135,15.127,15.132,15.139,15.146,15.14,15.14,15.147,15.145,15.15,15.164,15.164,15.142,15.137,15.156,15.171,15.172,15.148,15.149,15.16,15.174,15.17,15.168,15.165,15.168,15.173,15.182,15.183,15.167,15.148,15.141,15.143,15.136,15.155,15.168,15.189,15.192,15.169,15.152,15.16,15.167,15.143,15.139,15.142,15.156,15.132,15.127,15.136,15.132,15.146,15.154,15.151,15.153,15.154,15.139,15.137,15.144,15.153,15.162,15.145,15.144,15.146,15.151,15.139,15.137,15.148,15.167,15.164,15.171,15.151,15.15,15.157,15.163,15.168,15.165,15.163,15.16,15.167,15.171,15.171,15.171,15.167,15.175,15.202,15.202,15.212,15.224,15.223,15.223,15.245,15.27,15.263,15.258,15.266,15.263,15.229,15.207,15.212,15.209,15.204,15.179,15.177,15.174,15.162,15.162,15.155,15.153,15.158,15.17,15.17,15.156,15.142,15.125,15.124,15.119,15.11,15.166,15.307,15.415,15.613,15.839,15.97,15.744,15.584,15.439,15.203,15.05,15.015,15.021,15.038,15.128,15.16,15.213,15.22,15.238,15.223,15.224,15.21,15.211,15.214,15.229,15.218,15.233,15.236,15.236,15.252,15.27,15.251,15.264,15.275,15.285,15.272,15.286,15.301,15.305,15.301,15.306,15.308,15.303,15.277,15.292,15.318,15.339,15.383,15.415,15.438,15.463,15.489,15.49,15.499,15.517,15.517,15.544,15.564,15.582,15.583,15.58,15.572,15.538,15.525,15.527,15.541,15.532,15.508,15.453,15.407,15.376,15.351,15.333,15.308,15.283,15.256,15.215,15.178,15.163,15.138,15.105,15.132,15.141,15.148,15.131,15.121,15.095,15.101,15.112,15.108,15.104,15.098,15.092,15.096,15.095,15.096,15.088,15.085,15.073,15.059,15.05,15.055,15.067,15.08,15.085,15.087,15.065,15.074,15.079,15.082,15.085,15.077,15.059,15.053,15.056,15.072,15.083,15.093,15.088,15.091,15.098,15.091,15.066,15.053,15.077,15.107,15.126,15.116,15.107,15.1,15.103,15.103,15.101,15.09,15.078,15.086,15.099,15.107,15.113,15.108,15.103,15.102,15.101,15.096,15.095,15.097,15.099,15.095,15.099,15.103,15.107,15.112,15.109,15.107,15.105,15.1,15.105,15.106,15.104,15.1,15.109,15.114,15.115,15.114,15.118,15.123,15.123,15.128,15.127,15.128,15.129,15.136,15.139,15.138,15.14,15.141,15.146,15.148,15.151,15.147,15.146,15.151,15.165,15.175,15.183,15.194,15.194,15.191,15.199,15.204,15.209,15.23,15.248,15.245,15.236,15.229,15.224,15.212,15.202,15.194,15.182,15.163,15.143,15.128,15.123,15.116,15.119,15.124,15.128,15.124,15.126,15.123,15.125,15.125,15.126,15.113,15.101,15.085,15.087,15.145,15.31,15.539,15.761,15.944,15.843,15.584,15.429,15.269,15.055,14.99,14.999,14.974,15.013,15.089,15.15,15.178,15.197,15.203,15.211,15.209,15.208,15.197,15.202,15.202,15.213,15.21,15.215,15.216,15.223,15.224,15.227,15.228,15.235,15.245,15.251,15.257,15.261,15.26,15.273,15.284,15.294,15.3,15.314,15.333,15.355,15.372,15.39,15.412,15.423,15.444,15.464,15.482,15.5,15.516,15.539,15.554,15.564,15.575,15.582,15.593,15.592,15.587,15.575,15.563,15.552,15.525,15.489,15.47,15.435,15.401,15.37,15.33,15.294,15.262,15.24,15.228,15.19,15.167,15.152,15.143,15.132,15.124,15.114,15.114,15.106,15.104,15.102,15.09,15.085,15.081,15.079,15.079,15.079,15.076,15.07,15.063,15.054,15.049,15.042,15.052,15.059,15.064,15.059,15.056,15.061,15.06,15.069,15.066,15.067,15.075,15.076,15.077,15.074,15.072,15.068,15.074,15.077,15.073,15.074,15.078,15.087,15.094,15.089,15.086,15.088,15.091,15.092,15.079,15.079,15.077,15.07,15.067,15.062,15.057,15.055,15.043,15.038,15.033,15.022,15.023,15.02,15.034,15.027,15.025,15.025,15.024,15.03,15.028,15.036,15.036,15.041,15.046,15.057,15.058,15.058,15.067,15.07,15.075,15.075,15.08,15.077,15.087,15.09,15.088,15.096,15.105,15.109,15.124,15.12,15.118,15.111,15.119,15.127,15.141,15.168,15.187,15.193,15.194,15.194,15.182,15.167,15.174,15.182,15.167,15.146,15.134,15.134,15.135,15.13,15.125,15.124,15.132,15.134,15.135,15.132,15.127,15.13,15.125,15.113,15.082,15.075,15.088,15.216,15.453,15.669,15.905,15.958,15.699,15.516,15.332,15.135,15.096,15.138,15.089,15.033,15.082,15.137,15.193,15.217,15.225,15.243,15.26,15.249,15.253,15.262,15.261,15.272,15.27,15.287,15.294,15.299,15.305,15.315,15.334,15.348,15.363,15.371,15.382,15.386,15.403,15.41,15.416,15.431,15.443,15.454,15.47,15.482,15.498,15.523,15.541,15.558,15.564,15.591,15.611,15.633,15.651,15.662,15.669,15.687,15.702,15.709,15.71,15.704,15.703,15.693,15.676,15.649,15.621,15.592,15.558,15.52,15.478,15.451,15.431,15.406,15.372,15.36,15.342,15.328,15.315,15.308,15.313,15.3,15.286,15.285,15.284,15.279,15.274,15.276,15.28,15.275,15.271,15.26,15.257,15.25,15.254,15.245,15.24,15.242,15.247,15.259,15.261,15.268,15.275,15.276,15.281,15.28,15.282,15.284,15.291,15.295,15.298,15.293,15.296,15.304,15.308,15.31,15.312,15.32,15.318,15.323,15.324,15.326,15.327,15.325,15.332,15.332,15.329,15.33,15.328,15.331,15.333,15.326,15.322,15.319,15.319,15.323,15.318,15.316,15.313,15.315,15.32,15.318,15.32,15.321,15.328,15.344,15.351,15.368,15.385,15.379,15.379,15.383,15.388,15.393,15.401,15.431,15.429,15.413,15.415,15.409,15.398,15.387,15.372,15.356,15.333,15.312,15.307,15.305,15.303,15.303,15.304,15.305,15.299,15.294,15.294,15.295,15.295,15.292,15.28,15.267,15.242,15.223,15.263,15.405,15.636,15.868,16.071,16.06,15.806,15.731,15.568,15.331,15.189,15.177,15.157,15.14,15.237,15.286,15.342,15.354,15.377,15.377,15.384,15.376,15.384,15.384,15.402,15.409,15.412,15.417,15.428,15.432,15.442,15.444,15.451,15.456,15.467,15.474,15.473,15.476,15.486,15.508,15.535,15.547,15.557,15.564,15.577,15.584,15.595,15.611,15.628,15.647,15.668,15.691,15.709,15.73,15.75,15.768,15.782,15.792,15.798,15.807,15.812,15.807,15.795,15.78,15.772,15.748,15.719,15.684,15.645,15.607,15.571,15.54,15.502,15.464,15.431,15.399,15.385,15.37,15.352,15.347,15.337,15.339,15.329,15.325,15.322,15.322,15.324,15.325,15.319,15.317,15.314,15.318,15.315,15.314,15.313,15.314,15.309,15.304,15.3,15.304,15.308,15.314,15.314,15.313,15.309,15.318,15.32,15.321,15.32,15.319,15.32,15.322,15.324,15.32,15.318,15.32,15.325,15.33,15.325,15.324,15.327,15.33,15.329,15.33,15.329,15.33,15.33,15.333,15.322,15.315,15.31,15.31,15.312,15.309,15.305,15.301,15.3,15.3,15.297,15.296,15.297,15.3,15.301,15.302,15.3,15.299,15.302,15.306,15.31,15.309,15.309,15.312,15.316,15.318,15.313,15.313,15.313,15.316,15.319,15.317,15.325,15.336,15.349,15.369,15.365,15.355,15.358,15.366,15.374,15.382,15.4,15.394,15.387,15.381,15.371,15.357,15.345,15.344,15.339,15.32,15.291,15.278,15.276,15.278,15.281,15.278,15.282,15.283,15.289,15.286,15.285,15.284,15.285,15.281,15.274,15.246,15.243,15.261,15.373,15.586,15.803,16.035,16.146,15.881,15.728,15.57,15.314,15.159,15.141,15.145,15.18,15.277,15.323,15.366,15.374,15.385,15.373,15.377,15.376,15.381,15.375,15.389,15.391,15.404,15.406,15.408,15.405,15.413,15.414,15.429,15.432,15.437,15.443,15.454,15.461,15.469,15.467,15.479,15.488,15.501,15.512,15.522,15.537,15.559,15.578,15.597,15.613,15.631,15.652,15.676,15.696,15.713,15.725,15.74,15.756,15.759,15.768,15.77,15.773,15.772,15.764,15.746,15.721,15.693,15.664,15.628,15.589,15.549,15.516,15.485,15.458,15.432,15.405,15.388,15.379,15.367,15.355,15.343,15.335,15.332,15.326,15.322,15.321,15.316,15.316,15.317,15.319,15.314,15.312,15.312,15.316,15.318,15.313,15.309,15.305,15.303,15.306,15.302,15.304,15.304,15.309,15.313,15.308,15.302,15.304,15.302,15.303,15.301,15.299,15.298,15.298,15.301,15.3,15.296,15.298,15.3,15.305,15.306,15.305,15.304,15.306,15.308,15.306,15.301,15.3,15.298,15.302,15.297,15.294,15.29,15.289,15.289,15.293,15.287,15.282,15.278,15.28,15.285,15.279,15.276,15.277,15.28,15.282,15.279,15.279,15.282,15.284,15.286,15.285,15.284,15.284,15.286,15.289,15.29,15.287,15.283,15.286,15.29,15.288,15.291,15.288,15.289,15.291,15.289,15.284,15.281,15.282,15.282,15.281,15.278,15.273,15.273,15.269,15.267,15.263,15.26,15.258,15.257,15.258,15.252,15.246,15.246,15.246,15.244,15.239,15.236,15.241,15.247,15.252,15.255,15.258,15.27,15.282,15.28,15.281,15.293,15.298,15.329,15.351,15.334,15.328,15.328,15.319,15.311,15.305,15.307,15.295,15.286,15.263,15.251,15.245,15.243,15.247,15.249,15.252,15.249,15.247,15.243,15.246,15.243,15.241,15.24,15.231,15.217,15.192,15.182,15.204,15.32,15.542,15.761,15.983,16.042,15.757,15.612,15.463,15.202,15.076,15.067,15.064,15.11,15.198,15.243,15.283,15.292,15.307,15.3,15.302,15.294,15.307,15.313,15.323,15.321,15.33,15.327,15.338,15.341,15.342,15.345,15.353,15.358,15.364,15.363,15.371,15.372,15.375,15.377,15.383,15.39,15.407,15.422,15.443,15.461,15.477,15.499,15.521,15.544,15.558,15.58,15.592,15.616,15.634,15.644,15.653,15.657,15.671,15.683,15.687,15.689,15.682,15.681,15.669,15.654,15.621,15.589,15.559,15.532,15.492,15.455,15.421,15.391,15.367,15.341,15.327,15.314,15.299,15.289,15.284,15.267,15.258,15.254,15.248,15.243,15.229,15.229,15.223,15.219,15.21,15.205,15.199,15.196,15.195,15.194,15.187,15.181,15.18,15.18,15.184,15.18,15.181,15.183,15.184,15.191,15.191,15.188,15.186,15.189,15.186,15.188,15.19,15.193,15.192,15.191,15.198,15.194,15.19,15.197,15.196,15.196,15.192,15.197,15.202,15.207,15.208,15.198,15.198,15.2,15.201,15.2,15.199,15.198,15.2,15.201,15.203,15.201,15.194,15.196,15.197,15.207,15.206,15.208,15.21,15.217,15.213,15.214,15.22,15.224,15.221,15.222,15.219,15.218,15.214,15.221,15.231,15.228,15.226,15.216,15.222,15.222,15.222,15.218,15.221,15.221,15.221,15.226,15.22,15.22,15.226,15.223,15.223,15.224,15.217,15.217,15.22,15.219,15.217,15.211,15.213,15.214,15.214,15.204,15.209,15.207,15.217,15.219,15.221,15.221,15.219,15.228,15.233,15.236,15.246,15.245,15.264,15.265,15.259,15.284,15.304,15.333,15.348,15.333,15.324,15.323,15.32,15.323,15.324,15.325,15.315,15.303,15.282,15.283,15.268,15.259,15.271,15.267,15.26,15.254,15.248,15.244,15.25,15.252,15.255,15.252,15.252,15.22,15.207,15.181,15.199,15.336,15.575,15.813,16.017,16,15.764,15.571,15.395,15.206,15.189,15.21,15.139,15.12,15.186,15.234,15.281,15.293,15.307,15.315,15.312,15.313,15.319,15.329,15.328,15.325,15.325,15.332,15.335,15.342,15.348,15.361,15.366,15.381,15.383,15.388,15.382,15.388,15.397,15.412,15.419,15.432,15.446,15.462,15.474,15.491,15.506,15.53,15.554,15.575,15.591,15.604,15.615,15.638,15.655,15.662,15.671,15.677,15.683,15.698,15.697,15.699,15.688,15.683,15.669,15.643,15.616,15.583,15.547,15.512,15.479,15.446,15.412,15.389,15.376,15.359,15.332,15.314,15.301,15.294,15.283,15.274,15.26,15.259,15.262,15.256,15.247,15.248,15.245,15.236,15.232,15.225,15.22,15.219,15.223,15.215,15.21,15.207,15.21,15.212,15.219,15.218,15.216,15.212,15.216,15.221,15.223,15.227,15.224,15.227,15.228,15.225,15.225,15.226,15.227,15.233,15.238,15.233,15.233,15.232,15.231,15.234,15.228,15.226,15.222,15.224,15.224,15.217,15.214,15.214,15.216,15.215,15.209,15.201,15.199,15.195,15.195,15.186,15.183,15.184,15.183,15.186,15.187,15.184,15.184,15.185,15.184,15.176,15.17,15.164,15.165,15.164,15.166,15.162,15.16,15.16,15.163,15.157,15.156,15.155,15.16,15.164,15.164,15.159,15.162,15.167,15.172,15.177,15.18,15.188,15.197,15.205,15.216,15.237,15.241,15.239,15.245,15.262,15.266,15.293,15.304,15.292,15.284,15.275,15.265,15.251,15.249,15.249,15.239,15.219,15.185,15.172,15.172,15.163,15.16,15.156,15.157,15.158,15.157,15.154,15.152,15.154,15.157,15.152,15.138,15.111,15.092,15.095,15.16,15.325,15.549,15.786,15.978,15.871,15.653,15.504,15.309,15.076,15.013,15.012,15.006,15.1,15.159,15.214,15.224,15.238,15.244,15.248,15.254,15.252,15.249,15.253,15.263,15.269,15.273,15.274,15.275,15.278,15.285,15.288,15.287,15.292,15.302,15.311,15.316,15.318,15.326,15.336,15.348,15.357,15.364,15.377,15.393,15.411,15.431,15.447,15.467,15.486,15.508,15.531,15.547,15.567,15.589,15.61,15.616,15.627,15.634,15.64,15.64,15.64,15.633,15.619,15.604,15.579,15.549,15.511,15.474,15.436,15.4,15.368,15.336,15.306,15.283,15.271,15.252,15.234,15.216,15.204,15.199,15.195,15.191,15.182,15.178,15.173,15.172,15.168,15.162,15.159,15.156,15.155,15.155,15.149,15.152,15.152,15.157,15.155,15.146,15.148,15.153,15.158,15.166,15.166,15.169,15.174,15.175,15.175,15.171,15.172,15.172,15.174,15.175,15.173,15.171,15.172,15.172,15.18,15.18,15.178,15.178,15.178,15.181,15.181,15.184,15.182,15.188,15.189,15.188,15.184,15.184,15.185,15.186,15.186,15.184,15.18,15.181,15.182,15.181,15.178,15.175,15.171,15.168,15.166,15.163,15.16,15.158,15.158,15.157,15.152,15.152,15.154,15.157,15.157,15.155,15.154,15.15,15.155,15.158,15.156,15.153,15.154,15.156,15.159,15.158,15.151,15.155,15.155,15.157,15.154,15.156,15.158,15.157,15.161,15.161,15.159,15.159,15.158,15.16,15.16,15.161,15.161,15.166,15.172,15.169,15.167,15.165,15.168,15.171,15.17,15.168,15.168,15.17,15.172,15.173,15.165,15.163,15.161,15.16,15.161,15.156,15.153,15.154,15.155,15.157,15.155,15.157,15.167,15.172,15.183,15.196,15.194,15.192,15.206,15.219,15.235,15.253,15.253,15.245,15.246,15.237,15.228,15.225,15.228,15.232,15.214,15.186,15.177,15.173,15.171,15.172,15.169,15.17,15.17,15.175,15.177,15.176,15.176,15.18,15.182,15.181,15.161,15.131,15.123,15.194,15.366,15.491,15.701,15.948,16.034,15.76,15.629,15.503,15.24,15.107,15.085,15.05,15.064,15.124,15.153,15.219,15.218,15.239,15.228,15.242,15.231,15.243,15.236,15.252,15.252,15.273,15.269,15.275,15.269,15.288,15.29,15.301,15.302,15.312,15.314,15.323,15.323,15.326,15.332,15.339,15.346,15.36,15.365,15.383,15.394,15.411,15.427,15.443,15.456,15.476,15.495,15.516,15.533,15.547,15.57,15.582,15.596,15.6,15.605,15.61,15.615,15.613,15.612,15.598,15.586,15.564,15.544,15.508,15.475,15.442,15.418,15.391,15.364,15.336,15.32,15.301,15.288,15.278,15.267,15.252,15.243,15.233,15.233,15.22,15.211,15.195,15.186,15.179,15.178,15.17,15.172,15.172,15.174,15.171,15.172,15.168,15.171,15.166,15.165,15.159,15.165,15.166,15.174,15.174,15.172,15.171,15.169,15.164,15.163,15.155,15.158,15.156,15.159,15.158,15.159,15.159,15.168,15.175,15.177,15.178,15.18,15.187,15.189,15.192,15.193,15.197,15.201,15.202,15.204,15.203,15.203,15.204,15.207,15.207,15.206,15.204,15.203,15.204,15.201,15.195,15.19,15.189,15.187,15.185,15.18,15.174,15.169,15.167,15.168,15.167,15.164,15.166,15.168,15.164,15.163,15.159,15.162,15.16,15.165,15.163,15.161,15.161,15.163,15.163,15.158,15.158,15.157,15.158,15.158,15.158,15.155,15.157,15.157,15.16,15.16,15.156,15.154,15.159,15.16,15.163,15.158,15.16,15.162,15.163,15.167,15.165,15.162,15.168,15.166,15.171,15.166,15.167,15.165,15.17,15.171,15.168,15.163,15.162,15.163,15.166,15.16,15.162,15.16,15.165,15.16,15.16,15.155,15.155,15.156,15.158,15.156,15.154,15.154,15.16,15.165,15.166,15.167,15.177,15.187,15.209,15.201,15.198,15.216,15.233,15.256,15.266,15.25,15.243,15.24,15.231,15.228,15.22,15.217,15.213,15.198,15.168,15.162,15.158,15.157,15.158,15.159,15.157,15.152,15.155,15.156,15.154,15.153,15.152,15.147,15.145,15.13,15.095,15.08,15.142,15.31,15.548,15.777,15.978,15.877,15.639,15.523,15.383,15.136,15.066,15.048,15.014,15.094,15.146,15.181,15.215,15.24,15.243,15.249,15.237,15.243,15.243,15.256,15.256,15.265,15.266,15.277,15.276,15.284,15.285,15.298,15.303,15.313,15.312,15.316,15.321,15.329,15.336,15.346,15.353,15.363,15.376,15.396,15.41,15.427,15.444,15.464,15.483,15.5,15.517,15.538,15.557,15.57,15.584,15.603,15.614,15.627,15.636,15.641,15.641,15.641,15.643,15.638,15.622,15.602,15.572,15.542,15.51,15.471,15.434,15.4,15.384,15.349,15.323,15.293,15.271,15.252,15.234,15.223,15.208,15.198,15.192,15.188,15.186,15.182,15.178,15.178,15.176,15.172,15.165,15.162,15.157,15.157,15.158,15.156,15.151,15.147,15.147,15.144,15.138,15.134,15.139,15.142,15.142,15.135,15.133,15.132,15.132,15.127,15.126,15.124,15.127,15.129,15.132,15.128,15.122,15.117,15.119,15.122,15.125,15.122,15.125,15.129,15.129,15.128,15.121,15.121,15.124,15.126,15.123,15.123,15.125,15.125,15.127,15.124,15.122,15.12,15.122,15.123,15.123,15.117,15.107,15.103,15.104,15.104,15.106,15.108,15.104,15.102,15.099,15.099,15.093,15.091,15.098,15.108,15.111,15.108,15.107,15.106,15.115,15.106,15.102,15.107,15.107,15.108,15.111,15.11,15.106,15.107,15.112,15.111,15.109,15.103,15.109,15.113,15.114,15.108,15.108,15.108,15.112,15.118,15.111,15.109,15.105,15.107,15.11,15.11,15.108,15.103,15.103,15.107,15.112,15.12,15.121,15.124,15.129,15.127,15.124,15.122,15.129,15.133,15.133,15.134,15.144,15.145,15.145,15.145,15.142,15.141,15.145,15.149,15.149,15.152,15.157,15.17,15.175,15.19,15.202,15.205,15.202,15.214,15.226,15.236,15.246,15.253,15.242,15.243,15.233,15.222,15.213,15.215,15.216,15.196,15.172,15.157,15.157,15.159,15.166,15.172,15.166,15.172,15.17,15.172,15.167,15.165,15.175,15.185,15.19,15.186,15.158,15.14,15.174,15.306,15.534,15.753,15.968,16.001,15.748,15.586,15.426,15.214,15.171,15.176,15.163,15.092,15.12,15.19,15.245,15.279,15.284,15.296,15.292,15.3,15.296,15.298,15.299,15.305,15.312,15.315,15.317,15.321,15.321,15.333,15.342,15.347,15.349,15.356,15.357,15.361,15.368,15.375,15.39,15.398,15.405,15.416,15.428,15.444,15.467,15.483,15.489,15.502,15.528,15.551,15.57,15.589,15.609,15.626,15.649,15.659,15.66,15.665,15.666,15.67,15.664,15.654,15.639,15.624,15.597,15.584,15.554,15.517,15.481,15.445,15.414,15.375,15.343,15.318,15.298,15.275,15.257,15.239,15.227,15.216,15.211,15.204,15.196,15.191,15.189,15.181,15.179,15.173,15.167,15.17,15.168,15.169,15.165,15.157,15.157,15.153,15.152,15.148,15.152,15.155,15.161,15.161,15.156,15.154,15.151,15.148,15.151,15.148,15.148,15.151,15.154,15.155,15.146,15.143,15.15,15.155,15.153,15.155,15.15,15.154,15.156,15.155,15.151,15.148,15.149,15.15,15.149,15.145,15.144,15.143,15.144,15.143,15.14,15.135,15.135,15.13,15.132,15.126,15.123,15.124,15.123,15.124,15.126,15.118,15.12,15.123,15.124,15.121,15.12,15.12,15.124,15.127,15.124,15.122,15.125,15.124,15.129,15.13,15.126,15.121,15.116,15.114,15.11,15.106,15.104,15.105,15.106,15.113,15.108,15.108,15.107,15.105,15.106,15.104,15.107,15.113,15.125,15.141,15.145,15.14,15.136,15.142,15.155,15.164,15.18,15.186,15.182,15.178,15.174,15.167,15.155,15.155,15.147,15.128,15.099,15.085,15.079,15.084,15.083,15.073,15.073,15.074,15.072,15.076,15.072,15.065,15.067,15.065,15.061,15.044,15.014,15.008,15.072,15.241,15.462,15.699,15.878,15.901,15.66,15.52,15.442,15.25,14.963,14.944,14.938,14.947,15.052,15.092,15.144,15.145,15.163,15.149,15.162,15.151,15.163,15.152,15.163,15.163,15.184,15.178,15.189,15.184,15.2,15.2,15.214,15.212,15.223,15.227,15.239,15.241,15.249,15.249,15.259,15.264,15.277,15.275,15.29,15.305,15.329,15.35,15.367,15.379,15.402,15.423,15.449,15.465,15.486,15.504,15.514,15.528,15.531,15.539,15.54,15.54,15.541,15.531,15.515,15.495,15.467,15.437,15.399,15.361,15.32,15.284,15.252,15.218,15.187,15.166,15.142,15.129,15.113,15.102,15.088,15.088,15.082,15.078,15.073,15.067,15.064,15.066,15.063,15.059,15.052,15.055,15.05,15.052,15.049,15.05,15.049,15.05,15.041,15.038,15.034,15.037,15.037,15.047,15.046,15.048,15.049,15.055,15.055,15.057,15.054,15.063,15.061,15.066,15.063,15.066,15.065,15.071,15.074,15.077,15.077,15.079,15.08,15.087,15.085,15.087,15.085,15.09,15.092,15.094,15.089,15.092,15.093,15.098,15.097,15.093,15.091,15.093,15.093,15.091,15.088,15.084,15.087,15.091,15.091,15.086,15.083,15.088,15.089,15.093,15.089,15.091,15.093,15.095,15.1,15.097,15.094,15.093,15.098,15.098,15.096,15.096,15.096,15.096,15.1,15.102,15.099,15.098,15.101,15.107,15.103,15.095,15.099,15.097,15.103,15.102,15.101,15.097,15.101,15.101,15.104,15.103,15.103,15.101,15.106,15.109,15.104,15.099,15.101,15.103,15.103,15.098,15.099,15.099,15.101,15.102,15.104,15.101,15.101,15.104,15.112,15.112,15.12,15.129,15.144,15.153,15.143,15.142,15.157,15.165,15.182,15.195,15.191,15.184,15.183,15.18,15.177,15.158,15.156,15.149,15.141,15.113,15.095,15.088,15.087,15.089,15.085,15.086,15.083,15.086,15.089,15.087,15.084,15.082,15.081,15.075,15.054,15.028,15.037,15.134,15.338,15.558,15.783,15.922,15.698,15.534,15.398,15.174,14.986,14.951,14.95,14.963,15.056,15.074,15.138,15.163,15.183,15.181,15.184,15.178,15.188,15.19,15.199,15.201,15.211,15.217,15.223,15.222,15.227,15.232,15.241,15.242,15.251,15.254,15.259,15.264,15.273,15.282,15.287,15.293,15.307,15.323,15.337,15.348,15.366,15.39,15.412,15.431,15.448,15.465,15.477,15.497,15.517,15.532,15.543,15.553,15.559,15.573,15.576,15.577,15.583,15.587,15.577,15.56,15.538,15.517,15.487,15.453,15.411,15.391,15.352,15.321,15.292,15.26,15.233,15.207,15.192,15.178,15.165,15.153,15.143,15.139,15.135,15.133,15.127,15.12,15.115,15.116,15.115,15.107,15.101,15.098,15.098,15.097,15.089,15.084,15.08,15.078,15.077,15.077,15.074,15.08,15.077,15.082,15.079,15.076,15.073,15.075,15.075,15.077,15.07,15.072,15.074,15.073,15.072,15.071,15.072,15.08,15.081,15.085,15.087,15.09,15.098,15.1,15.098,15.097,15.096,15.098,15.099,15.1,15.102,15.104,15.102,15.106,15.103,15.1,15.095,15.094,15.094,15.089,15.087,15.086,15.086,15.089,15.087,15.081,15.082,15.08,15.081,15.087,15.086,15.082,15.085,15.084,15.085,15.082,15.077,15.078,15.078,15.081,15.079,15.074,15.074,15.08,15.081,15.08,15.074,15.076,15.083,15.081,15.085,15.082,15.08,15.08,15.085,15.084,15.083,15.082,15.085,15.083,15.083,15.08,15.08,15.078,15.081,15.083,15.08,15.077,15.078,15.076,15.075,15.075,15.071,15.071,15.074,15.07,15.065,15.063,15.063,15.07,15.068,15.063,15.063,15.061,15.061,15.063,15.061,15.056,15.06,15.062,15.066,15.066,15.071,15.074,15.089,15.102,15.098,15.093,15.104,15.113,15.125,15.132,15.154,15.148,15.146,15.146,15.138,15.123,15.116,15.115,15.097,15.077,15.047,15.037,15.038,15.042,15.037,15.035,15.035,15.036,15.033,15.034,15.03,15.028,15.031,15.026,15.019,14.996,14.973,15.014,15.155,15.385,15.6,15.813,15.832,15.537,15.404,15.279,15.025,14.919,14.916,14.916,14.926,15.013,15.064,15.117,15.14,15.15,15.15,15.144,15.143,15.147,15.146,15.154,15.165,15.173,15.181,15.186,15.188,15.188,15.195,15.207,15.217,15.22,15.225,15.234,15.241,15.242,15.246,15.253,15.266,15.284,15.3,15.311,15.329,15.349,15.371,15.388,15.397,15.413,15.434,15.454,15.476,15.488,15.504,15.517,15.532,15.545,15.551,15.558,15.561,15.563,15.561,15.545,15.532,15.506,15.482,15.467,15.432,15.395,15.357,15.322,15.292,15.261,15.234,15.207,15.188,15.172,15.154,15.135,15.125,15.117,15.112,15.106,15.097,15.087,15.087,15.084,15.082,15.074,15.067,15.066,15.064,15.061,15.056,15.052,15.049,15.044,15.043,15.038,15.039,15.041,15.043,15.043,15.039,15.038,15.037,15.035,15.036,15.033,15.034,15.033,15.032,15.035,15.033,15.031,15.033,15.04,15.049,15.048,15.049,15.048,15.05,15.052,15.054,15.053,15.055,15.054,15.056,15.058,15.052,15.05,15.05,15.052,15.051,15.048,15.045,15.039,15.042,15.044,15.034,15.031,15.031,15.032,15.027,15.024,15.018,15.018,15.017,15.016,15.012,15.01,15.013,15.013,15.013,15.006,15.004,15.005,15.004,15.01,15.005,15.005,15,15.002,15.004,15,14.997,15.002,15.003,15.008,15.004,14.997,14.992,14.997,14.994,14.994,14.99,14.99,14.993,14.994,14.992,14.989,14.987,14.987,14.991,14.99,14.988,14.99,14.997,15.001,15.005,15.002,15.002,15.003,15.015,15.011,15.013,15.012,15.004,15.007,15.004,15.006,15.006,15.014,15.012,15.013,15.016,15.011,15.013,15.017,15.018,15.02,15.011,15.008,15.014,15.02,15.021,15.026,15.038,15.044,15.061,15.059,15.048,15.057,15.078,15.084,15.104,15.116,15.106,15.103,15.105,15.103,15.082,15.08,15.072,15.061,15.035,15.012,15.012,15.012,15.013,15.015,15.008,15.009,15.011,15.01,15.009,15.005,15.01,15.01,15.01,14.992,14.962,14.951,15.018,15.2,15.426,15.542,15.77,15.833,15.561,15.41,15.245,15.036,14.949,14.977,14.935,14.915,14.976,15.028,15.089,15.111,15.123,15.127,15.131,15.135,15.128,15.128,15.135,15.137,15.146,15.154,15.159,15.163,15.164,15.179,15.191,15.2,15.2,15.207,15.224,15.229,15.241,15.245,15.256,15.263,15.275,15.288,15.3,15.32,15.339,15.354,15.366,15.375,15.391,15.41,15.428,15.448,15.457,15.475,15.486,15.504,15.507,15.513,15.52,15.523,15.522,15.526,15.516,15.496,15.481,15.46,15.429,15.395,15.361,15.324,15.293,15.263,15.232,15.204,15.184,15.167,15.161,15.147,15.135,15.12,15.114,15.118,15.115,15.103,15.097,15.093,15.093,15.089,15.087,15.079,15.071,15.063,15.063,15.057,15.061,15.06,15.062,15.059,15.061,15.057,15.064,15.067,15.076,15.072,15.066,15.068,15.071,15.079,15.078,15.08,15.086,15.091,15.088,15.088,15.089,15.095,15.099,15.101,15.101,15.097,15.098,15.099,15.101,15.097,15.095,15.101,15.106,15.114,15.11,15.109,15.1,15.098,15.094,15.085,15.084,15.082,15.08,15.084,15.087,15.086,15.083,15.085,15.087,15.09,15.086,15.088,15.088,15.091,15.094,15.096,15.093,15.099,15.099,15.098,15.097,15.094,15.097,15.101,15.104,15.1,15.101,15.096,15.099,15.101,15.096,15.092,15.093,15.099,15.098,15.098,15.097,15.106,15.108,15.119,15.126,15.138,15.142,15.138,15.141,15.151,15.156,15.164,15.193,15.191,15.178,15.177,15.176,15.167,15.159,15.153,15.136,15.128,15.097,15.089,15.083,15.078,15.072,15.081,15.082,15.086,15.082,15.075,15.079,15.083,15.087,15.082,15.069,15.047,15.025,15.028,15.064,15.21,15.448,15.681,15.883,15.859,15.615,15.442
