4.1922,4.1941,4.1972,4.1948,4.1884,4.1903,4.1909,4.1982,4.1943,4.1901,4.19,4.1884,4.1942,4.1928,4.1898,4.1882,4.1884,4.1952,4.1939,4.1932,4.1902,4.1912,4.1941,4.1955,4.1939,4.188,4.1877,4.1925,4.1939,4.1917,4.1867,4.1894,4.1933,4.1927,4.1925,4.1874,4.1881,4.1942,4.1954,4.1924,4.1943,4.1945,4.1942,4.1976,4.1982,4.1921,4.1926,4.2047,4.2123,4.2102,4.2058,4.1943,4.2004,4.2291,4.2509,4.2861,4.2818,4.2619,4.2598,4.2461,4.2362,4.2231,4.2132,4.2019,4.2004,4.1899,4.1892,4.1842,4.1874,4.1854,4.182,4.1804,4.1811,4.1793,4.1795,4.1762,4.1749,4.1759,4.1777,4.1807,4.1773,4.1742,4.1691,4.1668,4.1172,3.9895,3.9407,4.063,4.3403,4.6219,4.8958,5.1574,5.0594,4.5793,4.2355,4.0853,4.0648,4.1213,4.1723,4.2497,4.2593,4.2497,4.2353,4.2294,4.2309,4.2298,4.231,4.2303,4.2308,4.2366,4.2408,4.2434,4.2415,4.2501,4.2532,4.2614,4.2613,4.2654,4.2732,4.2795,4.2805,4.2858,4.2906,4.302,4.3156,4.3273,4.3349,4.3435,4.355,4.3663,4.3788,4.3858,4.3908,4.4103,4.4306,4.4531,4.4712,4.485,4.5043,4.5236,4.5489,4.5669,4.5887,4.606,4.627,4.652,4.6674,4.681,4.6956,4.706,4.7077,4.7059,4.6859,4.6597,4.6231,4.5858,4.5407,4.4889,4.4371,4.3932,4.3585,4.3278,4.295,4.268,4.25,4.235,4.2257,4.2171,4.205,4.2012,4.1943,4.196,4.1921,4.1873,4.1841,4.1788,4.1835,4.1765,4.1763,4.1775,4.1848,4.1831,4.1746,4.1681,4.1684,4.1769,4.181,4.178,4.1779,4.1777,4.1793,4.1783,4.18,4.1767,4.1747,4.1753,4.1829,4.1791,4.172,4.1723,4.1742,4.1718,4.1746,4.1703,4.1689,4.1684,4.1765,4.1728,4.1689,4.1686,4.1641,4.1658,4.167,4.164,4.1683,4.1727,4.1749,4.1722,4.161,4.1582,4.1581,4.166,4.1627,4.1602,4.1583,4.1607,4.164,4.1748,4.174,4.171,4.1707,4.1692,4.157,4.1569,4.1791,4.222,4.246,4.2363,4.2237,4.2115,4.2051,4.1887,4.1834,4.1713,4.1619,4.1578,4.1511,4.1579,4.1511,4.15,4.1495,4.1472,4.1474,4.1445,4.1375,4.1371,4.1453,4.1484,4.1406,4.1312,4.1307,4.1333,4.1411,4.1419,4.1267,4.0482,3.9805,3.9079,3.9793,4.2332,4.5225,4.7854,5.0885,4.8962,4.3334,4.044,3.9102,3.9471,4.0403,4.122,4.1857,4.2095,4.2092,4.206,4.19,4.1904,4.1827,4.185,4.1904,4.1976,4.2004,4.2052,4.2034,4.2154,4.2191,4.2186,4.223,4.2279,4.2347,4.2436,4.2489,4.2527,4.2584,4.268,4.2689,4.2796,4.2891,4.2947,4.3018,4.3163,4.3279,4.3442,4.3559,4.3698,4.3784,4.3958,4.4101,4.4326,4.4544,4.4786,4.4985,4.517,4.5355,4.5594,4.5739,4.5937,4.6148,4.6255,4.6463,4.662,4.6723,4.6775,4.6794,4.663,4.6343,4.5986,4.5466,4.498,4.4611,4.4179,4.3795,4.3334,4.2996,4.2854,4.2664,4.2437,4.2314,4.2088,4.2029,4.1983,4.1991,4.1873,4.1848,4.176,4.1805,4.1774,4.1734,4.1683,4.1706,4.1671,4.1722,4.1723,4.173,4.1735,4.1689,4.1731,4.1779,4.1732,4.1758,4.1757,4.1767,4.1751,4.1717,4.1727,4.1762,4.1793,4.1813,4.1821,4.1831,4.1832,4.1888,4.1839,4.1803,4.1756,4.1799,4.1809,4.1782,4.174,4.1703,4.1761,4.1766,4.173,4.1702,4.1671,4.1715,4.1755,4.1779,4.1682,4.1706,4.1744,4.187,4.1898,4.1884,4.1847,4.1799,4.1801,4.1852,4.2036,4.2388,4.2643,4.2552,4.2388,4.2264,4.2129,4.2072,4.2023,4.1846,4.1813,4.1731,4.1701,4.1711,4.1737,4.17,4.1673,4.1606,4.1605,4.1588,4.1584,4.1594,4.1531,4.155,4.1564,4.1504,4.1484,4.1494,4.1519,4.1532,4.1466,4.079,4.013,3.9181,3.964,4.1941,4.4919,4.7474,5.0875,5.029,4.5018,4.1709,4.0211,4.0283,4.09,4.153,4.2174,4.2369,4.2339,4.2287,4.2152,4.2095,4.2098,4.2062,4.2106,4.2223,4.2195,4.2221,4.2257,4.2312,4.2387,4.2426,4.2361,4.2464,4.2524,4.2597,4.2611,4.2664,4.2692,4.2844,4.2941,4.2976,4.3038,4.3142,4.3209,4.3392,4.3534,4.359,4.3719,4.385,4.4049,4.4209,4.4331,4.4534,4.4747,4.4967,4.5172,4.5347,4.5548,4.5759,4.5883,4.6076,4.6299,4.6434,4.6612,4.674,4.6882,4.687,4.674,4.657,4.6292,4.5903,4.5455,4.4969,4.4528,4.4078,4.3742,4.3327,4.3025,4.2763,4.2673,4.2538,4.2392,4.2246,4.2135,4.2108,4.2074,4.2025,4.1999,4.1948,4.1916,4.19,4.1913,4.1866,4.1822,4.184,4.1866,4.1831,4.1806,4.1767,4.1828,4.1861,4.186,4.1834,4.1813,4.1815,4.1846,4.1849,4.1853,4.1831,4.1824,4.1858,4.1891,4.1871,4.188,4.1877,4.1912,4.1942,4.1942,4.1875,4.1855,4.1921,4.1963,4.191,4.1898,4.1865,4.1871,4.191,4.1856,4.1847,4.183,4.1847,4.1866,4.1855,4.1839,4.1833,4.187,4.1886,4.1886,4.1848,4.181,4.1804,4.192,4.1984,4.1955,4.1891,4.1832,4.1775,4.1917,4.2226,4.2605,4.2569,4.245,4.2414,4.2288,4.2241,4.2169,4.2163,4.2077,4.2041,4.2024,4.2051,4.2094,4.2153,4.2176,4.2234,4.2291,4.237,4.2443,4.2491,4.2505,4.2595,4.27,4.2772,4.2825,4.2911,4.2951,4.3072,4.3167,4.3165,4.2446,4.1378,4.1161,4.279,4.5664,4.8365,5.1465,5.3473,4.9898,4.5333,4.3234,4.2665,4.303,4.307,4.3828,4.3906,4.3909,4.3826,4.3617,4.3563,4.3421,4.3416,4.3372,4.3425,4.3423,4.3397,4.3342,4.3376,4.3355,4.3383,4.331,4.3304,4.3308,4.3379,4.3422,4.3459,4.3454,4.3476,4.3557,4.3647,4.3665,4.3738,4.381,4.392,4.4008,4.4126,4.4128,4.426,4.438,4.4551,4.4677,4.4835,4.4986,4.5201,4.5304,4.5481,4.5622,4.5796,4.6061,4.6302,4.6491,4.6628,4.6764,4.6871,4.7061,4.7125,4.7089,4.692,4.6666,4.6368,4.5982,4.5497,4.5081,4.4856,4.4509,4.4084,4.3743,4.3377,4.3126,4.2932,4.2761,4.2607,4.2468,4.2388,4.2355,4.23,4.2264,4.2161,4.2164,4.2127,4.2151,4.2053,4.2041,4.2022,4.2016,4.2037,4.2062,4.1998,4.2025,4.2023,4.2067,4.2085,4.2033,4.2034,4.2031,4.2074,4.2072,4.2031,4.2018,4.2021,4.2118,4.2076,4.207,4.2028,4.2033,4.2062,4.204,4.2005,4.1975,4.1936,4.2006,4.2,4.1979,4.1926,4.1965,4.1953,4.1967,4.193,4.1909,4.1905,4.1935,4.1932,4.1912,4.1901,4.1865,4.1902,4.1923,4.1876,4.1856,4.1835,4.1836,4.1824,4.1791,4.1766,4.1792,4.1788,4.186,4.1886,4.1886,4.1871,4.1811,4.1764,4.1716,4.1887,4.2355,4.2584,4.2497,4.2354,4.2208,4.2089,4.1968,4.1939,4.1794,4.1647,4.1598,4.1603,4.1589,4.1582,4.1485,4.1443,4.1443,4.1493,4.1458,4.1409,4.1343,4.1356,4.1334,4.1361,4.1303,4.1291,4.1274,4.127,4.1323,4.1202,4.0537,3.9302,3.8947,4.044,4.313,4.4642,4.6946,5.0495,4.9951,4.5122,4.1932,4.0741,4.0601,4.092,4.1481,4.2027,4.1992,4.1981,4.1861,4.1875,4.1753,4.1811,4.1766,4.1924,4.1872,4.1944,4.1902,4.1965,4.1964,4.2044,4.2034,4.2096,4.2109,4.221,4.2217,4.2286,4.2271,4.239,4.2416,4.25,4.2573,4.2653,4.2706,4.2831,4.2897,4.3024,4.3103,4.3231,4.3352,4.3509,4.3627,4.3776,4.3957,4.4212,4.4442,4.4581,4.4769,4.4948,4.5137,4.5436,4.5695,4.5873,4.6129,4.6184,4.6437,4.6603,4.6607,4.6572,4.6474,4.6234,4.587,4.5377,4.4944,4.4482,4.4074,4.3646,4.327,4.2951,4.2671,4.2454,4.2239,4.2053,4.2008,4.191,4.1889,4.189,4.1888,4.1809,4.1785,4.1735,4.173,4.1646,4.1623,4.1618,4.1582,4.1641,4.1607,4.1559,4.1571,4.1577,4.155,4.1501,4.1476,4.1498,4.1504,4.1555,4.1499,4.1434,4.1431,4.1357,4.1483,4.1453,4.1456,4.138,4.1362,4.144,4.1411,4.1386,4.1382,4.1337,4.1353,4.1344,4.1347,4.1318,4.1337,4.1313,4.1271,4.125,4.1252,4.1182,4.1218,4.1222,4.1261,4.1211,4.1214,4.1214,4.1222,4.1185,4.1215,4.1267,4.1275,4.1301,4.124,4.1193,4.1222,4.1247,4.1291,4.1241,4.1281,4.1255,4.1332,4.1384,4.1354,4.1261,4.1254,4.1207,4.1309,4.1609,4.2048,4.2102,4.2032,4.1908,4.1769,4.1672,4.1554,4.147,4.1302,4.1244,4.1168,4.1172,4.1123,4.1147,4.1118,4.1055,4.1018,4.102,4.0977,4.094,4.0924,4.0897,4.0911,4.0907,4.097,4.0959,4.0889,4.0935,4.0894,4.0877,4.021,3.9004,3.8654,4.0055,4.2914,4.5589,4.8285,5.0504,4.6915,4.1693,4.0422,3.8915,3.884,3.9769,4.0456,4.1385,4.1445,4.1502,4.1413,4.1449,4.1407,4.1425,4.1361,4.1424,4.1465,4.1521,4.1459,4.1538,4.1573,4.1631,4.1664,4.1744,4.1741,4.1805,4.1833,4.1913,4.196,4.1995,4.2059,4.2249,4.2292,4.2358,4.2397,4.2492,4.2666,4.2812,4.2918,4.3008,4.3142,4.3248,4.3373,4.3562,4.366,4.3904,4.4107,4.4349,4.4554,4.4739,4.4886,4.5124,4.5336,4.5533,4.5662,4.5812,4.5966,4.6107,4.6127,4.5984,4.5881,4.5687,4.5431,4.5021,4.4547,4.4058,4.3583,4.3191,4.2847,4.244,4.2132,4.1885,4.173,4.153,4.1423,4.1237,4.1195,4.1138,4.1123,4.1134,4.1083,4.1077,4.1057,4.1001,4.0943,4.0949,4.0944,4.0953,4.0929,4.0936,4.088,4.0828,4.0904,4.0971,4.102,4.0974,4.1007,4.1058,4.1088,4.1091,4.1078,4.1039,4.1054,4.1068,4.1085,4.1041,4.1007,4.0981,4.1078,4.1101,4.1055,4.0987,4.1014,4.1038,4.1056,4.1025,4.0962,4.0999,4.1042,4.1067,4.1083,4.101,4.1003,4.0945,4.0954,4.0879,4.0936,4.1003,4.1031,4.1063,4.1052,4.101,4.1084,4.1194,4.1192,4.1153,4.1062,4.1009,4.1014,4.1259,4.1738,4.1909,4.177,4.163,4.1607,4.1481,4.1385,4.1273,4.1144,4.1139,4.1047,4.1016,4.0959,4.0907,4.0947,4.0932,4.0912,4.0911,4.0904,4.0936,4.0951,4.091,4.0879,4.0882,4.0929,4.0958,4.0931,4.0892,4.0898,4.0818,4.0155,3.8938,3.8761,4.0325,4.3251,4.578,4.7085,5.0159,4.8799,4.3261,4.0247,3.8868,3.9097,3.9802,4.0632,4.1313,4.1571,4.1561,4.1465,4.1363,4.1399,4.1359,4.1362,4.1375,4.1466,4.1478,4.1529,4.1512,4.1541,4.1574,4.1645,4.171,4.1767,4.1798,4.1893,4.1958,4.2056,4.2108,4.2161,4.2241,4.233,4.2472,4.2536,4.2624,4.2675,4.2814,4.2986,4.311,4.3232,4.3391,4.3605,4.3819,4.3961,4.4165,4.435,4.4597,4.4831,4.5007,4.5198,4.5437,4.5659,4.5899,4.6052,4.6218,4.6235,4.633,4.6358,4.6303,4.6045,4.5727,4.5343,4.4977,4.4513,4.4054,4.362,4.324,4.2894,4.2597,4.2336,4.2095,4.196,4.1839,4.1731,4.1677,4.1571,4.1506,4.1529,4.153,4.1519,4.1477,4.143,4.1443,4.1459,4.1418,4.1372,4.1362,4.1374,4.1377,4.1342,4.1363,4.1306,4.1318,4.1328,4.1394,4.1336,4.1364,4.1352,4.1398,4.1388,4.1411,4.1447,4.1437,4.1458,4.1448,4.1413,4.1421,4.1453,4.1498,4.1478,4.1421,4.1377,4.1437,4.1454,4.1473,4.145,4.1407,4.1427,4.1453,4.1466,4.1435,4.1438,4.1443,4.1459,4.1443,4.1358,4.1368,4.1355,4.1426,4.1442,4.1396,4.1387,4.1387,4.1529,4.1585,4.1594,4.1558,4.1493,4.1449,4.1645,4.1981,4.2345,4.2268,4.2106,4.2034,4.1949,4.1857,4.176,4.1675,4.1571,4.1543,4.1519,4.1434,4.1442,4.1476,4.1503,4.1435,4.1367,4.1389,4.1387,4.1349,4.1338,4.1359,4.1343,4.1374,4.1372,4.138,4.1345,4.1354,4.1382,4.1303,4.0475,3.9327,3.9234,4.1037,4.3956,4.6412,4.942,5.0902,4.6779,4.2326,4.0345,3.9853,4.0519,4.0876,4.1861,4.207,4.2113,4.2043,4.2003,4.2016,4.2,4.1968,4.1955,4.2014,4.2059,4.2089,4.2114,4.2153,4.2187,4.2286,4.2323,4.234,4.2332,4.2438,4.2512,4.2592,4.2605,4.2681,4.2734,4.2842,4.295,4.3016,4.3099,4.3193,4.3349,4.3488,4.3572,4.371,4.3865,4.4083,4.4273,4.4434,4.4594,4.4802,4.5074,4.5267,4.5466,4.5545,4.5762,4.6007,4.6243,4.6393,4.6544,4.6719,4.6844,4.6949,4.6907,4.6849,4.6643,4.6352,4.5838,4.5325,4.4848,4.439,4.3987,4.365,4.3319,4.3118,4.2864,4.2625,4.2469,4.2296,4.2211,4.2051,4.2039,4.2011,4.1991,4.1953,4.1922,4.1863,4.1904,4.1888,4.1871,4.185,4.1875,4.1907,4.1914,4.1904,4.1836,4.184,4.1873,4.1893,4.1886,4.1841,4.1931,4.1937,4.1967,4.1962,4.1923,4.1974,4.2046,4.2071,4.2089,4.2069,4.2065,4.2064,4.2151,4.2107,4.2085,4.2061,4.2087,4.2116,4.2053,4.2068,4.2038,4.2058,4.2081,4.2069,4.2013,4.2003,4.2006,4.2052,4.2019,4.2022,4.1987,4.1981,4.2023,4.2051,4.2025,4.2021,4.1997,4.2036,4.2071,4.204,4.2022,4.2025,4.205,4.2078,4.2025,4.2008,4.2029,4.2173,4.2246,4.2176,4.217,4.2094,4.2024,4.2262,4.2644,4.2942,4.285,4.2734,4.2647,4.255,4.243,4.2319,4.2182,4.2113,4.2073,4.1995,4.1967,4.1962,4.195,4.1948,4.1901,4.1846,4.1871,4.1913,4.1883,4.1878,4.182,4.183,4.185,4.1865,4.1834,4.1791,4.1785,4.1799,4.1424,4.023,3.9457,4.0336,4.15,4.4361,4.6887,4.9929,5.1316,4.7064,4.2933,4.1003,4.0697,4.1164,4.1545,4.2316,4.2593,4.2478,4.2444,4.2343,4.24,4.235,4.2388,4.2321,4.2381,4.2391,4.2482,4.2495,4.2504,4.2527,4.2647,4.2642,4.2667,4.2682,4.2773,4.2846,4.2929,4.294,4.299,4.3055,4.3186,4.3267,4.3335,4.3363,4.3477,4.362,4.3765,4.3855,4.3998,4.4097,4.4311,4.4487,4.4629,4.4783,4.4994,4.5235,4.5472,4.5661,4.5849,4.6042,4.6291,4.6527,4.6611,4.6751,4.6883,4.7039,4.7179,4.7169,4.7037,4.6824,4.6501,4.6168,4.572,4.5173,4.4708,4.4301,4.3935,4.3589,4.3248,4.2982,4.2788,4.2625,4.2547,4.2421,4.2283,4.2217,4.2194,4.2155,4.2091,4.2078,4.2084,4.2112,4.2062,4.2028,4.1992,4.2036,4.2005,4.2044,4.2012,4.198,4.1989,4.2007,4.2015,4.2007,4.1973,4.199,4.2,4.2016,4.2003,4.1976,4.2004,4.2052,4.2035,4.2037,4.2002,4.2003,4.2045,4.2069,4.2069,4.2022,4.2006,4.2014,4.203,4.2036,4.199,4.1955,4.1953,4.1997,4.1963,4.1939,4.1919,4.1919,4.1927,4.1928,4.1887,4.191,4.1921,4.1953,4.1946,4.1933,4.1906,4.1902,4.1938,4.1939,4.1918,4.1878,4.1883,4.1897,4.1912,4.1888,4.1891,4.1855,4.1903,4.1903,4.1854,4.1817,4.185,4.1872,4.1875,4.1893,4.1955,4.2011,4.1966,4.1931,4.1793,4.1913,4.2286,4.2735,4.2685,4.2541,4.239,4.2301,4.2229,4.2132,4.2067,4.1863,4.1784,4.175,4.1756,4.1731,4.1675,4.1641,4.1635,4.1653,4.168,4.164,4.1575,4.159,4.1646,4.1641,4.1579,4.1604,4.1591,4.1593,4.1662,4.1587,4.1244,4.0811,3.9736,3.9451,4.1083,4.382,4.6372,4.9288,5.1332,4.7542,4.2811,4.0741,4.0326,4.0937,4.1229,4.2119,4.2383,4.2356,4.2365,4.2213,4.2185,4.2141,4.217,4.2223,4.2285,4.229,4.2306,4.2329,4.2413,4.2436,4.2497,4.2474,4.2535,4.2597,4.2689,4.2696,4.2781,4.2806,4.2933,4.3003,4.3056,4.3103,4.3229,4.3362,4.3528,4.3553,4.3677,4.3799,4.3943,4.4093,4.4229,4.4374,4.456,4.4781,4.5041,4.5182,4.5357,4.5532,4.5766,4.594,4.6108,4.6298,4.646,4.6683,4.6873,4.7068,4.7081,4.708,4.7052,4.6954,4.6604,4.6191,4.5788,4.5337,4.4891,4.4404,4.3935,4.3605,4.3233,4.3102,4.2818,4.2596,4.2405,4.2272,4.2157,4.2093,4.1979,4.1886,4.1856,4.1847,4.188,4.1773,4.1715,4.1684,4.1677,4.1662,4.1625,4.158,4.1578,4.1542,4.1629,4.1598,4.1543,4.15,4.1509,4.1489,4.1461,4.1422,4.1429,4.1487,4.1496,4.15,4.1387,4.1384,4.1338,4.1405,4.1407,4.1402,4.1361,4.1346,4.1363,4.1332,4.1297,4.1287,4.1281,4.125,4.1271,4.1214,4.1205,4.1181,4.1215,4.1225,4.1176,4.1127,4.1141,4.1172,4.1188,4.1159,4.113,4.1213,4.1228,4.1202,4.1147,4.1092,4.1138,4.1144,4.1188,4.107,4.1058,4.104,4.1089,4.1179,4.114,4.1123,4.1078,4.1126,4.1171,4.1269,4.1258,4.1223,4.116,4.1133,4.1228,4.1475,4.1887,4.1927,4.1852,4.1721,4.1591,4.1527,4.1433,4.1329,4.1149,4.1158,4.1067,4.1075,4.1032,4.1077,4.0948,4.0902,4.0849,4.0935,4.0902,4.088,4.0843,4.0901,4.0848,4.0956,4.094,4.0931,4.0953,4.0899,4.0937,4.0498,4.0044,3.8918,3.8783,4.0482,4.3491,4.6034,4.8844,5.0279,4.6049,4.1139,3.9073,3.8422,3.9231,4.009,4.1056,4.1495,4.1556,4.1637,4.1484,4.1525,4.1447,4.1463,4.1525,4.1655,4.1596,4.1618,4.1577,4.1663,4.1717,4.1762,4.1777,4.1871,4.1898,4.2018,4.2015,4.2079,4.2142,4.2291,4.2371,4.2422,4.2479,4.2561,4.2683,4.2801,4.2905,4.2982,4.3072,4.322,4.3431,4.3654,4.3797,4.3896,4.4075,4.4303,4.4508,4.471,4.4928,4.5092,4.5198,4.5431,4.5641,4.5719,4.5896,4.6058,4.6275,4.6346,4.6369,4.6274,4.6127,4.5831,4.546,4.4947,4.4492,4.4065,4.3668,4.3269,4.2885,4.2552,4.2462,4.2211,4.2051,4.1858,4.1689,4.1559,4.1512,4.1488,4.1368,4.1357,4.1332,4.1296,4.1329,4.1277,4.1251,4.125,4.1281,4.1265,4.1283,4.1235,4.123,4.1228,4.1298,4.1311,4.1343,4.1334,4.1359,4.1383,4.133,4.1335,4.1311,4.132,4.139,4.1429,4.1406,4.1343,4.1384,4.1443,4.1483,4.1439,4.1429,4.1337,4.1341,4.1367,4.1309,4.1316,4.128,4.136,4.1345,4.1297,4.1274,4.1265,4.1305,4.1269,4.1246,4.121,4.1219,4.1256,4.1257,4.121,4.1165,4.1207,4.1197,4.1282,4.1201,4.1174,4.1156,4.1292,4.1417,4.138,4.1359,4.1289,4.1213,4.1415,4.1833,4.2139,4.2042,4.1942,4.1857,4.1776,4.1633,4.1541,4.1442,4.1293,4.1293,4.1194,4.1208,4.1145,4.1138,4.1149,4.113,4.1041,4.1037,4.1041,4.1092,4.107,4.1059,4.1048,4.1056,4.106,4.108,4.1049,4.1015,4.1045,4.0882,3.9952,3.8883,3.9127,4.1234,4.4307,4.6771,4.9923,4.9979,4.5035,4.1158,4.0055,3.9149,3.9592,4.0246,4.1152,4.1665,4.1677,4.1745,4.1628,4.1701,4.1642,4.1685,4.1575,4.1713,4.167,4.1743,4.1762,4.1818,4.1843,4.1906,4.1909,4.1979,4.1954,4.2036,4.2119,4.2226,4.2229,4.2304,4.2337,4.2461,4.2557,4.263,4.271,4.281,4.2963,4.3094,4.3206,4.3356,4.3466,4.3578,4.3756,4.3874,4.4076,4.4279,4.4487,4.4778,4.4978,4.5224,4.5412,4.5613,4.5827,4.5959,4.611,4.6235,4.6343,4.6445,4.6401,4.6214,4.6079,4.5743,4.5384,4.4969,4.4478,4.3983,4.3571,4.3209,4.2883,4.2505,4.2231,4.2016,4.1895,4.1763,4.1618,4.1494,4.1413,4.1425,4.1382,4.1338,4.1318,4.1283,4.1263,4.1267,4.1229,4.1184,4.1151,4.1171,4.1266,4.1228,4.1213,4.1166,4.1197,4.1212,4.1224,4.1183,4.1196,4.122,4.1268,4.1268,4.125,4.1237,4.124,4.1247,4.1289,4.126,4.1274,4.1274,4.1306,4.1305,4.1288,4.122,4.1232,4.1285,4.1235,4.1206,4.1194,4.1202,4.1235,4.1223,4.1223,4.1202,4.1134,4.1195,4.1241,4.1174,4.1165,4.1156,4.1162,4.1165,4.117,4.1172,4.1133,4.1152,4.1181,4.1161,4.1137,4.1153,4.1201,4.1303,4.134,4.131,4.1202,4.1122,4.1284,4.1677,4.2028,4.1922,4.1832,4.1724,4.1625,4.1537,4.1486,4.1362,4.1224,4.1227,4.113,4.1146,4.1093,4.114,4.1114,4.1119,4.1072,4.1031,4.1015,4.1004,4.0986,4.0955,4.0937,4.1009,4.1007,4.0996,4.0978,4.0995,4.1021,4.07,4.0217,3.9,3.8737,4.0385,4.325,4.5929,4.8954,5.0889,4.712,4.2528,4.04,3.9849,4.0368,4.0607,4.1535,4.18,4.172,4.1678,4.1594,4.1655,4.1587,4.162,4.1553,4.1615,4.1618,4.1688,4.1649,4.168,4.1714,4.1814,4.1806,4.1851,4.1872,4.1958,4.2017,4.209,4.2114,4.2176,4.2244,4.2321,4.2412,4.2517,4.256,4.2651,4.2754,4.2943,4.2989,4.3139,4.3272,4.346,4.3643,4.3808,4.3954,4.4253,4.4568,4.4822,4.5041,4.5193,4.5276,4.5504,4.5721,4.5872,4.6037,4.6172,4.6292,4.6375,4.6389,4.6233,4.6067,4.5716,4.5332,4.4886,4.4383,4.3931,4.3457,4.3084,4.2933,4.2434,4.2414,4.2114,4.1903,4.1771,4.1624,4.1517,4.1393,4.1416,4.1365,4.131,4.1231,4.1246,4.1202,4.1238,4.1132,4.1133,4.108,4.112,4.1121,4.1119,4.1059,4.1013,4.1059,4.1069,4.1033,4.1035,4.1001,4.105,4.1066,4.1036,4.1015,4.0996,4.1037,4.1077,4.1022,4.1013,4.1029,4.0987,4.1034,4.105,4.1036,4.0988,4.0973,4.096,4.1003,4.0906,4.0944,4.0912,4.0932,4.0934,4.0898,4.0857,4.0887,4.0874,4.0883,4.0846,4.0803,4.0817,4.0855,4.0842,4.0864,4.0824,4.0811,4.0823,4.0863,4.0812,4.0794,4.0785,4.0777,4.0787,4.0773,4.0786,4.0751,4.0801,4.0969,4.0952,4.0924,4.0886,4.0812,4.0779,4.0963,4.14,4.1679,4.1579,4.1474,4.135,4.125,4.1156,4.1051,4.0964,4.0847,4.08,4.0727,4.071,4.0709,4.072,4.069,4.0644,4.0613,4.0632,4.0644,4.0579,4.0556,4.0555,4.0599,4.0607,4.0577,4.0547,4.0524,4.056,4.0523,4.0054,3.8781,3.8206,3.9335,4.0615,4.3471,4.5975,4.9166,4.9827,4.5145,4.1443,3.9627,3.942,3.9848,4.0394,4.1101,4.1302,4.1158,4.1123,4.1053,4.1106,4.1017,4.1017,4.0978,4.1104,4.1098,4.1142,4.1069,4.1174,4.1235,4.1313,4.1287,4.1339,4.1374,4.1451,4.1539,4.1565,4.1576,4.1676,4.1772,4.1896,4.1906,4.1984,4.2004,4.2135,4.224,4.2393,4.2458,4.2539,4.2767,4.2967,4.3118,4.3226,4.3409,4.3658,4.3894,4.4083,4.4228,4.4453,4.4675,4.4879,4.5101,4.5177,4.5312,4.5484,4.5653,4.5739,4.5717,4.5575,4.5386,4.5094,4.4696,4.4196,4.3725,4.3277,4.2865,4.2488,4.2125,4.1772,4.1552,4.1375,4.1298,4.1111,4.0967,4.0849,4.0788,4.0759,4.0721,4.0613,4.0571,4.0577,4.06,4.055,4.0524,4.0515,4.0526,4.0533,4.0535,4.0492,4.0467,4.0475,4.0531,4.052,4.0485,4.0509,4.0513,4.0495,4.0521,4.0497,4.0504,4.0497,4.0551,4.0549,4.0516,4.049,4.0513,4.0525,4.0542,4.0482,4.053,4.0515,4.0524,4.0549,4.0492,4.0457,4.0485,4.0463,4.0489,4.0478,4.0469,4.0436,4.0469,4.0462,4.0417,4.0383,4.0374,4.0408,4.0437,4.0375,4.0359,4.0342,4.0361,4.0356,4.0373,4.0356,4.0321,4.034,4.0409,4.0383,4.0379,4.0353,4.0341,4.0403,4.0385,4.0342,4.0322,4.0415,4.0529,4.0553,4.053,4.0488,4.0372,4.0384,4.0665,4.11,4.1296,4.1216,4.1073,4.0956,4.0853,4.07,4.0657,4.059,4.0436,4.0448,4.0354,4.032,4.0346,4.0299,4.0269,4.0219,4.0226,4.0265,4.0252,4.0246,4.0196,4.0163,4.0199,4.0232,4.0211,4.0179,4.0203,4.0218,4.0186,3.9523,3.829,3.7894,3.8358,4.0607,4.3604,4.5943,4.9311,4.876,4.3663,4.0332,3.8823,3.8811,3.9368,4.0097,4.0742,4.0853,4.0759,4.0669,4.0614,4.0585,4.0584,4.0567,4.0573,4.0688,4.0767,4.0739,4.0689,4.0697,4.0791,4.0853,4.0895,4.0889,4.0934,4.0992,4.1101,4.1129,4.1142,4.1267,4.1328,4.1385,4.1504,4.1537,4.1601,4.1734,4.1876,4.1998,4.2102,4.2222,4.239,4.258,4.2762,4.2889,4.3075,4.33,4.3571,4.3711,4.3894,4.4066,4.4308,4.4561,4.4677,4.4848,4.4981,4.5169,4.5302,4.5442,4.5425,4.528,4.5055,4.4727,4.4361,4.3873,4.3388,4.2957,4.2532,4.22,4.1873,4.1499,4.1232,4.1109,4.0978,4.0803,4.0651,4.0586,4.0509,4.0457,4.0428,4.0376,4.032,4.0347,4.0328,4.0293,4.0246,4.0254,4.0303,4.0297,4.0286,4.0219,4.0236,4.0233,4.0233,4.0303,4.0258,4.0255,4.0233,4.0301,4.0291,4.0296,4.0285,4.0252,4.034,4.029,4.0261,4.0241,4.0309,4.0326,4.0338,4.0281,4.028,4.024,4.0258,4.028,4.0242,4.0178,4.0167,4.021,4.0234,4.0267,4.0168,4.009,4.0139,4.0119,4.0098,4.0127,4.0094,4.0119,4.0104,4.0109,4.0064,4.0066,4.0089,4.0138,4.0089,4.0045,3.9981,4.0017,4.0004,4.0081,4.0011,4.0021,4.007,4.0043,4.0078,4.0054,4.0102,4.0119,4.0183,4.0183,4.0078,3.9961,4.0138,4.0599,4.0967,4.0841,4.0647,4.0589,4.0449,4.0406,4.0316,4.0135,4.005,3.9999,3.9917,3.9892,3.9904,3.9893,3.9871,3.9846,3.9793,3.9725,3.9732,3.9742,3.9809,3.9808,3.9737,3.9706,3.964,3.9761,3.9778,3.9738,3.9688,3.9154,3.7952,3.744,3.8488,3.9774,4.2854,4.5493,4.8566,4.8623,4.34,3.9227,3.7524,3.7407,3.8218,3.9081,3.9867,4.0294,4.0324,4.03,4.0153,4.0143,4.0084,4.0148,4.0087,4.0126,4.0115,4.0238,4.0213,4.0307,4.0247,4.0314,4.0385,4.0495,4.0489,4.0546,4.0552,4.0637,4.0702,4.0788,4.0832,4.0908,4.0998,4.1136,4.1189,4.1279,4.1307,4.1421,4.1588,4.1731,4.185,4.2019,4.2196,4.2409,4.2558,4.2694,4.29,4.3188,4.3447,4.3657,4.3773,4.3906,4.417,4.4257,4.4515,4.4596,4.4738,4.4819,4.4819,4.4694,4.4494,4.4154,4.38,4.3366,4.2951,4.2456,4.1982,4.1551,4.1227,4.0964,4.0718,4.0471,4.0364,4.0166,4.0127,4.0021,3.993,3.9858,3.9866,3.9822,3.9776,3.9756,3.972,3.9676,3.9724,3.9667,3.9656,3.963,3.9619,3.9654,3.9674,3.9652,3.9666,3.9661,3.9685,3.9744,3.9742,3.9753,3.9732,3.9762,3.98,3.9771,3.9771,3.9801,3.9858,3.9905,3.9864,3.98,3.9831,3.9858,3.9859,3.9848,3.9802,3.9785,3.9741,3.9792,3.9802,3.9803,3.9773,3.9768,3.9708,3.9752,3.9748,3.9712,3.9745,3.9769,3.9778,3.9739,3.9725,3.9766,3.9788,3.9777,3.9747,3.9714,3.9764,3.9842,3.9874,3.989,3.9888,3.9779,3.9753,3.9899,4.0181,4.0591,4.058,4.0475,4.0382,4.0254,4.0191,4.0072,4.006,3.9894,3.9828,3.9769,3.9733,3.9736,3.978,3.9714,3.9674,3.9677,3.9655,3.9653,3.9612,3.9604,3.9593,3.9647,3.9718,3.9679,3.9618,3.9612,3.9617,3.966,3.9603,3.8907,3.7653,3.7411,3.8956,4.1807,4.4512,4.7518,4.9593,4.6017,4.1053,3.889,3.8245,3.8818,3.9154,4.0091,4.0296,4.0397,4.0414,4.0259,4.0333,4.0258,4.0255,4.0253,4.0327,4.0366,4.0392,4.0357,4.0396,4.0483,4.0553,4.0585,4.0587,4.0618,4.0753,4.0761,4.0791,4.0847,4.0908,4.0967,4.1111,4.1176,4.1231,4.1303,4.1444,4.1564,4.1702,4.1776,4.1925,4.2084,4.2235,4.2429,4.2597,4.2736,4.2985,4.3097,4.3325,4.3514,4.3657,4.3888,4.4109,4.4356,4.4542,4.4695,4.4839,4.5045,4.5127,4.505,4.4955,4.4746,4.4451,4.4063,4.3591,4.31,4.2883,4.2495,4.2113,4.1776,4.1365,4.1145,4.0908,4.0762,4.0591,4.0468,4.0342,4.033,4.0265,4.0243,4.0142,4.016,4.0146,4.0138,4.0108,4.0069,4.0078,4.0094,4.0048,4.0135,4.008,4.0043,4.0085,4.0089,4.0102,4.0059,4.0062,4.0082,4.0154,4.0153,4.0124,4.01,4.0097,4.0161,4.019,4.0173,4.0152,4.0127,4.0196,4.0235,4.0223,4.0184,4.0203,4.018,4.023,4.0232,4.0181,4.0159,4.0187,4.0211,4.0235,4.0169,4.015,4.0236,4.0239,4.0226,4.0167,4.0133,4.0155,4.021,4.0219,4.0162,4.0153,4.0161,4.0197,4.0174,4.015,4.0128,4.0135,4.0199,4.0198,4.014,4.0199,4.026,4.033,4.0398,4.0318,4.0205,4.0172,4.042,4.0896,4.1131,4.0965,4.0787,4.0747,4.07,4.0587,4.0474,4.0357,4.0255,4.0244,4.0204,4.0098,4.0114,4.0144,4.0134,4.0079,4.0049,4.0032,4.0046,4.0058,4.0087,4.0028,4.0026,4.0039,4.01,4.0128,4.0084,4.0069,4.0031,3.9423,3.8143,3.7766,3.8283,4.0485,4.3577,4.6071,4.9572,4.8976,4.3956,4.0761,3.9484,3.9516,3.9821,4.0406,4.096,4.1153,4.1047,4.0865,4.0811,4.0835,4.0838,4.0788,4.0778,4.0747,4.0794,4.0825,4.0874,4.0835,4.0887,4.093,4.097,4.0997,4.1082,4.1063,4.1156,4.1217,4.1274,4.1301,4.1386,4.1413,4.1499,4.1608,4.1667,4.1768,4.19,4.2021,4.2147,4.2241,4.2358,4.2532,4.2748,4.2897,4.3066,4.3289,4.3442,4.3691,4.3895,4.4086,4.4297,4.4383,4.4618,4.4865,4.5017,4.5142,4.5223,4.536,4.5355,4.5249,4.4991,4.4593,4.418,4.3752,4.3274,4.2794,4.236,4.2026,4.1721,4.1407,4.1264,4.1062,4.0938,4.081,4.0698,4.0615,4.046,4.044,4.0389,4.036,4.0298,4.0302,4.0261,4.0304,4.0255,4.0249,4.0188,4.0239,4.0268,4.0268,4.0196,4.0165,4.0175,4.0201,4.0214,4.0208,4.0149,4.0174,4.0207,4.0237,4.0212,4.0201,4.0179,4.023,4.0235,4.0196,4.0161,4.0159,4.0198,4.021,4.0199,4.0166,4.015,4.0166,4.0161,4.0178,4.0132,4.0091,4.0107,4.0144,4.0149,4.0128,4.0071,4.0087,4.0138,4.011,4.0059,4.0034,4.0043,4.0062,4.0113,4.0068,4.0039,4.0042,4.0067,4.0045,4.0008,3.999,4.0034,4.0042,4.0041,4.0014,4.0027,4.0117,4.018,4.0194,4.0142,4.006,3.9975,4.0039,4.0474,4.0869,4.086,4.0705,4.0601,4.0541,4.0461,4.0333,4.0247,4.008,4.0086,3.9992,3.9949,3.9887,3.992,3.989,3.9858,3.9851,3.9858,3.9788,3.976,3.9818,3.9771,3.9746,3.9767,3.9804,3.9853,3.9777,3.9754,3.9737,3.9559,3.8552,3.7545,3.7907,4.014,4.3232,4.4496,4.7248,4.9814,4.6552,4.1577,3.9222,3.8657,3.9035,3.9224,4.0161,4.0535,4.0452,4.0442,4.0232,4.0299,4.0221,4.0333,4.0246,4.0307,4.0257,4.0381,4.0313,4.0381,4.0365,4.0474,4.054,4.0593,4.0585,4.0634,4.0662,4.085,4.0875,4.0948,4.0977,4.1098,4.1189,4.1288,4.1336,4.1368,4.1467,4.1616,4.1756,4.1911,4.203,4.219,4.2401,4.26,4.2745,4.2931,4.3128,4.3389,4.3598,4.3785,4.3986,4.419,4.4425,4.4631,4.4858,4.4911,4.5063,4.5135,4.5155,4.5072,4.4867,4.4537,4.4217,4.3751,4.3287,4.2817,4.2337,4.1936,4.1585,4.1267,4.0971,4.0693,4.0572,4.0436,4.0348,4.0223,4.0096,4.0052,4.0013,3.9976,3.9975,3.989,3.9894,3.9885,3.9906,3.9848,3.9818,3.981,3.9873,3.9829,3.9787,3.9741,3.9765,3.975,3.9765,3.971,3.9728,3.9739,3.977,3.9785,3.9788,3.9753,3.9769,3.9767,3.9796,3.9718,3.9714,3.9713,3.9746,3.979,3.9784,3.9749,3.9707,3.9715,3.9742,3.969,3.9706,3.965,3.9664,3.9682,3.9687,3.9629,3.9621,3.9559,3.9584,3.9591,3.9571,3.9518,3.9532,3.9585,3.9582,3.9551,3.9563,3.9529,3.9552,3.9576,3.9524,3.9504,3.9493,3.947,3.9549,3.9541,3.9504,3.9496,3.9561,3.9569,3.9549,3.9607,3.96,3.9634,3.9578,3.9586,3.9492,3.9578,3.9879,4.0414,4.0472,4.0266,4.0078,3.9946,3.9918,3.9839,3.9684,3.9579,3.9534,3.953,3.9488,3.9391,3.9316,3.9329,3.9338,3.9322,3.9257,3.9236,3.9207,3.9267,3.9291,3.9238,3.9196,3.9123,3.9147,3.9127,3.9069,3.9054,3.8836,3.7936,3.6973,3.7293,3.9458,4.2599,4.3904,4.6701,4.9142,4.5784,4.0345,3.7858,3.7044,3.7611,3.8273,3.9045,3.9648,3.971,3.9811,3.9591,3.9567,3.9483,3.9585,3.9483,3.9569,3.9489,3.9612,3.9641,3.9696,3.9597,3.9719,3.9745,3.9869,3.9884,3.9933,3.9928,3.999,4.0071,4.0182,4.0229,4.0295,4.038,4.0525,4.0623,4.0693,4.069,4.0803,4.0951,4.1077,4.1239,4.1281,4.146,4.1708,4.197,4.2141,4.2306,4.2442,4.2711,4.2946,4.3174,4.3368,4.3518,4.3677,4.3856,4.3914,4.4053,4.4133,4.4254,4.4176,4.4026,4.3752,4.3328,4.2892,4.2436,4.1965,4.15,4.1087,4.0732,4.044,4.0127,3.9831,3.9595,3.9467,3.9428,3.9352,3.9268,3.9154,3.9113,3.9079,3.9109,3.903,3.8945,3.8895,3.8884,3.8906,3.8864,3.8829,3.8848,3.8881,3.8865,3.8852,3.8826,3.8833,3.8796,3.8831,3.8892,3.8881,3.8911,3.8906,3.8967,3.8976,3.892,3.8951,3.896,3.9007,3.9016,3.8937,3.8953,3.8988,3.9025,3.8985,3.8933,3.8896,3.8904,3.8932,3.8946,3.8882,3.8887,3.8864,3.8885,3.8868,3.8852,3.8803,3.882,3.8866,3.8867,3.8811,3.8786,3.8787,3.8866,3.8821,3.8844,3.8814,3.8814,3.884,3.8802,3.8819,3.8771,3.8774,3.8785,3.8814,3.8881,3.8933,3.8963,3.9006,3.8958,3.8866,3.8962,3.9284,3.9736,3.9813,3.9685,3.9533,3.9367,3.9323,3.9278,3.9219,3.8981,3.8893,3.8824,3.8819,3.8792,3.8809,3.8791,3.8795,3.8821,3.8865,3.8806,3.8771,3.8717,3.876,3.8789,3.8808,3.8739,3.8725,3.8748,3.8797,3.8752,3.8684,3.8197,3.7017,3.6493,3.7597,4.0249,4.3189,4.6034,4.8977,4.6436,4.0925,3.9442,3.7794,3.7473,3.813,3.85,3.9347,3.9543,3.9622,3.9518,3.9451,3.94,3.9441,3.9463,3.9523,3.9443,3.9509,3.9526,3.9639,3.962,3.9661,3.9646,3.9741,3.9782,3.9852,3.9864,3.9932,3.9989,4.0111,4.0172,4.0257,4.0301,4.0389,4.0516,4.0667,4.0742,4.0823,4.0974,4.1148,4.1199,4.1378,4.151,4.1689,4.1872,4.2118,4.2317,4.2504,4.2699,4.2977,4.3225,4.3425,4.361,4.3826,4.4057,4.4254,4.4434,4.4528,4.4566,4.45,4.449,4.4257,4.391,4.3484,4.3072,4.2636,4.2214,4.1764,4.1343,4.1004,4.0804,4.0529,4.036,4.0139,4.0059,4.0015,3.9928,3.9871,3.9819,3.9786,3.9814,3.9802,3.9746,3.9723,3.9719,3.9713,3.9751,3.97,3.9685,3.9662,3.965,3.9712,3.973,3.9678,3.9675,3.9703,3.9788,3.9781,3.9756,3.9724,3.9763,3.9785,3.9837,3.9805,3.9768,3.9806,3.9845,3.9848,3.9837,3.9801,3.9816,3.9859,3.9843,3.9809,3.977,3.9783,3.9821,3.9823,3.9809,3.9791,3.9762,3.9799,3.9835,3.9784,3.9774,3.9753,3.9799,3.9797,3.9785,3.9768,3.9765,3.9788,3.9802,3.9794,3.9756,3.9763,3.9788,3.9798,3.9818,3.9854,3.9883,3.9913,3.9953,3.9821,3.9738,3.9944,4.0396,4.0727,4.058,4.0419,4.0299,4.0265,4.0225,4.0097,3.9955,3.9801,3.9794,3.98,3.9765,3.9721,3.9684,3.9672,3.9697,3.9717,3.9671,3.9606,3.9608,3.9639,3.9656,3.9659,3.9631,3.9664,3.9686,3.9708,3.9646,3.9595,3.9434,3.845,3.7446,3.7722,3.9771,4.2791,4.538,4.8886,4.911,4.437,4.0739,3.9109,3.9,3.9328,3.9706,4.042,4.0564,4.0494,4.0392,4.0323,4.0282,4.0287,4.0329,4.0344,4.034,4.0343,4.0404,4.0448,4.0479,4.0509,4.0539,4.0586,4.069,4.0697,4.0773,4.0827,4.0912,4.1003,4.1001,4.1099,4.1177,4.1244,4.1365,4.1519,4.1628,4.17,4.1817,4.1938,4.2129,4.2269,4.2389,4.2577,4.2793,4.2999,4.3232,4.3442,4.364,4.3785,4.4028,4.4284,4.4447,4.4729,4.4944,4.5175,4.5314,4.5436,4.551,4.5497,4.5443,4.5216,4.481,4.4388,4.3899,4.3467,4.3015,4.2504,4.2099,4.1924,4.1654,4.1402,4.1158,4.0951,4.0808,4.072,4.0639,4.0555,4.0469,4.0455,4.0456,4.0458,4.0444,4.04,4.039,4.0358,4.039,4.0328,4.0314,4.0296,4.0339,4.0369,4.0384,4.0303,4.029,4.0308,4.0338,4.0356,4.0353,4.0381,4.0348,4.0385,4.0371,4.0328,4.0312,4.0404,4.0434,4.0427,4.04,4.0326,4.0336,4.0362,4.0406,4.0395,4.036,4.0367,4.0374,4.0413,4.0413,4.0354,4.0361,4.0373,4.0359,4.0262,4.0271,4.0294,4.0342,4.0379,4.0337,4.0396,4.0345,4.0361,4.0377,4.0383,4.0375,4.0364,4.0369,4.0395,4.0327,4.0331,4.0286,4.0446,4.0529,4.0549,4.046,4.042,4.0394,4.0388,4.0664,4.1023,4.1255,4.112,4.0972,4.0956,4.0782,4.0689,4.0622,4.0442,4.037,4.0315,4.0325,4.0312,4.0287,4.0269,4.0207,4.0177,4.0165,4.018,4.0202,4.0194,4.0123,4.0114,4.0171,4.0179,4.0158,4.0114,4.0028,4.0091,4.0056,3.9325,3.8147,3.7947,3.9556,4.2502,4.5112,4.6519,4.981,4.87,4.3221,4.0021,3.8561,3.873,3.9311,4.0055,4.0629,4.0735,4.0696,4.0688,4.0683,4.0715,4.0677,4.0666,4.063,4.0661,4.068,4.0701,4.0767,4.0817,4.0829,4.0929,4.0919,4.0969,4.1004,4.1158,4.1197,4.1255,4.1312,4.1393,4.1512,4.1549,4.1638,4.168,4.1783,4.185,4.2019,4.2133,4.2239,4.2394,4.2584,4.2751,4.295,4.309,4.3261,4.3426,4.3724,4.3955,4.4172,4.4372,4.4651,4.4891,4.5063,4.527,4.5341,4.5463,4.566,4.5697,4.5617,4.541,4.5138,4.4809,4.4391,4.39,4.3408,4.2937,4.2523,4.2122,4.1732,4.1476,4.1231,4.1056,4.0879,4.0675,4.0609,4.0498,4.0466,4.0438,4.0411,4.035,4.0221,4.0256,4.0266,4.0301,4.0231,4.0121,4.0212,4.0264,4.0136,4.0053,4.0101,4.0135,4.0113,4.013,4.0132,4.0075,4.0159,4.018,4.0164,4.0187,4.01,4.0156,4.0219,4.0221,4.0225,4.0192,4.0139,4.0246,4.0255,4.0249,4.0244,4.0181,4.0231,4.0217,4.0174,4.0116,4.0098,4.0076,4.0187,4.0195,4.0195,4.0105,4.0112,4.012,4.0044,4.0006,4.0066,4.0138,4.0182,4.0146,4.007,4.004,4.003,4.0053,4.0079,4.0146,4.015,4.0162,4.0095,4.013,3.9992,4.0125,4.0375,4.0818,4.0893,4.068,4.0583,4.0473,4.0509,4.0343,4.0103,4.0008,4.0021,3.9987,4.0047,3.9992,3.9934,3.9901,3.9954,3.9892,3.9847,3.9812,3.9843,3.9872,3.9873,3.9875,3.9862,3.9883,3.9892,3.9874,3.9853,3.9796,3.9722,3.9084,3.7868,3.7642,3.9082,4.2031,4.4848,4.7833,4.9589,4.562,4.0327,3.8267,3.7624,3.8285,3.9056,3.9845,4.0403,4.0497,4.0533,4.0455,4.0446,4.038,4.0385,4.0384,4.0416,4.0408,4.0445,4.0511,4.0552,4.0554,4.0648,4.067,4.072,4.075,4.0775,4.0866,4.0939,4.0997,4.1071,4.1137,4.116,4.12,4.1288,4.1429,4.1548,4.1612,4.1754,4.19,4.2071,4.2206,4.2286,4.2478,4.2666,4.2927,4.3099,4.3299,4.3425,4.3601,4.3911,4.4066,4.4251,4.4424,4.4673,4.4838,4.5021,4.5086,4.5221,4.5276,4.5242,4.4937,4.4554,4.4141,4.3668,4.3269,4.28,4.2529,4.2062,4.1661,4.1345,4.1116,4.0874,4.0693,4.0571,4.0479,4.0377,4.0249,4.0158,4.0103,4.0102,4.0101,4.0089,4.0124,4.0087,4.0057,4.0064,4.0032,4.001,3.9951,3.9975,3.999,4.0039,4.004,4.0026,4.0089,4.0106,4.0086,4.0067,4.0087,4.0108,4.015,4.0166,4.0154,4.0121,4.0177,4.0187,4.0175,4.0182,4.0169,4.019,4.0258,4.0222,4.0184,4.0185,4.0198,4.0165,4.0114,4.0058,4.0036,4.0036,4.0062,4.0069,4.0038,4.0021,4.0024,4.0018,4.0145,4.0167,4.0167,4.011,4.0105,4.0105,4.0123,4.038,4.0775,4.0846,4.0719,4.0616,4.046,4.0367,4.0271,4.0179,3.9997,3.9974,3.9936,3.9911,3.9958,3.9922,3.9821,3.9834,3.9796,3.9841,3.9788,3.9769,3.9792,3.9786,3.98,3.9802,3.9728,3.9717,3.975,3.9783,3.9758,3.9684,3.9081,3.7892,3.74,3.8609,4.1216,4.4184,4.7146,5.0001,4.7279,4.1896,3.9459,3.8591,3.8976,3.9181,3.9985,4.0301,4.0379,4.036,4.0316,4.0299,4.0192,4.0185,4.015,4.0242,4.0235,4.0216,4.0219,4.0271,4.0331,4.038,4.0335,4.0411,4.044,4.0496,4.0583,4.0608,4.0651,4.0746,4.0807,4.0858,4.0895,4.0971,4.1088,4.122,4.1306,4.1425,4.1513,4.163,4.1762,4.1999,4.2116,4.2272,4.2496,4.2733,4.2944,4.3141,4.3351,4.3439,4.3679,4.3954,4.4151,4.4289,4.4518,4.4701,4.4847,4.4912,4.4889,4.4727,4.4498,4.4211,4.3706,4.3233,4.2709,4.2288,4.1876,4.1486,4.1289,4.0969,4.0674,4.0508,4.0308,4.0165,4.0012,3.9962,3.9929,3.9906,3.9802,3.9776,3.9756,3.9781,3.9745,3.9688,3.9652,3.9661,3.9724,3.9725,3.9676,3.9672,3.9663,3.9644,3.9699,3.9627,3.9619,3.9609,3.9629,3.9663,3.9598,3.9625,3.9606,3.9636,3.9668,3.9623,3.9615,3.9618,3.9645,3.9645,3.9679,3.964,3.9615,3.9636,3.965,3.9691,3.9661,3.9621,3.9627,3.9637,3.9633,3.957,3.9587,3.9541,3.9589,3.9574,3.9544,3.9526,3.9544,3.9551,3.959,3.9566,3.9498,3.9485,3.9555,3.9572,3.9585,3.9615,3.9641,3.9684,3.9666,3.9573,3.949,3.9747,4.0186,4.0417,4.0267,4.0204,4.0059,3.9986,3.9962,3.9882,3.9752,3.9557,3.9551,3.9544,3.9471,3.9422,3.9383,3.9354,3.9402,3.9363,3.9345,3.9294,3.9331,3.9339,3.934,3.9332,3.9327,3.9344,3.9374,3.9379,3.9335,3.9302,3.9092,3.8094,3.7115,3.7449,3.9562,4.2631,4.5202,4.8716,4.8553,4.3718,4.0403,3.9011,3.8779,3.9001,3.8995,3.9833,4.0096,4.0104,4.003,3.9846,3.9879,3.9815,3.9906,3.987,3.9876,3.9863,3.9939,3.9949,4.0035,3.9975,4.0051,4.0039,4.0149,4.019,4.0217,4.0183,4.0267,4.0341,4.0424,4.0442,4.05,4.0583,4.0715,4.0804,4.0863,4.0953,4.1084,4.1212,4.1367,4.1455,4.1603,4.1721,4.191,4.2133,4.2328,4.2527,4.2689,4.298,4.3224,4.3399,4.3617,4.3829,4.4057,4.4272,4.4398,4.4464,4.4518,4.4514,4.4396,4.4121,4.39,4.349,4.3007,4.2591,4.2106,4.167,4.1197,4.0869,4.0597,4.0314,4.007,3.9917,3.9736,3.9705,3.9586,3.9479,3.943,3.9424,3.941,3.9393,3.9335,3.9348,3.9337,3.9358,3.9351,3.934,3.9271,3.9302,3.9323,3.9352,3.9299,3.929,3.9309,3.9316,3.9297,3.928,3.9257,3.9248,3.9243,3.9277,3.928,3.9242,3.9259,3.9258,3.9275,3.9211,3.9209,3.9202,3.9208,3.9291,3.9219,3.9211,3.9194,3.9208,3.9228,3.9197,3.9141,3.9112,3.9119,3.9159,3.9125,3.9108,3.9087,3.9071,3.91,3.9075,3.9025,3.9023,3.904,3.9063,3.9034,3.9032,3.8961,3.9,3.9023,3.902,3.8988,3.8968,3.8938,3.8937,3.8966,3.8924,3.8927,3.8922,3.8958,3.8995,3.908,3.9102,3.9057,3.9069,3.8977,3.8935,3.913,3.9567,3.9806,3.9707,3.964,3.945,3.9355,3.9273,3.9205,3.9115,3.8879,3.8825,3.8794,3.8804,3.8761,3.8666,3.8664,3.8699,3.8678,3.8637,3.8618,3.8625,3.8613,3.8641,3.8633,3.8643,3.8598,3.8588,3.8585,3.8576,3.8552,3.8278,3.7328,3.6325,3.6671,3.8706,4.1724,4.4152,4.7626,4.7727,4.2934,3.9487,3.8022,3.7773,3.813,3.8143,3.9057,3.9296,3.9303,3.9231,3.9068,3.9063,3.8996,3.9024,3.9083,3.9123,3.908,3.9121,3.9114,3.9227,3.9202,3.924,3.9232,3.9346,3.9414,3.9474,3.9478,3.954,3.9556,3.9691,3.9743,3.9823,3.9872,3.995,4.0076,4.015,4.0232,4.037,4.0494,4.069,4.0809,4.0959,4.1002,4.1128,4.135,4.1578,4.1785,4.1967,4.22,4.244,4.2686,4.2848,4.2996,4.317,4.3435,4.3601,4.3742,4.3836,4.3822,4.3758,4.3544,4.342,4.3008,4.2535,4.2129,4.1695,4.123,4.0772,4.0366,4.0012,4.0012,3.9655,3.9372,3.9192,3.8965,3.893,3.8801,3.8683,3.8612,3.863,3.8638,3.8607,3.8584,3.8535,3.8548,3.8544
