-21.162,-21.166,-21.161,-21.167,-21.165,-21.157,-21.148,-21.152,-21.146,-21.149,-21.148,-21.154,-21.147,-21.143,-21.14,-21.142,-21.14,-21.137,-21.126,-21.145,-21.145,-21.14,-21.133,-21.14,-21.141,-21.143,-21.138,-21.134,-21.135,-21.152,-21.142,-21.13,-21.111,-21.107,-21.12,-21.117,-21.094,-21.085,-21.08,-21.077,-21.05,-21.037,-21.037,-21.044,-21.06,-21.071,-21.069,-21.068,-21.091,-21.106,-21.12,-21.148,-21.15,-21.159,-21.179,-21.184,-21.179,-21.188,-21.18,-21.181,-21.188,-21.18,-21.175,-21.175,-21.186,-21.197,-21.2,-21.179,-21.164,-21.128,-21.043,-20.887,-20.686,-20.541,-20.539,-20.832,-21.261,-21.528,-21.607,-21.612,-21.603,-21.56,-21.511,-21.442,-21.345,-21.242,-21.181,-21.139,-21.124,-21.12,-21.123,-21.113,-21.102,-21.088,-21.088,-21.079,-21.085,-21.077,-21.069,-21.063,-21.062,-21.05,-21.041,-21.031,-21.029,-21.023,-21.012,-20.988,-20.987,-20.975,-20.959,-20.946,-20.936,-20.917,-20.906,-20.891,-20.865,-20.858,-20.859,-20.82,-20.806,-20.789,-20.775,-20.764,-20.751,-20.749,-20.761,-20.755,-20.76,-20.77,-20.786,-20.812,-20.844,-20.863,-20.882,-20.919,-20.946,-20.981,-20.984,-21.006,-21.026,-21.047,-21.057,-21.06,-21.059,-21.072,-21.09,-21.091,-21.092,-21.088,-21.089,-21.1,-21.099,-21.101,-21.098,-21.1,-21.091,-21.096,-21.094,-21.093,-21.098,-21.091,-21.092,-21.086,-21.082,-21.081,-21.083,-21.089,-21.085,-21.076,-21.08,-21.078,-21.084,-21.078,-21.072,-21.066,-21.081,-21.088,-21.079,-21.064,-21.068,-21.073,-21.079,-21.083,-21.08,-21.071,-21.078,-21.092,-21.089,-21.084,-21.079,-21.078,-21.077,-21.072,-21.051,-21.039,-21.027,-21.026,-21.025,-21.017,-20.987,-20.988,-20.996,-20.99,-20.993,-21.007,-21.011,-21.014,-21.034,-21.04,-21.052,-21.08,-21.097,-21.113,-21.119,-21.112,-21.113,-21.127,-21.129,-21.129,-21.122,-21.124,-21.125,-21.128,-21.13,-21.134,-21.142,-21.13,-21.118,-21.081,-20.993,-20.83,-20.715,-20.513,-20.396,-20.566,-21.026,-21.385,-21.559,-21.61,-21.59,-21.546,-21.482,-21.396,-21.262,-21.175,-21.111,-21.094,-21.067,-21.08,-21.058,-21.062,-21.051,-21.058,-21.047,-21.035,-21.025,-21.024,-21.014,-21.022,-21.003,-20.997,-20.983,-20.988,-20.98,-20.971,-20.951,-20.949,-20.933,-20.928,-20.912,-20.897,-20.881,-20.869,-20.857,-20.842,-20.821,-20.801,-20.776,-20.76,-20.75,-20.73,-20.709,-20.705,-20.698,-20.688,-20.678,-20.678,-20.682,-20.692,-20.704,-20.717,-20.739,-20.763,-20.803,-20.838,-20.86,-20.879,-20.912,-20.936,-20.96,-20.971,-20.985,-20.988,-21.008,-21.022,-21.022,-21.02,-21.024,-21.025,-21.032,-21.031,-21.037,-21.024,-21.036,-21.031,-21.038,-21.03,-21.02,-21.022,-21.029,-21.031,-21.026,-21.013,-21.024,-21.02,-21.026,-21.013,-21.006,-21.002,-21,-21.013,-21.018,-21.008,-21.003,-21.01,-21.018,-21.004,-21.01,-21.01,-21.015,-21.017,-21.017,-21.02,-21.013,-21.017,-21.029,-21.032,-21.022,-21.026,-21.03,-21.029,-21.037,-21.03,-21.036,-21.036,-21.039,-21.039,-21.036,-21.02,-20.991,-20.998,-20.994,-20.979,-20.966,-20.969,-20.963,-20.942,-20.936,-20.93,-20.933,-20.943,-20.957,-20.972,-20.964,-20.976,-20.984,-21.01,-21.034,-21.042,-21.048,-21.068,-21.078,-21.081,-21.08,-21.079,-21.088,-21.09,-21.08,-21.081,-21.073,-21.078,-21.091,-21.108,-21.112,-21.081,-21.04,-20.975,-20.84,-20.61,-20.408,-20.357,-20.63,-21.115,-21.434,-21.575,-21.592,-21.565,-21.532,-21.477,-21.367,-21.228,-21.128,-21.085,-21.055,-21.041,-21.034,-21.026,-21.042,-21.027,-21.016,-21.006,-21,-20.998,-20.984,-20.979,-20.972,-20.975,-20.974,-20.961,-20.949,-20.942,-20.94,-20.931,-20.917,-20.903,-20.904,-20.88,-20.87,-20.857,-20.843,-20.82,-20.808,-20.788,-20.77,-20.753,-20.728,-20.722,-20.715,-20.695,-20.672,-20.661,-20.652,-20.649,-20.651,-20.649,-20.655,-20.659,-20.697,-20.726,-20.742,-20.79,-20.814,-20.834,-20.866,-20.891,-20.911,-20.924,-20.946,-20.966,-20.975,-20.973,-20.993,-21.006,-21.005,-21.007,-21.012,-21.016,-21.017,-21.022,-21.02,-21.022,-21.016,-21.022,-21.026,-21.021,-21.023,-21.026,-21.02,-21.02,-21.017,-21.011,-21.001,-21.011,-21.015,-21.018,-21.003,-21.006,-21.008,-21.012,-21.018,-21.01,-21.005,-21.01,-21.015,-21.021,-21.022,-21.018,-21.006,-21.012,-21.031,-21.031,-21.025,-21.02,-21.028,-21.029,-21.038,-21.037,-21.031,-21.033,-21.046,-21.043,-21.033,-21.036,-21.056,-21.058,-21.057,-21.052,-21.046,-21.042,-21.057,-21.05,-21.047,-21.039,-21.044,-21.061,-21.056,-21.055,-21.04,-21.029,-21.016,-21.018,-21.005,-21.005,-20.99,-20.99,-20.981,-20.97,-20.973,-20.983,-20.987,-20.994,-20.994,-20.991,-21.008,-21.03,-21.037,-21.055,-21.07,-21.092,-21.091,-21.105,-21.113,-21.096,-21.105,-21.1,-21.12,-21.114,-21.114,-21.107,-21.11,-21.127,-21.136,-21.135,-21.103,-21.056,-20.991,-20.855,-20.662,-20.482,-20.496,-20.893,-21.305,-21.529,-21.577,-21.57,-21.565,-21.529,-21.491,-21.416,-21.329,-21.217,-21.145,-21.121,-21.095,-21.079,-21.078,-21.071,-21.076,-21.053,-21.06,-21.055,-21.054,-21.049,-21.03,-21.025,-21.033,-21.038,-21.031,-21.014,-21.008,-21.005,-20.999,-20.99,-20.98,-20.963,-20.971,-20.96,-20.934,-20.921,-20.918,-20.892,-20.891,-20.876,-20.864,-20.849,-20.836,-20.822,-20.814,-20.809,-20.795,-20.789,-20.781,-20.78,-20.776,-20.785,-20.798,-20.829,-20.839,-20.857,-20.878,-20.899,-20.938,-20.969,-20.979,-20.991,-21.006,-21.026,-21.051,-21.062,-21.068,-21.079,-21.093,-21.103,-21.102,-21.098,-21.11,-21.114,-21.116,-21.109,-21.112,-21.123,-21.133,-21.127,-21.123,-21.115,-21.11,-21.125,-21.123,-21.119,-21.109,-21.119,-21.111,-21.114,-21.114,-21.117,-21.117,-21.102,-21.115,-21.108,-21.104,-21.11,-21.107,-21.112,-21.119,-21.128,-21.12,-21.106,-21.126,-21.126,-21.127,-21.125,-21.13,-21.131,-21.132,-21.129,-21.135,-21.143,-21.132,-21.142,-21.134,-21.126,-21.123,-21.12,-21.109,-21.106,-21.1,-21.075,-21.071,-21.047,-21.066,-21.065,-21.053,-21.077,-21.087,-21.099,-21.085,-21.112,-21.128,-21.145,-21.164,-21.18,-21.185,-21.193,-21.195,-21.216,-21.209,-21.202,-21.203,-21.202,-21.208,-21.205,-21.21,-21.205,-21.217,-21.252,-21.239,-21.211,-21.186,-21.12,-20.978,-20.81,-20.706,-20.629,-20.856,-21.317,-21.583,-21.645,-21.625,-21.608,-21.592,-21.543,-21.503,-21.425,-21.329,-21.262,-21.221,-21.204,-21.183,-21.178,-21.172,-21.163,-21.157,-21.158,-21.15,-21.141,-21.149,-21.139,-21.13,-21.121,-21.119,-21.12,-21.109,-21.091,-21.08,-21.086,-21.08,-21.073,-21.061,-21.048,-21.036,-21.04,-21.019,-21.003,-20.988,-20.979,-20.966,-20.951,-20.943,-20.93,-20.918,-20.908,-20.895,-20.875,-20.878,-20.887,-20.887,-20.877,-20.889,-20.903,-20.928,-20.946,-20.964,-20.989,-21.01,-21.031,-21.056,-21.086,-21.099,-21.116,-21.127,-21.154,-21.164,-21.167,-21.159,-21.172,-21.192,-21.2,-21.182,-21.186,-21.188,-21.191,-21.21,-21.202,-21.189,-21.187,-21.183,-21.208,-21.216,-21.216,-21.196,-21.184,-21.199,-21.189,-21.197,-21.19,-21.187,-21.192,-21.176,-21.168,-21.164,-21.159,-21.171,-21.175,-21.172,-21.161,-21.176,-21.179,-21.179,-21.174,-21.172,-21.171,-21.186,-21.181,-21.189,-21.171,-21.164,-21.179,-21.175,-21.155,-21.154,-21.137,-21.146,-21.138,-21.129,-21.116,-21.117,-21.115,-21.078,-21.083,-21.112,-21.132,-21.118,-21.097,-21.087,-21.08,-21.099,-21.125,-21.151,-21.18,-21.188,-21.193,-21.201,-21.2,-21.207,-21.212,-21.207,-21.216,-21.212,-21.216,-21.217,-21.217,-21.217,-21.224,-21.24,-21.234,-21.2,-21.172,-21.098,-21.018,-20.857,-20.655,-20.579,-20.758,-21.228,-21.535,-21.686,-21.697,-21.691,-21.659,-21.603,-21.504,-21.388,-21.295,-21.232,-21.216,-21.201,-21.195,-21.188,-21.195,-21.181,-21.169,-21.161,-21.177,-21.168,-21.163,-21.144,-21.138,-21.131,-21.127,-21.119,-21.117,-21.114,-21.107,-21.103,-21.092,-21.063,-21.058,-21.043,-21.039,-21.038,-21.025,-20.995,-20.974,-20.963,-20.954,-20.938,-20.911,-20.894,-20.891,-20.882,-20.866,-20.849,-20.84,-20.833,-20.861,-20.856,-20.86,-20.862,-20.877,-20.906,-20.942,-20.969,-21.003,-21.03,-21.041,-21.075,-21.097,-21.119,-21.136,-21.15,-21.159,-21.162,-21.163,-21.185,-21.196,-21.174,-21.181,-21.181,-21.183,-21.201,-21.204,-21.193,-21.175,-21.174,-21.177,-21.175,-21.183,-21.174,-21.175,-21.182,-21.172,-21.172,-21.158,-21.162,-21.173,-21.178,-21.165,-21.162,-21.158,-21.161,-21.164,-21.162,-21.159,-21.158,-21.17,-21.173,-21.171,-21.168,-21.164,-21.174,-21.182,-21.177,-21.179,-21.184,-21.192,-21.194,-21.186,-21.172,-21.16,-21.152,-21.149,-21.145,-21.142,-21.125,-21.121,-21.11,-21.097,-21.09,-21.093,-21.108,-21.122,-21.13,-21.132,-21.142,-21.158,-21.175,-21.194,-21.207,-21.222,-21.22,-21.234,-21.247,-21.245,-21.24,-21.244,-21.26,-21.253,-21.246,-21.236,-21.25,-21.26,-21.275,-21.276,-21.252,-21.213,-21.188,-21.108,-20.949,-20.741,-20.585,-20.632,-21.05,-21.462,-21.676,-21.733,-21.738,-21.708,-21.649,-21.564,-21.432,-21.325,-21.258,-21.23,-21.214,-21.213,-21.209,-21.2,-21.189,-21.187,-21.172,-21.169,-21.162,-21.168,-21.154,-21.146,-21.146,-21.143,-21.137,-21.138,-21.123,-21.117,-21.106,-21.105,-21.086,-21.063,-21.056,-21.054,-21.057,-21.03,-21.008,-20.994,-20.983,-20.972,-20.966,-20.935,-20.921,-20.944,-20.923,-20.891,-20.858,-20.844,-20.845,-20.863,-20.871,-20.868,-20.871,-20.881,-20.896,-20.922,-20.95,-20.987,-21.02,-21.05,-21.081,-21.092,-21.098,-21.099,-21.121,-21.135,-21.152,-21.153,-21.17,-21.179,-21.183,-21.18,-21.175,-21.175,-21.172,-21.181,-21.181,-21.178,-21.177,-21.178,-21.179,-21.178,-21.189,-21.183,-21.177,-21.179,-21.178,-21.18,-21.183,-21.186,-21.181,-21.178,-21.182,-21.18,-21.175,-21.189,-21.187,-21.174,-21.177,-21.177,-21.187,-21.186,-21.182,-21.178,-21.183,-21.192,-21.187,-21.189,-21.189,-21.19,-21.192,-21.197,-21.191,-21.187,-21.182,-21.174,-21.17,-21.145,-21.138,-21.125,-21.127,-21.126,-21.105,-21.082,-21.073,-21.081,-21.089,-21.099,-21.116,-21.115,-21.112,-21.121,-21.133,-21.163,-21.18,-21.198,-21.207,-21.216,-21.222,-21.228,-21.227,-21.235,-21.224,-21.223,-21.232,-21.237,-21.241,-21.235,-21.243,-21.253,-21.251,-21.223,-21.194,-21.111,-20.961,-20.747,-20.571,-20.564,-20.926,-21.385,-21.638,-21.74,-21.755,-21.723,-21.635,-21.561,-21.439,-21.322,-21.242,-21.219,-21.205,-21.197,-21.192,-21.179,-21.168,-21.152,-21.145,-21.142,-21.143,-21.134,-21.123,-21.126,-21.125,-21.116,-21.108,-21.094,-21.089,-21.079,-21.078,-21.064,-21.047,-21.045,-21.034,-21.023,-21.013,-20.988,-20.974,-20.966,-20.943,-20.922,-20.898,-20.888,-20.876,-20.869,-20.848,-20.838,-20.818,-20.81,-20.811,-20.801,-20.797,-20.801,-20.814,-20.827,-20.849,-20.871,-20.908,-20.93,-20.961,-20.988,-21.007,-21.036,-21.058,-21.084,-21.095,-21.1,-21.106,-21.123,-21.131,-21.145,-21.141,-21.133,-21.143,-21.151,-21.156,-21.151,-21.145,-21.149,-21.156,-21.151,-21.148,-21.143,-21.141,-21.152,-21.153,-21.139,-21.148,-21.139,-21.141,-21.145,-21.138,-21.136,-21.131,-21.13,-21.138,-21.13,-21.126,-21.143,-21.133,-21.135,-21.138,-21.123,-21.129,-21.136,-21.149,-21.151,-21.139,-21.149,-21.148,-21.152,-21.157,-21.152,-21.153,-21.151,-21.156,-21.139,-21.121,-21.114,-21.103,-21.105,-21.11,-21.098,-21.069,-21.059,-21.059,-21.068,-21.062,-21.073,-21.086,-21.095,-21.092,-21.113,-21.128,-21.152,-21.18,-21.194,-21.203,-21.207,-21.197,-21.214,-21.218,-21.221,-21.214,-21.202,-21.211,-21.204,-21.22,-21.211,-21.22,-21.243,-21.249,-21.213,-21.163,-21.067,-20.917,-20.716,-20.568,-20.642,-21.092,-21.488,-21.688,-21.741,-21.734,-21.683,-21.608,-21.542,-21.477,-21.355,-21.264,-21.221,-21.19,-21.2,-21.178,-21.181,-21.157,-21.166,-21.164,-21.161,-21.147,-21.144,-21.129,-21.135,-21.115,-21.127,-21.109,-21.111,-21.106,-21.099,-21.082,-21.077,-21.071,-21.069,-21.044,-21.041,-21.021,-21.007,-20.994,-20.981,-20.964,-20.949,-20.937,-20.918,-20.907,-20.886,-20.879,-20.873,-20.873,-20.858,-20.856,-20.839,-20.844,-20.855,-20.874,-20.88,-20.894,-20.912,-20.937,-20.966,-21.001,-21.013,-21.048,-21.072,-21.105,-21.108,-21.119,-21.121,-21.137,-21.151,-21.16,-21.156,-21.161,-21.164,-21.171,-21.185,-21.176,-21.181,-21.184,-21.188,-21.185,-21.175,-21.182,-21.185,-21.169,-21.171,-21.177,-21.175,-21.164,-21.167,-21.171,-21.176,-21.166,-21.162,-21.162,-21.17,-21.173,-21.15,-21.156,-21.169,-21.165,-21.164,-21.155,-21.166,-21.164,-21.159,-21.158,-21.157,-21.131,-21.143,-21.147,-21.125,-21.113,-21.102,-21.103,-21.074,-21.087,-21.074,-21.083,-21.094,-21.111,-21.111,-21.102,-21.117,-21.154,-21.181,-21.187,-21.191,-21.2,-21.21,-21.22,-21.23,-21.225,-21.226,-21.222,-21.217,-21.225,-21.23,-21.221,-21.238,-21.253,-21.253,-21.25,-21.219,-21.179,-21.099,-21.021,-20.875,-20.694,-20.641,-20.943,-21.394,-21.619,-21.649,-21.653,-21.641,-21.602,-21.553,-21.505,-21.415,-21.32,-21.268,-21.214,-21.208,-21.187,-21.199,-21.199,-21.189,-21.158,-21.166,-21.171,-21.169,-21.145,-21.153,-21.137,-21.141,-21.135,-21.137,-21.111,-21.106,-21.11,-21.107,-21.088,-21.071,-21.056,-21.055,-21.055,-21.043,-21.016,-20.99,-20.981,-20.989,-20.981,-20.956,-20.934,-20.919,-20.933,-20.918,-20.898,-20.884,-20.879,-20.894,-20.902,-20.901,-20.906,-20.916,-20.936,-20.953,-20.976,-20.998,-21.014,-21.036,-21.067,-21.095,-21.108,-21.119,-21.131,-21.142,-21.14,-21.164,-21.173,-21.181,-21.187,-21.186,-21.191,-21.187,-21.183,-21.189,-21.187,-21.194,-21.202,-21.204,-21.202,-21.2,-21.19,-21.178,-21.178,-21.173,-21.183,-21.176,-21.169,-21.159,-21.167,-21.162,-21.158,-21.167,-21.162,-21.164,-21.172,-21.164,-21.161,-21.151,-21.154,-21.165,-21.154,-21.142,-21.129,-21.115,-21.117,-21.1,-21.105,-21.093,-21.078,-21.078,-21.083,-21.07,-21.08,-21.078,-21.095,-21.107,-21.115,-21.122,-21.153,-21.18,-21.189,-21.197,-21.198,-21.207,-21.22,-21.222,-21.218,-21.218,-21.223,-21.216,-21.217,-21.225,-21.225,-21.221,-21.254,-21.25,-21.214,-21.184,-21.127,-21.004,-20.838,-20.659,-20.637,-21.007,-21.412,-21.622,-21.634,-21.625,-21.616,-21.6,-21.554,-21.501,-21.441,-21.324,-21.247,-21.188,-21.176,-21.155,-21.153,-21.153,-21.143,-21.125,-21.123,-21.108,-21.105,-21.095,-21.092,-21.08,-21.087,-21.081,-21.093,-21.088,-21.066,-21.057,-21.048,-21.059,-21.054,-21.015,-21.022,-20.981,-20.951,-20.943,-20.913,-20.885,-20.872,-20.858,-20.859,-20.842,-20.837,-20.827,-20.807,-20.816,-20.81,-20.81,-20.808,-20.811,-20.816,-20.837,-20.838,-20.851,-20.89,-20.927,-20.953,-20.975,-20.999,-21.02,-21.046,-21.068,-21.072,-21.093,-21.109,-21.12,-21.117,-21.125,-21.135,-21.145,-21.147,-21.155,-21.152,-21.149,-21.145,-21.153,-21.149,-21.155,-21.137,-21.14,-21.139,-21.147,-21.142,-21.139,-21.119,-21.126,-21.129,-21.125,-21.134,-21.123,-21.133,-21.151,-21.122,-21.127,-21.117,-21.116,-21.124,-21.123,-21.12,-21.104,-21.117,-21.104,-21.091,-21.085,-21.075,-21.07,-21.056,-21.052,-21.038,-21.029,-20.992,-20.991,-20.99,-20.999,-20.993,-21.006,-21.028,-21.031,-21.046,-21.079,-21.11,-21.14,-21.135,-21.107,-21.08,-21.094,-21.101,-21.118,-21.144,-21.153,-21.151,-21.144,-21.137,-21.135,-21.137,-21.141,-21.156,-21.17,-21.145,-21.104,-21.078,-20.982,-20.819,-20.628,-20.533,-20.64,-21.087,-21.435,-21.619,-21.642,-21.619,-21.59,-21.549,-21.473,-21.333,-21.224,-21.145,-21.133,-21.113,-21.112,-21.096,-21.103,-21.101,-21.111,-21.089,-21.079,-21.077,-21.091,-21.096,-21.078,-21.062,-21.059,-21.051,-21.042,-21.033,-21.027,-21.025,-21.034,-21.022,-21,-20.983,-20.954,-20.949,-20.943,-20.945,-20.933,-20.9,-20.879,-20.871,-20.86,-20.826,-20.803,-20.796,-20.819,-20.806,-20.79,-20.787,-20.771,-20.769,-20.777,-20.789,-20.821,-20.867,-20.897,-20.929,-20.949,-20.983,-21.009,-21.032,-21.047,-21.019,-21.006,-21.033,-21.049,-21.075,-21.069,-21.057,-21.062,-21.077,-21.08,-21.081,-21.097,-21.115,-21.097,-21.097,-21.095,-21.083,-21.078,-21.096,-21.104,-21.144,-21.114,-21.07,-21.06,-21.067,-21.067,-21.054,-21.052,-21.044,-21.045,-21.054,-21.052,-21.041,-21.044,-21.039,-21.033,-21.045,-21.024,-21.022,-21.026,-21.028,-21.022,-21.037,-21.043,-21.026,-21.029,-21.01,-20.987,-20.971,-20.945,-20.93,-20.928,-20.928,-20.906,-20.891,-20.887,-20.88,-20.883,-20.894,-20.919,-20.953,-20.993,-21.027,-21.03,-21.026,-21.031,-21.032,-21.059,-21.069,-21.058,-21.059,-21.064,-21.064,-21.08,-21.081,-21.066,-21.088,-21.091,-21.059,-21.031,-20.995,-20.949,-20.871,-20.718,-20.504,-20.357,-20.4,-20.807,-21.061,-21.359,-21.551,-21.57,-21.574,-21.477,-21.391,-21.245,-21.165,-21.075,-21.032,-21.008,-20.997,-20.994,-20.997,-20.991,-21.012,-21.013,-21.036,-21.019,-20.994,-20.993,-20.975,-20.961,-20.963,-20.954,-20.941,-20.927,-20.946,-20.932,-20.927,-20.922,-20.909,-20.901,-20.896,-20.855,-20.875,-20.881,-20.886,-20.881,-20.884,-20.882,-20.825,-20.8,-20.805,-20.81,-20.796,-20.807,-20.799,-20.77,-20.758,-20.755,-20.775,-20.775,-20.798,-20.837,-20.878,-20.91,-20.921,-20.942,-20.942,-20.947,-20.984,-21.006,-21.022,-21.058,-21.078,-21.069,-21.068,-21.091,-21.113,-21.136,-21.109,-21.107,-21.127,-21.14,-21.166,-21.141,-21.098,-21.097,-21.132,-21.119,-21.114,-21.123,-21.145,-21.152,-21.162,-21.193,-21.171,-21.195,-21.197,-21.149,-21.174,-21.164,-21.168,-21.157,-21.151,-21.157,-21.14,-21.145,-21.119,-21.109,-21.128,-21.182,-21.131,-21.102,-21.033,-21.033,-21.035,-21.027,-21.008,-20.983,-21.023,-20.998,-20.981,-20.984,-20.974,-20.978,-20.994,-21.018,-21.02,-21.105,-21.099,-21.097,-21.089,-21.127,-21.13,-21.147,-21.191,-21.224,-21.175,-21.12,-21.079,-21.077,-21.09,-21.12,-21.135,-21.131,-21.134,-21.174,-21.182,-21.129,-21.066,-21.023,-20.925,-20.806,-20.642,-20.5,-20.583,-21.022,-21.322,-21.49,-21.489,-21.491,-21.491,-21.418,-21.406,-21.357,-21.299,-21.185,-21.098,-21.074,-21.101,-21.066,-21.078,-21.083,-21.096,-21.073,-21.081,-21.065,-21.081,-21.087,-21.115,-21.072,-21.074,-21.047,-21.055,-21.074,-21.072,-21.063,-21.095,-21.052,-21.023,-21.03,-21.029,-21.018,-20.989,-20.998,-20.984,-20.94,-20.921,-20.917,-20.934,-20.928,-20.923,-20.898,-20.905,-20.91,-20.903,-20.894,-20.912,-20.896,-20.912,-20.921,-20.933,-20.952,-20.968,-21.014,-21.028,-21.036,-21.074,-21.076,-21.08,-21.115,-21.124,-21.136,-21.133,-21.163,-21.171,-21.165,-21.176,-21.184,-21.218,-21.197,-21.164,-21.144,-21.142,-21.144,-21.169,-21.172,-21.17,-21.171,-21.165,-21.173,-21.156,-21.139,-21.154,-21.175,-21.203,-21.217,-21.205,-21.184,-21.178,-21.168,-21.168,-21.155,-21.156,-21.167,-21.166,-21.156,-21.133,-21.132,-21.129,-21.129,-21.112,-21.094,-21.086,-21.089,-21.085,-21.075,-21.049,-21.031,-21.066,-21.063,-21.067,-21.076,-21.088,-21.1,-21.099,-21.088,-21.107,-21.125,-21.149,-21.168,-21.168,-21.173,-21.191,-21.182,-21.176,-21.235,-21.213,-21.218,-21.212,-21.201,-21.211,-21.217,-21.231,-21.223,-21.181,-21.175,-21.139,-21.025,-20.881,-20.72,-20.665,-20.745,-21.15,-21.474,-21.564,-21.568,-21.554,-21.577,-21.538,-21.517,-21.458,-21.389,-21.274,-21.224,-21.184,-21.201,-21.167,-21.159,-21.149,-21.16,-21.149,-21.167,-21.154,-21.149,-21.164,-21.161,-21.123,-21.127,-21.105,-21.123,-21.141,-21.146,-21.114,-21.113,-21.089,-21.076,-21.066,-21.038,-21.02,-21.024,-21.011,-21.012,-21.002,-20.984,-20.968,-20.955,-20.956,-20.952,-20.943,-20.923,-20.932,-20.968,-20.989,-20.974,-20.964,-20.959,-20.948,-20.947,-20.966,-20.976,-21.017,-21.055,-21.088,-21.086,-21.082,-21.099,-21.128,-21.172,-21.179,-21.171,-21.184,-21.196,-21.219,-21.22,-21.232,-21.27,-21.32,-21.344,-21.286,-21.244,-21.223,-21.215,-21.223,-21.221,-21.232,-21.252,-21.265,-21.245,-21.226,-21.186,-21.213,-21.223,-21.239,-21.252,-21.259,-21.238,-21.253,-21.244,-21.243,-21.242,-21.253,-21.257,-21.253,-21.236,-21.211,-21.196,-21.222,-21.244,-21.263,-21.211,-21.146,-21.125,-21.12,-21.12,-21.137,-21.14,-21.167,-21.192,-21.205,-21.204,-21.214,-21.212,-21.217,-21.28,-21.298,-21.29,-21.294,-21.317,-21.324,-21.325,-21.319,-21.31,-21.316,-21.345,-21.358,-21.35,-21.326,-21.347,-21.364,-21.348,-21.328,-21.274,-21.182,-21.027,-20.865,-20.741,-20.832,-21.267,-21.628,-21.797,-21.838,-21.842,-21.825,-21.781,-21.704,-21.576,-21.468,-21.433,-21.431,-21.409,-21.404,-21.383,-21.396,-21.383,-21.389,-21.377,-21.389,-21.352,-21.349,-21.364,-21.351,-21.347,-21.331,-21.338,-21.342,-21.339,-21.374,-21.371,-21.366,-21.366,-21.34,-21.305,-21.283,-21.274,-21.296,-21.296,-21.292,-21.282,-21.263,-21.231,-21.225,-21.194,-21.186,-21.169,-21.169,-21.168,-21.171,-21.17,-21.164,-21.155,-21.149,-21.169,-21.181,-21.197,-21.212,-21.272,-21.297,-21.342,-21.345,-21.366,-21.376,-21.38,-21.401,-21.409,-21.416,-21.437,-21.424,-21.43,-21.442,-21.446,-21.453,-21.454,-21.448,-21.422,-21.413,-21.431,-21.429,-21.426,-21.415,-21.421,-21.422,-21.41,-21.407,-21.392,-21.404,-21.398,-21.39,-21.39,-21.379,-21.386,-21.398,-21.412,-21.395,-21.399,-21.383,-21.379,-21.394,-21.389,-21.368,-21.349,-21.341,-21.327,-21.311,-21.299,-21.291,-21.294,-21.268,-21.267,-21.26,-21.24,-21.253,-21.279,-21.284,-21.289,-21.262,-21.299,-21.297,-21.329,-21.331,-21.327,-21.364,-21.372,-21.36,-21.37,-21.398,-21.405,-21.401,-21.402,-21.383,-21.388,-21.381,-21.402,-21.416,-21.388,-21.359,-21.321,-21.26,-21.128,-20.918,-20.772,-20.81,-21.224,-21.621,-21.817,-21.863,-21.863,-21.863,-21.83,-21.791,-21.682,-21.54,-21.446,-21.412,-21.402,-21.377,-21.362,-21.369,-21.354,-21.367,-21.335,-21.337,-21.324,-21.323,-21.31,-21.312,-21.306,-21.321,-21.295,-21.315,-21.301,-21.301,-21.296,-21.292,-21.279,-21.283,-21.26,-21.24,-21.238,-21.229,-21.221,-21.214,-21.189,-21.175,-21.158,-21.149,-21.136,-21.129,-21.114,-21.095,-21.087,-21.089,-21.078,-21.083,-21.092,-21.098,-21.113,-21.123,-21.151,-21.178,-21.206,-21.239,-21.257,-21.266,-21.292,-21.317,-21.351,-21.357,-21.383,-21.401,-21.386,-21.385,-21.377,-21.381,-21.405,-21.416,-21.417,-21.399,-21.407,-21.418,-21.409,-21.403,-21.385,-21.386,-21.391,-21.388,-21.396,-21.39,-21.39,-21.388,-21.386,-21.391,-21.381,-21.372,-21.382,-21.375,-21.373,-21.376,-21.394,-21.391,-21.407,-21.382,-21.355,-21.369,-21.377,-21.372,-21.363,-21.344,-21.344,-21.364,-21.35,-21.322,-21.315,-21.295,-21.291,-21.288,-21.295,-21.296,-21.293,-21.318,-21.327,-21.315,-21.306,-21.347,-21.363,-21.372,-21.395,-21.397,-21.405,-21.412,-21.401,-21.421,-21.427,-21.422,-21.439,-21.453,-21.434,-21.421,-21.443,-21.434,-21.438,-21.449,-21.419,-21.404,-21.382,-21.335,-21.181,-20.969,-20.814,-20.84,-21.257,-21.66,-21.865,-21.898,-21.886,-21.873,-21.828,-21.765,-21.644,-21.517,-21.434,-21.416,-21.4,-21.389,-21.37,-21.37,-21.374,-21.381,-21.38,-21.382,-21.365,-21.361,-21.351,-21.348,-21.337,-21.341,-21.338,-21.329,-21.319,-21.319,-21.3,-21.299,-21.286,-21.271,-21.257,-21.257,-21.252,-21.229,-21.214,-21.194,-21.184,-21.178,-21.159,-21.135,-21.12,-21.096,-21.104,-21.095,-21.095,-21.103,-21.091,-21.089,-21.092,-21.095,-21.093,-21.113,-21.128,-21.162,-21.177,-21.218,-21.239,-21.255,-21.292,-21.314,-21.318,-21.335,-21.359,-21.382,-21.392,-21.386,-21.391,-21.42,-21.424,-21.436,-21.413,-21.403,-21.413,-21.416,-21.414,-21.407,-21.407,-21.404,-21.4,-21.402,-21.407,-21.418,-21.404,-21.393,-21.396,-21.387,-21.408,-21.395,-21.405,-21.394,-21.41,-21.409,-21.405,-21.408,-21.412,-21.408,-21.418,-21.411,-21.412,-21.396,-21.417,-21.406,-21.435,-21.433,-21.405,-21.377,-21.361,-21.368,-21.373,-21.357,-21.324,-21.351,-21.35,-21.331,-21.34,-21.352,-21.37,-21.373,-21.391,-21.426,-21.432,-21.456,-21.474,-21.461,-21.47,-21.499,-21.489,-21.482,-21.506,-21.513,-21.501,-21.499,-21.495,-21.501,-21.498,-21.517,-21.522,-21.506,-21.502,-21.501,-21.404,-21.241,-21.008,-20.867,-20.936,-21.379,-21.621,-21.886,-22.061,-22.035,-22.015,-21.94,-21.877,-21.776,-21.675,-21.567,-21.544,-21.503,-21.516,-21.497,-21.507,-21.488,-21.482,-21.445,-21.469,-21.424,-21.41,-21.386,-21.351,-21.364,-21.361,-21.372,-21.37,-21.35,-21.383,-21.399,-21.41,-21.396,-21.398,-21.396,-21.39,-21.369,-21.371,-21.335,-21.34,-21.345,-21.345,-21.319,-21.29,-21.296,-21.252,-21.249,-21.253,-21.235,-21.223,-21.222,-21.241,-21.254,-21.246,-21.238,-21.243,-21.289,-21.34,-21.372,-21.396,-21.431,-21.436,-21.459,-21.483,-21.517,-21.51,-21.531,-21.539,-21.543,-21.567,-21.597,-21.577,-21.588,-21.602,-21.588,-21.611,-21.603,-21.611,-21.625,-21.613,-21.614,-21.632,-21.63,-21.631,-21.621,-21.599,-21.614,-21.631,-21.653,-21.639,-21.629,-21.651,-21.646,-21.654,-21.68,-21.668,-21.677,-21.674,-21.696,-21.707,-21.718,-21.711,-21.712,-21.712,-21.708,-21.698,-21.679,-21.677,-21.7,-21.702,-21.684,-21.634,-21.623,-21.625,-21.598,-21.587,-21.601,-21.602,-21.622,-21.629,-21.631,-21.617,-21.634,-21.663,-21.683,-21.701,-21.698,-21.715,-21.734,-21.747,-21.767,-21.772,-21.781,-21.783,-21.775,-21.78,-21.774,-21.761,-21.772,-21.791,-21.796,-21.783,-21.747,-21.726,-21.675,-21.544,-21.381,-21.227,-21.315,-21.812,-22.167,-22.278,-22.267,-22.257,-22.238,-22.205,-22.17,-22.113,-22.069,-21.957,-21.885,-21.838,-21.819,-21.799,-21.827,-21.827,-21.813,-21.809,-21.812,-21.815,-21.819,-21.81,-21.805,-21.798,-21.817,-21.819,-21.768,-21.802,-21.817,-21.799,-21.801,-21.809,-21.797,-21.797,-21.804,-21.801,-21.78,-21.785,-21.755,-21.778,-21.778,-21.723,-21.706,-21.707,-21.713,-21.735,-21.692,-21.683,-21.692,-21.689,-21.692,-21.689,-21.701,-21.695,-21.725,-21.73,-21.748,-21.781,-21.758,-21.758,-21.801,-21.815,-21.84,-21.86,-21.876,-21.876,-21.902,-21.893,-21.883,-21.905,-21.933,-21.932,-21.892,-21.9,-21.904,-21.891,-21.904,-21.914,-21.92,-21.91,-21.919,-21.889,-21.867,-21.859,-21.88,-21.9,-21.874,-21.878,-21.86,-21.853,-21.856,-21.865,-21.843,-21.845,-21.828,-21.837,-21.843,-21.835,-21.82,-21.823,-21.815,-21.807,-21.791,-21.766,-21.774,-21.768,-21.748,-21.746,-21.757,-21.777,-21.79,-21.772,-21.77,-21.786,-21.787,-21.822,-21.836,-21.858,-21.862,-21.865,-21.877,-21.92,-21.916,-21.897,-21.907,-21.913,-21.928,-21.924,-21.944,-21.937,-21.945,-21.952,-21.983,-21.953,-21.942,-21.905,-21.887,-21.817,-21.676,-21.505,-21.367,-21.413,-21.841,-22.205,-22.328,-22.284,-22.282,-22.293,-22.293,-22.257,-22.203,-22.166,-22.079,-22.013,-21.956,-21.939,-21.902,-21.921,-21.897,-21.904,-21.873,-21.881,-21.87,-21.873,-21.877,-21.862,-21.854,-21.846,-21.842,-21.854,-21.834,-21.849,-21.829,-21.808,-21.824,-21.813,-21.776,-21.796,-21.789,-21.757,-21.737,-21.734,-21.753,-21.715,-21.689,-21.677,-21.657,-21.654,-21.652,-21.64,-21.617,-21.635,-21.638,-21.635,-21.614,-21.627,-21.655,-21.649,-21.677,-21.709,-21.734,-21.723,-21.734,-21.759,-21.772,-21.783,-21.799,-21.804,-21.812,-21.828,-21.843,-21.855,-21.869,-21.869,-21.874,-21.906,-21.865,-21.857,-21.861,-21.865,-21.888,-21.871,-21.858,-21.854,-21.854,-21.854,-21.863,-21.862,-21.858,-21.866,-21.837,-21.818,-21.841,-21.843,-21.83,-21.819,-21.816,-21.813,-21.82,-21.814,-21.779,-21.773,-21.774,-21.769,-21.768,-21.77,-21.77,-21.739,-21.728,-21.731,-21.753,-21.752,-21.749,-21.763,-21.762,-21.761,-21.782,-21.788,-21.787,-21.839,-21.861,-21.859,-21.847,-21.833,-21.845,-21.827,-21.836,-21.842,-21.853,-21.848,-21.866,-21.858,-21.863,-21.875,-21.878,-21.854,-21.824,-21.785,-21.676,-21.527,-21.359,-21.233,-21.365,-21.603,-21.992,-22.206,-22.253,-22.275,-22.253,-22.234,-22.181,-22.107,-22.02,-21.911,-21.845,-21.838,-21.823,-21.8,-21.804,-21.816,-21.803,-21.799,-21.775,-21.774,-21.786,-21.792,-21.786,-21.783,-21.766,-21.753,-21.742,-21.748,-21.753,-21.764,-21.737,-21.732,-21.714,-21.712,-21.696,-21.675,-21.668,-21.675,-21.631,-21.628,-21.597,-21.581,-21.559,-21.557,-21.547,-21.525,-21.536,-21.515,-21.493,-21.495,-21.506,-21.5,-21.531,-21.554,-21.562,-21.587,-21.594,-21.619,-21.636,-21.664,-21.681,-21.7,-21.706,-21.712,-21.74,-21.753,-21.74,-21.765,-21.761,-21.769,-21.795,-21.778,-21.782,-21.799,-21.808,-21.814,-21.787,-21.767,-21.785,-21.796,-21.788,-21.776,-21.788,-21.769,-21.781,-21.784,-21.783,-21.782,-21.784,-21.767,-21.767,-21.748,-21.755,-21.768,-21.791,-21.762,-21.75,-21.758,-21.738,-21.737,-21.732,-21.71,-21.696,-21.688,-21.69,-21.676,-21.661,-21.663,-21.67,-21.674,-21.682,-21.702,-21.703,-21.702,-21.722,-21.735,-21.753,-21.761,-21.767,-21.778,-21.8,-21.812,-21.802,-21.807,-21.804,-21.809,-21.826,-21.819,-21.811,-21.81,-21.82,-21.818,-21.852,-21.819,-21.794,-21.748,-21.612,-21.525,-21.309,-21.164,-21.187,-21.573,-22.001,-22.226,-22.314,-22.308,-22.29,-22.221,-22.122,-21.977,-21.866,-21.811,-21.781,-21.76,-21.746,-21.75,-21.753,-21.755,-21.744,-21.73,-21.723,-21.726,-21.734,-21.719,-21.726,-21.726,-21.714,-21.688,-21.686,-21.686,-21.676,-21.671,-21.661,-21.635,-21.635,-21.634,-21.627,-21.598,-21.583,-21.564,-21.545,-21.551,-21.545,-21.515,-21.497,-21.485,-21.482,-21.452,-21.443,-21.439,-21.435,-21.437,-21.441,-21.428,-21.443,-21.451,-21.459,-21.485,-21.503,-21.538,-21.561,-21.598,-21.617,-21.64,-21.64,-21.666,-21.689,-21.706,-21.706,-21.716,-21.718,-21.718,-21.755,-21.728,-21.729,-21.739,-21.739,-21.74,-21.745,-21.723,-21.686,-21.697,-21.695,-21.701,-21.694,-21.694,-21.715,-21.721,-21.686,-21.696,-21.703,-21.721,-21.729,-21.732,-21.715,-21.712,-21.708,-21.725,-21.727,-21.747,-21.747,-21.711,-21.715,-21.699,-21.679,-21.68,-21.661,-21.645,-21.653,-21.656,-21.625,-21.601,-21.631,-21.642,-21.61,-21.625,-21.645,-21.659,-21.66,-21.69,-21.694,-21.704,-21.726,-21.768,-21.778,-21.773,-21.768,-21.781,-21.783,-21.782,-21.794,-21.804,-21.815,-21.814,-21.811,-21.792,-21.823,-21.835,-21.814,-21.78,-21.732,-21.629,-21.455,-21.28,-21.158,-21.233,-21.657,-22.032,-22.242,-22.26,-22.257,-22.217,-22.146,-22.103,-22.062,-21.911,-21.81,-21.811,-21.786,-21.799,-21.759,-21.756,-21.763,-21.732,-21.69,-21.71,-21.724,-21.737,-21.706,-21.714,-21.738,-21.705,-21.685,-21.68,-21.647,-21.673,-21.7,-21.685,-21.658,-21.637,-21.633,-21.637,-21.625,-21.608,-21.612,-21.601,-21.561,-21.532,-21.489,-21.491,-21.495,-21.476,-21.459,-21.459,-21.456,-21.466,-21.441,-21.436,-21.467,-21.468,-21.509,-21.55,-21.585,-21.613,-21.63,-21.658,-21.661,-21.678,-21.706,-21.727,-21.753,-21.786,-21.783,-21.788,-21.834,-21.826,-21.857,-21.869,-21.873,-21.885,-21.888,-21.894,-21.896,-21.874,-21.872,-21.872,-21.855,-21.845,-21.831,-21.845,-21.884,-21.877,-21.876,-21.867,-21.87,-21.906,-21.957,-21.935,-21.936,-21.933,-21.925,-21.922,-21.927,-21.919,-21.923,-21.933,-21.946,-21.947,-21.912,-21.955,-21.971,-21.967,-21.946,-21.935,-21.95,-21.93,-21.927,-21.907,-21.906,-21.904,-21.886,-21.89,-21.875,-21.873,-21.896,-21.894,-21.826,-21.765,-21.862,-21.97,-22.037,-22.063,-22.073,-22.062,-22.065,-22.073,-22.069,-22.065,-22.074,-22.057,-22.021,-22.034,-22.041,-22.036,-22.041,-22.02,-22.044,-22.034,-22.003,-21.955,-21.878,-21.815,-21.639,-21.411,-21.347,-21.531,-21.982,-22.336,-22.495,-22.504,-22.475,-22.444,-22.389,-22.273,-22.112,-22.009,-21.964,-21.975,-21.954,-21.927,-21.942,-21.954,-21.952,-21.956,-21.926,-21.911,-21.924,-21.917,-21.939,-21.931,-21.905,-21.89,-21.903,-21.904,-21.87,-21.868,-21.835,-21.837,-21.83,-21.801,-21.767,-21.78,-21.766,-21.783,-21.777,-21.768,-21.753,-21.745,-21.718,-21.721,-21.687,-21.64,-21.65,-21.659,-21.642,-21.639,-21.631,-21.641,-21.661,-21.671,-21.659,-21.676,-21.712,-21.742,-21.75,-21.748,-21.777,-21.837,-21.915,-21.943,-21.91,-21.947,-21.956,-21.978,-21.985,-21.983,-21.981,-21.99,-22.003,-22.025,-22.033,-22.005,-21.996,-22.012,-22.03,-22.032,-22.016,-22.002,-22.001,-21.991,-21.984,-21.966,-21.944,-21.981,-22.023,-22.013,-22.001,-22.008,-21.994,-22.002,-22.003,-21.991,-21.966,-21.984,-21.981,-21.985,-21.973,-21.982,-21.983,-21.974,-21.988,-21.966,-21.967,-21.957,-21.98,-21.975,-21.963,-21.979,-21.973,-21.958,-21.967,-21.967,-21.941,-21.915,-21.919,-21.911,-21.913,-21.912,-21.906,-21.886,-21.905,-21.916,-21.925,-21.921,-21.923,-21.921,-21.969,-21.971,-21.992,-22.008,-22.045,-22.044,-22.046,-22.045,-22.054,-22.071,-22.064,-22.063,-22.061,-22.066,-22.079,-22.121,-22.116,-22.115,-22.084,-22.069,-22.011,-21.862,-21.67,-21.577,-21.457,-21.508,-21.952,-22.346,-22.571,-22.591,-22.608,-22.573,-22.489,-22.395,-22.261,-22.149,-22.099,-22.062,-22.057,-22.056,-22.066,-22.054,-22.044,-22.033,-22.012,-22.01,-22,-21.985,-21.984,-21.964,-21.982,-21.989,-21.977,-21.977,-21.963,-21.954,-21.943,-21.929,-21.892,-21.902,-21.904,-21.911,-21.895,-21.874,-21.863,-21.841,-21.837,-21.812,-21.788,-21.783,-21.775,-21.773,-21.753,-21.738,-21.74,-21.741,-21.742,-21.714,-21.728,-21.741,-21.761,-21.779,-21.777,-21.823,-21.829,-21.857,-21.883,-21.909,-21.928,-21.951,-21.973,-21.999,-21.997,-22.015,-22.017,-22.015,-22.036,-22.049,-22.053,-22.035,-22.05,-22.05,-22.055,-22.055,-22.052,-22.036,-22.047,-22.066,-22.041,-22.042,-22.019,-22.04,-22.032,-22.013,-22.012,-22.015,-22.016,-22.029,-22.025,-22.009,-22.013,-22.023,-22.034,-22.031,-22.023,-22.036,-22.043,-22.051,-22.03,-22.018,-22.029,-22.021,-22.027,-22.039,-22.035,-22.032,-22.041,-22.052,-22.057,-22.049,-22.042,-22.041,-22.065,-22.077,-22.061,-22.052,-22.06,-22.059,-22.06,-22.035,-22.029,-22.008,-22.003,-22.003,-21.976,-21.982,-21.965,-21.948,-21.94,-21.965,-21.972,-21.999,-22.019,-22.019,-22.017,-22.017,-22.043,-22.06,-22.099,-22.091,-22.096,-22.107,-22.091,-22.113,-22.102,-22.103,-22.085,-22.092,-22.12,-22.128,-22.122,-22.098,-22.106,-22.08,-22.039,-21.929,-21.773,-21.571,-21.478,-21.651,-22.129,-22.479,-22.608,-22.653,-22.626,-22.592,-22.515,-22.413,-22.297,-22.221,-22.143,-22.11,-22.076,-22.077,-22.09,-22.087,-22.077,-22.059,-22.046,-22.054,-22.041,-22.01,-22.02,-22.039,-22.042,-22.009,-22.007,-22.007,-21.967,-21.995,-22.008,-21.978,-21.969,-21.971,-21.973,-21.961,-21.943,-21.939,-21.929,-21.925,-21.904,-21.903,-21.867,-21.855,-21.874,-21.846,-21.852,-21.834,-21.847,-21.85,-21.855,-21.841,-21.835,-21.829,-21.862,-21.898,-21.913,-21.93,-21.951,-21.972,-22.029,-22.053,-22.055,-22.096,-22.123,-22.157,-22.161,-22.171,-22.182,-22.188,-22.208,-22.218,-22.214,-22.213,-22.224,-22.243,-22.238,-22.215,-22.226,-22.239,-22.252,-22.26,-22.232,-22.256,-22.28,-22.281,-22.261,-22.258,-22.252,-22.274,-22.269,-22.285,-22.287,-22.287,-22.271,-22.293,-22.306,-22.293,-22.292,-22.294,-22.297,-22.312,-22.332,-22.31,-22.317,-22.334,-22.344,-22.36,-22.365,-22.36,-22.347,-22.359,-22.385,-22.379,-22.367,-22.36,-22.392,-22.372,-22.356,-22.346,-22.35,-22.357,-22.346,-22.331,-22.327,-22.318,-22.308,-22.305,-22.305,-22.323,-22.342,-22.386,-22.364,-22.339,-22.355,-22.378,-22.42,-22.449,-22.474,-22.456,-22.5,-22.481,-22.49,-22.493,-22.483,-22.498,-22.504,-22.521,-22.517,-22.521,-22.516,-22.525,-22.539,-22.517,-22.471,-22.425,-22.296,-22.128,-21.954,-21.865,-22.18,-22.673,-22.99,-23.068,-23.064,-23.05,-23.023,-22.962,-22.856,-22.713,-22.6,-22.545,-22.523,-22.517,-22.514,-22.499,-22.499,-22.519,-22.498,-22.472,-22.469,-22.47,-22.49,-22.484,-22.453,-22.458,-22.443,-22.458,-22.418,-22.437,-22.393,-22.403,-22.421,-22.404,-22.38,-22.367,-22.338,-22.348,-22.34,-22.328,-22.302,-22.297,-22.272,-22.267,-22.246,-22.235,-22.234,-22.225,-22.221,-22.21,-22.193,-22.194,-22.182,-22.201,-22.219,-22.222,-22.236,-22.221,-22.277,-22.329,-22.337,-22.346,-22.369,-22.406,-22.41,-22.413,-22.415,-22.429,-22.449,-22.474,-22.476,-22.465,-22.466,-22.461,-22.477,-22.468,-22.453,-22.429,-22.448,-22.435,-22.434,-22.422,-22.405,-22.392,-22.402,-22.393,-22.388,-22.372,-22.371,-22.363,-22.37,-22.348,-22.349,-22.351,-22.351,-22.346,-22.34,-22.324,-22.349,-22.338,-22.331,-22.324,-22.322,-22.355,-22.373,-22.375,-22.35,-22.357,-22.368,-22.365,-22.362,-22.372,-22.374,-22.368,-22.363,-22.353,-22.346,-22.326,-22.321,-22.343,-22.344,-22.321,-22.305,-22.316,-22.325,-22.344,-22.361,-22.372,-22.379,-22.38,-22.43,-22.438,-22.442,-22.49,-22.526,-22.537,-22.537,-22.554,-22.561,-22.561,-22.558,-22.585,-22.603,-22.585,-22.583,-22.591,-22.631,-22.638,-22.646,-22.608,-22.57,-22.566,-22.428,-22.26,-22.1,-22.039,-22.309,-22.786,-23.047,-23.076,-23.078,-23.07,-23.046,-23.002,-22.975,-22.925,-22.844,-22.718,-22.628,-22.62,-22.632,-22.626,-22.595,-22.616,-22.598,-22.586,-22.599,-22.592,-22.573,-22.573,-22.581,-22.582,-22.577,-22.57,-22.545,-22.546,-22.547,-22.546,-22.521,-22.518,-22.497,-22.479,-22.465,-22.472,-22.459,-22.45,-22.429,-22.412,-22.394,-22.38,-22.382,-22.389,-22.389,-22.382,-22.392,-22.386,-22.37,-22.358,-22.352,-22.367,-22.376,-22.375,-22.406,-22.421,-22.424,-22.433,-22.477,-22.518,-22.522,-22.519,-22.493,-22.545,-22.579,-22.586,-22.58,-22.568,-22.565,-22.532,-22.519,-22.5,-22.518,-22.531,-22.548,-22.566,-22.56,-22.571,-22.597,-22.608,-22.647,-22.661,-22.718,-22.738,-22.745,-22.755,-22.739,-22.73,-22.746,-22.756,-22.743,-22.727,-22.724,-22.725,-22.754,-22.744,-22.747,-22.746,-22.753,-22.748,-22.734,-22.733,-22.722,-22.683,-22.677,-22.704,-22.683,-22.679,-22.675,-22.646,-22.661,-22.653,-22.646,-22.642,-22.671,-22.686,-22.66,-22.65,-22.644,-22.667,-22.691,-22.712,-22.702,-22.705,-22.735,-22.74,-22.75,-22.751,-22.78,-22.768,-22.765,-22.766,-22.746,-22.754,-22.755,-22.755,-22.77,-22.762,-22.721,-22.696,-22.593,-22.459,-22.244,-22.16,-22.131,-22.46,-22.92,-23.2,-23.24,-23.228,-23.21,-23.159,-23.111,-23.004,-22.876,-22.762,-22.746,-22.713,-22.697,-22.694,-22.688,-22.681,-22.67,-22.662,-22.689,-22.694,-22.697,-22.677,-22.659,-22.635,-22.643,-22.66,-22.644,-22.623,-22.624,-22.618,-22.618,-22.601,-22.571,-22.569,-22.547,-22.55,-22.563,-22.55,-22.533,-22.495,-22.473,-22.481,-22.481,-22.484,-22.489,-22.469,-22.451,-22.45,-22.435,-22.449,-22.469,-22.467,-22.45,-22.436,-22.431,-22.482,-22.498,-22.512,-22.506,-22.514,-22.566,-22.558,-22.577,-22.568,-22.628,-22.637,-22.673,-22.664,-22.673,-22.65,-22.619,-22.614,-22.613,-22.63,-22.608,-22.627,-22.626,-22.63,-22.601,-22.562,-22.563,-22.569,-22.543,-22.55,-22.599,-22.598,-22.551,-22.55,-22.536,-22.532,-22.515,-22.518,-22.503,-22.471,-22.463,-22.452,-22.454,-22.492,-22.504,-22.481,-22.442,-22.461,-22.518,-22.476,-22.445,-22.432,-22.432,-22.456,-22.449,-22.397,-22.345,-22.38,-22.397,-22.406,-22.408,-22.419,-22.405,-22.423,-22.421,-22.419,-22.451,-22.481,-22.512,-22.472,-22.521,-22.532,-22.517,-22.52,-22.529,-22.504,-22.464,-22.462,-22.483,-22.485,-22.475,-22.478,-22.479,-22.455,-22.41,-22.371,-22.29,-22.112,-21.973,-21.858,-21.878,-22.273,-22.699,-22.968,-22.987,-22.921,-22.89,-22.828,-22.737,-22.63,-22.589,-22.482,-22.426,-22.421,-22.396,-22.386,-22.383,-22.38,-22.351,-22.359,-22.361,-22.339,-22.296,-22.279,-22.304,-22.329,-22.307,-22.286,-22.29,-22.281,-22.271,-22.236,-22.213,-22.203,-22.17,-22.177,-22.18,-22.139,-22.123,-22.134,-22.114,-22.093,-22.061,-22.029,-22.052,-22.038,-22.013,-21.989,-21.99,-21.999,-21.998,-21.959,-21.936,-21.941,-21.939,-21.974,-22.014,-22.011,-22.014,-22.035,-22.074,-22.09,-22.08,-22.105,-22.138,-22.172,-22.177,-22.187,-22.185,-22.18,-22.186,-22.174,-22.207,-22.195,-22.203,-22.234,-22.244,-22.237,-22.224,-22.208,-22.2,-22.188,-22.196,-22.202,-22.179,-22.21,-22.203,-22.185,-22.165,-22.173,-22.2,-22.226,-22.195,-22.168,-22.206,-22.21,-22.191,-22.185,-22.177,-22.181,-22.19,-22.185,-22.194,-22.166,-22.165,-22.146,-22.142,-22.143,-22.125,-22.116,-22.083,-22.07,-22.102,-22.096,-22.072,-22.127,-22.138,-22.167,-22.141,-22.143,-22.147,-22.171,-22.189,-22.205,-22.217,-22.232,-22.234,-22.22,-22.202,-22.229,-22.227,-22.177,-22.212,-22.25,-22.292,-22.279,-22.305,-22.292,-22.207,-22.18,-22.113,-21.966,-21.79,-21.646,-21.682,-22.102,-22.509,-22.66,-22.694,-22.732,-22.758,-22.696,-22.644,-22.561,-22.456,-22.375,-22.317,-22.303,-22.284,-22.264,-22.246,-22.214,-22.261,-22.271,-22.254,-22.217,-22.2,-22.182,-22.197,-22.196,-22.228,-22.223,-22.189,-22.163,-22.164,-22.163,-22.18,-22.175,-22.172,-22.175,-22.165,-22.104,-22.052,-22.095,-22.074,-22.05,-22.02,-22.012,-22.004,-22.008,-22.003,-21.985,-21.957,-21.969,-21.945,-21.975,-21.982,-21.97,-22.024,-21.97,-22.021,-22.056,-22.029,-22.056,-22.082,-22.119,-22.124,-22.135,-22.169,-22.173,-22.188,-22.214,-22.214,-22.249,-22.266,-22.255,-22.277,-22.248,-22.252,-22.309,-22.368,-22.366,-22.326,-22.299,-22.268,-22.308,-22.309,-22.337,-22.334,-22.277,-22.273,-22.261,-22.264,-22.39,-22.464,-22.512,-22.504,-22.441,-22.427,-22.348,-22.263,-22.207,-22.206,-22.277,-22.286,-22.31,-22.311,-22.357,-22.411,-22.514,-22.619,-22.655,-22.713,-22.697,-22.65,-22.593,-22.649,-22.593,-22.469,-22.428,-22.374,-22.398,-22.441,-22.449,-22.549,-22.6,-22.646,-22.696,-22.728,-22.727,-22.736,-22.749,-22.838,-22.856,-22.745,-22.718,-22.698,-22.617,-22.554,-22.559,-22.523,-22.289,-21.995,-21.819,-21.957,-22.211,-22.668,-22.849,-22.842,-22.93,-22.934,-22.931,-22.913,-23.011,-23.076,-22.952,-22.738,-22.527,-22.407,-22.379,-22.397,-22.548,-22.655,-22.699,-22.707,-22.717,-22.76,-22.796,-22.824,-22.688,-22.545,-22.477,-22.734,-23.323,-23.486,-23.365,-23.044,-22.96,-22.83,-22.681,-22.56,-22.465,-22.477,-22.499,-22.5,-22.513,-22.584,-22.659,-22.645,-22.722,-22.718,-22.615,-22.523,-22.552,-22.745,-22.889,-22.658,-22.249,-22.17,-22.025
