-304.38,-304.38,-304.38,-304.38,-304.38,-304.38,-304.38,-304.38,-304.38,-304.37,-304.37,-304.37,-304.37,-304.38,-304.38,-304.39,-304.39,-304.39,-304.39,-304.39,-304.4,-304.41,-304.41,-304.4,-304.4,-304.4,-304.41,-304.41,-304.41,-304.4,-304.39,-304.38,-304.37,-304.36,-304.36,-304.36,-304.36,-304.36,-304.36,-304.36,-304.36,-304.35,-304.36,-304.4,-304.5,-304.61,-304.77,-305,-305.14,-305.07,-304.64,-304.06,-303.66,-303.35,-303.32,-303.5,-303.71,-303.99,-304.18,-304.31,-304.38,-304.38,-304.4,-304.4,-304.42,-304.42,-304.43,-304.43,-304.44,-304.44,-304.45,-304.45,-304.46,-304.47,-304.47,-304.48,-304.49,-304.49,-304.5,-304.51,-304.51,-304.52,-304.53,-304.54,-304.55,-304.56,-304.57,-304.58,-304.59,-304.6,-304.61,-304.62,-304.63,-304.64,-304.64,-304.65,-304.65,-304.66,-304.66,-304.66,-304.66,-304.66,-304.66,-304.67,-304.66,-304.67,-304.67,-304.67,-304.66,-304.65,-304.63,-304.61,-304.59,-304.57,-304.54,-304.52,-304.49,-304.48,-304.46,-304.45,-304.44,-304.43,-304.41,-304.41,-304.4,-304.4,-304.39,-304.39,-304.39,-304.39,-304.39,-304.39,-304.38,-304.38,-304.38,-304.39,-304.39,-304.39,-304.39,-304.39,-304.39,-304.39,-304.39,-304.39,-304.39,-304.39,-304.39,-304.39,-304.39,-304.39,-304.39,-304.39,-304.39,-304.39,-304.39,-304.39,-304.39,-304.38,-304.38,-304.38,-304.38,-304.38,-304.38,-304.37,-304.37,-304.37,-304.37,-304.37,-304.37,-304.36,-304.36,-304.36,-304.36,-304.36,-304.36,-304.36,-304.36,-304.36,-304.36,-304.36,-304.35,-304.36,-304.35,-304.36,-304.35,-304.36,-304.35,-304.35,-304.35,-304.35,-304.35,-304.36,-304.37,-304.37,-304.37,-304.37,-304.37,-304.38,-304.39,-304.39,-304.39,-304.38,-304.39,-304.39,-304.39,-304.39,-304.39,-304.38,-304.36,-304.35,-304.35,-304.35,-304.34,-304.34,-304.34,-304.34,-304.34,-304.34,-304.34,-304.34,-304.38,-304.47,-304.58,-304.73,-304.96,-305.11,-305.07,-304.66,-304.1,-303.68,-303.36,-303.3,-303.47,-303.59,-303.82,-304.07,-304.22,-304.33,-304.36,-304.38,-304.38,-304.4,-304.4,-304.41,-304.41,-304.42,-304.42,-304.43,-304.43,-304.44,-304.44,-304.45,-304.45,-304.46,-304.47,-304.47,-304.48,-304.49,-304.5,-304.51,-304.52,-304.52,-304.53,-304.54,-304.55,-304.56,-304.57,-304.58,-304.6,-304.6,-304.61,-304.61,-304.62,-304.63,-304.63,-304.63,-304.63,-304.63,-304.64,-304.64,-304.64,-304.64,-304.64,-304.64,-304.64,-304.63,-304.63,-304.61,-304.6,-304.57,-304.56,-304.54,-304.52,-304.49,-304.47,-304.45,-304.44,-304.42,-304.41,-304.4,-304.39,-304.38,-304.38,-304.38,-304.38,-304.37,-304.37,-304.37,-304.37,-304.37,-304.37,-304.37,-304.37,-304.37,-304.37,-304.37,-304.37,-304.37,-304.37,-304.37,-304.37,-304.37,-304.37,-304.37,-304.37,-304.37,-304.37,-304.37,-304.37,-304.37,-304.37,-304.37,-304.36,-304.36,-304.36,-304.36,-304.35,-304.35,-304.35,-304.35,-304.35,-304.35,-304.34,-304.34,-304.34,-304.34,-304.34,-304.34,-304.34,-304.34,-304.33,-304.33,-304.33,-304.33,-304.33,-304.33,-304.33,-304.33,-304.33,-304.33,-304.33,-304.33,-304.33,-304.33,-304.32,-304.33,-304.32,-304.32,-304.33,-304.34,-304.34,-304.34,-304.34,-304.34,-304.34,-304.35,-304.36,-304.36,-304.35,-304.35,-304.36,-304.37,-304.37,-304.36,-304.35,-304.34,-304.33,-304.32,-304.32,-304.31,-304.31,-304.31,-304.31,-304.31,-304.31,-304.31,-304.31,-304.34,-304.42,-304.53,-304.65,-304.88,-305.02,-305.07,-304.97,-304.54,-304.1,-303.7,-303.39,-303.37,-303.54,-303.75,-303.98,-304.14,-304.25,-304.31,-304.34,-304.35,-304.35,-304.36,-304.37,-304.38,-304.38,-304.38,-304.39,-304.39,-304.4,-304.41,-304.41,-304.42,-304.42,-304.43,-304.44,-304.45,-304.45,-304.46,-304.47,-304.47,-304.48,-304.49,-304.5,-304.51,-304.51,-304.52,-304.53,-304.54,-304.55,-304.55,-304.56,-304.57,-304.57,-304.57,-304.58,-304.57,-304.57,-304.57,-304.57,-304.57,-304.57,-304.56,-304.57,-304.57,-304.57,-304.56,-304.56,-304.55,-304.53,-304.51,-304.49,-304.47,-304.45,-304.43,-304.41,-304.39,-304.38,-304.37,-304.36,-304.35,-304.35,-304.34,-304.34,-304.33,-304.34,-304.33,-304.33,-304.33,-304.33,-304.33,-304.33,-304.33,-304.33,-304.33,-304.33,-304.34,-304.33,-304.33,-304.33,-304.33,-304.34,-304.33,-304.33,-304.33,-304.33,-304.33,-304.33,-304.33,-304.33,-304.33,-304.33,-304.32,-304.32,-304.32,-304.32,-304.32,-304.32,-304.31,-304.31,-304.31,-304.31,-304.31,-304.31,-304.3,-304.31,-304.31,-304.31,-304.31,-304.3,-304.3,-304.3,-304.3,-304.3,-304.3,-304.31,-304.31,-304.32,-304.32,-304.32,-304.32,-304.32,-304.33,-304.34,-304.34,-304.34,-304.33,-304.33,-304.33,-304.34,-304.33,-304.33,-304.34,-304.33,-304.31,-304.3,-304.3,-304.29,-304.29,-304.29,-304.3,-304.29,-304.29,-304.29,-304.29,-304.31,-304.38,-304.48,-304.6,-304.79,-304.97,-305.01,-304.85,-304.44,-304.06,-303.65,-303.41,-303.43,-303.57,-303.68,-303.86,-304.07,-304.18,-304.28,-304.31,-304.33,-304.33,-304.35,-304.35,-304.37,-304.36,-304.38,-304.37,-304.39,-304.39,-304.4,-304.4,-304.41,-304.41,-304.42,-304.42,-304.43,-304.44,-304.45,-304.45,-304.46,-304.47,-304.48,-304.49,-304.5,-304.5,-304.52,-304.52,-304.54,-304.54,-304.55,-304.55,-304.55,-304.56,-304.57,-304.57,-304.57,-304.56,-304.56,-304.56,-304.56,-304.56,-304.56,-304.56,-304.56,-304.55,-304.55,-304.54,-304.52,-304.51,-304.49,-304.47,-304.45,-304.43,-304.41,-304.39,-304.38,-304.36,-304.35,-304.35,-304.34,-304.33,-304.32,-304.32,-304.32,-304.32,-304.31,-304.31,-304.31,-304.32,-304.32,-304.31,-304.32,-304.32,-304.32,-304.32,-304.32,-304.32,-304.32,-304.32,-304.32,-304.32,-304.32,-304.32,-304.32,-304.32,-304.32,-304.32,-304.32,-304.32,-304.32,-304.31,-304.31,-304.31,-304.31,-304.31,-304.31,-304.3,-304.3,-304.3,-304.3,-304.3,-304.3,-304.3,-304.3,-304.3,-304.29,-304.29,-304.29,-304.29,-304.3,-304.3,-304.3,-304.31,-304.31,-304.32,-304.31,-304.32,-304.33,-304.34,-304.33,-304.32,-304.32,-304.32,-304.33,-304.33,-304.33,-304.33,-304.32,-304.3,-304.29,-304.29,-304.28,-304.28,-304.28,-304.28,-304.28,-304.28,-304.27,-304.28,-304.31,-304.4,-304.51,-304.64,-304.87,-305,-305.02,-304.89,-304.45,-304.01,-303.62,-303.35,-303.35,-303.5,-303.71,-303.95,-304.12,-304.22,-304.29,-304.31,-304.32,-304.33,-304.34,-304.34,-304.35,-304.35,-304.36,-304.36,-304.37,-304.37,-304.38,-304.39,-304.4,-304.4,-304.41,-304.41,-304.43,-304.43,-304.44,-304.44,-304.46,-304.47,-304.48,-304.48,-304.49,-304.5,-304.51,-304.52,-304.53,-304.54,-304.55,-304.55,-304.56,-304.56,-304.57,-304.57,-304.57,-304.57,-304.57,-304.57,-304.57,-304.57,-304.57,-304.57,-304.57,-304.56,-304.55,-304.54,-304.52,-304.5,-304.48,-304.45,-304.43,-304.41,-304.39,-304.37,-304.36,-304.35,-304.34,-304.33,-304.32,-304.32,-304.31,-304.31,-304.31,-304.31,-304.3,-304.3,-304.3,-304.3,-304.3,-304.3,-304.3,-304.3,-304.3,-304.3,-304.3,-304.3,-304.3,-304.31,-304.31,-304.31,-304.31,-304.31,-304.31,-304.31,-304.31,-304.31,-304.31,-304.31,-304.3,-304.31,-304.3,-304.3,-304.3,-304.3,-304.3,-304.3,-304.29,-304.29,-304.29,-304.29,-304.29,-304.29,-304.29,-304.29,-304.28,-304.28,-304.28,-304.28,-304.28,-304.28,-304.28,-304.28,-304.28,-304.28,-304.29,-304.29,-304.3,-304.3,-304.3,-304.3,-304.3,-304.32,-304.32,-304.31,-304.31,-304.31,-304.31,-304.32,-304.31,-304.31,-304.31,-304.29,-304.28,-304.28,-304.27,-304.27,-304.27,-304.27,-304.26,-304.26,-304.26,-304.26,-304.27,-304.31,-304.41,-304.54,-304.71,-304.93,-305.06,-304.94,-304.47,-303.9,-303.52,-303.24,-303.22,-303.32,-303.52,-303.79,-304.01,-304.18,-304.26,-304.3,-304.3,-304.32,-304.32,-304.33,-304.33,-304.34,-304.34,-304.35,-304.35,-304.36,-304.37,-304.38,-304.37,-304.39,-304.39,-304.4,-304.41,-304.42,-304.42,-304.43,-304.44,-304.45,-304.46,-304.47,-304.48,-304.49,-304.5,-304.51,-304.52,-304.53,-304.54,-304.55,-304.55,-304.56,-304.57,-304.57,-304.58,-304.58,-304.58,-304.58,-304.58,-304.58,-304.58,-304.58,-304.58,-304.58,-304.57,-304.56,-304.54,-304.52,-304.49,-304.48,-304.46,-304.43,-304.41,-304.39,-304.37,-304.35,-304.34,-304.33,-304.32,-304.32,-304.31,-304.31,-304.3,-304.3,-304.3,-304.29,-304.29,-304.29,-304.29,-304.29,-304.29,-304.29,-304.29,-304.3,-304.3,-304.3,-304.3,-304.3,-304.3,-304.3,-304.3,-304.3,-304.3,-304.3,-304.3,-304.3,-304.3,-304.3,-304.3,-304.3,-304.3,-304.3,-304.3,-304.29,-304.29,-304.29,-304.29,-304.29,-304.29,-304.28,-304.28,-304.28,-304.28,-304.28,-304.28,-304.27,-304.27,-304.27,-304.27,-304.27,-304.27,-304.27,-304.27,-304.27,-304.27,-304.27,-304.28,-304.28,-304.29,-304.29,-304.29,-304.29,-304.29,-304.3,-304.31,-304.31,-304.3,-304.3,-304.3,-304.3,-304.31,-304.3,-304.3,-304.3,-304.29,-304.27,-304.27,-304.26,-304.26,-304.25,-304.25,-304.25,-304.25,-304.25,-304.25,-304.26,-304.3,-304.4,-304.51,-304.68,-304.91,-305.05,-304.97,-304.52,-303.96,-303.55,-303.25,-303.21,-303.4,-303.62,-303.9,-304.09,-304.21,-304.25,-304.28,-304.29,-304.3,-304.31,-304.31,-304.32,-304.32,-304.33,-304.33,-304.34,-304.34,-304.35,-304.36,-304.37,-304.37,-304.38,-304.38,-304.4,-304.4,-304.41,-304.41,-304.42,-304.43,-304.44,-304.45,-304.46,-304.47,-304.48,-304.49,-304.5,-304.51,-304.52,-304.53,-304.54,-304.54,-304.54,-304.55,-304.55,-304.55,-304.55,-304.55,-304.56,-304.56,-304.56,-304.56,-304.56,-304.55,-304.55,-304.54,-304.52,-304.5,-304.47,-304.45,-304.43,-304.41,-304.38,-304.37,-304.35,-304.34,-304.32,-304.32,-304.3,-304.3,-304.29,-304.29,-304.28,-304.28,-304.28,-304.27,-304.27,-304.27,-304.27,-304.27,-304.27,-304.27,-304.27,-304.27,-304.27,-304.27,-304.27,-304.28,-304.27,-304.28,-304.27,-304.28,-304.27,-304.27,-304.27,-304.27,-304.27,-304.27,-304.27,-304.27,-304.27,-304.27,-304.26,-304.26,-304.26,-304.26,-304.25,-304.26,-304.25,-304.25,-304.25,-304.25,-304.25,-304.25,-304.24,-304.24,-304.24,-304.24,-304.24,-304.24,-304.24,-304.24,-304.24,-304.24,-304.23,-304.24,-304.23,-304.24,-304.23,-304.24,-304.25,-304.25,-304.25,-304.25,-304.25,-304.26,-304.27,-304.28,-304.26,-304.26,-304.26,-304.26,-304.27,-304.27,-304.27,-304.27,-304.25,-304.24,-304.23,-304.23,-304.22,-304.22,-304.22,-304.22,-304.22,-304.22,-304.22,-304.23,-304.26,-304.34,-304.44,-304.57,-304.79,-304.93,-304.97,-304.69,-304.25,-303.84,-303.44,-303.27,-303.36,-303.55,-303.76,-303.97,-304.1,-304.19,-304.24,-304.25,-304.25,-304.26,-304.27,-304.27,-304.28,-304.29,-304.29,-304.3,-304.3,-304.31,-304.31,-304.32,-304.33,-304.34,-304.34,-304.35,-304.35,-304.37,-304.37,-304.38,-304.38,-304.39,-304.4,-304.41,-304.41,-304.42,-304.43,-304.44,-304.44,-304.45,-304.46,-304.47,-304.47,-304.48,-304.48,-304.48,-304.48,-304.48,-304.48,-304.47,-304.47,-304.48,-304.48,-304.47,-304.47,-304.47,-304.47,-304.46,-304.44,-304.42,-304.41,-304.39,-304.36,-304.34,-304.32,-304.3,-304.3,-304.28,-304.27,-304.26,-304.25,-304.25,-304.24,-304.24,-304.23,-304.23,-304.23,-304.23,-304.23,-304.23,-304.23,-304.23,-304.23,-304.23,-304.24,-304.23,-304.24,-304.24,-304.24,-304.23,-304.24,-304.23,-304.24,-304.23,-304.23,-304.23,-304.23,-304.23,-304.23,-304.23,-304.23,-304.23,-304.23,-304.22,-304.22,-304.22,-304.22,-304.22,-304.22,-304.22,-304.22,-304.21,-304.21,-304.21,-304.21,-304.21,-304.21,-304.21,-304.21,-304.21,-304.21,-304.21,-304.22,-304.23,-304.23,-304.23,-304.23,-304.23,-304.24,-304.25,-304.25,-304.24,-304.24,-304.24,-304.24,-304.24,-304.24,-304.24,-304.24,-304.22,-304.21,-304.2,-304.2,-304.2,-304.2,-304.2,-304.2,-304.19,-304.19,-304.19,-304.21,-304.27,-304.37,-304.48,-304.67,-304.88,-304.93,-304.79,-304.36,-303.93,-303.53,-303.27,-303.24,-303.34,-303.53,-303.74,-303.95,-304.09,-304.18,-304.22,-304.23,-304.23,-304.25,-304.25,-304.26,-304.27,-304.27,-304.28,-304.29,-304.29,-304.3,-304.3,-304.31,-304.31,-304.32,-304.33,-304.33,-304.34,-304.35,-304.36,-304.37,-304.38,-304.39,-304.4,-304.41,-304.42,-304.42,-304.44,-304.45,-304.46,-304.46,-304.47,-304.47,-304.48,-304.48,-304.49,-304.49,-304.49,-304.49,-304.49,-304.49,-304.49,-304.49,-304.49,-304.48,-304.48,-304.47,-304.46,-304.44,-304.43,-304.41,-304.38,-304.36,-304.33,-304.31,-304.3,-304.28,-304.27,-304.25,-304.24,-304.24,-304.23,-304.23,-304.22,-304.22,-304.22,-304.22,-304.21,-304.21,-304.21,-304.21,-304.22,-304.21,-304.21,-304.21,-304.22,-304.22,-304.22,-304.22,-304.22,-304.22,-304.22,-304.22,-304.22,-304.22,-304.22,-304.22,-304.22,-304.22,-304.22,-304.22,-304.22,-304.21,-304.21,-304.21,-304.21,-304.21,-304.21,-304.2,-304.2,-304.2,-304.2,-304.2,-304.2,-304.19,-304.2,-304.2,-304.2,-304.19,-304.19,-304.19,-304.19,-304.19,-304.19,-304.19,-304.2,-304.2,-304.21,-304.21,-304.21,-304.21,-304.22,-304.23,-304.23,-304.22,-304.22,-304.22,-304.22,-304.23,-304.22,-304.22,-304.22,-304.21,-304.19,-304.18,-304.18,-304.18,-304.18,-304.18,-304.18,-304.17,-304.17,-304.17,-304.18,-304.2,-304.28,-304.4,-304.54,-304.77,-304.93,-304.95,-304.57,-304.02,-303.57,-303.22,-303.12,-303.25,-303.47,-303.73,-303.95,-304.09,-304.18,-304.2,-304.21,-304.21,-304.23,-304.23,-304.24,-304.24,-304.25,-304.25,-304.26,-304.26,-304.27,-304.27,-304.29,-304.29,-304.3,-304.3,-304.31,-304.32,-304.33,-304.33,-304.34,-304.35,-304.36,-304.37,-304.38,-304.39,-304.4,-304.41,-304.42,-304.43,-304.44,-304.45,-304.46,-304.46,-304.47,-304.47,-304.47,-304.48,-304.48,-304.48,-304.48,-304.48,-304.48,-304.49,-304.48,-304.48,-304.48,-304.46,-304.45,-304.43,-304.41,-304.38,-304.35,-304.33,-304.31,-304.29,-304.27,-304.26,-304.25,-304.24,-304.23,-304.22,-304.21,-304.21,-304.21,-304.21,-304.2,-304.2,-304.2,-304.2,-304.2,-304.2,-304.2,-304.2,-304.2,-304.2,-304.2,-304.2,-304.2,-304.2,-304.2,-304.21,-304.21,-304.21,-304.21,-304.21,-304.21,-304.21,-304.21,-304.2,-304.2,-304.2,-304.2,-304.2,-304.2,-304.19,-304.19,-304.19,-304.19,-304.19,-304.19,-304.19,-304.18,-304.18,-304.18,-304.18,-304.18,-304.18,-304.18,-304.18,-304.18,-304.17,-304.17,-304.17,-304.17,-304.17,-304.17,-304.17,-304.18,-304.18,-304.19,-304.19,-304.19,-304.19,-304.19,-304.2,-304.21,-304.21,-304.2,-304.2,-304.21,-304.21,-304.21,-304.21,-304.21,-304.2,-304.19,-304.18,-304.17,-304.17,-304.16,-304.16,-304.16,-304.16,-304.16,-304.16,-304.16,-304.17,-304.23,-304.33,-304.45,-304.66,-304.86,-304.92,-304.93,-304.54,-303.99,-303.54,-303.19,-303.11,-303.26,-303.48,-303.75,-303.96,-304.08,-304.16,-304.18,-304.2,-304.2,-304.21,-304.21,-304.23,-304.22,-304.24,-304.23,-304.24,-304.24,-304.26,-304.26,-304.27,-304.27,-304.28,-304.28,-304.3,-304.3,-304.31,-304.32,-304.33,-304.34,-304.35,-304.35,-304.36,-304.37,-304.38,-304.39,-304.4,-304.4,-304.42,-304.43,-304.44,-304.44,-304.45,-304.45,-304.45,-304.45,-304.45,-304.46,-304.46,-304.46,-304.46,-304.46,-304.46,-304.46,-304.45,-304.45,-304.43,-304.41,-304.39,-304.37,-304.34,-304.32,-304.29,-304.27,-304.26,-304.24,-304.23,-304.22,-304.21,-304.2,-304.2,-304.2,-304.19,-304.19,-304.19,-304.19,-304.18,-304.18,-304.18,-304.18,-304.18,-304.18,-304.18,-304.19,-304.18,-304.19,-304.19,-304.19,-304.19,-304.19,-304.19,-304.19,-304.19,-304.19,-304.19,-304.19,-304.19,-304.19,-304.18,-304.18,-304.18,-304.18,-304.18,-304.18,-304.18,-304.18,-304.17,-304.17,-304.17,-304.17,-304.17,-304.16,-304.16,-304.16,-304.16,-304.16,-304.16,-304.16,-304.16,-304.16,-304.16,-304.16,-304.15,-304.15,-304.15,-304.15,-304.15,-304.16,-304.16,-304.17,-304.17,-304.17,-304.17,-304.17,-304.18,-304.19,-304.19,-304.18,-304.18,-304.19,-304.19,-304.19,-304.19,-304.18,-304.16,-304.15,-304.15,-304.14,-304.14,-304.14,-304.13,-304.14,-304.13,-304.13,-304.13,-304.13,-304.16,-304.24,-304.35,-304.48,-304.72,-304.87,-304.92,-304.59,-304.1,-303.85,-303.45,-303.15,-303.16,-303.34,-303.57,-303.81,-303.99,-304.08,-304.15,-304.16,-304.17,-304.17,-304.19,-304.19,-304.2,-304.2,-304.21,-304.21,-304.21,-304.21,-304.23,-304.23,-304.24,-304.24,-304.25,-304.25,-304.26,-304.27,-304.28,-304.28,-304.3,-304.3,-304.31,-304.32,-304.33,-304.34,-304.35,-304.35,-304.36,-304.37,-304.37,-304.38,-304.39,-304.39,-304.4,-304.4,-304.4,-304.4,-304.4,-304.4,-304.4,-304.4,-304.4,-304.4,-304.4,-304.4,-304.4,-304.39,-304.38,-304.36,-304.34,-304.32,-304.29,-304.27,-304.25,-304.23,-304.21,-304.2,-304.19,-304.18,-304.17,-304.16,-304.16,-304.16,-304.15,-304.15,-304.15,-304.15,-304.14,-304.15,-304.14,-304.15,-304.15,-304.15,-304.15,-304.15,-304.15,-304.15,-304.15,-304.15,-304.15,-304.15,-304.15,-304.15,-304.15,-304.15,-304.15,-304.15,-304.15,-304.14,-304.14,-304.14,-304.14,-304.14,-304.14,-304.14,-304.14,-304.13,-304.13,-304.13,-304.13,-304.13,-304.13,-304.12,-304.12,-304.12,-304.12,-304.13,-304.13,-304.14,-304.14,-304.14,-304.14,-304.15,-304.16,-304.16,-304.15,-304.15,-304.15,-304.15,-304.15,-304.15,-304.15,-304.15,-304.14,-304.13,-304.12,-304.11,-304.11,-304.11,-304.1,-304.1,-304.1,-304.1,-304.1,-304.1,-304.14,-304.23,-304.33,-304.46,-304.66,-304.76,-304.8,-304.75,-304.35,-304,-303.59,-303.28,-303.24,-303.35,-303.55,-303.75,-303.91,-304.02,-304.1,-304.13,-304.14,-304.15,-304.16,-304.16,-304.17,-304.17,-304.18,-304.18,-304.19,-304.19,-304.2,-304.21,-304.22,-304.22,-304.23,-304.23,-304.24,-304.25,-304.26,-304.27,-304.28,-304.29,-304.29,-304.3,-304.31,-304.32,-304.32,-304.33,-304.34,-304.35,-304.36,-304.36,-304.37,-304.37,-304.38,-304.38,-304.38,-304.38,-304.38,-304.38,-304.38,-304.38,-304.38,-304.38,-304.37,-304.37,-304.36,-304.35,-304.33,-304.32,-304.3,-304.28,-304.25,-304.23,-304.21,-304.2,-304.18,-304.17,-304.16,-304.15,-304.15,-304.14,-304.14,-304.14,-304.14,-304.13,-304.13,-304.13,-304.13,-304.14,-304.13,-304.14,-304.13,-304.14,-304.14,-304.14,-304.13,-304.14,-304.13,-304.14,-304.14,-304.14,-304.13,-304.14,-304.14,-304.14,-304.13,-304.13,-304.13,-304.13,-304.13,-304.13,-304.13,-304.13,-304.13,-304.13,-304.12,-304.12,-304.12,-304.12,-304.12,-304.12,-304.12,-304.12,-304.12,-304.12,-304.11,-304.12,-304.12,-304.13,-304.14,-304.14,-304.13,-304.14,-304.15,-304.16,-304.15,-304.14,-304.14,-304.14,-304.15,-304.15,-304.15,-304.15,-304.14,-304.13,-304.12,-304.11,-304.1,-304.1,-304.1,-304.1,-304.1,-304.1,-304.1,-304.1,-304.12,-304.19,-304.25,-304.36,-304.53,-304.75,-304.88,-304.78,-304.33,-303.79,-303.4,-303.1,-303.08,-303.26,-303.47,-303.73,-303.93,-304.05,-304.12,-304.13,-304.14,-304.15,-304.16,-304.16,-304.17,-304.17,-304.18,-304.18,-304.19,-304.19,-304.2,-304.21,-304.21,-304.22,-304.23,-304.23,-304.24,-304.25,-304.26,-304.27,-304.27,-304.28,-304.29,-304.29,-304.31,-304.32,-304.33,-304.34,-304.35,-304.36,-304.37,-304.38,-304.39,-304.39,-304.4,-304.4,-304.4,-304.4,-304.4,-304.41,-304.41,-304.41,-304.41,-304.41,-304.41,-304.41,-304.4,-304.38,-304.36,-304.35,-304.32,-304.3,-304.27,-304.25,-304.22,-304.2,-304.19,-304.17,-304.17,-304.16,-304.15,-304.15,-304.14,-304.14,-304.13,-304.13,-304.13,-304.13,-304.12,-304.12,-304.12,-304.12,-304.12,-304.12,-304.13,-304.13,-304.13,-304.13,-304.13,-304.13,-304.13,-304.13,-304.13,-304.13,-304.13,-304.13,-304.13,-304.13,-304.13,-304.13,-304.13,-304.13,-304.12,-304.12,-304.12,-304.12,-304.12,-304.12,-304.12,-304.11,-304.11,-304.11,-304.11,-304.11,-304.11,-304.1,-304.1,-304.11,-304.11,-304.12,-304.12,-304.12,-304.12,-304.12,-304.13,-304.14,-304.15,-304.14,-304.13,-304.14,-304.14,-304.14,-304.14,-304.14,-304.13,-304.12,-304.1,-304.1,-304.09,-304.09,-304.09,-304.09,-304.09,-304.08,-304.08,-304.08,-304.08,-304.12,-304.21,-304.32,-304.47,-304.71,-304.86,-304.84,-304.43,-303.88,-303.45,-303.1,-303.04,-303.2,-303.42,-303.69,-303.89,-303.96,-304.07,-304.11,-304.12,-304.13,-304.14,-304.14,-304.15,-304.15,-304.16,-304.16,-304.17,-304.17,-304.18,-304.19,-304.2,-304.2,-304.21,-304.21,-304.22,-304.23,-304.24,-304.24,-304.25,-304.26,-304.27,-304.28,-304.29,-304.3,-304.31,-304.32,-304.33,-304.34,-304.35,-304.36,-304.37,-304.37,-304.37,-304.37,-304.38,-304.38,-304.38,-304.38,-304.38,-304.38,-304.38,-304.38,-304.39,-304.38,-304.37,-304.36,-304.35,-304.33,-304.31,-304.28,-304.26,-304.23,-304.22,-304.2,-304.18,-304.17,-304.16,-304.15,-304.14,-304.13,-304.12,-304.12,-304.12,-304.12,-304.11,-304.11,-304.11,-304.11,-304.11,-304.11,-304.11,-304.11,-304.11,-304.11,-304.11,-304.11,-304.11,-304.12,-304.12,-304.12,-304.12,-304.12,-304.12,-304.11,-304.12,-304.12,-304.11,-304.11,-304.11,-304.11,-304.11,-304.11,-304.11,-304.1,-304.1,-304.1,-304.1,-304.1,-304.09,-304.09,-304.09,-304.09,-304.09,-304.09,-304.09,-304.08,-304.08,-304.09,-304.09,-304.09,-304.09,-304.09,-304.1,-304.1,-304.1,-304.1,-304.11,-304.12,-304.13,-304.11,-304.11,-304.11,-304.12,-304.12,-304.12,-304.12,-304.11,-304.09,-304.08,-304.08,-304.08,-304.07,-304.07,-304.07,-304.07,-304.07,-304.07,-304.06,-304.07,-304.11,-304.21,-304.32,-304.49,-304.72,-304.84,-304.78,-304.35,-303.8,-303.57,-303.19,-303.01,-303.12,-303.32,-303.59,-303.81,-303.97,-304.05,-304.1,-304.1,-304.11,-304.11,-304.13,-304.13,-304.14,-304.14,-304.15,-304.15,-304.16,-304.16,-304.17,-304.17,-304.18,-304.18,-304.2,-304.2,-304.21,-304.21,-304.23,-304.23,-304.24,-304.25,-304.26,-304.27,-304.28,-304.29,-304.3,-304.3,-304.31,-304.32,-304.33,-304.34,-304.34,-304.34,-304.35,-304.35,-304.35,-304.35,-304.35,-304.36,-304.36,-304.36,-304.36,-304.36,-304.36,-304.35,-304.35,-304.33,-304.32,-304.3,-304.28,-304.25,-304.23,-304.2,-304.18,-304.16,-304.15,-304.13,-304.12,-304.12,-304.11,-304.1,-304.1,-304.1,-304.09,-304.09,-304.09,-304.09,-304.08,-304.09,-304.09,-304.09,-304.09,-304.09,-304.09,-304.09,-304.09,-304.09,-304.09,-304.09,-304.09,-304.09,-304.09,-304.09,-304.09,-304.09,-304.09,-304.08,-304.08,-304.08,-304.08,-304.08,-304.07,-304.08,-304.07,-304.07,-304.07,-304.07,-304.07,-304.07,-304.06,-304.06,-304.06,-304.06,-304.06,-304.06,-304.06,-304.06,-304.06,-304.06,-304.06,-304.07,-304.07,-304.07,-304.07,-304.08,-304.09,-304.1,-304.09,-304.08,-304.08,-304.09,-304.09,-304.09,-304.08,-304.08,-304.07,-304.06,-304.05,-304.04,-304.04,-304.04,-304.04,-304.04,-304.03,-304.03,-304.03,-304.04,-304.08,-304.17,-304.27,-304.33,-304.53,-304.72,-304.77,-304.66,-304.24,-303.84,-303.42,-303.14,-303.15,-303.3,-303.5,-303.72,-303.88,-303.97,-304.04,-304.06,-304.07,-304.07,-304.08,-304.08,-304.1,-304.1,-304.11,-304.11,-304.12,-304.12,-304.13,-304.13,-304.14,-304.15,-304.15,-304.16,-304.17,-304.17,-304.19,-304.19,-304.2,-304.21,-304.21,-304.22,-304.23,-304.24,-304.24,-304.25,-304.26,-304.27,-304.28,-304.28,-304.28,-304.29,-304.29,-304.29,-304.29,-304.29,-304.29,-304.29,-304.29,-304.28,-304.28,-304.29,-304.29,-304.29,-304.28,-304.27,-304.25,-304.24,-304.22,-304.2,-304.18,-304.16,-304.14,-304.12,-304.11,-304.09,-304.08,-304.08,-304.07,-304.07,-304.06,-304.06,-304.06,-304.06,-304.05,-304.05,-304.05,-304.05,-304.05,-304.06,-304.05,-304.06,-304.06,-304.06,-304.06,-304.06,-304.06,-304.06,-304.06,-304.06,-304.06,-304.05,-304.06,-304.05,-304.06,-304.05,-304.05,-304.05,-304.05,-304.05,-304.04,-304.04,-304.04,-304.04,-304.04,-304.04,-304.04,-304.03,-304.03,-304.03,-304.04,-304.04,-304.04,-304.05,-304.05,-304.06,-304.05,-304.06,-304.07,-304.08,-304.07,-304.06,-304.06,-304.06,-304.06,-304.07,-304.06,-304.06,-304.06,-304.05,-304.04,-304.03,-304.02,-304.02,-304.02,-304.02,-304.02,-304.01,-304.02,-304.02,-304.04,-304.12,-304.22,-304.28,-304.44,-304.65,-304.73,-304.69,-304.32,-303.93,-303.55,-303.2,-303.12,-303.24,-303.43,-303.63,-303.82,-303.93,-304.01,-304.04,-304.06,-304.06,-304.08,-304.08,-304.09,-304.09,-304.1,-304.1,-304.11,-304.11,-304.12,-304.12,-304.13,-304.13,-304.15,-304.15,-304.16,-304.16,-304.18,-304.18,-304.19,-304.2,-304.21,-304.21,-304.22,-304.23,-304.25,-304.25,-304.26,-304.27,-304.28,-304.28,-304.29,-304.29,-304.3,-304.3,-304.3,-304.3,-304.3,-304.29,-304.29,-304.3,-304.29,-304.29,-304.29,-304.29,-304.28,-304.27,-304.25,-304.23,-304.21,-304.19,-304.17,-304.15,-304.13,-304.11,-304.1,-304.09,-304.08,-304.07,-304.07,-304.06,-304.06,-304.06,-304.05,-304.05,-304.05,-304.05,-304.05,-304.05,-304.05,-304.05,-304.05,-304.05,-304.05,-304.06,-304.06,-304.06,-304.06,-304.06,-304.06,-304.06,-304.06,-304.06,-304.06,-304.06,-304.06,-304.06,-304.06,-304.06,-304.05,-304.05,-304.05,-304.05,-304.05,-304.05,-304.04,-304.05,-304.04,-304.04,-304.04,-304.04,-304.04,-304.04,-304.04,-304.04,-304.04,-304.05,-304.06,-304.06,-304.06,-304.06,-304.07,-304.08,-304.08,-304.07,-304.06,-304.06,-304.07,-304.07,-304.07,-304.07,-304.06,-304.05,-304.03,-304.03,-304.02,-304.02,-304.02,-304.02,-304.02,-304.02,-304.02,-304.02,-304.03,-304.09,-304.14,-304.25,-304.4,-304.63,-304.78,-304.76,-304.36,-303.81,-303.4,-303.05,-302.99,-303.13,-303.34,-303.6,-303.81,-303.94,-304.03,-304.04,-304.06,-304.06,-304.07,-304.07,-304.09,-304.09,-304.1,-304.1,-304.11,-304.11,-304.12,-304.12,-304.13,-304.13,-304.15,-304.15,-304.16,-304.17,-304.18,-304.18,-304.2,-304.2,-304.21,-304.22,-304.23,-304.24,-304.25,-304.26,-304.28,-304.28,-304.3,-304.3,-304.31,-304.32,-304.32,-304.32,-304.33,-304.33,-304.33,-304.33,-304.33,-304.33,-304.33,-304.33,-304.33,-304.33,-304.32,-304.31,-304.29,-304.27,-304.24,-304.22,-304.19,-304.17,-304.14,-304.13,-304.11,-304.1,-304.09,-304.08,-304.07,-304.07,-304.06,-304.06,-304.05,-304.05,-304.05,-304.04,-304.04,-304.04,-304.04,-304.05,-304.04,-304.05,-304.05,-304.05,-304.05,-304.05,-304.05,-304.05,-304.05,-304.05,-304.05,-304.05,-304.05,-304.06,-304.05,-304.05,-304.05,-304.05,-304.05,-304.05,-304.05,-304.05,-304.04,-304.04,-304.04,-304.04,-304.04,-304.04,-304.04,-304.03,-304.03,-304.03,-304.04,-304.04,-304.05,-304.05,-304.05,-304.05,-304.05,-304.07,-304.07,-304.06,-304.05,-304.05,-304.06,-304.07,-304.06,-304.06,-304.06,-304.04,-304.03,-304.02,-304.01,-304.01,-304.01,-304.01,-304.01,-304.01,-304,-304,-304.01,-304.04,-304.07,-304.18,-304.3,-304.5,-304.72,-304.82,-304.61,-304.11,-303.57,-303.19,-302.96,-302.99,-303.22,-303.45,-303.71,-303.87,-303.98,-304.02,-304.04,-304.04,-304.05,-304.06,-304.07,-304.07,-304.08,-304.08,-304.09,-304.09,-304.1,-304.1,-304.11,-304.12,-304.12,-304.13,-304.14,-304.14,-304.15,-304.16,-304.17,-304.17,-304.19,-304.19,-304.21,-304.21,-304.23,-304.23,-304.25,-304.25,-304.27,-304.27,-304.28,-304.28,-304.29,-304.29,-304.3,-304.3,-304.3,-304.3,-304.3,-304.3,-304.3,-304.3,-304.3,-304.3,-304.3,-304.29,-304.28,-304.26,-304.23,-304.21,-304.19,-304.16,-304.14,-304.12,-304.1,-304.09,-304.08,-304.07,-304.06,-304.05,-304.05,-304.04,-304.04,-304.03,-304.03,-304.03,-304.03,-304.03,-304.03,-304.03,-304.03,-304.03,-304.03,-304.03,-304.03,-304.03,-304.03,-304.03,-304.03,-304.03,-304.03,-304.04,-304.03,-304.03,-304.03,-304.03,-304.03,-304.03,-304.03,-304.03,-304.03,-304.03,-304.02,-304.02,-304.02,-304.02,-304.02,-304.02,-304.01,-304.01,-304.01,-304.01,-304.01,-304.01,-304.01,-304.01,-304.02,-304.02,-304.03,-304.02,-304.03,-304.03,-304.05,-304.04,-304.04,-304.03,-304.03,-304.04,-304.04,-304.04,-304.04,-304.03,-304.02,-304,-304,-303.99,-303.99,-303.99,-303.99,-303.99,-303.99,-303.99,-303.99,-303.99,-304.02,-304.1,-304.22,-304.35,-304.59,-304.75,-304.76,-304.38,-303.83,-303.38,-303.02,-302.94,-303.08,-303.3,-303.57,-303.78,-303.91,-303.99,-304,-304.02,-304.03,-304.04,-304.04,-304.05,-304.05,-304.06,-304.06,-304.07,-304.08,-304.09,-304.09,-304.1,-304.1,-304.11,-304.12,-304.13,-304.13,-304.14,-304.15,-304.16,-304.16,-304.17,-304.18,-304.19,-304.2,-304.21,-304.22,-304.23,-304.24,-304.25,-304.26,-304.26,-304.27,-304.27,-304.28,-304.27,-304.28,-304.28,-304.28,-304.28,-304.28,-304.28,-304.28,-304.28,-304.28,-304.27,-304.27,-304.25,-304.23,-304.21,-304.18,-304.16,-304.14,-304.11,-304.09,-304.08,-304.07,-304.06,-304.05,-304.04,-304.03,-304.02,-304.02,-304.02,-304.02,-304.01,-304.02,-304.01,-304.01,-304.01,-304.02,-304.01,-304.02,-304.02,-304.02,-304.02,-304.02,-304.02,-304.02,-304.02,-304.02,-304.02,-304.02,-304.02,-304.02,-304.02,-304.02,-304.01,-304.01,-304.01,-304.01,-304.01,-304.01,-304.01,-304.01,-304,-304,-304,-304,-304,-304,-304,-304.01,-304.01,-304.02,-304.02,-304.02,-304.02,-304.03,-304.04,-304.03,-304.02,-304.02,-304.02,-304.03,-304.03,-304.02,-304.02,-304.01,-303.99,-303.98,-303.98,-303.97,-303.97,-303.97,-303.97,-303.97,-303.97,-303.96,-303.96,-304,-304.04,-304.09,-304.19,-304.33,-304.65,-304.76,-304.6,-304.15,-303.63,-303.24,-302.95,-302.98,-303.16,-303.4,-303.65,-303.82,-303.92,-303.98,-303.99,-304,-304.01,-304.02,-304.02,-304.03,-304.03,-304.04,-304.04,-304.05,-304.05,-304.06,-304.06,-304.07,-304.07,-304.08,-304.09,-304.1,-304.1,-304.11,-304.12,-304.12,-304.13,-304.14,-304.15,-304.16,-304.17,-304.18,-304.19,-304.2,-304.2,-304.21,-304.22,-304.23,-304.23,-304.23,-304.23,-304.23,-304.23,-304.23,-304.23,-304.23,-304.23,-304.23,-304.24,-304.24,-304.23,-304.23,-304.22,-304.2,-304.18,-304.16,-304.14,-304.12,-304.1,-304.08,-304.06,-304.04,-304.04,-304.02,-304.01,-304.01,-304,-304,-303.99,-303.99,-303.99,-303.98,-303.99,-303.99,-303.99,-303.99,-303.99,-303.99,-303.99,-303.99,-303.99,-303.99,-303.99,-303.99,-303.99,-303.99,-303.99,-303.99,-303.99,-303.98,-303.98,-303.98,-303.98,-303.98,-303.98,-303.98,-303.98,-303.98,-303.98,-303.98,-303.98,-303.98,-303.99,-303.99,-303.99,-303.99,-304,-304,-304.01,-304.02,-304,-303.99,-303.99,-304,-304,-304,-304,-303.99,-303.98,-303.97,-303.96,-303.95,-303.95,-303.95,-303.94,-303.94,-303.94,-303.94,-303.94,-303.95,-303.97,-304.05,-304.16,-304.29,-304.49,-304.66,-304.68,-304.48,-304.08,-303.9,-303.48,-303.14,-303.06,-303.16,-303.36,-303.55,-303.74,-303.85,-303.93,-303.97,-303.98,-303.98,-304,-304,-304.01,-304.01,-304.02,-304.02,-304.03,-304.03,-304.04,-304.04,-304.05,-304.06,-304.07,-304.07,-304.08,-304.09,-304.1,-304.1,-304.11,-304.12,-304.13,-304.14,-304.15,-304.16,-304.17,-304.17,-304.18,-304.19,-304.19,-304.2,-304.2,-304.21,-304.21,-304.21,-304.21,-304.21,-304.21,-304.21,-304.21,-304.21,-304.2,-304.21,-304.2,-304.2,-304.2,-304.19,-304.17,-304.15,-304.13,-304.11,-304.09,-304.07,-304.05,-304.04,-304.02,-304.01,-304,-304,-303.99,-303.99,-303.98,-303.98,-303.98,-303.98,-303.98,-303.98,-303.98,-303.98,-303.98,-303.98,-303.98,-303.98,-303.98,-303.99,-303.98,-303.99,-303.98,-303.99,-303.98,-303.99,-303.98,-303.98,-303.98,-303.98,-303.98,-303.98,-303.98,-303.98,-303.98,-303.98,-303.97,-303.97,-303.97,-303.97,-303.97,-303.97,-303.97,-303.98,-303.98,-303.99,-303.99,-303.99,-303.99,-304,-304.01,-304.02,-304,-303.99,-303.99,-304,-304,-304,-303.99,-303.99,-303.98,-303.97,-303.96,-303.95,-303.95,-303.95,-303.95,-303.95,-303.95,-303.95,-303.95,-303.95,-303.98,-304.07,-304.18,-304.32,-304.55,-304.69,-304.7,-304.33,-303.82,-303.4,-303.01,-302.93,-303.06,-303.17,-303.37,-303.64,-303.8,-303.92,-303.96,-303.99,-303.99,-304,-304.01,-304.02,-304.02,-304.03,-304.03,-304.04,-304.04,-304.05,-304.06,-304.06,-304.06,-304.08,-304.08,-304.09,-304.09,-304.1,-304.11,-304.12,-304.13,-304.14,-304.15,-304.16,-304.17,-304.18,-304.19,-304.2,-304.21,-304.22,-304.23,-304.23,-304.24,-304.24,-304.25,-304.25,-304.25,-304.25,-304.25,-304.25,-304.25,-304.25,-304.26,-304.25,-304.25,-304.24,-304.23,-304.21,-304.19,-304.17,-304.16,-304.13,-304.11,-304.08,-304.07,-304.05,-304.04,-304.02,-304.01,-304.01,-304,-303.99,-303.99,-303.99,-303.98,-303.98,-303.98,-303.98,-303.98,-303.98,-303.98,-303.98,-303.99,-303.98,-303.99,-303.99,-303.99,-303.99,-303.99,-303.99,-303.99,-303.99,-303.99,-303.99,-303.99,-303.99,-303.99,-303.99,-303.99,-303.98,-303.99,-303.98,-303.98,-303.98,-303.98,-303.97,-303.98,-303.97,-303.97,-303.97,-303.97,-303.97,-303.97,-303.97,-303.97,-303.98,-303.98,-303.98,-303.98,-303.98,-303.99,-304,-304.01,-304,-303.99,-303.99,-304,-304,-304,-304,-303.99,-303.98,-303.97,-303.96,-303.95,-303.95,-303.95,-303.95,-303.95,-303.94,-303.94,-303.94,-303.94,-303.96,-304.01,-304.12,-304.24,-304.46,-304.66,-304.75,-304.52,-304.01,-303.48,-303.11,-302.9,-302.89,-303.07,-303.27,-303.55,-303.74,-303.88,-303.95,-303.97,-303.98,-303.99,-304,-304.01,-304.01,-304.02,-304.02,-304.03,-304.03,-304.04,-304.04,-304.05,-304.05,-304.06,-304.07,-304.08,-304.08,-304.09,-304.1,-304.11,-304.12,-304.13,-304.14,-304.15,-304.16,-304.17,-304.17,-304.18,-304.2,-304.21,-304.21,-304.22,-304.22,-304.23,-304.23,-304.23,-304.24,-304.23,-304.24,-304.24,-304.24,-304.24,-304.24,-304.24,-304.24,-304.24,-304.23,-304.22,-304.2,-304.19,-304.17,-304.14,-304.11,-304.09,-304.07,-304.05,-304.04,-304.02,-304.01,-304,-303.99,-303.99,-303.98,-303.98,-303.97,-303.97,-303.97,-303.97,-303.97,-303.97,-303.97,-303.97,-303.97,-303.97,-303.98,-303.97,-303.98,-303.98,-303.98,-303.97,-303.98,-303.98,-303.98,-303.98,-303.98,-303.98,-303.98,-303.97,-303.97,-303.97,-303.97,-303.97,-303.97,-303.97,-303.97,-303.96,-303.96,-303.96,-303.96,-303.96,-303.96,-303.96,-303.95,-303.95,-303.95,-303.95,-303.95,-303.95,-303.94,-303.94,-303.94,-303.94,-303.94,-303.94,-303.94,-303.94,-303.94,-303.95,-303.96,-303.96,-303.96,-303.96,-303.96,-303.97,-303.98,-303.98,-303.97,-303.97,-303.97,-303.98,-303.98,-303.98,-303.98,-303.97,-303.95,-303.94,-303.93,-303.93,-303.93,-303.93,-303.93,-303.92,-303.92,-303.92,-303.92,-303.92,-303.95,-304.04,-304.16,-304.3,-304.53,-304.68,-304.68,-304.29,-303.74,-303.32,-302.96,-302.88,-303.02,-303.24,-303.51,-303.72,-303.85,-303.93,-303.94,-303.95,-303.96,-303.97,-303.97,-303.98,-303.98,-303.99,-304,-304.01,-304.01,-304.02,-304.02,-304.03,-304.03,-304.04,-304.05,-304.05,-304.06,-304.07,-304.07,-304.08,-304.09,-304.1,-304.11,-304.12,-304.13,-304.14,-304.15,-304.16,-304.16,-304.17,-304.18,-304.19,-304.19,-304.19,-304.2,-304.2,-304.2,-304.2,-304.2,-304.2,-304.2,-304.21,-304.21,-304.21,-304.21,-304.2,-304.2,-304.19,-304.17,-304.15,-304.13,-304.1,-304.08,-304.05,-304.03,-304.02,-304.01,-303.99,-303.98,-303.97,-303.96,-303.96,-303.95,-303.95,-303.95,-303.94,-303.94,-303.94,-303.94,-303.94,-303.94,-303.94,-303.94,-303.94,-303.94,-303.94,-303.95,-303.94,-303.95,-303.94,-303.95,-303.94,-303.95,-303.95,-303.95,-303.94,-303.94,-303.94,-303.94,-303.94,-303.94,-303.93,-303.93,-303.93,-303.93,-303.93,-303.93,-303.92,-303.92,-303.92,-303.92,-303.92,-303.92,-303.92,-303.92,-303.91,-303.91,-303.91,-303.91,-303.91,-303.91,-303.91,-303.91,-303.9,-303.91,-303.91,-303.91,-303.91,-303.92,-303.92,-303.92,-303.92,-303.93,-303.94,-303.95,-303.94,-303.93,-303.93,-303.94,-303.94,-303.94,-303.94,-303.94,-303.93,-303.93,-303.91,-303.9,-303.9,-303.89,-303.9,-303.89,-303.89,-303.89,-303.89,-303.89,-303.9,-303.96,-304.06,-304.16,-304.33,-304.45,-304.58,-304.63,-304.37,-303.98,-303.6,-303.2,-302.99,-303.05,-303.22,-303.42,-303.62,-303.76,-303.85,-303.91,-303.92,-303.94,-303.94,-303.95,-303.95,-303.96,-303.96,-303.97,-303.97,-303.99,-303.99,-304,-304,-304.01,-304.02,-304.03,-304.03,-304.04,-304.04,-304.05,-304.06,-304.07,-304.08,-304.08,-304.09,-304.1,-304.11,-304.12,-304.12,-304.13,-304.14,-304.15,-304.15,-304.15,-304.16,-304.16,-304.16,-304.16,-304.16,-304.16,-304.16,-304.16,-304.16,-304.15,-304.16,-304.15,-304.15,-304.15,-304.13,-304.12,-304.11,-304.09,-304.07,-304.04,-304.02,-304,-303.99,-303.98,-303.97,-303.96,-303.95,-303.94,-303.94,-303.94,-303.94,-303.93,-303.93,-303.93,-303.93,-303.93,-303.93,-303.93,-303.93,-303.93,-303.93,-303.93,-303.94,-303.94,-303.94,-303.94,-303.94,-303.94,-303.94,-303.94,-303.94,-303.94,-303.94,-303.94,-303.93,-303.93,-303.93,-303.93,-303.93,-303.93,-303.93,-303.93,-303.93,-303.92,-303.92,-303.92,-303.92,-303.92,-303.92,-303.92,-303.91,-303.91,-303.91,-303.91,-303.91,-303.91,-303.91,-303.91,-303.92,-303.93,-303.93,-303.93,-303.93,-303.93,-303.94,-303.95,-303.95,-303.94,-303.94,-303.94,-303.94,-303.95,-303.95,-303.95,-303.94,-303.93,-303.92,-303.91,-303.91,-303.9,-303.9,-303.9,-303.9,-303.9,-303.9,-303.9,-303.9,-303.92,-304,-304.12,-304.25,-304.47,-304.63,-304.67,-304.33,-303.81,-303.35,-302.98,-302.86,-302.96,-303.17,-303.42,-303.65,-303.73,-303.86,-303.92,-303.92,-303.94,-303.96,-303.96,-303.97,-303.97,-303.98,-303.98,-304,-304,-304.01,-304.01,-304.02,-304.03,-304.03,-304.04,-304.04,-304.05,-304.06,-304.07,-304.08,-304.09,-304.1,-304.11,-304.12,-304.13,-304.14,-304.15,-304.16,-304.17,-304.18,-304.19,-304.2,-304.2,-304.21,-304.21,-304.21,-304.21,-304.21,-304.22,-304.22,-304.22,-304.22,-304.22,-304.22,-304.22,-304.21,-304.2,-304.18,-304.16,-304.14,-304.11,-304.09,-304.06,-304.05,-304.03,-304.01,-303.99,-303.98,-303.97,-303.96,-303.96,-303.95,-303.95,-303.94,-303.94,-303.93,-303.93,-303.93,-303.93,-303.93,-303.93,-303.94,-303.94,-303.94,-303.94,-303.94,-303.94,-303.94,-303.94,-303.94,-303.94,-303.94,-303.94,-303.94,-303.94,-303.94,-303.94,-303.94,-303.94,-303.94,-303.94,-303.94,-303.94,-303.94,-303.93,-303.93,-303.93,-303.93,-303.93,-303.92,-303.92,-303.92,-303.92,-303.92,-303.92,-303.92,-303.91,-303.91,-303.91,-303.91,-303.91,-303.91,-303.92,-303.92,-303.93,-303.93,-303.93,-303.93,-303.93,-303.94,-303.95,-303.95,-303.94,-303.94,-303.94,-303.95,-303.95,-303.95,-303.95,-303.95,-303.93,-303.91,-303.91,-303.9,-303.9,-303.9,-303.9,-303.9,-303.9,-303.9,-303.9,-303.9,-303.94,-304.03,-304.15,-304.31,-304.54,-304.68,-304.71,-304.44,-303.93,-303.41,-303.04,-302.85,-302.92,-303.14,-303.38,-303.63,-303.78,-303.89,-303.92,-303.94,-303.94,-303.95,-303.95,-303.97,-303.97,-303.98,-303.97,-303.99,-303.99,-304,-304,-304.01,-304.01,-304.02,-304.03,-304.04,-304.05,-304.06,-304.06,-304.07,-304.08,-304.09,-304.1,-304.11,-304.12,-304.13,-304.14,-304.15,-304.15,-304.17,-304.17,-304.18,-304.19,-304.19,-304.2,-304.2,-304.2,-304.2,-304.2,-304.2,-304.2,-304.21,-304.21,-304.21,-304.21,-304.2,-304.19,-304.18,-304.16,-304.14,-304.12,-304.09,-304.06,-304.04,-304.02,-304,-303.99,-303.97,-303.96,-303.96,-303.95,-303.94,-303.94,-303.94,-303.93,-303.93,-303.93,-303.93,-303.93,-303.93,-303.93,-303.93,-303.93,-303.93,-303.93,-303.93,-303.93,-303.93,-303.93,-303.93,-303.94,-303.93,-303.94,-303.94,-303.94,-303.93,-303.93,-303.93,-303.93,-303.93,-303.93,-303.92,-303.92,-303.92,-303.92,-303.92,-303.92,-303.91,-303.91,-303.91,-303.91,-303.91,-303.91,-303.9,-303.9,-303.9,-303.9,-303.9,-303.9,-303.9,-303.9,-303.9,-303.9,-303.89,-303.9,-303.91,-303.91,-303.91,-303.91,-303.91,-303.91,-303.92,-303.93,-303.94,-303.93,-303.92,-303.93,-303.93,-303.93,-303.93,-303.93,-303.93,-303.91,-303.9,-303.89,-303.89,-303.88,-303.88,-303.88,-303.88,-303.88,-303.88,-303.88,-303.88,-303.91,-304,-304.11,-304.26,-304.49,-304.64,-304.64,-304.25,-303.7,-303.27,-302.91,-302.84,-303,-303.22,-303.35,-303.59,-303.76,-303.86,-303.9,-303.91,-303.92,-303.93,-303.94,-303.94,-303.95,-303.95,-303.96,-303.96,-303.97,-303.98,-303.98,-303.99,-304,-304,-304.01,-304.01,-304.02,-304.03,-304.04,-304.04,-304.05,-304.06,-304.07,-304.08,-304.09,-304.1,-304.11,-304.12,-304.13,-304.14,-304.14,-304.15,-304.16,-304.16,-304.17,-304.16,-304.17,-304.17,-304.17,-304.17,-304.17,-304.17,-304.17,-304.18,-304.17,-304.17,-304.15,-304.14,-304.12,-304.11,-304.08,-304.07,-304.04,-304.02,-304,-303.98,-303.96,-303.95,-303.94,-303.93,-303.92,-303.92,-303.91,-303.91,-303.9,-303.9,-303.9,-303.9,-303.9,-303.9,-303.9,-303.9,-303.9,-303.9,-303.9,-303.91,-303.9,-303.9,-303.9,-303.9,-303.9,-303.9,-303.9,-303.9,-303.9,-303.9,-303.9,-303.9,-303.9,-303.9,-303.9,-303.9,-303.89,-303.89,-303.88,-303.89,-303.88,-303.88,-303.88,-303.88,-303.88,-303.87,-303.87,-303.87,-303.87,-303.88,-303.88,-303.88,-303.88,-303.89,-303.89,-303.89,-303.89,-303.9,-303.91,-303.91,-303.89,-303.9,-303.9,-303.91,-303.9,-303.9,-303.9,-303.89,-303.87,-303.87,-303.86,-303.86,-303.85,-303.85,-303.86,-303.85,-303.85,-303.85,-303.85,-303.87,-303.94,-304.04,-304.15,-304.35,-304.53,-304.58,-304.43,-304.01,-303.62,-303.2,-303.04,-302.94,-303.03,-303.25,-303.43,-303.63,-303.74,-303.83,-303.86,-303.88,-303.88,-303.9,-303.9,-303.91,-303.91,-303.92,-303.92,-303.93,-303.93,-303.94,-303.94,-303.95,-303.95,-303.97,-303.97,-303.98,-303.98,-303.99,-304,-304.01,-304.01,-304.02,-304.03,-304.04,-304.05,-304.06,-304.07,-304.07,-304.08,-304.08,-304.09,-304.1,-304.1,-304.1,-304.1,-304.1,-304.1,-304.1,-304.1,-304.1,-304.1,-304.1,-304.1,-304.1,-304.1,-304.09,-304.08,-304.07,-304.06,-304.04,-304.02,-304,-303.98,-303.96,-303.94,-303.92,-303.92,-303.9,-303.89,-303.88,-303.88,-303.88,-303.88,-303.87,-303.87,-303.87,-303.87,-303.87,-303.87,-303.87,-303.87,-303.87,-303.88,-303.87,-303.87,-303.87,-303.88,-303.87,-303.88,-303.87,-303.88,-303.88,-303.88,-303.87,-303.88,-303.87,-303.87,-303.87,-303.87,-303.87,-303.87,-303.87,-303.87,-303.86,-303.86,-303.86,-303.86,-303.86,-303.86,-303.86,-303.86,-303.86,-303.87,-303.87,-303.87,-303.88,-303.88,-303.88,-303.89,-303.9,-303.9,-303.89,-303.88,-303.89,-303.89,-303.89,-303.89,-303.89,-303.88,-303.87,-303.86,-303.85,-303.84,-303.84,-303.84,-303.84,-303.84,-303.84
