3.922,3.9485,3.9762,4.0121,4.0363,4.0456,4.0708,4.0905,4.1112,4.1159,4.1529,4.1611,4.1619,4.1552,4.1416,4.1231,4.0936,4.0627,3.9961,3.9477,3.9058,3.8781,3.8376,3.7919,3.7552,3.7405,3.7294,3.7101,3.6748,3.644,3.6386,3.6345,3.6345,3.6184,3.6199,3.6187,3.6194,3.6118,3.6093,3.5928,3.5842,3.5951,3.6005,3.5959,3.5908,3.5886,3.5914,3.5999,3.6062,3.6043,3.61,3.6146,3.6166,3.6226,3.6015,3.5997,3.6101,3.6246,3.6234,3.6211,3.6126,3.6176,3.6293,3.6196,3.6206,3.62,3.6251,3.6309,3.6282,3.635,3.6252,3.6146,3.6147,3.612,3.6078,3.6092,3.6153,3.6187,3.6159,3.6005,3.6036,3.6063,3.6135,3.6159,3.6181,3.6092,3.6158,3.6123,3.6053,3.6019,3.5985,3.5963,3.6084,3.6203,3.6204,3.6048,3.6029,3.6087,3.616,3.6152,3.606,3.6033,3.6085,3.6094,3.6218,3.621,3.6186,3.6128,3.6262,3.621,3.6009,3.5962,3.6053,3.6227,3.6176,3.6085,3.6055,3.6063,3.6109,3.6119,3.6076,3.61,3.6151,3.6207,3.6258,3.6141,3.6089,3.6131,3.6245,3.6271,3.6256,3.6175,3.6229,3.6374,3.6267,3.6222,3.6063,3.6088,3.6214,3.6325,3.63,3.6317,3.6368,3.6442,3.6485,3.6533,3.6771,3.6907,3.6885,3.6809,3.6869,3.6751,3.6675,3.6592,3.6445,3.6188,3.6032,3.6027,3.6154,3.6179,3.6027,3.613,3.5989,3.6041,3.598,3.5921,3.4823,3.311,3.2455,3.3152,3.5599,3.9484,4.411,4.9178,5.2209,5.2401,4.8787,4.2852,3.8958,3.765,3.7254,3.6807,3.6505,3.6569,3.6608,3.6706,3.6571,3.6524,3.6531,3.6575,3.673,3.6635,3.6516,3.6536,3.6589,3.6768,3.6735,3.6792,3.6749,3.6918,3.703,3.697,3.6944,3.6853,3.7021,3.7141,3.7199,3.7199,3.7273,3.7304,3.7536,3.7549,3.7569,3.7654,3.7888,3.8083,3.8261,3.8259,3.8439,3.8654,3.8798,3.8936,3.8997,3.9207,3.9499,3.9796,4.0028,4.0171,4.0406,4.074,4.1052,4.1325,4.1454,4.1568,4.1827,4.1983,4.2053,4.2003,4.2072,4.1983,4.184,4.1702,4.1396,4.0918,4.0525,4.0018,3.9682,3.9283,3.8831,3.8515,3.8296,3.8038,3.7687,3.7607,3.7362,3.7218,3.7125,3.6969,3.691,3.6957,3.7064,3.7095,3.6912,3.6807,3.6774,3.6857,3.6953,3.6866,3.683,3.6784,3.6842,3.684,3.6826,3.6836,3.6886,3.6978,3.7031,3.6877,3.687,3.685,3.6872,3.6969,3.6908,3.6849,3.6748,3.6895,3.6996,3.7045,3.6925,3.6858,3.6985,3.6998,3.6986,3.6982,3.6916,3.6994,3.7104,3.7043,3.6929,3.6865,3.6923,3.7119,3.7119,3.7029,3.6917,3.692,3.7044,3.7082,3.6953,3.6826,3.6868,3.6889,3.6872,3.6876,3.6818,3.682,3.68,3.6832,3.6791,3.6784,3.6793,3.6735,3.6851,3.6842,3.6754,3.6779,3.6831,3.6822,3.6708,3.6729,3.6712,3.6859,3.6894,3.6786,3.6753,3.6647,3.6624,3.6827,3.6766,3.6667,3.6651,3.6697,3.6771,3.6724,3.6648,3.6618,3.6751,3.6772,3.6779,3.6695,3.6694,3.6748,3.6735,3.6676,3.6655,3.6572,3.6697,3.6712,3.6764,3.6769,3.681,3.6842,3.6844,3.6688,3.659,3.6582,3.663,3.6728,3.6817,3.683,3.6709,3.6805,3.6991,3.7098,3.6997,3.6948,3.7006,3.7287,3.7634,3.768,3.7491,3.7411,3.7556,3.7492,3.7239,3.6976,3.6791,3.6802,3.6678,3.6744,3.6687,3.6622,3.6746,3.6773,3.68,3.6632,3.6567,3.5853,3.4031,3.3394,3.3019,3.381,3.7084,4.1169,4.6449,5.1009,5.3673,5.2735,4.8839,4.2575,3.9375,3.8349,3.7888,3.76,3.7329,3.7403,3.7286,3.7413,3.7359,3.7358,3.7134,3.7256,3.7072,3.7313,3.7248,3.7305,3.7215,3.7276,3.7207,3.7462,3.7371,3.7458,3.7499,3.7659,3.7612,3.7693,3.765,3.7869,3.7852,3.8023,3.7933,3.7906,3.8019,3.8222,3.8387,3.8399,3.8406,3.8537,3.8763,3.8994,3.9123,3.9152,3.9316,3.955,3.9839,4.0038,4.0213,4.0452,4.0569,4.0897,4.1232,4.1344,4.1551,4.1873,4.2148,4.2321,4.2596,4.2632,4.2733,4.2683,4.2637,4.2434,4.2271,4.2051,4.1735,4.1349,4.0913,4.0621,4.0199,3.9819,3.9428,3.9225,3.8841,3.8534,3.8459,3.821,3.7972,3.7859,3.7767,3.7747,3.7773,3.7588,3.752,3.7403,3.7527,3.7546,3.7516,3.7512,3.753,3.7418,3.765,3.764,3.7561,3.7493,3.7478,3.7536,3.7541,3.7566,3.7561,3.7574,3.7658,3.7551,3.7551,3.7522,3.7748,3.7739,3.7809,3.7722,3.7632,3.7644,3.7693,3.7767,3.7774,3.7632,3.7567,3.7701,3.7798,3.7685,3.7676,3.7643,3.7762,3.7774,3.7699,3.7625,3.7685,3.7723,3.7647,3.7575,3.7545,3.751,3.7613,3.7739,3.7705,3.7601,3.7423,3.7462,3.7566,3.7492,3.7425,3.7391,3.7506,3.757,3.746,3.7435,3.7401,3.7507,3.7566,3.7582,3.7518,3.7508,3.7433,3.7625,3.766,3.7581,3.7541,3.746,3.7533,3.7586,3.7608,3.7671,3.7762,3.7741,3.7663,3.7496,3.7443,3.7565,3.7601,3.7724,3.7598,3.7503,3.7529,3.7652,3.7781,3.77,3.7648,3.7528,3.7625,3.7651,3.7663,3.7618,3.7659,3.7683,3.7765,3.7772,3.7657,3.7672,3.7674,3.7769,3.7738,3.7654,3.761,3.7662,3.7658,3.7702,3.7596,3.7558,3.7693,3.7877,3.7841,3.784,3.7866,3.7909,3.7927,3.8268,3.8346,3.8402,3.8381,3.8223,3.8358,3.8308,3.8074,3.7887,3.7795,3.7667,3.7489,3.7531,3.7565,3.7587,3.7596,3.7563,3.7596,3.7547,3.7436,3.6822,3.4984,3.4307,3.3793,3.4602,3.7544,4.1416,4.651,5.1198,5.4056,5.3492,4.9745,4.3449,4.0067,3.9135,3.8693,3.8235,3.7957,3.8073,3.8051,3.825,3.8014,3.8032,3.7874,3.7966,3.8029,3.8018,3.782,3.7836,3.7823,3.7962,3.7965,3.8017,3.7972,3.8063,3.828,3.825,3.8038,3.8066,3.8113,3.8389,3.8397,3.8458,3.8448,3.8518,3.85,3.8635,3.8758,3.8867,3.8941,3.9141,3.9223,3.9283,3.9385,3.9589,3.9887,3.9947,4.0288,4.043,4.0666,4.0914,4.1099,4.1382,4.161,4.1889,4.2134,4.2362,4.2505,4.2653,4.2728,4.3099,4.3273,4.3136,4.3144,4.305,4.2942,4.2604,4.2273,4.1828,4.136,4.0906,4.0846,4.0328,3.9887,3.9511,3.9149,3.8961,3.8784,3.8405,3.8307,3.8241,3.8204,3.8168,3.8073,3.7889,3.7737,3.7818,3.7857,3.7635,3.7653,3.7631,3.781,3.7809,3.7711,3.7597,3.7718,3.7854,3.7896,3.7807,3.7889,3.7861,3.7903,3.7941,3.8022,3.8034,3.8053,3.8047,3.8148,3.8102,3.8072,3.8052,3.812,3.8181,3.8179,3.8174,3.8091,3.8014,3.8095,3.821,3.8089,3.8181,3.8125,3.8197,3.8138,3.8128,3.7925,3.8006,3.8086,3.8049,3.8005,3.7945,3.7899,3.7908,3.8007,3.7957,3.7932,3.802,3.8195,3.8186,3.8023,3.8,3.8095,3.8116,3.8138,3.8158,3.8291,3.8211,3.8062,3.8136,3.8001,3.8007,3.8068,3.8042,3.8102,3.8056,3.8166,3.8162,3.834,3.8196,3.8167,3.8168,3.8171,3.8096,3.8088,3.8247,3.8155,3.8182,3.8269,3.8297,3.8327,3.8176,3.8234,3.8309,3.8326,3.8331,3.8225,3.8325,3.8243,3.8275,3.844,3.8382,3.8274,3.8296,3.8298,3.8243,3.8146,3.8181,3.8195,3.8342,3.8349,3.8316,3.8303,3.8311,3.8498,3.854,3.847,3.8507,3.8499,3.8574,3.8828,3.9089,3.913,3.8996,3.8862,3.9044,3.8883,3.869,3.8517,3.8469,3.8422,3.8341,3.8212,3.8171,3.8203,3.825,3.8162,3.8163,3.818,3.8143,3.7504,3.602,3.4889,3.497,3.6489,4.0173,4.4196,4.9018,5.2039,5.3323,5.2814,4.8796,4.3198,4.0068,3.934,3.8866,3.8789,3.8246,3.8369,3.8423,3.8611,3.859,3.8575,3.8597,3.8674,3.8729,3.8731,3.8638,3.871,3.8752,3.8846,3.8903,3.8847,3.8793,3.8931,3.9066,3.9095,3.8971,3.9083,3.9151,3.9265,3.947,3.9358,3.9362,3.9441,3.9607,3.9674,3.9793,3.9735,3.9864,4.0031,4.0197,4.0321,4.0419,4.0557,4.0852,4.0997,4.126,4.1472,4.1733,4.2071,4.2292,4.2492,4.268,4.3005,4.3216,4.3476,4.3607,4.3628,4.3733,4.3869,4.4123,4.4242,4.4105,4.3862,4.3566,4.3438,4.306,4.25,4.2038,4.172,4.1399,4.1067,4.0572,4.0147,3.987,3.9741,3.9478,3.9366,3.927,3.9171,3.9066,3.9003,3.89,3.8734,3.87,3.8757,3.8733,3.875,3.8703,3.8715,3.8777,3.8857,3.871,3.8592,3.8644,3.8707,3.8924,3.8909,3.8839,3.8736,3.8719,3.8823,3.8828,3.8739,3.8786,3.884,3.8891,3.892,3.8838,3.889,3.8966,3.898,3.8949,3.8859,3.8875,3.8995,3.9009,3.8963,3.892,3.8851,3.8763,3.8796,3.8946,3.8836,3.8793,3.8836,3.8778,3.8918,3.8848,3.8882,3.8826,3.8832,3.8864,3.881,3.8863,3.8806,3.8833,3.8855,3.874,3.8576,3.8702,3.8688,3.883,3.885,3.8665,3.8661,3.8718,3.8834,3.88,3.8716,3.8772,3.878,3.8839,3.8878,3.8759,3.872,3.8718,3.8882,3.8839,3.8704,3.8694,3.8779,3.8879,3.8889,3.8753,3.8725,3.8773,3.8794,3.8798,3.879,3.8769,3.881,3.8885,3.8752,3.865,3.861,3.8724,3.8803,3.8902,3.8872,3.8785,3.8785,3.8876,3.8842,3.877,3.8805,3.8826,3.8931,3.9037,3.8992,3.9064,3.9115,3.9189,3.9188,3.9084,3.9107,3.9411,3.9588,3.9553,3.9442,3.9382,3.937,3.9134,3.9125,3.9038,3.8867,3.8779,3.875,3.8764,3.8787,3.871,3.8751,3.8802,3.8743,3.8635,3.8422,3.7055,3.5576,3.5209,3.6149,3.9153,4.2937,4.7878,5.227,5.4842,5.3706,4.9519,4.3625,4.0868,3.9918,3.9554,3.9402,3.9054,3.932,3.9036,3.9108,3.8957,3.935,3.9278,3.9243,3.9062,3.897,3.8943,3.9174,3.9254,3.9255,3.9035,3.9198,3.9224,3.9418,3.9473,3.9523,3.9504,3.9688,3.963,3.9653,3.9641,3.9796,3.9968,4.0115,4.0042,4.0155,4.0204,4.025,4.0403,4.0476,4.0496,4.0688,4.0859,4.1096,4.1331,4.1395,4.1618,4.197,4.2081,4.2236,4.2454,4.2662,4.3126,4.34,4.3637,4.3754,4.4066,4.4198,4.4301,4.4467,4.447,4.4412,4.4383,4.4325,4.4117,4.3846,4.3436,4.3098,4.2881,4.2467,4.2118,4.1569,4.1317,4.0851,4.0579,4.0265,4.0007,3.9876,3.968,3.9608,3.9517,3.9472,3.9327,3.9253,3.9249,3.9297,3.9145,3.9143,3.912,3.9125,3.9169,3.9066,3.9118,3.911,3.917,3.9146,3.9032,3.9052,3.9123,3.9157,3.9159,3.9078,3.9059,3.9192,3.9334,3.926,3.9165,3.9122,3.9207,3.9315,3.9314,3.9358,3.934,3.9249,3.9348,3.9336,3.9316,3.9133,3.924,3.9313,3.9333,3.9267,3.9218,3.9333,3.9334,3.9244,3.9256,3.9195,3.9199,3.9268,3.9247,3.9207,3.917,3.9082,3.919,3.9196,3.9136,3.9036,3.9071,3.8989,3.9195,3.9071,3.9154,3.9138,3.917,3.9256,3.9216,3.9212,3.9091,3.9064,3.9276,3.938,3.9233,3.923,3.9149,3.916,3.9232,3.9288,3.9275,3.928,3.9257,3.9299,3.9257,3.9227,3.9165,3.9293,3.9384,3.9289,3.9168,3.9193,3.9292,3.9364,3.9386,3.9319,3.9198,3.9201,3.92,3.9262,3.9197,3.9269,3.9393,3.9428,3.9206,3.9168,3.9127,3.9144,3.9228,3.919,3.9194,3.9195,3.9229,3.9254,3.9276,3.9241,3.9268,3.9359,3.9596,3.9543,3.9465,3.9446,3.9452,3.9891,4.0055,3.994,3.9658,3.962,3.9847,3.9778,3.9528,3.9424,3.9282,3.9446,3.9249,3.907,3.9155,3.9187,3.9206,3.9136,3.9062,3.8979,3.8995,3.8379,3.6583,3.5531,3.5763,3.6419,3.9659,4.3718,4.8913,5.3274,5.6025,5.5087,5.1029,4.4776,4.1697,4.0802,4.026,3.995,3.9637,3.9775,3.9671,3.9905,3.9614,3.9674,3.9442,3.9585,3.9459,3.9827,3.961,3.9784,3.9624,3.9874,3.9793,3.9876,3.9766,3.9856,3.9839,4.0109,4.0067,4.0138,4.0125,4.0237,4.0293,4.0422,4.0331,4.0493,4.0405,4.0556,4.0607,4.0752,4.0833,4.0916,4.1072,4.1296,4.138,4.1401,4.1648,4.1947,4.2061,4.2339,4.2526,4.2758,4.3056,4.3237,4.3307,4.3472,4.3784,4.4064,4.4401,4.4489,4.4635,4.4792,4.4841,4.4891,4.4821,4.4684,4.4588,4.4401,4.4079,4.3598,4.3124,4.2643,4.2332,4.2011,4.1865,4.1479,4.1006,4.0767,4.065,4.0396,4.0157,4.0085,3.9983,3.9924,3.9902,3.9697,3.9652,3.9648,3.977,3.9653,3.9576,3.955,3.9691,3.9636,3.9648,3.9454,3.9529,3.9478,3.9621,3.9711,3.9603,3.9543,3.9657,3.9619,3.9703,3.9682,3.9722,3.9594,3.9737,3.9743,3.9787,3.9699,3.9813,3.9845,3.9859,3.9739,3.9638,3.9709,3.9795,3.9832,3.9799,3.9751,3.9706,3.9674,3.9784,3.9758,3.961,3.9611,3.9645,3.9643,3.9677,3.9594,3.9577,3.956,3.9542,3.9565,3.9555,3.9566,3.9586,3.9566,3.9549,3.9497,3.9542,3.9506,3.963,3.9604,3.9523,3.9489,3.9491,3.9554,3.9604,3.9488,3.9425,3.9379,3.9519,3.9557,3.951,3.9374,3.9411,3.9415,3.9512,3.9558,3.9458,3.9451,3.943,3.9539,3.9491,3.9367,3.9396,3.953,3.9558,3.9433,3.9387,3.9373,3.9459,3.9566,3.9461,3.9446,3.9362,3.9441,3.9417,3.9445,3.9471,3.9493,3.9444,3.9542,3.9435,3.9424,3.9398,3.9511,3.9493,3.9453,3.9455,3.9431,3.9584,3.9662,3.9731,3.9649,3.9642,3.9705,3.9772,4.0001,4.022,4.0192,4.0064,4.0133,4.0167,4.0103,3.978,3.9617,3.9539,3.9511,3.9433,3.9358,3.9247,3.9315,3.9308,3.9322,3.9166,3.9269,3.92,3.8898,3.7219,3.5752,3.5595,3.6956,4.0539,4.4529,4.984,5.3875,5.6288,5.6113,5.2606,4.6778,4.2187,4.102,4.0565,4.015,3.9703,3.9871,3.9822,3.9939,3.9833,3.9746,3.9605,3.9581,3.9603,3.9748,3.9739,3.9732,3.9704,3.9856,3.9759,3.9753,3.9742,3.9951,4.0062,4.0051,3.9898,3.9929,4.0126,4.0199,4.0234,4.0196,4.0182,4.028,4.0547,4.0648,4.0623,4.0753,4.0798,4.084,4.0948,4.1106,4.1248,4.1443,4.1625,4.1833,4.2008,4.2101,4.2471,4.2754,4.305,4.3242,4.3273,4.3562,4.3852,4.4024,4.4161,4.4439,4.4557,4.4712,4.4888,4.4904,4.4828,4.4614,4.4506,4.4352,4.4041,4.3523,4.3201,4.2797,4.2386,4.2025,4.1475,4.1021,4.0716,4.0502,4.0311,4.0071,4.0043,3.9798,3.9809,3.9648,3.9518,3.9395,3.9387,3.9353,3.9375,3.9334,3.9261,3.9148,3.9382,3.9391,3.9253,3.9168,3.9252,3.9332,3.9417,3.9377,3.9347,3.9262,3.9426,3.9504,3.9416,3.9382,3.9335,3.9439,3.9482,3.9506,3.9602,3.9571,3.9508,3.9458,3.9388,3.9299,3.939,3.9585,3.9647,3.9615,3.9504,3.9447,3.937,3.9389,3.9425,3.9236,3.9152,3.9262,3.935,3.9278,3.9275,3.9216,3.9377,3.9412,3.9297,3.9233,3.9209,3.9301,3.9274,3.9279,3.9297,3.9266,3.9116,3.922,3.9309,3.9175,3.9067,3.9041,3.9103,3.9278,3.9265,3.9126,3.9141,3.9192,3.9205,3.9222,3.9121,3.9227,3.9222,3.9267,3.9334,3.9097,3.9065,3.9098,3.9196,3.9289,3.9208,3.9263,3.9207,3.9173,3.9215,3.9196,3.9164,3.9282,3.9348,3.9346,3.923,3.9179,3.9131,3.9174,3.9332,3.9262,3.9251,3.9229,3.9245,3.9331,3.9197,3.9159,3.9224,3.931,3.9384,3.941,3.9456,3.9508,3.9741,3.9716,3.962,3.9537,3.9556,3.9817,4.0214,4.0125,3.9952,3.9821,4.0077,4.0208,3.9847,3.9729,3.9431,3.9551,3.9617,3.9624,3.939,3.9296,3.9445,3.9414,3.9318,3.9318,3.9263,3.8669,3.7076,3.5901,3.5985,3.7618,4.1301,4.5265,5.0216,5.3311,5.5016,5.257,4.756,4.2403,4.0688,4.0211,3.9902,3.986,3.9462,3.9896,3.9688,3.9985,3.984,4.0056,3.978,3.987,3.9764,4.0058,3.9976,4.01,3.9998,4.0215,4.0122,4.0307,4.0096,4.013,4.0167,4.0314,4.0298,4.0414,4.0406,4.0433,4.0431,4.0752,4.0729,4.0817,4.084,4.1086,4.1182,4.116,4.1254,4.1403,4.153,4.1743,4.1871,4.2035,4.225,4.2485,4.278,4.2892,4.3125,4.3291,4.3438,4.3624,4.3976,4.4154,4.4324,4.4521,4.4839,4.5037,4.5156,4.5285,4.5338,4.5321,4.5291,4.5132,4.4835,4.4512,4.4299,4.4027,4.3703,4.3125,4.2707,4.2348,4.2045,4.1513,4.1133,4.086,4.0799,4.0689,4.0544,4.0285,4.0161,4.0204,4.0208,4.0079,4.0036,4.0211,4.0262,4.0129,3.9974,3.9971,3.9943,3.9812,4.0013,3.9926,3.9912,3.9883,3.9941,3.9951,4.0054,3.9946,4.0051,3.9985,4.0076,4.0064,4.0074,3.9954,4.0057,3.9991,4.0098,4.0156,4.0184,4.0182,4.0071,4.009,3.9958,3.9852,3.9987,4.0066,4.0041,3.9898,3.9887,3.9957,3.9943,3.9919,3.9886,3.9787,3.9791,3.9897,3.9999,3.9861,3.976,3.9814,3.9865,3.9929,3.9923,3.9863,3.9813,3.9843,3.9956,3.9667,3.9637,3.9796,3.9855,3.9888,3.9846,3.9757,3.9698,3.9774,3.9844,3.9867,3.9769,3.9821,3.9781,3.99,3.9893,3.981,3.9826,3.9837,3.9926,3.9852,3.974,3.9743,3.9797,3.9892,3.9824,3.9845,3.9819,3.9766,3.9957,3.9936,3.9865,3.9759,3.9765,3.9847,3.978,3.987,3.9768,3.9865,3.9955,4.0063,3.9991,3.9872,3.9832,4.0005,4.003,4.0133,4.0237,4.0138,4.0269,4.0398,4.0296,4.0383,4.0778,4.0806,4.0672,4.0567,4.0572,4.0506,4.0283,4.0187,4.0045,3.9973,3.9916,3.9936,3.9948,4.0051,3.9997,3.9977,3.9995,3.9989,3.9904,3.9426,3.7832,3.6783,3.6772,3.8049,4.1512,4.5417,5.0503,5.4199,5.6443,5.4189,4.9251,4.3784,4.2407,4.172,4.0939,4.0896,4.0258,4.075,4.0559,4.0788,4.0513,4.064,4.0509,4.0736,4.0491,4.0607,4.0478,4.0785,4.0703,4.0731,4.0619,4.0733,4.0623,4.1001,4.085,4.0967,4.088,4.105,4.1118,4.123,4.1123,4.1314,4.1266,4.1468,4.1401,4.1593,4.17,4.1852,4.2056,4.213,4.2137,4.2189,4.2239,4.2512,4.2793,4.2952,4.311,4.3419,4.3695,4.3882,4.4083,4.4349,4.4627,4.4828,4.5099,4.5191,4.5398,4.5688,4.5883,4.5994,4.6002,4.5914,4.5855,4.5866,4.5782,4.5414,4.5096,4.4705,4.4335,4.3909,4.3511,4.3013,4.2705,4.2387,4.2238,4.1871,4.1675,4.1357,4.1292,4.1116,4.1033,4.0852,4.0961,4.0904,4.0955,4.0871,4.0785,4.0627,4.077,4.075,4.0903,4.079,4.0633,4.0593,4.0742,4.081,4.086,4.0713,4.0863,4.0918,4.0947,4.0927,4.0918,4.0882,4.0991,4.1044,4.1004,4.1036,4.1013,4.1037,4.1125,4.1051,4.105,4.1081,4.1324,4.126,4.1208,4.1145,4.1229,4.1259,4.1291,4.1226,4.1102,4.1067,4.1195,4.1163,4.1212,4.1106,4.1016,4.1077,4.1141,4.103,4.0979,4.09,4.097,4.1057,4.1059,4.1057,4.1066,4.1072,4.1101,4.108,4.1081,4.0979,4.1049,4.1058,4.1061,4.094,4.0969,4.0961,4.0978,4.105,4.0961,4.0928,4.0938,4.1022,4.1079,4.1106,4.1063,4.1147,4.111,4.1169,4.1127,4.1026,4.0949,4.1064,4.1172,4.1237,4.1122,4.1002,4.1125,4.1056,4.0965,4.0986,4.0988,4.1099,4.1193,4.1114,4.1021,4.1061,4.1139,4.1289,4.1185,4.1135,4.1047,4.119,4.1281,4.1284,4.1213,4.1345,4.1611,4.1718,4.1451,4.1351,4.1608,4.1908,4.1923,4.1636,4.1764,4.1914,4.1776,4.1579,4.1353,4.1278,4.1112,4.1215,4.1215,4.1311,4.1114,4.1152,4.1165,4.1361,4.1294,4.1027,3.9709,3.7974,3.7467,3.8174,4.0814,4.3053,4.7155,5.2972,5.6361,5.8496,5.592,5.0864,4.5339,4.347,4.2897,4.2297,4.1934,4.1943,4.2124,4.1956,4.1888,4.1662,4.1844,4.1792,4.1847,4.1611,4.169,4.1664,4.1871,4.1825,4.1857,4.1841,4.1921,4.1999,4.2151,4.2038,4.2111,4.2155,4.2325,4.2305,4.2364,4.2444,4.2669,4.2583,4.2596,4.2666,4.273,4.2798,4.302,4.3086,4.3128,4.3242,4.35,4.3605,4.3849,4.3933,4.4174,4.438,4.4644,4.4865,4.5084,4.5211,4.5549,4.586,4.5981,4.617,4.6402,4.6547,4.6722,4.6964,4.7037,4.6991,4.7037,4.7014,4.6989,4.6745,4.6313,4.595,4.5558,4.5169,4.4774,4.4321,4.3885,4.3773,4.3446,4.3153,4.2851,4.2519,4.2356,4.2276,4.2081,4.192,4.1784,4.1769,4.1786,4.183,4.1756,4.1717,4.1682,4.179,4.1756,4.1688,4.1627,4.1681,4.1704,4.177,4.1771,4.1694,4.1713,4.1727,4.1862,4.1776,4.1707,4.1816,4.1845,4.1894,4.1827,4.1789,4.188,4.1947,4.2031,4.1954,4.1941,4.1959,4.197,4.193,4.1915,4.1845,4.1804,4.1842,4.1905,4.1974,4.1889,4.1836,4.1808,4.1848,4.1778,4.1692,4.1653,4.169,4.1793,4.1787,4.1713,4.1667,4.1746,4.1761,4.1744,4.1682,4.1679,4.1633,4.1625,4.1771,4.1609,4.1511,4.1548,4.1571,4.1654,4.1642,4.1672,4.1791,4.1739,4.1675,4.1637,4.1549,4.1558,4.1765,4.1782,4.1689,4.1658,4.1574,4.1629,4.1731,4.1741,4.1718,4.1577,4.1639,4.1665,4.1595,4.1636,4.1627,4.1624,4.163,4.1584,4.1584,4.1665,4.1722,4.1681,4.1725,4.1643,4.1586,4.1577,4.1646,4.161,4.1567,4.1689,4.1693,4.1804,4.1793,4.1634,4.1584,4.1635,4.174,4.172,4.1781,4.1658,4.1738,4.188,4.192,4.1945,4.2194,4.2433,4.245,4.2324,4.2219,4.2279,4.2184,4.1948,4.1771,4.1627,4.1537,4.1538,4.1462,4.1634,4.1585,4.1571,4.1442,4.1447,4.1501,4.1434,4.0716,3.8893,3.7979,3.8182,4.0022,4.393,4.8268,5.379,5.7206,5.8596,5.5742,5.0205,4.7075,4.4268,4.3248,4.2809,4.2264,4.2187,4.2308,4.2315,4.2195,4.2163,4.2151,4.2163,4.2138,4.2066,4.2089,4.2154,4.225,4.2237,4.2196,4.2211,4.2274,4.2298,4.2403,4.2325,4.2338,4.2488,4.2451,4.2589,4.269,4.2659,4.2767,4.2933,4.2945,4.2839,4.2883,4.3079,4.3236,4.3404,4.3597,4.3784,4.3707,4.3839,4.406,4.4248,4.4543,4.4897,4.5029,4.5522,4.5665,4.5801,4.6294,4.6458,4.6795,4.694,4.713,4.7347,4.7513,4.7779,4.7864,4.7825,4.7769,4.7824,4.7635,4.7467,4.7092,4.6614,4.6305,4.5992,4.5521,4.4988,4.4506,4.4115,4.3731,4.3553,4.3137,4.271,4.2578,4.2528,4.2442,4.2364,4.2078,4.2073,4.2183,4.2147,4.2177,4.193,4.1799,4.1813,4.1989,4.1875,4.1905,4.1928,4.1823,4.1872,4.1701,4.1649,4.1691,4.1769,4.1776,4.1905,4.1823,4.1809,4.1888,4.1995,4.1989,4.2005,4.1909,4.189,4.2025,4.2022,4.1889,4.1873,4.1852,4.1963,4.1929,4.1874,4.1868,4.1937,4.2062,4.2159,4.2071,4.2086,4.2213,4.229,4.236,4.2399,4.2459,4.2195,4.2487,4.2383,4.2179,4.2125,4.2125,4.2228,4.2224,4.2051,4.1938,4.2042,4.2048,4.1949,4.1862,4.1642,4.1718,4.1733,4.1786,4.1773,4.1613,4.182,4.1764,4.167,4.1668,4.1521,4.1532,4.1651,4.1712,4.18,4.1947,4.1852,4.1916,4.1885,4.1905,4.1809,4.1858,4.1993,4.2109,4.22,4.2132,4.223,4.2335,4.234,4.2315,4.2441,4.2493,4.2627,4.2792,4.2735,4.2777,4.2783,4.2874,4.302,4.3191,4.3214,4.3032,4.3243,4.3309,4.3486,4.3664,4.3592,4.3762,4.3772,4.4083,4.4253,4.4623,4.4771,4.4811,4.4651,4.4611,4.4523,4.4465,4.4496,4.4362,4.4089,4.394,4.3866,4.3988,4.3965,4.3988,4.3916,4.3807,4.3839,4.3647,4.3165,4.1612,4.0366,4.0291,4.1808,4.3501,4.729,5.1863,5.66,5.9538,5.9833,5.6095,4.9748,4.5811,4.4801,4.4509,4.4111,4.3808,4.3856,4.4178,4.4263,4.4243,4.3989,4.3979,4.3885,4.4014,4.3882,4.394,4.392,4.4208,4.4083,4.4065,4.3885,4.3969,4.3998,4.4224,4.4096,4.4016,4.3964,4.4181,4.441,4.4449,4.4287,4.4371,4.4563,4.4677,4.4826,4.4939,4.5056,4.5287,4.5436,4.5564,4.5612,4.5781,4.5996,4.6192,4.6424,4.6618,4.6849,4.7141,4.7554,4.7834,4.791,4.822,4.8378,4.8643,4.9055,4.9108,4.922,4.9344,4.948,4.9544,4.9739,4.9675,4.9601,4.947,4.9213,4.8829,4.8425,4.8017,4.7574,4.7024,4.6597,4.6191,4.602,4.5774,4.5492,4.5151,4.4976,4.4658,4.4611,4.4566,4.4432,4.4247,4.4367,4.4389,4.4274,4.4095,4.4083,4.4097,4.4243,4.4344,4.4424,4.4411,4.4373,4.4443,4.4637,4.4456,4.4453,4.4566,4.4602,4.4768,4.4947,4.4838,4.4785,4.4884,4.4951,4.4974,4.5026,4.5093,4.5235,4.5329,4.5435,4.5352,4.5336,4.5344,4.535,4.5389,4.5404,4.5292,4.5293,4.5429,4.5244,4.5149,4.5142,4.5081,4.5165,4.5192,4.5097,4.4937,4.4977,4.4971,4.4868,4.4863,4.4801,4.4853,4.4834,4.4862,4.4824,4.4788,4.4712,4.4606,4.4786,4.4844,4.4865,4.4846,4.4811,4.4806,4.4754,4.4806,4.4805,4.4809,4.4838,4.482,4.4839,4.4809,4.4781,4.4833,4.4784,4.4678,4.4553,4.4467,4.4648,4.4565,4.443,4.444,4.4523,4.4581,4.4491,4.4499,4.4429,4.4474,4.4612,4.4631,4.4471,4.4521,4.4565,4.4551,4.4423,4.4419,4.4418,4.4415,4.4432,4.4533,4.4479,4.4608,4.4531,4.4639,4.4804,4.4808,4.4742,4.488,4.4998,4.5154,4.5104,4.4848,4.496,4.4892,4.4799,4.4606,4.4425,4.426,4.4246,4.4315,4.4219,4.4025,4.3968,4.3986,4.4166,4.4135,4.4007,4.3411,4.26,4.1074,4.0523,4.1534,4.4342,4.8253,5.2894,5.7663,6.0355,5.9982,5.6048,4.9743,4.6224,4.5188,4.4737,4.461,4.431,4.4648,4.4454,4.4495,4.4372,4.4585,4.46,4.4581,4.4367,4.4546,4.446,4.4732,4.4519,4.4498,4.4632,4.4699,4.4731,4.4775,4.4859,4.496,4.4934,4.5016,4.4953,4.5067,4.5136,4.525,4.529,4.5302,4.5457,4.5542,4.5628,4.5697,4.5966,4.6072,4.62,4.6522,4.661,4.6749,4.6854,4.7012,4.7207,4.7597,4.7858,4.7946,4.8062,4.8437,4.8727,4.9048,4.9267,4.9345,4.9735,4.9958,5.0152,5.0187,5.0272,5.0412,5.0396,5.0359,5.0065,4.9637,4.943,4.8943,4.8574,4.8279,4.7869,4.7359,4.7153,4.6848,4.6481,4.6204,4.6132,4.5953,4.5965,4.599,4.5844,4.5799,4.594,4.5884,4.588,4.57,4.5754,4.5713,4.571,4.5695,4.557,4.5567,4.5849,4.5822,4.5886,4.5912,4.5963,4.5966,4.5923,4.5957,4.5977,4.5785,4.5791,4.5824,4.5994,4.6033,4.6031,4.6072,4.6079,4.6015,4.5855,4.5729,4.5695,4.5729,4.5756,4.5654,4.5575,4.5585,4.56,4.5623,4.5599,4.5554,4.5479,4.5553,4.5584,4.5498,4.5503,4.5561,4.5569,4.5729,4.5883,4.5962,4.6134,4.6207,4.6335,4.6273,4.6197,4.6153,4.6195,4.6403,4.6406,4.6449,4.6463,4.6418,4.6454,4.6344,4.6219,4.6171,4.6124,4.6242,4.6398,4.6404,4.6408,4.6705,4.6814,4.6884,4.6862,4.6784,4.6551,4.6633,4.6622,4.6535,4.6435,4.6519,4.6438,4.6438,4.6475,4.6383,4.6549,4.6603,4.6745,4.6781,4.6811,4.6879,4.7149,4.7327,4.7527,4.7516,4.7547,4.745,4.7313,4.7084,4.6715,4.663,4.6691,4.6781,4.6607,4.637,4.6444,4.654,4.6642,4.6566,4.6467,4.6298,4.5407,4.3833,4.2902,4.3397,4.5842,4.9535,5.3718,5.7841,6.0307,6.0973,5.748,5.1923,4.9311,4.7422,4.6794,4.6649,4.6584,4.6525,4.6529,4.6743,4.6817,4.7021,4.704,4.7083,4.6985,4.7259,4.725,4.742,4.7328,4.7357,4.7261,4.7481,4.7497,4.76,4.754,4.7598,4.7757,4.7927,4.8031,4.8079,4.8142,4.8355,4.8428,4.8558,4.8622,4.8799,4.9223,4.9975,5.0156,5.0377,5.0474,5.062,5.0647,5.0739,5.0757,5.0754,5.0974,5.1173,5.1317,5.1527,5.1671,5.1826,5.2087,5.2319,5.2524,5.2619,5.2899,5.2971,5.3119,5.3223,5.3232,5.3162,5.3157,5.3136,5.2866,5.2423,5.2063,5.1836,5.1458,5.0918,5.0359,4.9967,4.9552,4.9143,4.8714,4.8421,4.8201,4.8046,4.7983,4.7708,4.7613,4.7564,4.7586,4.7578,4.7451,4.7222,4.7212,4.7303,4.7296,4.7252,4.7363,4.7246,4.7299,4.7274,4.7362,4.7257,4.7122,4.7231,4.7316,4.7247,4.7295,4.7255,4.7327,4.744,4.7409,4.7229,4.7177,4.7289,4.7384,4.7439,4.7406,4.736,4.7383,4.7365,4.7385,4.733,4.7237,4.7239,4.7335,4.7337,4.7213,4.7212,4.7192,4.7268,4.7206,4.715,4.712,4.6994,4.7103,4.7211,4.7165,4.7024,4.7085,4.7122,4.709,4.6934,4.6901,4.6854,4.6956,4.6922,4.6954,4.6874,4.6894,4.6893,4.7,4.7015,4.6866,4.6812,4.6755,4.6887,4.6858,4.6844,4.6865,4.6923,4.6909,4.6958,4.7071,4.7146,4.7164,4.7276,4.7344,4.7362,4.7241,4.7432,4.7689,4.7838,4.7771,4.7782,4.7793,4.7656,4.7444,4.7191,4.7034,4.6963,4.6938,4.6943,4.6952,4.676,4.6805,4.6815,4.6813,4.683,4.6835,4.6592,4.5736,4.4156,4.3543,4.4081,4.6466,5.0554,5.541,6.0291,6.304,6.3578,5.9882,5.3444,4.9222,4.8017,4.7685,4.7508,4.7299,4.745,4.7553,4.754,4.7637,4.758,4.7521,4.7387,4.737,4.7396,4.7469,4.748,4.7531,4.7566,4.7758,4.7748,4.7788,4.7784,4.7844,4.7848,4.7939,4.8016,4.8046,4.8018,4.8115,4.817,4.8268,4.8329,4.829,4.842,4.8479,4.8738,4.8731,4.8842,4.8997,4.9153,4.9364,4.9455,4.9552,4.9633,4.991,5.0185,5.0283,5.0484,5.0687,5.1057,5.1258,5.1462,5.1555,5.184,5.209,5.2293,5.2383,5.2452,5.2533,5.2594,5.261,5.2415,5.2259,5.2053,5.1736,5.1393,5.093,5.0478,5.013,4.9932,4.9652,4.9334,4.9,4.8648,4.8432,4.8357,4.8353,4.8135,4.8018,4.7992,4.8028,4.7826,4.7732,4.7747,4.7726,4.7739,4.7701,4.757,4.7489,4.7558,4.7625,4.7696,4.7661,4.7572,4.7552,4.7572,4.7608,4.762,4.7434,4.7427,4.7421,4.7461,4.7483,4.7353,4.7421,4.7401,4.7506,4.7529,4.7377,4.7427,4.7484,4.7575,4.7447,4.7344,4.7336,4.7434,4.7334,4.7287,4.7101,4.711,4.7149,4.714,4.7105,4.7042,4.7025,4.701,4.7077,4.6983,4.6862,4.6825,4.6909,4.6879,4.6862,4.6775,4.6734,4.6741,4.6894,4.6824,4.6594,4.6536,4.6634,4.6693,4.6662,4.6573,4.6502,4.6585,4.6676,4.6716,4.6568,4.6452,4.6372,4.6442,4.6425,4.6403,4.6289,4.6354,4.6476,4.6566,4.6406,4.6159,4.6245,4.6329,4.6421,4.637,4.6429,4.6535,4.6584,4.6729,4.6813,4.6914,4.6915,4.6897,4.6849,4.6745,4.6554,4.6191,4.6189,4.6089,4.601,4.5897,4.6003,4.5924,4.5979,4.61,4.5927,4.5797,4.5694,4.5551,4.4917,4.3132,4.2239,4.2518,4.4723,4.8734,5.3274,5.8439,6.1315,6.252,5.9196,5.2999,4.9917,4.7543,4.6757,4.6529,4.6028,4.6068,4.617,4.643,4.6383,4.6273,4.6124,4.6188,4.6208,4.6427,4.6391,4.6372,4.6404,4.645,4.6534,4.6552,4.6574,4.6464,4.6389,4.6293,4.6383,4.6322,4.6324,4.6461,4.6567,4.657,4.6582,4.6709,4.6845,4.6771,4.6933,4.6714,4.6968,4.7249,4.7536,4.7729,4.7739,4.7923,4.8045,4.8272,4.8388,4.8421,4.8462,4.8708,4.8838,4.9224,4.9209,4.9455,4.9568,4.981,5.0092,5.0187,5.0376,5.0538,5.0562,5.0615,5.0664,5.0601,5.0364,5.0148,4.9763,4.9516,4.9108,4.8548,4.8179,4.7903,4.7488,4.7118,4.6729,4.6376,4.6069,4.5895,4.5671,4.5533,4.5469,4.5459,4.5437,4.5322,4.5269,4.5316,4.5287,4.5169,4.5114,4.5062,4.501,4.5096,4.5163,4.5166,4.524,4.52,4.5235,4.5226,4.5059,4.4971,4.5101,4.5138,4.5259,4.5306,4.5264,4.5219,4.5276,4.5272,4.532,4.5292,4.5282,4.5365,4.5415,4.5381,4.5413,4.5345,4.5362,4.5466,4.5395,4.5388,4.5419,4.542,4.5505,4.5501,4.545,4.5342,4.551,4.5538,4.5482,4.5333,4.5232,4.5279,4.5362,4.528,4.5299,4.531,4.5252,4.5226,4.5225,4.5188,4.5127,4.5186,4.5258,4.5326,4.5239,4.5229,4.5345,4.5412,4.5494,4.5506,4.5371,4.542,4.5571,4.557,4.5465,4.5382,4.5423,4.5492,4.5542,4.5618,4.5608,4.5673,4.5638,4.5681,4.5673,4.5541,4.5399,4.5395,4.5523,4.5517,4.5515,4.5591,4.5542,4.5612,4.552,4.537,4.5296,4.5417,4.5477,4.5398,4.5336,4.5318,4.5369,4.536,4.5453,4.5292,4.5232,4.523,4.5379,4.5367,4.5254,4.5304,4.5394,4.5504,4.5519,4.5479,4.5471,4.5871,4.6163,4.6141,4.6163,4.6039,4.5993,4.5936,4.5875,4.5734,4.5505,4.5346,4.5249,4.528,4.5234,4.5086,4.5165,4.5226,4.5309,4.5215,4.5158,4.4428,4.2633,4.2014,4.1578,4.2576,4.5733,4.9604,5.4428,5.8709,6.1296,6.0275,5.6197,4.9933,4.6972,4.6191,4.5896,4.5806,4.5428,4.5723,4.5635,4.5682,4.5572,4.5523,4.546,4.5502,4.5424,4.552,4.5477,4.5717,4.5608,4.5733,4.5704,4.5846,4.5823,4.5797,4.5841,4.5954,4.6035,4.6108,4.6024,4.6142,4.6115,4.6184,4.6246,4.636,4.6471,4.6574,4.6661,4.6839,4.6809,4.7027,4.712,4.7318,4.7567,4.7619,4.7777,4.8071,4.8248,4.8572,4.8728,4.8937,4.9011,4.9284,4.9724,4.9863,4.9982,5.0221,5.0507,5.0727,5.0862,5.0897,5.1054,5.0998,5.1189,5.1083,5.0716,5.0384,5.0082,4.9746,4.9301,4.9043,4.8525,4.8028,4.7688,4.7272,4.6829,4.6487,4.6312,4.6132,4.6096,4.5859,4.5771,4.5647,4.5612,4.554,4.5484,4.5377,4.5517,4.552,4.5539,4.5519,4.5449,4.5362,4.5442,4.5525,4.5503,4.5505,4.5505,4.5585,4.5646,4.5557,4.551,4.5399,4.5531,4.5616,4.5627,4.5574,4.5546,4.5554,4.5656,4.5621,4.5538,4.5565,4.5587,4.5587,4.5608,4.5536,4.5523,4.5425,4.5502,4.5588,4.5501,4.5373,4.5417,4.5419,4.545,4.5283,4.5319,4.536,4.5322,4.5428,4.5376,4.5247,4.5225,4.5247,4.5317,4.5237,4.5249,4.527,4.5292,4.532,4.5271,4.5199,4.5206,4.5199,4.5312,4.5238,4.5195,4.5201,4.5289,4.5332,4.5291,4.5212,4.52,4.5224,4.5295,4.5203,4.5195,4.5304,4.5282,4.5302,4.5297,4.52,4.5233,4.5243,4.537,4.534,4.5198,4.528,4.5246,4.535,4.5365,4.5279,4.522,4.5295,4.5288,4.5342,4.5207,4.5365,4.5398,4.5419,4.5475,4.5403,4.5314,4.5318,4.533,4.5342,4.52,4.5266,4.5319,4.5453,4.5543,4.5469,4.5343,4.5385,4.5503,4.5547,4.5513,4.5977,4.6202,4.6017,4.5855,4.5883,4.5853,4.5705,4.553,4.5337,4.5276,4.5184,4.5169,4.5154,4.5159,4.5167,4.5108,4.5096,4.5128,4.5156,4.4972,4.3609,4.1818,4.1296,4.2306,4.5319,4.9225,5.4141,5.8721,6.1503,6.0666,5.8804,5.3674,4.7847,4.6719,4.6141,4.5957,4.5378,4.5431,4.5629,4.5695,4.5634,4.5623,4.5605,4.5536,4.5549,4.5443,4.55,4.5638,4.5658,4.5706,4.5687,4.5704,4.5781,4.5868,4.5925,4.5875,4.5909,4.5964,4.6041,4.6147,4.624,4.6275,4.639,4.6425,4.6531,4.6648,4.6735,4.6881,4.7051,4.7121,4.7286,4.729,4.745,4.7672,4.7852,4.8037,4.8119,4.8203,4.8599,4.8948,4.9218,4.9381,4.959,4.9881,5.0173,5.0443,5.0515,5.0628,5.0829,5.0931,5.1104,5.1172,5.1089,5.0969,5.0911,5.0672,5.0339,4.9897,4.9415,4.9056,4.8599,4.806,4.7596,4.7222,4.699,4.669,4.6317,4.6143,4.5978,4.5873,4.5852,4.5708,4.5541,4.5529,4.5479,4.5505,4.5409,4.5305,4.5259,4.5307,4.5375,4.54,4.5327,4.5352,4.5339,4.541,4.5328,4.5322,4.5292,4.5326,4.5474,4.5564,4.5456,4.5405,4.5382,4.5469,4.5486,4.5535,4.5562,4.5458,4.5579,4.5598,4.5514,4.5436,4.5429,4.5489,4.5469,4.5428,4.5358,4.5308,4.537,4.5447,4.5302,4.5224,4.5207,4.5208,4.5251,4.5248,4.5131,4.5113,4.5153,4.517,4.507,4.4943,4.5015,4.5149,4.5232,4.5151,4.502,4.4997,4.5042,4.5159,4.5117,4.5108,4.5008,4.5039,4.5132,4.5203,4.5079,4.4996,4.5069,4.5126,4.5164,4.5088,4.5033,4.5049,4.5086,4.5161,4.5066,4.4948,4.4994,4.5079,4.5094,4.5044,4.502,4.5052,4.5107,4.5079,4.4955,4.4924,4.4959,4.5032,4.5107,4.5034,4.5009,4.5038,4.5045,4.504,4.5091,4.5031,4.5018,4.5062,4.5136,4.5051,4.4898,4.4881,4.5021,4.5121,4.517,4.5119,4.5163,4.5242,4.5316,4.5296,4.5562,4.5778,4.5769,4.5692,4.5666,4.5682,4.5545,4.5421,4.532,4.5151,4.4955,4.4899,4.4914,4.488,4.4942,4.4834,4.4786,4.4856,4.484,4.4701,4.3493,4.1712,4.118,4.1347,4.3041,4.671,5.0806,5.6071,5.9741,6.1855,5.9569,5.4388,4.8464,4.6668,4.6248,4.5659,4.5455,4.53,4.5694,4.5469,4.5581,4.529,4.553,4.5401,4.5543,4.5363,4.5488,4.5323,4.5549,4.5547,4.5762,4.5582,4.582,4.5748,4.5862,4.5805,4.5903,4.5862,4.6039,4.6044,4.6198,4.608,4.6165,4.6241,4.6444,4.6495,4.6611,4.6646,4.6827,4.6889,4.712,4.7149,4.7291,4.7445,4.7669,4.7912,4.8128,4.814,4.8475,4.8644,4.8964,4.9071,4.9213,4.9453,4.9746,5.0071,5.0224,5.0347,5.0453,5.0766,5.0871,5.0903,5.0826,5.0842,5.0682,5.0541,5.0072,4.9741,4.9293,4.89,4.8515,4.8315,4.7784,4.7327,4.6994,4.6763,4.6386,4.6149,4.5821,4.5826,4.5664,4.5627,4.5466,4.5369,4.5367,4.5412,4.5364,4.5266,4.5138,4.5264,4.5245,4.5303,4.522,4.5289,4.515,4.5265,4.532,4.5364,4.518,4.5233,4.5341,4.5388,4.5318,4.5377,4.531,4.5477,4.5516,4.541,4.5369,4.548,4.5491,4.5494,4.5537,4.5446,4.5424,4.541,4.5494,4.546,4.5386,4.5418,4.5335,4.5466,4.5328,4.5329,4.5324,4.5308,4.5257,4.529,4.5179,4.5111,4.511,4.5241,4.5291,4.5157,4.5127,4.5128,4.5178,4.5199,4.5096,4.4975,4.5092,4.5108,4.515,4.507,4.5094,4.5137,4.5121,4.514,4.5058,4.4983,4.5001,4.5113,4.5215,4.5193,4.5029,4.5073,4.5167,4.5272,4.5184,4.5006,4.5104,4.5197,4.5185,4.5046,4.5103,4.5079,4.5119,4.5186,4.5163,4.5127,4.518,4.5035,4.5137,4.5164,4.517,4.5174,4.5192,4.5209,4.5175,4.5053,4.5112,4.5137,4.5181,4.5187,4.5197,4.5195,4.5279,4.5346,4.5353,4.5328,4.5299,4.5233,4.5431,4.587,4.6032,4.5871,4.5603,4.58,4.5833,4.5579,4.5327,4.5187,4.5209,4.5097,4.5046,4.5043,4.5134,4.5176,4.5132,4.5124,4.4984,4.4879,4.4657,4.338,4.1801,4.1257,4.2363,4.5463,4.9528,5.4417,5.8822,6.151,6.0617,5.648,5.0043,4.6924,4.6142,4.5802,4.5655,4.5314,4.5542,4.5318,4.5565,4.5367,4.5502,4.5309,4.5357,4.5317,4.5453,4.5447,4.5559,4.5418,4.5556,4.5548,4.574,4.5641,4.5759,4.577,4.5877,4.5806,4.5859,4.5816,4.6039,4.6101,4.6341,4.6213,4.6282,4.6385,4.6574,4.6733,4.6758,4.6768,4.6971,4.7172,4.7268,4.737,4.7493,4.771,4.7855,4.808,4.8245,4.8441,4.8736,4.9014,4.9287,4.9519,4.9746,4.9972,5.0188,5.0494,5.0653,5.08,5.0884,5.1041,5.1128,5.1057,5.0909,5.0674,5.0497,5.0323,4.9952,4.9487,4.8962,4.8476,4.8102,4.7725,4.722,4.7121,4.6679,4.6478,4.6303,4.5986,4.5787,4.584,4.5864,4.5822,4.5556,4.5521,4.5546,4.5666,4.5769,4.5704,4.5577,4.5618,4.5569,4.5663,4.5625,4.5622,4.5597,4.5635,4.5803,4.5878,4.5796,4.5925,4.5974,4.6071,4.5914,4.5941,4.594,4.5991,4.6047,4.598,4.5837,4.5773,4.58,4.5911,4.5833,4.5795,4.5743,4.5735,4.5762,4.5759,4.5702,4.565,4.5684,4.5749,4.5681,4.5657,4.5625,4.5565,4.5672,4.5808,4.5721,4.5713,4.5628,4.5671,4.5667,4.5592,4.5584,4.5524,4.5564,4.5629,4.5488,4.5427,4.5459,4.5519,4.553,4.5576,4.5529,4.5419,4.5461,4.5558,4.5552,4.5394,4.5425,4.5542,4.5783,4.5689,4.5636,4.5623,4.5691,4.5706,4.5579,4.559,4.5544,4.5587,4.5598,4.5529,4.5454,4.5423,4.5538,4.5644,4.5671,4.5517,4.5429,4.5436,4.5626,4.5637,4.5487,4.5496,4.5607,4.5761,4.5802,4.5801,4.5888,4.5785,4.5787,4.6095,4.634,4.6309,4.6292,4.6268,4.635,4.6333,4.6134,4.6058,4.6007,4.5963,4.5811,4.5753,4.5672,4.5716,4.5716,4.5693,4.5656,4.5656,4.5585,4.4821,4.3159,4.195,4.216,4.4377,4.818,5.2299,5.6829,5.9678,6.1161,5.8386,5.2959,4.7963,4.6506,4.6057,4.5943,4.5898,4.5611,4.5921,4.5837,4.6144,4.6053,4.6106,4.5924,4.6103,4.6025,4.6216,4.6145,4.6238,4.6174,4.6354,4.6416,4.6417,4.6376,4.6481,4.6574,4.6618,4.6593,4.6662,4.6608,4.6751,4.6825,4.6973,4.6959,4.7054,4.7138,4.7358,4.749,4.7623,4.7626,4.7757,4.7941,4.7934,4.81,4.8321,4.8697,4.8884,4.9094,4.9133,4.9311,4.9494,4.987,5.0139,5.0258,5.0469,5.0711,5.083,5.1049,5.1201,5.1323,5.1406,5.1546,5.1491,5.1264,5.109,5.0848,5.0502,5.0322,4.9827,4.9334,4.8976,4.8572,4.8161,4.7707,4.725,4.6956,4.6741,4.6582,4.631,4.6089,4.6075,4.6118,4.6022,4.587,4.5749,4.5702,4.5812,4.5806,4.5786,4.5705,4.5723,4.5795,4.5816,4.5793,4.5682,4.5745,4.5817,4.5951,4.577,4.5816,4.5801,4.5866,4.6015,4.6012,4.5894,4.5932,4.5926,4.5954,4.6079,4.6048,4.6087,4.6,4.6067,4.6024,4.6056,4.6057,4.6004,4.6136,4.6108,4.5978,4.5823,4.5892,4.592,4.5923,4.5844,4.5815,4.5844,4.586,4.5891,4.5813,4.5732,4.571,4.5771,4.5835,4.5702,4.5701,4.5706,4.5748,4.577,4.5751,4.564,4.561,4.5654,4.5692,4.5667,4.5619,4.566,4.5699,4.5791,4.5775,4.578,4.5688,4.5761,4.585,4.5762,4.5715,4.5689,4.5784,4.5774,4.5852,4.5775,4.5704,4.5788,4.5815,4.5814,4.5736,4.5745,4.5735,4.5902,4.5841,4.5843,4.5787,4.575,4.581,4.5916,4.594,4.6006,4.6013,4.6155,4.6195,4.6098,4.6302,4.6582,4.6629,4.6498,4.6391,4.6401,4.6356,4.6223,4.6135,4.5872,4.5669,4.561,4.5709,4.5702,4.5609,4.5544,4.5506,4.5561,4.5669,4.5483,4.4727,4.2943,4.1986,4.238,4.3034,4.6217,5.0381,5.5649,6.0322,6.2925,6.1852,5.7667,5.1299,4.8135,4.729,4.6723,4.6498,4.6363,4.6581,4.6422,4.648,4.6249,4.6343,4.6278,4.6428,4.6176,4.6283,4.6227,4.6487,4.6393,4.6525,4.6419,4.6579,4.6556,4.6772,4.663,4.6692,4.6717,4.6853,4.6894,4.6918,4.6837,4.7012,4.7037,4.7223,4.7265,4.7319,4.7362,4.7509,4.7768,4.7813,4.7792,4.8005,4.8211,4.8531,4.861,4.8743,4.901,4.9173,4.9506,4.9685,4.9908,5.0126,5.0285,5.0625,5.0913,5.102,5.1144,5.1269,5.1634,5.1707,5.182,5.1743,5.1684,5.1534,5.1288,5.09,5.0543,5.0124,4.9711,4.9267,4.878,4.8339,4.8177,4.7829,4.752,4.7248,4.6911,4.668,4.6635,4.6587,4.6461,4.6268,4.6187,4.6219,4.6253,4.6124,4.6175,4.6095,4.6132,4.6177,4.6156,4.6071,4.608,4.6138,4.629,4.6239,4.6235,4.6183,4.6215,4.6295,4.6298,4.6249,4.6278,4.6326,4.6439,4.6375,4.638,4.6302,4.6396,4.6527,4.6521,4.6429,4.6473,4.64,4.6497,4.6543,4.6443,4.6388,4.642,4.6513,4.6619,4.644,4.6368,4.6329,4.6387,4.6384,4.6386,4.6294,4.632,4.6374,4.642,4.6407,4.6279,4.6262,4.6355,4.6394,4.628,4.6267,4.6215,4.6213,4.6302,4.63,4.6168,4.6169,4.6217,4.626,4.6279,4.624,4.6256,4.6314,4.6302,4.6364,4.6251,4.6242,4.6228,4.6395,4.6425,4.6293,4.6266,4.6284,4.6327,4.6337,4.6277,4.6241,4.63
