8.0558,8.0694,8.0842,8.0902,8.1042,8.1173,8.1314,8.1467,8.1622,8.1835,8.1965,8.2078,8.2195,8.2392,8.2544,8.2563,8.2624,8.2791,8.2884,8.2901,8.2929,8.2851,8.2647,8.2432,8.2166,8.1845,8.1496,8.1193,8.0905,8.0575,8.0249,7.9999,7.9761,7.9673,7.951,7.9508,7.9334,7.9259,7.9117,7.9052,7.9006,7.8983,7.8918,7.8871,7.8859,7.8842,7.8844,7.879,7.8735,7.8776,7.872,7.8714,7.8737,7.8741,7.8734,7.8744,7.8779,7.8817,7.8872,7.8861,7.8858,7.8885,7.8873,7.891,7.8971,7.8923,7.8921,7.9073,7.8934,7.88,7.8825,7.8937,7.9061,7.8948,7.9074,7.879,7.8896,7.9194,7.9354,7.9469,7.9452,7.9592,7.9598,7.9668,7.9736,7.9823,7.9901,8.0007,8.0061,8.0178,8.0272,8.0403,8.0461,8.0533,8.0522,8.0583,8.0535,8.0487,8.0547,8.0587,8.0607,8.058,8.0596,8.0592,8.0511,8.05,8.0607,8.0682,8.0706,8.0697,8.069,8.0911,8.0906,8.0871,8.0951,8.1248,8.1607,8.1854,8.1684,8.141,8.1309,8.1198,8.1133,8.1107,8.0998,8.0655,8.0476,8.0483,8.0574,8.0467,8.0465,8.0397,8.041,8.0405,8.031,8.0213,8.0249,8.0276,8.0201,8.0082,7.9983,7.9391,7.8689,7.8664,7.8894,8.0117,8.3277,8.7438,8.8922,8.5789,8.1001,7.8649,7.7415,7.8089,7.8274,7.8584,7.893,7.8829,7.9514,8.0158,8.0598,8.0408,8.0429,8.0244,8.035,8.0241,8.03,8.0248,8.0392,8.0281,8.0496,8.0394,8.0496,8.0562,8.0658,8.0624,8.0742,8.0774,8.0848,8.0843,8.1022,8.1147,8.1158,8.1125,8.1408,8.1412,8.1332,8.1521,8.154,8.17,8.1821,8.1819,8.205,8.2214,8.2356,8.2434,8.2588,8.2824,8.2988,8.3108,8.3354,8.3455,8.37,8.3832,8.39,8.3976,8.4093,8.4164,8.4225,8.4177,8.4033,8.385,8.3589,8.3256,8.2947,8.2616,8.2221,8.1913,8.1611,8.1357,8.1053,8.0757,8.0506,8.0406,8.0324,8.0265,8.0147,8.0064,8.0002,8.0008,7.9921,7.9855,7.9812,7.975,7.9743,7.9763,7.9647,7.9664,7.9685,7.9653,7.9641,7.9646,7.957,7.957,7.9491,7.9494,7.9333,7.9357,7.9319,7.9329,7.9249,7.9294,7.9259,7.9245,7.9235,7.9224,7.9135,7.9303,7.9327,7.9407,7.9349,7.9408,7.938,7.9351,7.947,7.9595,7.9464,7.9481,7.9469,7.967,7.9624,7.9647,7.9616,7.9748,7.9862,7.9861,7.9968,7.9975,7.9999,8.0007,8.0057,8.0074,8.0119,8.0142,8.0187,8.0211,8.0271,8.0215,8.0185,8.0263,8.0328,8.0274,8.0287,8.0273,8.0269,8.0263,8.0295,8.0249,8.0229,8.0216,8.0217,8.0216,8.0208,8.0082,8.0102,8.0038,8.002,8.0007,8.0071,7.9972,7.981,7.9888,7.998,7.9863,7.9794,8.0033,8.0505,8.0707,8.0396,8.0201,7.9987,7.988,7.9933,7.9828,7.9734,7.9464,7.9305,7.9184,7.9187,7.9136,7.9138,7.916,7.9163,7.9135,7.9099,7.9053,7.9025,7.8972,7.8958,7.8984,7.8653,7.7839,7.7416,7.7459,7.7975,7.8583,8.0895,8.4833,8.7077,8.5569,8.1031,7.755,7.744,7.7871,7.7753,7.825,7.7806,7.8273,7.8914,7.9232,7.9119,7.9005,7.9035,7.9028,7.905,7.8989,7.9047,7.9078,7.9144,7.9092,7.9183,7.9129,7.9175,7.9175,7.9269,7.929,7.9365,7.9421,7.9523,7.9581,7.9687,7.9795,7.9933,7.9999,8.0067,8.0111,8.0221,8.0296,8.0398,8.0499,8.0634,8.0727,8.0862,8.0968,8.11,8.1211,8.1318,8.1383,8.1506,8.17,8.185,8.1939,8.2093,8.215,8.2306,8.2436,8.2504,8.2555,8.2519,8.2483,8.2353,8.2109,8.1808,8.1497,8.119,8.0854,8.0542,8.0258,7.9959,7.9726,7.9509,7.9315,7.9211,7.9088,7.8967,7.893,7.8878,7.8813,7.8837,7.8786,7.8742,7.872,7.8664,7.8695,7.8754,7.8761,7.8729,7.8657,7.862,7.8606,7.8622,7.8641,7.8599,7.8633,7.8656,7.8679,7.8725,7.8725,7.8715,7.8699,7.8679,7.8771,7.8756,7.879,7.8784,7.8836,7.8821,7.8854,7.8804,7.8786,7.878,7.8795,7.887,7.8837,7.8807,7.8889,7.8905,7.8867,7.8865,7.8834,7.8877,7.8912,7.8899,7.8941,7.8986,7.8916,7.8959,7.897,7.8957,7.8938,7.8925,7.8944,7.8965,7.8949,7.9006,7.9017,7.9045,7.9126,7.911,7.9173,7.9164,7.9044,7.8993,7.9107,7.9183,7.9175,7.9222,7.9562,7.9885,8.0086,7.9993,7.9727,7.9618,7.956,7.9531,7.9495,7.9368,7.9167,7.8994,7.8991,7.9019,7.9146,7.9008,7.9009,7.9064,7.8965,7.9026,7.9031,7.9013,7.9027,7.8997,7.9084,7.8971,7.8379,7.7649,7.752,7.7681,7.895,8.2058,8.6473,8.8116,8.4705,7.9598,7.5616,7.5689,7.6402,7.6651,7.7279,7.7292,7.7368,7.7774,7.8514,7.9097,7.9118,7.8993,7.9047,7.9088,7.9211,7.9248,7.9339,7.938,7.9454,7.9445,7.9574,7.9703,7.9732,7.9799,7.9921,7.9928,7.9973,7.9986,8.0098,8.0199,8.0283,8.0386,8.0483,8.0597,8.0691,8.0799,8.0939,8.1019,8.1123,8.1218,8.1343,8.1501,8.1614,8.1814,8.1808,8.2012,8.2209,8.2399,8.2521,8.264,8.2879,8.298,8.3116,8.3191,8.3329,8.3418,8.3445,8.3448,8.3348,8.312,8.289,8.2592,8.2217,8.1878,8.1661,8.1342,8.1015,8.0782,8.0509,8.0365,8.0112,7.9993,7.9848,7.9773,7.9605,7.9551,7.9489,7.9505,7.9468,7.9439,7.9468,7.9448,7.9463,7.9463,7.9399,7.9398,7.9451,7.9428,7.9505,7.9466,7.9469,7.9455,7.9397,7.9264,7.9243,7.9293,7.9329,7.9365,7.9345,7.9389,7.9478,7.9499,7.9495,7.96,7.9607,7.9617,7.9602,7.9555,7.954,7.9496,7.9588,7.9588,7.9588,7.9683,7.9661,7.9687,7.9709,7.9711,7.9686,7.9738,7.974,7.9746,7.9775,7.981,7.9828,7.9822,7.9766,7.979,7.9802,7.9807,7.9796,7.9929,7.9951,7.9932,7.9959,8.005,8.0076,7.9951,8.0092,8.0512,8.0817,8.089,8.0709,8.0456,8.0367,8.0258,8.0271,8.0205,8.0008,7.9853,7.9762,7.9706,7.9729,7.9687,7.9712,7.9682,7.9626,7.9644,7.9678,7.9676,7.9707,7.9644,7.9653,7.965,7.9495,7.8695,7.8114,7.8087,7.8533,8.0109,8.3536,8.7751,8.9023,8.5672,8.0709,7.7814,7.8039,7.8195,7.8266,7.8672,7.8457,7.8721,7.9303,8.0137,8.0268,8.021,8.0147,8.0157,8.0199,8.0251,8.0304,8.0333,8.0369,8.043,8.0441,8.0498,8.0557,8.0599,8.069,8.0757,8.0836,8.0898,8.0864,8.0887,8.0985,8.108,8.1138,8.1155,8.125,8.1357,8.1422,8.1504,8.1606,8.1703,8.1826,8.1963,8.2076,8.2171,8.225,8.2431,8.2571,8.2739,8.2866,8.2996,8.3162,8.326,8.3406,8.3534,8.3644,8.3712,8.3762,8.3792,8.3759,8.3617,8.3392,8.3087,8.2796,8.2406,8.2223,8.1911,8.16,8.1372,8.1088,8.0837,8.0626,8.0476,8.0371,8.0237,8.0128,8.0069,8.0013,8.0016,7.9962,7.9908,7.9856,7.9834,7.9822,7.9804,7.979,7.9723,7.9709,7.9708,7.9699,7.967,7.9662,7.9655,7.9669,7.9671,7.9639,7.9615,7.9638,7.964,7.9659,7.9682,7.9655,7.9643,7.9663,7.9671,7.9689,7.9668,7.9696,7.9658,7.9655,7.9687,7.9626,7.9625,7.9645,7.9669,7.9676,7.9667,7.9633,7.9663,7.9694,7.9702,7.9662,7.964,7.9632,7.9602,7.9588,7.9588,7.959,7.9577,7.9559,7.9567,7.9538,7.9502,7.9504,7.9524,7.9515,7.9508,7.9482,7.9496,7.951,7.9616,7.9622,7.956,7.9519,7.9567,7.9721,7.9656,7.9619,7.9897,8.0464,8.0598,8.037,8.0189,8.0053,7.9983,8.0022,7.9931,7.9781,7.9572,7.9375,7.9375,7.9377,7.9378,7.9301,7.932,7.933,7.9298,7.9308,7.9258,7.924,7.9254,7.9253,7.9237,7.9072,7.8306,7.7617,7.7568,7.7855,7.9075,8.2147,8.635,8.7723,8.7322,8.3596,7.8832,7.78,7.8079,7.8008,7.8241,7.8218,7.8413,7.9102,7.9754,7.9804,7.9645,7.9742,7.9697,7.9802,7.9754,7.9858,7.9805,7.9925,7.9938,8.0002,7.9941,8.0048,8.0047,8.0164,8.0143,8.0201,8.022,8.036,8.0385,8.0483,8.0523,8.0609,8.0627,8.0759,8.0817,8.0903,8.0929,8.1043,8.1164,8.129,8.1365,8.1486,8.1617,8.1757,8.1926,8.2079,8.2215,8.2416,8.2596,8.272,8.2877,8.3003,8.3167,8.3304,8.3385,8.3421,8.3499,8.3458,8.3436,8.3287,8.3051,8.275,8.2421,8.2094,8.1778,8.1448,8.1148,8.0852,8.0636,8.0411,8.0248,8.0053,7.996,7.9818,7.9826,7.9726,7.9661,7.9614,7.9582,7.9554,7.9546,7.9475,7.9433,7.9445,7.9412,7.9387,7.9365,7.9325,7.9307,7.9319,7.933,7.928,7.9253,7.9239,7.9249,7.9221,7.9292,7.9213,7.9208,7.9248,7.9287,7.9285,7.9251,7.9261,7.9289,7.9264,7.9284,7.9255,7.9267,7.9338,7.9374,7.9323,7.931,7.9312,7.9358,7.9323,7.9344,7.9336,7.9344,7.9334,7.9353,7.9336,7.9317,7.9274,7.9341,7.9337,7.9323,7.9281,7.9298,7.9296,7.9318,7.9273,7.9253,7.9234,7.9242,7.9228,7.9223,7.924,7.9212,7.9225,7.9258,7.9272,7.925,7.9213,7.922,7.917,7.9296,7.9366,7.9195,7.9213,7.929,7.9513,7.9459,7.937,7.9426,7.9834,8.0184,8.0217,7.9974,7.9825,7.9668,7.9681,7.9684,7.9521,7.9391,7.9183,7.9172,7.9112,7.9054,7.902,7.9064,7.9093,7.9116,7.9118,7.9142,7.9091,7.9077,7.9123,7.9065,7.9088,7.8756,7.7963,7.7636,7.779,7.8326,8.0184,8.4021,8.7522,8.7505,8.3433,7.8529,7.7162,7.7364,7.7637,7.7712,7.8119,7.7892,7.8241,7.8956,7.9532,7.9597,7.9433,7.9497,7.9509,7.9537,7.9483,7.9628,7.9601,7.971,7.9688,7.9764,7.9775,7.9908,7.9911,7.9965,7.9905,7.9989,8.0014,8.0181,8.0208,8.029,8.0278,8.0441,8.0455,8.0565,8.0551,8.0616,8.0753,8.0874,8.0886,8.1036,8.1088,8.1206,8.1346,8.1488,8.1576,8.173,8.191,8.1991,8.2191,8.227,8.2373,8.2458,8.2636,8.2777,8.2869,8.2932,8.3001,8.2897,8.2856,8.271,8.2492,8.2196,8.1848,8.1498,8.1235,8.089,8.0602,8.0316,8.0102,7.9896,7.97,7.9498,7.9375,7.9318,7.9259,7.9171,7.9126,7.9131,7.9103,7.9096,7.9041,7.8995,7.8957,7.893,7.8988,7.8949,7.8908,7.8869,7.889,7.889,7.8877,7.8884,7.8931,7.8883,7.8904,7.8892,7.8915,7.8897,7.8927,7.8943,7.8992,7.8899,7.8929,7.897,7.9013,7.8983,7.8989,7.9044,7.9082,7.9125,7.9072,7.9097,7.9103,7.9094,7.9119,7.9145,7.9128,7.9136,7.9154,7.9147,7.9157,7.9167,7.9168,7.9144,7.9147,7.9156,7.916,7.9186,7.9268,7.9343,7.9395,7.936,7.9359,7.9551,7.9552,7.9551,7.9576,7.9839,8.0167,8.0375,8.0187,7.9953,7.9856,7.9773,7.9809,7.9722,7.9552,7.9348,7.932,7.9303,7.9308,7.93,7.9287,7.9278,7.9301,7.9312,7.9335,7.9293,7.9334,7.9295,7.9336,7.9336,7.9232,7.8684,7.7985,7.7902,7.7988,7.9131,8.2011,8.6494,8.8551,8.5937,8.0966,7.6787,7.6473,7.7263,7.7208,7.7635,7.7857,7.7807,7.8298,7.9083,7.9775,7.9761,7.9711,7.9771,7.9749,7.981,7.9825,7.9882,7.9896,7.9985,8.0032,8.0052,8.0064,8.0122,8.0142,8.0219,8.0259,8.0307,8.0372,8.0466,8.0564,8.058,8.067,8.0753,8.0842,8.0944,8.1015,8.1101,8.1215,8.1359,8.1391,8.1526,8.1645,8.1788,8.1874,8.2045,8.2193,8.2288,8.2419,8.2605,8.2756,8.293,8.3029,8.3148,8.3287,8.3386,8.3448,8.3445,8.3365,8.3283,8.3195,8.2972,8.2629,8.2273,8.1939,8.1643,8.1345,8.1053,8.0782,8.055,8.0347,8.0223,8.0078,7.9978,7.9871,7.9853,7.979,7.9749,7.9668,7.9674,7.9658,7.9647,7.962,7.9572,7.9567,7.9564,7.9585,7.9592,7.9568,7.9553,7.9555,7.9596,7.9587,7.9607,7.9592,7.9621,7.9646,7.968,7.9642,7.9657,7.9676,7.9701,7.9699,7.9743,7.9731,7.9741,7.9797,7.9795,7.9788,7.9814,7.9809,7.9836,7.9853,7.9832,7.983,7.9806,7.9811,7.9809,7.9802,7.9788,7.98,7.9794,7.9826,7.9817,7.9789,7.9817,7.9839,7.9813,7.987,7.9832,7.9794,7.982,7.9833,7.9823,7.9831,7.9806,7.9826,7.982,7.9847,7.9847,7.9843,7.9849,7.9865,7.9888,7.9869,7.9863,7.9873,7.9858,7.9984,8.0034,8.0013,7.9932,8.0071,8.0165,8.0067,8.0106,8.0506,8.0771,8.1003,8.0803,8.0567,8.0419,8.0296,8.0367,8.0334,8.0251,8.0097,7.987,7.9801,7.9841,7.9828,7.9853,7.9822,7.979,7.9786,7.9784,7.9778,7.9795,7.9806,7.9817,7.9797,7.9742,7.9214,7.8372,7.8197,7.8212,7.9222,8.158,8.5676,8.854,8.7488,8.3361,7.9225,7.8855,7.9118,7.8993,7.8907,7.9077,7.9014,7.9522,8.0295,8.0348,8.029,8.0235,8.0298,8.0313,8.0321,8.0355,8.0419,8.0442,8.0505,8.0522,8.0565,8.0588,8.0629,8.0661,8.0729,8.0705,8.0776,8.082,8.0864,8.0944,8.0997,8.1063,8.1146,8.1208,8.1331,8.1382,8.1447,8.1544,8.1707,8.1756,8.1869,8.1965,8.2037,8.2134,8.231,8.2456,8.2564,8.271,8.2869,8.3032,8.3165,8.3279,8.3447,8.3547,8.3655,8.3766,8.3822,8.3849,8.3798,8.3691,8.3465,8.3308,8.3036,8.2716,8.2387,8.2093,8.1789,8.1462,8.1247,8.1008,8.083,8.066,8.0525,8.0416,8.0345,8.0253,8.0207,8.0208,8.0152,8.0135,8.012,8.009,8.0067,8.0046,8.0072,8.0052,8.0035,7.9998,8.0034,8.0006,8.0031,7.9996,7.9972,7.9992,8.0008,7.9984,8.0014,8.0004,8.0028,8.0054,8.0057,8.0054,8.0035,8.0018,8.0054,8.0091,8.0055,8.0061,8.0041,8.0086,8.0071,8.0084,8.0059,8.0072,8.0074,8.0124,8.0114,8.0122,8.0075,8.0092,8.0085,8.0101,8.0073,8.0062,8.0053,8.0056,8.0076,8.0074,8.0049,8.0069,8.0053,8.0097,8.0086,8.0075,8.0084,8.008,8.0116,8.0113,8.0105,8.012,8.0122,8.0164,8.015,8.013,8.0125,8.0141,8.0166,8.0173,8.0129,8.0134,8.0164,8.0168,8.0158,8.0175,8.0131,8.0119,8.0148,8.0161,8.0125,8.013,8.0115,8.014,8.0167,8.0136,8.0123,8.0143,8.0132,8.0168,8.0135,8.0111,8.0146,8.0133,8.0227,8.03,8.0215,8.0159,8.0276,8.0386,8.0346,8.0265,8.0384,8.0838,8.1237,8.1167,8.09,8.074,8.0572,8.0607,8.0608,8.0496,8.0322,8.0113,8.0061,8.0039,8.0018,8.0007,8.0023,8.0033,8.0012,8.0017,8.0018,8.0009,8.0011,8.0033,8.0019,8.0001,7.9696,7.8787,7.8348,7.8351,7.8951,8.0658,8.4504,8.8226,8.849,8.5216,8.2607,7.932,7.9186,7.9608,7.9173,7.9675,7.9041,7.9577,8.0048,8.0484,8.0278,8.0344,8.0259,8.0347,8.0279,8.0389,8.0355,8.0485,8.0435,8.0545,8.0492,8.0595,8.0585,8.0697,8.0691,8.0771,8.0777,8.0877,8.0903,8.0989,8.1008,8.1045,8.1124,8.1253,8.1282,8.1366,8.1429,8.1568,8.168,8.1711,8.1796,8.1907,8.2003,8.211,8.2228,8.2369,8.249,8.2624,8.2796,8.2929,8.3042,8.3149,8.3317,8.3439,8.358,8.3646,8.3733,8.377,8.3825,8.3763,8.3684,8.35,8.3336,8.3033,8.2746,8.2395,8.2106,8.1811,8.1602,8.1296,8.1135,8.0889,8.0736,8.0589,8.0522,8.0369,8.032,8.0197,8.0211,8.0141,8.0136,8.0099,8.0099,8.0036,8.0041,7.9998,8.0037,7.9992,8.0021,7.9991,8.0007,7.9985,7.9975,7.9972,8.0015,8.0018,7.9986,7.9969,7.9989,7.9998,8.0029,8.0044,8.0066,8.0045,8.0067,8.0104,8.0067,8.0046,8.0074,8.0077,8.0122,8.0075,8.0071,8.0067,8.0073,8.0074,8.0102,8.0088,8.0107,8.0095,8.0126,8.0116,8.0072,8.0064,8.0087,8.008,8.0089,8.0079,8.0059,8.0071,8.0078,8.0109,8.01,8.0076,8.0088,8.0075,8.01,8.009,8.0072,8.0086,8.012,8.014,8.0147,8.0126,8.0097,8.011,8.0147,8.0154,8.0125,8.0139,8.0162,8.0206,8.0143,8.014,8.0094,8.0107,8.0111,8.015,8.0117,8.008,8.0073,8.0146,8.0155,8.0141,8.0116,8.0111,8.0103,8.0133,8.0108,8.0078,8.0073,8.0122,8.0134,8.0115,8.0071,8.008,8.0071,8.0107,8.0087,8.0075,8.007,8.0092,8.0076,8.0048,8.0056,8.0075,8.007,8.0096,8.0061,8.0046,8.0028,8.0085,8.0159,8.0125,8.0075,8.004,8.0166,8.0231,8.0186,8.0177,8.0428,8.0911,8.1078,8.0854,8.0602,8.0492,8.0479,8.0485,8.0415,8.0247,7.9959,7.9881,7.988,7.9898,7.9868,7.986,7.9882,7.9944,7.9897,7.9861,7.9844,7.9857,7.9817,7.9848,7.9867,7.9709,7.9042,7.8356,7.8234,7.8411,7.952,8.2539,8.6781,8.829,8.809,8.4357,7.9569,7.8493,7.88,7.8842,7.892,7.8801,7.8725,7.929,7.9978,8.0149,7.9962,8.0001,7.9965,8.0078,8.0011,8.0083,8.0033,8.0151,8.0105,8.0172,8.0154,8.0271,8.0278,8.0424,8.0409,8.046,8.0456,8.0521,8.0528,8.0667,8.0711,8.0821,8.0813,8.0942,8.0979,8.1028,8.1063,8.119,8.1261,8.1325,8.1375,8.1498,8.1596,8.1744,8.1855,8.1934,8.2043,8.2202,8.2292,8.2452,8.2582,8.2702,8.2859,8.2971,8.3103,8.3175,8.3199,8.3249,8.3257,8.322,8.3118,8.2957,8.2728,8.2458,8.2202,8.1882,8.1569,8.1278,8.1092,8.0847,8.0644,8.0447,8.028,8.0073,8.0065,7.9909,7.9877,7.9812,7.9815,7.9678,7.9695,7.964,7.9625,7.9565,7.9587,7.9483,7.9552,7.9539,7.9468,7.9438,7.9472,7.9447,7.9459,7.9444,7.9504,7.9473,7.9525,7.9532,7.9457,7.9496,7.9551,7.9523,7.9589,7.9567,7.9545,7.9499,7.9568,7.9559,7.9514,7.9539,7.9607,7.9601,7.9603,7.9557,7.9599,7.9586,7.9583,7.9514,7.952,7.9482,7.9542,7.9522,7.9576,7.9551,7.952,7.9575,7.9583,7.9613,7.9543,7.9518,7.9472,7.9485,7.9522,7.9557,7.955,7.9541,7.96,7.9542,7.9553,7.9507,7.9533,7.955,7.9474,7.9445,7.9452,7.9484,7.9506,7.9523,7.9528,7.9552,7.9554,7.9513,7.9456,7.9467,7.9493,7.9481,7.9506,7.949,7.9488,7.9426,7.9409,7.9453,7.946,7.943,7.9445,7.9406,7.9424,7.9401,7.9429,7.9449,7.9439,7.9442,7.9448,7.9508,7.9516,7.9506,7.9476,7.9658,7.9735,7.9647,7.9711,7.9992,8.0264,8.0447,8.0229,8.0079,7.9924,7.9845,7.9834,7.9688,7.967,7.9464,7.9381,7.9333,7.9372,7.9429,7.942,7.9426,7.9383,7.936,7.9373,7.9399,7.9408,7.9409,7.9389,7.9414,7.9143,7.8471,7.813,7.8208,7.8244,7.9457,8.2338,8.6878,8.8577,8.5483,8.0266,7.608,7.6159,7.7208,7.7312,7.7847,7.7925,7.8086,7.8674,7.9434,7.9857,7.9927,7.9886,7.9912,7.9883,7.9913,7.9962,8.0011,8.0043,8.0116,8.0196,8.0256,8.03,8.0354,8.0323,8.0402,8.0447,8.0552,8.0623,8.0677,8.0695,8.0819,8.0861,8.0969,8.0959,8.1105,8.1172,8.1227,8.131,8.1487,8.1578,8.1652,8.1756,8.1874,8.2,8.2125,8.2208,8.2317,8.246,8.2608,8.2721,8.2832,8.2896,8.3065,8.32,8.3276,8.3344,8.3373,8.3389,8.342,8.3325,8.3137,8.2921,8.2602,8.2347,8.206,8.1779,8.1495,8.1264,8.0986,8.0754,8.0652,8.0508,8.0369,8.0255,8.0149,8.0033,8.0003,7.9989,7.9918,7.9885,7.9823,7.9809,7.982,7.981,7.9768,7.9743,7.9698,7.972,7.9734,7.9798,7.9761,7.9818,7.9799,7.9847,7.9872,7.9878,7.9849,7.9842,7.9867,7.9891,7.9878,7.9901,7.9907,7.9941,7.9913,7.9936,7.9915,7.9953,7.9938,7.9958,7.9942,7.9931,7.9886,7.9955,7.9944,7.9988,7.9902,7.9921,7.9914,7.9903,7.9906,7.9922,7.9914,7.992,7.9915,7.9941,7.9914,7.9932,7.9905,7.9939,7.9886,7.9897,7.9903,7.9895,7.9889,7.9912,7.9916,7.9898,7.9896,7.9906,7.9891,7.9925,7.9904,7.9894,7.9926,7.9923,7.9924,7.9897,7.9903,7.987,7.992,7.9899,7.9885,7.9869,7.9908,7.9937,7.9968,7.9935,7.9967,8.0004,8.0016,7.9958,8.0053,8.0165,8.0129,8.0118,8.0379,8.0584,8.0854,8.0874,8.065,8.0501,8.0331,8.0333,8.0324,8.0253,8.0056,7.9874,7.9801,7.9792,7.981,7.9843,7.981,7.9778,7.9784,7.9791,7.9763,7.9781,7.9766,7.9763,7.9763,7.9694,7.9183,7.8376,7.8215,7.83,7.9306,8.1827,8.61,8.877,8.7322,8.2736,7.822,7.7756,7.8273,7.8128,7.8299,7.8543,7.8438,7.8858,7.9625,8.01,8.0098,8.0006,8.002,7.9991,8.0067,8.01,8.0194,8.0153,8.0217,8.0228,8.0334,8.0365,8.0399,8.0415,8.0461,8.0511,8.0589,8.0595,8.0663,8.0736,8.0803,8.0899,8.0964,8.0998,8.1078,8.1168,8.126,8.1316,8.1416,8.1496,8.1617,8.1733,8.1814,8.1891,8.1984,8.2114,8.2294,8.2395,8.2527,8.2609,8.2765,8.2875,8.3005,8.3092,8.3179,8.3267,8.3312,8.3318,8.3283,8.3146,8.3001,8.2782,8.2652,8.2336,8.2006,8.1712,8.1441,8.1196,8.0931,8.0711,8.0528,8.0391,8.0266,8.011,8.0013,7.9966,7.9908,7.9864,7.9821,7.976,7.9743,7.9761,7.9711,7.9686,7.9659,7.9654,7.968,7.966,7.9668,7.9629,7.9634,7.9674,7.9663,7.9673,7.9616,7.9664,7.9662,7.9724,7.9672,7.9685,7.9699,7.9684,7.9736,7.9771,7.9752,7.9766,7.9763,7.9747,7.9777,7.9786,7.9782,7.9803,7.9804,7.9811,7.9809,7.9797,7.9757,7.9771,7.9767,7.9772,7.9743,7.977,7.9763,7.9764,7.9761,7.9785,7.9767,7.9767,7.9787,7.9784,7.975,7.9789,7.9814,7.9848,7.9852,7.9821,7.9812,7.9821,7.9841,7.9831,7.9821,7.9815,7.9828,7.9828,7.986,7.9829,7.9802,7.9811,7.9837,7.982,7.9816,7.982,7.9819,7.9851,7.984,7.9846,7.9824,7.9809,7.9828,7.9821,7.9824,7.9822,7.9776,7.9821,7.9828,7.9834,7.9804,7.98,7.9798,7.9808,7.9808,7.9791,7.9805,7.9778,7.9809,7.9802,7.977,7.9774,7.9775,7.98,7.9821,7.9814,7.986,7.9912,7.9893,7.9882,8.0021,7.9989,7.9938,8,8.0325,8.0767,8.0826,8.0559,8.0412,8.0255,8.0216,8.0225,8.0167,8.0093,7.9932,7.9701,7.963,7.966,7.967,7.9675,7.9689,7.9656,7.9628,7.9651,7.9663,7.965,7.9662,7.9645,7.9521,7.8906,7.8409,7.8025,7.797,7.8654,8.0282,8.4114,8.7887,8.8356,8.507,8.0324,7.8406,7.8799,7.8728,7.8783,7.8718,7.8747,7.9261,8.0043,8.0089,7.9985,7.9975,7.9936,7.9953,7.9975,8.0024,8.0057,8.0074,8.0125,8.0195,8.0232,8.0284,8.0305,8.0356,8.0384,8.045,8.0486,8.0556,8.0569,8.0634,8.0662,8.0731,8.0759,8.0832,8.0878,8.0956,8.1038,8.1133,8.1189,8.1258,8.1346,8.1464,8.1562,8.1673,8.1757,8.1861,8.201,8.2116,8.2235,8.2274,8.2425,8.2535,8.267,8.2754,8.2848,8.2942,8.3023,8.3054,8.3083,8.3044,8.2966,8.279,8.2561,8.2302,8.2003,8.172,8.1434,8.1173,8.0924,8.0798,8.0567,8.0375,8.0251,8.014,8.0014,7.9887,7.9795,7.9772,7.9714,7.9666,7.9611,7.9613,7.9594,7.9591,7.9549,7.9507,7.9534,7.9515,7.9539,7.9529,7.9489,7.9481,7.95,7.9505,7.9525,7.9485,7.948,7.9461,7.9452,7.9516,7.9499,7.949,7.9534,7.9516,7.9549,7.9531,7.9552,7.9571,7.958,7.9589,7.957,7.9572,7.959,7.9591,7.9615,7.9597,7.9536,7.9534,7.9578,7.9588,7.9581,7.9553,7.955,7.9553,7.9561,7.9541,7.9531,7.9552,7.9533,7.9552,7.9552,7.9522,7.9522,7.9526,7.9524,7.9557,7.9505,7.9513,7.9497,7.9548,7.954,7.9514,7.9543,7.9529,7.9549,7.9576,7.9561,7.9563,7.9531,7.9553,7.955,7.954,7.9514,7.9523,7.9515,7.9518,7.9537,7.952,7.9486,7.9529,7.9527,7.952,7.9511,7.9507,7.9495,7.9533,7.9559,7.9526,7.9515,7.9537,7.954,7.9551,7.9547,7.9532,7.9559,7.954,7.9572,7.9534,7.9537,7.9552,7.9568,7.9554,7.9557,7.9532,7.9519,7.9528,7.9542,7.9494,7.9504,7.9521,7.9532,7.9629,7.9613,7.9554,7.953,7.9662,7.9725,7.9635,7.9634,7.9991,8.0465,8.0582,8.0325,8.0086,8.0032,7.9942,7.9975,7.9912,7.9778,7.9603,7.9392,7.9409,7.9425,7.939,7.9403,7.9379,7.9401,7.94,7.9397,7.9386,7.9355,7.9376,7.9396,7.932,7.9129,7.8282,7.7741,7.7728,7.816,7.9636,8.3147,8.7147,8.8035,8.5143,8.0372,7.8116,7.8505,7.8599,7.8542,7.8639,7.8459,7.8951,7.9689,7.981,7.9729,7.9651,7.9617,7.9665,7.9658,7.9718,7.9723,7.977,7.9833,7.9842,7.9898,7.993,7.9995,8.0051,8.0097,8.0115,8.0147,8.0209,8.024,8.0328,8.0373,8.0407,8.0466,8.0545,8.0612,8.0665,8.075,8.0785,8.089,8.0992,8.109,8.1164,8.1255,8.1383,8.1492,8.1577,8.1683,8.1792,8.1849,8.1976,8.2161,8.2229,8.2354,8.2461,8.2557,8.2656,8.2736,8.28,8.2761,8.2773,8.2698,8.2575,8.237,8.2133,8.1886,8.1624,8.1314,8.1182,8.0896,8.0662,8.0497,8.029,8.0136,7.9971,7.9883,7.9756,7.9694,7.9586,7.9532,7.9482,7.9488,7.9445,7.9432,7.9409,7.9426,7.9367,7.9396,7.9393,7.9402,7.9325,7.9371,7.9366,7.9355,7.9321,7.9351,7.9389,7.9405,7.9391,7.9399,7.9431,7.9447,7.947,7.9446,7.9444,7.9492,7.9495,7.9483,7.9489,7.9454,7.947,7.9492,7.9517,7.9515,7.9503,7.9495,7.9533,7.9534,7.9506,7.9493,7.951,7.9487,7.9501,7.9477,7.9494,7.95,7.9519,7.9504,7.9459,7.9494,7.9463,7.944,7.9479,7.9491,7.9504,7.949,7.9478,7.9528,7.9513,7.9499,7.9502,7.9491,7.9494,7.9517,7.9516,7.9514,7.9505,7.9525,7.9567,7.9561,7.9539,7.9509,7.9543,7.9533,7.9546,7.9524,7.955,7.9507,7.9544,7.9577,7.956,7.956,7.9554,7.9546,7.9564,7.9574,7.9545,7.9513,7.9515,7.955,7.9533,7.9517,7.9504,7.9513,7.9525,7.9531,7.9502,7.9517,7.9515,7.9495,7.952,7.948,7.9467,7.9488,7.9504,7.9473,7.9467,7.9472,7.9499,7.9585,7.9593,7.9553,7.9562,7.969,7.9719,7.9598,7.9721,8.011,8.0482,8.0431,8.0231,8.0024,7.9889,7.991,7.9922,7.9823,7.9686,7.9427,7.9348,7.9341,7.9367,7.9381,7.9355,7.9336,7.9325,7.9331,7.9317,7.9319,7.93,7.9303,7.9331,7.9124,7.8348,7.7892,7.7642,7.7611,7.8461,8.0581,8.4731,8.7918,8.7227,8.3033,7.8415,7.7648,7.8155,7.8122,7.8409,7.8147,7.828,7.8789,7.9573,7.9674,7.9554,7.9531,7.9462,7.955,7.9574,7.9618,7.9587,7.9664,7.9721,7.9794,7.9799,7.987,7.9896,7.9914,7.9999,8.0023,8.0026,8.0139,8.0187,8.026,8.0281,8.0368,8.0391,8.045,8.0521,8.0572,8.0595,8.0739,8.0814,8.0948,8.1052,8.1114,8.1212,8.1314,8.1404,8.1533,8.1603,8.1744,8.1885,8.2002,8.2112,8.2242,8.2326,8.238,8.2478,8.2611,8.2738,8.2743,8.2738,8.2713,8.2635,8.2452,8.2207,8.1966,8.1671,8.143,8.1147,8.0852,8.071,8.0527,8.0311,8.013,7.9937,7.9805,7.9722,7.9616,7.9536,7.9485,7.944,7.9367,7.9349,7.9344,7.9285,7.9307,7.934,7.9319,7.9288,7.9306,7.9283,7.9294,7.9325,7.9314,7.9334,7.934,7.9322,7.9406,7.9447,7.942,7.942,7.9417,7.9482,7.9497,7.9523,7.9524,7.9543,7.952,7.9531,7.9548,7.9507,7.9553,7.9568,7.9575,7.9582,7.9549,7.957,7.9566,7.9558,7.9584,7.9568,7.9535,7.9529,7.9556,7.9553,7.9527,7.9565,7.9572,7.9592,7.9589,7.962,7.962,7.9622,7.9607,7.9639,7.965,7.9611,7.9583,7.9598,7.9625,7.963,7.9619,7.9652,7.9678,7.9733,7.9708,7.9697,7.9727,7.9726,7.9717,7.9732,7.9704,7.9743,7.9749,7.9737,7.9748,7.9727,7.9709,7.9735,7.9778,7.981,7.9784,7.9781,7.978,7.9791,7.9781,7.9795,7.9808,7.9798,7.9828,7.9846,7.9898,7.9937,7.9958,7.9893,7.9876,8.0045,8.0073,8.0065,8.0146,8.0481,8.0774,8.088,8.0736,8.0532,8.039,8.0398,8.0377,8.0242,8.0156,7.9943,7.9881,7.984,7.9844,7.9842,7.9859,7.9864,7.9871,7.9868,7.9864,7.9874,7.9896,7.9875,7.988,7.9813,7.9355,7.8899,7.8512,7.8449,7.8878,8.0606,8.4326,8.8311,8.8769,8.4279,7.9394,7.7139,7.7855,7.7969,7.8275,7.86,7.8445,7.8844,7.9554,8.0245,8.0269,8.023,8.0135,8.0233,8.0235,8.0293,8.0291,8.0369,8.0382,8.0473,8.0459,8.0566,8.0585,8.0631,8.0658,8.0755,8.0806,8.0914,8.0942,8.0977,8.098,8.1108,8.1154,8.1251,8.1339,8.1387,8.1489,8.1569,8.168,8.1735,8.1833,8.1936,8.2025,8.2128,8.2212,8.2366,8.2492,8.2589,8.2731,8.2791,8.2895,8.3006,8.3186,8.3275,8.334,8.3425,8.3492,8.3572,8.3573,8.3497,8.3382,8.3254,8.3,8.2713,8.2407,8.2082,8.1804,8.1529,8.1408,8.1174,8.0983,8.0778,8.0629,8.0539,8.0424,8.0286,8.0207,8.0174,8.0111,8.0058,7.9983,7.9929,7.9918,7.9892,7.9912,7.9916,7.9893,7.9861,7.9862,7.9872,7.9837,7.9828,7.9815,7.9854,7.9886,7.9893,7.9901,7.9897,7.9923,7.9933,7.9916,7.991,7.9932,8.0006,7.9998,7.9985,7.9966,7.9976,7.9988,8.0011,8.0015,7.9981,7.9989,7.9994,7.9988,7.9969,7.9951,7.9955,7.9939,7.9919,7.9929,7.9923,7.9911,7.99,7.9955,7.9923,7.9924,7.9908,7.9936,7.9972,7.9981,7.9969,7.9969,7.9948,8.0004,7.9978,8,8.0003,7.998,8.0026,8.0013,8.0041,8.003,8.0017,8.0049,8.0067,8.0056,8.0011,8.0009,8.003,8.0036,8.0054,8.0012,7.9982,7.9995,7.999,7.9987,7.9953,7.9958,7.9983,7.9995,7.998,7.9952,7.9926,7.9912,7.9925,7.9931,7.995,7.9898,7.9931,7.9934,7.997,7.9915,7.9937,7.9995,7.9984,7.9957,7.9999,8.0138,8.0095,8.0063,8.0236,8.0637,8.0957,8.0801,8.068,8.0507,8.0346,8.0323,8.034,8.0247,8.0061,7.9816,7.9733,7.9732,7.9748,7.9779,7.9774,7.9762,7.9703,7.9736,7.9707,7.9745,7.971,7.9734,7.9728,7.9583,7.8943,7.8221,7.8071,7.8207,7.9336,8.2143,8.6474,8.8692,8.6699,8.2208,7.841,7.8481,7.8656,7.8547,7.8933,7.8509,7.8614,7.9117,7.9878,8.0082,7.9988,7.9961,7.9931,8.0095,8.0018,8.0067,8.0161,8.0255,8.0106,8.0322,8.0477,8.0538,8.0497,8.0537,8.0546,8.0627,8.0644,8.0634,8.0721,8.0733,8.0841,8.0844,8.0938,8.0946,8.1089,8.1209,8.1364,8.1421,8.1562,8.1638,8.1753,8.1886,8.2062,8.211,8.2226,8.2298,8.2398,8.2554,8.2638,8.2754,8.2863,8.2956,8.305,8.3092,8.3167,8.3215,8.3319,8.329,8.3239,8.3148,8.2981,8.2832,8.2566,8.2232,8.2075,8.1805,8.1521,8.1314,8.1095,8.0819,8.0609,8.0457,8.036,8.0227,8.0102,8.001,7.9944,7.9908,7.9826,7.9787,7.974,7.9752,7.9755,7.9726,7.9734,7.97,7.9681,7.9685,7.9706,7.9721,7.9717,7.9708,7.9722,7.977,7.9741,7.9749,7.9767,7.9765,7.98,7.9795,7.9829,7.9832,7.9847,7.9872,7.9874,7.9903,7.9906,7.9924,7.9923,7.9937,7.9919,7.9911,7.9886,7.992,7.9905,7.9879,7.9849,7.9835,7.9845,7.9827,7.9806,7.9813,7.9797,7.9821,7.9797,7.9791,7.9776,7.9768,7.977,7.9801,7.9753,7.9714,7.9742,7.9756,7.9724,7.9746,7.9739,7.9695,7.9741,7.977,7.9761,7.9764,7.9752,7.9759,7.9765,7.9768,7.9716,7.9718,7.9731,7.9736,7.9747,7.974,7.9684,7.9703,7.9743,7.9739,7.968,7.9692,7.9674,7.9684,7.9687,7.9674,7.9642,7.9644,7.9652,7.9666,7.9669,7.9643,7.9628,7.9677,7.9745,7.9727,7.9643,7.9678,7.9863,7.9812,7.9741,7.9926,8.0362,8.073,8.0673,8.0426,8.0213,8.0015,8.0002,7.9978,7.9891,7.9712,7.9382,7.933,7.9358,7.9378,7.935,7.9369,7.935,7.9323,7.9298,7.9255,7.9279,7.9258,7.9271,7.9256,7.9167,7.8556,7.7794,7.764,7.7776,7.8747,8.1287,8.5397,8.7742,8.6128,8.1608,7.7765,7.7763,7.8116,7.7976,7.8474,7.8112,7.8192,7.8781,7.9485,7.9591,7.9429,7.9418,7.9377,7.9476,7.9429,7.9491,7.9494,7.9571,7.9578,7.9662,7.9663,7.9769,7.9737,7.9828,7.9843,7.9897,7.9892,7.9978,8.0013,8.0095,8.0148,8.0195,8.0233,8.0335,8.0407,8.0465,8.0524,8.0646,8.0708,8.0821,8.0907,8.0996,8.1062,8.1184,8.1344,8.1405,8.1476,8.1625,8.1745,8.1963,8.2054,8.2172,8.2235,8.2343,8.2441,8.2509,8.2558,8.2571,8.2548,8.2488,8.2304,8.2075,8.1831,8.1544,8.1389,8.1076,8.0813,8.0505,8.0273,8.004,7.985,7.9633,7.946,7.9334,7.9293,7.9232,7.916,7.908,7.8995,7.8965,7.8945,7.8889,7.8852,7.885,7.8895,7.8876,7.8884,7.8848,7.8839,7.8848,7.8849,7.886,7.8827,7.8805,7.8828,7.8858,7.8924,7.8921,7.8884,7.8895,7.8944,7.8984,7.8988,7.8994,7.8954,7.8975,7.8945,7.8939,7.8955,7.8963,7.8992,7.9015,7.9006,7.896,7.8962,7.8964,7.8983,7.892,7.8919,7.8857,7.8906,7.8889,7.8884,7.889,7.8916,7.8896,7.8901,7.8806,7.8813,7.8824,7.8838,7.8877,7.8895,7.8905,7.8838,7.886,7.8837,7.8859,7.8857,7.8867,7.8927,7.8897,7.8895,7.8902,7.8873,7.8854,7.8871,7.8864,7.8908,7.887,7.8859,7.8858,7.8861,7.8883,7.8908,7.8883,7.8902,7.8886,7.8883,7.8877,7.8856,7.8904,7.8893,7.8936,7.9013,7.9049,7.8979,7.8961,7.8966,7.9129,7.9127,7.9102,7.9309,7.967,7.9999,7.9882,7.9661,7.9518,7.9438,7.9378,7.9351,7.9221,7.9055,7.8872,7.8862,7.8844,7.8864,7.8899,7.8852,7.8873,7.885,7.8829,7.8835,7.8875,7.8875,7.8849,7.8869,7.8653,7.7896,7.7417,7.7388,7.7525,7.8603,8.1435,8.5908,8.7938,8.5336,8.029,7.6091,7.6058,7.6832,7.6871,7.7333,7.7356,7.7479,7.8168,7.8979,7.9234,7.913,7.9123,7.9069,7.9149,7.9188,7.9219,7.9312,7.9405,7.9357,7.9357,7.9424,7.9497,7.9593,7.9647,7.9652,7.967,7.9758,7.9858,7.9919,8.0008,8.0041,8.0099,8.0185,8.0206,8.0287,8.0415,8.0485,8.0567,8.0669,8.0735,8.0852,8.0923,8.1023,8.1157,8.1273,8.1432,8.1559,8.1649,8.1733,8.1865,8.1939,8.2077,8.2264,8.2377,8.2412,8.25,8.26,8.258,8.2589,8.252,8.2356,8.2133,8.1847,8.1527,8.1179,8.0855,8.062,8.0396,8.0156,8.002,7.9796,7.957,7.9441,7.9306,7.9233,7.9132,7.9069,7.9026,7.896,7.8984,7.8918,7.887,7.8896,7.8872,7.8856,7.8831,7.8826,7.8851,7.8861,7.8839,7.8905,7.8902,7.8967,7.9038,7.904,7.8978,7.9001,7.9021,7.9042,7.9087,7.9121,7.913,7.91,7.9153,7.9136,7.9125,7.9143,7.9167,7.9184,7.921,7.9165,7.9158,7.9155,7.9226,7.9219,7.9172,7.9186,7.9175,7.9186,7.9148,7.9148,7.9136,7.9104,7.9101,7.9167,7.9166,7.9159,7.9153,7.9164,7.9179,7.9159,7.9174,7.9162,7.9162,7.9152,7.916,7.9205,7.9225,7.9194,7.9208,7.9247,7.9212,7.9206,7.9203,7.9233,7.9222,7.9245,7.9237,7.9234,7.9276,7.9335,7.9324,7.9265,7.9294,7.9474,7.9494,7.9441,7.9547,7.9941,8.0288,8.016,7.9941,7.9829,7.9714,7.9661,7.9611,7.9546,7.9428,7.9197,7.9147,7.9126,7.914,7.9131,7.9133,7.91,7.9126,7.9149,7.912,7.9124,7.9102,7.9099,7.9132,7.9054,7.8498,7.7745,7.7648,7.7659,7.8114,7.9941,8.3719,8.7571,8.7937,8.3509,7.8496,7.6314,7.7017,7.7147,7.7379,7.7789,7.7623,7.8165,7.8896,7.9534,7.9435,7.9447,7.94,7.9463,7.9457,7.9567,7.9551,7.96,7.9658,7.9762,7.9729,7.9843,7.9827,7.9899,7.9939,8.0014,8.0024,8.0111,8.0166,8.027,8.0269,8.0317,8.0394,8.0485,8.055,8.0648,8.072,8.0798,8.0874,8.1021,8.1107,8.1173,8.1298,8.1456,8.1571,8.1671,8.1806,8.1913,8.2048,8.2179,8.2269,8.2396,8.2505,8.2571,8.2734,8.2823,8.2845,8.2865,8.2859,8.2785,8.2637,8.24,8.2118,8.1802,8.1515,8.1183,8.089,8.0618,8.0379,8.0175,8.0097,7.9911,7.9739,7.9628,7.9515,7.9452,7.9383,7.9344,7.9318,7.9275,7.9292,7.9252,7.9199,7.9183,7.9158,7.9195,7.9175,7.9169,7.9159,7.9158,7.9191,7.9185,7.9224,7.919,7.9254,7.9234,7.9255,7.9274,7.9285,7.9267,7.9336,7.9369,7.9375,7.9368,7.9397,7.9386,7.9389,7.9371,7.9375,7.9365,7.9405,7.9376,7.9407,7.9356,7.9364,7.9388,7.9385,7.9381,7.9336,7.9338,7.9359,7.9373,7.9373,7.9335,7.9347,7.9369,7.9347,7.9389,7.9379,7.9333,7.9355,7.9358,7.94,7.938,7.9376,7.9369,7.9384,7.9388,7.9374,7.9383,7.9382,7.9383,7.9412,7.9407,7.9404,7.9397,7.9404,7.9393,7.9439,7.9425,7.9409,7.9424,7.9411,7.9409,7.9386,7.9397,7.9364,7.9407,7.9431,7.941,7.9389,7.9428,7.941,7.9425,7.9384,7.9425,7.9485,7.9486,7.9458,7.9509,7.9643,7.9599,7.9605,7.9783,8.0182,8.045,8.031,8.0073,7.995,7.9822,7.985,7.9756,7.9651,7.9474,7.9257,7.9273,7.9279,7.9256,7.9273,7.9282,7.9212,7.9207,7.92,7.9211,7.9253,7.9221,7.919,7.9194,7.8924,7.8107,7.7607,7.7608,7.8087,7.9682,8.3373,8.5702,8.8101,8.6889,8.2214,7.8271,7.7778,7.8282,7.7922,7.845,7.7971,7.8454,7.8856,7.9649,7.957,7.9566,7.9475,7.9552,7.9489,7.9627,7.963,7.9699,7.9634,7.9726,7.9736,7.9826,7.9829,7.9911,7.9897,8.0002,7.9997,8.0118,8.0126,8.0186,8.0208,8.0276,8.0298,8.0398,8.0455,8.0556,8.0597,8.0693,8.0776,8.0844,8.0941,8.106,8.1153,8.1289,8.1371,8.1466,8.1643,8.1754,8.1905,8.1975,8.2113,8.2231,8.2361,8.2475,8.2587,8.262,8.2749,8.2773,8.2789,8.2757,8.2729,8.2558,8.2379,8.2103,8.1807,8.143,8.1169,8.0916,8.0675,8.0414,8.0216,8.0001,7.9873,7.9692,7.9619,7.9551,7.948,7.9382,7.9367,7.9285,7.9282,7.9216,7.9233,7.917,7.9196,7.9167,7.9192,7.9165,7.9205,7.917,7.919,7.9158,7.9169,7.9157,7.9163,7.9181,7.9193,7.918,7.9195,7.9208,7.9196,7.9208,7.9259,7.9221,7.9265,7.9226,7.9203,7.9203,7.9198,7.9213,7.9229,7.9211,7.9234,7.9223,7.9268,7.9227,7.9247,7.9212,7.9207,7.9249,7.9229,7.9165,7.9193,7.9184,7.9169,7.9163,7.9161,7.9121,7.9165,7.9165,7.9137,7.9129,7.9134,7.9126,7.9146,7.916,7.918,7.9161,7.9176,7.9179,7.9197,7.9191,7.92,7.9201,7.9194,7.9225,7.9236,7.9214,7.9209,7.9221,7.9204,7.9234,7.922,7.922,7.9238,7.924,7.9246,7.9223,7.9218,7.9237,7.9246,7.9252,7.9185,7.9211,7.9209,7.9242,7.9229,7.9183,7.9199,7.9228,7.9238,7.9253,7.9222,7.9202,7.9273,7.9327,7.9335,7.9298,7.9334,7.9455,7.9408,7.9408,7.9594,8.0063,8.0323,8.0149,7.9949,7.9787,7.9683,7.9718,7.9638,7.9605,7.9439,7.9163,7.9095,7.912,7.9095,7.9124,7.9074,7.9101,7.9083,7.9106,7.9086,7.9071,7.904,7.908,7.9055,7.8835,7.7962,7.7472,7.7437,7.7498,7.8505,8.0922,8.518,8.7901,8.6752,8.2451,7.824,7.7891,7.8215,7.8043,7.8417,7.8041,7.8315,7.8912,7.9448,7.949,7.9304,7.9356,7.9344,7.9404,7.9374,7.9485,7.9465,7.9532,7.9494,7.9632,7.9623,7.9695,7.9727,7.9774,7.9809,7.989,7.9885,7.9967,7.9992,8.0085,8.0121,8.0176,8.0183,8.0293,8.0359,8.046,8.0526,8.0588,8.0653,8.0788,8.0892,8.0966,8.1064,8.1179,8.1279,8.1443,8.1579,8.1688,8.1823,8.1938,8.1996,8.2133,8.2241,8.2348,8.2459,8.253,8.2607,8.2589,8.2599,8.2551,8.2411,8.2211,8.1975,8.1656,8.1365,8.1092,8.0849,8.0525,8.0301,8.008,7.9986,7.9812,7.9644,7.9503,7.9393,7.932,7.9266,7.9186,7.9146,7.9118,7.913,7.9079,7.9031,7.9026,7.9037,7.9046,7.9024,7.9044,7.9054,7.9033,7.9046,7.9042,7.9075,7.9019,7.9046,7.907,7.9106,7.9103,7.9085,7.9082,7.9105,7.9094,7.9135,7.9121,7.9142,7.9124,7.9181,7.9156,7.9155,7.9133,7.9167,7.9193,7.9172,7.9187,7.9177,7.9163,7.9188,7.9168,7.9151,7.9114,7.9105,7.91,7.9124,7.9094,7.9084,7.9048,7.9076,7.9073,7.9089,7.9072,7.907,7.9089,7.9084,7.9107,7.9111,7.909,7.9081,7.9099,7.9149,7.9108,7.9127,7.9109,7.9138,7.9165,7.9142,7.9137,7.9133,7.9128,7.9128,7.9143,7.9134,7.9125,7.9137,7.9138,7.913,7.9121,7.9137,7.914,7.913,7.9146,7.9096,7.9103,7.9133,7.9144,7.9126,7.9112,7.9106,7.9083,7.9149,7.9143,7.9128,7.9128,7.9102,7.913,7.915,7.912,7.9087,7.9088,7.9119,7.9141,7.9135,7.921,7.917,7.9164,7.9251,7.9376,7.9331,7.9228,7.9348,7.9752,8.0144,8.01,7.9872,7.9727,7.9554,7.9538,7.9513,7.9396,7.925,7.8999,7.8955,7.8952,7.8962,7.9009,7.9011,7.9022,7.8954,7.8962,7.8966,7.8995,7.8972,7.8968,7.8951,7.8898,7.8336,7.7542,7.7324,7.7434,7.8393,8.0975,8.5245,8.7858,8.6399,8.2026,7.9487,7.7579,7.7812,7.804,7.7946,7.8319,7.7946,7.8554,7.9134,7.9391,7.9166,7.9268,7.9108,7.9272,7.9168,7.9348,7.9296,7.9414,7.9317,7.9458,7.9396,7.9555,7.9487,7.9592,7.9554,7.9703,7.9681,7.9793,7.9788,7.993,7.9928,8.0029,8.0066,8.0124,8.0155,8.0257,8.0336,8.0446,8.0501,8.0565,8.0609,8.0762,8.0842,8.0971,8.1071,8.1168,8.1289,8.1443,8.1575,8.1691,8.1823,8.1974,8.2094,8.2201,8.2331,8.238,8.2428,8.2465,8.2486,8.242,8.2363,8.2206,8.1999,8.1709,8.141,8.107,8.086,8.0546,8.0329,8.0055,7.9912,7.964,7.9494,7.9352,7.9282,7.9112,7.9115,7.8993,7.898,7.8909,7.8821,7.8818,7.8859,7.88,7.8789,7.8744,7.8767,7.879,7.8764,7.8738,7.8712,7.8744,7.8779,7.8734,7.8782,7.8745,7.8832,7.8816,7.8864,7.8813,7.8851,7.8828,7.8866,7.8895,7.8959,7.8855,7.8838,7.8769,7.8854,7.8904,7.8928,7.8878,7.886,7.8841,7.8871,7.8876,7.8887,7.887,7.8892,7.8869,7.8861,7.8765,7.8796,7.8806,7.8812,7.881,7.8796,7.8783,7.8818,7.8823,7.8866,7.8854,7.8889,7.8834,7.8819,7.8834,7.8848,7.8865,7.8822,7.8916,7.8844,7.8819,7.8793,7.8824,7.8911,7.8933,7.8924,7.8869,7.8855,7.8896,7.8931,7.8897,7.8914,7.8874,7.8845,7.8858,7.8911,7.8894,7.8902,7.8892,7.8881,7.8913,7.8908,7.8917,7.8915,7.8901,7.8967,7.8985,7.9001,7.8976,7.9022,7.9171,7.9084,7.9115,7.9346,7.9533,7.9803,7.9883,7.9687,7.9556,7.9401,7.9385,7.9296,7.9187,7.8964,7.883,7.8803,7.8801,7.876,7.878,7.8784,7.8803,7.882,7.8805,7.8779,7.8832,7.8797,7.8798,7.8837,7.8742,7.8292,7.7635,7.7476,7.7559,7.8522,8.1339,8.579,8.8135,8.5941,8.0751,7.6114,7.5743,7.6604,7.6498,7.6875,7.7286,7.7206,7.762,7.8365,7.911,7.9145,7.9105,7.9064,7.9122,7.9165,7.9211,7.9269,7.9358,7.9374,7.9429,7.9443,7.9549,7.9556,7.9623,7.9651,7.9744,7.9773,7.9849,7.9899,7.9972,7.9991,8.0114,8.0147,8.0245,8.0334,8.0427,8.0522,8.0633,8.0737,8.0757,8.0913,8.0988,8.104,8.118,8.1311,8.1414,8.1535,8.1719,8.1874,8.2004,8.2124,8.2188,8.2371,8.2485,8.2587,8.2672,8.2726,8.2758,8.2763,8.265,8.2477,8.2349,8.2122,8.1842,8.1558,8.1216,8.0926,8.0606,8.0382,8.0143,7.9919,7.9708,7.9597,7.9487,7.941,7.9341,7.9239,7.9143,7.911,7.9043,7.905,7.9011,7.9016,7.8963,7.8992,7.8997,7.901,7.8975,7.9008,7.8989
