-21.787,-21.783,-21.767,-21.757,-21.752,-21.758,-21.766,-21.768,-21.778,-21.799,-21.839,-21.856,-21.88,-21.91,-21.943,-21.973,-21.998,-22.026,-22.037,-22.043,-22.063,-22.087,-22.098,-22.099,-22.101,-22.111,-22.121,-22.124,-22.128,-22.127,-22.127,-22.128,-22.143,-22.138,-22.131,-22.126,-22.125,-22.135,-22.138,-22.131,-22.133,-22.134,-22.14,-22.131,-22.128,-22.124,-22.124,-22.121,-22.122,-22.115,-22.116,-22.121,-22.122,-22.121,-22.123,-22.118,-22.123,-22.12,-22.12,-22.117,-22.12,-22.121,-22.128,-22.124,-22.128,-22.121,-22.136,-22.127,-22.139,-22.141,-22.139,-22.138,-22.14,-22.146,-22.147,-22.141,-22.145,-22.149,-22.161,-22.162,-22.156,-22.156,-22.162,-22.162,-22.157,-22.15,-22.164,-22.165,-22.169,-22.175,-22.168,-22.161,-22.175,-22.168,-22.158,-22.134,-22.128,-22.114,-22.105,-22.12,-22.116,-22.105,-22.094,-22.107,-22.113,-22.123,-22.108,-22.106,-22.113,-22.124,-22.145,-22.15,-22.172,-22.209,-22.207,-22.214,-22.215,-22.214,-22.216,-22.218,-22.216,-22.216,-22.219,-22.219,-22.229,-22.241,-22.247,-22.226,-22.207,-22.166,-22.083,-21.931,-21.721,-21.55,-21.564,-21.973,-22.397,-22.615,-22.642,-22.636,-22.63,-22.579,-22.509,-22.388,-22.28,-22.216,-22.184,-22.183,-22.175,-22.159,-22.166,-22.153,-22.149,-22.138,-22.138,-22.132,-22.127,-22.113,-22.105,-22.102,-22.107,-22.095,-22.079,-22.077,-22.066,-22.067,-22.065,-22.056,-22.048,-22.033,-22.02,-22.005,-21.997,-21.983,-21.968,-21.961,-21.946,-21.925,-21.915,-21.907,-21.889,-21.869,-21.857,-21.84,-21.83,-21.822,-21.816,-21.812,-21.799,-21.794,-21.806,-21.826,-21.852,-21.868,-21.896,-21.944,-21.975,-21.997,-22.029,-22.055,-22.082,-22.102,-22.119,-22.131,-22.135,-22.146,-22.158,-22.168,-22.169,-22.163,-22.158,-22.177,-22.186,-22.183,-22.18,-22.193,-22.195,-22.197,-22.192,-22.187,-22.18,-22.185,-22.184,-22.201,-22.192,-22.196,-22.189,-22.198,-22.196,-22.191,-22.193,-22.194,-22.197,-22.191,-22.195,-22.197,-22.197,-22.204,-22.199,-22.199,-22.195,-22.195,-22.21,-22.213,-22.206,-22.202,-22.212,-22.21,-22.229,-22.226,-22.229,-22.224,-22.233,-22.243,-22.241,-22.239,-22.241,-22.248,-22.251,-22.258,-22.25,-22.249,-22.252,-22.264,-22.262,-22.259,-22.257,-22.264,-22.263,-22.267,-22.272,-22.279,-22.276,-22.282,-22.291,-22.27,-22.278,-22.29,-22.29,-22.282,-22.254,-22.248,-22.227,-22.224,-22.236,-22.242,-22.243,-22.223,-22.215,-22.224,-22.241,-22.262,-22.247,-22.228,-22.248,-22.275,-22.295,-22.314,-22.347,-22.354,-22.361,-22.373,-22.361,-22.352,-22.361,-22.371,-22.385,-22.377,-22.373,-22.389,-22.391,-22.45,-22.467,-22.416,-22.353,-22.277,-22.143,-21.928,-21.729,-21.655,-21.94,-22.416,-22.623,-22.812,-22.833,-22.845,-22.863,-22.792,-22.705,-22.555,-22.51,-22.417,-22.399,-22.362,-22.366,-22.354,-22.369,-22.353,-22.356,-22.35,-22.372,-22.369,-22.382,-22.367,-22.363,-22.36,-22.366,-22.342,-22.332,-22.329,-22.361,-22.44,-22.452,-22.361,-22.292,-22.284,-22.281,-22.287,-22.271,-22.284,-22.298,-22.299,-22.303,-22.295,-22.272,-22.259,-22.269,-22.258,-22.258,-22.253,-22.262,-22.256,-22.27,-22.245,-22.246,-22.246,-22.258,-22.306,-22.338,-22.377,-22.383,-22.429,-22.471,-22.523,-22.529,-22.565,-22.602,-22.686,-22.694,-22.644,-22.635,-22.644,-22.651,-22.655,-22.651,-22.652,-22.655,-22.675,-22.647,-22.641,-22.611,-22.608,-22.622,-22.625,-22.607,-22.604,-22.589,-22.608,-22.621,-22.59,-22.583,-22.594,-22.616,-22.609,-22.575,-22.54,-22.54,-22.544,-22.539,-22.55,-22.553,-22.545,-22.537,-22.556,-22.551,-22.564,-22.568,-22.557,-22.57,-22.573,-22.579,-22.615,-22.728,-22.678,-22.608,-22.647,-22.605,-22.592,-22.593,-22.606,-22.591,-22.613,-22.629,-22.636,-22.63,-22.628,-22.616,-22.633,-22.633,-22.667,-22.656,-22.687,-22.725,-22.698,-22.653,-22.606,-22.592,-22.587,-22.602,-22.603,-22.598,-22.581,-22.57,-22.57,-22.555,-22.554,-22.562,-22.571,-22.604,-22.658,-22.639,-22.631,-22.619,-22.623,-22.663,-22.669,-22.694,-22.689,-22.685,-22.7,-22.731,-22.696,-22.705,-22.688,-22.699,-22.7,-22.706,-22.714,-22.712,-22.721,-22.739,-22.742,-22.688,-22.596,-22.464,-22.403,-22.36,-22.186,-22.165,-22.555,-22.943,-23.093,-23.092,-23.099,-23.116,-23.089,-23.053,-22.966,-22.855,-22.761,-22.71,-22.69,-22.668,-22.694,-22.769,-22.761,-22.766,-22.642,-22.562,-22.541,-22.574,-22.591,-22.606,-22.608,-22.608,-22.626,-22.587,-22.561,-22.567,-22.582,-22.606,-22.553,-22.543,-22.467,-22.423,-22.438,-22.504,-22.455,-22.44,-22.503,-22.543,-22.573,-22.537,-22.5,-22.463,-22.472,-22.449,-22.432,-22.404,-22.393,-22.395,-22.429,-22.464,-22.42,-22.389,-22.379,-22.369,-22.412,-22.438,-22.472,-22.507,-22.541,-22.556,-22.578,-22.579,-22.602,-22.627,-22.644,-22.652,-22.654,-22.648,-22.658,-22.675,-22.647,-22.638,-22.671,-22.691,-22.724,-22.735,-22.728,-22.709,-22.689,-22.681,-22.691,-22.692,-22.7,-22.687,-22.699,-22.687,-22.674,-22.663,-22.694,-22.672,-22.668,-22.673,-22.661,-22.661,-22.653,-22.682,-22.648,-22.644,-22.641,-22.644,-22.646,-22.659,-22.67,-22.634,-22.61,-22.614,-22.603,-22.599,-22.611,-22.627,-22.636,-22.636,-22.63,-22.612,-22.618,-22.641,-22.612,-22.612,-22.611,-22.603,-22.621,-22.617,-22.599,-22.576,-22.554,-22.536,-22.528,-22.512,-22.509,-22.505,-22.507,-22.471,-22.441,-22.413,-22.407,-22.397,-22.388,-22.379,-22.361,-22.349,-22.387,-22.411,-22.416,-22.427,-22.447,-22.447,-22.471,-22.425,-22.369,-22.304,-22.307,-22.363,-22.471,-22.498,-22.492,-22.523,-22.533,-22.52,-22.502,-22.502,-22.457,-22.433,-22.373,-22.221,-22.015,-21.823,-21.805,-22.171,-22.397,-22.69,-22.817,-22.799,-22.792,-22.743,-22.72,-22.646,-22.555,-22.439,-22.376,-22.315,-22.301,-22.286,-22.299,-22.271,-22.256,-22.237,-22.246,-22.244,-22.227,-22.207,-22.226,-22.194,-22.184,-22.188,-22.172,-22.156,-22.152,-22.151,-22.141,-22.115,-22.094,-22.083,-22.077,-22.068,-22.042,-22.006,-21.977,-21.955,-21.944,-21.956,-21.939,-21.929,-21.897,-21.89,-21.867,-21.847,-21.82,-21.808,-21.801,-21.782,-21.793,-21.755,-21.769,-21.783,-21.798,-21.821,-21.841,-21.868,-21.902,-21.935,-21.96,-21.98,-21.99,-22.022,-22.019,-22.023,-22.028,-22.058,-22.052,-22.078,-22.05,-22.038,-22.04,-22.042,-22.055,-22.038,-22.022,-22.017,-22.013,-22.027,-22.011,-21.999,-21.998,-21.999,-22.007,-22.007,-21.999,-21.987,-21.984,-21.982,-21.991,-21.974,-21.971,-21.97,-21.98,-21.981,-21.962,-21.958,-21.941,-21.944,-21.934,-21.95,-21.944,-21.947,-21.952,-21.95,-21.95,-21.95,-21.943,-21.952,-21.947,-21.945,-21.94,-21.945,-21.955,-21.964,-21.957,-21.952,-21.953,-21.943,-21.959,-21.961,-21.951,-21.935,-21.915,-21.914,-21.91,-21.896,-21.872,-21.876,-21.873,-21.838,-21.829,-21.836,-21.842,-21.855,-21.853,-21.863,-21.845,-21.851,-21.889,-21.903,-21.918,-21.941,-21.935,-21.947,-21.962,-21.957,-21.962,-21.969,-21.969,-21.953,-21.962,-21.949,-21.952,-21.958,-21.975,-21.97,-21.989,-21.997,-21.95,-21.92,-21.836,-21.631,-21.397,-21.229,-21.289,-21.721,-22.148,-22.353,-22.382,-22.373,-22.387,-22.334,-22.264,-22.132,-22.002,-21.925,-21.898,-21.871,-21.863,-21.854,-21.857,-21.833,-21.831,-21.818,-21.819,-21.802,-21.792,-21.779,-21.765,-21.739,-21.751,-21.744,-21.715,-21.71,-21.714,-21.702,-21.688,-21.662,-21.663,-21.659,-21.651,-21.63,-21.604,-21.59,-21.594,-21.58,-21.557,-21.521,-21.509,-21.496,-21.481,-21.466,-21.456,-21.444,-21.442,-21.42,-21.404,-21.389,-21.391,-21.393,-21.409,-21.419,-21.434,-21.465,-21.495,-21.531,-21.55,-21.58,-21.613,-21.635,-21.675,-21.698,-21.704,-21.722,-21.734,-21.753,-21.757,-21.774,-21.775,-21.76,-21.761,-21.775,-21.76,-21.762,-21.76,-21.758,-21.755,-21.737,-21.742,-21.757,-21.747,-21.761,-21.77,-21.76,-21.739,-21.731,-21.739,-21.744,-21.74,-21.747,-21.72,-21.736,-21.726,-21.73,-21.745,-21.757,-21.77,-21.774,-21.771,-21.773,-21.775,-21.785,-21.8,-21.798,-21.784,-21.781,-21.793,-21.8,-21.802,-21.815,-21.821,-21.834,-21.838,-21.837,-21.825,-21.833,-21.855,-21.869,-21.874,-21.86,-21.837,-21.836,-21.835,-21.842,-21.825,-21.825,-21.816,-21.781,-21.779,-21.798,-21.786,-21.806,-21.806,-21.82,-21.802,-21.796,-21.807,-21.822,-21.862,-21.885,-21.889,-21.882,-21.899,-21.903,-21.916,-21.905,-21.906,-21.91,-21.933,-21.934,-21.924,-21.91,-21.911,-21.931,-21.956,-21.937,-21.91,-21.879,-21.802,-21.666,-21.453,-21.266,-21.248,-21.621,-22.049,-22.271,-22.309,-22.303,-22.317,-22.289,-22.231,-22.144,-22.023,-21.948,-21.912,-21.897,-21.879,-21.857,-21.862,-21.855,-21.859,-21.84,-21.822,-21.82,-21.837,-21.815,-21.793,-21.773,-21.773,-21.76,-21.769,-21.748,-21.726,-21.719,-21.725,-21.723,-21.719,-21.693,-21.684,-21.661,-21.651,-21.649,-21.633,-21.61,-21.612,-21.603,-21.569,-21.559,-21.541,-21.518,-21.519,-21.498,-21.474,-21.532,-21.528,-21.501,-21.537,-21.543,-21.529,-21.543,-21.529,-21.49,-21.498,-21.521,-21.579,-21.627,-21.668,-21.69,-21.714,-21.741,-21.767,-21.785,-21.781,-21.779,-21.8,-21.812,-21.834,-21.821,-21.838,-21.832,-21.849,-21.86,-21.849,-21.843,-21.856,-21.856,-21.863,-21.878,-21.874,-21.873,-21.878,-21.894,-21.924,-21.926,-21.891,-21.878,-21.856,-21.867,-21.855,-21.864,-21.869,-21.865,-21.851,-21.862,-21.841,-21.834,-21.857,-21.922,-21.947,-21.922,-21.906,-21.948,-21.957,-21.94,-21.897,-21.905,-21.953,-22.043,-22.016,-21.833,-21.738,-21.731,-22.093,-22.181,-21.963,-21.893,-21.794,-21.763,-21.698,-21.74,-21.783,-21.819,-21.869,-21.89,-21.889,-21.836,-21.803,-21.941,-22.196,-22.192,-22.158,-22.07,-21.841,-21.76,-21.748,-21.802,-21.86,-21.915,-21.949,-21.927,-21.93,-21.95,-21.93,-21.969,-21.927,-21.903,-21.95,-22.03,-22.116,-21.942,-21.689,-21.538,-21.526,-21.786,-22.024,-22.142,-22.273,-22.302,-22.297,-22.229,-22.198,-22.155,-22.074,-22.008,-21.978,-21.964,-21.999,-22.008,-22.032,-22.104,-22.104,-22.329,-22.132,-21.945,-21.872,-21.799,-21.861,-21.88,-21.887,-21.864,-21.892,-21.877,-21.86,-21.8,-21.834,-21.796,-21.837,-21.894,-22.041,-22.007,-21.929,-21.929,-21.853,-21.861,-21.782,-21.785,-21.833,-21.836,-21.845,-21.829,-21.766,-21.811,-21.896,-21.781,-21.645,-21.599,-21.565,-21.641,-21.788,-21.761,-21.668,-21.507,-21.671,-21.851,-21.843,-21.851,-21.845,-21.862,-21.887,-21.925,-21.9,-21.952,-21.922,-21.953,-21.996,-22.075,-22.052,-21.987,-21.801,-21.707,-21.996,-22.095,-21.99,-21.907,-21.963,-21.986,-21.984,-21.902,-21.923,-22.018,-22.01,-21.995,-21.834,-21.701,-21.705,-21.826,-21.991,-22.118,-22.099,-22.019,-22,-21.957,-22.114,-22.151,-21.967,-21.8,-21.79,-21.818,-21.919,-21.974,-21.972,-21.928,-21.829,-21.861,-22.046,-22.037,-22.04,-21.925,-21.777,-21.885,-21.978,-22.055,-21.908,-21.839,-21.785,-21.796,-21.854,-21.843,-21.885,-21.871,-21.888,-21.89,-21.84,-21.806,-21.919,-21.989,-21.86,-21.705,-21.857,-22.139,-22.182,-22.175,-22.102,-21.976,-21.925,-21.938,-21.949,-21.973,-21.99,-21.945,-21.947,-21.965,-21.971,-21.918,-21.894,-21.952,-21.923,-21.687,-21.448,-21.411,-21.739,-22.119,-22.296,-22.32,-22.329,-22.345,-22.342,-22.321,-22.282,-22.236,-22.11,-22.042,-21.994,-21.995,-21.987,-21.982,-21.971,-21.98,-22.072,-22.02,-21.887,-21.816,-21.838,-21.937,-21.913,-21.95,-21.964,-21.944,-21.87,-21.873,-21.906,-21.724,-21.506,-21.762,-22.014,-22.089,-22.057,-21.999,-21.978,-21.958,-21.95,-21.872,-21.728,-21.681,-21.665,-21.712,-21.739,-21.709,-21.674,-21.701,-21.693,-21.679,-21.624,-21.459,-21.512,-21.687,-21.771,-21.783,-21.716,-21.809,-21.84,-21.831,-21.861,-21.882,-21.905,-21.946,-21.978,-21.984,-22.022,-22.059,-22.063,-22.071,-22.071,-22.108,-22.166,-22.115,-21.894,-21.81,-22.006,-22.418,-22.465,-22.313,-22.145,-22.106,-22.097,-22.073,-22.074,-22.149,-22.205,-22.105,-22.085,-22.098,-22.143,-22.093,-22.065,-21.969,-21.88,-22.088,-22.244,-22.229,-22.2,-22.192,-22.186,-22.113,-22.132,-22.219,-22.171,-21.987,-22.05,-22.145,-22.212,-22.184,-22.096,-21.993,-22.097,-22.077,-22.061,-22.068,-22.083,-22.103,-22.103,-22.057,-22.061,-21.994,-21.968,-21.963,-21.989,-22.016,-22.109,-22.135,-22.015,-21.961,-22.012,-22.072,-22.016,-22.138,-22.216,-22.038,-22.021,-22.033,-22.122,-22.155,-22.205,-22.172,-22.138,-22.118,-22.127,-22.119,-22.136,-22.133,-22.134,-22.107,-22.047,-21.959,-21.891,-21.795,-21.626,-21.495,-21.689,-22.146,-22.439,-22.521,-22.55,-22.556,-22.594,-22.54,-22.415,-22.293,-22.152,-22.047,-22.029,-22.075,-22.054,-22.076,-22.076,-22.016,-21.936,-21.952,-22.032,-22.059,-22.05,-22.013,-21.965,-21.975,-21.999,-22.026,-22.01,-22.01,-21.988,-22.015,-21.94,-21.908,-21.82,-21.714,-21.951,-22.092,-22.084,-21.993,-21.901,-21.887,-21.806,-21.86,-21.923,-21.934,-21.896,-21.887,-21.883,-21.857,-21.853,-21.875,-21.863,-21.854,-21.841,-21.877,-21.901,-21.956,-21.942,-21.992,-22.039,-22.063,-22.072,-22.083,-22.02,-22.001,-22.132,-22.254,-22.267,-22.278,-22.267,-22.259,-22.262,-22.265,-22.275,-22.286,-22.293,-22.293,-22.261,-22.26,-22.251,-22.259,-22.262,-22.232,-22.194,-22.289,-22.315,-22.28,-22.242,-22.233,-22.228,-22.176,-22.078,-22.072,-22.175,-22.307,-22.395,-22.373,-22.311,-22.286,-22.289,-22.288,-22.312,-22.316,-22.323,-22.306,-22.304,-22.292,-22.33,-22.334,-22.283,-22.266,-22.281,-22.32,-22.316,-22.332,-22.352,-22.352,-22.376,-22.37,-22.345,-22.318,-22.335,-22.333,-22.336,-22.326,-22.297,-22.277,-22.299,-22.329,-22.335,-22.328,-22.331,-22.36,-22.361,-22.38,-22.364,-22.36,-22.381,-22.383,-22.375,-22.4,-22.415,-22.417,-22.424,-22.41,-22.404,-22.415,-22.434,-22.39,-22.319,-22.3,-22.4,-22.479,-22.51,-22.414,-22.295,-22.139,-22.044,-21.848,-21.691,-21.756,-22.198,-22.611,-22.783,-22.805,-22.776,-22.748,-22.694,-22.641,-22.503,-22.409,-22.337,-22.307,-22.302,-22.305,-22.277,-22.281,-22.259,-22.251,-22.201,-22.213,-22.227,-22.23,-22.204,-22.176,-22.18,-22.203,-22.176,-22.153,-22.119,-22.089,-22.108,-22.122,-22.12,-22.092,-22.055,-22.04,-22.039,-22.047,-22.053,-22.034,-22.005,-21.949,-21.956,-21.946,-21.929,-21.895,-21.798,-21.737,-21.824,-21.915,-21.898,-21.858,-21.841,-21.845,-21.859,-21.881,-21.892,-21.897,-21.922,-21.953,-21.95,-21.965,-22.027,-22.091,-22.103,-22.092,-22.122,-22.16,-22.201,-22.195,-22.187,-22.191,-22.193,-22.195,-22.206,-22.201,-22.203,-22.199,-22.204,-22.204,-22.212,-22.194,-22.18,-22.19,-22.196,-22.211,-22.213,-22.157,-22.077,-22.111,-22.234,-22.213,-22.152,-22.16,-22.196,-22.201,-22.179,-22.172,-22.18,-22.169,-22.153,-22.162,-22.159,-22.161,-22.163,-22.147,-22.17,-22.167,-22.146,-22.147,-22.21,-22.203,-22.175,-22.131,-22.095,-22.121,-22.139,-22.143,-22.135,-22.133,-22.099,-22.071,-22.083,-22.108,-22.103,-22.058,-22.057,-22.091,-22.156,-22.188,-22.198,-22.208,-22.223,-22.231,-22.227,-22.236,-22.249,-22.234,-22.231,-22.233,-22.25,-22.243,-22.229,-22.229,-22.206,-22.232,-22.298,-22.308,-22.266,-22.236,-22.166,-22.124,-21.961,-21.768,-21.605,-21.687,-22.162,-22.529,-22.672,-22.709,-22.688,-22.673,-22.581,-22.54,-22.443,-22.345,-22.266,-22.231,-22.201,-22.177,-22.168,-22.177,-22.161,-22.159,-22.156,-22.155,-22.156,-22.134,-22.115,-22.086,-22.049,-22.049,-22.109,-22.163,-22.149,-22.127,-22.112,-22.12,-22.085,-22.058,-22.037,-22.01,-22.006,-22.008,-22.02,-22.007,-21.981,-21.965,-21.968,-21.94,-21.913,-21.902,-21.912,-21.924,-21.905,-21.876,-21.839,-21.849,-21.873,-21.876,-21.874,-21.892,-21.924,-21.957,-21.975,-22.008,-22.036,-22.059,-22.077,-22.093,-22.106,-22.163,-22.203,-22.208,-22.196,-22.2,-22.223,-22.232,-22.24,-22.236,-22.236,-22.241,-22.229,-22.237,-22.254,-22.263,-22.264,-22.251,-22.26,-22.244,-22.241,-22.235,-22.252,-22.256,-22.257,-22.259,-22.268,-22.269,-22.258,-22.236,-22.234,-22.219,-22.233,-22.252,-22.274,-22.271,-22.256,-22.234,-22.252,-22.247,-22.242,-22.245,-22.246,-22.246,-22.24,-22.241,-22.217,-22.217,-22.218,-22.222,-22.238,-22.238,-22.227,-22.188,-22.166,-22.175,-22.177,-22.199,-22.216,-22.209,-22.243,-22.273,-22.275,-22.288,-22.299,-22.333,-22.355,-22.35,-22.335,-22.333,-22.368,-22.36,-22.362,-22.361,-22.35,-22.349,-22.36,-22.358,-22.371,-22.381,-22.388,-22.355,-22.3,-22.189,-22.044,-21.895,-21.82,-21.802,-22.202,-22.624,-22.795,-22.791,-22.745,-22.751,-22.703,-22.686,-22.644,-22.574,-22.453,-22.395,-22.363,-22.377,-22.355,-22.359,-22.352,-22.366,-22.361,-22.36,-22.338,-22.335,-22.321,-22.307,-22.316,-22.332,-22.321,-22.317,-22.314,-22.302,-22.297,-22.28,-22.269,-22.266,-22.265,-22.268,-22.241,-22.244,-22.233,-22.224,-22.213,-22.233,-22.212,-22.178,-22.163,-22.131,-22.099,-22.101,-22.106,-22.133,-22.131,-22.111,-22.112,-22.114,-22.131,-22.146,-22.149,-22.159,-22.187,-22.22,-22.27,-22.287,-22.325,-22.34,-22.366,-22.374,-22.371,-22.384,-22.404,-22.414,-22.43,-22.425,-22.427,-22.442,-22.453,-22.465,-22.471,-22.452,-22.463,-22.49,-22.504,-22.51,-22.493,-22.478,-22.491,-22.484,-22.477,-22.445,-22.452,-22.486,-22.49,-22.488,-22.469,-22.465,-22.469,-22.468,-22.527,-22.556,-22.515,-22.504,-22.51,-22.6,-22.654,-22.51,-22.443,-22.437,-22.482,-22.497,-22.475,-22.475,-22.453,-22.468,-22.453,-22.458,-22.474,-22.484,-22.474,-22.483,-22.473,-22.48,-22.497,-22.551,-22.56,-22.562,-22.552,-22.563,-22.603,-22.666,-22.674,-22.682,-22.692,-22.659,-22.657,-22.647,-22.65,-22.66,-22.659,-22.679,-22.698,-22.702,-22.718,-22.747,-22.753,-22.749,-22.73,-22.715,-22.666,-22.552,-22.363,-22.161,-22.104,-22.363,-22.854,-23.055,-23.222,-23.215,-23.194,-23.202,-23.166,-23.105,-23.003,-22.904,-22.833,-22.825,-22.775,-22.743,-22.73,-22.748,-22.745,-22.747,-22.749,-22.771,-22.758,-22.751,-22.724,-22.716,-22.734,-22.78,-22.8,-22.736,-22.676,-22.711,-22.71,-22.698,-22.67,-22.648,-22.65,-22.654,-22.65,-22.634,-22.625,-22.624,-22.609,-22.599,-22.587,-22.571,-22.56,-22.562,-22.551,-22.51,-22.502,-22.503,-22.504,-22.553,-22.552,-22.513,-22.488,-22.482,-22.53,-22.575,-22.615,-22.642,-22.655,-22.681,-22.66,-22.635,-22.72,-22.857,-22.914,-22.903,-22.889,-22.877,-22.86,-22.886,-22.914,-22.94,-22.93,-22.906,-22.909,-22.902,-22.908,-22.904,-22.908,-22.921,-22.93,-22.925,-22.917,-22.905,-22.916,-22.911,-22.92,-22.878,-22.858,-22.883,-22.973,-22.982,-22.964,-22.88,-22.803,-22.768,-22.812,-22.965,-23.03,-23.023,-23.021,-22.999,-22.969,-22.941,-22.94,-22.979,-23.083,-23.065,-22.989,-22.932,-22.902,-22.922,-22.978,-23.035,-22.971,-22.948,-22.955,-22.876,-22.847,-22.859,-22.834,-22.869,-22.905,-22.967,-22.97,-22.959,-22.984,-23.026,-23.047,-23.056,-23.063,-23.068,-23.077,-23.079,-23.069,-23.077,-23.087,-23.102,-23.1,-23.09,-23.093,-23.113,-23.127,-23.134,-23.094,-23.067,-23.031,-22.929,-22.773,-22.544,-22.417,-22.467,-22.964,-23.392,-23.577,-23.595,-23.555,-23.529,-23.469,-23.428,-23.281,-23.184,-23.128,-23.103,-23.073,-23.088,-23.082,-23.088,-23.06,-23.057,-23.021,-22.979,-23.037,-23.128,-23.129,-23.112,-23.07,-23.043,-23.091,-23.099,-23.025,-22.992,-22.972,-22.983,-22.981,-22.983,-22.958,-22.951,-22.961,-22.929,-22.909,-22.89,-22.892,-22.904,-22.906,-22.875,-22.835,-22.82,-22.817,-22.789,-22.77,-22.765,-22.772,-22.788,-22.793,-22.783,-22.772,-22.788,-22.826,-22.859,-22.864,-22.879,-22.934,-22.951,-22.983,-23.028,-23.039,-23.062,-23.074,-23.122,-23.121,-23.112,-23.109,-23.11,-23.123,-23.124,-23.136,-23.137,-23.146,-23.141,-23.135,-23.139,-23.138,-23.136,-23.138,-23.142,-23.135,-23.127,-23.169,-23.194,-23.17,-23.148,-23.125,-23.093,-23.086,-23.089,-23.101,-23.104,-23.116,-23.132,-23.133,-23.13,-23.128,-23.124,-23.126,-23.139,-23.129,-23.12,-23.115,-23.124,-23.133,-23.129,-23.132,-23.13,-23.135,-23.139,-23.146,-23.135,-23.101,-23.096,-23.12,-23.138,-23.139,-23.135,-23.128,-23.122,-23.113,-23.097,-23.095,-23.093,-23.093,-23.11,-23.15,-23.125,-23.075,-23.045,-23.079,-23.115,-23.131,-23.148,-23.165,-23.187,-23.2,-23.188,-23.198,-23.202,-23.222,-23.214,-23.213,-23.196,-23.19,-23.199,-23.218,-23.239,-23.245,-23.228,-23.215,-23.127,-22.956,-22.733,-22.622,-22.496,-22.574,-23.07,-23.496,-23.709,-23.714,-23.707,-23.656,-23.58,-23.486,-23.365,-23.276,-23.22,-23.196,-23.175,-23.185,-23.186,-23.17,-23.161,-23.154,-23.151,-23.196,-23.205,-23.154,-23.09,-23.071,-23.078,-23.096,-23.1,-23.091,-23.09,-23.086,-23.077,-23.064,-23.054,-23.048,-23.042,-23.042,-23.032,-23,-22.986,-22.969,-22.997,-22.972,-22.961,-22.926,-22.907,-22.896,-22.871,-22.855,-22.862,-22.852,-22.849,-22.84,-22.828,-22.835,-22.857,-22.859,-22.871,-22.892,-22.91,-22.941,-22.979,-23.016,-23.037,-23.055,-23.087,-23.107,-23.128,-23.14,-23.136,-23.155,-23.168,-23.175,-23.165,-23.158,-23.16,-23.172,-23.183,-23.18,-23.168,-23.172,-23.173,-23.182,-23.176,-23.16,-23.159,-23.159,-23.157,-23.155,-23.145,-23.149,-23.156,-23.159,-23.155,-23.144,-23.128,-23.13,-23.15,-23.162,-23.152,-23.154,-23.165,-23.19,-23.184,-23.163,-23.15,-23.153,-23.146,-23.15,-23.145,-23.145,-23.144,-23.149,-23.159,-23.156,-23.149,-23.139,-23.099,-23.078,-23.065,-23.043,-23.045,-23.054,-23.043,-23.019,-23.011,-23.036,-23.04,-23.04,-23.044,-23.025,-23.027,-23.049,-23.062,-23.076,-23.098,-23.084,-23.088,-23.101,-23.117,-23.106,-23.11,-23.12,-23.124,-23.124,-23.115,-23.096,-23.1,-23.116,-23.116,-23.068,-23.026,-22.939,-22.86,-22.714,-22.537,-22.472,-22.768,-23.24,-23.483,-23.532,-23.502,-23.46,-23.412,-23.369,-23.314,-23.206,-23.1,-23.031,-23.016,-23.008,-22.987,-22.985,-22.977,-22.984,-22.984,-22.975,-22.95,-22.929,-22.928,-22.917,-22.912,-22.908,-22.903,-22.9,-22.905,-22.895,-22.865,-22.87,-22.851,-22.833,-22.816,-22.812,-22.794,-22.795,-22.776,-22.758,-22.755,-22.726,-22.728,-22.718,-22.69,-22.689,-22.694,-22.677,-22.661,-22.633,-22.619,-22.595,-22.611,-22.618,-22.621,-22.637,-22.64,-22.655,-22.678,-22.717,-22.723,-22.741,-22.771,-22.802,-22.826,-22.845,-22.847,-22.841,-22.875,-22.886,-22.886,-22.892,-22.885,-22.896,-22.902,-22.914,-22.899,-22.883,-22.878,-22.896,-22.889,-22.876,-22.876,-22.89,-22.875,-22.88,-22.877,-22.858,-22.863,-22.841,-22.849,-22.839,-22.832,-22.832,-22.835,-22.839,-22.813,-22.804,-22.801,-22.805,-22.808,-22.794,-22.772,-22.775,-22.784,-22.79,-22.786,-22.763,-22.755,-22.763,-22.765,-22.754,-22.733,-22.688,-22.689,-22.694,-22.689,-22.69,-22.653,-22.645,-22.659,-22.65,-22.665,-22.656,-22.623,-22.63,-22.637,-22.672,-22.671,-22.69,-22.691,-22.696,-22.695,-22.686,-22.686,-22.682,-22.68,-22.675,-22.667,-22.647,-22.633,-22.646,-22.627,-22.632,-22.641,-22.602,-22.576,-22.527,-22.417,-22.283,-22.112,-22.037,-22.076,-22.431,-22.838,-22.981,-22.956,-22.927,-22.92,-22.863,-22.826,-22.723,-22.649,-22.536,-22.481,-22.43,-22.425,-22.404,-22.398,-22.391,-22.378,-22.356,-22.346,-22.336,-22.332,-22.33,-22.33,-22.318,-22.308,-22.283,-22.277,-22.234,-22.206,-22.208,-22.183,-22.148,-22.153,-22.132,-22.125,-22.105,-22.106,-22.063,-22.058,-22.026,-22.012,-21.998,-21.99,-21.972,-21.949,-21.921,-21.905,-21.869,-21.873,-21.869,-21.861,-21.845,-21.837,-21.878,-21.916,-21.928,-21.903,-21.956,-21.964,-21.989,-21.962,-21.982,-21.964,-21.986,-21.99,-21.999,-22.003,-22.002,-21.996,-22.004,-22.042,-21.992,-22.006,-22.031,-22.053,-22.06,-22.015,-21.996,-21.957,-21.951,-21.959,-21.952,-21.94,-21.928,-21.909,-21.917,-21.914,-21.899,-21.879,-21.886,-21.88,-21.867,-21.863,-21.843,-21.846,-21.852,-21.832,-21.827,-21.808,-21.824,-21.833,-21.831,-21.804,-21.807,-21.809,-21.81,-21.805,-21.781,-21.759,-21.748,-21.74,-21.741,-21.717,-21.705,-21.695,-21.703,-21.7,-21.715,-21.706,-21.707,-21.716,-21.726,-21.713,-21.721,-21.737,-21.746,-21.765,-21.782,-21.78,-21.783,-21.805,-21.826,-21.807,-21.807,-21.793,-21.783,-21.779,-21.793,-21.782,-21.779,-21.783,-21.785,-21.769,-21.716,-21.662,-21.564,-21.428,-21.273,-21.166,-21.315,-21.768,-22.06,-22.127,-22.11,-22.097,-22.109,-22.065,-22.009,-21.912,-21.807,-21.727,-21.687,-21.669,-21.664,-21.648,-21.64,-21.63,-21.63,-21.621,-21.608,-21.602,-21.582,-21.579,-21.572,-21.563,-21.536,-21.548,-21.543,-21.534,-21.51,-21.499,-21.478,-21.476,-21.476,-21.46,-21.434,-21.43,-21.413,-21.407,-21.389,-21.37,-21.366,-21.358,-21.357,-21.339,-21.323,-21.314,-21.299,-21.299,-21.296,-21.288,-21.27,-21.285,-21.294,-21.303,-21.31,-21.33,-21.353,-21.395,-21.415,-21.434,-21.441,-21.458,-21.479,-21.505,-21.508,-21.511,-21.513,-21.532,-21.545,-21.544,-21.537,-21.554,-21.557,-21.563,-21.553,-21.544,-21.546,-21.545,-21.555,-21.548,-21.532,-21.531,-21.529,-21.526,-21.515,-21.511,-21.504,-21.497,-21.504,-21.511,-21.505,-21.506,-21.512,-21.517,-21.518,-21.511,-21.505,-21.508,-21.508,-21.508,-21.512,-21.508,-21.514,-21.525,-21.532,-21.537,-21.512,-21.514,-21.523,-21.522,-21.509,-21.493,-21.492,-21.487,-21.483,-21.482,-21.471,-21.479,-21.484,-21.497,-21.505,-21.493,-21.502,-21.517,-21.539,-21.558,-21.57,-21.573,-21.584,-21.589,-21.592,-21.579,-21.585,-21.589,-21.599,-21.601,-21.595,-21.591,-21.604,-21.619,-21.631,-21.62,-21.578,-21.524,-21.419,-21.258,-21.054,-20.941,-21.09,-21.561,-21.915,-22.027,-22.017,-22.003,-22.004,-21.941,-21.88,-21.82,-21.703,-21.618,-21.601,-21.582,-21.569,-21.554,-21.572,-21.577,-21.581,-21.546,-21.547,-21.534,-21.553,-21.551,-21.541,-21.517,-21.525,-21.528,-21.531,-21.525,-21.499,-21.471,-21.477,-21.488,-21.486,-21.454,-21.449,-21.439,-21.443,-21.424,-21.418,-21.407,-21.395,-21.383,-21.378,-21.352,-21.349,-21.339,-21.335,-21.327,-21.321,-21.321,-21.315,-21.319,-21.329,-21.326,-21.336,-21.36,-21.395,-21.424,-21.434,-21.465,-21.491,-21.517,-21.547,-21.559,-21.573,-21.579,-21.595,-21.604,-21.615,-21.614,-21.621,-21.635,-21.643,-21.654,-21.657,-21.649,-21.649,-21.674,-21.663,-21.652,-21.671,-21.679,-21.688,-21.695,-21.683,-21.673,-21.689,-21.699,-21.689,-21.706,-21.69,-21.694,-21.692,-21.697,-21.691,-21.695,-21.695,-21.698,-21.705,-21.711,-21.703,-21.72,-21.722,-21.716,-21.715,-21.708,-21.689,-21.695,-21.699,-21.694,-21.663,-21.658,-21.674,-21.669,-21.668,-21.662,-21.659,-21.667,-21.684,-21.699,-21.69,-21.688,-21.7,-21.721,-21.749,-21.78,-21.796,-21.803,-21.809,-21.844,-21.832,-21.831,-21.815,-21.831,-21.84,-21.838,-21.833,-21.837,-21.847,-21.858,-21.858,-21.827,-21.856,-21.782,-21.695,-21.581,-21.37,-21.203,-21.213,-21.578,-22.025,-22.254,-22.267,-22.276,-22.27,-22.217,-22.126,-22.008,-21.9,-21.844,-21.809,-21.794,-21.788,-21.78,-21.778,-21.778,-21.772,-21.753,-21.75,-21.751,-21.758,-21.747,-21.732,-21.724,-21.724,-21.73,-21.712,-21.7,-21.689,-21.693,-21.704,-21.7,-21.676,-21.666,-21.656,-21.657,-21.666,-21.639,-21.62,-21.608,-21.609,-21.602,-21.581,-21.563,-21.562,-21.547,-21.539,-21.534,-21.529,-21.519,-21.527,-21.523,-21.532,-21.53,-21.542,-21.56,-21.593,-21.625,-21.642,-21.675,-21.713,-21.742,-21.759,-21.77,-21.801,-21.816,-21.842,-21.851,-21.851,-21.849,-21.855,-21.87,-21.879,-21.874,-21.878,-21.88,-21.893,-21.898,-21.897,-21.887,-21.888,-21.897,-21.898,-21.893,-21.892,-21.887,-21.89,-21.896,-21.883,-21.877,-21.883,-21.888,-21.892,-21.885,-21.88,-21.873,-21.878,-21.889,-21.893,-21.881,-21.88,-21.889,-21.891,-21.884,-21.867,-21.853,-21.844,-21.844,-21.836,-21.828,-21.823,-21.813,-21.812,-21.814,-21.815,-21.807,-21.82,-21.833,-21.842,-21.837,-21.845,-21.861,-21.881,-21.912,-21.919,-21.919,-21.929,-21.938,-21.935,-21.94,-21.931,-21.932,-21.935,-21.946,-21.94,-21.929,-21.929,-21.945,-21.959,-21.934,-21.885,-21.815,-21.694,-21.532,-21.34,-21.253,-21.454,-21.948,-22.15,-22.353,-22.349,-22.325,-22.326,-22.257,-22.199,-22.049,-21.945,-21.865,-21.861,-21.832,-21.833,-21.809,-21.811,-21.797,-21.807,-21.779,-21.777,-21.761,-21.764,-21.747,-21.751,-21.724,-21.72,-21.707,-21.715,-21.695,-21.675,-21.656,-21.658,-21.655,-21.644,-21.616,-21.604,-21.587,-21.582,-21.573,-21.558,-21.529,-21.512,-21.507,-21.497,-21.471,-21.452,-21.437,-21.435,-21.43,-21.404,-21.395,-21.388,-21.389,-21.39,-21.405,-21.409,-21.432,-21.459,-21.494,-21.51,-21.527,-21.545,-21.566,-21.597,-21.616,-21.619,-21.627,-21.631,-21.652,-21.659,-21.655,-21.65,-21.659,-21.662,-21.664,-21.655,-21.651,-21.649,-21.652,-21.652,-21.652,-21.635,-21.635,-21.631,-21.634,-21.627,-21.621,-21.619,-21.619,-21.619,-21.616,-21.605,-21.605,-21.606,-21.614,-21.607,-21.597,-21.594,-21.594,-21.6,-21.604,-21.598,-21.594,-21.592,-21.6,-21.604,-21.598,-21.586,-21.577,-21.571,-21.57,-21.544,-21.527,-21.52,-21.53,-21.53,-21.509,-21.5,-21.512,-21.518,-21.534,-21.539,-21.534,-21.534,-21.555,-21.582,-21.596,-21.612,-21.625,-21.635,-21.646,-21.647,-21.638,-21.636,-21.645,-21.652,-21.646,-21.639,-21.637,-21.631,-21.646,-21.653,-21.655,-21.623,-21.588,-21.523,-21.39,-21.19,-21.002,-20.948,-21.203,-21.694,-21.998,-22.083,-22.084,-22.083,-22.07,-22.001,-21.892,-21.745,-21.658,-21.615,-21.593,-21.576,-21.576,-21.569,-21.571,-21.558,-21.554,-21.547,-21.543,-21.549,-21.538,-21.528,-21.516,-21.517,-21.516,-21.515,-21.497,-21.483,-21.476,-21.481,-21.475,-21.456,-21.443,-21.433,-21.429,-21.423,-21.402,-21.388,-21.378,-21.375,-21.361,-21.346,-21.329,-21.323,-21.317,-21.316,-21.299,-21.284,-21.265,-21.266,-21.269,-21.27,-21.264,-21.273,-21.292,-21.332,-21.356,-21.384,-21.41,-21.443,-21.476,-21.502,-21.507,-21.526,-21.547,-21.573,-21.588,-21.597,-21.594,-21.605,-21.616,-21.627,-21.628,-21.625,-21.63,-21.636,-21.639,-21.636,-21.632,-21.633,-21.635,-21.633,-21.643,-21.632,-21.619,-21.626,-21.64,-21.63,-21.618,-21.616,-21.618,-21.619,-21.614,-21.606,-21.618,-21.621,-21.619,-21.635,-21.63,-21.63,-21.633,-21.644,-21.644,-21.642,-21.63,-21.635,-21.644,-21.658,-21.651,-21.643,-21.648,-21.657,-21.666,-21.66,-21.631,-21.617,-21.611,-21.599,-21.592,-21.602,-21.603,-21.6,-21.585,-21.594,-21.605,-21.608,-21.614,-21.621,-21.629,-21.645,-21.659,-21.674,-21.711,-21.727,-21.717,-21.72,-21.737,-21.748,-21.749,-21.739,-21.734,-21.733,-21.742,-21.761,-21.761,-21.761,-21.768,-21.756,-21.727,-21.665,-21.52,-21.334,-21.151,-21.087,-21.334,-21.818,-22.14,-22.249,-22.243,-22.227,-22.189,-22.105,-22.028,-21.892,-21.795,-21.734,-21.706,-21.699,-21.708,-21.696,-21.688,-21.674,-21.675,-21.668,-21.672,-21.655,-21.645,-21.64,-21.646,-21.645,-21.631,-21.62,-21.612,-21.604,-21.607,-21.595,-21.583,-21.57,-21.564,-21.56,-21.552,-21.527,-21.512,-21.501,-21.51,-21.491,-21.472,-21.457,-21.459,-21.452,-21.447,-21.425,-21.41,-21.4,-21.4,-21.392,-21.388,-21.386,-21.381,-21.395,-21.412,-21.428,-21.44,-21.468,-21.511,-21.539,-21.561,-21.568,-21.593,-21.612,-21.637,-21.649,-21.666,-21.673,-21.684,-21.7,-21.701,-21.699,-21.7,-21.709,-21.714,-21.717,-21.708,-21.702,-21.703,-21.714,-21.705,-21.702,-21.69,-21.688,-21.687,-21.691,-21.685,-21.678,-21.67,-21.674,-21.677,-21.665,-21.654,-21.648,-21.652,-21.665,-21.65,-21.648,-21.646,-21.658,-21.661,-21.657,-21.647,-21.64,-21.642,-21.652,-21.652,-21.644,-21.639,-21.646,-21.651,-21.653,-21.65,-21.644,-21.635,-21.645,-21.642,-21.624,-21.604,-21.586,-21.582,-21.566,-21.56,-21.558,-21.558,-21.552,-21.535,-21.527,-21.538,-21.549,-21.543,-21.544,-21.549,-21.567,-21.591,-21.613,-21.638,-21.639,-21.63,-21.637,-21.641,-21.647,-21.648,-21.637,-21.636,-21.645,-21.654,-21.658,-21.653,-21.654,-21.65,-21.629,-21.601,-21.514,-21.368,-21.19,-21.03,-21.029,-21.177,-21.664,-22.023,-22.175,-22.186,-22.139,-22.083,-21.991,-21.911,-21.773,-21.678,-21.607,-21.591,-21.579,-21.588,-21.564,-21.563,-21.549,-21.55,-21.545,-21.542,-21.521,-21.519,-21.508,-21.518,-21.505,-21.496,-21.484,-21.472,-21.46,-21.474,-21.455,-21.442,-21.436,-21.43,-21.424,-21.404,-21.389,-21.386,-21.384,-21.374,-21.359,-21.344,-21.329,-21.322,-21.319,-21.306,-21.291,-21.275,-21.279,-21.28,-21.275,-21.255,-21.254,-21.261,-21.267,-21.275,-21.285,-21.317,-21.325,-21.356,-21.388,-21.395,-21.42,-21.44,-21.478,-21.481,-21.495,-21.5,-21.513,-21.535,-21.546,-21.552,-21.555,-21.56,-21.564,-21.558,-21.562,-21.557,-21.556,-21.563,-21.571,-21.56,-21.555,-21.545,-21.553,-21.566,-21.553,-21.538,-21.537,-21.553,-21.554,-21.558,-21.554,-21.544,-21.547,-21.55,-21.554,-21.548,-21.547,-21.547,-21.552,-21.559,-21.545,-21.548,-21.564,-21.563,-21.569,-21.568,-21.565,-21.571,-21.577,-21.564,-21.543,-21.518,-21.528,-21.519,-21.514,-21.511,-21.511,-21.496,-21.486,-21.497,-21.514,-21.508,-21.51,-21.518,-21.528,-21.541,-21.558,-21.575,-21.586,-21.608,-21.604,-21.597,-21.606,-21.613,-21.617,-21.621,-21.61,-21.616,-21.613,-21.619,-21.632,-21.627,-21.617,-21.595,-21.573,-21.534,-21.4,-21.248,-21.105,-21.057,-21.411,-21.86,-22.069,-22.092,-22.074,-22.062,-22.018,-21.955,-21.909,-21.843,-21.75,-21.659,-21.6,-21.586,-21.575,-21.579,-21.575,-21.563,-21.549,-21.548,-21.547,-21.546,-21.536,-21.527,-21.519,-21.519,-21.52,-21.509,-21.49,-21.489,-21.488,-21.488,-21.47,-21.458,-21.448,-21.449,-21.444,-21.431,-21.412,-21.405,-21.394,-21.394,-21.391,-21.374,-21.36,-21.361,-21.358,-21.352,-21.338,-21.326,-21.328,-21.331,-21.32,-21.314,-21.312,-21.328,-21.344,-21.367,-21.372,-21.395,-21.424,-21.446,-21.46,-21.487,-21.5,-21.516,-21.532,-21.549,-21.563,-21.569,-21.574,-21.587,-21.597,-21.604,-21.596,-21.598,-21.603,-21.61,-21.607,-21.603,-21.606,-21.605,-21.607,-21.615,-21.603,-21.596,-21.599,-21.605,-21.611,-21.598,-21.604,-21.599,-21.599,-21.601,-21.602,-21.594,-21.599,-21.609,-21.615,-21.602,-21.598,-21.6,-21.614,-21.617,-21.62,-21.614,-21.61,-21.623,-21.629,-21.623,-21.615,-21.604,-21.602,-21.595,-21.583,-21.559,-21.557,-21.578,-21.563,-21.553,-21.553,-21.545,-21.566,-21.581,-21.585,-21.576,-21.583,-21.607,-21.627,-21.637,-21.657,-21.66,-21.668,-21.678,-21.688,-21.677,-21.677,-21.681,-21.687,-21.689,-21.685,-21.678,-21.692,-21.702,-21.705,-21.677,-21.633,-21.566,-21.441,-21.297,-21.137,-21.093,-21.432,-21.904,-22.15,-22.188,-22.167,-22.122,-22.095,-22.048,-21.991,-21.887,-21.757,-21.691,-21.658,-21.647,-21.624,-21.624,-21.616,-21.62,-21.612,-21.6,-21.587,-21.586,-21.583,-21.584,-21.568,-21.563,-21.554,-21.549,-21.546,-21.542,-21.523,-21.515,-21.512,-21.512,-21.496,-21.479,-21.462,-21.461,-21.456,-21.442,-21.426,-21.41,-21.403,-21.402,-21.39,-21.383,-21.364,-21.354,-21.349,-21.34,-21.332,-21.323,-21.328,-21.334,-21.342,-21.341,-21.354,-21.375,-21.406,-21.433,-21.454,-21.467,-21.496,-21.527,-21.54,-21.557,-21.57,-21.58,-21.595,-21.605,-21.615,-21.618,-21.626,-21.634,-21.642,-21.644,-21.641,-21.637,-21.639,-21.641,-21.639,-21.64,-21.635,-21.635,-21.638,-21.642,-21.632,-21.626,-21.631,-21.633,-21.629,-21.624,-21.622,-21.621,-21.629,-21.632,-21.627,-21.62,-21.621,-21.624,-21.636,-21.63,-21.63,-21.633,-21.639,-21.647,-21.654,-21.642,-21.641,-21.648,-21.657,-21.649,-21.628,-21.611,-21.607,-21.6,-21.592,-21.586,-21.595,-21.583,-21.581,-21.593,-21.591,-21.588,-21.599,-21.613,-21.622,-21.631,-21.644,-21.659,-21.681,-21.714,-21.716,-21.71,-21.714,-21.721,-21.733,-21.728,-21.717,-21.726,-21.734,-21.733,-21.731,-21.736,-21.736,-21.734,-21.716,-21.68,-21.585,-21.448,-21.254,-21.1,-21.113,-21.504,-21.961,-22.198,-22.232,-22.213,-22.189,-22.126,-22.04,-21.98,-21.854,-21.759,-21.706,-21.682,-21.692,-21.676,-21.682,-21.671,-21.662,-21.654,-21.665,-21.644,-21.634,-21.619,-21.622,-21.631,-21.625,-21.595,-21.593,-21.584,-21.587,-21.58,-21.569,-21.555,-21.556,-21.541,-21.527,-21.521,-21.508,-21.495,-21.488,-21.469,-21.454,-21.433,-21.437,-21.432,-21.43,-21.399,-21.391,-21.383,-21.375,-21.373,-21.373,-21.354,-21.349,-21.368,-21.386,-21.4,-21.415,-21.442,-21.467,-21.512,-21.538,-21.568,-21.586,-21.614,-21.63,-21.64,-21.647,-21.657,-21.665,-21.685,-21.687,-21.691,-21.688,-21.692,-21.702,-21.71,-21.695,-21.699,-21.697,-21.7,-21.706,-21.697,-21.695,-21.699,-21.702,-21.71,-21.707,-21.696,-21.692,-21.697,-21.705,-21.706,-21.697,-21.692,-21.698,-21.704,-21.703,-21.694,-21.688,-21.703,-21.72,-21.715,-21.714,-21.713,-21.714,-21.727,-21.726,-21.726,-21.724,-21.727,-21.737,-21.738,-21.737,-21.722,-21.707,-21.7,-21.69,-21.679,-21.668,-21.683,-21.688,-21.671,-21.659,-21.666,-21.676,-21.688,-21.696,-21.702,-21.706,-21.728,-21.753,-21.771,-21.794,-21.793,-21.789,-21.812,-21.824,-21.818,-21.817,-21.806,-21.814,-21.823,-21.824,-21.823,-21.825,-21.833,-21.84,-21.818,-21.77,-21.672,-21.515,-21.311,-21.168,-21.21,-21.655,-22.098,-22.314,-22.337,-22.317,-22.274,-22.206,-22.116,-22.04,-21.925,-21.831,-21.808,-21.783,-21.794,-21.778,-21.777,-21.758,-21.773,-21.764,-21.764,-21.744,-21.74,-21.723,-21.733,-21.719,-21.709,-21.687,-21.688,-21.681,-21.679,-21.662,-21.649,-21.633,-21.638,-21.627,-21.616,-21.597,-21.584,-21.57,-21.565,-21.55,-21.528,-21.522,-21.52,-21.513,-21.493,-21.477,-21.472,-21.454,-21.464,-21.466,-21.444,-21.441,-21.44,-21.452,-21.465,-21.477,-21.501,-21.53,-21.566,-21.601,-21.622,-21.644,-21.667,-21.699,-21.718,-21.724,-21.732,-21.748,-21.762,-21.779,-21.784,-21.778,-21.779,-21.79,-21.795,-21.802,-21.791,-21.794,-21.805,-21.808,-21.798,-21.786,-21.788,-21.797,-21.805,-21.809,-21.804,-21.787,-21.769,-21.773,-21.778,-21.774,-21.763,-21.775,-21.783,-21.783,-21.781,-21.785,-21.779,-21.79,-21.794,-21.798,-21.79,-21.789,-21.793,-21.807,-21.8,-21.804,-21.797,-21.799,-21.811,-21.812,-21.803,-21.805,-21.803,-21.818,-21.81,-21.807,-21.802,-21.81,-21.819,-21.798,-21.769,-21.763,-21.748,-21.741,-21.749,-21.761,-21.738,-21.725,-21.724,-21.741,-21.742,-21.73,-21.735,-21.754,-21.78,-21.794,-21.802,-21.824,-21.848,-21.852,-21.853,-21.85,-21.851,-21.856,-21.864,-21.865,-21.858,-21.854,-21.867,-21.873,-21.881,-21.874,-21.846,-21.817,-21.75,-21.593,-21.389,-21.229,-21.248,-21.672,-21.935,-22.244,-22.415,-22.41,-22.401,-22.306,-22.23,-22.104,-21.994,-21.893,-21.864,-21.825,-21.828,-21.81,-21.828,-21.809,-21.815,-21.783,-21.802,-21.782,-21.792,-21.78,-21.777,-21.758,-21.759,-21.762,-21.761,-21.742,-21.733,-21.723,-21.725,-21.712,-21.705,-21.68,-21.681,-21.668,-21.669,-21.644,-21.628,-21.625,-21.633,-21.617,-21.603,-21.585,-21.576,-21.571,-21.572,-21.554,-21.534,-21.538,-21.533,-21.535,-21.537,-21.531,-21.546,-21.57,-21.6,-21.614,-21.622,-21.65,-21.678,-21.718,-21.745,-21.762,-21.775,-21.805,-21.825,-21.846,-21.843,-21.852,-21.863,-21.875,-21.886,-21.886,-21.892,-21.895,-21.9,-21.907,-21.899,-21.898,-21.894,-21.905,-21.906,-21.905,-21.902,-21.896,-21.899,-21.906,-21.9,-21.897,-21.888,-21.909,-21.913,-21.915,-21.899,-21.904,-21.912,-21.917,-21.911,-21.913,-21.918,-21.92,-21.916,-21.931,-21.923,-21.93,-21.935,-21.945,-21.946,-21.94,-21.94,-21.942,-21.961,-21.96,-21.951,-21.961,-21.954,-21.959,-21.978,-21.975,-21.964,-21.975,-21.977,-21.984,-21.981,-21.964,-21.947,-21.941,-21.929,-21.921,-21.927,-21.916,-21.917,-21.91,-21.91,-21.914,-21.92,-21.922,-21.932,-21.939,-21.951,-21.963,-21.985,-22.012,-22.032,-22.025,-22.03,-22.036,-22.044,-22.057,-22.042,-22.044,-22.042,-22.053,-22.06,-22.065,-22.061,-22.067,-22.046,-22.029,-21.979,-21.86,-21.712,-21.552,-21.512,-21.825,-22.284,-22.539,-22.574,-22.562,-22.51,-22.451,-22.398,-22.35,-22.258,-22.2,-22.115,-22.054,-22.051,-22.039,-22.054,-22.028,-22.025,-22.015,-22.029,-22.023,-22.012,-22.004,-21.998,-21.996,-22.004,-21.987,-21.982,-21.975,-21.976,-21.973,-21.969,-21.954,-21.948,-21.937,-21.938,-21.935,-21.914,-21.904,-21.901,-21.898,-21.887,-21.865,-21.859,-21.861,-21.858,-21.847,-21.829,-21.827,-21.823,-21.824,-21.829,-21.824,-21.816,-21.816,-21.832,-21.845,-21.859,-21.875,-21.901,-21.932,-21.961,-21.979,-21.99,-22.006,-22.04,-22.067,-22.073,-22.074,-22.082,-22.094,-22.112,-22.119,-22.122,-22.124,-22.131,-22.14,-22.149,-22.137,-22.147,-22.153,-22.15,-22.151,-22.144,-22.142,-22.144,-22.153,-22.156,-22.151,-22.147,-22.145,-22.154,-22.16,-22.153,-22.149,-22.145,-22.15,-22.164,-22.156,-22.155,-22.153,-22.162,-22.173,-22.17,-22.167,-22.169,-22.179,-22.185,-22.188,-22.188,-22.189,-22.195,-22.202,-22.209,-22.198,-22.203,-22.211,-22.219,-22.223,-22.215,-22.213,-22.212,-22.224,-22.212,-22.194,-22.179,-22.164,-22.165,-22.172,-22.174,-22.166,-22.146,-22.143,-22.17,-22.178,-22.166,-22.172,-22.178,-22.205,-22.221,-22.231,-22.253,-22.274,-22.284,-22.289,-22.285,-22.278,-22.282,-22.295,-22.301,-22.297,-22.299,-22.304,-22.318,-22.324,-22.321,-22.289,-22.268,-22.231,-22.116,-21.967,-21.794,-21.754,-22.059,-22.523,-22.667,-22.785,-22.788,-22.754,-22.737,-22.671,-22.624,-22.537,-22.449,-22.356,-22.32,-22.284,-22.277,-22.278,-22.29,-22.274,-22.266,-22.252,-22.262,-22.255,-22.257,-22.24,-22.233,-22.228,-22.235,-22.226,-22.218,-22.196,-22.201,-22.194,-22.194,-22.179,-22.168,-22.156,-22.159,-22.152,-22.133,-22.117,-22.108,-22.104,-22.107,-22.09,-22.072,-22.062,-22.054,-22.053,-22.048,-22.03,-22.024,-22.026,-22.031,-22.034,-22.026,-22.037,-22.052,-22.087,-22.106,-22.122,-22.131,-22.166,-22.203,-22.233,-22.247,-22.261,-22.275,-22.304,-22.324,-22.324,-22.329,-22.341,-22.351,-22.364,-22.361,-22.359,-22.363,-22.377,-22.383,-22.381,-22.378,-22.381,-22.382,-22.389,-22.388,-22.38,-22.376,-22.382,-22.391,-22.392,-22.381,-22.377,-22.381,-22.393,-22.389,-22.386,-22.38,-22.385,-22.395,-22.398,-22.388,-22.394
