-5.1048,-5.1134,-5.1035,-5.13,-5.1461,-5.1529,-5.1457,-5.1571,-5.1632,-5.1931,-5.1834,-5.1794,-5.1641,-5.1776,-5.189,-5.1811,-5.1573,-5.1542,-5.1555,-5.1686,-5.1596,-5.158,-5.1525,-5.1599,-5.1874,-5.1993,-5.1929,-5.1779,-5.1601,-5.1578,-5.1286,-5.088,-5.0494,-5.0208,-5.0133,-4.9885,-4.9575,-4.9316,-4.918,-4.9211,-4.9267,-4.9034,-4.8872,-4.866,-4.8804,-4.8869,-4.8743,-4.8607,-4.8606,-4.8704,-4.8888,-4.8767,-4.8673,-4.8615,-4.8802,-4.8885,-4.8848,-4.872,-4.8716,-4.8711,-4.8917,-4.8872,-4.8783,-4.8664,-4.8712,-4.8824,-4.8749,-4.8629,-4.8503,-4.8491,-4.873,-4.8595,-4.8494,-4.8332,-4.8355,-4.8446,-4.8487,-4.8313,-4.8164,-4.8091,-4.8253,-4.8241,-4.8143,-4.7946,-4.7946,-4.804,-4.811,-4.7929,-4.7829,-4.7734,-4.799,-4.8122,-4.8207,-4.8214,-4.8357,-4.8482,-4.8594,-4.8451,-4.8435,-4.8395,-4.8197,-4.8021,-4.7866,-4.7661,-4.77,-4.7723,-4.8039,-4.7984,-4.7782,-4.7524,-4.7532,-4.758,-4.7482,-4.7254,-4.7164,-4.7177,-4.737,-4.7305,-4.7205,-4.7087,-4.709,-4.8038,-5.0487,-5.3509,-5.5958,-5.9497,-6.1519,-6.0262,-5.2916,-4.1782,-3.3661,-2.9172,-2.7726,-2.7729,-3.0336,-3.411,-3.6365,-4.0075,-4.2988,-4.4851,-4.646,-4.7079,-4.7644,-4.7692,-4.7794,-4.7746,-4.8049,-4.825,-4.8336,-4.8335,-4.8391,-4.8493,-4.8757,-4.8665,-4.8774,-4.8695,-4.8897,-4.91,-4.9191,-4.9113,-4.909,-4.92,-4.9408,-4.9477,-4.9448,-4.9398,-4.9552,-4.969,-4.9752,-4.9672,-4.9625,-4.9688,-4.9855,-4.9847,-4.9782,-4.9678,-4.9615,-4.9757,-4.9795,-4.9626,-4.944,-4.9381,-4.945,-4.9534,-4.938,-4.932,-4.9336,-4.9613,-4.9769,-4.9782,-4.9669,-4.9602,-4.9621,-4.9658,-4.9343,-4.9002,-4.8637,-4.8501,-4.8409,-4.8116,-4.7806,-4.7583,-4.7485,-4.7579,-4.7366,-4.7274,-4.713,-4.7182,-4.7238,-4.7214,-4.7123,-4.7049,-4.7001,-4.7172,-4.7195,-4.7058,-4.6974,-4.7046,-4.723,-4.7266,-4.7082,-4.7008,-4.6998,-4.7192,-4.7144,-4.7033,-4.6899,-4.6943,-4.7015,-4.6997,-4.6852,-4.6803,-4.673,-4.6849,-4.6941,-4.6851,-4.6659,-4.6616,-4.6665,-4.6801,-4.6635,-4.6522,-4.6384,-4.6506,-4.6571,-4.6477,-4.635,-4.6344,-4.6547,-4.6791,-4.6808,-4.6858,-4.6806,-4.6932,-4.7074,-4.7111,-4.6966,-4.6785,-4.638,-4.6328,-4.6119,-4.6085,-4.6123,-4.608,-4.6425,-4.6514,-4.6333,-4.6085,-4.6046,-4.6184,-4.6129,-4.5938,-4.5853,-4.5809,-4.5953,-4.6029,-4.5865,-4.5754,-4.607,-4.7813,-5.089,-5.3148,-5.5728,-5.8702,-5.824,-5.5518,-4.5845,-3.8119,-3.2569,-3.0793,-2.9572,-2.7997,-3.0331,-3.346,-3.7415,-4.0325,-4.2808,-4.428,-4.5789,-4.6074,-4.675,-4.6631,-4.6989,-4.6805,-4.7195,-4.728,-4.7585,-4.7368,-4.7537,-4.7404,-4.7866,-4.7772,-4.7941,-4.7824,-4.7979,-4.8096,-4.8296,-4.819,-4.8306,-4.8295,-4.8662,-4.8698,-4.8763,-4.8672,-4.8792,-4.8998,-4.9115,-4.9029,-4.9063,-4.8986,-4.9152,-4.9295,-4.9269,-4.9179,-4.9104,-4.9198,-4.9274,-4.9141,-4.898,-4.8866,-4.8933,-4.9037,-4.8952,-4.8941,-4.8998,-4.9231,-4.9324,-4.9363,-4.919,-4.9021,-4.8901,-4.8887,-4.8601,-4.8289,-4.7886,-4.7697,-4.7637,-4.7441,-4.7154,-4.6964,-4.6848,-4.6945,-4.6792,-4.6708,-4.6573,-4.6639,-4.6685,-4.6812,-4.6678,-4.6642,-4.6534,-4.6739,-4.6775,-4.6716,-4.6639,-4.6643,-4.6788,-4.6848,-4.6726,-4.6686,-4.6652,-4.6814,-4.6825,-4.6711,-4.6547,-4.6538,-4.661,-4.6782,-4.6664,-4.6596,-4.6463,-4.652,-4.6657,-4.657,-4.6384,-4.6343,-4.6409,-4.6578,-4.6458,-4.636,-4.6273,-4.6478,-4.6692,-4.6825,-4.6779,-4.683,-4.6869,-4.7078,-4.7113,-4.7107,-4.6866,-4.646,-4.6249,-4.6137,-4.6096,-4.6158,-4.6052,-4.6296,-4.6503,-4.6366,-4.6097,-4.6038,-4.6095,-4.6122,-4.5969,-4.5896,-4.5804,-4.5914,-4.6012,-4.5902,-4.5747,-4.6106,-4.7995,-5.1321,-5.3782,-5.6624,-5.9549,-5.8827,-5.5217,-4.4332,-3.5243,-2.9508,-2.8291,-2.7436,-2.7537,-3.0508,-3.3473,-3.7737,-4.0859,-4.3394,-4.4919,-4.6046,-4.6229,-4.6934,-4.6803,-4.7077,-4.6945,-4.7357,-4.7447,-4.7677,-4.7454,-4.7616,-4.7516,-4.7937,-4.7947,-4.809,-4.7927,-4.8105,-4.8226,-4.8479,-4.8397,-4.8464,-4.844,-4.872,-4.8847,-4.8934,-4.8885,-4.9015,-4.9185,-4.9321,-4.9277,-4.9292,-4.9246,-4.9419,-4.9622,-4.9557,-4.9484,-4.9387,-4.948,-4.9611,-4.9518,-4.9333,-4.9277,-4.9305,-4.9473,-4.9394,-4.9389,-4.9408,-4.9629,-4.9726,-4.9745,-4.9499,-4.9286,-4.8993,-4.8961,-4.8656,-4.8326,-4.7841,-4.7722,-4.7669,-4.7522,-4.7233,-4.7067,-4.694,-4.707,-4.697,-4.6899,-4.6719,-4.6747,-4.6738,-4.693,-4.6763,-4.681,-4.6675,-4.6866,-4.6907,-4.6901,-4.6749,-4.6781,-4.6821,-4.7048,-4.6932,-4.6927,-4.6872,-4.7038,-4.7049,-4.7025,-4.687,-4.6899,-4.6855,-4.7032,-4.6941,-4.6837,-4.6752,-4.678,-4.6902,-4.6934,-4.6695,-4.6651,-4.6663,-4.685,-4.6721,-4.6671,-4.657,-4.671,-4.6946,-4.7071,-4.7076,-4.7086,-4.7147,-4.7372,-4.7479,-4.7454,-4.7245,-4.6861,-4.6592,-4.6531,-4.6397,-4.6406,-4.629,-4.6553,-4.6737,-4.6711,-4.6449,-4.6332,-4.6391,-4.6435,-4.6301,-4.6196,-4.6086,-4.6193,-4.63,-4.6226,-4.6071,-4.6116,-4.726,-5.0218,-5.3469,-5.6212,-5.9738,-6.0768,-5.9314,-4.9123,-3.6494,-2.7555,-2.5251,-2.5183,-2.5703,-2.8793,-3.1572,-3.6339,-4.0238,-4.3245,-4.5119,-4.6173,-4.6529,-4.7099,-4.7173,-4.7376,-4.7309,-4.7633,-4.7835,-4.8031,-4.7967,-4.8023,-4.7975,-4.8249,-4.8386,-4.8449,-4.8404,-4.8502,-4.8672,-4.8936,-4.8937,-4.894,-4.8936,-4.9188,-4.9414,-4.9434,-4.9435,-4.9466,-4.9718,-4.9902,-4.9891,-4.9883,-4.9884,-4.9995,-5.0267,-5.0217,-5.0186,-5,-5.0085,-5.0228,-5.0236,-5.007,-5.0041,-5.0014,-5.0247,-5.0175,-5.02,-5.0087,-5.0337,-5.0499,-5.0533,-5.0282,-5.0065,-4.9776,-4.9671,-4.9358,-4.9007,-4.8591,-4.8384,-4.8255,-4.8153,-4.7822,-4.761,-4.7427,-4.7553,-4.7468,-4.7341,-4.7123,-4.7115,-4.71,-4.7272,-4.7188,-4.7112,-4.7016,-4.7176,-4.7307,-4.7324,-4.7141,-4.7153,-4.7228,-4.744,-4.7354,-4.7309,-4.7228,-4.7375,-4.7481,-4.7433,-4.728,-4.7279,-4.7277,-4.7431,-4.7412,-4.7291,-4.716,-4.7195,-4.7318,-4.7349,-4.7157,-4.7111,-4.7069,-4.7215,-4.7173,-4.7057,-4.6949,-4.6932,-4.7048,-4.7039,-4.6984,-4.6871,-4.6749,-4.6903,-4.7079,-4.7175,-4.7201,-4.7326,-4.7536,-4.7724,-4.7667,-4.7594,-4.7548,-4.7523,-4.7212,-4.7032,-4.6798,-4.6839,-4.7037,-4.7118,-4.7132,-4.7091,-4.6918,-4.6736,-4.6871,-4.6743,-4.6612,-4.6475,-4.6484,-4.6599,-4.6601,-4.6403,-4.6303,-4.6343,-4.6712,-4.8006,-5.1136,-5.438,-5.7798,-6.0078,-6.2004,-6.1695,-5.2746,-3.9125,-2.6801,-2.3016,-2.2731,-2.4767,-2.8814,-3.2582,-3.7778,-4.1365,-4.4188,-4.5788,-4.6727,-4.7024,-4.7343,-4.7345,-4.7497,-4.7649,-4.8042,-4.7963,-4.8059,-4.8012,-4.8315,-4.8503,-4.855,-4.8478,-4.8614,-4.8733,-4.9083,-4.8988,-4.904,-4.899,-4.9259,-4.943,-4.9579,-4.9504,-4.9565,-4.959,-4.9927,-4.9986,-5.0016,-4.9961,-5.0047,-5.0097,-5.0367,-5.0291,-5.0239,-5.027,-5.0398,-5.0384,-5.0259,-5.0106,-5.0117,-5.027,-5.0295,-5.0138,-5.0053,-5.0113,-5.0305,-5.0497,-5.05,-5.0413,-5.0282,-5.0272,-5.0176,-4.9786,-4.9361,-4.8957,-4.8761,-4.8608,-4.8225,-4.7932,-4.766,-4.7671,-4.7691,-4.7575,-4.7335,-4.7205,-4.718,-4.7313,-4.7178,-4.709,-4.6973,-4.7058,-4.7204,-4.7202,-4.7048,-4.6994,-4.7074,-4.7282,-4.7254,-4.7213,-4.7129,-4.7108,-4.7211,-4.7297,-4.7157,-4.7086,-4.7033,-4.7207,-4.7188,-4.7098,-4.6939,-4.6905,-4.7002,-4.7086,-4.6954,-4.6803,-4.6737,-4.6882,-4.6845,-4.671,-4.6663,-4.6601,-4.6646,-4.6725,-4.6577,-4.6433,-4.6356,-4.6427,-4.6486,-4.6425,-4.6296,-4.6192,-4.6272,-4.6404,-4.6276,-4.6173,-4.6144,-4.6304,-4.6559,-4.663,-4.6672,-4.6612,-4.6656,-4.6869,-4.6786,-4.671,-4.6623,-4.6344,-4.6222,-4.6079,-4.6086,-4.6003,-4.6021,-4.6283,-4.6225,-4.6003,-4.5731,-4.5701,-4.5728,-4.5767,-4.5668,-4.5544,-4.5403,-4.5526,-4.5549,-4.5502,-4.5341,-4.5466,-4.6903,-4.9958,-5.2741,-5.5473,-5.8771,-5.9307,-5.7219,-4.6976,-3.6305,-3.2243,-2.7013,-2.5996,-2.5765,-2.8019,-3.1886,-3.5956,-3.9779,-4.2079,-4.4076,-4.4987,-4.5654,-4.5956,-4.6219,-4.6108,-4.6242,-4.6348,-4.674,-4.6736,-4.6814,-4.6721,-4.6781,-4.693,-4.7174,-4.7049,-4.7102,-4.7136,-4.7411,-4.7482,-4.7501,-4.7409,-4.7533,-4.7768,-4.7883,-4.7832,-4.7855,-4.7794,-4.8086,-4.8154,-4.8165,-4.8047,-4.799,-4.8069,-4.8243,-4.8189,-4.8131,-4.804,-4.8089,-4.8137,-4.7988,-4.7816,-4.7753,-4.7759,-4.7882,-4.7797,-4.7779,-4.7795,-4.7915,-4.8177,-4.8195,-4.8168,-4.7944,-4.7855,-4.7864,-4.7567,-4.7184,-4.6876,-4.6606,-4.6596,-4.6358,-4.601,-4.576,-4.5691,-4.5736,-4.5608,-4.5449,-4.5281,-4.5228,-4.5316,-4.5415,-4.5326,-4.5216,-4.5125,-4.5284,-4.5444,-4.5293,-4.5193,-4.5194,-4.5285,-4.5415,-4.5281,-4.5149,-4.5076,-4.5178,-4.5303,-4.5133,-4.5095,-4.5004,-4.5033,-4.5143,-4.5081,-4.4877,-4.4822,-4.4858,-4.5004,-4.496,-4.4741,-4.4613,-4.4614,-4.4732,-4.4626,-4.449,-4.4452,-4.4543,-4.46,-4.4535,-4.4404,-4.4254,-4.4208,-4.429,-4.4409,-4.4248,-4.4245,-4.4214,-4.447,-4.4531,-4.4569,-4.4492,-4.4573,-4.482,-4.4885,-4.4704,-4.4561,-4.4243,-4.4141,-4.4137,-4.4011,-4.3912,-4.3905,-4.4029,-4.4318,-4.4253,-4.4014,-4.386,-4.3896,-4.3992,-4.3881,-4.372,-4.3628,-4.3671,-4.3792,-4.3725,-4.3582,-4.3596,-4.392,-4.5935,-4.8998,-5.1194,-5.3807,-5.6684,-5.5679,-5.1964,-4.1787,-3.4891,-2.9852,-2.8186,-2.613,-2.6613,-3.0596,-3.3529,-3.743,-3.9406,-4.0808,-4.2123,-4.3627,-4.3773,-4.455,-4.4246,-4.4647,-4.4362,-4.4935,-4.4871,-4.5207,-4.4902,-4.5182,-4.5141,-4.5512,-4.5267,-4.5427,-4.5328,-4.5739,-4.5714,-4.593,-4.5663,-4.5816,-4.5823,-4.6227,-4.6142,-4.62,-4.6123,-4.6305,-4.6448,-4.6506,-4.6387,-4.6389,-4.6461,-4.6695,-4.6638,-4.652,-4.6507,-4.6542,-4.6599,-4.6563,-4.64,-4.6231,-4.6216,-4.6254,-4.6359,-4.6187,-4.6246,-4.6259,-4.6566,-4.6644,-4.6613,-4.6408,-4.6379,-4.6267,-4.615,-4.5719,-4.5448,-4.5218,-4.5151,-4.5012,-4.48,-4.442,-4.4307,-4.4229,-4.4418,-4.4175,-4.413,-4.3946,-4.4098,-4.4137,-4.4142,-4.3958,-4.3965,-4.3985,-4.4212,-4.4104,-4.4166,-4.3944,-4.4033,-4.4129,-4.4239,-4.4046,-4.4018,-4.3943,-4.4221,-4.4122,-4.4089,-4.3877,-4.3925,-4.4018,-4.4052,-4.3875,-4.3866,-4.3736,-4.3946,-4.3904,-4.3841,-4.3643,-4.3607,-4.3644,-4.3823,-4.3614,-4.3514,-4.3397,-4.3561,-4.3627,-4.3608,-4.35,-4.3594,-4.3809,-4.4095,-4.4027,-4.4066,-4.3991,-4.4119,-4.4274,-4.4172,-4.3749,-4.3299,-4.3147,-4.3286,-4.3268,-4.3184,-4.3149,-4.3445,-4.3636,-4.3418,-4.3205,-4.3109,-4.3085,-4.3204,-4.3093,-4.2963,-4.2921,-4.2871,-4.2994,-4.3036,-4.2987,-4.3601,-4.6032,-4.9473,-5.1979,-5.5086,-5.6577,-5.5151,-4.7402,-3.6976,-2.8889,-2.5549,-2.511,-2.5426,-2.8007,-2.9086,-3.2471,-3.6069,-3.8888,-4.133,-4.2733,-4.318,-4.3461,-4.3641,-4.4026,-4.4045,-4.4085,-4.4131,-4.4421,-4.4533,-4.459,-4.4506,-4.4624,-4.4772,-4.509,-4.5035,-4.5092,-4.5012,-4.5141,-4.5355,-4.549,-4.5438,-4.5496,-4.5543,-4.5816,-4.5922,-4.598,-4.5969,-4.6149,-4.6373,-4.6456,-4.6425,-4.6456,-4.6537,-4.6665,-4.6813,-4.6785,-4.666,-4.6651,-4.6713,-4.6882,-4.6728,-4.6653,-4.6556,-4.673,-4.6904,-4.6871,-4.6763,-4.6729,-4.6819,-4.6786,-4.6487,-4.6146,-4.599,-4.5772,-4.5639,-4.5332,-4.4982,-4.4693,-4.4527,-4.4562,-4.4355,-4.4154,-4.3936,-4.3955,-4.4081,-4.4002,-4.388,-4.3784,-4.3796,-4.3971,-4.3894,-4.388,-4.374,-4.376,-4.3921,-4.3995,-4.3929,-4.3878,-4.3829,-4.404,-4.407,-4.3992,-4.3909,-4.3873,-4.4029,-4.4043,-4.3955,-4.3841,-4.3784,-4.3932,-4.3954,-4.3886,-4.3737,-4.3659,-4.3768,-4.3904,-4.3832,-4.3638,-4.3602,-4.3594,-4.3808,-4.3738,-4.3543,-4.3524,-4.3768,-4.3988,-4.4065,-4.4045,-4.4052,-4.4133,-4.4339,-4.4442,-4.4352,-4.4052,-4.3542,-4.35,-4.3302,-4.327,-4.3244,-4.3219,-4.3502,-4.3626,-4.3566,-4.3206,-4.3178,-4.3376,-4.3326,-4.3113,-4.2986,-4.2936,-4.3115,-4.3071,-4.2981,-4.2816,-4.297,-4.4361,-4.755,-5.0457,-5.3089,-5.5875,-5.6198,-5.2822,-4.2369,-3.0598,-2.3898,-2.3891,-2.4137,-2.6061,-2.7751,-2.9729,-3.436,-3.749,-4.0519,-4.2107,-4.2969,-4.3147,-4.3779,-4.3786,-4.4009,-4.386,-4.4208,-4.4242,-4.4498,-4.4347,-4.4444,-4.442,-4.4827,-4.473,-4.4855,-4.467,-4.4875,-4.5044,-4.5236,-4.5171,-4.5285,-4.5267,-4.5551,-4.5666,-4.5745,-4.5657,-4.5809,-4.6014,-4.6224,-4.6215,-4.6191,-4.6208,-4.6356,-4.652,-4.6545,-4.6489,-4.6476,-4.6571,-4.6679,-4.6637,-4.6539,-4.6429,-4.6479,-4.6638,-4.6569,-4.6573,-4.6589,-4.6708,-4.6859,-4.6683,-4.6431,-4.6325,-4.6109,-4.6025,-4.5687,-4.5298,-4.4992,-4.4815,-4.469,-4.4576,-4.4309,-4.4131,-4.3966,-4.4099,-4.3957,-4.3886,-4.3661,-4.3672,-4.3737,-4.3763,-4.366,-4.3611,-4.3556,-4.3742,-4.3752,-4.3727,-4.365,-4.3716,-4.3816,-4.3933,-4.3825,-4.3843,-4.3768,-4.3909,-4.393,-4.3918,-4.3795,-4.3779,-4.3853,-4.3973,-4.3858,-4.3753,-4.3681,-4.374,-4.3786,-4.3788,-4.3627,-4.3513,-4.3528,-4.3733,-4.3585,-4.3515,-4.3339,-4.3458,-4.3693,-4.3741,-4.378,-4.3919,-4.4061,-4.4202,-4.4259,-4.4218,-4.4107,-4.3915,-4.352,-4.3386,-4.3075,-4.2923,-4.3037,-4.3254,-4.3418,-4.358,-4.3392,-4.3188,-4.3238,-4.3244,-4.3133,-4.3077,-4.3043,-4.3235,-4.3259,-4.3177,-4.3002,-4.2942,-4.3133,-4.4361,-4.7086,-5.016,-5.2744,-5.5877,-5.647,-5.3508,-4.2988,-3.0902,-2.3368,-2.3092,-2.3342,-2.3884,-2.6987,-2.9404,-3.4147,-3.7393,-4.0292,-4.1996,-4.2845,-4.3235,-4.3587,-4.3566,-4.3758,-4.3799,-4.4186,-4.4122,-4.4203,-4.4152,-4.4291,-4.4422,-4.4532,-4.4517,-4.455,-4.4484,-4.4792,-4.4893,-4.4947,-4.4897,-4.5022,-4.5217,-4.5454,-4.5401,-4.543,-4.5409,-4.5677,-4.5824,-4.5806,-4.5622,-4.574,-4.5824,-4.5988,-4.5969,-4.5896,-4.5779,-4.5814,-4.5916,-4.5834,-4.5627,-4.5491,-4.542,-4.5595,-4.5546,-4.5486,-4.5487,-4.5637,-4.5728,-4.588,-4.5889,-4.5786,-4.5701,-4.5637,-4.5607,-4.5235,-4.4946,-4.4688,-4.4688,-4.4507,-4.4378,-4.4181,-4.4059,-4.4101,-4.4098,-4.3918,-4.3816,-4.3703,-4.3848,-4.3755,-4.3752,-4.3527,-4.3442,-4.3612,-4.3831,-4.3736,-4.3728,-4.3711,-4.3872,-4.4037,-4.3992,-4.3955,-4.3963,-4.4023,-4.4175,-4.4146,-4.4062,-4.3979,-4.4044,-4.4218,-4.4221,-4.4091,-4.3992,-4.3955,-4.4065,-4.4055,-4.4012,-4.3845,-4.379,-4.3932,-4.3916,-4.3844,-4.3896,-4.406,-4.445,-4.4525,-4.4564,-4.447,-4.4507,-4.459,-4.4603,-4.4268,-4.3652,-4.3506,-4.3376,-4.3567,-4.3551,-4.3505,-4.3744,-4.3888,-4.3878,-4.3665,-4.3527,-4.3486,-4.3516,-4.3563,-4.3467,-4.3373,-4.3392,-4.3384,-4.3478,-4.3443,-4.3751,-4.5442,-4.8877,-5.1765,-5.4707,-5.6721,-5.5987,-4.9426,-3.8065,-2.5966,-2.2008,-2.2675,-2.4048,-2.7604,-3.0233,-3.2619,-3.6446,-3.9735,-4.2224,-4.3617,-4.3763,-4.427,-4.4265,-4.4799,-4.4774,-4.5031,-4.487,-4.5121,-4.5058,-4.5382,-4.5281,-4.54,-4.5356,-4.5714,-4.5687,-4.5782,-4.561,-4.5823,-4.6036,-4.6326,-4.6394,-4.6394,-4.629,-4.6489,-4.6567,-4.6689,-4.6584,-4.6572,-4.6683,-4.6863,-4.695,-4.6996,-4.6955,-4.7032,-4.7108,-4.7131,-4.7019,-4.6919,-4.6923,-4.7124,-4.7173,-4.7096,-4.7,-4.7071,-4.7353,-4.728,-4.7135,-4.6932,-4.6877,-4.6879,-4.6627,-4.6366,-4.6122,-4.5868,-4.5678,-4.5408,-4.5235,-4.5171,-4.5268,-4.5045,-4.4959,-4.4785,-4.4728,-4.4697,-4.4741,-4.4516,-4.4426,-4.4381,-4.4353,-4.4097,-4.4018,-4.3904,-4.3988,-4.4162,-4.4672,-4.515,-4.5528,-4.5615,-4.5886,-4.5898,-4.5876,-4.5706,-4.5711,-4.575,-4.5993,-4.6189,-4.6355,-4.6311,-4.6095,-4.594,-4.5919,-4.5837,-4.5771,-4.5632,-4.5576,-4.5804,-4.5864,-4.5908,-4.5992,-4.6023,-4.6394,-4.6541,-4.6678,-4.6806,-4.6815,-4.6483,-4.5827,-4.5665,-4.6009,-4.6059,-4.628,-4.6449,-4.6206,-4.596,-4.6263,-4.592,-4.5483,-4.5017,-4.4807,-4.4991,-4.5026,-4.5031,-4.4992,-4.5055,-4.5268,-4.5392,-4.561,-4.6765,-4.9823,-5.1712,-5.4196,-5.7369,-5.8553,-5.7175,-4.9178,-3.8187,-2.8176,-2.53,-2.5663,-2.7181,-3.0603,-3.4019,-3.8359,-4.107,-4.3578,-4.5136,-4.5971,-4.6127,-4.6274,-4.6279,-4.6768,-4.7059,-4.7037,-4.6996,-4.7062,-4.702,-4.7277,-4.7524,-4.7589,-4.7663,-4.7707,-4.7788,-4.7842,-4.7908,-4.8055,-4.8188,-4.8426,-4.8447,-4.8247,-4.8255,-4.8211,-4.826,-4.8626,-4.876,-4.8642,-4.8745,-4.9063,-4.9153,-4.8724,-4.846,-4.8338,-4.8273,-4.8453,-4.8864,-4.8503,-4.8386,-4.8396,-4.852,-4.8813,-4.8567,-4.8329,-4.8259,-4.8603,-4.8703,-4.8831,-4.9009,-4.8653,-4.8456,-4.8202,-4.793,-4.7293,-4.6812,-4.652,-4.6365,-4.6073,-4.6012,-4.5919,-4.5842,-4.554,-4.5492,-4.5522,-4.5397,-4.5578,-4.5482,-4.4876,-4.4763,-4.4654,-4.4994,-4.5126,-4.4899,-4.4988,-4.5116,-4.4662,-4.4675,-4.4342,-4.4478,-4.4785,-4.4866,-4.4463,-4.4202,-4.4303,-4.4491,-4.4449,-4.4094,-4.3737,-4.3815,-4.3861,-4.391,-4.371,-4.3437,-4.3469,-4.3658,-4.3709,-4.3958,-4.3804,-4.3615,-4.3515,-4.374,-4.3836,-4.3872,-4.4145,-4.366,-4.3362,-4.3318,-4.2942,-4.2955,-4.2685,-4.2632,-4.2689,-4.2828,-4.3113,-4.2999,-4.2539,-4.2267,-4.219,-4.2259,-4.2224,-4.2034,-4.1953,-4.1878,-4.2052,-4.197,-4.1965,-4.1834,-4.2117,-4.3715,-4.6988,-4.7093,-5.0644,-5.3477,-5.358,-4.6965,-4.0806,-3.06,-2.2397,-2.2413,-2.1512,-2.4057,-2.7042,-3.1137,-3.4799,-3.7867,-3.9834,-4.106,-4.1336,-4.2037,-4.1846,-4.2296,-4.2103,-4.2349,-4.2177,-4.2414,-4.2152,-4.2474,-4.2379,-4.2609,-4.27,-4.2993,-4.3021,-4.3038,-4.2749,-4.2807,-4.2758,-4.2971,-4.3081,-4.3226,-4.3392,-4.3418,-4.3453,-4.3604,-4.3631,-4.367,-4.3525,-4.3422,-4.3493,-4.3559,-4.3784,-4.3866,-4.3811,-4.3584,-4.3657,-4.361,-4.3646,-4.3511,-4.3614,-4.3596,-4.3612,-4.3513,-4.3603,-4.3443,-4.3493,-4.3483,-4.3589,-4.3636,-4.355,-4.3673,-4.3602,-4.3212,-4.2964,-4.2631,-4.2636,-4.2255,-4.1902,-4.1337,-4.1259,-4.1215,-4.1469,-4.1354,-4.1088,-4.0939,-4.1061,-4.1139,-4.123,-4.0987,-4.1069,-4.1043,-4.1251,-4.1473,-4.1427,-4.1223,-4.1197,-4.1096,-4.1122,-4.0998,-4.1074,-4.1057,-4.1131,-4.0999,-4.1112,-4.095,-4.0914,-4.0866,-4.1004,-4.1125,-4.123,-4.0929,-4.0724,-4.0603,-4.0754,-4.0586,-4.0541,-4.0511,-4.0552,-4.0547,-4.0621,-4.0783,-4.101,-4.1078,-4.1248,-4.1318,-4.1382,-4.1397,-4.1256,-4.0811,-4.0338,-4.0178,-4.0146,-4.016,-4.0274,-4.0223,-4.0409,-4.0606,-4.0625,-4.0395,-4.0285,-4.0158,-4.017,-4.0092,-4.0144,-4.0098,-4.0033,-4.003,-4.0049,-4.0072,-4.0588,-4.2718,-4.6044,-4.8391,-5.1167,-5.255,-5.0888,-4.3452,-3.2734,-2.3581,-2.0467,-2.0855,-2.1105,-2.3718,-2.6569,-3.0431,-3.3839,-3.6816,-3.8986,-4.0126,-4.0376,-4.0891,-4.0851,-4.1105,-4.1068,-4.1209,-4.1104,-4.1319,-4.1431,-4.1607,-4.1618,-4.1776,-4.1817,-4.1944,-4.1892,-4.1969,-4.2071,-4.2376,-4.2408,-4.2478,-4.2454,-4.2468,-4.2655,-4.2963,-4.3014,-4.2974,-4.286,-4.2951,-4.3097,-4.332,-4.3203,-4.323,-4.3254,-4.3343,-4.3449,-4.3429,-4.3275,-4.3328,-4.3153,-4.3271,-4.3324,-4.3331,-4.3487,-4.3479,-4.3346,-4.3355,-4.3405,-4.3693,-4.3982,-4.3935,-4.3542,-4.3153,-4.2909,-4.2878,-4.2692,-4.2469,-4.2198,-4.2022,-4.1774,-4.1759,-4.1537,-4.136,-4.1253,-4.128,-4.1346,-4.1226,-4.1239,-4.1231,-4.125,-4.133,-4.1297,-4.127,-4.1383,-4.1442,-4.112,-4.0988,-4.0987,-4.1116,-4.1249,-4.1243,-4.1443,-4.1294,-4.1162,-4.1044,-4.0982,-4.0954,-4.0775,-4.0747,-4.0953,-4.0951,-4.0939,-4.0749,-4.0848,-4.0961,-4.1101,-4.0969,-4.0784,-4.0588,-4.0696,-4.0729,-4.0908,-4.1193,-4.1357,-4.1359,-4.1442,-4.1513,-4.1463,-4.1425,-4.138,-4.0856,-4.0649,-4.0407,-4.0382,-4.0558,-4.0572,-4.0707,-4.0805,-4.0665,-4.061,-4.0611,-4.0524,-4.0386,-4.0247,-4.0237,-4.028,-4.0619,-4.0779,-4.0525,-4.0297,-4.0553,-4.2529,-4.5728,-4.8114,-5.0956,-5.2745,-5.1163,-4.5,-3.4728,-2.5719,-2.191,-2.1963,-2.2449,-2.529,-2.8493,-3.2252,-3.3905,-3.6303,-3.8774,-3.9846,-4.0616,-4.0977,-4.1372,-4.1243,-4.1422,-4.122,-4.1428,-4.1575,-4.1837,-4.1814,-4.1827,-4.1718,-4.1852,-4.1816,-4.1973,-4.1938,-4.2087,-4.2231,-4.2376,-4.2452,-4.2746,-4.2885,-4.2772,-4.2781,-4.2913,-4.2865,-4.2825,-4.2853,-4.3326,-4.3249,-4.3092,-4.3164,-4.3189,-4.3381,-4.3593,-4.3635,-4.3458,-4.3274,-4.3283,-4.3237,-4.3335,-4.3258,-4.3294,-4.3344,-4.3271,-4.3358,-4.3347,-4.3462,-4.345,-4.3533,-4.3571,-4.3341,-4.3119,-4.3044,-4.2772,-4.2482,-4.2105,-4.1918,-4.1928,-4.1887,-4.1567,-4.1452,-4.1345,-4.146,-4.1497,-4.1235,-4.1205,-4.1186,-4.14,-4.1457,-4.1188,-4.1158,-4.1179,-4.1223,-4.1268,-4.1455,-4.1533,-4.1255,-4.1017,-4.1093,-4.1404,-4.1372,-4.1168,-4.1017,-4.1117,-4.111,-4.098,-4.1122,-4.113,-4.1032,-4.0817,-4.0766,-4.0848,-4.0999,-4.0989,-4.0907,-4.0909,-4.0769,-4.067,-4.0714,-4.0906,-4.115,-4.1255,-4.1271,-4.146,-4.1505,-4.1567,-4.152,-4.1227,-4.0912,-4.0856,-4.0932,-4.0568,-4.0574,-4.0602,-4.0662,-4.0686,-4.082,-4.0778,-4.0725,-4.0758,-4.0705,-4.0441,-4.0251,-4.0306,-4.0489,-4.0499,-4.0439,-4.0284,-4.051,-4.1204,-4.3572,-4.6615,-4.8742,-5.1492,-5.2602,-5.0839,-4.2959,-3.2929,-2.459,-2.1953,-2.1383,-2.2649,-2.6199,-2.9294,-3.3263,-3.5962,-3.8628,-4.0208,-4.0623,-4.0731,-4.0953,-4.1159,-4.133,-4.137,-4.1705,-4.1637,-4.1711,-4.1633,-4.1735,-4.1879,-4.2098,-4.2115,-4.2238,-4.2122,-4.2343,-4.2495,-4.272,-4.2723,-4.2793,-4.2778,-4.2929,-4.2963,-4.305,-4.3057,-4.3082,-4.3116,-4.3052,-4.3134,-4.3388,-4.3406,-4.3495,-4.354,-4.3509,-4.3539,-4.3526,-4.3517,-4.3443,-4.3308,-4.3387,-4.3467,-4.363,-4.355,-4.3349,-4.33,-4.3391,-4.3566,-4.3565,-4.364,-4.3539,-4.336,-4.3157,-4.2884,-4.2586,-4.2382,-4.2144,-4.2203,-4.2111,-4.175,-4.1469,-4.1378,-4.1372,-4.1438,-4.1296,-4.1315,-4.1267,-4.1167,-4.116,-4.11,-4.1047,-4.1121,-4.1041,-4.1267,-4.1207,-4.1196,-4.0993,-4.0943,-4.0987,-4.1212,-4.1158,-4.1172,-4.1112,-4.112,-4.0878,-4.0823,-4.0817,-4.0932,-4.087,-4.0945,-4.0892,-4.0696,-4.0635,-4.0782,-4.0758,-4.0809,-4.0838,-4.0837,-4.0641,-4.05,-4.0574,-4.0592,-4.0761,-4.0925,-4.1137,-4.1181,-4.1094,-4.1134,-4.1183,-4.1278,-4.0858,-4.0461,-4.0474,-4.0431,-4.0511,-4.0559,-4.045,-4.0405,-4.0525,-4.0574,-4.0463,-4.0495,-4.0231,-4.0117,-4.0132,-4.0187,-4.0277,-4.0195,-3.9979,-3.9947,-4.0073,-4.1069,-4.379,-4.6641,-4.7771,-5.0514,-5.2557,-5.0952,-4.5563,-3.54,-2.6255,-2.1721,-2.1516,-2.1838,-2.4596,-2.7842,-3.1734,-3.5019,-3.7554,-3.9494,-4.0143,-4.0438,-4.0504,-4.0771,-4.0693,-4.0886,-4.1049,-4.1397,-4.1336,-4.1481,-4.1482,-4.176,-4.1763,-4.1741,-4.1651,-4.1742,-4.1905,-4.2009,-4.2023,-4.2152,-4.2328,-4.2515,-4.2458,-4.2595,-4.263,-4.2549,-4.2641,-4.3082,-4.2826,-4.2665,-4.2714,-4.2991,-4.3145,-4.3179,-4.3006,-4.2914,-4.305,-4.3233,-4.3149,-4.3084,-4.3014,-4.2975,-4.3059,-4.2931,-4.2795,-4.288,-4.3108,-4.2997,-4.2889,-4.2878,-4.3056,-4.3059,-4.2884,-4.2474,-4.2401,-4.2346,-4.1969,-4.1353,-4.1016,-4.1059,-4.1158,-4.1016,-4.0833,-4.0627,-4.0668,-4.0673,-4.0798,-4.0763,-4.0729,-4.0618,-4.0504,-4.0351,-4.0426,-4.0423,-4.0486,-4.0328,-4.0344,-4.0474,-4.0746,-4.0479,-4.0407,-4.0388,-4.042,-4.0329,-4.0198,-4.0224,-4.0326,-4.0299,-4.023,-3.9943,-3.9834,-4.0052,-4.0438,-4.0389,-4.0316,-4.0189,-3.9952,-3.9848,-3.986,-3.9863,-3.9936,-4.0018,-4.0231,-4.0109,-3.9855,-3.9896,-4.0335,-4.0728,-4.0941,-4.0639,-4.0439,-4.0474,-4.0595,-4.0289,-3.9948,-3.9815,-3.9556,-3.9696,-3.9755,-3.9825,-4,-4.0342,-4.0169,-4.0031,-3.9691,-3.9623,-3.9697,-3.95,-3.9358,-3.9404,-3.9545,-3.9535,-3.9526,-3.9783,-4.1121,-4.3754,-4.6124,-4.7239,-4.9941,-5.2018,-5.0785,-4.5274,-3.5234,-2.7425,-2.3043,-2.2011,-2.1985,-2.4475,-2.7709,-3.1473,-3.4853,-3.6878,-3.8643,-3.9252,-3.9715,-4.0073,-4.0327,-4.0279,-4.0358,-4.0363,-4.0637,-4.0645,-4.095,-4.1023,-4.1074,-4.1076,-4.1374,-4.1286,-4.1268,-4.118,-4.1456,-4.1444,-4.1447,-4.1564,-4.1892,-4.1975,-4.2106,-4.2168,-4.2454,-4.2396,-4.2186,-4.2313,-4.2519,-4.266,-4.2621,-4.26,-4.253,-4.2518,-4.261,-4.2618,-4.2451,-4.2485,-4.2417,-4.2619,-4.2673,-4.2671,-4.2477,-4.2319,-4.2245,-4.2346,-4.2518,-4.2677,-4.2814,-4.2789,-4.253,-4.249,-4.219,-4.1892,-4.1582,-4.1345,-4.1109,-4.0902,-4.057,-4.0417,-4.054,-4.0872,-4.0598,-4.0193,-4.0003,-4.0234,-4.0436,-4.0503,-4.0409,-4.0359,-4.0256,-4.0199,-4.0056,-4.0061,-4.0139,-4.0408,-4.0479,-4.0274,-3.9988,-3.9884,-4.0012,-4.0238,-4.0278,-4.0301,-4.0138,-3.9859,-3.9892,-4.0044,-4.0019,-3.9891,-3.9805,-3.9899,-4.0011,-3.994,-3.9831,-3.985,-3.977,-3.9719,-3.9862,-4.0162,-4.0535,-4.0558,-4.0412,-4.0236,-4.0201,-4.044,-4.0508,-4.0083,-3.9605,-3.9529,-3.9537,-3.971,-3.9879,-4.0063,-3.9994,-3.9788,-3.954,-3.9447,-3.9283,-3.9176,-3.933,-3.9462,-3.9496,-3.9235,-3.9204,-3.9501,-3.9818,-4.1136,-4.3546,-4.5603,-4.8167,-5.118,-5.1641,-4.9927,-4.1086,-3.2568,-2.9359,-2.39,-2.1882,-2.1228,-2.3905,-2.77,-3.1149,-3.4303,-3.6514,-3.8503,-3.934,-3.9675,-3.9661,-3.9881,-4.0023,-4.0429,-4.0824,-4.0931,-4.0717,-4.0834,-4.0753,-4.0861,-4.1014,-4.1235,-4.1221,-4.1301,-4.1228,-4.1449,-4.1663,-4.1757,-4.1737,-4.1776,-4.1838,-4.1911,-4.2294,-4.248,-4.2381,-4.2256,-4.2115,-4.2155,-4.2095,-4.2337,-4.2588,-4.2559,-4.2423,-4.249,-4.2412,-4.2503,-4.2464,-4.232,-4.2417,-4.2366,-4.2209,-4.2201,-4.2137,-4.1998,-4.2153,-4.2311,-4.231,-4.2363,-4.2387,-4.2424,-4.2481,-4.2256,-4.1952,-4.1463,-4.1229,-4.1219,-4.115,-4.0971,-4.0738,-4.045,-4.0339,-4.0286,-4.0335,-4.058,-4.0648,-4.0579,-4.0363,-3.9978,-4.0003,-4.0161,-4.0339,-4.053,-4.0614,-4.0322,-4.0233,-4.0233,-4.0541,-4.0518,-4.0421,-4.0124,-4.0149,-4.014,-4.0305,-4.0433,-4.0468,-4.0303,-4.0211,-4.0252,-4.034,-4.0434,-4.037,-4.039,-4.0454,-4.065,-4.0914,-4.0945,-4.1033,-4.0883,-4.0831,-4.0883,-4.0671,-4.0392,-4.0235,-4.0275,-4.0212,-4.0123,-4.021,-4.0355,-4.0383,-4.0137,-3.9942,-3.9885,-3.9867,-3.9808,-3.9758,-3.9838,-4.0074,-3.9949,-3.9458,-3.9455,-4.0607,-4.3322,-4.4979,-4.7174,-5.0324,-5.334,-5.3467,-5.0118,-3.8813,-2.9015,-2.2591,-2.0191,-2.0104,-2.2423,-2.7007,-3.0763,-3.4726,-3.7022,-3.8987,-3.9597,-4.0259,-4.0291,-4.0841,-4.0957,-4.1221,-4.0843,-4.1256,-4.129,-4.1627,-4.1361,-4.1387,-4.1249,-4.1444,-4.1442,-4.1822,-4.1863,-4.1981,-4.1838,-4.2057,-4.2162,-4.2277,-4.2241,-4.2719,-4.2745,-4.2589,-4.2433,-4.2617,-4.2733,-4.2935,-4.2826,-4.2757,-4.2833,-4.3042,-4.2991,-4.2847,-4.2753,-4.2758,-4.2953,-4.2676,-4.2363,-4.2186,-4.218,-4.2422,-4.2666,-4.2395,-4.2476,-4.2518,-4.2891,-4.3093,-4.3088,-4.27,-4.2499,-4.2338,-4.2362,-4.2033,-4.1934,-4.178,-4.1663,-4.1394,-4.1316,-4.1018,-4.0972,-4.0957,-4.0931,-4.0955,-4.1133,-4.1137,-4.1131,-4.0937,-4.0908,-4.0799,-4.0928,-4.0949,-4.0913,-4.076,-4.0961,-4.1001,-4.0977,-4.0993,-4.142,-4.1349,-4.0857,-4.0447,-4.0451,-4.074,-4.1114,-4.118,-4.1158,-4.1269,-4.1523,-4.1428,-4.1404,-4.1479,-4.1704,-4.1702,-4.1631,-4.1104,-4.0905,-4.0883,-4.1042,-4.1012,-4.0985,-4.1058,-4.1057,-4.0984,-4.0717,-4.0344,-4.007,-4.029,-4.0486,-4.0374,-4.0196,-3.9972,-4.0047,-4.012,-4.0096,-4.0099,-4.1059,-4.3369,-4.6192,-4.9011,-5.2749,-5.4725,-5.4173,-4.5441,-3.3532,-2.4645,-2.018,-1.8816,-2.0432,-2.5008,-2.9052,-3.3239,-3.6229,-3.837,-3.9776,-4.0273,-4.031,-4.0626,-4.0747,-4.1277,-4.1153,-4.1248,-4.119,-4.1661,-4.1946,-4.2048,-4.1753,-4.1633,-4.1721,-4.2038,-4.2339,-4.2966,-4.2452,-4.219,-4.2063,-4.2194,-4.2189,-4.2183,-4.2387,-4.2744,-4.2708,-4.2715,-4.2752,-4.2654,-4.275,-4.3214,-4.3127,-4.292,-4.2753,-4.2808,-4.2758,-4.2909,-4.2996,-4.3118,-4.2982,-4.2524,-4.2454,-4.229,-4.2256,-4.241,-4.2739,-4.266,-4.2552,-4.275,-4.2983,-4.3509,-4.3017,-4.2383,-4.2315,-4.2166,-4.1975,-4.1673,-4.1504,-4.122,-4.1155,-4.0964,-4.0888,-4.0934,-4.1243,-4.1227,-4.0953,-4.0635,-4.0486,-4.067,-4.1047,-4.102,-4.07,-4.0557,-4.0719,-4.0763,-4.0555,-4.0587,-4.0601,-4.0607,-4.0723,-4.0917,-4.1023,-4.0862,-4.0791,-4.0988,-4.1386,-4.1175,-4.1084,-4.1128,-4.124,-4.1523,-4.1613,-4.1753,-4.1347,-4.0706,-4.0594,-4.0686,-4.0606,-4.089,-4.0842,-4.0678,-4.0698,-4.0343,-4.0186,-4.0033,-4.0103,-4.0256,-4.0101,-3.9983,-4.011,-3.9821,-3.9589,-3.9791,-4.0246,-4.1537,-4.2712,-4.5055,-4.728,-5.0354,-5.2841,-5.1881,-4.7132,-3.7231,-3.0499,-2.5388,-2.2861,-2.1886,-2.4117,-2.8175,-3.1413,-3.4865,-3.6966,-3.8917,-3.9652,-3.9837,-3.9784,-4.0193,-4.0611,-4.079,-4.0674,-4.068,-4.0784,-4.1251,-4.1269,-4.1415,-4.14,-4.1496,-4.1542,-4.1377,-4.1405,-4.1826,-4.1856,-4.2081,-4.2138,-4.2274,-4.2063,-4.1888,-4.191,-4.2115,-4.2307,-4.2434,-4.2562,-4.2563,-4.2271,-4.2158,-4.2505,-4.2685,-4.2563,-4.2291,-4.2194,-4.2213,-4.2064,-4.2022,-4.2077,-4.2127,-4.2002,-4.1719,-4.166,-4.2056,-4.2385,-4.2681,-4.2895,-4.2776,-4.2816,-4.2711,-4.2579,-4.2207,-4.1753,-4.1663,-4.149,-4.1258,-4.1174,-4.1234,-4.1198,-4.1048,-4.0744,-4.0645,-4.093,-4.1023,-4.0707,-4.049,-4.0431,-4.0504,-4.0685,-4.074,-4.0901,-4.1048,-4.1106,-4.1143,-4.0955,-4.0905,-4.0842,-4.0747,-4.0655,-4.0593,-4.062,-4.0754,-4.0997,-4.1206,-4.1417,-4.1532,-4.1528,-4.1367,-4.1423,-4.1557,-4.1862,-4.1822,-4.1108,-4.0465,-4.0409,-4.0396,-4.0767,-4.0824,-4.0795,-4.0867,-4.0957,-4.0842,-4.066,-4.079,-4.0802,-4.0621,-4.0322,-4.0009,-4.0116,-4.0286,-4.0355,-4.0341,-4.0424,-4.1685,-4.3146,-4.6364,-4.9447,-5.3186,-5.4724,-5.3662,-4.4186,-3.1113,-2.1961,-1.8271,-1.8715,-2.1023,-2.5284,-2.902,-3.3404,-3.6178,-3.8846,-4.0169,-4.0917,-4.0818,-4.1293,-4.1217,-4.151,-4.112,-4.1289,-4.1352,-4.1689,-4.1742,-4.2184,-4.2057,-4.2265,-4.2281,-4.2264,-4.2189,-4.2556,-4.267,-4.2813,-4.2958,-4.3097,-4.2971,-4.2894,-4.2869,-4.2942,-4.3166,-4.3468,-4.3612,-4.3637,-4.3537,-4.3568,-4.3484,-4.3473,-4.3573,-4.3604,-4.3677,-4.3603,-4.357,-4.343,-4.35,-4.3507,-4.3371,-4.3179,-4.3123,-4.322,-4.3479,-4.3559,-4.3863,-4.4027,-4.3918,-4.3573,-4.3447,-4.3295,-4.3311,-4.2632,-4.216,-4.1829,-4.2007,-4.1955,-4.174,-4.1205,-4.1197,-4.1431,-4.1655,-4.1561,-4.1211,-4.1011,-4.1119,-4.1309,-4.168,-4.1401,-4.1132,-4.1142,-4.1362,-4.165,-4.181,-4.1296,-4.1243,-4.1085,-4.1331,-4.1491,-4.1481,-4.1105,-4.0997,-4.1098,-4.1342,-4.1535,-4.1506,-4.1484,-4.1687,-4.1607,-4.1555,-4.1939,-4.2226,-4.2123,-4.1998,-4.195,-4.2073,-4.2023,-4.2328,-4.2531,-4.2391,-4.1744,-4.12,-4.1197,-4.1523,-4.1743,-4.1472,-4.1191,-4.1326,-4.1777,-4.1782,-4.12,-4.0846,-4.0909,-4.106,-4.0967,-4.0884,-4.0808,-4.107,-4.1186,-4.1024,-4.0779,-4.1527,-4.4031,-4.7555,-5.0532,-5.4286,-5.5532,-5.4241,-4.4576,-3.1457,-2.2133,-1.8831,-1.9008,-1.9881,-2.3599,-2.7091,-3.1654,-3.5338,-3.8271,-4.0163,-4.098,-4.1267,-4.1569,-4.1682,-4.1901,-4.1861,-4.1906,-4.1995,-4.2497,-4.2658,-4.2761,-4.2625,-4.2712,-4.2748,-4.3087,-4.3171,-4.3255,-4.3203,-4.3349,-4.336,-4.3533,-4.3425,-4.3457,-4.343,-4.3809,-4.3967,-4.4159,-4.419,-4.4216,-4.4145,-4.4038,-4.3971,-4.3895,-4.3999,-4.4092,-4.4058,-4.3908,-4.3794,-4.4026,-4.4361,-4.4467,-4.3997,-4.3579,-4.3695,-4.3951,-4.4084,-4.4041,-4.4154,-4.4268,-4.4647,-4.4897,-4.4924,-4.4305,-4.369,-4.3456,-4.3176,-4.3049,-4.3078,-4.2903,-4.2358,-4.2002,-4.2074,-4.2248,-4.2151,-4.2305,-4.2167,-4.2002,-4.1661,-4.1578,-4.1644,-4.1759,-4.1845,-4.2107,-4.2114,-4.1977,-4.1962,-4.1838,-4.1789,-4.1843,-4.2315,-4.2511,-4.2265,-4.1806,-4.1813,-4.2108,-4.237,-4.22,-4.1935,-4.1795,-4.1823,-4.1843,-4.1793,-4.1979,-4.2313,-4.2338,-4.1905,-4.1593,-4.1528,-4.1723,-4.1797,-4.1707,-4.1563,-4.1443,-4.1366,-4.1334,-4.13,-4.1216,-4.1334,-4.1394,-4.1414,-4.1217,-4.1259,-4.134,-4.1312,-4.1343,-4.1408,-4.1125,-4.0846,-4.085,-4.1051,-4.1166,-4.1166,-4.108,-4.0851,-4.108,-4.1604,-4.1499,-4.1343,-4.1127,-4.1098,-4.1071,-4.1246,-4.1138,-4.0834,-4.0807,-4.0751,-4.0854,-4.1265,-4.1421,-4.1263,-4.1115,-4.0903,-4.0813,-4.1145,-4.149,-4.1354,-4.1245,-4.1049,-4.0729,-4.0714,-4.1151,-4.1252,-4.1144,-4.083,-4.0676,-4.0891,-4.1395,-4.1466,-4.1095,-4.0884,-4.0472,-4.089,-4.1356,-4.1581,-4.1373,-4.1311,-4.1121,-4.1072,-4.1316,-4.1602,-4.1869,-4.1765,-4.1819,-4.2107,-4.2069,-4.1898,-4.1536,-4.1393,-4.1672,-4.1644,-4.1229,-4.1165,-4.1327,-4.1425,-4.1442,-4.141,-4.1733,-4.136,-4.0953,-4.0793,-4.0879,-4.088,-4.0943,-4.0796,-4.1033,-4.1201,-4.1973,-4.4258,-4.7072,-4.9354,-5.3307,-5.5543,-5.5024,-5.1884,-3.974,-2.7997,-2.1117,-2.0129,-2.0562,-2.2872,-2.6398,-3.0846,-3.5214,-3.8037,-4.0016,-4.0817,-4.18,-4.1854,-4.2225,-4.2038,-4.2371,-4.2747,-4.3053,-4.2932,-4.318,-4.3029,-4.312,-4.3097,-4.3626,-4.3538,-4.3641,-4.3561,-4.3885,-4.3922,-4.4053,-4.3902,-4.4029,-4.4148,-4.4601,-4.4795,-4.4784,-4.4594,-4.4603,-4.4688,-4.4836,-4.4945,-4.5141,-4.515,-4.5235,-4.5287,-4.5352,-4.5279,-4.5221,-4.527,-4.5326,-4.5147,-4.5,-4.5033,-4.5353,-4.5321,-4.5114,-4.5155,-4.5193,-4.574,-4.5886,-4.5821,-4.5671,-4.5737,-4.5865,-4.5848,-4.5622,-4.5543,-4.5038,-4.4666,-4.4355,-4.4379,-4.4416,-4.4239,-4.3756,-4.3482,-4.3431,-4.3385,-4.3435,-4.3488,-4.3441,-4.3465,-4.3305,-4.3424,-4.3361,-4.3635,-4.377,-4.3922,-4.3563,-4.3262,-4.3438,-4.397,-4.3721,-4.3357,-4.3335,-4.3492,-4.3945,-4.377,-4.3495,-4.36,-4.3584,-4.3837,-4.3896,-4.3614,-4.3376,-4.3388,-4.3519,-4.3548,-4.3574,-4.3648,-4.3521,-4.3563,-4.3309,-4.3178,-4.319,-4.3418,-4.3732,-4.3529,-4.3176,-4.3114,-4.3349,-4.3529,-4.3339,-4.2974,-4.3,-4.3182,-4.3276,-4.3246,-4.3181,-4.334,-4.3375,-4.339,-4.3183,-4.31,-4.3002,-4.2852,-4.2929,-4.3135,-4.3391,-4.3424,-4.3175,-4.3148,-4.3119,-4.3511,-4.3682,-4.333,-4.3348,-4.3341,-4.3657,-4.3915,-4.3965,-4.3848,-4.3439,-4.339,-4.3176,-4.3351,-4.3372,-4.3196,-4.3271,-4.3301,-4.3515,-4.3375,-4.3305,-4.3294,-4.3187,-4.3322,-4.319,-4.3145,-4.3174,-4.3017,-4.3032,-4.3118,-4.3307,-4.4831,-4.773,-5.0647,-5.4068,-5.699,-5.6708,-5.4196,-4.3431,-3.2898,-2.6281,-2.4034,-2.356,-2.5472,-2.9519,-3.2977,-3.6965,-3.9602,-4.1743,-4.2176,-4.3326,-4.3707,-4.4584,-4.4267,-4.4845,-4.4803,-4.471,-4.4346,-4.4622,-4.47,-4.5096,-4.5334,-4.5616,-4.5371,-4.5434,-4.5429,-4.5832,-4.6188,-4.6285,-4.6064,-4.5901,-4.5763,-4.6015,-4.626,-4.6481,-4.6242,-4.6428,-4.6624,-4.6922,-4.6708,-4.6627,-4.7066,-4.727,-4.6818,-4.6633,-4.6771,-4.6983,-4.6846,-4.6534,-4.6514,-4.6754,-4.668,-4.6444,-4.6619,-4.6544,-4.6506,-4.6659,-4.6596,-4.655,-4.6925,-4.7094,-4.7088,-4.6577,-4.6074,-4.5412,-4.524,-4.5397,-4.55,-4.539,-4.5316,-4.5129,-4.4578,-4.4461,-4.4349,-4.4342,-4.4504,-4.4501,-4.4362,-4.4066,-4.4166,-4.4281,-4.4149,-4.4044,-4.4186,-4.4364,-4.4473,-4.4344,-4.4502,-4.4553,-4.4782,-4.463,-4.4749,-4.4634,-4.4744,-4.4519,-4.4566,-4.4832,-4.4954,-4.4741,-4.4579,-4.4553,-4.4616,-4.4674,-4.4884,-4.4645,-4.4743,-4.4883,-4.4874,-4.4639,-4.4602,-4.4421,-4.4864,-4.4992,-4.5071,-4.4768,-4.4391,-4.4486,-4.4668,-4.5014,-4.5079,-4.4784,-4.467,-4.4563,-4.4639,-4.464,-4.5187,-4.5253,-4.5039,-4.4822,-4.469,-4.481,-4.4895,-4.4933,-4.5191,-4.536,-4.5353,-4.516,-4.4971,-4.503,-4.5489,-4.577,-4.5616,-4.5645,-4.5769,-4.6037,-4.6308,-4.6183,-4.6158,-4.6395,-4.6339,-4.6404,-4.613,-4.5974,-4.5926,-4.5941,-4.6283,-4.656,-4.648,-4.63,-4.638,-4.6222,-4.6101,-4.6004,-4.6152,-4.6062,-4.6098,-4.614,-4.634,-4.6413,-4.6501,-4.7837,-5.108,-5.4296,-5.7656,-6.1339,-6.1901,-5.8094,-4.5906,-3.2674,-2.5506,-2.4345,-2.4281,-2.645,-3.0391,-3.4821,-3.9854,-4.3235,-4.5152,-4.6336,-4.7323,-4.797,-4.8504,-4.8507,-4.8388,-4.8638,-4.91,-4.9333,-4.9515,-4.9188,-4.9411,-4.9517,-4.9735,-4.9965,-5.0058,-5.0046,-5.0287,-5.0353,-5.0631,-5.0796,-5.0919,-5.0843,-5.0962,-5.1274,-5.1428,-5.1464,-5.1646,-5.1674,-5.1914,-5.2267,-5.2242,-5.215,-5.1962,-5.1913,-5.2028,-5.2452,-5.2795,-5.252,-5.2251,-5.2028,-5.2079,-5.2433,-5.2313,-5.1976,-5.239,-5.2638,-5.2174,-5.2117,-5.2287,-5.2735,-5.2665,-5.2264,-5.1979,-5.2179,-5.2181,-5.1579,-5.0818,-5.0722,-5.0724,-5.0536,-5.0078,-4.9985,-4.9641,-4.9601,-4.9769,-4.9763,-4.9716,-4.9228,-4.8676,-4.8699,-4.8625,-4.8999,-4.8972,-4.9072,-4.9267,-4.9487,-4.9274,-4.9392,-4.9515,-4.9129,-4.8771,-4.8575,-4.8707,-4.898,-4.9157,-4.8705,-4.8295,-4.8307,-4.8305,-4.8288,-4.7991,-4.8594,-4.8699,-4.8158,-4.7473,-4.7169,-4.7471,-4.8046,-4.8385,-4.7341,-4.6615,-4.6934,-4.7403,-4.7801,-4.7431,-4.7233,-4.7394,-4.7372,-4.7716,-4.8448,-4.8041,-4.738,-4.7148,-4.7406,-4.758,-4.8436,-4.9115,-4.8151,-4.7262,-4.7354,-4.7833,-4.8349,-4.8429,-4.7987,-4.773,-4.8106,-4.8261,-4.8244,-4.8066,-4.7885,-4.828,-4.8077,-4.7917,-4.7738,-4.7973,-4.832,-4.832,-4.8434,-4.894,-4.8883,-4.8892,-4.8915,-4.869,-4.7447,-4.7143,-4.7387,-4.7478,-4.7718,-4.8153,-4.8316,-4.7939,-4.7211,-4.6989,-4.6866,-4.7315,-4.7099,-4.6561,-4.6638,-4.6716,-4.6737,-4.669,-4.6834,-4.6777,-4.7303,-4.9433,-5.1035,-5.3512,-5.6847,-6.0099,-5.9838,-5.6929,-4.5949,-3.6659,-3.0575,-2.8311,-2.6874,-2.8002,-3.2575,-3.6421,-4.0848,-4.3356,-4.5146,-4.5417,-4.628,-4.6148,-4.7008,-4.6639,-4.7171,-4.7027,-4.7375,-4.7194,-4.7467,-4.7591,-4.8429,-4.8129,-4.7861,-4.7596,-4.8117,-4.7934,-4.825,-4.8146,-4.8253,-4.8133,-4.8227,-4.8244,-4.8662,-4.8623,-4.8704,-4.8952,-4.9071,-4.8733,-4.8651,-4.8968,-4.8888,-4.8744,-4.856,-4.8528,-4.8525,-4.8628,-4.8784,-4.8766,-4.8607,-4.8145,-4.8019,-4.8015,-4.81,-4.8157,-4.7961,-4.8057,-4.8169,-4.8562,-4.8591,-4.9,-4.9448,-4.9415,-4.8936,-4.8439,-4.7859,-4.788,-4.7455,-4.7207,-4.7039,-4.7456,-4.7431,-4.7027,-4.6487,-4.6373,-4.6266,-4.6457,-4.6096,-4.5847,-4.5775,-4.6207,-4.6247,-4.6255,-4.6003,-4.6023,-4.6007,-4.6252,-4.6453,-4.6595,-4.6589,-4.6492,-4.6066,-4.5934,-4.5982,-4.6192,-4.6109,-4.6272,-4.6459,-4.6474,-4.6581,-4.6319,-4.5901,-4.6068,-4.6343,-4.6481,-4.6133,-4.5968,-4.5906,-4.6134,-4.6167,-4.6054,-4.5805,-4.5925,-4.6106,-4.6243,-4.5901,-4.5766,-4.5778,-4.5895,-4.6101,-4.6038,-4.6068,-4.606,-4.5741,-4.5591,-4.5432,-4.5611,-4.5808,-4.6215,-4.6251,-4.5866,-4.5482,-4.5422,-4.5502,-4.6087,-4.6344,-4.6268,-4.6316,-4.6347,-4.6278,-4.617,-4.6213,-4.6017,-4.581,-4.5757,-4.5728,-4.557,-4.5648,-4.5583,-4.5862,-4.5849,-4.5754,-4.5627,-4.5609,-4.57,-4.5852,-4.5826,-4.5447,-4.5304,-4.5286,-4.5334,-4.5359,-4.5764,-4.7815,-5.087,-5.2299,-5.4757,-5.8572,-5.9642,-5.8513,-4.8948,-3.6856,-2.8437,-2.5712,-2.5155,-2.627,-2.9799,-3.3717,-3.7813,-4.0978,-4.3272,-4.4891,-4.5597,-4.6039,-4.6429,-4.6613,-4.6863,-4.6685,-4.6821,-4.6893,-4.7256,-4.7355,-4.7582,-4.7752,-4.771,-4.7383,-4.76,-4.7924,-4.8086,-4.7943,-4.8023,-4.8259,-4.8378,-4.8385,-4.8447,-4.8504,-4.8618,-4.8692,-4.9013,-4.9033,-4.8872,-4.8768,-4.8846,-4.9067,-4.9201,-4.9468,-4.95,-4.9475,-4.9427,-4.9267,-4.8985,-4.889,-4.881,-4.8818,-4.8984,-4.9207,-4.9077,-4.9222,-4.9072,-4.9165,-4.9277,-4.9298,-4.9223,-4.9163,-4.9271,-4.9133,-4.8857,-4.86,-4.8329,-4.811,-4.7733,-4.7459,-4.7312,-4.7119,-4.6928,-4.6963,-4.6963,-4.6902,-4.6665,-4.6424,-4.6115,-4.6422,-4.6617,-4.657,-4.6295,-4.636,-4.6437,-4.6393,-4.6359,-4.6314,-4.6073,-4.6054,-4.6147,-4.632,-4.639,-4.6552,-4.6521,-4.6677,-4.6868,-4.7011,-4.7033,-4.6984,-4.7006,-4.7097,-4.7165,-4.7153,-4.7168,-4.7077,-4.6915,-4.7,-4.6987,-4.6936,-4.6918,-4.6941,-4.7123,-4.7393,-4.7244,-4.6961,-4.6855,-4.6786,-4.7005,-4.7096,-4.7306,-4.7166,-4.7107,-4.6856,-4.6758,-4.6916,-4.6976,-4.6975,-4.6934,-4.6978,-4.7248,-4.7111,-4.6981,-4.6715,-4.6844,-4.6992,-4.6939,-4.6983,-4.7185,-4.7457,-4.7509,-4.7736,-4.77,-4.7803,-4.7964,-4.7613,-4.7409,-4.7268,-4.7206,-4.7212,-4.7255,-4.7217,-4.7289,-4.746,-4.7595,-4.7577,-4.7269,-4.7303,-4.7182,-4.7097,-4.6907,-4.6814,-4.6912,-4.6864,-4.7009,-4.6975,-4.692,-4.7868,-5.0565,-5.3752,-5.6878,-6.0866,-6.2558,-6.077,-4.9649,-3.5386,-2.5618,-2.3716,-2.4412,-2.6732,-3.1125,-3.5583,-4.0113,-4.2843,-4.544,-4.602,-4.7265,-4.7514,-4.7926,-4.7813,-4.8196,-4.8251,-4.8538,-4.8608,-4.8821,-4.8846,-4.9046,-4.9071,-4.9317,-4.9039,-4.9108,-4.9202,-4.9626,-4.9508,-4.9588,-4.9573,-4.9856,-4.9968,-5.016,-5.0203,-5.0321,-5.0351,-5.0513,-5.0495,-5.0615,-5.0746,-5.086,-5.0808,-5.0872,-5.0789,-5.0799,-5.0787,-5.0878,-5.0926,-5.0988,-5.0865,-5.0882,-5.0642,-5.0458,-5.0506,-5.0446,-5.0516,-5.0469,-5.0704,-5.0731,-5.0785,-5.0772,-5.0764,-5.0679,-5.0621,-5.0428,-5.0172,-4.9787,-4.9398,-4.9118,-4.9013,-4.868,-4.8629,-4.8609,-4.8582,-4.8133,-4.7895,-4.7712,-4.7865,-4.822,-4.819,-4.8005,-4.8257,-4.804,-4.7966,-4.7909,-4.8081,-4.8015,-4.8153,-4.8028,-4.7971,-4.7734,-4.7876,-4.8011,-4.8258,-4.8293,-4.8425,-4.8361,-4.8473,-4.8492,-4.8527,-4.8332,-4.8217,-4.7911,-4.7919,-4.7865,-4.7941,-4.7927,-4.8025,-4.8086,-4.8062,-4.7736,-4.7807,-4.7991,-4.8281,-4.8162,-4.7717,-4.7556,-4.755,-4.7702,-4.7734,-4.7454,-4.7316,-4.7325,-4.7399,-4.7534,-4.7574,-4.7538,-4.7628,-4.7765,-4.7887,-4.7786,-4.7495,-4.7303,-4.7316,-4.7332,-4.7544,-4.7584,-4.7677,-4.7773,-4.7784,-4.786,-4.7876,-4.7943,-4.7954,-4.8055,-4.8192,-4.804,-4.8028,-4.7798,-4.7328,-4.7207,-4.7185,-4.732,-4.7637,-4.7623,-4.7531,-4.7607,-4.7491,-4.73,-4.7002,-4.6986,-4.7099,-4.7217,-4.7186,-4.7176,-4.7171,-4.8022,-4.9565,-5.2186,-5.4701,-5.7673,-6.0779,-6.0336,-5.7008,-4.5822,-3.5755,-2.969,-2.8397,-2.7493,-2.9076,-3.3536,-3.5365,-3.9502,-4.238,-4.4732,-4.6219,-4.7208,-4.7338,-4.7771,-4.8037,-4.8803,-4.8923,-4.8834,-4.8579,-4.8733,-4.8879,-4.9102,-4.8901,-4.9061,-4.8965,-4.923,-4.9446,-4.9823,-4.9526,-4.9479,-4.9384,-4.9684,-4.9634,-4.9946,-5.0041,-5.0327,-5.0278,-5.047,-5.0763,-5.0875,-5.0567,-5.034,-5.0521,-5.0863,-5.1038,-5.1201,-5.0768,-5.0392,-5.0354,-5.0347,-5.0412,-5.0415,-5.0379,-5.0505,-5.0644,-5.0577,-5.0621,-5.0787,-5.0855,-5.0618,-5.063,-5.056,-5.0603,-5.0537,-5.0314,-4.9907,-4.9779,-4.9913,-5.0067,-4.9582,-4.9022,-4.8759,-4.8518,-4.8315,-4.8422,-4.8297,-4.8285,-4.8054,-4.8052,-4.7889,-4.7872,-4.8073,-4.8157,-4.8004,-4.8053,-4.8129,-4.8134,-4.805,-4.7942,-4.7831,-4.7918,-4.8063,-4.8275,-4.8183,-4.8091,-4.7986,-4.8175,-4.8409,-4.8542,-4.828,-4.8031,-4.8027,-4.8146,-4.8223,-4.8168,-4.8234,-4.8412,-4.8132,-4.7954,-4.7785,-4.7914,-4.813,-4.8198,-4.7955,-4.7816,-4.774,-4.7953,-4.802,-4.7971,-4.77,-4.7785,-4.7758,-4.7664,-4.7642,-4.7818,-4.8043,-4.7929,-4.7802,-4.791,-4.7692,-4.7455,-4.7447,-4.765,-4.7808,-4.7771,-4.7836,-4.7731,-4.7622,-4.7689,-4.7577
