4.245,4.2445,4.2436,4.2366,4.2329,4.2742,4.4128,4.6842,4.9514,4.9906,5.1553,5.0536,4.3663,3.8736,3.7676,3.7315,3.7874,3.9546,4.1029,4.2104,4.2554,4.2672,4.2685,4.2751,4.2714,4.2812,4.2803,4.286,4.2835,4.2924,4.2961,4.3026,4.2996,4.3077,4.3085,4.3201,4.3226,4.3317,4.3342,4.3456,4.3538,4.362,4.3665,4.375,4.3838,4.3956,4.4095,4.4152,4.4225,4.4343,4.4488,4.4694,4.478,4.4927,4.5049,4.5233,4.5455,4.5572,4.5712,4.5872,4.601,4.6184,4.6274,4.637,4.6443,4.6571,4.6619,4.6604,4.6537,4.6367,4.6188,4.5912,4.5577,4.5156,4.477,4.4429,4.4098,4.3775,4.3481,4.3208,4.3017,4.2832,4.2764,4.2614,4.2526,4.2509,4.2497,4.2447,4.2369,4.232,4.2328,4.2347,4.2345,4.2307,4.2312,4.229,4.2339,4.2336,4.2355,4.2294,4.2335,4.2392,4.2413,4.2387,4.238,4.2356,4.2421,4.2443,4.2439,4.2418,4.2442,4.2459,4.2475,4.2441,4.2448,4.2422,4.2448,4.2434,4.2402,4.2378,4.2351,4.2366,4.2367,4.2357,4.2324,4.2283,4.2302,4.2287,4.229,4.2244,4.2214,4.2202,4.2268,4.2282,4.2266,4.2245,4.2216,4.2286,4.2293,4.2301,4.2346,4.2476,4.2569,4.2565,4.2526,4.2421,4.2431,4.2884,4.3369,4.3269,4.3007,4.2869,4.2668,4.2608,4.2523,4.2331,4.2223,4.2135,4.2064,4.1984,4.197,4.1963,4.2014,4.2014,4.1943,4.1908,4.1847,4.1864,4.19,4.189,4.1848,4.1822,4.1749,4.1785,4.183,4.1809,4.1672,4.1728,4.2392,4.4396,4.5977,4.8712,4.9918,5.1706,4.7389,4.0034,3.7502,3.6553,3.6966,3.7679,3.9734,4.081,4.1671,4.1895,4.2091,4.2021,4.2119,4.2029,4.2141,4.207,4.2189,4.2156,4.2244,4.222,4.2372,4.2333,4.2391,4.2432,4.2571,4.2622,4.2668,4.2643,4.2772,4.282,4.29,4.2912,4.3013,4.3142,4.3236,4.3333,4.3471,4.3536,4.3627,4.3778,4.3929,4.4162,4.4371,4.4489,4.4632,4.4749,4.4882,4.5039,4.517,4.5408,4.5588,4.5726,4.5821,4.5893,4.5923,4.6009,4.6015,4.5988,4.5828,4.5658,4.5374,4.508,4.4677,4.4325,4.3899,4.3581,4.3285,4.3006,4.2707,4.2488,4.2328,4.2276,4.2142,4.2035,4.1892,4.1884,4.1774,4.1759,4.1676,4.1715,4.1655,4.1718,4.1713,4.1662,4.1622,4.1696,4.1715,4.1817,4.178,4.1719,4.1691,4.175,4.1714,4.1749,4.1717,4.1766,4.1741,4.1774,4.1749,4.179,4.1771,4.1802,4.1796,4.1791,4.1783,4.1699,4.1649,4.167,4.161,4.1636,4.1663,4.1688,4.1744,4.1687,4.1592,4.1655,4.1665,4.172,4.1723,4.1708,4.1668,4.1748,4.1838,4.1848,4.1811,4.1865,4.1882,4.2264,4.2643,4.2728,4.2608,4.2398,4.2272,4.2113,4.2005,4.1821,4.1684,4.1715,4.1658,4.157,4.1521,4.1473,4.1413,4.1377,4.139,4.136,4.1391,4.1328,4.1379,4.1345,4.1338,4.1301,4.1344,4.1421,4.1409,4.1352,4.1303,4.1227,4.1372,4.2049,4.4224,4.7617,4.9988,5.1907,4.923,4.1924,3.6997,3.6314,3.5434,3.574,3.74,3.8663,4.02,4.1009,4.1685,4.1687,4.177,4.1783,4.191,4.1932,4.2008,4.1906,4.2059,4.2188,4.2365,4.2225,4.2303,4.2357,4.2472,4.2507,4.2638,4.2577,4.2633,4.2645,4.2708,4.2791,4.2913,4.3059,4.3191,4.3224,4.3312,4.3447,4.3651,4.3707,4.3806,4.392,4.4043,4.4099,4.4265,4.4535,4.4721,4.4795,4.4965,4.505,4.5283,4.5375,4.5431,4.5505,4.5585,4.5658,4.5697,4.5589,4.5581,4.55,4.525,4.4896,4.455,4.4232,4.3894,4.3566,4.3166,4.2876,4.2636,4.2475,4.236,4.2241,4.2099,4.1929,4.1802,4.1827,4.1788,4.1782,4.1742,4.1719,4.1774,4.1819,4.1741,4.1675,4.1743,4.1803,4.182,4.1844,4.1869,4.1858,4.19,4.1972,4.1991,4.1982,4.1978,4.2158,4.2111,4.2081,4.1994,4.2019,4.1986,4.2053,4.1978,4.1945,4.1956,4.2022,4.2065,4.2041,4.195,4.1951,4.1916,4.2005,4.2156,4.2223,4.2165,4.2249,4.226,4.2321,4.2248,4.2577,4.2949,4.3104,4.2981,4.2766,4.2613,4.252,4.2506,4.2362,4.2284,4.2132,4.1882,4.1861,4.1943,4.197,4.1839,4.1794,4.1762,4.1766,4.1761,4.1721,4.1778,4.1845,4.1875,4.1865,4.1839,4.1771,4.1761,4.1774,4.1715,4.1724,4.2123,4.3659,4.6782,4.9704,5.0296,5.1948,5.0159,4.3008,3.7762,3.6467,3.6084,3.6927,3.8554,4.0163,4.1331,4.1912,4.2262,4.2298,4.2535,4.2364,4.2406,4.2397,4.2531,4.2489,4.2657,4.2618,4.2768,4.2738,4.2784,4.2784,4.2916,4.2975,4.3107,4.3184,4.3187,4.325,4.3417,4.3435,4.3579,4.3604,4.3744,4.3848,4.3954,4.4069,4.4175,4.4261,4.4379,4.4513,4.477,4.4856,4.506,4.5213,4.537,4.5511,4.5675,4.5772,4.588,4.5999,4.6072,4.6109,4.6148,4.6156,4.6118,4.6033,4.587,4.5639,4.5304,4.495,4.4583,4.4254,4.3865,4.3531,4.3242,4.2998,4.2793,4.266,4.2504,4.2385,4.2317,4.2294,4.2275,4.2278,4.2192,4.2139,4.2102,4.2161,4.2062,4.2049,4.2058,4.2133,4.2101,4.2087,4.207,4.2099,4.2084,4.2041,4.2003,4.1924,4.1964,4.2065,4.2018,4.2041,4.1951,4.1992,4.2064,4.1973,4.2073,4.2066,4.2077,4.2099,4.2122,4.2095,4.1985,4.199,4.201,4.2084,4.2166,4.2265,4.2302,4.2325,4.2327,4.2325,4.2377,4.2749,4.3124,4.3174,4.2989,4.2763,4.2536,4.2436,4.2404,4.2198,4.2098,4.2017,4.1983,4.1945,4.1905,4.1884,4.183,4.1894,4.1843,4.1927,4.1899,4.1836,4.1837,4.1913,4.1951,4.1886,4.1838,4.1882,4.1887,4.1955,4.1855,4.2007,4.2844,4.5086,4.6705,4.9181,4.9934,5.1847,4.7127,3.9888,3.7413,3.6507,3.682,3.7486,3.9901,4.0848,4.1849,4.1848,4.2143,4.2174,4.2286,4.2173,4.2358,4.2219,4.2254,4.2331,4.243,4.2343,4.2633,4.2598,4.2682,4.2619,4.2779,4.2773,4.2971,4.2943,4.2939,4.2853,4.3147,4.3227,4.3343,4.3457,4.3548,4.3761,4.3756,4.3721,4.4029,4.4119,4.4256,4.4646,4.4982,4.5251,4.5484,4.5576,4.5748,4.5882,4.5969,4.6071,4.6203,4.6303,4.6417,4.6363,4.6396,4.6458,4.6317,4.6271,4.5949,4.5609,4.5197,4.4918,4.4519,4.4112,4.3652,4.3413,4.3195,4.3031,4.2773,4.2572,4.256,4.2702,4.2837,4.335,4.3725,4.4127,4.4214,4.4173,4.3913,4.3741,4.358,4.3553,4.3525,4.3298,4.3213,4.3134,4.3034,4.3078,4.314,4.3255,4.309,4.3075,4.2957,4.3057,4.2967,4.2829,4.2729,4.2665,4.257,4.2551,4.2533,4.2572,4.2551,4.2553,4.2625,4.2785,4.2844,4.2891,4.2878,4.2937,4.2976,4.3065,4.3424,4.3914,4.395,4.3713,4.3508,4.3317,4.3255,4.3003,4.2795,4.2863,4.2766,4.2763,4.2639,4.2538,4.2557,4.2544,4.2495,4.2512,4.2494,4.2474,4.2509,4.248,4.2478,4.2515,4.2519,4.2565,4.2537,4.2466,4.2441,4.2426,4.2605,4.3305,4.5307,4.8307,5.0466,5.1648,5.2477,4.8238,4.0638,3.7361,3.6614,3.6725,3.783,3.9663,4.12,4.2061,4.2498,4.2601,4.2562,4.2478,4.2601,4.2733,4.2855,4.2861,4.2809,4.2736,4.2813,4.2837,4.2966,4.2988,4.3126,4.3256,4.3278,4.323,4.3259,4.3245,4.3371,4.35,4.3693,4.3837,4.3866,4.3948,4.4112,4.4307,4.4345,4.4275,4.4339,4.4627,4.4786,4.4894,4.5039,4.511,4.5327,4.5453,4.5577,4.5693,4.5826,4.6143,4.6397,4.6382,4.6365,4.6293,4.6411,4.6412,4.6459,4.6119,4.5819,4.5394,4.4878,4.4626,4.4445,4.3912,4.362,4.3262,4.2922,4.2701,4.2569,4.2432,4.229,4.2102,4.198,4.213,4.2212,4.2257,4.2298,4.2475,4.2504,4.2674,4.2868,4.2944,4.2894,4.2851,4.2823,4.2711,4.2751,4.317,4.3208,4.3076,4.3187,4.3282,4.3321,4.3315,4.3309,4.3464,4.343,4.338,4.3585,4.3541,4.356,4.3235,4.3232,4.3234,4.3439,4.39,4.4285,4.4509,4.4313,4.425,4.4271,4.4202,4.4198,4.39,4.3667,4.3567,4.3464,4.3376,4.3248,4.3064,4.2881,4.2775,4.2724,4.2508,4.2456,4.2518,4.2489,4.2455,4.2158,4.2052,4.2176,4.2228,4.2209,4.2075,4.2012,4.2138,4.2701,4.3717,4.591,4.9008,5.0819,5.2176,4.821,4.068,3.6278,3.5256,3.5452,3.6756,3.8291,3.9116,4.0678,4.1655,4.217,4.2281,4.2265,4.2259,4.2393,4.2479,4.2609,4.2573,4.2591,4.2588,4.266,4.268,4.2709,4.2767,4.2795,4.2939,4.2985,4.3063,4.3111,4.3236,4.3212,4.3275,4.3376,4.344,4.3666,4.3795,4.3843,4.3881,4.4113,4.4322,4.4498,4.4673,4.4827,4.4946,4.5099,4.5217,4.5464,4.5723,4.5775,4.5886,4.6037,4.6109,4.6206,4.6346,4.6349,4.6465,4.6444,4.6377,4.6151,4.5862,4.547,4.5153,4.4902,4.4644,4.451,4.4368,4.423,4.4227,4.4489,4.4544,4.4481,4.4585,4.4624,4.4647,4.4548,4.4607,4.457,4.4567,4.4548,4.4596,4.4541,4.4448,4.4372,4.4363,4.431,4.4328,4.4284,4.4246,4.415,4.4051,4.3949,4.386,4.3879,4.3818,4.3745,4.376,4.3707,4.3748,4.3706,4.3778,4.3773,4.3786,4.3789,4.3788,4.3785,4.3853,4.4177,4.4546,4.4551,4.4306,4.412,4.3965,4.3874,4.376,4.3537,4.34,4.3274,4.3236,4.3204,4.3157,4.3092,4.3076,4.3112,4.3157,4.3157,4.3165,4.3161,4.3106,4.301,4.3014,4.3039,4.3031,4.3,4.2976,4.3045,4.3027,4.3078,4.3619,4.5311,4.8282,4.9901,5.1282,5.3601,5.066,4.3379,3.9359,3.8622,3.8379,3.9305,4.1002,4.2394,4.3299,4.3774,4.3877,4.3976,4.3978,4.3994,4.4015,4.4111,4.4145,4.4113,4.4166,4.4192,4.4215,4.4358,4.4388,4.4479,4.4511,4.4614,4.467,4.4749,4.4777,4.4869,4.4909,4.4982,4.5021,4.5147,4.5206,4.5277,4.5399,4.5528,4.5659,4.5834,4.6021,4.6233,4.6424,4.6588,4.6759,4.6936,4.7139,4.7297,4.738,4.753,4.7649,4.7735,4.7784,4.7845,4.7863,4.7886,4.7876,4.7775,4.7539,4.7226,4.6926,4.6599,4.616,4.5769,4.5359,4.5049,4.4781,4.4525,4.4327,4.4147,4.4,4.3858,4.3782,4.3761,4.3683,4.3652,4.3639,4.3656,4.3655,4.3618,4.3683,4.3748,4.3799,4.3816,4.3766,4.3748,4.381,4.3821,4.3806,4.3812,4.3826,4.385,4.3873,4.3859,4.3864,4.3841,4.3825,4.3894,4.3914,4.3906,4.398,4.415,4.4156,4.4119,4.4114,4.4124,4.4474,4.4902,4.5048,4.4797,4.4579,4.4512,4.4358,4.4199,4.4057,4.3845,4.376,4.3679,4.3644,4.3599,4.3518,4.3491,4.3477,4.3507,4.3455,4.3414,4.3457,4.3409,4.3418,4.3391,4.3369,4.3349,4.3365,4.3366,4.3403,4.3322,4.3301,4.3474,4.4219,4.6306,4.9322,5.1071,5.2944,5.0891,4.382,3.9482,3.8705,3.8448,3.9057,3.9772,4.1587,4.2783,4.3352,4.3688,4.3632,4.3758,4.3677,4.3759,4.3719,4.3845,4.3775,4.3853,4.3846,4.3964,4.3958,4.4051,4.4019,4.4146,4.4122,4.4274,4.4254,4.4368,4.4388,4.4525,4.4603,4.4734,4.4774,4.4875,4.4989,4.5154,4.5298,4.5436,4.5583,4.5806,4.5966,4.617,4.6334,4.6436,4.6592,4.6827,4.6975,4.7117,4.7247,4.7387,4.7577,4.7714,4.7793,4.784,4.7849,4.7769,4.7616,4.7394,4.7123,4.6863,4.6551,4.6189,4.6024,4.5659,4.5355,4.5158,4.5038,4.515,4.5341,4.5535,4.554,4.5474,4.5479,4.5308,4.521,4.5021,4.4904,4.4723,4.4581,4.4465,4.4378,4.4326,4.4237,4.4124,4.4053,4.4003,4.3953,4.3932,4.387,4.3809,4.3789,4.3787,4.3776,4.373,4.3694,4.3698,4.3715,4.3658,4.3599,4.3584,4.3607,4.3649,4.3741,4.3769,4.3741,4.3723,4.3785,4.38,4.4172,4.4496,4.4593,4.4412,4.4209,4.4003,4.3852,4.3675,4.3484,4.3378,4.3323,4.3265,4.3222,4.3147,4.3098,4.3059,4.3055,4.3057,4.3068,4.3086,4.3068,4.3004,4.3,4.3002,4.302,4.301,4.2979,4.2923,4.2907,4.2876,4.2868,4.3045,4.3823,4.5917,4.8889,5.057,5.252,4.9611,4.2465,3.8797,3.8105,3.7953,3.8555,4.0342,4.1703,4.268,4.3065,4.315,4.315,4.3213,4.3135,4.3171,4.3101,4.3156,4.322,4.333,4.3383,4.3402,4.343,4.3493,4.356,4.3616,4.3621,4.3692,4.3782,4.3873,4.3915,4.4004,4.4013,4.4117,4.4239,4.4396,4.4459,4.4487,4.4596,4.4787,4.4902,4.5058,4.5208,4.5382,4.5529,4.5685,4.5812,4.6019,4.6198,4.6336,4.6434,4.6521,4.6645,4.6773,4.688,4.6983,4.7011,4.7004,4.6928,4.6736,4.6453,4.6083,4.5737,4.5289,4.4886,4.4507,4.4211,4.3908,4.3652,4.3458,4.3348,4.3164,4.2959,4.2895,4.2822,4.2763,4.2732,4.2672,4.2636,4.2693,4.2696,4.2663,4.2643,4.2637,4.2667,4.2648,4.2641,4.2659,4.2685,4.2731,4.2743,4.276,4.2657,4.2644,4.266,4.2746,4.2737,4.2729,4.2723,4.2658,4.2629,4.262,4.2516,4.251,4.2506,4.2523,4.2475,4.2437,4.2494,4.2532,4.2615,4.2677,4.2759,4.2695,4.2706,4.3063,4.3389,4.3547,4.3304,4.3098,4.2961,4.2818,4.2669,4.2422,4.239,4.2377,4.2376,4.2336,4.2308,4.2235,4.2286,4.2197,4.2187,4.2129,4.2072,4.2102,4.2052,4.2033,4.2005,4.2042,4.2074,4.2075,4.2088,4.2067,4.2027,4.1972,4.2159,4.2881,4.5082,4.8189,5.0548,5.2466,4.8853,4.1707,3.7675,3.6516,3.6396,3.7463,3.8885,4.0428,4.1572,4.2041,4.2412,4.2288,4.24,4.2347,4.2484,4.2395,4.2528,4.2483,4.2622,4.2601,4.276,4.2717,4.2834,4.2821,4.2914,4.2984,4.3089,4.3015,4.3047,4.3135,4.33,4.329,4.3453,4.3499,4.3609,4.369,4.3778,4.3828,4.3971,4.414,4.4336,4.4483,4.4547,4.4697,4.483,4.4968,4.5153,4.5296,4.5429,4.56,4.5677,4.5797,4.5929,4.6006,4.604,4.6144,4.6184,4.6054,4.5898,4.5659,4.5442,4.5114,4.4623,4.4171,4.3793,4.3533,4.3229,4.2988,4.2729,4.262,4.2447,4.2341,4.2159,4.2079,4.1985,4.2007,4.1953,4.1912,4.1893,4.1922,4.1902,4.1975,4.1909,4.1899,4.1928,4.1967,4.1982,4.1999,4.1958,4.1961,4.193,4.1992,4.2005,4.1993,4.1927,4.1983,4.1966,4.2032,4.1969,4.1949,4.1951,4.1936,4.1931,4.1981,4.194,4.2073,4.2195,4.2249,4.2186,4.216,4.215,4.2237,4.263,4.3049,4.3104,4.2906,4.2719,4.252,4.2396,4.2243,4.2027,4.1981,4.192,4.1873,4.1842,4.1765,4.1714,4.17,4.1708,4.1651,4.1591,4.1608,4.1669,4.1752,4.1673,4.1695,4.1696,4.1729,4.1722,4.1671,4.1642,4.1626,4.1593,4.1898,4.3003,4.4135,4.7224,4.9771,5.1409,5.0355,4.3894,3.794,3.6552,3.6016,3.6693,3.8183,3.9654,4.1045,4.1573,4.2119,4.2019,4.2168,4.2061,4.2163,4.2076,4.2207,4.2148,4.2325,4.2332,4.2449,4.2411,4.2557,4.2561,4.2698,4.2701,4.2772,4.2837,4.2952,4.2993,4.3129,4.3179,4.3225,4.3325,4.3418,4.3492,4.3653,4.37,4.3821,4.3933,4.4114,4.426,4.434,4.45,4.4698,4.4847,4.4975,4.5103,4.5233,4.5395,4.5519,4.5597,4.5628,4.5673,4.5738,4.583,4.5798,4.5719,4.5512,4.5324,4.5019,4.4684,4.4262,4.3915,4.3565,4.3312,4.3008,4.2772,4.252,4.2423,4.2254,4.2172,4.2098,4.2019,4.1945,4.1952,4.1849,4.1865,4.1799,4.1849,4.183,4.1886,4.1818,4.1859,4.1844,4.191,4.1928,4.1939,4.1897,4.1973,4.1923,4.1981,4.1956,4.1996,4.1936,4.1978,4.1953,4.2,4.195,4.1968,4.1946,4.1948,4.1883,4.1915,4.1891,4.1954,4.1938,4.1948,4.1959,4.2114,4.2141,4.218,4.2171,4.2189,4.2154,4.2478,4.2879,4.3024,4.2819,4.2586,4.2374,4.2263,4.2192,4.2005,4.189,4.1823,4.1784,4.175,4.1703,4.1676,4.164,4.1616,4.1595,4.1586,4.1551,4.1509,4.1499,4.1492,4.1529,4.1494,4.1512,4.1536,4.1555,4.153,4.1494,4.1422,4.1774,4.3002,4.4194,4.7061,4.9242,5.0893,5.0456,4.3745,3.8399,3.7109,3.6451,3.7014,3.8556,4.0179,4.1251,4.1748,4.1929,4.1934,4.2012,4.1884,4.1994,4.1944,4.2035,4.1996,4.2104,4.2113,4.2209,4.2255,4.2332,4.2339,4.2419,4.2458,4.2587,4.258,4.2712,4.2742,4.2864,4.2939,4.3068,4.3125,4.3219,4.3331,4.3497,4.3596,4.3728,4.3819,4.4038,4.4153,4.4306,4.4443,4.4631,4.4817,4.5009,4.5116,4.5289,4.5423,4.5582,4.5697,4.5844,4.5876,4.5975,4.6056,4.6097,4.6027,4.5845,4.5585,4.5278,4.492,4.4531,4.4148,4.3776,4.3435,4.3128,4.2859,4.262,4.2426,4.2266,4.2152,4.2117,4.2059,4.1967,4.1921,4.1905,4.1879,4.1869,4.186,4.1854,4.1879,4.1927,4.1926,4.1911,4.1943,4.1964,4.2008,4.2017,4.1973,4.1999,4.2025,4.2048,4.2079,4.2041,4.203,4.2045,4.2078,4.2041,4.2053,4.2017,4.2038,4.2055,4.2036,4.1991,4.2001,4.1987,4.2047,4.1996,4.1985,4.1976,4.2004,4.2017,4.2098,4.2151,4.2267,4.2256,4.227,4.2246,4.2267,4.2618,4.3012,4.3132,4.2907,4.2694,4.2511,4.24,4.2334,4.2151,4.2098,4.2055,4.1982,4.1918,4.1929,4.1887,4.1858,4.1811,4.1846,4.1817,4.1817,4.1768,4.176,4.1766,4.1796,4.1796,4.1788,4.176,4.1778,4.1791,4.1804,4.168,4.1813,4.2629,4.4784,4.7832,4.9471,5.1617,4.9246,4.223,3.8237,3.7306,3.6936,3.7518,3.9342,4.0745,4.165,4.2035,4.2134,4.2152,4.2268,4.2225,4.2265,4.2277,4.2368,4.2405,4.2448,4.2449,4.2516,4.2593,4.2692,4.2704,4.2758,4.2828,4.2909,4.3001,4.3093,4.3101,4.3168,4.3253,4.3367,4.3439,4.3537,4.3607,4.3695,4.3795,4.4009,4.4128,4.4294,4.4455,4.464,4.4797,4.4947,4.5078,4.5264,4.5449,4.554,4.5671,4.5817,4.5969,4.6111,4.6251,4.6287,4.6379,4.6389,4.6362,4.6231,4.5966,4.5664,4.5319,4.4965,4.4608,4.4224,4.3893,4.3592,4.3443,4.3229,4.3004,4.2837,4.2702,4.2576,4.2531,4.2462,4.2382,4.2365,4.2371,4.2389,4.2397,4.2389,4.2398,4.2418,4.2448,4.2453,4.2463,4.2463,4.2517,4.2562,4.259,4.2582,4.2587,4.2591,4.2622,4.2627,4.2622,4.265,4.2668,4.268,4.2698,4.2654,4.2646,4.2678,4.2669,4.2678,4.2687,4.2642,4.2664,4.2656,4.2694,4.2654,4.265,4.2668,4.2658,4.2687,4.271,4.2666,4.2726,4.276,4.2843,4.2947,4.3096,4.3098,4.3085,4.3097,4.3044,4.3349,4.3828,4.4033,4.3873,4.3641,4.3493,4.3355,4.3297,4.3181,4.3069,4.2987,4.2888,4.2873,4.2864,4.2798,4.2782,4.2723,4.2749,4.273,4.2742,4.2741,4.2758,4.2733,4.2804,4.2812,4.2796,4.2792,4.2819,4.284,4.2818,4.275,4.2999,4.4089,4.6532,4.947,5.0332,5.1989,5.1783,4.5256,3.9832,3.8584,3.7941,3.8415,3.9839,4.1563,4.2673,4.3153,4.3362,4.3364,4.3457,4.3432,4.3469,4.346,4.3584,4.3597,4.3711,4.3745,4.3823,4.3852,4.3969,4.4028,4.4077,4.4117,4.421,4.4236,4.4341,4.4395,4.452,4.4603,4.4724,4.48,4.4874,4.4927,4.4991,4.5121,4.5273,4.5414,4.5547,4.5691,4.5883,4.6033,4.6217,4.6363,4.6536,4.6749,4.6953,4.7076,4.72,4.7324,4.7475,4.763,4.771,4.7739,4.7772,4.7794,4.771,4.758,4.7289,4.6992,4.6589,4.6295,4.5927,4.5567,4.5223,4.4905,4.4674,4.4465,4.4268,4.4212,4.411,4.4051,4.4006,4.3944,4.3856,4.3848,4.3816,4.3844,4.3832,4.3841,4.3828,4.3902,4.395,4.4009,4.4015,4.4049,4.4021,4.4041,4.4049,4.4047,4.4082,4.4108,4.4153,4.4197,4.4167,4.4183,4.4111,4.411,4.4074,4.4088,4.4084,4.4113,4.4132,4.4148,4.411,4.4107,4.4123,4.4129,4.4084,4.4088,4.4086,4.4082,4.4079,4.4141,4.4112,4.4052,4.4031,4.4033,4.4092,4.4117,4.413,4.4165,4.4155,4.4182,4.4173,4.4188,4.4213,4.4253,4.4353,4.4417,4.4442,4.4393,4.4384,4.4394,4.4663,4.5128,4.5283,4.5116,4.495,4.4811,4.4639,4.4533,4.4376,4.4271,4.4232,4.414,4.4154,4.4106,4.4064,4.4039,4.4011,4.4058,4.406,4.4083,4.4036,4.4,4.3999,4.3973,4.4011,4.4025,4.4035,4.4015,4.4077,4.4007,4.3866,4.4063,4.5107,4.6175,4.9124,5.1772,5.3901,5.3108,4.6463,4.0975,3.9631,3.8943,3.9464,4.0865,4.246,4.3705,4.4216,4.4564,4.4547,4.4655,4.4596,4.4689,4.4627,4.4764,4.4775,4.4882,4.4872,4.4977,4.495,4.5067,4.5106,4.5211,4.5225,4.5302,4.5356,4.5537,4.5575,4.5659,4.5671,4.5758,4.58,4.5876,4.6001,4.6127,4.6265,4.6451,4.6539,4.6661,4.6749,4.6905,4.708,4.7227,4.7429,4.7609,4.7866,4.8031,4.8155,4.8213,4.8303,4.8387,4.8454,4.8601,4.8701,4.8783,4.8801,4.8838,4.8688,4.8456,4.8176,4.7818,4.7553,4.7176,4.6759,4.6393,4.6171,4.5911,4.5694,4.5473,4.5316,4.5214,4.5118,4.499,4.5019,4.4919,4.4843,4.4824,4.4919,4.491,4.4926,4.4842,4.4912,4.4928,4.4944,4.4925,4.5049,4.5038,4.5126,4.5066,4.5061,4.4973,4.5021,4.5093,4.5156,4.5125,4.5104,4.5152,4.5131,4.5119,4.5158,4.5131,4.5134,4.5107,4.5131,4.5092,4.5107,4.5124,4.5107,4.5111,4.5162,4.5125,4.5107,4.513,4.5166,4.5103,4.5004,4.5076,4.5082,4.5108,4.5166,4.519,4.5287,4.5369,4.5389,4.5352,4.5405,4.537,4.5439,4.5795,4.6168,4.6253,4.6008,4.5783,4.5654,4.5627,4.5512,4.5249,4.5206,4.5178,4.5158,4.5087,4.5112,4.5079,4.5024,4.5016,4.4976,4.4952,4.4952,4.5002,4.5027,4.5059,4.5005,4.5005,4.4997,4.5058,4.5029,4.5015,4.4859,4.4748,4.5145,4.6765,4.9923,5.2826,5.5055,5.5,5.2219,4.4919,4.0932,3.9917,3.9468,4.0788,4.1937,4.3749,4.4607,4.5366,4.5456,4.5606,4.5491,4.5609,4.5599,4.5745,4.5696,4.5821,4.5794,4.5946,4.5932,4.6068,4.5994,4.6141,4.6134,4.6291,4.6272,4.6393,4.6399,4.6576,4.6608,4.6717,4.6715,4.6887,4.6937,4.7125,4.7188,4.7316,4.7357,4.7489,4.7622,4.7762,4.7866,4.8042,4.8225,4.8377,4.8528,4.8611,4.8748,4.8894,4.9045,4.9166,4.9211,4.9292,4.9388,4.9387,4.9357,4.9284,4.9148,4.8946,4.8733,4.8374,4.8039,4.7661,4.7377,4.71,4.6836,4.6499,4.6304,4.6088,4.598,4.5907,4.585,4.5741,4.5665,4.5628,4.5637,4.5598,4.5605,4.5587,4.5593,4.562,4.5654,4.5614,4.5634,4.5611,4.5664,4.5657,4.5709,4.5698,4.5773,4.5767,4.58,4.5762,4.5805,4.5759,4.5825,4.5786,4.5792,4.5756,4.5823,4.5815,4.581,4.5794,4.5786,4.5776,4.5814,4.5765,4.5753,4.5724,4.5734,4.5733,4.577,4.5694,4.5703,4.5668,4.5717,4.5707,4.5735,4.5725,4.5807,4.5877,4.6012,4.5971,4.5922,4.5905,4.5938,4.6297,4.6716,4.6728,4.6561,4.6362,4.6313,4.6136,4.6048,4.5947,4.5816,4.5745,4.5706,4.5591,4.5554,4.5517,4.5527,4.5487,4.5475,4.5439,4.5397,4.545,4.5422,4.5433,4.5411,4.5402,4.5411,4.5391,4.5389,4.5418,4.5391,4.5265,4.5445,4.643,4.8803,5.186,5.3358,5.5778,5.2695,4.5565,4.2023,4.0999,4.0667,4.1242,4.2097,4.3815,4.5035,4.5511,4.5844,4.5706,4.5867,4.5747,4.5923,4.5855,4.5953,4.589,4.6042,4.6045,4.6184,4.6142,4.6294,4.6274,4.6424,4.6388,4.6471,4.6467,4.66,4.6643,4.6774,4.6798,4.6883,4.6944,4.7097,4.7164,4.7302,4.7405,4.7521,4.7675,4.7836,4.7951,4.8069,4.8257,4.8345,4.8546,4.867,4.8843,4.8986,4.9142,4.9269,4.9411,4.9509,4.9606,4.9687,4.9766,4.972,4.9658,4.9457,4.9276,4.897,4.862,4.8216,4.8073,4.7686,4.7378,4.7052,4.6747,4.6469,4.6316,4.6175,4.6039,4.5858,4.5757,4.566,4.5675,4.5623,4.5592,4.5543,4.5564,4.5509,4.5514,4.5505,4.549,4.5489,4.5486,4.5484,4.5512,4.5502,4.5524,4.5528,4.558,4.5524,4.5546,4.5503,4.5538,4.5508,4.5533,4.5521,4.5522,4.5514,4.5542,4.5478,4.5501,4.5473,4.5457,4.5417,4.5426,4.5372,4.5394,4.5356,4.5396,4.5345,4.5327,4.5308,4.5311,4.5283,4.5314,4.5275,4.5278,4.5294,4.533,4.536,4.5359,4.543,4.5579,4.5602,4.5572,4.5526,4.5485,4.5803,4.6309,4.6374,4.614,4.5907,4.5738,4.5633,4.5527,4.5369,4.5261,4.5203,4.5121,4.5087,4.5031,4.4947,4.491,4.4923,4.4904,4.4906,4.4822,4.4802,4.4793,4.4808,4.4755,4.4735,4.4723,4.478,4.4756,4.4776,4.4705,4.458,4.4734,4.5651,4.793,5.0994,5.255,5.4845,5.1901,4.4785,4.112,4.0196,3.9897,4.0476,4.2335,4.3584,4.4491,4.4848,4.4939,4.4978,4.5055,4.4991,4.507,4.5078,4.5159,4.5161,4.5209,4.522,4.5322,4.5369,4.5403,4.5416,4.5493,4.5539,4.565,4.5676,4.5714,4.5736,4.5828,4.5901,4.5978,4.6052,4.6101,4.6232,4.6341,4.6444,4.6568,4.6676,4.6825,4.6998,4.7138,4.7287,4.742,4.7606,4.7765,4.7943,4.8003,4.8133,4.8287,4.842,4.8538,4.8646,4.8713,4.88,4.8825,4.879,4.8565,4.8343,4.8031,4.7696,4.7341,4.6964,4.6568,4.6247,4.5908,4.5783,4.5569,4.5282,4.5067,4.4922,4.4779,4.4699,4.458,4.4542,4.4494,4.4518,4.4423,4.446,4.4419,4.4427,4.4436,4.4455,4.4419,4.4419,4.4419,4.4403,4.444,4.4454,4.4429,4.4454,4.4461,4.4492,4.4466,4.4482,4.45,4.4522,4.4517,4.4496,4.4522,4.4541,4.4526,4.4546,4.4493,4.4492,4.4468,4.45,4.4474,4.4437,4.4423,4.4432,4.442,4.4442,4.4428,4.438,4.437,4.4391,4.4395,4.4383,4.4398,4.4411,4.4452,4.449,4.453,4.4632,4.4676,4.4679,4.4683,4.461,4.4813,4.5277,4.557,4.5431,4.5175,4.5009,4.4846,4.4772,4.4678,4.448,4.4414,4.4334,4.4275,4.4245,4.4224,4.4171,4.4124,4.4116,4.4111,4.4087,4.4082,4.4051,4.4061,4.4072,4.4071,4.4028,4.3983,4.4006,4.4022,4.3956,4.3837,4.4,4.4355,4.6134,4.9118,5.1378,5.3138,5.303,4.6587,4.0923,3.97,3.8984,3.9505,4.075,4.2572,4.3572,4.413,4.4261,4.4376,4.439,4.4421,4.4391,4.4451,4.4438,4.4505,4.4519,4.4566,4.4577,4.4691,4.4734,4.4815,4.4851,4.4925,4.4974,4.5043,4.5071,4.5124,4.5155,4.5262,4.534,4.5381,4.5455,4.5534,4.5672,4.5814,4.5935,4.6003,4.6108,4.6254,4.6434,4.6642,4.6792,4.693,4.7101,4.7277,4.7416,4.7529,4.765,4.7797,4.7879,4.8032,4.8163,4.8216,4.8239,4.817,4.8113,4.7939,4.766,4.7354,4.7013,4.6609,4.6229,4.5828,4.5495,4.522,4.4932,4.4698,4.4527,4.4467,4.4312,4.4195,4.41,4.4004,4.4023,4.4006,4.3992,4.398,4.3956,4.3913,4.3912,4.3926,4.3924,4.3946,4.3959,4.3976,4.3977,4.3971,4.3972,4.3964,4.406,4.4013,4.4071,4.4045,4.3995,4.3963,4.3973,4.3939,4.3921,4.3958,4.3949,4.3935,4.3947,4.3904,4.391,4.3903,4.3931,4.3896,4.3902,4.3855,4.3808,4.3802,4.3757,4.3767,4.3761,4.3774,4.3783,4.376,4.3735,4.3702,4.3719,4.3752,4.3836,4.3937,4.3987,4.3973,4.3983,4.3976,4.3941,4.4208,4.4619,4.4833,4.4625,4.4358,4.4188,4.4021,4.3974,4.3801,4.3737,4.3616,4.3492,4.3407,4.3414,4.3383,4.332,4.3302,4.3305,4.3336,4.3381,4.3357,4.3364,4.3325,4.326,4.3234,4.3206,4.3139,4.3181,4.322,4.3183,4.3059,4.3345,4.4718,4.7655,5.0612,5.1695,5.3831,5.0761,4.3465,3.9561,3.8288,3.7977,3.8755,4.0228,4.1726,4.2786,4.3244,4.3484,4.3371,4.3528,4.3446,4.3565,4.3515,4.3635,4.3573,4.373,4.3671,4.3723,4.3676,4.3861,4.3854,4.391,4.4005,4.4093,4.4029,4.4108,4.4211,4.4341,4.4378,4.4505,4.4568,4.4692,4.4723,4.4835,4.4871,4.4949,4.5103,4.527,4.5445,4.5694,4.5852,4.5996,4.6088,4.6088,4.6204,4.6435,4.6691,4.6803,4.6883,4.6985,4.7103,4.7107,4.7233,4.7234,4.724,4.7083,4.6912,4.6573,4.6301,4.5881,4.5577,4.52,4.4867,4.4512,4.4241,4.3989,4.3798,4.3613,4.3444,4.323,4.3234,4.3079,4.3073,4.3103,4.3102,4.3044,4.309,4.3098,4.3054,4.3008,4.3056,4.3013,4.2988,4.2964,4.3053,4.3029,4.3037,4.3028,4.3065,4.3084,4.3123,4.3159,4.3141,4.3058,4.3031,4.2996,4.3089,4.3059,4.3051,4.301,4.3082,4.3009,4.2996,4.2998,4.2997,4.296,4.2949,4.295,4.2979,4.2937,4.2897,4.2908,4.2933,4.3004,4.312,4.3144,4.3133,4.3173,4.3121,4.3285,4.3681,4.3927,4.3941,4.3669,4.3454,4.3288,4.3256,4.3198,4.3041,4.292,4.2876,4.2825,4.2804,4.2796,4.2767,4.2703,4.2667,4.2697,4.2655,4.26,4.2553,4.2609,4.2678,4.2693,4.2617,4.2606,4.2593,4.266,4.2686,4.254,4.2366,4.2654,4.4023,4.7041,5.0132,5.2272,5.3185,4.7824,4.04,3.8178,3.7079,3.7324,3.8755,4.0172,4.1633,4.2089,4.2693,4.303,4.3026,4.3104,4.3063,4.3074,4.3088,4.3221,4.3283,4.3362,4.3385,4.3399,4.347,4.3528,4.3531,4.358,4.3668,4.3772,4.3797,4.3878,4.3889,4.3988,4.4095,4.42,4.4245,4.4335,4.4411,4.4598,4.4676,4.4813,4.4897,4.5054,4.5232,4.5421,4.5525,4.567,4.5828,4.591,4.6064,4.6188,4.6302,4.6374,4.6438,4.6576,4.6676,4.6763,4.6759,4.6754,4.663,4.6439,4.6128,4.5813,4.5469,4.511,4.4765,4.4444,4.4257,4.4021,4.3769,4.3586,4.3354,4.3291,4.3178,4.3112,4.3017,4.2892,4.2804,4.2834,4.2829,4.2862,4.283,4.2815,4.2799,4.2821,4.2853,4.2857,4.2871,4.2928,4.2957,4.296,4.2952,4.2929,4.2954,4.2965,4.2999,4.3027,4.303,4.3018,4.3035,4.3031,4.3054,4.3029,4.3021,4.298,4.2987,4.3018,4.297,4.2968,4.2971,4.2975,4.2964,4.2928,4.2921,4.2969,4.3089,4.3177,4.3102,4.3127,4.3171,4.3188,4.359,4.392,4.4007,4.3903,4.3706,4.3537,4.3375,4.3296,4.3142,4.2972,4.2942,4.285,4.2761,4.2729,4.274,4.2727,4.2706,4.2702,4.2687,4.2681,4.2684,4.2664,4.2656,4.2599,4.261,4.2599,4.2691,4.2673,4.2681,4.2618,4.2505,4.2722,4.3727,4.6222,4.9359,5.0893,5.3334,4.9759,4.2488,3.917,3.8199,3.7853,3.8228,3.9567,4.1264,4.2436,4.2886,4.3131,4.3067,4.3214,4.3127,4.3237,4.3177,4.3255,4.3251,4.3378,4.3363,4.3456,4.3448,4.356,4.3526,4.3667,4.3671,4.377,4.3806,4.393,4.398,4.4081,4.4115,4.422,4.4299,4.4474,4.4559,4.4661,4.4787,4.4958,4.5089,4.526,4.5381,4.5495,4.5662,4.5849,4.603,4.6179,4.6318,4.6531,4.6711,4.687,4.6981,4.7077,4.7201,4.7271,4.7326,4.7255,4.7145,4.6933,4.6663,4.6329,4.6146,4.5748,4.5403,4.5082,4.4708,4.4382,4.4131,4.3901,4.376,4.3609,4.3476,4.3354,4.3279,4.3223,4.3206,4.3121,4.3118,4.3108,4.3119,4.3137,4.3171,4.3168,4.3173,4.3179,4.3214,4.3204,4.3227,4.3233,4.3293,4.3336,4.3351,4.3348,4.3396,4.3406,4.3453,4.3479,4.3486,4.3485,4.3512,4.3538,4.3577,4.3553,4.354,4.3524,4.3561,4.3522,4.3485,4.3486,4.3532,4.3513,4.3532,4.3525,4.3566,4.3592,4.3637,4.3727,4.3827,4.3778,4.3763,4.3788,4.3759,4.4106,4.4533,4.4679,4.4519,4.4334,4.4175,4.4028,4.3962,4.3797,4.3724,4.363,4.3549,4.3492,4.3494,4.3476,4.3468,4.3417,4.3396,4.3389,4.3409,4.3385,4.3359,4.3363,4.3361,4.3378,4.3402,4.334,4.3365,4.3346,4.3303,4.3233,4.3632,4.5137,4.7915,4.9506,5.1185,5.3456,5.1128,4.42,3.9917,3.9024,3.8541,3.9233,4.0906,4.2405,4.3265,4.3738,4.3774,4.3906,4.3884,4.3957,4.3922,4.4006,4.4004,4.4059,4.4125,4.4208,4.4208,4.4263,4.4281,4.4384,4.4438,4.4499,4.4548,4.4651,4.4734,4.4797,4.4859,4.4957,4.5052,4.5223,4.528,4.5349,4.5443,4.5588,4.5702,4.5877,4.5999,4.6169,4.6311,4.655,4.673,4.6871,4.7056,4.7236,4.7433,4.7549,4.7686,4.7833,4.7957,4.8094,4.8139,4.8156,4.8136,4.8074,4.7911,4.7677,4.736,4.7006,4.6601,4.6241,4.5881,4.5539,4.5214,4.4943,4.4724,4.4578,4.4404,4.4268,4.4183,4.4147,4.4119,4.4072,4.4011,4.4002,4.3971,4.3978,4.3977,4.3937,4.3947,4.3979,4.4016,4.4036,4.4073,4.4063,4.4143,4.4163,4.4165,4.4165,4.4186,4.4209,4.4242,4.4283,4.4304,4.4307,4.4325,4.4364,4.437,4.4361,4.4355,4.4368,4.4383,4.4371,4.4338,4.4322,4.4329,4.4361,4.4374,4.4331,4.4325,4.4314,4.4341,4.4358,4.4454,4.4535,4.4631,4.4627,4.4641,4.4579,4.4705,4.5122,4.5504,4.5464,4.5231,4.5074,4.4904,4.4892,4.4781,4.4629,4.4514,4.4466,4.44,4.4383,4.4342,4.4313,4.4339,4.4287,4.4311,4.4304,4.4319,4.4285,4.4297,4.4333,4.436,4.4305,4.4322,4.4297,4.4337,4.4369,4.4326,4.4246,4.4634,4.5961,4.8615,5.1415,5.2798,5.4453,4.9248,4.2426,4.0335,3.9533,3.9823,4.0625,4.2686,4.3268,4.4232,4.4716,4.4831,4.4926,4.4971,4.4969,4.5004,4.5073,4.5139,4.5174,4.522,4.5274,4.5376,4.5437,4.5493,4.5554,4.561,4.5705,4.5747,4.5808,4.5847,4.5945,4.6038,4.6131,4.6239,4.6325,4.6454,4.6568,4.672,4.6847,4.6954,4.7097,4.7228,4.7411,4.7583,4.7777,4.7935,4.8009,4.8199,4.8413,4.8535,4.8709,4.8839,4.901,4.9168,4.929,4.935,4.9399,4.9357,4.9316,4.9111,4.8835,4.8503,4.8161,4.7794,4.7439,4.7237,4.6963,4.6603,4.6392,4.6114,4.5903,4.5718,4.5633,4.5567,4.5506,4.5424,4.541,4.5347,4.5371,4.5369,4.5418,4.5407,4.5419,4.5401,4.5433,4.5431,4.5458,4.5472,4.5509,4.5574,4.56,4.5555,4.5577,4.5668,4.5797,4.5777,4.58,4.5773,4.5779,4.5793,4.5814,4.577,4.5792,4.5816,4.588,4.5915,4.5889,4.5836,4.5843,4.5852,4.5857,4.5907,4.592,4.5877,4.5872,4.5876,4.5938,4.5936,4.5961,4.597,4.6001,4.6029,4.6096,4.622,4.6372,4.639,4.6328,4.628,4.63,4.6704,4.711,4.7214,4.6983,4.6785,4.6625,4.6609,4.6479,4.6305,4.6254,4.6298,4.6238,4.6211,4.6125,4.604,4.6034,4.6043,4.6072,4.6093,4.6035,4.6033,4.6104,4.6135,4.6082,4.6051,4.6083,4.6102,4.6129,4.6185,4.6104,4.6105,4.6352,4.7309,4.9642,5.2712,5.4616,5.6731,5.297,4.5467,4.1933,4.083,4.0877,4.1826,4.3426,4.4926,4.6008,4.6582,4.6746,4.6651,4.6702,4.6638,4.6753,4.6767,4.6954,4.6966,4.7039,4.7042,4.7214,4.7223,4.728,4.7289,4.7352,4.7372,4.7474,4.7563,4.7757,4.7796,4.7901,4.7973,4.8026,4.814,4.8222,4.8247,4.8365,4.8535,4.8675,4.8804,4.895,4.9094,4.9266,4.9438,4.9626,4.985,4.9945,5.0118,5.0313,5.0427,5.0569,5.0651,5.0803,5.0936,5.1005,5.1069,5.1063,5.1048,5.087,5.0739,5.0516,5.02,4.9841,4.9384,4.8939,4.8661,4.8357,4.8067,4.7797,4.7526,4.741,4.7316,4.7176,4.7088,4.6941,4.6961,4.6932,4.692,4.6875,4.6833,4.6767,4.6883,4.6852,4.6908,4.6845,4.6856,4.6832,4.6882,4.6878,4.6883,4.6887,4.6965,4.6926,4.6943,4.6984,4.6993,4.6968,4.6985,4.6895,4.6872,4.6898,4.6933,4.6976,4.7031,4.6967,4.686,4.6866,4.6908,4.6916,4.6878,4.6776,4.6854,4.7001,4.7114,4.7131,4.7209,4.714,4.7236,4.7545,4.7766,4.7897,4.771,4.7487,4.7306,4.7238,4.7053,4.6941,4.6964,4.6819,4.6739,4.6753,4.6649,4.6685,4.6632,4.6583,4.6601,4.6617,4.6625,4.6576,4.6591,4.6554,4.6593,4.6568,4.6626,4.661,4.6507,4.6498,4.6491,4.6514,4.6725,4.7678,5.0046,5.3356,5.5662,5.7575,5.3403,4.5811,4.2065,4.0717,4.0648,4.1932,4.3357,4.4855,4.6035,4.6588,4.6831,4.6885,4.6968,4.6976,4.7105,4.7073,4.7222,4.7173,4.7227,4.7208,4.7376,4.7421,4.7538,4.757,4.7642,4.7616,4.769,4.7784,4.7869,4.7908,4.7971,4.8055,4.8112,4.8275,4.8377,4.8484,4.86,4.8668,4.8794,4.8962,4.9106,4.9261,4.9443,4.9573,4.9765,4.9918,5.0065,5.0186,5.025,5.0396,5.0522,5.0631,5.0706,5.0769,5.0781,5.0874,5.0927,5.0778,5.0618,5.0331,4.9994,4.9676,4.9275,4.8973,4.8615,4.8353,4.8073,4.8078,4.7724,4.7555,4.7373,4.7184,4.7124,4.7073,4.7048,4.6992,4.6969,4.6969,4.6914,4.6846,4.6876,4.6848,4.6919,4.6955,4.6945,4.7014,4.7007,4.6981,4.7007,4.6972,4.6997,4.706,4.7025,4.7077,4.707,4.7072,4.7036,4.7031,4.7063,4.7078,4.7017,4.6994,4.6999,4.7012,4.6985,4.7011,4.7017,4.7062,4.7117,4.7149,4.7116,4.7192,4.7265,4.7269,4.758,4.7923,4.7988,4.7757,4.7533,4.7394,4.733,4.7239,4.7026,4.6936,4.6952,4.6853,4.6804,4.6719,4.6623,4.6634,4.6649,4.6626,4.6586,4.6566,4.6599,4.6597,4.6573,4.6526,4.6504,4.6518,4.6531,4.6523,4.649,4.6442,4.6415,4.6563,4.7249,4.9329,5.2454,5.4535,5.6178,5.5348,4.852,4.2817,4.1518,4.0906,4.1656,4.3029,4.4691,4.5876,4.6496,4.6685,4.6705,4.6734,4.6721,4.6809,4.6834,4.6881,4.6827,4.6926,4.6893,4.7023,4.7058,4.7071,4.7075,4.7159,4.7208,4.7287,4.7302,4.7384,4.741,4.7491,4.7534,4.7609,4.7722,4.7872,4.7953,4.8092,4.8188,4.8327,4.8483,4.8559,4.8766,4.8926,4.9082,4.9237,4.9449,4.9597,4.9758,4.9839,4.9973,5.0127,5.0229,5.0322,5.0408,5.0482,5.0506,5.0506,5.0395,5.0158,4.9892,4.9582,4.9203,4.8769,4.8407,4.8061,4.7728,4.7414,4.7265,4.7012,4.6797,4.665,4.6533,4.6418,4.6311,4.6221,4.6226,4.6217,4.6172,4.6105,4.6064,4.607,4.6076,4.6058,4.6073,4.6066,4.6074,4.6054,4.6129,4.6132,4.6128,4.6131,4.6145,4.617,4.6176,4.6171,4.6162,4.6195,4.6211,4.6171,4.6163,4.6114,4.6126,4.6138,4.6117,4.6125,4.6125,4.6073,4.608,4.6047,4.603,4.6073,4.6181,4.6307,4.6285,4.6247,4.6235,4.6284,4.666,4.6995,4.7085,4.6842,4.6657,4.6458,4.6365,4.6314,4.6168,4.6015,4.5978,4.5946,4.5839,4.5809,4.5767,4.5743,4.5725,4.5695,4.5651,4.5637,4.5636,4.5626,4.5556,4.5513,4.5496,4.5517,4.5499,4.5539,4.547,4.5451,4.5355,4.5562,4.6371,4.8641,5.1654,5.3241,5.5413,5.3021,4.5925,4.1821,4.0823,4.0461,4.1088,4.288,4.4208,4.4798,4.5394,4.5651,4.5615,4.577,4.5714,4.5803,4.5727,4.5802,4.5767,4.5855,4.5857,4.5953,4.5923,4.6007,4.6047,4.6136,4.6128,4.6187,4.6197,4.6355,4.637,4.6467,4.6517,4.6601,4.667,4.6782,4.6885,4.6969,4.7056,4.7176,4.7319,4.7503,4.7621,4.7775,4.7936,4.8119,4.8287,4.837,4.8517,4.8668,4.8813,4.8976,4.9111,4.918,4.9255,4.9337,4.9393,4.9339,4.924,4.9057,4.8789,4.8452,4.8058,4.7622,4.7264,4.6888,4.6713,4.6362,4.6026,4.5762,4.5548,4.5388,4.525,4.5126,4.5015,4.4959,4.4914,4.4855,4.4816,4.4727,4.475,4.4766,4.4751,4.4737,4.473,4.4741,4.4748,4.4756,4.4758,4.4742,4.4719,4.4745,4.4792,4.4777,4.4773,4.4751,4.4753,4.4789,4.4787,4.4733,4.4737,4.4723,4.4761,4.4738,4.4721,4.4662,4.4678,4.4663,4.4667,4.4578,4.4581,4.4569,4.4603,4.4626,4.4719,4.4796,4.4785,4.4782,4.4755,4.4782,4.5137,4.5506,4.5595,4.5466,4.5233,4.5044,4.4896,4.4748,4.4613,4.4434,4.4395,4.4318,4.4267,4.4233,4.4202,4.4151,4.4159,4.4129,4.4101,4.406,4.4052,4.4044,4.4025,4.4046,4.4031,4.3983,4.3941,4.3958,4.3953,4.3903,4.384,4.4048,4.4963,4.7291,5.0271,5.1709,5.3834,5.0459,4.3315,3.9879,3.904,3.877,3.9069,4.0412,4.2148,4.3296,4.3766,4.4078,4.405,4.4186,4.4052,4.4166,4.413,4.4285,4.4189,4.4307,4.424,4.4362,4.4365,4.4503,4.4439,4.4521,4.4514,4.463,4.461,4.4738,4.4741,4.4823,4.489,4.5034,4.5072,4.5166,4.525,4.5371,4.5473,4.5653,4.5737,4.5884,4.6005,4.6127,4.6263,4.6442,4.6575,4.674,4.6905,4.7066,4.7174,4.7309,4.7454,4.7615,4.7699,4.7756,4.7792,4.7772,4.7697,4.7505,4.7228,4.6849,4.6673,4.631,4.5948,4.5543,4.5129,4.4804,4.4536,4.43,4.4106,4.3895,4.3765,4.3643,4.3549,4.3452,4.3401,4.3332,4.3338,4.3351,4.3306,4.3307,4.3273,4.3233,4.3264,4.3243,4.3256,4.326,4.3308,4.335,4.3365,4.3306,4.332,4.3298,4.3313,4.3291,4.3309,4.3342,4.3375,4.3315,4.3326,4.3311,4.3323,4.3292,4.3359,4.332,4.3303,4.3243,4.3266,4.3229,4.3263,4.3187,4.3174,4.312,4.3094,4.3068,4.3115,4.3191,4.3295,4.3366,4.3383,4.3348,4.3366,4.329,4.3577,4.3989,4.4168,4.3978,4.3731,4.3563,4.346,4.3335,4.3143,4.3022,4.298,4.2924,4.2854,4.2835,4.2814,4.28,4.2744,4.2735,4.2669,4.2637,4.2616,4.2616,4.2627,4.2598,4.2552,4.2537,4.253,4.2551,4.257,4.2552,4.2443,4.2674,4.3538,4.4526,4.7287,4.9919,5.1522,5.1758,4.5501,3.9353,3.7922,3.7226,3.7767,3.8937,4.0646,4.1817,4.2407,4.2732,4.2721,4.2803,4.2808,4.2865,4.2885,4.2965,4.2896,4.2914,4.2907,4.2987,4.3026,4.3091,4.3076,4.3198,4.3253,4.3311,4.3341,4.3386,4.3457,4.3556,4.3621,4.3781,4.3816,4.3972,4.3983,4.4044,4.4091,4.4219,4.4408,4.4617,4.481,4.4874,4.4944,4.5139,4.533,4.5571,4.57,4.5814,4.6,4.6219,4.6352,4.6399,4.6475,4.6555,4.6649,4.6748,4.6719,4.6595,4.64,4.6152,4.581,4.544,4.5035,4.4652,4.4343,4.4006,4.3624,4.3282,4.305,4.2879,4.2842,4.2729,4.2651,4.2596,4.2421,4.2359,4.2285,4.2202,4.2226,4.2268,4.2312,4.2292,4.2297,4.2295,4.2342,4.2332,4.2328,4.2291,4.2308,4.2333,4.2367,4.2389,4.2335,4.2323,4.238,4.2339,4.2374,4.2368,4.2359,4.238,4.2378,4.2385,4.2368,4.2342,4.2278,4.2306,4.2265,4.2202,4.224,4.2282,4.2306,4.2345,4.2456,4.2463,4.2472,4.2528,4.2639,4.2608,4.2601,4.294,4.3205,4.3249,4.3018,4.2884,4.2785,4.2652,4.2511,4.2382,4.2259,4.2195,4.2218,4.2146,4.216,4.2082,4.2048,4.1959,4.1988,4.1961,4.1943,4.1977,4.1928,4.1969,4.199,4.2044,4.1939,4.197,4.1972,4.1873,4.1889,4.1775,4.203,4.3017,4.5482,4.8706,5.089,5.2693,4.8434,4.0896,3.7388,3.6158,3.6211,3.7535,3.8938,4.0487,4.1461,4.1942,4.2183,4.2285,4.25,4.2458,4.2531,4.2437,4.2571,4.2507,4.2582,4.2634,4.2745,4.2761,4.2859,4.2879,4.3025,4.3026,4.3092,4.3089,4.3191,4.326,4.3393,4.3422,4.3537,4.3564,4.364,4.3731,4.3848,4.3979,4.4123,4.4239,4.4442,4.4565,4.4769,4.4911,4.5071,4.5227,4.5376,4.5452,4.5563,4.5654,4.5778,4.5885,4.6056,4.6164,4.6179,4.6275,4.6225,4.6183,4.6051,4.5805,4.5484,4.5147,4.4714,4.4392,4.3972,4.3629,4.3458,4.3247,4.3092,4.2908,4.2628,4.2558,4.2431,4.2321,4.2169,4.2154,4.2127,4.2187,4.2216,4.2166,4.2153,4.2115,4.2104,4.2146,4.2127,4.2126,4.2152,4.2254,4.22,4.2211,4.2169,4.219,4.2227,4.2241,4.222,4.2243,4.223,4.2274,4.227,4.2258,4.2241,4.2266,4.2254,4.2295,4.2309,4.2413,4.2431
