-24.446,-24.449,-24.458,-24.452,-24.461,-24.466,-24.47,-24.472,-24.466,-24.467,-24.469,-24.474,-24.474,-24.466,-24.472,-24.472,-24.474,-24.474,-24.463,-24.464,-24.456,-24.459,-24.461,-24.464,-24.461,-24.456,-24.459,-24.458,-24.451,-24.458,-24.459,-24.459,-24.463,-24.466,-24.457,-24.459,-24.46,-24.465,-24.47,-24.462,-24.456,-24.472,-24.473,-24.469,-24.466,-24.47,-24.473,-24.469,-24.481,-24.477,-24.475,-24.474,-24.478,-24.481,-24.476,-24.476,-24.462,-24.453,-24.446,-24.434,-24.417,-24.418,-24.43,-24.42,-24.405,-24.398,-24.41,-24.42,-24.416,-24.414,-24.402,-24.419,-24.438,-24.456,-24.47,-24.479,-24.481,-24.491,-24.506,-24.504,-24.495,-24.504,-24.509,-24.506,-24.503,-24.494,-24.498,-24.517,-24.534,-24.53,-24.505,-24.463,-24.385,-24.25,-24.072,-23.918,-23.929,-24.33,-24.722,-24.877,-24.846,-24.838,-24.857,-24.838,-24.81,-24.736,-24.688,-24.581,-24.516,-24.482,-24.47,-24.453,-24.453,-24.45,-24.45,-24.446,-24.436,-24.427,-24.428,-24.42,-24.412,-24.398,-24.392,-24.388,-24.395,-24.383,-24.377,-24.372,-24.36,-24.349,-24.346,-24.334,-24.324,-24.309,-24.303,-24.29,-24.271,-24.249,-24.24,-24.229,-24.221,-24.202,-24.18,-24.164,-24.153,-24.15,-24.139,-24.129,-24.117,-24.119,-24.117,-24.12,-24.125,-24.136,-24.153,-24.191,-24.22,-24.242,-24.267,-24.294,-24.32,-24.349,-24.364,-24.378,-24.398,-24.407,-24.421,-24.426,-24.425,-24.435,-24.444,-24.449,-24.446,-24.44,-24.45,-24.463,-24.463,-24.46,-24.458,-24.461,-24.468,-24.469,-24.461,-24.457,-24.455,-24.461,-24.463,-24.462,-24.459,-24.46,-24.459,-24.464,-24.46,-24.453,-24.45,-24.454,-24.452,-24.455,-24.444,-24.443,-24.45,-24.451,-24.447,-24.44,-24.438,-24.447,-24.449,-24.448,-24.444,-24.447,-24.443,-24.449,-24.459,-24.451,-24.452,-24.453,-24.454,-24.454,-24.456,-24.456,-24.455,-24.461,-24.446,-24.435,-24.42,-24.415,-24.4,-24.395,-24.398,-24.395,-24.373,-24.372,-24.385,-24.379,-24.387,-24.39,-24.395,-24.403,-24.418,-24.43,-24.446,-24.472,-24.487,-24.483,-24.487,-24.487,-24.494,-24.493,-24.507,-24.496,-24.492,-24.494,-24.506,-24.503,-24.512,-24.517,-24.516,-24.485,-24.449,-24.348,-24.194,-23.99,-23.889,-23.82,-24.044,-24.502,-24.796,-24.902,-24.88,-24.886,-24.86,-24.817,-24.724,-24.612,-24.524,-24.477,-24.452,-24.455,-24.442,-24.442,-24.433,-24.426,-24.42,-24.417,-24.413,-24.411,-24.398,-24.394,-24.391,-24.384,-24.373,-24.366,-24.361,-24.352,-24.351,-24.339,-24.326,-24.321,-24.314,-24.309,-24.293,-24.287,-24.27,-24.26,-24.251,-24.232,-24.209,-24.19,-24.178,-24.172,-24.151,-24.128,-24.117,-24.107,-24.101,-24.092,-24.079,-24.073,-24.085,-24.097,-24.112,-24.119,-24.138,-24.175,-24.209,-24.232,-24.265,-24.293,-24.311,-24.345,-24.359,-24.372,-24.383,-24.394,-24.41,-24.427,-24.423,-24.423,-24.43,-24.435,-24.437,-24.44,-24.435,-24.433,-24.44,-24.443,-24.446,-24.439,-24.443,-24.44,-24.45,-24.448,-24.434,-24.429,-24.433,-24.435,-24.434,-24.422,-24.424,-24.427,-24.437,-24.433,-24.425,-24.418,-24.422,-24.422,-24.424,-24.407,-24.414,-24.417,-24.423,-24.424,-24.416,-24.416,-24.414,-24.415,-24.424,-24.42,-24.413,-24.418,-24.416,-24.428,-24.425,-24.414,-24.411,-24.416,-24.416,-24.418,-24.413,-24.407,-24.398,-24.383,-24.379,-24.363,-24.35,-24.36,-24.359,-24.347,-24.331,-24.336,-24.349,-24.358,-24.362,-24.359,-24.356,-24.371,-24.394,-24.41,-24.414,-24.436,-24.443,-24.451,-24.457,-24.45,-24.457,-24.459,-24.458,-24.462,-24.453,-24.45,-24.456,-24.465,-24.48,-24.484,-24.447,-24.417,-24.342,-24.184,-23.95,-23.754,-23.734,-24.08,-24.542,-24.794,-24.855,-24.856,-24.852,-24.812,-24.788,-24.687,-24.555,-24.465,-24.423,-24.405,-24.397,-24.386,-24.38,-24.385,-24.376,-24.367,-24.368,-24.358,-24.36,-24.35,-24.341,-24.332,-24.327,-24.328,-24.325,-24.315,-24.302,-24.294,-24.286,-24.284,-24.275,-24.26,-24.251,-24.241,-24.227,-24.212,-24.196,-24.177,-24.163,-24.155,-24.134,-24.109,-24.086,-24.082,-24.075,-24.061,-24.039,-24.025,-24.014,-24.012,-24.007,-24.009,-24.018,-24.041,-24.067,-24.092,-24.125,-24.153,-24.193,-24.215,-24.249,-24.268,-24.286,-24.299,-24.317,-24.338,-24.34,-24.345,-24.352,-24.36,-24.368,-24.372,-24.369,-24.367,-24.378,-24.384,-24.382,-24.376,-24.375,-24.376,-24.384,-24.381,-24.376,-24.364,-24.378,-24.386,-24.38,-24.369,-24.36,-24.365,-24.363,-24.366,-24.36,-24.357,-24.352,-24.355,-24.357,-24.353,-24.345,-24.345,-24.352,-24.354,-24.349,-24.349,-24.347,-24.353,-24.357,-24.355,-24.349,-24.348,-24.354,-24.358,-24.355,-24.35,-24.355,-24.359,-24.362,-24.36,-24.353,-24.36,-24.36,-24.363,-24.361,-24.351,-24.365,-24.359,-24.365,-24.362,-24.35,-24.337,-24.322,-24.309,-24.301,-24.303,-24.311,-24.301,-24.292,-24.281,-24.281,-24.286,-24.281,-24.289,-24.289,-24.297,-24.317,-24.335,-24.348,-24.376,-24.378,-24.379,-24.384,-24.389,-24.393,-24.386,-24.377,-24.385,-24.389,-24.398,-24.395,-24.401,-24.409,-24.411,-24.395,-24.362,-24.281,-24.142,-23.929,-23.727,-23.657,-23.909,-24.384,-24.704,-24.818,-24.814,-24.798,-24.759,-24.694,-24.574,-24.458,-24.386,-24.358,-24.345,-24.342,-24.344,-24.332,-24.326,-24.315,-24.312,-24.306,-24.301,-24.29,-24.288,-24.29,-24.29,-24.275,-24.262,-24.259,-24.262,-24.247,-24.246,-24.242,-24.228,-24.221,-24.217,-24.204,-24.184,-24.172,-24.16,-24.156,-24.141,-24.123,-24.106,-24.089,-24.08,-24.058,-24.035,-24.025,-24.014,-24.015,-24.011,-23.984,-23.977,-23.98,-23.983,-23.991,-24.005,-24.021,-24.044,-24.092,-24.118,-24.149,-24.169,-24.198,-24.228,-24.248,-24.274,-24.279,-24.292,-24.31,-24.319,-24.326,-24.324,-24.328,-24.337,-24.348,-24.34,-24.341,-24.338,-24.346,-24.355,-24.352,-24.346,-24.346,-24.35,-24.354,-24.356,-24.347,-24.351,-24.352,-24.348,-24.352,-24.352,-24.34,-24.345,-24.34,-24.348,-24.336,-24.335,-24.339,-24.338,-24.344,-24.336,-24.326,-24.331,-24.343,-24.353,-24.344,-24.341,-24.34,-24.35,-24.354,-24.344,-24.344,-24.343,-24.348,-24.355,-24.363,-24.352,-24.348,-24.353,-24.362,-24.365,-24.354,-24.358,-24.363,-24.372,-24.368,-24.367,-24.361,-24.373,-24.363,-24.365,-24.368,-24.362,-24.367,-24.377,-24.379,-24.361,-24.351,-24.33,-24.327,-24.315,-24.328,-24.329,-24.317,-24.304,-24.298,-24.303,-24.314,-24.319,-24.313,-24.308,-24.326,-24.339,-24.353,-24.367,-24.396,-24.409,-24.398,-24.401,-24.401,-24.412,-24.419,-24.414,-24.409,-24.409,-24.416,-24.417,-24.425,-24.429,-24.44,-24.42,-24.393,-24.324,-24.196,-24.018,-23.838,-23.777,-24.084,-24.511,-24.765,-24.798,-24.776,-24.786,-24.757,-24.729,-24.703,-24.631,-24.524,-24.434,-24.403,-24.39,-24.386,-24.382,-24.367,-24.364,-24.356,-24.362,-24.348,-24.346,-24.336,-24.339,-24.338,-24.332,-24.321,-24.32,-24.307,-24.317,-24.307,-24.304,-24.287,-24.283,-24.273,-24.27,-24.26,-24.255,-24.236,-24.229,-24.213,-24.204,-24.181,-24.17,-24.158,-24.144,-24.129,-24.113,-24.102,-24.106,-24.092,-24.09,-24.079,-24.069,-24.078,-24.09,-24.101,-24.1,-24.124,-24.147,-24.189,-24.223,-24.243,-24.265,-24.295,-24.31,-24.32,-24.33,-24.341,-24.351,-24.374,-24.382,-24.388,-24.398,-24.4,-24.404,-24.405,-24.405,-24.407,-24.411,-24.418,-24.414,-24.41,-24.414,-24.415,-24.423,-24.433,-24.417,-24.416,-24.411,-24.417,-24.421,-24.415,-24.407,-24.407,-24.414,-24.414,-24.411,-24.409,-24.403,-24.401,-24.407,-24.404,-24.404,-24.398,-24.403,-24.41,-24.404,-24.401,-24.404,-24.406,-24.418,-24.42,-24.416,-24.406,-24.408,-24.425,-24.423,-24.422,-24.422,-24.424,-24.427,-24.434,-24.42,-24.425,-24.418,-24.431,-24.441,-24.439,-24.425,-24.422,-24.429,-24.434,-24.433,-24.421,-24.405,-24.398,-24.383,-24.391,-24.403,-24.389,-24.377,-24.37,-24.377,-24.379,-24.389,-24.38,-24.39,-24.396,-24.411,-24.416,-24.436,-24.455,-24.48,-24.476,-24.47,-24.478,-24.482,-24.489,-24.482,-24.479,-24.48,-24.5,-24.497,-24.496,-24.504,-24.51,-24.498,-24.48,-24.438,-24.332,-24.168,-23.983,-23.865,-24.019,-24.463,-24.77,-24.839,-24.814,-24.816,-24.834,-24.789,-24.765,-24.689,-24.643,-24.545,-24.479,-24.461,-24.457,-24.455,-24.446,-24.429,-24.426,-24.434,-24.429,-24.416,-24.409,-24.399,-24.395,-24.395,-24.382,-24.374,-24.374,-24.367,-24.362,-24.357,-24.341,-24.337,-24.328,-24.328,-24.317,-24.303,-24.281,-24.27,-24.259,-24.248,-24.226,-24.21,-24.194,-24.187,-24.175,-24.15,-24.144,-24.141,-24.142,-24.132,-24.116,-24.111,-24.11,-24.124,-24.134,-24.144,-24.158,-24.193,-24.225,-24.258,-24.284,-24.301,-24.324,-24.351,-24.373,-24.387,-24.389,-24.405,-24.415,-24.424,-24.43,-24.433,-24.433,-24.436,-24.445,-24.443,-24.441,-24.444,-24.451,-24.454,-24.455,-24.461,-24.447,-24.455,-24.455,-24.457,-24.458,-24.449,-24.446,-24.454,-24.453,-24.448,-24.444,-24.443,-24.444,-24.448,-24.442,-24.433,-24.432,-24.434,-24.438,-24.431,-24.434,-24.43,-24.433,-24.436,-24.435,-24.434,-24.432,-24.43,-24.442,-24.441,-24.439,-24.435,-24.442,-24.442,-24.448,-24.439,-24.439,-24.447,-24.453,-24.453,-24.445,-24.449,-24.454,-24.452,-24.446,-24.443,-24.459,-24.464,-24.462,-24.469,-24.453,-24.449,-24.456,-24.463,-24.465,-24.46,-24.453,-24.452,-24.464,-24.455,-24.438,-24.418,-24.415,-24.401,-24.397,-24.414,-24.403,-24.39,-24.383,-24.385,-24.39,-24.395,-24.388,-24.388,-24.401,-24.419,-24.431,-24.443,-24.455,-24.479,-24.483,-24.478,-24.475,-24.484,-24.492,-24.491,-24.488,-24.483,-24.487,-24.489,-24.502,-24.503,-24.507,-24.485,-24.454,-24.393,-24.258,-24.063,-23.873,-23.813,-24.081,-24.32,-24.686,-24.868,-24.845,-24.87,-24.856,-24.829,-24.757,-24.678,-24.559,-24.507,-24.456,-24.451,-24.441,-24.448,-24.431,-24.432,-24.418,-24.419,-24.406,-24.41,-24.399,-24.398,-24.385,-24.39,-24.378,-24.374,-24.359,-24.364,-24.352,-24.349,-24.335,-24.332,-24.316,-24.315,-24.304,-24.291,-24.276,-24.26,-24.249,-24.245,-24.227,-24.207,-24.194,-24.177,-24.167,-24.147,-24.132,-24.122,-24.111,-24.106,-24.094,-24.087,-24.086,-24.095,-24.115,-24.132,-24.152,-24.181,-24.204,-24.233,-24.267,-24.286,-24.306,-24.332,-24.357,-24.374,-24.389,-24.394,-24.408,-24.419,-24.427,-24.424,-24.425,-24.43,-24.434,-24.439,-24.44,-24.433,-24.439,-24.44,-24.449,-24.442,-24.442,-24.438,-24.441,-24.443,-24.45,-24.443,-24.444,-24.44,-24.448,-24.435,-24.433,-24.429,-24.433,-24.431,-24.437,-24.433,-24.427,-24.421,-24.434,-24.433,-24.422,-24.421,-24.421,-24.427,-24.43,-24.425,-24.425,-24.427,-24.433,-24.433,-24.431,-24.431,-24.433,-24.434,-24.441,-24.433,-24.43,-24.431,-24.436,-24.443,-24.443,-24.439,-24.437,-24.443,-24.441,-24.441,-24.438,-24.436,-24.442,-24.439,-24.447,-24.44,-24.438,-24.446,-24.447,-24.443,-24.441,-24.435,-24.438,-24.441,-24.445,-24.439,-24.437,-24.436,-24.44,-24.431,-24.41,-24.398,-24.389,-24.384,-24.395,-24.393,-24.38,-24.37,-24.364,-24.376,-24.375,-24.379,-24.377,-24.378,-24.394,-24.411,-24.423,-24.434,-24.457,-24.471,-24.471,-24.466,-24.467,-24.471,-24.472,-24.479,-24.472,-24.471,-24.472,-24.479,-24.489,-24.498,-24.489,-24.461,-24.421,-24.328,-24.165,-23.943,-23.775,-23.791,-24.178,-24.618,-24.831,-24.878,-24.876,-24.875,-24.829,-24.805,-24.7,-24.586,-24.502,-24.459,-24.432,-24.429,-24.431,-24.428,-24.415,-24.411,-24.401,-24.409,-24.406,-24.398,-24.385,-24.381,-24.376,-24.379,-24.374,-24.361,-24.353,-24.346,-24.349,-24.337,-24.324,-24.318,-24.311,-24.308,-24.291,-24.28,-24.262,-24.25,-24.233,-24.223,-24.193,-24.176,-24.154,-24.15,-24.138,-24.127,-24.105,-24.09,-24.075,-24.068,-24.055,-24.047,-24.042,-24.061,-24.081,-24.096,-24.116,-24.15,-24.19,-24.222,-24.253,-24.278,-24.301,-24.315,-24.338,-24.352,-24.359,-24.371,-24.384,-24.395,-24.404,-24.403,-24.411,-24.408,-24.416,-24.416,-24.411,-24.407,-24.413,-24.423,-24.418,-24.416,-24.413,-24.412,-24.423,-24.429,-24.422,-24.411,-24.406,-24.415,-24.419,-24.407,-24.399,-24.402,-24.403,-24.405,-24.405,-24.401,-24.398,-24.398,-24.401,-24.391,-24.397,-24.39,-24.402,-24.403,-24.401,-24.4,-24.402,-24.401,-24.414,-24.409,-24.404,-24.404,-24.407,-24.408,-24.414,-24.4,-24.405,-24.413,-24.416,-24.411,-24.414,-24.41,-24.411,-24.414,-24.419,-24.414,-24.408,-24.409,-24.419,-24.425,-24.423,-24.417,-24.415,-24.419,-24.42,-24.418,-24.412,-24.413,-24.424,-24.425,-24.426,-24.42,-24.41,-24.415,-24.423,-24.414,-24.406,-24.403,-24.409,-24.415,-24.415,-24.41,-24.403,-24.39,-24.382,-24.366,-24.358,-24.357,-24.37,-24.371,-24.363,-24.345,-24.334,-24.343,-24.35,-24.351,-24.346,-24.344,-24.367,-24.398,-24.41,-24.41,-24.426,-24.433,-24.445,-24.443,-24.442,-24.433,-24.443,-24.442,-24.443,-24.447,-24.438,-24.442,-24.453,-24.466,-24.447,-24.405,-24.336,-24.225,-24.041,-23.84,-23.725,-23.863,-24.329,-24.722,-24.87,-24.862,-24.86,-24.862,-24.82,-24.752,-24.609,-24.501,-24.439,-24.424,-24.411,-24.411,-24.392,-24.399,-24.392,-24.398,-24.377,-24.375,-24.366,-24.368,-24.365,-24.357,-24.351,-24.341,-24.342,-24.336,-24.329,-24.319,-24.313,-24.313,-24.301,-24.3,-24.279,-24.268,-24.259,-24.268,-24.255,-24.238,-24.212,-24.205,-24.19,-24.185,-24.168,-24.14,-24.131,-24.118,-24.109,-24.093,-24.08,-24.066,-24.069,-24.06,-24.053,-24.069,-24.081,-24.105,-24.137,-24.155,-24.185,-24.215,-24.254,-24.269,-24.293,-24.314,-24.332,-24.352,-24.373,-24.377,-24.383,-24.396,-24.401,-24.41,-24.413,-24.413,-24.419,-24.421,-24.428,-24.426,-24.425,-24.421,-24.42,-24.428,-24.424,-24.431,-24.433,-24.426,-24.43,-24.43,-24.422,-24.426,-24.428,-24.425,-24.435,-24.422,-24.423,-24.424,-24.428,-24.428,-24.42,-24.424,-24.424,-24.42,-24.428,-24.426,-24.424,-24.421,-24.425,-24.434,-24.437,-24.422,-24.427,-24.441,-24.445,-24.445,-24.433,-24.43,-24.449,-24.454,-24.449,-24.443,-24.452,-24.45,-24.461,-24.462,-24.447,-24.446,-24.449,-24.457,-24.467,-24.459,-24.461,-24.461,-24.46,-24.476,-24.47,-24.466,-24.472,-24.474,-24.474,-24.474,-24.467,-24.463,-24.471,-24.461,-24.444,-24.437,-24.415,-24.422,-24.441,-24.435,-24.416,-24.398,-24.416,-24.428,-24.437,-24.421,-24.404,-24.429,-24.434,-24.461,-24.471,-24.485,-24.5,-24.503,-24.509,-24.513,-24.516,-24.518,-24.515,-24.528,-24.522,-24.516,-24.514,-24.526,-24.555,-24.553,-24.533,-24.478,-24.417,-24.35,-24.198,-24.009,-23.891,-24.014,-24.473,-24.807,-24.884,-24.863,-24.865,-24.891,-24.842,-24.804,-24.726,-24.627,-24.554,-24.513,-24.495,-24.484,-24.479,-24.49,-24.487,-24.479,-24.47,-24.472,-24.476,-24.464,-24.455,-24.449,-24.444,-24.441,-24.438,-24.431,-24.425,-24.423,-24.424,-24.417,-24.402,-24.393,-24.387,-24.379,-24.373,-24.354,-24.339,-24.33,-24.316,-24.313,-24.298,-24.273,-24.261,-24.254,-24.247,-24.238,-24.22,-24.205,-24.196,-24.199,-24.193,-24.189,-24.191,-24.204,-24.214,-24.243,-24.263,-24.287,-24.321,-24.35,-24.381,-24.401,-24.42,-24.437,-24.454,-24.468,-24.48,-24.494,-24.503,-24.506,-24.517,-24.519,-24.519,-24.517,-24.525,-24.527,-24.535,-24.531,-24.527,-24.526,-24.544,-24.544,-24.534,-24.535,-24.525,-24.54,-24.537,-24.537,-24.531,-24.532,-24.538,-24.537,-24.532,-24.523,-24.53,-24.531,-24.531,-24.529,-24.525,-24.53,-24.525,-24.529,-24.521,-24.511,-24.514,-24.521,-24.525,-24.524,-24.524,-24.521,-24.525,-24.52,-24.521,-24.515,-24.521,-24.521,-24.53,-24.533,-24.53,-24.531,-24.529,-24.541,-24.536,-24.531,-24.523,-24.532,-24.537,-24.536,-24.536,-24.534,-24.534,-24.535,-24.534,-24.53,-24.513,-24.506,-24.505,-24.486,-24.474,-24.486,-24.49,-24.475,-24.466,-24.466,-24.467,-24.474,-24.479,-24.477,-24.477,-24.494,-24.509,-24.523,-24.549,-24.564,-24.557,-24.558,-24.571,-24.569,-24.57,-24.56,-24.564,-24.57,-24.571,-24.573,-24.571,-24.583,-24.591,-24.575,-24.564,-24.508,-24.4,-24.244,-24.057,-23.932,-24.051,-24.499,-24.83,-24.934,-24.901,-24.905,-24.911,-24.874,-24.833,-24.749,-24.655,-24.57,-24.538,-24.534,-24.532,-24.517,-24.516,-24.501,-24.501,-24.498,-24.496,-24.476,-24.473,-24.472,-24.475,-24.459,-24.448,-24.44,-24.439,-24.437,-24.436,-24.412,-24.405,-24.402,-24.405,-24.392,-24.38,-24.366,-24.356,-24.345,-24.334,-24.311,-24.291,-24.284,-24.27,-24.259,-24.234,-24.216,-24.213,-24.205,-24.196,-24.176,-24.166,-24.167,-24.169,-24.176,-24.181,-24.197,-24.215,-24.254,-24.285,-24.314,-24.332,-24.361,-24.386,-24.409,-24.429,-24.44,-24.453,-24.472,-24.484,-24.486,-24.49,-24.494,-24.491,-24.502,-24.506,-24.504,-24.505,-24.508,-24.515,-24.519,-24.509,-24.504,-24.507,-24.51,-24.511,-24.513,-24.508,-24.509,-24.516,-24.509,-24.513,-24.507,-24.5,-24.504,-24.506,-24.504,-24.491,-24.498,-24.503,-24.504,-24.504,-24.498,-24.493,-24.492,-24.499,-24.497,-24.491,-24.496,-24.496,-24.499,-24.501,-24.499,-24.501,-24.494,-24.499,-24.505,-24.503,-24.499,-24.5,-24.509,-24.508,-24.502,-24.5,-24.511,-24.513,-24.519,-24.509,-24.508,-24.509,-24.516,-24.52,-24.515,-24.509,-24.514,-24.517,-24.515,-24.51,-24.51,-24.504,-24.509,-24.505,-24.481,-24.466,-24.45,-24.445,-24.463,-24.458,-24.447,-24.437,-24.43,-24.441,-24.447,-24.443,-24.439,-24.441,-24.455,-24.476,-24.486,-24.498,-24.515,-24.528,-24.528,-24.533,-24.529,-24.531,-24.54,-24.539,-24.53,-24.53,-24.531,-24.539,-24.551,-24.557,-24.547,-24.52,-24.487,-24.406,-24.255,-24.049,-23.876,-23.888,-24.287,-24.703,-24.898,-24.914,-24.914,-24.926,-24.909,-24.867,-24.781,-24.683,-24.585,-24.537,-24.499,-24.497,-24.493,-24.497,-24.488,-24.48,-24.47,-24.47,-24.463,-24.462,-24.443,-24.442,-24.429,-24.433,-24.432,-24.425,-24.41,-24.407,-24.404,-24.408,-24.388,-24.376,-24.368,-24.361,-24.359,-24.34,-24.321,-24.314,-24.298,-24.288,-24.273,-24.251,-24.23,-24.22,-24.209,-24.196,-24.181,-24.161,-24.156,-24.148,-24.14,-24.133,-24.129,-24.138,-24.155,-24.175,-24.192,-24.223,-24.256,-24.292,-24.321,-24.34,-24.362,-24.374,-24.397,-24.42,-24.427,-24.429,-24.446,-24.458,-24.466,-24.473,-24.472,-24.47,-24.477,-24.482,-24.481,-24.476,-24.477,-24.485,-24.489,-24.488,-24.482,-24.479,-24.483,-24.483,-24.48,-24.478,-24.47,-24.476,-24.477,-24.477,-24.471,-24.467,-24.465,-24.464,-24.469,-24.461,-24.46,-24.46,-24.465,-24.464,-24.458,-24.458,-24.46,-24.466,-24.465,-24.46,-24.458,-24.462,-24.469,-24.472,-24.47,-24.473,-24.473,-24.473,-24.477,-24.473,-24.484,-24.48,-24.48,-24.481,-24.483,-24.479,-24.475,-24.481,-24.486,-24.486,-24.483,-24.48,-24.476,-24.485,-24.489,-24.486,-24.485,-24.492,-24.498,-24.495,-24.484,-24.481,-24.489,-24.491,-24.479,-24.459,-24.443,-24.421,-24.424,-24.442,-24.438,-24.418,-24.406,-24.412,-24.417,-24.42,-24.408,-24.414,-24.424,-24.441,-24.452,-24.466,-24.469,-24.494,-24.513,-24.507,-24.506,-24.506,-24.512,-24.518,-24.521,-24.512,-24.511,-24.518,-24.531,-24.542,-24.541,-24.51,-24.482,-24.419,-24.286,-24.078,-23.967,-23.813,-23.837,-24.246,-24.677,-24.896,-24.92,-24.937,-24.924,-24.875,-24.799,-24.67,-24.57,-24.513,-24.479,-24.468,-24.462,-24.472,-24.462,-24.45,-24.447,-24.438,-24.442,-24.438,-24.426,-24.419,-24.411,-24.408,-24.401,-24.4,-24.392,-24.383,-24.382,-24.374,-24.364,-24.351,-24.343,-24.333,-24.322,-24.321,-24.309,-24.297,-24.281,-24.267,-24.252,-24.234,-24.212,-24.2,-24.188,-24.171,-24.15,-24.129,-24.12,-24.116,-24.104,-24.087,-24.084,-24.084,-24.101,-24.111,-24.13,-24.152,-24.182,-24.218,-24.259,-24.287,-24.308,-24.332,-24.361,-24.389,-24.398,-24.412,-24.422,-24.429,-24.438,-24.438,-24.441,-24.446,-24.446,-24.454,-24.457,-24.447,-24.443,-24.447,-24.447,-24.455,-24.444,-24.453,-24.454,-24.452,-24.451,-24.444,-24.434,-24.441,-24.445,-24.442,-24.439,-24.432,-24.438,-24.437,-24.439,-24.44,-24.431,-24.429,-24.433,-24.438,-24.431,-24.43,-24.432,-24.434,-24.44,-24.439,-24.434,-24.438,-24.441,-24.447,-24.447,-24.443,-24.439,-24.437,-24.445,-24.453,-24.448,-24.444,-24.446,-24.456,-24.465,-24.455,-24.452,-24.454,-24.459,-24.466,-24.455,-24.457,-24.457,-24.465,-24.466,-24.46,-24.463,-24.46,-24.461,-24.468,-24.466,-24.467,-24.462,-24.461,-24.464,-24.466,-24.461,-24.459,-24.453,-24.431,-24.421,-24.393,-24.393,-24.404,-24.407,-24.404,-24.381,-24.372,-24.376,-24.385,-24.384,-24.383,-24.379,-24.396,-24.431,-24.447,-24.452,-24.471,-24.479,-24.476,-24.487,-24.483,-24.481,-24.479,-24.485,-24.485,-24.482,-24.477,-24.478,-24.492,-24.507,-24.5,-24.46,-24.404,-24.299,-24.123,-23.913,-23.764,-23.836,-24.287,-24.714,-24.904,-24.911,-24.909,-24.906,-24.866,-24.807,-24.664,-24.555,-24.486,-24.466,-24.447,-24.439,-24.427,-24.428,-24.424,-24.42,-24.416,-24.402,-24.39,-24.4,-24.394,-24.379,-24.369,-24.37,-24.371,-24.369,-24.356,-24.347,-24.329,-24.331,-24.329,-24.322,-24.299,-24.297,-24.287,-24.281,-24.265,-24.252,-24.237,-24.228,-24.221,-24.21,-24.19,-24.169,-24.156,-24.146,-24.133,-24.108,-24.097,-24.088,-24.088,-24.082,-24.082,-24.082,-24.101,-24.127,-24.152,-24.172,-24.2,-24.226,-24.265,-24.28,-24.305,-24.319,-24.342,-24.364,-24.378,-24.395,-24.397,-24.408,-24.416,-24.43,-24.434,-24.427,-24.429,-24.429,-24.443,-24.44,-24.432,-24.437,-24.434,-24.442,-24.446,-24.444,-24.438,-24.438,-24.447,-24.442,-24.436,-24.432,-24.435,-24.449,-24.451,-24.438,-24.436,-24.439,-24.441,-24.444,-24.437,-24.431,-24.437,-24.445,-24.447,-24.45,-24.439,-24.436,-24.441,-24.451,-24.451,-24.438,-24.451,-24.457,-24.463,-24.459,-24.457,-24.458,-24.464,-24.467,-24.469,-24.46,-24.461,-24.472,-24.467,-24.472,-24.467,-24.462,-24.472,-24.485,-24.48,-24.476,-24.469,-24.478,-24.481,-24.48,-24.475,-24.477,-24.48,-24.487,-24.49,-24.481,-24.474,-24.466,-24.456,-24.448,-24.429,-24.435,-24.436,-24.428,-24.429,-24.417,-24.42,-24.43,-24.422,-24.432,-24.431,-24.426,-24.458,-24.479,-24.501,-24.511,-24.516,-24.51,-24.522,-24.53,-24.534,-24.537,-24.531,-24.533,-24.541,-24.54,-24.542,-24.544,-24.556,-24.552,-24.532,-24.482,-24.399,-24.258,-24.164,-23.989,-23.894,-24.144,-24.597,-24.887,-24.923,-24.895,-24.9,-24.887,-24.851,-24.804,-24.716,-24.606,-24.535,-24.516,-24.498,-24.499,-24.476,-24.493,-24.492,-24.485,-24.478,-24.469,-24.468,-24.469,-24.473,-24.449,-24.443,-24.429,-24.428,-24.436,-24.42,-24.414,-24.412,-24.413,-24.396,-24.392,-24.376,-24.377,-24.363,-24.361,-24.35,-24.331,-24.307,-24.3,-24.286,-24.281,-24.261,-24.252,-24.238,-24.226,-24.228,-24.206,-24.194,-24.196,-24.196,-24.196,-24.202,-24.196,-24.212,-24.235,-24.258,-24.3,-24.312,-24.342,-24.368,-24.398,-24.419,-24.428,-24.435,-24.461,-24.48,-24.487,-24.496,-24.508,-24.514,-24.515,-24.519,-24.519,-24.518,-24.514,-24.523,-24.528,-24.53,-24.521,-24.525,-24.528,-24.534,-24.531,-24.522,-24.521,-24.532,-24.527,-24.525,-24.523,-24.53,-24.53,-24.532,-24.527,-24.522,-24.521,-24.527,-24.53,-24.524,-24.52,-24.52,-24.521,-24.531,-24.527,-24.529,-24.523,-24.523,-24.536,-24.539,-24.529,-24.53,-24.531,-24.535,-24.547,-24.542,-24.538,-24.547,-24.544,-24.552,-24.555,-24.544,-24.543,-24.555,-24.561,-24.557,-24.551,-24.548,-24.55,-24.556,-24.539,-24.514,-24.515,-24.508,-24.501,-24.498,-24.496,-24.491,-24.484,-24.478,-24.492,-24.486,-24.484,-24.487,-24.501,-24.514,-24.525,-24.535,-24.557,-24.583,-24.577,-24.57,-24.572,-24.578,-24.583,-24.586,-24.585,-24.576,-24.584,-24.595,-24.595,-24.601,-24.613,-24.601,-24.579,-24.547,-24.445,-24.295,-24.111,-23.975,-24.06,-24.283,-24.703,-24.934,-24.932,-24.93,-24.936,-24.926,-24.88,-24.838,-24.745,-24.649,-24.568,-24.548,-24.543,-24.547,-24.533,-24.532,-24.52,-24.521,-24.515,-24.517,-24.502,-24.49,-24.485,-24.481,-24.483,-24.473,-24.456,-24.458,-24.454,-24.451,-24.433,-24.42,-24.411,-24.407,-24.399,-24.385,-24.362,-24.352,-24.347,-24.337,-24.324,-24.307,-24.287,-24.281,-24.262,-24.247,-24.23,-24.221,-24.211,-24.205,-24.193,-24.185,-24.184,-24.183,-24.201,-24.217,-24.23,-24.25,-24.266,-24.297,-24.334,-24.353,-24.376,-24.401,-24.426,-24.444,-24.452,-24.466,-24.477,-24.483,-24.497,-24.497,-24.498,-24.506,-24.507,-24.51,-24.518,-24.507,-24.508,-24.511,-24.513,-24.517,-24.513,-24.503,-24.509,-24.514,-24.513,-24.509,-24.502,-24.503,-24.511,-24.501,-24.496,-24.49,-24.494,-24.5,-24.497,-24.489,-24.481,-24.483,-24.489,-24.494,-24.488,-24.481,-24.487,-24.484,-24.489,-24.477,-24.477,-24.481,-24.487,-24.494,-24.491,-24.487,-24.49,-24.489,-24.494,-24.492,-24.496,-24.493,-24.498,-24.496,-24.499,-24.489,-24.492,-24.493,-24.505,-24.502,-24.498,-24.494,-24.498,-24.506,-24.494,-24.47,-24.457,-24.456,-24.451,-24.434,-24.425,-24.441,-24.432,-24.414,-24.417,-24.424,-24.424,-24.429,-24.436,-24.432,-24.444,-24.466,-24.473,-24.494,-24.516,-24.516,-24.519,-24.52,-24.524,-24.532,-24.534,-24.528,-24.519,-24.533,-24.535,-24.535,-24.538,-24.551,-24.548,-24.524,-24.482,-24.397,-24.25,-24.044,-23.878,-23.879,-24.259,-24.493,-24.793,-24.948,-24.914,-24.931,-24.893,-24.868,-24.77,-24.668,-24.555,-24.519,-24.485,-24.498,-24.478,-24.478,-24.462,-24.469,-24.456,-24.458,-24.448,-24.446,-24.43,-24.432,-24.423,-24.423,-24.406,-24.408,-24.388,-24.396,-24.381,-24.375,-24.362,-24.352,-24.346,-24.338,-24.313,-24.312,-24.304,-24.291,-24.282,-24.27,-24.242,-24.226,-24.214,-24.199,-24.18,-24.164,-24.149,-24.15,-24.141,-24.128,-24.115,-24.11,-24.115,-24.117,-24.129,-24.146,-24.18,-24.198,-24.232,-24.261,-24.285,-24.312,-24.342,-24.372,-24.385,-24.393,-24.407,-24.42,-24.443,-24.446,-24.45,-24.449,-24.459,-24.468,-24.466,-24.46,-24.461,-24.467,-24.474,-24.474,-24.471,-24.462,-24.468,-24.472,-24.473,-24.463,-24.461,-24.455,-24.464,-24.462,-24.457,-24.444,-24.448,-24.453,-24.449,-24.443,-24.435,-24.43,-24.441,-24.437,-24.444,-24.433,-24.431,-24.436,-24.445,-24.44,-24.435,-24.44,-24.446,-24.445,-24.449,-24.437,-24.438,-24.441,-24.449,-24.443,-24.44,-24.442,-24.443,-24.442,-24.454,-24.446,-24.447,-24.452,-24.452,-24.46,-24.444,-24.448,-24.453,-24.459,-24.459,-24.454,-24.453,-24.448,-24.458,-24.458,-24.458,-24.455,-24.44,-24.422,-24.416,-24.396,-24.392,-24.403,-24.401,-24.388,-24.373,-24.379,-24.385,-24.392,-24.393,-24.392,-24.392,-24.418,-24.433,-24.436,-24.448,-24.481,-24.483,-24.478,-24.487,-24.486,-24.487,-24.48,-24.48,-24.482,-24.489,-24.482,-24.485,-24.5,-24.508,-24.479,-24.435,-24.357,-24.219,-24.119,-23.906,-23.753,-23.834,-24.273,-24.708,-24.893,-24.906,-24.9,-24.886,-24.83,-24.741,-24.585,-24.509,-24.453,-24.447,-24.434,-24.434,-24.414,-24.424,-24.412,-24.417,-24.405,-24.405,-24.392,-24.391,-24.386,-24.384,-24.371,-24.364,-24.355,-24.356,-24.35,-24.334,-24.324,-24.323,-24.316,-24.308,-24.294,-24.289,-24.278,-24.268,-24.255,-24.238,-24.219,-24.205,-24.189,-24.172,-24.155,-24.134,-24.118,-24.109,-24.098,-24.074,-24.064,-24.054,-24.049,-24.047,-24.053,-24.061,-24.077,-24.095,-24.13,-24.158,-24.191,-24.219,-24.249,-24.28,-24.307,-24.325,-24.343,-24.361,-24.378,-24.385,-24.39,-24.394,-24.407,-24.412,-24.415,-24.412,-24.403,-24.401,-24.411,-24.421,-24.422,-24.408,-24.414,-24.412,-24.421,-24.411,-24.409,-24.409,-24.412,-24.409,-24.41,-24.403,-24.405,-24.404,-24.406,-24.396,-24.394,-24.388,-24.395,-24.401,-24.398,-24.395,-24.389,-24.397,-24.399,-24.399,-24.4,-24.392,-24.397,-24.403,-24.405,-24.394,-24.398,-24.399,-24.403,-24.403,-24.41,-24.402,-24.405,-24.4,-24.408,-24.407,-24.399,-24.399,-24.407,-24.412,-24.413,-24.405,-24.405,-24.412,-24.418,-24.412,-24.408,-24.41,-24.413,-24.419,-24.418,-24.414,-24.41,-24.414,-24.415,-24.416,-24.415,-24.413,-24.412,-24.414,-24.418,-24.409,-24.406,-24.39,-24.373,-24.369,-24.36,-24.354,-24.352,-24.365,-24.357,-24.341,-24.32,-24.331,-24.339,-24.339,-24.342,-24.337,-24.355,-24.38,-24.393,-24.411,-24.425,-24.428,-24.428,-24.439,-24.44,-24.436,-24.434,-24.441,-24.445,-24.445,-24.441,-24.44,-24.451,-24.469,-24.458,-24.423,-24.365,-24.263,-24.088,-23.884,-23.729,-23.803,-24.259,-24.51,-24.776,-24.882,-24.851,-24.874,-24.822,-24.774,-24.626,-24.521,-24.433,-24.421,-24.399,-24.4,-24.386,-24.398,-24.384,-24.394,-24.37,-24.373,-24.354,-24.366,-24.358,-24.358,-24.351,-24.348,-24.34,-24.337,-24.329,-24.328,-24.31,-24.312,-24.298,-24.295,-24.283,-24.272,-24.265,-24.264,-24.244,-24.228,-24.215,-24.2,-24.188,-24.185,-24.163,-24.147,-24.131,-24.117,-24.109,-24.093,-24.082,-24.071,-24.067,-24.061,-24.06,-24.064,-24.078,-24.096,-24.125,-24.143,-24.164,-24.18,-24.226,-24.253,-24.274,-24.296,-24.312,-24.328,-24.356,-24.372,-24.369,-24.379,-24.395,-24.388,-24.407,-24.399,-24.404,-24.414,-24.413,-24.413,-24.412,-24.408,-24.421,-24.422,-24.422,-24.417,-24.405,-24.409,-24.421,-24.424,-24.417,-24.403,-24.418,-24.409,-24.414,-24.41,-24.409,-24.407,-24.415,-24.415,-24.42,-24.41,-24.406,-24.413,-24.415,-24.414,-24.413,-24.415,-24.421,-24.427,-24.423,-24.423,-24.423,-24.428,-24.44,-24.429,-24.431,-24.439,-24.44,-24.441,-24.45,-24.445,-24.439,-24.439,-24.446,-24.452,-24.447,-24.449,-24.445,-24.469,-24.458,-24.456,-24.463,-24.457,-24.465,-24.464,-24.47,-24.46,-24.46,-24.468,-24.476,-24.468,-24.462,-24.466,-24.468,-24.484,-24.481,-24.455,-24.436,-24.426,-24.425,-24.431,-24.431,-24.421,-24.412,-24.415,-24.417,-24.423,-24.418,-24.422,-24.428,-24.444,-24.463,-24.468,-24.485,-24.511,-24.519,-24.514,-24.518,-24.519,-24.529,-24.527,-24.532,-24.524,-24.528,-24.53,-24.541,-24.535,-24.559,-24.546,-24.526,-24.506,-24.421,-24.279,-24.101,-23.94,-23.957,-24.365,-24.758,-24.921,-24.908,-24.902,-24.918,-24.879,-24.852,-24.771,-24.733,-24.637,-24.566,-24.537,-24.522,-24.519,-24.513,-24.509,-24.503,-24.49,-24.501,-24.489,-24.49,-24.484,-24.486,-24.486,-24.476,-24.473,-24.458,-24.457,-24.454,-24.45,-24.444,-24.431,-24.42,-24.415,-24.406,-24.396,-24.386,-24.384,-24.373,-24.365,-24.343,-24.324,-24.303,-24.299,-24.285,-24.27,-24.252,-24.252,-24.24,-24.251,-24.245,-24.236,-24.231,-24.222,-24.233,-24.247,-24.257,-24.271,-24.297,-24.328,-24.353,-24.383,-24.401,-24.43,-24.455,-24.471,-24.479,-24.489,-24.497,-24.514,-24.527,-24.537,-24.533,-24.541,-24.55,-24.559,-24.553,-24.554,-24.553,-24.559,-24.56,-24.57,-24.565,-24.562,-24.567,-24.569,-24.566,-24.56,-24.557,-24.559,-24.564,-24.564,-24.558,-24.554,-24.557,-24.56,-24.554,-24.552,-24.555,-24.554,-24.55,-24.553,-24.554,-24.553,-24.557,-24.557,-24.557,-24.556,-24.557,-24.559,-24.559,-24.569,-24.561,-24.557,-24.566,-24.566,-24.572,-24.566,-24.568,-24.571,-24.577,-24.579,-24.573,-24.576,-24.569,-24.584,-24.586,-24.586,-24.58,-24.582,-24.585,-24.584,-24.584,-24.584,-24.577,-24.562,-24.554,-24.546,-24.518,-24.511,-24.532,-24.532,-24.526,-24.5,-24.504,-24.509,-24.521,-24.513,-24.513,-24.511,-24.515,-24.546,-24.561,-24.575,-24.592,-24.591,-24.602,-24.606,-24.608,-24.604,-24.603,-24.611,-24.61,-24.603,-24.609,-24.609,-24.619,-24.636,-24.627,-24.594,-24.557,-24.469,-24.326,-24.149,-23.988,-24.04,-24.474,-24.848,-24.969,-24.936,-24.944,-24.963,-24.932,-24.898,-24.853,-24.773,-24.664,-24.613,-24.585,-24.571,-24.557,-24.564,-24.556,-24.556,-24.547,-24.543,-24.528,-24.534,-24.531,-24.523,-24.511,-24.503,-24.488,-24.496,-24.488,-24.482,-24.47,-24.463,-24.461,-24.446,-24.432,-24.423,-24.417,-24.414,-24.397,-24.378,-24.365,-24.356,-24.348,-24.333,-24.313,-24.293,-24.286,-24.284,-24.274,-24.262,-24.251,-24.238,-24.235,-24.237,-24.238,-24.243,-24.255,-24.278,-24.307,-24.329,-24.357,-24.39,-24.42,-24.444,-24.459,-24.475,-24.493,-24.507,-24.524,-24.539,-24.54,-24.548,-24.553,-24.566,-24.568,-24.56,-24.559,-24.56,-24.569,-24.577,-24.567,-24.564,-24.57,-24.579,-24.578,-24.571,-24.567,-24.569,-24.566,-24.566,-24.564,-24.562,-24.566,-24.567,-24.574,-24.565,-24.558,-24.556,-24.555,-24.559,-24.562,-24.553,-24.552,-24.554,-24.564,-24.55,-24.552,-24.549,-24.556,-24.548,-24.558,-24.555,-24.568,-24.557,-24.567,-24.569,-24.554,-24.558,-24.564,-24.571,-24.577,-24.566,-24.567,-24.563,-24.571,-24.565,-24.566,-24.557,-24.566,-24.578,-24.576,-24.573,-24.569,-24.566,-24.571,-24.575,-24.57,-24.569,-24.567,-24.578,-24.582,-24.578,-24.566,-24.541,-24.53,-24.525,-24.511,-24.523,-24.53,-24.52,-24.51,-24.496,-24.497,-24.513,-24.516,-24.512,-24.511,-24.516,-24.535,-24.549,-24.568,-24.593,-24.592,-24.594,-24.595,-24.599,-24.6,-24.603,-24.6,-24.603,-24.603,-24.604,-24.606,-24.618,-24.626,-24.624,-24.592,-24.541,-24.436,-24.281,-24.079,-23.934,-23.995,-24.425,-24.66,-24.912,-25.005,-24.978,-24.994,-24.96,-24.933,-24.823,-24.715,-24.612,-24.585,-24.556,-24.564,-24.548,-24.547,-24.533,-24.541,-24.531,-24.532,-24.516,-24.515,-24.504,-24.509,-24.499,-24.493,-24.478,-24.48,-24.474,-24.47,-24.453,-24.452,-24.443,-24.436,-24.422,-24.414,-24.401,-24.396,-24.382,-24.372,-24.361,-24.346,-24.325,-24.32,-24.303,-24.286,-24.27,-24.253,-24.24,-24.229,-24.225,-24.209,-24.2,-24.201,-24.206,-24.211,-24.221,-24.232,-24.269,-24.298,-24.31,-24.339,-24.36,-24.388,-24.426,-24.444,-24.462,-24.473,-24.486,-24.51,-24.521,-24.515,-24.528,-24.525,-24.539,-24.54,-24.543,-24.534,-24.536,-24.54,-24.551,-24.55,-24.544,-24.544,-24.543,-24.547,-24.546,-24.535,-24.537,-24.541,-24.543,-24.531,-24.525,-24.525,-24.531,-24.53,-24.537,-24.525,-24.52,-24.516,-24.526,-24.526,-24.523,-24.514,-24.519,-24.52,-24.525,-24.512,-24.517,-24.514,-24.519,-24.527,-24.527,-24.521,-24.521,-24.535,-24.534,-24.53,-24.527,-24.53,-24.535,-24.537,-24.535,-24.526,-24.528,-24.529,-24.534,-24.532,-24.53,-24.535,-24.536,-24.537,-24.536,-24.53,-24.522,-24.532,-24.535,-24.537,-24.533,-24.533,-24.529,-24.541,-24.539,-24.533,-24.532,-24.543,-24.542,-24.54,-24.532,-24.52,-24.506,-24.499,-24.486,-24.475,-24.486,-24.488,-24.478,-24.47,-24.464,-24.466,-24.471,-24.468,-24.48,-24.479,-24.488,-24.51,-24.526,-24.539,-24.559,-24.565,-24.561,-24.567,-24.567,-24.574,-24.573,-24.569,-24.572,-24.582,-24.58,-24.582,-24.586,-24.594,-24.587,-24.559,-24.503,-24.399,-24.232,-24.011,-23.87,-23.931,-24.356,-24.787,-24.973,-24.98,-24.978,-24.966,-24.919,-24.927,-24.841,-24.716,-24.576,-24.546,-24.525,-24.527,-24.517,-24.514,-24.505,-24.51,-24.504,-24.498,-24.48,-24.473,-24.474,-24.474,-24.464,-24.455,-24.445,-24.45,-24.443,-24.442,-24.423,-24.413,-24.411,-24.399,-24.397,-24.379,-24.365,-24.354,-24.346,-24.331,-24.315,-24.292,-24.281,-24.268,-24.251,-24.244,-24.229,-24.21,-24.198,-24.192,-24.183,-24.169,-24.163,-24.155,-24.167,-24.165,-24.175,-24.189,-24.214,-24.243,-24.278,-24.305,-24.328,-24.358,-24.388,-24.399,-24.421,-24.438,-24.45,-24.47,-24.48,-24.482,-24.485,-24.489,-24.495,-24.501,-24.503,-24.499,-24.5,-24.506,-24.507,-24.499,-24.5,-24.501,-24.502,-24.508,-24.502,-24.496,-24.49,-24.492,-24.502,-24.501,-24.488,-24.492,-24.492,-24.49,-24.485,-24.48,-24.482,-24.482,-24.481,-24.478,-24.476,-24.477,-24.479,-24.48,-24.488,-24.479,-24.479,-24.482,-24.49,-24.49,-24.483,-24.487,-24.492,-24.495,-24.495,-24.481,-24.486,-24.486,-24.487,-24.492,-24.484,-24.479,-24.484,-24.485,-24.495,-24.492,-24.487,-24.482,-24.49,-24.499,-24.498,-24.49,-24.485,-24.489,-24.49,-24.489,-24.489,-24.486,-24.491,-24.496,-24.486,-24.487,-24.485,-24.492,-24.495,-24.495,-24.488,-24.487,-24.478,-24.463,-24.452,-24.431,-24.421,-24.428,-24.445,-24.43,-24.413,-24.399,-24.409,-24.424,-24.415,-24.415,-24.41,-24.418,-24.446,-24.464,-24.467,-24.486,-24.506,-24.508,-24.511,-24.512,-24.502,-24.512,-24.517,-24.522,-24.516,-24.517,-24.52,-24.53,-24.543,-24.541,-24.511,-24.467,-24.394,-24.254,-24.048,-23.851,-23.795,-24.089,-24.575,-24.864,-24.938,-24.933,-24.928,-24.893,-24.828,-24.693,-24.571,-24.513,-24.495,-24.486,-24.48,-24.467,-24.462,-24.466,-24.46,-24.449,-24.436,-24.431,-24.433,-24.433,-24.423,-24.412,-24.407,-24.405,-24.401,-24.389,-24.379,-24.378,-24.372,-24.371,-24.363,-24.359,-24.334,-24.326,-24.32,-24.308,-24.291,-24.28,-24.271,-24.259,-24.238,-24.227,-24.2,-24.191,-24.169,-24.157,-24.139,-24.136,-24.124,-24.125,-24.121,-24.11,-24.109,-24.119,-24.147,-24.167,-24.188,-24.208,-24.236,-24.269,-24.307,-24.335,-24.35,-24.363,-24.395,-24.409,-24.421,-24.422,-24.433,-24.444,-24.463,-24.459,-24.463,-24.459,-24.462,-24.464,-24.474,-24.468,-24.466,-24.468,-24.466,-24.466,-24.464,-24.46,-24.471,-24.476,-24.47,-24.467,-24.457,-24.458,-24.467,-24.464,-24.456,-24.449,-24.45,-24.465,-24.466,-24.455,-24.452,-24.452,-24.456,-24.458,-24.451,-24.453,-24.446,-24.449,-24.451,-24.452,-24.447,-24.451,-24.457,-24.47,-24.466,-24.467,-24.462,-24.464,-24.469,-24.468,-24.465,-24.468,-24.476,-24.48,-24.473,-24.472,-24.478,-24.475,-24.484,-24.486,-24.478,-24.475,-24.478,-24.478,-24.492,-24.482,-24.478,-24.478,-24.488,-24.491,-24.484,-24.483,-24.483,-24.473,-24.467,-24.452,-24.437,-24.427,-24.437,-24.45,-24.432,-24.42,-24.415,-24.424,-24.441,-24.431,-24.434,-24.431,-24.445,-24.471,-24.477,-24.492,-24.511,-24.523,-24.527,-24.53,-24.528,-24.522,-24.525,-24.526,-24.531,-24.532,-24.531,-24.535,-24.549,-24.57,-24.553,-24.528,-24.477,-24.381,-24.231,-24.032,-23.874,-23.964,-24.423,-24.661,-24.896,-24.95,-24.917,-24.938,-24.907,-24.882,-24.772,-24.684,-24.578,-24.555,-24.516,-24.52,-24.489,-24.505,-24.49,-24.506,-24.483,-24.486,-24.473,-24.487,-24.47,-24.473,-24.453,-24.448,-24.452,-24.452,-24.433,-24.428,-24.421,-24.422,-24.414,-24.402,-24.378,-24.381,-24.372,-24.363,-24.35,-24.328,-24.324,-24.319,-24.304,-24.293,-24.27,-24.251,-24.253,-24.241,-24.223,-24.209,-24.2,-24.197,-24.194,-24.181,-24.186,-24.191,-24.213,-24.237,-24.252,-24.277,-24.295,-24.319,-24.35,-24.374,-24.399,-24.409,-24.435,-24.463,-24.485,-24.485,-24.494,-24.498,-24.515,-24.518,-24.523,-24.526,-24.526,-24.531,-24.546,-24.531,-24.53,-24.524,-24.534,-24.541,-24.545,-24.538,-24.532,-24.535,-24.543,-24.536,-24.534,-24.52,-24.529,-24.527,-24.532,-24.517,-24.521,-24.519,-24.52,-24.52,-24.517,-24.519,-24.525,-24.526,-24.529,-24.516,-24.516,-24.516,-24.529,-24.531,-24.532,-24.523,-24.528,-24.534,-24.543,-24.534,-24.539,-24.536,-24.55,-24.55,-24.548,-24.543,-24.536,-24.545,-24.551,-24.546,-24.544,-24.548,-24.552,-24.556,-24.553,-24.531,-24.514,-24.513,-24.509,-24.5,-24.51,-24.495,-24.494,-24.489,-24.488,-24.496,-24.489,-24.488,-24.493,-24.504,-24.522,-24.53,-24.555,-24.574,-24.592,-24.587,-24.582,-24.59,-24.594,-24.602,-24.597,-24.6,-24.59,-24.6,-24.597,-24.611,-24.613,-24.631,-24.621,-24.587,-24.537,-24.416,-24.271,-24.108,-24.001,-24.181,-24.624,-24.918,-24.963,-24.958,-24.947,-24.957,-24.935,-24.902,-24.845,-24.752,-24.646,-24.597,-24.572,-24.573,-24.567,-24.567,-24.551,-24.551,-24.542,-24.539,-24.535,-24.523,-24.514,-24.524,-24.516,-24.517,-24.502,-24.496,-24.488,-24.491,-24.475,-24.468,-24.452,-24.452,-24.445,-24.434,-24.423,-24.416,-24.395,-24.387,-24.368,-24.353,-24.338,-24.33,-24.325,-24.317,-24.29,-24.271,-24.272,-24.266,-24.254,-24.243,-24.236,-24.23,-24.244,-24.259,-24.266,-24.284,-24.316,-24.333,-24.362,-24.379,-24.404,-24.425,-24.441,-24.457,-24.475,-24.487,-24.492,-24.51,-24.524,-24.521,-24.536,-24.536,-24.536,-24.544,-24.55,-24.541,-24.548,-24.549,-24.559,-24.552,-24.542,-24.541,-24.552,-24.554,-24.552,-24.549,-24.547,-24.549,-24.549,-24.547,-24.547,-24.542,-24.541,-24.553,-24.551,-24.539,-24.528,-24.532,-24.536,-24.549,-24.529,-24.525,-24.533,-24.531,-24.534,-24.53,-24.533,-24.528,-24.535,-24.537,-24.534,-24.533,-24.533,-24.535,-24.541,-24.541,-24.542,-24.543,-24.544,-24.543,-24.544,-24.518,-24.501,-24.502,-24.487,-24.482,-24.481,-24.466,-24.458,-24.461,-24.468,-24.472,-24.476,-24.48,-24.486,-24.501,-24.51,-24.533,-24.543,-24.563,-24.568,-24.57,-24.571,-24.58,-24.579,-24.577,-24.585,-24.58,-24.579,-24.583,-24.588,-24.583,-24.589,-24.607,-24.611,-24.581,-24.545,-24.462,-24.326,-24.139,-24.043,-23.952,-24.142,-24.595,-24.892,-24.972,-24.942,-24.947,-24.941,-24.905,-24.845,-24.741,-24.637,-24.574,-24.543,-24.533,-24.529,-24.525,-24.515,-24.517,-24.514,-24.507,-24.505,-24.491,-24.479,-24.487,-24.48,-24.471,-24.464,-24.456,-24.45,-24.445,-24.434,-24.421,-24.419,-24.412,-24.402,-24.385,-24.371,-24.368,-24.363,-24.358,-24.338,-24.313,-24.289,-24.283,-24.276,-24.262,-24.237,-24.222,-24.219,-24.209,-24.198,-24.183,-24.175,-24.176,-24.185,-24.192,-24.192,-24.207,-24.23,-24.261,-24.294,-24.318,-24.347,-24.374,-24.39,-24.416,-24.426,-24.438,-24.461,-24.466,-24.485,-24.487,-24.49,-24.496,-24.498,-24.496,-24.501,-24.497,-24.498,-24.497,-24.509,-24.507,-24.497,-24.496,-24.506,-24.504,-24.502,-24.492,-24.495,-24.498,-24.493,-24.499,-24.49,-24.489,-24.483,-24.482,-24.486,-24.477,-24.476,-24.483,-24.481,-24.476,-24.473,-24.47,-24.466,-24.475,-24.465,-24.467,-24.466,-24.47,-24.476,-24.477,-24.466,-24.468,-24.465,-24.472,-24.475,-24.48,-24.468,-24.473,-24.473,-24.477,-24.469,-24.462,-24.446,-24.444,-24.443,-24.426,-24.403,-24.405,-24.403,-24.391,-24.385,-24.381,-24.39,-24.393,-24.408,-24.404,-24.404,-24.406,-24.433,-24.452,-24.469,-24.481,-24.486,-24.493,-24.496,-24.503,-24.499,-24.495,-24.498,-24.505,-24.506,-24.5,-24.495,-24.501,-24.506,-24.523,-24.52,-24.486,-24.451,-24.373,-24.226,-24.018,-23.837,-23.84,-24.237,-24.658,-24.855,-24.87,-24.867,-24.868,-24.834,-24.821,-24.74,-24.627,-24.517,-24.481,-24.457,-24.443,-24.43,-24.433,-24.424,-24.422,-24.414,-24.406,-24.399,-24.4,-24.393,-24.384,-24.371,-24.369,-24.367,-24.365,-24.353,-24.345,-24.339,-24.329,-24.324,-24.314,-24.299,-24.283,-24.279
