-5.9107,-5.9122,-5.911,-5.908,-5.9026,-5.9006,-5.8979,-5.8979,-5.8933,-5.8889,-5.8885,-5.8822,-5.8825,-5.8805,-5.8746,-5.8749,-5.8727,-5.8704,-5.8682,-5.8647,-5.8615,-5.8604,-5.8615,-5.8623,-5.8567,-5.855,-5.8526,-5.853,-5.8523,-5.8508,-5.8494,-5.8518,-5.8604,-5.8695,-5.8768,-5.88,-5.8837,-5.8824,-5.8846,-5.8836,-5.8838,-5.8638,-5.8533,-5.8489,-5.8525,-5.8552,-5.8585,-5.8715,-5.8754,-5.8648,-5.8423,-5.8356,-5.8269,-5.8243,-5.8157,-5.8176,-5.8128,-5.8127,-5.8115,-5.8076,-5.8062,-5.8305,-5.9596,-6.2343,-6.4795,-6.7836,-7.0961,-7.1766,-6.7624,-5.5542,-4.2354,-3.5902,-3.4913,-3.6602,-3.8411,-4.2826,-4.7531,-5.1657,-5.4766,-5.6685,-5.7902,-5.8209,-5.8579,-5.868,-5.8917,-5.8953,-5.9137,-5.9136,-5.9329,-5.9333,-5.9484,-5.9487,-5.9645,-5.9635,-5.9806,-5.9828,-5.996,-5.9998,-6.013,-6.017,-6.0303,-6.0342,-6.0453,-6.0513,-6.0662,-6.0715,-6.0808,-6.0847,-6.0984,-6.1048,-6.1125,-6.1164,-6.1187,-6.1196,-6.1265,-6.1295,-6.1271,-6.1252,-6.1229,-6.1202,-6.1171,-6.1138,-6.1092,-6.1068,-6.1117,-6.1151,-6.1164,-6.1197,-6.1185,-6.1153,-6.1069,-6.103,-6.0839,-6.0576,-6.0288,-6.0037,-5.9771,-5.9518,-5.9287,-5.9101,-5.8944,-5.8823,-5.8663,-5.8554,-5.8488,-5.8417,-5.8372,-5.8321,-5.8292,-5.8259,-5.8247,-5.8252,-5.8198,-5.8218,-5.8204,-5.8229,-5.8245,-5.8276,-5.8264,-5.8263,-5.8254,-5.8289,-5.8242,-5.8223,-5.8217,-5.8247,-5.8251,-5.8238,-5.8185,-5.8204,-5.8187,-5.8206,-5.8189,-5.8149,-5.8097,-5.8095,-5.8067,-5.8069,-5.7989,-5.795,-5.7928,-5.7906,-5.7886,-5.7862,-5.7817,-5.7803,-5.7778,-5.7775,-5.7764,-5.7777,-5.7697,-5.7688,-5.7665,-5.7668,-5.7628,-5.7633,-5.7605,-5.7619,-5.7591,-5.7577,-5.755,-5.7543,-5.7594,-5.7676,-5.7748,-5.7848,-5.7898,-5.7938,-5.7913,-5.7902,-5.79,-5.7936,-5.7761,-5.7638,-5.7555,-5.7639,-5.7674,-5.7702,-5.7842,-5.7799,-5.7678,-5.7479,-5.7452,-5.7387,-5.7298,-5.7252,-5.7242,-5.7234,-5.7239,-5.7185,-5.717,-5.7149,-5.7408,-5.8749,-6.145,-6.3865,-6.6907,-7.0106,-7.0968,-6.7066,-5.5117,-4.2164,-3.5629,-3.4411,-3.5839,-3.9757,-4.2102,-4.6549,-5.1023,-5.3785,-5.5939,-5.6844,-5.7443,-5.752,-5.7905,-5.7865,-5.8147,-5.8121,-5.8394,-5.8332,-5.8531,-5.8504,-5.8708,-5.8683,-5.8889,-5.8862,-5.899,-5.8953,-5.9151,-5.9155,-5.9332,-5.932,-5.9483,-5.9488,-5.9669,-5.9674,-5.9791,-5.9843,-5.9977,-6.003,-6.0136,-6.0167,-6.0242,-6.0262,-6.0336,-6.0307,-6.0318,-6.0249,-6.0284,-6.0255,-6.024,-6.0195,-6.0167,-6.0159,-6.0143,-6.0166,-6.0161,-6.0219,-6.0266,-6.0311,-6.0298,-6.019,-6.0042,-5.9868,-5.9746,-5.9576,-5.928,-5.9034,-5.876,-5.8582,-5.8358,-5.8198,-5.8024,-5.7943,-5.7782,-5.7758,-5.7677,-5.7637,-5.7542,-5.7546,-5.7527,-5.7527,-5.7504,-5.7525,-5.7512,-5.7573,-5.7539,-5.7542,-5.7503,-5.7577,-5.7571,-5.7605,-5.7571,-5.7602,-5.7555,-5.7613,-5.7546,-5.7537,-5.7504,-5.755,-5.7532,-5.7555,-5.7518,-5.7506,-5.7464,-5.7442,-5.7413,-5.7409,-5.7344,-5.7334,-5.7329,-5.7334,-5.7281,-5.7248,-5.7169,-5.7181,-5.7185,-5.7204,-5.7077,-5.7099,-5.7102,-5.7095,-5.7092,-5.707,-5.704,-5.7039,-5.7054,-5.7008,-5.6957,-5.6976,-5.6969,-5.6974,-5.6989,-5.705,-5.7078,-5.72,-5.73,-5.7322,-5.7291,-5.7284,-5.7298,-5.7331,-5.7334,-5.7101,-5.6968,-5.691,-5.7028,-5.7156,-5.7152,-5.7264,-5.7271,-5.7129,-5.697,-5.69,-5.6803,-5.6735,-5.6762,-5.6767,-5.67,-5.6685,-5.6659,-5.6642,-5.669,-5.7195,-5.8975,-6.1631,-6.3777,-6.7033,-6.9512,-6.924,-6.3787,-5.2122,-4.2729,-3.7293,-3.6246,-3.7342,-4.0694,-4.5237,-4.9423,-5.1209,-5.3559,-5.5515,-5.6428,-5.7081,-5.7063,-5.745,-5.7349,-5.7655,-5.7609,-5.7877,-5.7839,-5.8101,-5.8036,-5.8277,-5.8188,-5.834,-5.8305,-5.8521,-5.8481,-5.8673,-5.8661,-5.8846,-5.881,-5.8952,-5.8998,-5.9131,-5.9126,-5.924,-5.93,-5.9408,-5.9456,-5.9537,-5.9526,-5.9616,-5.959,-5.9595,-5.9584,-5.96,-5.9562,-5.9564,-5.9544,-5.9511,-5.9425,-5.9377,-5.9321,-5.9292,-5.9327,-5.9339,-5.9442,-5.9523,-5.9587,-5.9561,-5.9572,-5.9436,-5.9302,-5.9011,-5.891,-5.8684,-5.8434,-5.8204,-5.8132,-5.793,-5.7717,-5.7531,-5.7427,-5.7321,-5.7263,-5.7137,-5.7188,-5.7135,-5.7162,-5.7098,-5.7101,-5.7074,-5.7124,-5.7101,-5.7172,-5.7129,-5.7209,-5.7118,-5.7182,-5.7112,-5.7154,-5.7112,-5.7121,-5.7097,-5.7074,-5.7035,-5.7046,-5.7013,-5.705,-5.6994,-5.6993,-5.6926,-5.6929,-5.6903,-5.6916,-5.6819,-5.6872,-5.6829,-5.6824,-5.6763,-5.6751,-5.6676,-5.6692,-5.6691,-5.6676,-5.6627,-5.6617,-5.66,-5.6584,-5.6549,-5.6551,-5.6504,-5.6495,-5.6458,-5.649,-5.6478,-5.6455,-5.6438,-5.6506,-5.6601,-5.6677,-5.6697,-5.675,-5.6738,-5.6785,-5.6768,-5.6699,-5.6454,-5.6403,-5.6315,-5.6387,-5.6441,-5.6445,-5.6505,-5.6652,-5.6636,-5.6439,-5.6295,-5.6217,-5.6189,-5.6128,-5.6109,-5.6041,-5.6025,-5.6004,-5.6028,-5.6014,-5.6625,-5.86,-6.1277,-6.2303,-6.4826,-6.7976,-6.8306,-6.6047,-5.5735,-4.5191,-3.842,-3.668,-3.6379,-3.8489,-4.2952,-4.696,-5.0696,-5.2895,-5.4884,-5.5719,-5.6317,-5.6307,-5.6636,-5.6588,-5.6927,-5.6844,-5.7106,-5.7019,-5.7278,-5.723,-5.7458,-5.7339,-5.7574,-5.7518,-5.7768,-5.7684,-5.791,-5.786,-5.8044,-5.8038,-5.8192,-5.8109,-5.8275,-5.8268,-5.8463,-5.847,-5.858,-5.8598,-5.8729,-5.873,-5.8803,-5.8787,-5.8864,-5.8859,-5.8903,-5.8847,-5.8839,-5.8777,-5.8727,-5.869,-5.8671,-5.8632,-5.8628,-5.8579,-5.8618,-5.8673,-5.8691,-5.8705,-5.8671,-5.8614,-5.8467,-5.8253,-5.8002,-5.776,-5.7501,-5.725,-5.6947,-5.6782,-5.6589,-5.6513,-5.6406,-5.6298,-5.6141,-5.6087,-5.6002,-5.5987,-5.5906,-5.5902,-5.5865,-5.5881,-5.5866,-5.5914,-5.5838,-5.5894,-5.5855,-5.5911,-5.5869,-5.5886,-5.586,-5.5903,-5.5869,-5.5887,-5.5802,-5.586,-5.5789,-5.5817,-5.5757,-5.5756,-5.5709,-5.5744,-5.5674,-5.5693,-5.561,-5.5634,-5.5575,-5.5612,-5.5551,-5.5528,-5.5448,-5.549,-5.5422,-5.5444,-5.536,-5.5378,-5.5311,-5.5305,-5.5289,-5.5305,-5.522,-5.5236,-5.5206,-5.5213,-5.5175,-5.5185,-5.5138,-5.5148,-5.5108,-5.5112,-5.5124,-5.517,-5.5217,-5.5346,-5.5397,-5.5428,-5.5373,-5.541,-5.5457,-5.5395,-5.5118,-5.503,-5.4943,-5.5064,-5.5113,-5.5104,-5.5231,-5.5247,-5.5194,-5.5007,-5.4868,-5.4787,-5.4693,-5.4672,-5.4653,-5.4636,-5.4614,-5.4582,-5.4552,-5.4572,-5.5197,-5.7146,-5.9992,-6.2365,-6.6007,-6.808,-6.7771,-5.9384,-5.268,-4.0297,-3.267,-3.2055,-3.272,-3.7204,-4.0921,-4.6296,-4.9427,-5.2368,-5.3598,-5.4722,-5.4688,-5.5232,-5.5044,-5.5512,-5.5316,-5.5738,-5.5542,-5.5833,-5.5655,-5.598,-5.5854,-5.6143,-5.6015,-5.6257,-5.6181,-5.6437,-5.6369,-5.6583,-5.6541,-5.6747,-5.6724,-5.6916,-5.6902,-5.705,-5.7076,-5.7204,-5.7204,-5.7319,-5.7348,-5.7417,-5.7486,-5.7554,-5.7576,-5.7567,-5.7582,-5.7576,-5.758,-5.7491,-5.7491,-5.7425,-5.7468,-5.7397,-5.7428,-5.736,-5.7488,-5.743,-5.7552,-5.7487,-5.7526,-5.7344,-5.7248,-5.6997,-5.679,-5.6445,-5.6276,-5.5936,-5.5804,-5.5478,-5.539,-5.5146,-5.5098,-5.4891,-5.4901,-5.4745,-5.4797,-5.4653,-5.4707,-5.4549,-5.4605,-5.4488,-5.4572,-5.4505,-5.4598,-5.4461,-5.4565,-5.4462,-5.4594,-5.4509,-5.4585,-5.4497,-5.4552,-5.4519,-5.4607,-5.4511,-5.4568,-5.4481,-5.4571,-5.4498,-5.4538,-5.4429,-5.4465,-5.4358,-5.4412,-5.4315,-5.4357,-5.4229,-5.4302,-5.4233,-5.425,-5.4155,-5.417,-5.4093,-5.4157,-5.4082,-5.4105,-5.4004,-5.4021,-5.3976,-5.3984,-5.3935,-5.3937,-5.3894,-5.3925,-5.3924,-5.391,-5.3875,-5.3893,-5.3912,-5.4012,-5.4084,-5.4155,-5.4201,-5.4211,-5.4195,-5.4201,-5.4203,-5.4163,-5.3938,-5.3897,-5.3844,-5.3937,-5.4019,-5.4024,-5.4156,-5.4109,-5.3929,-5.3755,-5.3727,-5.3653,-5.359,-5.3532,-5.3548,-5.3493,-5.3519,-5.3475,-5.3485,-5.3438,-5.4098,-5.6152,-5.8951,-6.122,-6.4928,-6.7003,-6.6741,-5.8442,-4.5396,-3.5297,-3.1241,-3.1258,-3.3715,-3.6145,-4.0297,-4.5349,-4.8666,-5.1348,-5.2752,-5.3633,-5.375,-5.4159,-5.4208,-5.448,-5.4442,-5.4716,-5.4664,-5.4901,-5.4855,-5.5011,-5.5002,-5.5202,-5.5193,-5.5309,-5.5319,-5.5498,-5.5523,-5.5684,-5.5767,-5.5863,-5.5917,-5.6006,-5.6123,-5.6204,-5.6303,-5.6364,-5.6425,-5.6448,-5.6544,-5.6594,-5.6678,-5.6677,-5.6704,-5.67,-5.6673,-5.6559,-5.6575,-5.6554,-5.6571,-5.6496,-5.6464,-5.638,-5.6464,-5.6471,-5.6589,-5.6559,-5.6721,-5.6722,-5.6772,-5.6609,-5.66,-5.6349,-5.6186,-5.5876,-5.5687,-5.5371,-5.5148,-5.4972,-5.4874,-5.4662,-5.4538,-5.435,-5.4337,-5.4209,-5.4253,-5.4143,-5.4137,-5.4061,-5.4126,-5.4049,-5.4076,-5.403,-5.4053,-5.4045,-5.413,-5.406,-5.4104,-5.403,-5.4059,-5.4059,-5.412,-5.4048,-5.4071,-5.403,-5.4036,-5.3984,-5.4008,-5.394,-5.3957,-5.3922,-5.3877,-5.3886,-5.3878,-5.3847,-5.3893,-5.3786,-5.3765,-5.3686,-5.373,-5.3732,-5.3695,-5.3616,-5.3624,-5.3567,-5.3538,-5.3506,-5.3488,-5.3501,-5.3513,-5.3496,-5.3463,-5.3452,-5.3426,-5.3404,-5.3411,-5.3438,-5.3449,-5.3489,-5.3535,-5.3607,-5.3677,-5.3675,-5.3717,-5.3759,-5.3747,-5.3624,-5.3362,-5.3312,-5.3275,-5.3381,-5.3453,-5.3494,-5.3588,-5.3651,-5.3464,-5.3302,-5.3225,-5.3191,-5.3148,-5.3155,-5.3109,-5.3115,-5.3074,-5.3033,-5.2981,-5.3321,-5.3872,-5.5933,-5.8322,-6.0502,-6.3633,-6.5446,-6.4546,-5.7683,-4.6998,-3.9898,-3.5529,-3.4055,-3.4749,-3.8161,-4.2427,-4.6321,-4.9107,-5.0954,-5.2402,-5.284,-5.3237,-5.347,-5.3627,-5.3726,-5.3841,-5.3951,-5.4097,-5.4177,-5.4256,-5.4333,-5.4408,-5.4511,-5.4517,-5.4626,-5.4678,-5.4804,-5.4873,-5.4917,-5.4938,-5.4991,-5.5027,-5.5136,-5.5201,-5.5266,-5.5318,-5.5376,-5.543,-5.5457,-5.5485,-5.5497,-5.5474,-5.5498,-5.5464,-5.5471,-5.5399,-5.5388,-5.5354,-5.5299,-5.5223,-5.5163,-5.5075,-5.503,-5.4993,-5.4998,-5.5009,-5.5119,-5.5175,-5.5227,-5.5192,-5.5157,-5.4988,-5.4828,-5.4603,-5.44,-5.412,-5.3907,-5.3694,-5.3607,-5.3433,-5.3254,-5.3108,-5.3047,-5.2978,-5.2914,-5.2842,-5.279,-5.2734,-5.275,-5.2722,-5.2706,-5.2675,-5.271,-5.2725,-5.2675,-5.2652,-5.2696,-5.2694,-5.2699,-5.2699,-5.2671,-5.2624,-5.2611,-5.26,-5.2568,-5.2539,-5.252,-5.2519,-5.2505,-5.2464,-5.2406,-5.239,-5.2359,-5.2361,-5.232,-5.2279,-5.2241,-5.2229,-5.2184,-5.2163,-5.2118,-5.2097,-5.2049,-5.2036,-5.2005,-5.1984,-5.1957,-5.1943,-5.1922,-5.1942,-5.1902,-5.1876,-5.1854,-5.1896,-5.1965,-5.2017,-5.2031,-5.2114,-5.2149,-5.2181,-5.2166,-5.2201,-5.2189,-5.2036,-5.1786,-5.1696,-5.1628,-5.1756,-5.1781,-5.1843,-5.1989,-5.1952,-5.1787,-5.1676,-5.1611,-5.1607,-5.1504,-5.1472,-5.1407,-5.1427,-5.1409,-5.1401,-5.1319,-5.1508,-5.2724,-5.5326,-5.7723,-6.0447,-6.3736,-6.4369,-6.1715,-5.0761,-3.8669,-3.1742,-2.9883,-3.0076,-3.1757,-3.5918,-3.9938,-4.4426,-4.7336,-4.9606,-5.0853,-5.1496,-5.1653,-5.1976,-5.2006,-5.2238,-5.2236,-5.2427,-5.2444,-5.2597,-5.2603,-5.2708,-5.2734,-5.2897,-5.2939,-5.3074,-5.3073,-5.3229,-5.3269,-5.3424,-5.3469,-5.3587,-5.3639,-5.3756,-5.383,-5.394,-5.3994,-5.4092,-5.4146,-5.4231,-5.4259,-5.4288,-5.4339,-5.4396,-5.4426,-5.4446,-5.4433,-5.4399,-5.4367,-5.4315,-5.4301,-5.4206,-5.4196,-5.4174,-5.4213,-5.4223,-5.4254,-5.4264,-5.4279,-5.4252,-5.4247,-5.4043,-5.3879,-5.3648,-5.3423,-5.3126,-5.2855,-5.2616,-5.2436,-5.2222,-5.2121,-5.1926,-5.1855,-5.172,-5.1681,-5.1582,-5.1578,-5.1488,-5.1505,-5.1439,-5.1469,-5.144,-5.144,-5.1422,-5.1457,-5.144,-5.1492,-5.1449,-5.1462,-5.1461,-5.1521,-5.1474,-5.1477,-5.1441,-5.1462,-5.1449,-5.1429,-5.1404,-5.1422,-5.1359,-5.1379,-5.1334,-5.1345,-5.126,-5.1269,-5.1233,-5.1249,-5.1203,-5.1151,-5.111,-5.1114,-5.1087,-5.1077,-5.1025,-5.1008,-5.0987,-5.0975,-5.096,-5.0928,-5.087,-5.0853,-5.0846,-5.0854,-5.0785,-5.0786,-5.0812,-5.0905,-5.0988,-5.1076,-5.1101,-5.1154,-5.1151,-5.118,-5.1193,-5.1096,-5.0874,-5.0804,-5.0727,-5.0778,-5.0846,-5.0853,-5.0971,-5.1039,-5.091,-5.0728,-5.0649,-5.0612,-5.0547,-5.051,-5.0479,-5.0469,-5.0459,-5.0445,-5.042,-5.0457,-5.0709,-5.2209,-5.5069,-5.7451,-6.0805,-6.3716,-6.4256,-5.8961,-4.643,-3.3945,-2.8299,-2.7651,-2.9414,-3.3716,-3.7992,-4.2637,-4.6073,-4.8387,-4.9902,-5.0226,-5.062,-5.0852,-5.1057,-5.1182,-5.1307,-5.1394,-5.1468,-5.1575,-5.1688,-5.1755,-5.1816,-5.1884,-5.2008,-5.2115,-5.2211,-5.2259,-5.2309,-5.2392,-5.2529,-5.251,-5.2667,-5.2711,-5.282,-5.2915,-5.2986,-5.3043,-5.3118,-5.3183,-5.3306,-5.3329,-5.3368,-5.3397,-5.3413,-5.3401,-5.3428,-5.3387,-5.3356,-5.3315,-5.3305,-5.3269,-5.3224,-5.32,-5.3192,-5.3208,-5.327,-5.3303,-5.3375,-5.3388,-5.3347,-5.3224,-5.3112,-5.2847,-5.2596,-5.2346,-5.2055,-5.1817,-5.158,-5.1435,-5.1283,-5.1125,-5.1019,-5.0908,-5.0795,-5.0745,-5.069,-5.063,-5.0583,-5.0522,-5.0499,-5.0471,-5.0493,-5.0466,-5.0486,-5.0475,-5.0525,-5.0514,-5.0506,-5.0478,-5.0487,-5.0496,-5.05,-5.0498,-5.049,-5.0472,-5.0476,-5.0478,-5.0443,-5.0398,-5.0387,-5.0383,-5.0386,-5.0356,-5.0326,-5.032,-5.0315,-5.0298,-5.0268,-5.0207,-5.0187,-5.0149,-5.0141,-5.0121,-5.0056,-5.0039,-5.0027,-5.0021,-5.0009,-4.9953,-4.9921,-4.9906,-4.9934,-4.9931,-4.9872,-4.988,-4.9869,-4.9869,-4.987,-4.9832,-4.9793,-4.9859,-4.9941,-5.0081,-5.0146,-5.0191,-5.019,-5.0188,-5.0179,-5.024,-5.0097,-4.9898,-4.9826,-4.9847,-4.9892,-4.9924,-4.997,-5.0109,-5.0131,-4.9943,-4.9793,-4.9697,-4.9646,-4.9629,-4.9584,-4.9564,-4.9532,-4.9504,-4.9478,-4.9462,-4.9533,-5.0487,-5.2866,-5.5462,-5.6679,-6.0064,-6.2817,-6.3075,-5.721,-4.464,-3.3257,-2.7714,-2.7053,-2.89,-3.3247,-3.7652,-4.2258,-4.5432,-4.7697,-4.9077,-4.9604,-4.9847,-5.0091,-5.0246,-5.038,-5.0486,-5.0567,-5.0624,-5.0734,-5.0816,-5.0913,-5.0985,-5.1067,-5.1205,-5.1331,-5.1414,-5.1472,-5.1523,-5.1612,-5.1769,-5.186,-5.1926,-5.2,-5.2057,-5.2159,-5.2239,-5.2308,-5.2379,-5.2448,-5.2493,-5.254,-5.2564,-5.2583,-5.2629,-5.2648,-5.2654,-5.264,-5.2586,-5.2562,-5.2545,-5.2492,-5.2455,-5.2429,-5.2433,-5.2455,-5.2555,-5.2572,-5.2656,-5.268,-5.2696,-5.2623,-5.253,-5.232,-5.2105,-5.1831,-5.1583,-5.1324,-5.1067,-5.0838,-5.0721,-5.0597,-5.0559,-5.0379,-5.0248,-5.0166,-5.0152,-5.0124,-5.006,-4.9996,-5.0052,-5.0059,-5.0116,-5.0091,-5.0113,-5.0123,-5.0082,-5.0068,-5.0089,-5.0078,-5.0105,-5.0075,-5.0098,-5.0071,-5.0077,-5.0057,-5.003,-5.0046,-5.004,-4.9967,-4.9955,-4.9955,-4.9975,-4.9971,-4.9945,-4.9863,-4.9869,-4.9813,-4.9817,-4.9746,-4.9736,-4.9678,-4.9698,-4.9749,-4.9675,-4.9616,-4.96,-4.9622,-4.9621,-4.961,-4.9551,-4.9557,-4.9599,-4.9614,-4.9594,-4.9639,-4.972,-4.983,-4.9881,-4.9879,-4.9848,-4.9876,-4.9924,-5.0001,-4.9814,-4.954,-4.9521,-4.9521,-4.9636,-4.9677,-4.9679,-4.9835,-4.9786,-4.9678,-4.9598,-4.9516,-4.9402,-4.9405,-4.9395,-4.9407,-4.9408,-4.9297,-4.9239,-4.9273,-4.9456,-5.0579,-5.294,-5.5182,-5.7565,-6.0662,-6.1404,-5.9833,-5.0973,-4.1405,-3.5087,-3.2148,-3.047,-3.1619,-3.3671,-3.7656,-4.205,-4.4626,-4.6987,-4.8179,-4.9413,-4.948,-4.9967,-4.9888,-5.0233,-5.0109,-5.0436,-5.0323,-5.0624,-5.0429,-5.0749,-5.0686,-5.0922,-5.0804,-5.0998,-5.0984,-5.1204,-5.1147,-5.1338,-5.1298,-5.1484,-5.145,-5.1601,-5.1558,-5.1701,-5.1745,-5.1874,-5.181,-5.1892,-5.1852,-5.1946,-5.1924,-5.1957,-5.1948,-5.1936,-5.1887,-5.1869,-5.1818,-5.1744,-5.1694,-5.1603,-5.1549,-5.1482,-5.1499,-5.148,-5.1578,-5.1621,-5.1747,-5.1761,-5.175,-5.164,-5.1632,-5.1425,-5.1241,-5.0977,-5.0781,-5.0519,-5.0372,-5.015,-5.0012,-4.9809,-4.9765,-4.9682,-4.9647,-4.9476,-4.9465,-4.9358,-4.943,-4.9328,-4.9357,-4.9311,-4.9386,-4.9377,-4.9441,-4.9357,-4.9375,-4.9333,-4.9405,-4.9299,-4.9329,-4.9253,-4.9304,-4.9243,-4.9247,-4.9207,-4.9207,-4.9105,-4.9155,-4.9077,-4.9125,-4.9063,-4.9061,-4.901,-4.9007,-4.8949,-4.8932,-4.885,-4.8858,-4.8798,-4.8808,-4.871,-4.8765,-4.8683,-4.87,-4.8616,-4.8612,-4.855,-4.8551,-4.8519,-4.8554,-4.8553,-4.8633,-4.8673,-4.8764,-4.8788,-4.8824,-4.8815,-4.8855,-4.8855,-4.8778,-4.8462,-4.8298,-4.8247,-4.8325,-4.8418,-4.8411,-4.8534,-4.8601,-4.854,-4.8395,-4.8234,-4.8136,-4.8046,-4.8024,-4.799,-4.8002,-4.7955,-4.7923,-4.7883,-4.7965,-4.8745,-5.0938,-5.3598,-5.5994,-5.948,-6.0938,-5.9906,-5.6442,-4.481,-3.3603,-2.7624,-2.6779,-2.7793,-3.098,-3.5304,-3.9611,-4.3188,-4.5311,-4.7173,-4.771,-4.8239,-4.8208,-4.8572,-4.8464,-4.8761,-4.8713,-4.897,-4.8851,-4.9095,-4.9037,-4.9271,-4.9197,-4.9395,-4.9356,-4.9564,-4.955,-4.9728,-4.9696,-4.9861,-4.9886,-5.0056,-5.0025,-5.0199,-5.0184,-5.0353,-5.033,-5.0509,-5.0489,-5.0606,-5.0614,-5.0731,-5.0708,-5.0758,-5.0708,-5.0761,-5.0707,-5.0715,-5.0649,-5.0617,-5.0564,-5.0544,-5.0496,-5.0483,-5.0513,-5.0513,-5.0542,-5.0585,-5.058,-5.0537,-5.0439,-5.0266,-5.0032,-4.9734,-4.9458,-4.9168,-4.8952,-4.8722,-4.8525,-4.8333,-4.8188,-4.805,-4.7997,-4.7894,-4.7836,-4.7773,-4.7749,-4.7707,-4.7686,-4.761,-4.7616,-4.7611,-4.7645,-4.7614,-4.7639,-4.761,-4.7642,-4.7606,-4.7634,-4.7592,-4.7599,-4.7581,-4.7613,-4.759,-4.7591,-4.7552,-4.7559,-4.7523,-4.7556,-4.7488,-4.7464,-4.7411,-4.7455,-4.7386,-4.7383,-4.733,-4.7319,-4.7271,-4.7278,-4.7215,-4.7182,-4.7159,-4.7154,-4.7122,-4.7129,-4.7058,-4.7036,-4.7011,-4.7003,-4.6984,-4.6975,-4.6904,-4.6941,-4.6971,-4.7081,-4.711,-4.7185,-4.7254,-4.7266,-4.7252,-4.7273,-4.7263,-4.7242,-4.6974,-4.6859,-4.6782,-4.6844,-4.6939,-4.6958,-4.7054,-4.7108,-4.6949,-4.6794,-4.6711,-4.6675,-4.6572,-4.6561,-4.6528,-4.6513,-4.6485,-4.6434,-4.6408,-4.6405,-4.6825,-4.8599,-5.146,-5.3862,-5.7425,-6.0005,-6.0238,-5.3388,-4.0306,-2.857,-2.3741,-2.3625,-2.5764,-3.0343,-3.455,-3.9231,-4.2363,-4.469,-4.5461,-4.6245,-4.6613,-4.6824,-4.7016,-4.7137,-4.7198,-4.7324,-4.7444,-4.753,-4.7592,-4.7645,-4.7727,-4.7803,-4.7905,-4.7971,-4.8076,-4.8138,-4.8236,-4.828,-4.8378,-4.8433,-4.8525,-4.8587,-4.8713,-4.8779,-4.8855,-4.8911,-4.8995,-4.9047,-4.9138,-4.9159,-4.922,-4.9265,-4.9298,-4.9299,-4.9298,-4.9234,-4.9227,-4.9203,-4.9179,-4.9101,-4.9096,-4.9055,-4.9085,-4.9126,-4.9188,-4.92,-4.9251,-4.9267,-4.92,-4.907,-4.8894,-4.8638,-4.8412,-4.8142,-4.7872,-4.7705,-4.7495,-4.7275,-4.7129,-4.6971,-4.6871,-4.672,-4.6701,-4.661,-4.6585,-4.6497,-4.6499,-4.6447,-4.647,-4.6429,-4.6467,-4.6451,-4.6501,-4.6493,-4.6531,-4.6535,-4.6551,-4.6555,-4.6585,-4.6593,-4.6596,-4.6581,-4.6585,-4.6573,-4.6592,-4.6566,-4.6567,-4.6535,-4.6552,-4.6519,-4.6505,-4.6453,-4.644,-4.6414,-4.6429,-4.6374,-4.6334,-4.6288,-4.627,-4.628,-4.6246,-4.6181,-4.6158,-4.613,-4.6129,-4.6113,-4.6101,-4.6032,-4.6017,-4.6029,-4.6002,-4.599,-4.6013,-4.6048,-4.6096,-4.6162,-4.6263,-4.6327,-4.636,-4.6347,-4.6384,-4.642,-4.634,-4.6103,-4.6005,-4.5966,-4.604,-4.6113,-4.6158,-4.6316,-4.629,-4.6104,-4.6002,-4.5971,-4.5883,-4.5851,-4.5813,-4.5815,-4.5782,-4.58,-4.5757,-4.578,-4.5779,-4.6414,-4.8429,-5.1195,-5.3527,-5.7178,-5.9252,-5.8983,-5.0824,-4.4236,-3.2597,-2.5073,-2.391,-2.4264,-2.8524,-3.2507,-3.7774,-4.0868,-4.3729,-4.4924,-4.6066,-4.6028,-4.6611,-4.6453,-4.6911,-4.6691,-4.705,-4.6852,-4.715,-4.7025,-4.7389,-4.7246,-4.7541,-4.7455,-4.7718,-4.7679,-4.7878,-4.7797,-4.8042,-4.8045,-4.8268,-4.8246,-4.8434,-4.8407,-4.8599,-4.8563,-4.8734,-4.87,-4.8835,-4.8856,-4.8942,-4.894,-4.8958,-4.8986,-4.8996,-4.8993,-4.8948,-4.8916,-4.8873,-4.8874,-4.881,-4.8778,-4.8733,-4.8801,-4.8777,-4.888,-4.8876,-4.9008,-4.9029,-4.9142,-4.9039,-4.8959,-4.8743,-4.8588,-4.8237,-4.8095,-4.7772,-4.7612,-4.7345,-4.7261,-4.7023,-4.7006,-4.6798,-4.6835,-4.6634,-4.6684,-4.6575,-4.6689,-4.6581,-4.6645,-4.6589,-4.666,-4.6588,-4.6638,-4.6595,-4.6665,-4.6593,-4.6707,-4.6623,-4.6715,-4.6625,-4.6654,-4.6573,-4.6654,-4.6619,-4.6699,-4.6577,-4.6635,-4.6523,-4.6569,-4.6525,-4.6562,-4.6492,-4.6553,-4.6459,-4.6528,-4.6469,-4.6488,-4.6321,-4.6362,-4.6271,-4.6363,-4.6334,-4.6384,-4.6319,-4.6319,-4.6297,-4.6261,-4.6274,-4.6362,-4.6379,-4.6499,-4.6472,-4.6567,-4.6612,-4.6683,-4.671,-4.6671,-4.6399,-4.6183,-4.608,-4.6196,-4.6302,-4.6311,-4.6326,-4.6469,-4.6532,-4.6408,-4.6234,-4.6115,-4.6111,-4.6067,-4.6058,-4.6068,-4.6047,-4.602,-4.5976,-4.597,-4.6405,-4.7913,-5.0552,-5.2571,-5.3812,-5.684,-5.8333,-5.7027,-4.9545,-3.9393,-3.301,-2.9217,-2.7439,-2.8139,-3.1878,-3.5923,-3.9734,-4.2235,-4.4116,-4.5434,-4.6241,-4.6448,-4.669,-4.6682,-4.6945,-4.6981,-4.7167,-4.7162,-4.7329,-4.7385,-4.7535,-4.7522,-4.7676,-4.7717,-4.7855,-4.7919,-4.8016,-4.8019,-4.8138,-4.8187,-4.8327,-4.833,-4.845,-4.8473,-4.8559,-4.8567,-4.8672,-4.8604,-4.8691,-4.8704,-4.8752,-4.8731,-4.8762,-4.8703,-4.8733,-4.8722,-4.8701,-4.8611,-4.8534,-4.8462,-4.8459,-4.832,-4.8335,-4.8275,-4.8305,-4.8369,-4.8492,-4.8565,-4.8618,-4.8629,-4.8573,-4.8451,-4.8286,-4.8032,-4.7786,-4.7574,-4.7407,-4.7178,-4.7008,-4.6827,-4.6702,-4.6641,-4.6594,-4.6505,-4.6453,-4.6385,-4.6404,-4.6383,-4.6395,-4.6403,-4.6402,-4.6387,-4.6342,-4.6344,-4.6327,-4.6344,-4.6378,-4.6369,-4.6329,-4.6322,-4.6302,-4.6324,-4.6338,-4.6337,-4.6293,-4.6283,-4.6277,-4.6266,-4.6193,-4.6182,-4.6145,-4.6143,-4.6152,-4.615,-4.6079,-4.6057,-4.6038,-4.6019,-4.5977,-4.5975,-4.5946,-4.5942,-4.6008,-4.6079,-4.6122,-4.6207,-4.6243,-4.6285,-4.6309,-4.6327,-4.6343,-4.6181,-4.5803,-4.5697,-4.5688,-4.5832,-4.5863,-4.5926,-4.5964,-4.608,-4.6015,-4.5908,-4.5766,-4.5697,-4.5636,-4.559,-4.5564,-4.558,-4.5556,-4.552,-4.5448,-4.5613,-4.6689,-4.9202,-5.16,-5.4019,-5.7263,-5.797,-5.7446,-5.2096,-4.049,-3.1638,-2.6433,-2.5945,-2.67,-2.9748,-3.3902,-3.8025,-4.12,-4.3191,-4.4863,-4.5503,-4.5895,-4.6026,-4.6307,-4.6333,-4.6526,-4.6485,-4.6658,-4.6687,-4.687,-4.686,-4.6982,-4.7022,-4.718,-4.7197,-4.7297,-4.7335,-4.7459,-4.7526,-4.768,-4.7693,-4.784,-4.7896,-4.803,-4.8097,-4.8157,-4.8178,-4.828,-4.8326,-4.841,-4.8446,-4.847,-4.8461,-4.8539,-4.8515,-4.8518,-4.847,-4.8429,-4.8366,-4.8353,-4.825,-4.8177,-4.8203,-4.8241,-4.8258,-4.8312,-4.836,-4.8376,-4.8373,-4.8332,-4.8217,-4.7975,-4.7752,-4.7489,-4.7233,-4.6979,-4.6742,-4.6488,-4.6346,-4.6198,-4.6068,-4.5936,-4.5859,-4.5806,-4.5752,-4.5714,-4.5672,-4.5617,-4.5618,-4.5584,-4.5603,-4.5569,-4.5576,-4.5554,-4.5607,-4.5577,-4.5574,-4.5534,-4.5579,-4.555,-4.5591,-4.5535,-4.5523,-4.5534,-4.554,-4.5521,-4.5491,-4.5454,-4.5453,-4.5431,-4.543,-4.5372,-4.5335,-4.5299,-4.5301,-4.5258,-4.5246,-4.5218,-4.5233,-4.5299,-4.5388,-4.5413,-4.5479,-4.5525,-4.5558,-4.5588,-4.5662,-4.5615,-4.5344,-4.5002,-4.4907,-4.4923,-4.5015,-4.5049,-4.5129,-4.5245,-4.5178,-4.4988,-4.4837,-4.4732,-4.4686,-4.4679,-4.4656,-4.462,-4.4605,-4.4575,-4.4548,-4.4518,-4.4576,-4.5617,-4.8124,-5.0819,-5.3542,-5.712,-5.8237,-5.5947,-4.4725,-3.1141,-2.3534,-2.1582,-2.2002,-2.4224,-2.8852,-3.2888,-3.7462,-4.0588,-4.288,-4.4147,-4.4685,-4.4898,-4.5138,-4.5249,-4.5441,-4.5478,-4.5599,-4.5656,-4.5797,-4.5846,-4.5935,-4.5933,-4.6047,-4.6126,-4.6236,-4.6308,-4.6409,-4.6482,-4.6594,-4.6663,-4.6774,-4.6852,-4.6916,-4.7013,-4.709,-4.7193,-4.7249,-4.7316,-4.7388,-4.7498,-4.7516,-4.7554,-4.7575,-4.7605,-4.7593,-4.7584,-4.7555,-4.752,-4.7461,-4.7421,-4.739,-4.7387,-4.7335,-4.7381,-4.7459,-4.7567,-4.7561,-4.7581,-4.754,-4.7499,-4.7335,-4.713,-4.6849,-4.6589,-4.6271,-4.6047,-4.5801,-4.558,-4.5369,-4.5257,-4.511,-4.5052,-4.4905,-4.4829,-4.4772,-4.4744,-4.4679,-4.4648,-4.4626,-4.4647,-4.4635,-4.4661,-4.4641,-4.4655,-4.4663,-4.4704,-4.4719,-4.4719,-4.4715,-4.4732,-4.473,-4.4774,-4.4708,-4.4728,-4.471,-4.4744,-4.4718,-4.4691,-4.4666,-4.466,-4.4644,-4.4645,-4.4604,-4.4576,-4.4529,-4.453,-4.4536,-4.4603,-4.4625,-4.4744,-4.4791,-4.487,-4.4854,-4.4881,-4.4926,-4.4919,-4.4606,-4.4432,-4.431,-4.4263,-4.4357,-4.4411,-4.4482,-4.4599,-4.4571,-4.4348,-4.4202,-4.4119,-4.4064,-4.4001,-4.3972,-4.3959,-4.3954,-4.3911,-4.3848,-4.3832,-4.3855,-4.4258,-4.5931,-4.8778,-5.1267,-5.4772,-5.756,-5.7746,-5.1255,-3.8045,-2.6174,-2.1205,-2.087,-2.3084,-2.7817,-3.2079,-3.6676,-3.9904,-4.2139,-4.296,-4.3769,-4.4122,-4.4344,-4.4509,-4.4635,-4.4771,-4.484,-4.4937,-4.5004,-4.5103,-4.5168,-4.5284,-4.5352,-4.5436,-4.5503,-4.5595,-4.5702,-4.5798,-4.5839,-4.5939,-4.6,-4.6087,-4.6181,-4.6271,-4.6344,-4.6398,-4.6483,-4.6564,-4.6631,-4.6663,-4.6711,-4.6754,-4.6764,-4.6776,-4.6746,-4.6709,-4.6678,-4.6664,-4.6616,-4.6584,-4.6518,-4.6484,-4.6478,-4.6524,-4.6561,-4.666,-4.6746,-4.6815,-4.6843,-4.6763,-4.6609,-4.6421,-4.6183,-4.5931,-4.5654,-4.5372,-4.515,-4.5043,-4.4855,-4.4726,-4.4579,-4.4453,-4.4385,-4.4314,-4.4242,-4.4177,-4.4165,-4.415,-4.4128,-4.4105,-4.4084,-4.4093,-4.4121,-4.4142,-4.4145,-4.4169,-4.4178,-4.4185,-4.4211,-4.4212,-4.4195,-4.4193,-4.4195,-4.4222,-4.4221,-4.4197,-4.4179,-4.4167,-4.4115,-4.4129,-4.4085,-4.4094,-4.4073,-4.4044,-4.4066,-4.403,-4.3975,-4.396,-4.3972,-4.3978,-4.3923,-4.3886,-4.3838,-4.3839,-4.3848,-4.3837,-4.3842,-4.3791,-4.3799,-4.3758,-4.3805,-4.3877,-4.3966,-4.411,-4.4151,-4.4197,-4.4183,-4.4209,-4.423,-4.4247,-4.4108,-4.3905,-4.3841,-4.39,-4.3982,-4.4066,-4.4208,-4.4198,-4.4042,-4.3868,-4.3874,-4.3801,-4.375,-4.3752,-4.3689,-4.3696,-4.3692,-4.3662,-4.3668,-4.3637,-4.3731,-4.4597,-4.6827,-4.9335,-5.1809,-5.5404,-5.6939,-5.6119,-4.7174,-3.5097,-2.7121,-2.3313,-2.3059,-2.363,-2.7252,-3.1613,-3.6213,-3.9424,-4.1741,-4.3212,-4.4033,-4.4366,-4.4606,-4.4709,-4.4867,-4.5009,-4.52,-4.5296,-4.5382,-4.5453,-4.5562,-4.5683,-4.5752,-4.5816,-4.5911,-4.602,-4.6175,-4.6252,-4.6354,-4.6428,-4.6548,-4.6655,-4.6707,-4.6817,-4.6905,-4.6975,-4.7031,-4.7101,-4.7157,-4.7224,-4.725,-4.7304,-4.7331,-4.7332,-4.7254,-4.7237,-4.7217,-4.7198,-4.7157,-4.7144,-4.7107,-4.716,-4.7134,-4.7182,-4.7228,-4.7393,-4.7533,-4.7687,-4.7728,-4.7745,-4.7696,-4.7646,-4.7525,-4.7318,-4.7053,-4.6861,-4.6626,-4.6485,-4.6274,-4.6092,-4.5949,-4.587,-4.5799,-4.5735,-4.5712,-4.5702,-4.5666,-4.5685,-4.5667,-4.5682,-4.5719,-4.5766,-4.574,-4.5769,-4.5788,-4.5839,-4.5876,-4.5919,-4.5927,-4.5906,-4.5913,-4.5915,-4.5939,-4.6001,-4.5984,-4.5991,-4.5995,-4.6024,-4.6031,-4.6002,-4.5952,-4.5939,-4.5935,-4.5958,-4.5927,-4.5907,-4.5928,-4.592,-4.5946,-4.5915,-4.5922,-4.5944,-4.5908,-4.5923,-4.5918,-4.5951,-4.5918,-4.5975,-4.5979,-4.6009,-4.6003,-4.5979,-4.6006,-4.6029,-4.6032,-4.6069,-4.6157,-4.6229,-4.6337,-4.6375,-4.643,-4.6456,-4.6472,-4.651,-4.6516,-4.6305,-4.6172,-4.6134,-4.6254,-4.6311,-4.6388,-4.6495,-4.6537,-4.6487,-4.6318,-4.6282,-4.6207,-4.6179,-4.6165,-4.6176,-4.6142,-4.6139,-4.6139,-4.6122,-4.6107,-4.647,-4.7092,-4.9323,-5.1877,-5.4161,-5.7407,-5.8711,-5.7456,-4.9375,-3.8666,-3.1659,-2.821,-2.7074,-2.8388,-3.2205,-3.6211,-4.0048,-4.2737,-4.464,-4.5975,-4.6441,-4.6747,-4.7045,-4.7201,-4.7416,-4.7491,-4.7686,-4.7727,-4.7904,-4.7977,-4.8141,-4.8185,-4.8305,-4.8353,-4.849,-4.8609,-4.8718,-4.8774,-4.8883,-4.8906,-4.9035,-4.9127,-4.9193,-4.9246,-4.9353,-4.9465,-4.9577,-4.9617,-4.9662,-4.9721,-4.9785,-4.9825,-4.9825,-4.9822,-4.9815,-4.9805,-4.9763,-4.976,-4.9725,-4.966,-4.9619,-4.9583,-4.9533,-4.9561,-4.9551,-4.9655,-4.9724,-4.9765,-4.9807,-4.9812,-4.969,-4.9536,-4.9321,-4.9083,-4.8799,-4.8616,-4.8399,-4.8302,-4.8133,-4.7965,-4.782,-4.7748,-4.7655,-4.7558,-4.7495,-4.75,-4.7463,-4.7467,-4.7447,-4.7447,-4.7422,-4.7456,-4.7463,-4.749,-4.748,-4.7514,-4.7543,-4.7575,-4.7545,-4.7563,-4.7529,-4.756,-4.7561,-4.7554,-4.7528,-4.7556,-4.7551,-4.7558,-4.7546,-4.7555,-4.7498,-4.7495,-4.7467,-4.7467,-4.7425,-4.7429,-4.7433,-4.7411,-4.7396,-4.74,-4.737,-4.7362,-4.7318,-4.73,-4.7285,-4.7238,-4.7229,-4.7227,-4.7216,-4.7193,-4.7155,-4.7165,-4.7192,-4.7163,-4.7131,-4.7153,-4.7159,-4.7156,-4.7166,-4.7148,-4.7151,-4.7137,-4.7138,-4.7196,-4.7278,-4.7352,-4.7445,-4.7504,-4.7555,-4.7558,-4.7515,-4.7545,-4.7531,-4.7337,-4.7284,-4.7199,-4.7253,-4.7308,-4.7387,-4.7483,-4.7447,-4.7326,-4.7195,-4.7142,-4.7064,-4.6996,-4.6949,-4.6945,-4.6934,-4.6955,-4.6903,-4.6881,-4.6872,-4.6981,-4.7963,-5.049,-5.3249,-5.6043,-5.9521,-6.0774,-5.8053,-4.6736,-3.282,-2.5012,-2.3299,-2.4776,-2.8557,-3.3013,-3.7707,-4.1761,-4.4315,-4.6243,-4.6636,-4.7195,-4.741,-4.7709,-4.7782,-4.7966,-4.8022,-4.8235,-4.8275,-4.8407,-4.8428,-4.8504,-4.8573,-4.8733,-4.8781,-4.8901,-4.8992,-4.9108,-4.9193,-4.9284,-4.9309,-4.9408,-4.9478,-4.9611,-4.9675,-4.9782,-4.9865,-4.994,-5.0021,-5.01,-5.0142,-5.0182,-5.0259,-5.0296,-5.0303,-5.0289,-5.0299,-5.0262,-5.0273,-5.0233,-5.0186,-5.0098,-5.0112,-5.0114,-5.0138,-5.0139,-5.02,-5.0242,-5.0316,-5.0283,-5.0213,-5.0024,-4.9855,-4.9586,-4.9351,-4.9012,-4.8779,-4.8479,-4.8414,-4.8201,-4.8055,-4.7846,-4.7744,-4.7643,-4.7589,-4.7497,-4.7429,-4.7344,-4.735,-4.7321,-4.7292,-4.7277,-4.7287,-4.7284,-4.7317,-4.732,-4.733,-4.7312,-4.7356,-4.7365,-4.7391,-4.7381,-4.7407,-4.7395,-4.7429,-4.7418,-4.742,-4.7363,-4.7382,-4.734,-4.7346,-4.7323,-4.7277,-4.7239,-4.7224,-4.7204,-4.7193,-4.7139,-4.7109,-4.7067,-4.7078,-4.7012,-4.699,-4.6924,-4.6904,-4.6896,-4.6862,-4.6806,-4.6784,-4.6777,-4.6763,-4.6737,-4.6706,-4.6653,-4.6652,-4.6667,-4.6641,-4.6625,-4.6594,-4.6594,-4.6565,-4.6575,-4.6538,-4.6503,-4.6511,-4.6547,-4.6515,-4.6472,-4.648,-4.6487,-4.6504,-4.6479,-4.6436,-4.6449,-4.6447,-4.6473,-4.6531,-4.6622,-4.6665,-4.6695,-4.6755,-4.6814,-4.6776,-4.6754,-4.6829,-4.6875,-4.6689,-4.6517,-4.6547,-4.6617,-4.6656,-4.6763,-4.6748,-4.6608,-4.6506,-4.6418,-4.6356,-4.6314,-4.6216,-4.6201,-4.6151,-4.6178,-4.6113,-4.6093,-4.6039,-4.6125,-4.6874,-4.9037,-5.1887,-5.4424,-5.8096,-5.993,-5.8929,-5.4942,-4.2366,-2.9071,-2.3347,-2.2652,-2.466,-2.9059,-3.3416,-3.8238,-4.1801,-4.4046,-4.5583,-4.6137,-4.6494,-4.6651,-4.6857,-4.6931,-4.7092,-4.7163,-4.7281,-4.7323,-4.7441,-4.7481,-4.7619,-4.7669,-4.7805,-4.7854,-4.7959,-4.8023,-4.8149,-4.8211,-4.8299,-4.8344,-4.8479,-4.8556,-4.8674,-4.8703,-4.8769,-4.8794,-4.8896,-4.9003,-4.9033,-4.9059,-4.911,-4.9137,-4.9196,-4.9183,-4.9121,-4.9096,-4.9106,-4.9086,-4.901,-4.8962,-4.8916,-4.8884,-4.8896,-4.8912,-4.8932,-4.8971,-4.9016,-4.9066,-4.9058,-4.8949,-4.8822,-4.8659,-4.8414,-4.8185,-4.7887,-4.7657,-4.74,-4.7191,-4.6983,-4.6818,-4.6676,-4.657,-4.6464,-4.6395,-4.6328,-4.6258,-4.6241,-4.6198,-4.6196,-4.6194,-4.6109,-4.6088,-4.6131,-4.6182,-4.616,-4.6173,-4.6159,-4.6209,-4.6219,-4.6239,-4.6214,-4.6191,-4.6199,-4.6215,-4.6221,-4.6195,-4.6168,-4.615,-4.6171,-4.6163,-4.6098,-4.6079,-4.6033,-4.6024,-4.6019,-4.6009,-4.5938,-4.5919,-4.5909,-4.5907,-4.5827,-4.5797,-4.5806,-4.5782,-4.5746,-4.5701,-4.565,-4.5642,-4.5646,-4.5629,-4.5621,-4.5569,-4.5556,-4.5546,-4.5561,-4.5511,-4.5466,-4.5466,-4.5444,-4.5433,-4.5428,-4.5423,-4.5404,-4.5397,-4.5396,-4.5398,-4.5373,-4.5333,-4.5345,-4.5325,-4.5279,-4.5264,-4.5266,-4.5256,-4.531,-4.5266,-4.5241,-4.5236,-4.532,-4.5416,-4.5471,-4.5511,-4.556,-4.5556,-4.5583,-4.5593,-4.5592,-4.5665,-4.5646,-4.5471,-4.5342,-4.5427,-4.5451,-4.5477,-4.5623,-4.5625,-4.5467,-4.5283,-4.5221,-4.5218,-4.5183,-4.515,-4.5132,-4.5057,-4.5012,-4.5023,-4.5047,-4.4988,-4.5133,-4.632,-4.8781,-5.11,-5.369,-5.7021,-5.7905,-5.5874,-4.5416,-3.416,-3.0138,-2.5402,-2.4513,-2.5834,-2.9414,-3.3873,-3.8033,-4.1107,-4.3018,-4.4554,-4.5135,-4.5561,-4.5678,-4.5953,-4.5974,-4.6163,-4.6172,-4.6344,-4.6383,-4.6563,-4.6542,-4.6703,-4.678,-4.6909,-4.6924,-4.7006,-4.7018,-4.7182,-4.7258,-4.7416,-4.7396,-4.7511,-4.7574,-4.7689,-4.7727,-4.7833,-4.7863,-4.7964,-4.7979,-4.8006,-4.8027,-4.8095,-4.8049,-4.8051,-4.8062,-4.8069,-4.8006,-4.7955,-4.7877,-4.7846,-4.7768,-4.7657,-4.7619,-4.763,-4.7638,-4.77,-4.775,-4.7879,-4.7917,-4.7975,-4.7946,-4.7874,-4.7745,-4.751,-4.7326,-4.7114,-4.689,-4.6682,-4.6485,-4.6343,-4.6182,-4.5946,-4.5874,-4.5803,-4.5757,-4.5766,-4.5702,-4.5647,-4.5632,-4.5629,-4.5642,-4.5633,-4.5652,-4.5623,-4.5594,-4.5643,-4.5651,-4.5678,-4.5717,-4.5692,-4.575,-4.5671,-4.5683,-4.5637,-4.5625,-4.5652,-4.5655,-4.56,-4.5586,-4.5567,-4.5575,-4.5542,-4.5521,-4.5488,-4.5486,-4.5484,-4.5459,-4.5432,-4.539,-4.5347,-4.5353,-4.5325,-4.5327,-4.5268,-4.5296,-4.5267,-4.5251,-4.5184,-4.5179,-4.5166,-4.5169,-4.515,-4.5127,-4.5102,-4.5123,-4.5094,-4.5138,-4.5064,-4.5095,-4.5081,-4.5091,-4.5067,-4.5048,-4.5051,-4.5022,-4.5011,-4.5012,-4.5034,-4.5025,-4.5008,-4.4994,-4.5033,-4.5068,-4.513,-4.5176,-4.5241,-4.5293,-4.5325,-4.538,-4.5306,-4.5357,-4.535,-4.5137,-4.4995,-4.4985,-4.5088,-4.509,-4.5182,-4.5288,-4.5267,-4.512,-4.4979,-4.499,-4.4902,-4.4809,-4.4795,-4.4763,-4.4783,-4.4752,-4.472,-4.4681,-4.4821,-4.5952,-4.7038,-4.9698,-5.1911,-5.5008,-5.7579,-5.6971,-5.1298,-3.9612,-3.0262,-2.5182,-2.4858,-2.5487,-2.8691,-3.2996,-3.7282,-4.0489,-4.2465,-4.4078,-4.4741,-4.5036,-4.5217,-4.5477,-4.5535,-4.5715,-4.5765,-4.5986,-4.6025,-4.6156,-4.6155,-4.6326,-4.6371,-4.6512,-4.6524,-4.6673,-4.6733,-4.6892,-4.6922,-4.7032,-4.7021,-4.7174,-4.7232,-4.7371,-4.7368,-4.7485,-4.7535,-4.7655,-4.771,-4.7778,-4.7803,-4.7903,-4.7935,-4.7955,-4.794,-4.7955,-4.7936,-4.7931,-4.7886,-4.7845,-4.7769,-4.7734,-4.7715,-4.7693,-4.7657,-4.769,-4.7702,-4.7753,-4.7799,-4.7773,-4.7653,-4.7485,-4.7324,-4.7089,-4.6853,-4.6564,-4.6323,-4.6089,-4.5945,-4.5851,-4.5696,-4.5523,-4.5424,-4.5296,-4.5275,-4.5148,-4.5131,-4.5093,-4.509,-4.505,-4.5018,-4.4998,-4.5036,-4.5048,-4.5106,-4.5078,-4.5111,-4.5074,-4.5123,-4.5126,-4.5122,-4.5115,-4.5122,-4.5128,-4.5155,-4.512,-4.5118,-4.5097,-4.5113,-4.5087,-4.5081,-4.505,-4.5042,-4.5013,-4.5046,-4.4986,-4.4945,-4.4922,-4.4937,-4.4911,-4.4938,-4.4883,-4.487,-4.4813,-4.4818,-4.4804,-4.4769,-4.4729,-4.4736,-4.4727,-4.4732,-4.4692,-4.4657,-4.4649,-4.4669,-4.4674,-4.4671,-4.4614,-4.4597,-4.4593,-4.4609,-4.4579,-4.4571,-4.4561,-4.4567,-4.4569,-4.4554,-4.4541,-4.4523,-4.4537,-4.4537,-4.4519,-4.4508,-4.4535,-4.4575,-4.4639,-4.474,-4.4791,-4.4835,-4.4896,-4.4908,-4.4928,-4.492,-4.4989,-4.4799,-4.4698,-4.4642,-4.4736,-4.4755,-4.485,-4.4936,-4.4908,-4.4735,-4.4595,-4.4577,-4.4534,-4.4475,-4.4388,-4.435,-4.4331,-4.4334,-4.4313,-4.4284,-4.4247,-4.4662,-4.6334,-4.9253,-5.1654,-5.5124,-5.7682,-5.8075,-5.1401,-3.8391,-2.6165,-2.2645,-2.1094,-2.1863,-2.5792,-2.9911,-3.5084,-3.8757,-4.1731,-4.3333,-4.4438,-4.4568,-4.5081,-4.5057,-4.5433,-4.5332,-4.5614,-4.5542,-4.5814,-4.5745,-4.5949,-4.5873,-4.609,-4.6054,-4.627,-4.6231,-4.6426,-4.6419,-4.661,-4.6604,-4.6796,-4.6789,-4.6953,-4.6958,-4.7163,-4.7171,-4.7307,-4.7354,-4.7497,-4.7506,-4.7593,-4.7631,-4.7725,-4.7755,-4.7794,-4.7799,-4.7808,-4.7787,-4.7757,-4.7762,-4.7714,-4.7666,-4.7636,-4.7634,-4.7611,-4.7684,-4.7652,-4.7721,-4.7711,-4.7706,-4.7646,-4.755,-4.73,-4.7105,-4.6824,-4.6596,-4.6278,-4.6092,-4.582,-4.5698,-4.5498,-4.5372,-4.5237,-4.5149,-4.5054,-4.502,-4.4909,-4.4935,-4.4802,-4.482,-4.474,-4.4773,-4.4682,-4.4714,-4.47,-4.4794,-4.4745,-4.4782,-4.4741,-4.4792,-4.4788,-4.4844,-4.4792,-4.4828,-4.4809,-4.4869,-4.4825,-4.482,-4.4764,-4.4757,-4.4737,-4.4808,-4.4731,-4.4763,-4.4691,-4.4733,-4.4683,-4.469,-4.461,-4.4618,-4.4551,-4.4571,-4.4535,-4.4539,-4.4448,-4.4507,-4.4489,-4.4497,-4.4421,-4.4423,-4.4419,-4.4441,-4.44,-4.4383,-4.434,-4.4348,-4.4326,-4.4341,-4.4281,-4.4284,-4.4249,-4.4289,-4.4241,-4.4224,-4.4211,-4.4191,-4.422,-4.4229,-4.4186,-4.415,-4.4144,-4.4153,-4.4204,-4.4283,-4.4363,-4.4428,-4.4501,-4.4531,-4.4512,-4.4489,-4.455,-4.4473,-4.4289,-4.4215,-4.4189,-4.4316,-4.4348,-4.4444,-4.4549,-4.4464,-4.4335,-4.4174,-4.4161,-4.4066,-4.4014,-4.396,-4.399,-4.3967,-4.3987,-4.3914,-4.3921,-4.407,-4.5204,-4.6307,-4.9106,-5.15,-5.4995,-5.7473,-5.7586,-5.0251,-3.7112,-2.5715,-2.1165,-2.1329,-2.3508,-2.8175,-3.2498,-3.7203,-4.0198,-4.2474,-4.3601,-4.4208,-4.4236,-4.4603,-4.4674,-4.4895,-4.4923,-4.5128,-4.5158,-4.5336,-4.5338,-4.5499,-4.5521,-4.5678,-4.5699,-4.5825,-4.5867,-4.6016,-4.61,-4.6211,-4.628,-4.6343,-4.641,-4.6525,-4.6633,-4.6716,-4.6813,-4.6908,-4.6983,-4.7069,-4.7159,-4.7183,-4.723,-4.7286,-4.7337,-4.7332,-4.7326,-4.7304,-4.734,-4.7279,-4.7284,-4.7207,-4.7186,-4.7148,-4.7152,-4.7127,-4.7192,-4.7213,-4.7314,-4.7315,-4.734,-4.7188,-4.7093,-4.6845,-4.6664,-4.6355,-4.615,-4.5852,-4.568,-4.5448,-4.5386,-4.5142,-4.504,-4.4906,-4.4821,-4.4724,-4.4642,-4.4544,-4.4535,-4.449,-4.4529,-4.4469,-4.446,-4.4408,-4.4462,-4.4472,-4.4492,-4.4487,-4.4575,-4.4538,-4.4538,-4.4496,-4.4508,-4.4522,-4.4606,-4.4561,-4.4582,-4.4499,-4.4506,-4.4507,-4.4523,-4.4509,-4.4504,-4.4429,-4.444,-4.4413,-4.4428,-4.4346,-4.435,-4.4306,-4.4309,-4.4307,-4.4308,-4.4256,-4.4259,-4.4233,-4.4232,-4.4194,-4.4161,-4.4133,-4.4133,-4.4128,-4.4092,-4.4076,-4.4127,-4.4129,-4.4129,-4.4116,-4.4099,-4.4089,-4.4045,-4.4046,-4.4021,-4.4043,-4.4037,-4.4106,-4.4194,-4.4316,-4.4343,-4.4401,-4.439,-4.4406,-4.4441,-4.4388,-4.4143,-4.4082,-4.4035,-4.4118,-4.4154,-4.4201,-4.4296,-4.4383,-4.4298,-4.4107,-4.395,-4.3875,-4.3834,-4.384,-4.3881,-4.384,-4.3786,-4.375,-4.3718,-4.3876,-4.4867,-4.7199,-4.8548,-5.0545,-5.3562,-5.6239,-5.605,-5.1829,-4.0939,-3.2008,-2.6436,-2.4815,-2.4766,-2.7205,-3.1969,-3.5958,-3.9386,-4.1264,-4.3111,-4.376,-4.4285,-4.4153,-4.4618,-4.4525,-4.4901,-4.4811,-4.5128,-4.5029,-4.5265,-4.5225,-4.5463,-4.5434,-4.5623,-4.558,-4.5818,-4.5787,-4.5943,-4.5958,-4.6126,-4.6128,-4.6237,-4.6284,-4.6372,-4.6375,-4.6514,-4.6556,-4.6627,-4.6623,-4.6706,-4.6788,-4.6838,-4.6817,-4.6828,-4.6832,-4.6784,-4.6776,-4.6737,-4.6678,-4.6577,-4.6583,-4.6539,-4.6409,-4.6332,-4.6376,-4.6405,-4.6514,-4.6541,-4.6673,-4.6705,-4.665,-4.658,-4.6463,-4.6256,-4.6128,-4.5831,-4.5663,-4.5377,-4.5226,-4.5068,-4.497,-4.4852,-4.4766,-4.4611,-4.4576,-4.4458,-4.448,-4.4383,-4.4425,-4.4362,-4.4453,-4.4387,-4.4522,-4.4436,-4.445,-4.4394,-4.4441,-4.4421,-4.4514,-4.4496,-4.4495,-4.4424,-4.4505,-4.4442,-4.4499,-4.4428,-4.4486,-4.443,-4.4434,-4.4365,-4.4417,-4.4346,-4.4416,-4.4343,-4.4319,-4.4243,-4.4259,-4.4284,-4.4338,-4.4225,-4.4243,-4.4179,-4.4209,-4.419,-4.4166,-4.4175,-4.4174,-4.412,-4.4155,-4.4091,-4.4154,-4.4213,-4.4276,-4.4309,-4.4408,-4.4418,-4.4453,-4.4452,-4.4517,-4.4523,-4.4286,-4.3976,-4.3918,-4.3901,-4.4005,-4.4009,-4.4093,-4.4306,-4.4291,-4.4199,-4.4004,-4.3934,-4.3886,-4.3882,-4.3834,-4.384,-4.3822,-4.3793,-4.3767,-4.379,-4.4267,-4.6065,-4.8674,-5.074,-5.3581,-5.6117,-5.5035,-5.0317,-3.9633,-3.2087,-2.705,-2.5789,-2.5583,-2.7865,-3.2395,-3.419,-3.7896,-4.0268,-4.2134,-4.3383,-4.4041,-4.4206,-4.4511,-4.458,-4.4774,-4.481,-4.4954,-4.4967,-4.5142,-4.5204,-4.533,-4.5347,-4.5425,-4.549,-4.5581,-4.5636,-4.5758,-4.5838,-4.5955,-4.5992,-4.6093,-4.6106,-4.6219,-4.632,-4.641,-4.6495,-4.6532,-4.6599,-4.6628,-4.6692,-4.6712,-4.6732,-4.6745,-4.6791,-4.6749,-4.678,-4.6666,-4.6657,-4.66,-4.6554,-4.6506,-4.644,-4.6366,-4.6375,-4.6375,-4.6484,-4.6476,-4.653,-4.6466,-4.643,-4.6252,-4.6083,-4.5814,-4.5725,-4.5456,-4.5287,-4.5062,-4.4859,-4.4658,-4.4554,-4.4387,-4.4319,-4.4212,-4.4141,-4.4028,-4.4045,-4.4026,-4.4028,-4.3979,-4.4017,-4.3949,-4.4002,-4.3964,-4.3986,-4.395,-4.402,-4.3995,-4.4018,-4.3972,-4.3986,-4.3982,-4.4011,-4.3994,-4.4011,-4.3971,-4.3982,-4.3943,-4.3936,-4.3891,-4.3913,-4.3913,-4.3919,-4.3867,-4.3828,-4.38,-4.3803,-4.3742,-4.3737,-4.3711,-4.3696,-4.3679,-4.3697,-4.3663,-4.3688,-4.3719,-4.3792,-4.3869,-4.3922,-4.3928,-4.3974,-4.3991,-4.4,-4.4095,-4.3876,-4.353,-4.3381,-4.3386,-4.3486,-4.3522,-4.3584,-4.3726,-4.374,-4.3618,-4.3425,-4.3314,-4.3239,-4.3233,-4.3244,-4.3206,-4.3171,-4.316,-4.316,-4.317,-4.3523,-4.5068,-4.7892,-5.0214,-5.3352,-5.6185,-5.5999,-5.1059,-3.9152,-2.8381,-2.2825,-2.229,-2.3503,-2.6869,-3.0979,-3.3275,-3.7146,-3.9923,-4.1831,-4.3002,-4.3471,-4.3739,-4.3873,-4.404,-4.415,-4.4288,-4.4329,-4.441,-4.4481,-4.4575,-4.4696,-4.4782,-4.48,-4.4914,-4.4972,-4.5065,-4.5124,-4.5214,-4.527,-4.5386,-4.5437,-4.5562,-4.5579,-4.5707,-4.578,-4.5897,-4.5948,-4.6043,-4.6077,-4.6177,-4.62,-4.6274,-4.6249,-4.6317,-4.6277,-4.6278,-4.627,-4.6228,-4.6167,-4.6153,-4.6068,-4.6085,-4.6042,-4.6059,-4.6046,-4.6112,-4.6129,-4.6092,-4.6028,-4.5899,-4.5685,-4.5477,-4.5168,-4.5022,-4.4754,-4.4506,-4.4297,-4.407,-4.3879,-4.3706,-4.3602,-4.3489,-4.3401,-4.3328,-4.3248,-4.3209,-4.317,-4.3149,-4.3104,-4.3091,-4.3073,-4.3096,-4.3106,-4.3106,-4.3084,-4.3105,-4.3115,-4.3134,-4.3132,-4.3128,-4.3127,-4.3131,-4.3149,-4.3105,-4.3105,-4.3073,-4.3052,-4.3087,-4.3044,-4.3002,-4.3003,-4.2983,-4.2971,-4.2945,-4.2944,-4.291,-4.2883,-4.2862,-4.2826,-4.2802,-4.2852,-4.2908,-4.2962,-4.3059,-4.3121,-4.3131,-4.3169,-4.3199,-4.3281,-4.3118,-4.29,-4.2596,-4.254,-4.2626,-4.2721,-4.2716,-4.2829,-4.2935,-4.2834,-4.2674,-4.2494,-4.2424,-4.2365,-4.2349,-4.2321,-4.2297,-4.223,-4.2203,-4.2202,-4.2252,-4.2515,-4.4059,-4.695,-4.9374,-5.2737,-5.5576,-5.5939,-5.0341,-3.7527,-2.507,-1.9796,-1.9406,-2.1342,-2.5764,-2.988,-3.4519,-3.7939,-4.0224,-4.1738,-4.207,-4.2445,-4.2668,-4.2861,-4.2992,-4.3128,-4.3197,-4.3274,-4.3342,-4.3441,-4.3517,-4.3605,-4.3645,-4.3725,-4.38,-4.3916,-4.4007,-4.4064,-4.4143,-4.4203,-4.4294,-4.4403,-4.4465,-4.4554,-4.4643,-4.4764,-4.4838,-4.4908,-4.494,-4.5019,-4.5079,-4.5148,-4.5165,-4.52,-4.5189,-4.5223,-4.5151,-4.5113,-4.5087,-4.5063,-4.5013,-4.5018,-4.4972,-4.4973,-4.4991,-4.5053,-4.5114,-4.5149,-4.5142,-4.5084,-4.4936,-4.4772,-4.4521,-4.4253,-4.3945,-4.3693,-4.346,-4.3348,-4.314,-4.296,-4.2809,-4.2707,-4.2608,-4.2491,-4.2413,-4.2374,-4.234,-4.2271,-4.2267,-4.2222,-4.2193,-4.2223,-4.2202,-4.2193,-4.2189,-4.2205,-4.2225,-4.2243,-4.2233,-4.2235,-4.2238,-4.2258,-4.2282,-4.2258,-4.2243,-4.2243,-4.2234,-4.2241,-4.2206,-4.2178,-4.2177,-4.2152,-4.2119,-4.2059,-4.2055,-4.2017,-4.2025,-4.2033,-4.202,-4.1971,-4.1948,-4.1944,-4.2024,-4.2082,-4.2146,-4.2214,-4.2252,-4.2269,-4.2313,-4.2334,-4.2208,-4.1832,-4.1712,-4.1737,-4.1807,-4.1864
